ref,t,emg1,emg2,emg1raw,emg2raw,aDotS,bDotS,gDotS,aS,bS,gS,aDotSH,bDotSH,gDotSH,aSH,bSH,gSH
0,0,116,148,500,497,0.1154134,0.03919738,-0.3111452,-1.412386,-3.083535,-1.603239,0.1561977,0.01115081,0.1327338,-1.044162,-2.630269,1.648305
0,0.01111111,116,148,500,497,0.1197136,0.04037103,-0.2728628,-1.413745,-3.083818,-1.605301,0.1492133,-0.007576644,0.1128713,-1.045149,-2.6311,1.647454
0,0.02222222,119,166,498,498,0.1204973,0.03914372,-0.2525176,-1.414942,-3.083909,-1.607777,0.1408501,-0.01853748,0.09538142,-1.046061,-2.63189,1.646751
0,0.03333334,119,166,498,498,0.120657,0.04200275,-0.2465699,-1.416205,-3.084133,-1.610396,0.1377622,-0.02586792,0.07787129,-1.047054,-2.63287,1.646337
0,0.04444445,119,166,498,498,0.1286319,0.04838765,-0.2506126,-1.417739,-3.084472,-1.613444,0.14184,-0.02277854,0.07933019,-1.048514,-2.633374,1.645337
0,0.05555556,119,166,498,498,0.1311737,0.03289938,-0.257033,-1.41923,-3.084069,-1.616369,0.1464237,-0.01659139,0.08790372,-1.050026,-2.633623,1.643934
0,0.06666667,119,166,498,498,0.1340359,0.01936066,-0.2522239,-1.420832,-3.083592,-1.61906,0.1344122,-0.008376479,0.1031518,-1.051002,-2.633245,1.642058
0,0.07777778,112,141,500,506,0.1378893,-0.0082096,-0.2535923,-1.422591,-3.082403,-1.621914,0.1277292,-0.006249242,0.1108014,-1.05207,-2.633146,1.640539
0,0.08888889,112,141,500,506,0.1449186,-0.0517084,-0.258254,-1.424534,-3.080515,-1.624756,0.1159681,-0.01378624,0.1218051,-1.052712,-2.633106,1.638679
0,0.1,112,141,500,506,0.1420106,-0.06460956,-0.2634131,-1.426092,-3.07908,-1.627821,0.102888,-0.02713931,0.1199634,-1.053045,-2.633472,1.637353
0,0.1111111,112,141,500,506,0.1471895,-0.09997716,-0.2687806,-1.428187,-3.07665,-1.63089,0.09631282,-0.03889607,0.1014332,-1.053374,-2.634265,1.636617
0,0.1222222,112,141,500,506,0.1538073,-0.1197597,-0.2708765,-1.430296,-3.074566,-1.633793,0.09667186,-0.02223404,0.09047069,-1.054457,-2.63429,1.635909
0,0.1333333,104,165,500,498,0.1431284,-0.1616534,-0.2759003,-1.432027,-3.071197,-1.6368,0.1006581,0.008555532,0.0880245,-1.055968,-2.633601,1.634809
0,0.1444445,104,165,500,498,0.1402508,-0.1694689,-0.274687,-1.433762,-3.068821,-1.639705,0.09390845,0.02092607,0.09754782,-1.056944,-2.632863,1.6333
0,0.1555556,104,165,500,498,0.131671,-0.1845013,-0.2740697,-1.435308,-3.065887,-1.642588,0.08352572,0.03316689,0.1080584,-1.057799,-2.631739,1.631519
0,0.1666667,104,165,500,498,0.1213987,-0.1924561,-0.2709098,-1.436656,-3.063219,-1.645368,0.07422276,0.02587892,0.1076441,-1.058241,-2.631502,1.630281
0,0.1777778,99,178,500,504,0.1161787,-0.1871208,-0.2702095,-1.438178,-3.060864,-1.648187,0.0747593,0.01883466,0.09145829,-1.058933,-2.631707,1.629701
0,0.1888889,99,178,500,504,0.1187555,-0.1733988,-0.2697106,-1.439739,-3.058972,-1.651,0.07263489,-0.003933817,0.07055493,-1.059274,-2.632545,1.629499
0,0.2,99,178,500,504,0.129633,-0.1647558,-0.2723113,-1.441646,-3.056975,-1.653906,0.06399696,-0.02236637,0.05205579,-1.059329,-2.633375,1.629353
0,0.2111111,99,178,500,504,0.1390344,-0.1641313,-0.2679209,-1.443659,-3.054815,-1.656644,0.03805242,-0.05118025,0.02792615,-1.058388,-2.634654,1.62987
0,0.2222222,99,178,500,504,0.1440424,-0.1862011,-0.2267483,-1.445931,-3.051888,-1.657861,0.02476338,-0.07599216,0.01038213,-1.057629,-2.636139,1.630202
0,0.2333333,98,164,500,499,0.1463539,-0.2264113,-0.1872509,-1.448045,-3.048348,-1.658466,0.03715414,-0.06185582,0.002241022,-1.0581,-2.636918,1.630465
0,0.2444444,98,164,500,499,0.1503548,-0.2427389,-0.2041255,-1.450011,-3.044852,-1.661079,0.05424553,-0.03523035,0.0111974,-1.059318,-2.636939,1.629883
0,0.2555556,98,164,500,499,0.1638442,-0.2410737,-0.237765,-1.452478,-3.041767,-1.664379,0.06507621,0.00751761,0.04059645,-1.060815,-2.635578,1.628304
0,0.2666667,98,164,500,499,0.1676628,-0.2416214,-0.2645376,-1.454626,-3.03854,-1.667883,0.06344061,0.03616814,0.04960012,-1.061922,-2.63446,1.627278
0,0.2777778,99,171,500,499,0.161566,-0.2372727,-0.269473,-1.45652,-3.035541,-1.670768,0.06063543,0.03658313,0.04580553,-1.062635,-2.634165,1.626786
0,0.2888889,99,171,500,499,0.1571787,-0.1969289,-0.2465324,-1.458142,-3.034133,-1.672814,0.04350444,0.01354879,0.0240357,-1.062348,-2.634883,1.627325
0,0.3,99,171,500,499,0.1556159,-0.1639542,-0.2206855,-1.45996,-3.032931,-1.67452,0.0464317,0.0007563271,0.01548838,-1.062643,-2.635283,1.627282
0,0.3111111,99,171,500,499,0.1557732,-0.09222202,-0.1927294,-1.461574,-3.033636,-1.676009,0.05095923,0.007492382,0.01117861,-1.063457,-2.635518,1.627254
0,0.3222222,99,171,500,499,0.1567826,-0.03260119,-0.1784204,-1.463373,-3.034488,-1.677887,0.06363037,0.02542286,0.01774158,-1.06465,-2.635123,1.626712
0,0.3333333,95,196,499,499,0.1586262,0.09369398,-0.1317803,-1.464713,-3.038933,-1.67862,0.08578568,0.03623463,0.02715665,-1.066334,-2.634952,1.626029
0,0.3444445,95,196,499,499,0.1585806,0.1557804,-0.1006627,-1.466148,-3.042049,-1.679305,0.09936169,0.02434472,0.02577575,-1.067495,-2.635584,1.62578
0,0.3555556,95,196,499,499,0.1605328,0.2121829,-0.06878407,-1.467581,-3.046158,-1.679585,0.1041244,0.0003111735,0.02404009,-1.068312,-2.636659,1.625562
0,0.3666667,95,196,499,499,0.1639785,0.3055768,-0.01714449,-1.46892,-3.052249,-1.679076,0.09431282,-0.02651413,0.01188396,-1.06845,-2.638116,1.625791
0,0.3777778,100,190,501,496,0.1586918,0.3386053,0.001530845,-1.470235,-3.05684,-1.679024,0.09244525,-0.0377749,0.01247436,-1.068937,-2.639181,1.625659
0,0.3888889,100,190,501,496,0.1575307,0.3771558,0.02022386,-1.471511,-3.0622,-1.678918,0.08813214,-0.05719479,0.02451926,-1.069277,-2.640254,1.625075
0,0.4,100,190,501,496,0.1547312,0.3841987,0.02344895,-1.47274,-3.066593,-1.679065,0.08062221,-0.06743135,0.02223534,-1.069491,-2.641405,1.624957
0,0.4111111,100,190,501,496,0.1521109,0.379573,0.02523903,-1.474023,-3.070773,-1.679226,0.08195958,-0.06167318,0.006555263,-1.070068,-2.642533,1.625343
0,0.4222222,100,190,501,496,0.1446639,0.3543526,0.02592556,-1.475172,-3.074201,-1.679286,0.08503434,-0.05258677,0.001322404,-1.070882,-2.643417,1.625536
0,0.4333333,93,210,500,496,0.1372244,0.3355522,0.02695701,-1.476179,-3.077521,-1.679243,0.09017687,-0.04276235,0.004154455,-1.071774,-2.644088,1.625397
0,0.4444444,93,210,500,496,0.1249848,0.2963084,0.03127562,-1.477127,-3.079992,-1.678959,0.08196183,-0.03549897,0.009347405,-1.072237,-2.644624,1.625165
0,0.4555556,93,210,500,496,0.1117961,0.257058,0.03033829,-1.477864,-3.081996,-1.67882,0.06731889,-0.03606335,0.01173832,-1.072335,-2.645088,1.624961
0,0.4666667,93,210,500,496,0.1004421,0.2340648,0.03503517,-1.478472,-3.084214,-1.678515,0.05343441,-0.03787616,0.009857779,-1.072337,-2.645779,1.624911
0,0.4777778,93,210,500,496,0.0944353,0.2106038,0.03747954,-1.479283,-3.086282,-1.678168,0.0491224,-0.03495301,0.007463975,-1.072595,-2.646285,1.624946
0,0.4888889,92,192,500,502,0.08216104,0.1857356,0.03539753,-1.479771,-3.087843,-1.677982,0.0425035,-0.03233666,0.003163807,-1.072727,-2.646724,1.62505
0,0.5,92,192,500,502,0.07600921,0.172687,0.0347339,-1.480217,-3.089581,-1.677821,0.0415849,-0.02680236,-0.0002088249,-1.073058,-2.647156,1.62509
0,0.5111111,92,192,500,502,0.06177137,0.1437704,0.03083624,-1.480446,-3.090476,-1.677686,0.04224279,-0.02588363,-0.003533964,-1.073366,-2.647692,1.625254
0,0.5222223,92,192,500,502,0.04330158,0.1141004,0.03004953,-1.480528,-3.091186,-1.677424,0.03537349,-0.01665386,-0.0002939794,-1.073514,-2.647712,1.625076
0,0.5333334,91,190,499,496,0.0416904,0.09259244,0.02342074,-1.480904,-3.091695,-1.677388,0.02016189,-0.007948102,0.01198887,-1.073417,-2.64731,1.624578
0,0.5444446,91,190,499,496,0.03160901,0.06918831,0.01965743,-1.48103,-3.092004,-1.677287,0.01182174,0.003765545,0.01901592,-1.07343,-2.646764,1.624091
0,0.5555557,91,190,499,496,0.02794001,0.04764922,0.007624269,-1.481371,-3.092168,-1.677494,0.003700418,0.02955695,0.02829727,-1.073725,-2.645447,1.623384
0,0.5666668,91,190,499,496,0.02770434,0.01804175,-0.007113542,-1.481728,-3.09155,-1.677872,-0.005502898,0.05524847,0.04141563,-1.074137,-2.643766,1.622396
0,0.577778,91,190,499,496,0.02514174,-0.003916954,-0.01704013,-1.482013,-3.090885,-1.678203,-0.01394103,0.07352636,0.04891638,-1.074399,-2.642216,1.621465
0,0.5888891,91,200,499,494,0.02263086,-0.02711495,-0.02615699,-1.48219,-3.08996,-1.678782,-0.03321209,0.07466574,0.05568789,-1.074032,-2.640623,1.620527
0,0.6000003,91,200,499,494,0.02202469,-0.04087412,-0.03332759,-1.482503,-3.089186,-1.679202,-0.04251784,0.07566129,0.05144821,-1.073883,-2.639418,1.620053
0,0.6111114,91,200,499,494,0.02064996,-0.0642597,-0.04139709,-1.482805,-3.087748,-1.679735,-0.04725973,0.07942013,0.04719288,-1.073769,-2.638016,1.619529
0,0.6222225,91,200,499,494,0.02414142,-0.07123354,-0.04391273,-1.483277,-3.086758,-1.680287,-0.04001747,0.08821876,0.04905673,-1.074042,-2.636432,1.618819
0,0.6333337,87,166,500,500,0.02569497,-0.07922189,-0.05754948,-1.483723,-3.085496,-1.681213,-0.01938316,0.1016757,0.04458901,-1.075026,-2.635044,1.618289
0,0.6444448,87,166,500,500,0.02822785,-0.086384,-0.0644809,-1.484185,-3.084177,-1.681984,-0.009102561,0.1116391,0.03778303,-1.075894,-2.633578,1.617881
0,0.655556,87,166,500,500,0.02652913,-0.09559453,-0.06747361,-1.484671,-3.082712,-1.682547,-0.01341867,0.1106695,0.03493842,-1.076251,-2.632209,1.617464
0,0.6666671,87,166,500,500,0.02479077,-0.1022552,-0.07217975,-1.485005,-3.08125,-1.683387,-0.03013976,0.09511735,0.03995948,-1.075772,-2.631008,1.616677
0,0.6777782,87,166,500,500,0.02371386,-0.09955046,-0.06947875,-1.485383,-3.080203,-1.683978,-0.03621593,0.08035982,0.03772964,-1.075593,-2.63013,1.616247
0,0.6888894,80,160,499,496,0.0247124,-0.09573302,-0.06654105,-1.485733,-3.079175,-1.684566,-0.03724037,0.07806927,0.04304568,-1.075554,-2.628872,1.615492
0,0.7000005,80,160,499,496,0.02461524,-0.09238972,-0.06153545,-1.486,-3.078118,-1.68511,-0.03349726,0.08027816,0.04543466,-1.075812,-2.627566,1.614826
0,0.7111117,80,160,499,496,0.02311787,-0.08054449,-0.05583783,-1.486261,-3.077466,-1.68549,-0.02647626,0.09161883,0.04727785,-1.076296,-2.626049,1.614125
0,0.7222228,80,160,499,496,0.02398063,-0.0750938,-0.05035818,-1.486611,-3.076766,-1.685859,-0.02682941,0.1007737,0.05013414,-1.076559,-2.624425,1.613362
0,0.7333339,80,160,499,496,0.02671532,-0.06310216,-0.04459232,-1.487018,-3.076367,-1.686147,-0.02931919,0.09260686,0.05453582,-1.076581,-2.623128,1.612484
0,0.7444451,79,164,499,496,0.02323665,-0.05699176,-0.0379075,-1.487217,-3.075884,-1.686378,-0.02652202,0.08370015,0.04887171,-1.076671,-2.622313,1.612018
0,0.7555562,79,164,499,496,0.01668633,-0.05349503,-0.03504084,-1.487261,-3.075198,-1.68661,-0.02629863,0.07715152,0.05084629,-1.076733,-2.621235,1.611277
0,0.7666674,79,164,499,496,0.01364288,-0.05694952,-0.03469145,-1.487398,-3.074438,-1.686903,-0.03526182,0.07128636,0.04236919,-1.076409,-2.620231,1.610948
0,0.7777785,79,164,499,496,0.008226641,-0.05571745,-0.0312062,-1.48735,-3.073726,-1.687086,-0.04099913,0.0662449,0.03337899,-1.076195,-2.619213,1.61077
0,0.7888896,78,170,498,497,0.006362708,-0.06078643,-0.03337366,-1.487542,-3.072798,-1.687487,-0.04099177,0.068437,0.03675199,-1.076163,-2.618019,1.61019
0,0.8000008,78,170,498,497,0.001874268,-0.0587416,-0.02317327,-1.487424,-3.07215,-1.687375,-0.03604896,0.06635558,0.03341483,-1.076235,-2.617214,1.609849
0,0.8111119,78,170,498,497,-0.0003459677,-0.05973665,-0.01358665,-1.48741,-3.071486,-1.687208,-0.0313565,0.06249367,0.02339111,-1.0763,-2.616577,1.609841
0,0.8222231,78,170,498,497,-0.003846498,-0.0530013,-0.01002153,-1.487403,-3.071038,-1.687185,-0.01432033,0.05868928,0.01617561,-1.076629,-2.616109,1.609675
0,0.8333342,78,170,498,497,-0.006013882,-0.05182394,-0.01088194,-1.487331,-3.070451,-1.687269,-0.01337469,0.04653955,0.01429082,-1.076622,-2.615819,1.609554
0,0.8444453,76,151,498,498,-0.005214823,-0.04552711,-0.009597996,-1.487196,-3.070016,-1.687493,-0.0197511,0.038387,0.0100616,-1.076269,-2.61533,1.609494
0,0.8555565,76,151,498,498,-0.00522055,-0.04574396,-0.008556044,-1.487169,-3.069496,-1.687486,-0.02368724,0.03663348,0.00675272,-1.076118,-2.614823,1.609496
0,0.8666676,76,151,498,498,-0.007468819,-0.04248047,-0.008995904,-1.487074,-3.069093,-1.68768,-0.02480899,0.03650966,0.01297549,-1.076004,-2.614136,1.60906
0,0.8777788,76,151,498,498,-0.007686079,-0.03726404,-0.007905072,-1.487053,-3.068884,-1.687632,-0.02783546,0.03748465,0.01539753,-1.075819,-2.61338,1.608719
0,0.8888899,76,147,498,499,-0.009155791,-0.0283602,-0.003879581,-1.486909,-3.068767,-1.687554,-0.02401326,0.04578529,0.01919479,-1.075975,-2.61253,1.60838
0,0.900001,76,147,498,499,-0.00705864,-0.02702141,-0.004700267,-1.486926,-3.06839,-1.687796,-0.01992954,0.05149563,0.01822353,-1.076185,-2.611643,1.60812
0,0.9111122,76,147,498,499,-0.004961767,-0.02546064,-0.006544224,-1.486953,-3.068163,-1.687891,-0.02608836,0.05782259,0.01779256,-1.076164,-2.610611,1.607877
0,0.9222233,76,147,498,499,-0.006892343,-0.02905,-0.01058657,-1.486907,-3.067726,-1.688188,-0.0330939,0.05924358,0.01784481,-1.075968,-2.609596,1.60772
0,0.9333345,76,147,498,499,-0.005288035,-0.04129161,-0.01423543,-1.486965,-3.066875,-1.688355,-0.03532342,0.05898632,0.02790777,-1.07587,-2.608534,1.607056
0,0.9444456,74,149,498,497,-0.01416787,-0.05854854,-0.0168209,-1.486718,-3.065764,-1.688481,-0.02904707,0.06316396,0.03170881,-1.076135,-2.607636,1.606465
0,0.9555568,74,149,498,497,-0.0208336,-0.0775884,-0.02087362,-1.486464,-3.06429,-1.688636,-0.02398328,0.06940317,0.03312568,-1.07646,-2.606518,1.605964
0,0.9666679,74,149,498,497,-0.01833967,-0.08347625,-0.02868324,-1.486401,-3.063072,-1.689097,-0.01742938,0.06880687,0.03116108,-1.076867,-2.605825,1.60574
0,0.977779,74,149,498,497,-0.01703885,-0.086055,-0.03689183,-1.486301,-3.061829,-1.68956,-0.006943166,0.05505732,0.02965467,-1.077186,-2.605633,1.605413
0,0.9888902,71,134,499,500,-0.0127735,-0.08395188,-0.04081581,-1.486327,-3.06087,-1.689951,-0.01264552,0.05005962,0.03018834,-1.077076,-2.605045,1.60493
0,1.000001,71,134,499,500,-0.005390257,-0.07814234,-0.04613674,-1.486605,-3.060091,-1.690657,-0.02418909,0.04446197,0.02834802,-1.076793,-2.604374,1.604809
0,1.011112,71,134,499,500,-0.001163952,-0.07542665,-0.04774819,-1.486772,-3.059199,-1.691137,-0.03649291,0.04662146,0.03372131,-1.076396,-2.603221,1.604192
0,1.022224,71,134,499,500,0.002125926,-0.07631718,-0.04794919,-1.486944,-3.058236,-1.69158,-0.03664677,0.06407578,0.0438021,-1.076597,-2.601557,1.603424
0,1.033335,71,134,499,500,0.003081806,-0.07380433,-0.04416113,-1.487127,-3.057492,-1.691921,-0.02843525,0.07144582,0.05572567,-1.076973,-2.600158,1.602353
0,1.044446,73,128,499,500,0.003122468,-0.0737915,-0.0441789,-1.487246,-3.056578,-1.692297,-0.02461485,0.07571938,0.06386262,-1.077235,-2.598842,1.60134
0,1.055557,73,128,499,500,0.008178405,-0.067748,-0.0406996,-1.487456,-3.055989,-1.692586,-0.02154724,0.07473996,0.05909546,-1.077478,-2.597771,1.600718
0,1.066668,73,128,499,500,0.006046999,-0.06873444,-0.03655209,-1.487546,-3.055131,-1.692664,-0.02089172,0.06298471,0.05859686,-1.077479,-2.59701,1.600047
0,1.077779,73,128,499,500,0.007010501,-0.06510829,-0.03796954,-1.487716,-3.054459,-1.693051,-0.02370496,0.0486695,0.05907008,-1.077234,-2.596375,1.599289
0,1.08889,79,149,499,495,0.006164908,-0.06736395,-0.04284738,-1.487852,-3.053541,-1.693617,-0.01999927,0.03153817,0.05896046,-1.07713,-2.596033,1.598623
0,1.100002,79,149,499,495,0.01043156,-0.06612688,-0.04256082,-1.488275,-3.052767,-1.693963,-0.02479367,0.02707219,0.05948515,-1.076833,-2.595334,1.597828
0,1.111113,79,149,499,495,0.0094654,-0.06697692,-0.04385654,-1.488431,-3.051935,-1.69439,-0.03130375,0.02772191,0.05672185,-1.076527,-2.594512,1.597191
0,1.122224,79,149,499,495,0.01056778,-0.06714512,-0.04279947,-1.488676,-3.051093,-1.694686,-0.03299896,0.03715713,0.05541057,-1.07647,-2.59354,1.596578
0,1.133335,79,149,499,495,0.00685307,-0.05733445,-0.03852159,-1.488721,-3.050725,-1.694774,-0.02352718,0.06792149,0.04746287,-1.077202,-2.591939,1.596206
0,1.144446,82,135,499,500,0.005943116,-0.0587782,-0.042128,-1.488818,-3.049922,-1.695248,-0.01628683,0.08127918,0.05038501,-1.077819,-2.590493,1.595348
0,1.155557,82,135,499,500,0.004230633,-0.04723211,-0.03530894,-1.488812,-3.049709,-1.695426,-0.009012416,0.09244834,0.05231848,-1.078521,-2.589007,1.594582
0,1.166668,82,135,499,500,0.005042853,-0.04241739,-0.03209923,-1.488979,-3.049381,-1.695674,-0.01754528,0.08594499,0.05050682,-1.078354,-2.587796,1.593875
0,1.17778,82,135,499,500,0.0008230563,-0.04478073,-0.02718206,-1.488907,-3.048802,-1.695756,-0.02658984,0.07813095,0.04580127,-1.078175,-2.586766,1.593439
0,1.188891,82,135,499,500,0.001300637,-0.03656465,-0.01452161,-1.488877,-3.048648,-1.695664,-0.02778001,0.04320969,0.02929441,-1.077524,-2.587118,1.593635
0,1.200002,86,139,500,496,-0.001840726,-0.03798249,-0.013754,-1.48881,-3.048162,-1.695737,-0.01938606,0.02834804,0.02287886,-1.077533,-2.587049,1.593418
0,1.211113,86,139,500,496,-6.242562E-05,-0.03298294,-0.00611409,-1.488929,-3.048037,-1.695474,-0.006878381,0.01263884,0.01019913,-1.077618,-2.587556,1.59369
0,1.222224,86,139,500,496,-0.005460336,-0.03331508,-0.0007539371,-1.48882,-3.047729,-1.695277,-0.0109015,0.008849625,0.001147075,-1.077382,-2.587593,1.593943
0,1.233335,86,139,500,496,-0.005599593,-0.03257004,0.005944464,-1.488742,-3.047431,-1.695053,-0.01639429,0.02932606,-0.00145768,-1.077477,-2.586731,1.594024
0,1.244446,85,136,500,497,-0.006669956,-0.03306336,0.008020073,-1.488769,-3.047126,-1.694866,-0.01778057,0.04267431,0.004886263,-1.077686,-2.585801,1.593699
0,1.255558,85,136,500,497,-0.005425413,-0.038284,0.012366,-1.488777,-3.046621,-1.694513,-0.01381527,0.04435409,0.005812177,-1.077892,-2.585251,1.593587
0,1.266669,85,136,500,497,-0.006519491,-0.03900291,0.01547464,-1.488635,-3.046129,-1.694305,-0.01766258,0.04018492,-0.007060654,-1.077724,-2.58508,1.594004
0,1.27778,85,136,500,497,-0.003232799,-0.04114988,0.01613043,-1.48873,-3.045662,-1.694043,-0.01960187,0.03048222,-0.01810754,-1.077431,-2.585193,1.594607
0,1.288891,85,136,500,497,2.997369E-05,-0.0439698,0.01990497,-1.48876,-3.045071,-1.693753,-0.0203111,0.02737027,-0.02051887,-1.077337,-2.585012,1.594935
0,1.300002,82,131,498,497,0.006547988,-0.04766999,0.02352984,-1.489046,-3.04448,-1.693313,-0.01846161,0.02841448,-0.02053506,-1.077367,-2.58475,1.595184
0,1.311113,82,131,498,497,0.008455836,-0.0436219,0.02549119,-1.489137,-3.044146,-1.693055,-0.01937304,0.02786201,-0.01815302,-1.077289,-2.584413,1.595327
0,1.322224,82,131,498,497,0.00518588,-0.04316271,0.02776569,-1.489084,-3.043764,-1.692666,-0.02056852,0.02125137,-0.02678183,-1.077162,-2.584616,1.595863
0,1.333336,82,131,498,497,0.00486167,-0.03734321,0.03119051,-1.489153,-3.043611,-1.692207,-0.01824351,0.01278026,-0.03355413,-1.076993,-2.584889,1.596458
0,1.344447,81,112,498,498,0.005815519,-0.03520145,0.03166236,-1.489257,-3.043314,-1.691792,-0.01014661,0.007082833,-0.04416062,-1.077046,-2.585296,1.597238
0,1.355558,81,112,498,498,0.006616548,-0.03101331,0.03800391,-1.489525,-3.043232,-1.69123,0.0007632766,0.007276041,-0.04807163,-1.077375,-2.585673,1.597952
0,1.366669,81,112,498,498,0.0137038,-0.02378502,0.04174285,-1.489866,-3.043095,-1.690597,0.001491456,0.008175731,-0.04426263,-1.077471,-2.585741,1.598358
0,1.37778,81,112,498,498,0.01235604,-0.01713015,0.04095183,-1.490006,-3.043349,-1.690176,-0.00216087,0.006021191,-0.03948234,-1.077444,-2.585844,1.598673
0,1.388891,81,112,498,498,0.01722165,-0.008133047,0.04610484,-1.490258,-3.043626,-1.689525,-0.01210085,0.004116305,-0.03417293,-1.077111,-2.585794,1.598955
0,1.400002,88,125,499,489,0.02129333,-0.003734007,0.04702681,-1.490677,-3.043799,-1.688937,-0.01321563,0.001790251,-0.03132061,-1.076938,-2.585887,1.599263
0,1.411114,88,125,499,489,0.02124736,-0.002658866,0.04724462,-1.49086,-3.044004,-1.688394,-0.009259288,0.001309222,-0.03374699,-1.077092,-2.586139,1.599912
0,1.422225,88,125,499,489,0.02139359,-0.005344714,0.04451611,-1.490993,-3.043869,-1.687953,-0.003192144,-0.0007147812,-0.03619103,-1.077255,-2.586636,1.600525
0,1.433336,88,125,499,489,0.02034452,-0.004514267,0.0403291,-1.491163,-3.043995,-1.687616,0.006150693,-0.00415447,-0.03770155,-1.077495,-2.587182,1.601082
0,1.444447,87,109,498,498,0.01936383,-0.007470103,0.0440711,-1.491355,-3.043972,-1.686966,0.009902022,-0.002070827,-0.03057224,-1.077701,-2.587341,1.60131
0,1.455558,87,109,498,498,0.01636665,-0.01133724,0.04110165,-1.491472,-3.04384,-1.686569,0.004074975,0.001685705,-0.02622938,-1.077658,-2.587292,1.601516
0,1.466669,87,109,498,498,0.0173986,-0.009380465,0.03715534,-1.491699,-3.043923,-1.686237,0.002004708,0.003201779,-0.02144396,-1.077774,-2.587206,1.601653
0,1.47778,87,109,498,498,0.01725968,-0.006231243,0.03779061,-1.491892,-3.044037,-1.685792,-0.0007638712,0.003771035,-0.01809249,-1.077773,-2.587326,1.601866
0,1.488891,87,109,498,498,0.01610382,-0.004173594,0.03819365,-1.492033,-3.044104,-1.685424,0.004399993,0.001224531,-0.01575306,-1.077896,-2.587503,1.60201
0,1.500003,86,141,499,498,0.01814803,-0.001555945,0.03654783,-1.492267,-3.044279,-1.685084,0.002908604,-0.008981733,-0.01625515,-1.07784,-2.587973,1.602341
0,1.511114,86,141,499,498,0.01885919,0.007485918,0.03509309,-1.492515,-3.044731,-1.684789,0.008545192,-0.01234908,-0.0143922,-1.077958,-2.588339,1.602474
0,1.522225,86,141,499,498,0.01646244,0.01367707,0.03631118,-1.492621,-3.045183,-1.684396,0.01000509,-0.0170098,-0.01441128,-1.07795,-2.588757,1.602678
0,1.533336,86,141,499,498,0.01092973,0.01930008,0.03415371,-1.492541,-3.045571,-1.684072,0.008382881,-0.01630808,-0.01249252,-1.077912,-2.588966,1.602792
0,1.544447,86,141,499,498,0.01090113,0.02057089,0.03330368,-1.492808,-3.045884,-1.683746,0.005526468,-0.009186814,-0.006262849,-1.077814,-2.588746,1.60264
0,1.555558,86,131,499,497,0.01179551,0.02521651,0.03204416,-1.492932,-3.046361,-1.683478,0.001049766,-0.003534185,-0.003836691,-1.077767,-2.588614,1.602626
0,1.566669,86,131,499,497,0.01371459,0.03136715,0.0289094,-1.493138,-3.046961,-1.683274,-0.0004970175,0.009843686,2.318586E-05,-1.077905,-2.588178,1.602519
0,1.577781,86,131,499,497,0.0147442,0.03308311,0.02598144,-1.49329,-3.047411,-1.683105,0.003417314,0.01590778,0.005255988,-1.0782,-2.587824,1.602258
0,1.588892,86,131,499,497,0.01586628,0.0325064,0.02368929,-1.493489,-3.047821,-1.682797,0.004759058,0.02215478,0.00764039,-1.078503,-2.587489,1.602134
0,1.600003,87,114,500,499,0.01600713,0.02958366,0.02201748,-1.493664,-3.048055,-1.682585,0.002631696,0.02151645,0.001933153,-1.078488,-2.58744,1.602306
0,1.611114,87,114,500,499,0.01734525,0.02398444,0.01765222,-1.493914,-3.048157,-1.682583,0.0129327,0.01426559,-0.001485521,-1.078836,-2.587723,1.602438
0,1.622225,87,114,500,499,0.01767478,0.01749361,0.01203732,-1.494174,-3.048105,-1.682486,0.01477343,0.01532729,-0.003873658,-1.079156,-2.587691,1.602467
0,1.633336,87,114,500,499,0.02242968,0.006192083,0.009831707,-1.494577,-3.047935,-1.682404,0.01643438,0.01243288,-0.004365571,-1.079378,-2.587797,1.602543
0,1.644447,87,114,500,499,0.02451829,0.008152504,0.005872717,-1.494841,-3.048103,-1.682487,0.01871282,0.01485605,-0.008670302,-1.079777,-2.587775,1.602852
0,1.655559,84,120,499,495,0.0265935,0.008887395,0.008186309,-1.495172,-3.048265,-1.682348,0.01847497,0.01526237,-0.009628372,-1.080033,-2.587848,1.603078
0,1.66667,84,120,499,495,0.02969054,0.01173293,0.005486614,-1.495456,-3.048496,-1.682401,0.0201054,0.01454681,-0.01154411,-1.080341,-2.587934,1.603274
0,1.677781,84,120,499,495,0.03481573,0.01595428,0.007392457,-1.495978,-3.048836,-1.682298,0.01595069,0.01324949,-0.008666416,-1.080446,-2.587869,1.603284
0,1.688892,84,120,499,495,0.03786864,0.01985553,0.004889278,-1.49651,-3.049185,-1.682309,0.01013571,0.01048611,-0.01674703,-1.080501,-2.588031,1.603857
0,1.700003,83,143,498,497,0.03684398,0.01857415,0.005714105,-1.496851,-3.049376,-1.68224,0.007214939,0.02198388,-0.01817839,-1.08083,-2.587657,1.604143
0,1.711114,83,143,498,497,0.04018071,0.01641118,0.0009523514,-1.497384,-3.049451,-1.68244,0.01363315,0.03442054,-0.01203689,-1.081453,-2.58714,1.604077
0,1.722225,83,143,498,497,0.03819494,0.01319627,0.0003219438,-1.497775,-3.049534,-1.682437,0.01454161,0.04149987,-0.004437521,-1.081904,-2.586608,1.603886
0,1.733337,83,143,498,497,0.0334612,0.0002264295,-0.001100543,-1.498028,-3.049146,-1.682501,0.01548065,0.04420914,-0.001121663,-1.082359,-2.586134,1.603773
0,1.744448,83,143,498,497,0.03056844,-0.006584152,-0.000247298,-1.498383,-3.048853,-1.682519,0.02643773,0.04001984,-0.009272139,-1.083033,-2.586303,1.604136
0,1.755559,80,111,499,499,0.02727716,-0.004634378,0.0001192724,-1.498586,-3.048849,-1.682505,0.03208785,0.03224401,-0.01404204,-1.083564,-2.586564,1.604468
0,1.76667,80,111,499,499,0.02419242,-0.006467765,-0.002404288,-1.498802,-3.048702,-1.682544,0.03256053,0.03138559,-0.0192887,-1.084103,-2.58647,1.604813
0,1.777781,80,111,499,499,0.02316256,-0.008761156,0.003654951,-1.498983,-3.048547,-1.682451,0.0234473,0.03662281,-0.01597056,-1.084274,-2.585861,1.604971
0,1.788892,80,111,499,499,0.02326416,-0.01104732,0.004307749,-1.499285,-3.048382,-1.682376,0.0127632,0.03601813,-0.01356611,-1.084316,-2.58549,1.605066
0,1.800003,80,111,499,499,0.02220437,-0.01089207,0.003252544,-1.499511,-3.048279,-1.682352,0.007232959,0.03287685,-0.008781652,-1.084504,-2.585138,1.605041
0,1.811115,81,103,500,498,0.01721717,-0.0200498,0.01018264,-1.499579,-3.047873,-1.681982,0.004743738,0.02431978,-0.01064383,-1.084519,-2.585181,1.605223
0,1.822226,81,103,500,498,0.01848162,-0.0245727,0.01150528,-1.499852,-3.04754,-1.681782,0.009883237,0.02174326,-0.01302885,-1.084832,-2.585299,1.605427
0,1.833337,81,103,500,498,0.01455642,-0.03347158,0.01741805,-1.499949,-3.04699,-1.681365,0.008675694,0.02818362,-0.01116369,-1.085115,-2.584936,1.605497
0,1.844448,81,103,500,498,0.0120067,-0.0401631,-0.01098028,-1.500097,-3.046271,-1.682161,0.006522352,0.03627542,-0.01073807,-1.085403,-2.584307,1.605543
0,1.855559,85,109,500,499,0.01998557,-0.03969517,-0.05105241,-1.500558,-3.04556,-1.683787,-0.001458041,0.04819409,-0.006038894,-1.085603,-2.583314,1.605402
0,1.86667,85,109,500,499,0.02751061,-0.0417582,-0.0438297,-1.501114,-3.04513,-1.684035,-0.005400416,0.05310829,0.002985572,-1.085876,-2.582489,1.605072
0,1.877781,85,109,500,499,0.02309906,-0.06584096,-0.02125448,-1.501336,-3.043821,-1.683448,-0.007995464,0.05319193,-0.01182013,-1.086033,-2.582256,1.605723
0,1.888893,85,109,500,499,0.01695426,-0.07660352,-0.0004918291,-1.501378,-3.042773,-1.682823,-0.008234808,0.05134677,-0.02089084,-1.086183,-2.581966,1.606273
0,1.900004,85,109,500,499,0.01783083,-0.07479645,0.007492604,-1.501638,-3.042105,-1.68235,-0.007498564,0.04577883,-0.01512971,-1.086134,-2.581585,1.606239
0,1.911115,83,115,500,497,0.01315627,-0.065851,0.004836974,-1.50168,-3.041616,-1.682299,-0.001851178,0.0380231,-0.01508984,-1.086343,-2.581549,1.606412
0,1.922226,83,115,500,497,0.01285658,-0.05878696,0.001835753,-1.501851,-3.041196,-1.682334,-0.002496587,0.03046989,-0.02170704,-1.086361,-2.581655,1.60682
0,1.933337,83,115,500,497,0.01027267,-0.04829697,-0.002707882,-1.501936,-3.040937,-1.682537,-8.776784E-05,0.01968409,-0.03163914,-1.086397,-2.582079,1.607532
0,1.944448,83,115,500,497,0.007623936,-0.03997744,0.004298647,-1.501855,-3.04075,-1.682085,-0.004978242,0.01961064,-0.03401233,-1.086279,-2.581915,1.607847
0,1.955559,91,127,499,495,0.007454053,-0.03742768,0.008040179,-1.501944,-3.040469,-1.681836,-0.01503793,0.02419247,-0.04263433,-1.086031,-2.581703,1.608538
0,1.966671,91,127,499,495,0.003979906,-0.03274492,0.01107183,-1.501823,-3.040238,-1.681702,-0.01146423,0.03941511,-0.03946242,-1.086365,-2.581129,1.608904
0,1.977782,91,127,499,495,-0.0004830286,-0.02798409,0.007617271,-1.501704,-3.040061,-1.681702,-0.006626341,0.04382237,-0.03763375,-1.08665,-2.580877,1.609399
0,1.988893,91,127,499,495,-0.001491215,-0.02908016,0.007402487,-1.501728,-3.039703,-1.681707,0.002900201,0.04651783,-0.03530706,-1.087207,-2.580662,1.609758
0,2.000004,91,127,499,495,-0.005704368,-0.03012869,0.006107443,-1.501522,-3.039433,-1.681673,0.004805106,0.04319232,-0.03482522,-1.087526,-2.580651,1.610254
0,2.011115,86,116,499,498,-0.00336158,-0.03381729,0.003254188,-1.501581,-3.038977,-1.681675,-0.004542937,0.04672766,-0.02630777,-1.087554,-2.579991,1.610306
0,2.022226,86,116,499,498,-0.004486019,-0.03243537,0.001365855,-1.501515,-3.038596,-1.681431,-0.006817253,0.04219643,-0.02054981,-1.087702,-2.579638,1.610384
0,2.033337,86,116,499,498,-0.005378989,-0.03445176,-0.005520566,-1.501471,-3.038042,-1.6816,-0.01093431,0.03441323,-0.01569591,-1.087579,-2.579393,1.610415
0,2.044448,86,116,499,498,-0.004202413,-0.03610585,-0.007987466,-1.501529,-3.037529,-1.681612,-0.00946712,0.02754853,-0.01658127,-1.087657,-2.579424,1.610773
0,2.055559,83,115,499,499,-0.006209331,-0.0375125,-0.01260247,-1.501477,-3.037044,-1.681843,-0.009007039,0.02880539,-0.02328106,-1.087763,-2.579329,1.611241
0,2.06667,83,115,499,499,-0.005200824,-0.03621897,-0.01345567,-1.501372,-3.036591,-1.682012,-0.01785705,0.02918423,-0.02568949,-1.087535,-2.57899,1.611626
0,2.077781,83,115,499,499,-0.006207148,-0.0371176,-0.01471757,-1.501316,-3.036124,-1.68216,-0.01957864,0.0365302,-0.01864781,-1.087602,-2.578404,1.611666
0,2.088892,83,115,499,499,-0.004982167,-0.0401983,-0.01530186,-1.501303,-3.035598,-1.682294,-0.02097259,0.03482733,-0.00479501,-1.087518,-2.577821,1.611293
0,2.100003,83,115,499,499,-0.006112518,-0.03979871,-0.0119763,-1.501206,-3.035101,-1.682252,-0.01769639,0.03354033,0.005717251,-1.087661,-2.577476,1.610933
0,2.111114,83,106,499,498,-0.008287801,-0.03845784,-0.01390682,-1.501089,-3.034682,-1.682407,-0.01086581,0.02590588,0.004391877,-1.087769,-2.577423,1.610914
0,2.122225,83,106,499,498,-0.008705148,-0.03028331,-0.01128625,-1.501045,-3.034634,-1.682468,-0.008720567,0.02212284,-0.001282457,-1.087909,-2.577288,1.61113
0,2.133336,83,106,499,498,-0.009025063,-0.02420967,-0.00905662,-1.500947,-3.034425,-1.682491,-0.007924523,0.01420714,-0.01071411,-1.087829,-2.577499,1.611545
0,2.144447,83,106,499,498,-0.00912997,-0.02211806,-0.00866735,-1.500856,-3.034175,-1.682577,-0.006312398,0.01566488,-0.01168254,-1.087861,-2.577359,1.611658
0,2.155558,88,119,499,492,-0.008173468,-0.02017777,-0.00721314,-1.50082,-3.033933,-1.682575,-0.008145448,0.01247135,-0.007831269,-1.087751,-2.577239,1.611633
0,2.166669,88,119,499,492,-0.004184838,-0.0153388,-0.003051667,-1.500861,-3.033868,-1.682671,-0.01671458,0.008193795,-0.001583847,-1.087515,-2.5768,1.611295
0,2.17778,88,119,499,492,-0.004457599,-0.01089976,0.002123386,-1.500799,-3.033915,-1.682538,-0.01463148,0.008817829,-0.003016273,-1.087277,-2.576745,1.611396
0,2.188891,88,119,499,492,-0.00359767,-0.006667082,0.002931577,-1.500854,-3.033965,-1.6824,-0.0178531,0.005858419,-0.003458972,-1.087008,-2.576632,1.611449
0,2.200002,88,119,499,492,-0.00361155,-0.007859712,0.009217942,-1.500846,-3.033729,-1.682067,-0.01108606,0.004664438,-0.01392189,-1.087046,-2.576735,1.611977
0,2.211113,92,127,500,496,-0.00153912,-0.007099613,0.0115414,-1.500876,-3.033783,-1.681782,-0.007357701,0.004558273,-0.01725094,-1.087098,-2.576832,1.612285
0,2.222224,92,127,500,496,-0.0005864687,-0.005743593,0.01613662,-1.50088,-3.033756,-1.681497,-0.00799389,-0.0007411956,-0.0157534,-1.086862,-2.577031,1.612397
0,2.233335,92,127,500,496,-0.0016552,-0.006182595,0.01822074,-1.500844,-3.033716,-1.681228,-0.007476354,-0.005840059,-0.008540899,-1.086712,-2.577133,1.612305
0,2.244446,92,127,500,496,0.003405316,-0.0008952327,0.02030034,-1.500979,-3.033878,-1.681047,-0.005757708,-0.0130628,-0.006062686,-1.086561,-2.57738,1.612249
0,2.255557,92,127,500,496,0.005180331,0.006922631,0.01959843,-1.501045,-3.034219,-1.680884,0.0006625969,-0.02213897,-0.01498028,-1.086521,-2.578115,1.612751
0,2.266668,91,149,499,496,0.005935792,0.01266658,0.02391693,-1.501059,-3.03457,-1.680588,0.006695809,-0.0198433,-0.02022779,-1.086669,-2.57846,1.613077
0,2.277779,91,149,499,496,0.006807775,0.01749758,0.02156297,-1.50123,-3.034965,-1.680469,0.01241763,-0.01272434,-0.02220368,-1.086989,-2.578566,1.613364
0,2.28889,91,149,499,496,0.008786145,0.02093466,0.02111511,-1.501346,-3.035312,-1.680322,0.004581337,-0.001248488,-0.01904351,-1.086993,-2.578322,1.613497
0,2.300001,91,149,499,496,0.009051263,0.01630031,0.01699532,-1.501566,-3.035424,-1.680261,-0.002041186,0.006031824,-0.01200814,-1.086954,-2.578051,1.613355
0,2.311112,96,145,501,493,0.009200253,0.0123897,0.02059559,-1.501676,-3.035515,-1.679944,-0.00463842,0.008425934,-0.009187991,-1.086922,-2.577857,1.613371
0,2.322223,96,145,501,493,0.01387004,0.004811822,0.01594232,-1.502044,-3.035388,-1.679904,-0.0004442508,0.007594516,-0.005828555,-1.087109,-2.577861,1.613297
0,2.333334,96,145,501,493,0.01656331,-0.006203407,0.01174177,-1.5023,-3.035064,-1.679836,0.002243118,-0.001356181,-0.009034477,-1.087082,-2.578219,1.613511
0,2.344445,96,145,501,493,0.01774159,-0.007847002,0.009276576,-1.502618,-3.035067,-1.679746,0.003867255,-0.01490426,-0.01979318,-1.086962,-2.579014,1.614076
0,2.355556,96,145,501,493,0.01566688,-0.008798823,0.00801575,-1.502726,-3.034976,-1.679674,0.01114543,-0.01899794,-0.02208759,-1.087072,-2.579588,1.614389
0,2.366668,105,146,501,495,0.01449794,-0.006750196,0.008392137,-1.502812,-3.035061,-1.679572,0.01295871,-0.01574038,-0.02117189,-1.087181,-2.579851,1.614623
0,2.377779,105,146,501,495,0.01338429,-0.005175702,0.005433183,-1.502897,-3.035022,-1.679552,0.006676924,-0.000572443,-0.01569533,-1.087295,-2.579445,1.6146
0,2.38889,105,146,501,495,0.0133883,-0.004787354,0.003338659,-1.503076,-3.03499,-1.67956,-0.001387662,0.009175533,-0.009669725,-1.087245,-2.578986,1.614523
0,2.400001,105,146,501,495,0.01668491,-0.006533456,0.001944468,-1.503343,-3.034862,-1.679517,-0.0062073,0.01965439,-0.006500255,-1.087177,-2.578432,1.614478
0,2.411112,114,156,501,496,0.01157606,-0.01077871,7.264432E-05,-1.503381,-3.034631,-1.679577,-0.002992499,0.02261854,-0.006062366,-1.087371,-2.578185,1.614504
0,2.422223,114,156,501,496,0.01396999,-0.01552452,-0.002950248,-1.503618,-3.034317,-1.679567,-0.003310772,0.01249753,-0.007823756,-1.087245,-2.578449,1.614729
0,2.433334,114,156,501,496,0.01524473,-0.02004566,-0.001602786,-1.50387,-3.033912,-1.679495,0.0009821306,0.005081982,-0.007223973,-1.087295,-2.578662,1.614812
0,2.444445,114,156,501,496,0.01439525,-0.02389307,-0.004481425,-1.503962,-3.033556,-1.679662,0.006479667,-0.004435046,-0.008966163,-1.087371,-2.579173,1.614964
0,2.455556,114,156,501,496,0.01407725,-0.01799576,-0.001233891,-1.504102,-3.033513,-1.679587,0.01925227,-0.01803957,-0.01299455,-1.087597,-2.580057,1.615288
0,2.466667,114,141,500,494,0.01157535,-0.0107678,7.920503E-05,-1.504079,-3.033654,-1.679616,0.01181853,-0.01794682,-0.0134978,-1.087456,-2.580287,1.615488
0,2.477778,114,141,500,494,0.01338347,-0.004383055,0.001247152,-1.504231,-3.033758,-1.679603,0.006466039,-0.01721662,-0.01543526,-1.087255,-2.580359,1.615773
0,2.488889,114,141,500,494,0.01408001,0.00357323,-0.0005491006,-1.504414,-3.03402,-1.679687,-0.0004549036,-0.007334587,-0.008469037,-1.087145,-2.580065,1.61567
0,2.5,114,141,500,494,0.01290296,0.005229177,0.001918458,-1.50447,-3.034087,-1.679563,0.004032904,0.00193749,-0.005747438,-1.087376,-2.579792,1.615798
0,2.511111,114,141,500,494,0.01412473,0.001951233,0.002404311,-1.504688,-3.034126,-1.679559,0.003723721,0.006729092,-0.00487212,-1.087496,-2.579633,1.615814
0,2.522222,110,136,500,497,0.01316858,-0.0003834324,0.003061064,-1.504831,-3.033958,-1.67947,0.01387694,0.01048307,-0.001085517,-1.087884,-2.579475,1.615734
0,2.533333,110,136,500,497,0.01013852,-0.003111342,-0.0006856663,-1.504844,-3.033803,-1.679554,0.02303676,0.00525652,-0.00429752,-1.088303,-2.579859,1.615907
0,2.544444,110,136,500,497,0.0142862,-0.0009949732,0.0007867544,-1.505112,-3.033871,-1.679519,0.02545319,-0.001033634,-0.0027522,-1.088545,-2.580291,1.615973
0,2.555555,110,136,500,497,0.01529694,0.001251145,-0.005298761,-1.50522,-3.033907,-1.679705,0.02487345,-0.008560207,-0.004528116,-1.088653,-2.580761,1.616107
0,2.566666,107,128,501,498,0.01614524,0.005876862,-0.0066239,-1.505417,-3.034083,-1.679832,0.01578879,-0.00772297,-0.003149154,-1.088643,-2.58056,1.615999
0,2.577777,107,128,501,498,0.01816041,0.00827398,-0.007266873,-1.505611,-3.034296,-1.679868,0.001879053,-0.009242326,-0.007463546,-1.088271,-2.580472,1.616038
0,2.588888,107,128,501,498,0.01613878,0.005694766,-0.005572545,-1.505759,-3.0343,-1.679881,0.002847522,-0.008874825,-0.01699143,-1.088282,-2.580792,1.616549
0,2.599999,107,128,501,498,0.01714327,0.006225375,-0.002228274,-1.505975,-3.034362,-1.679807,0.01300938,-0.003062012,-0.01942294,-1.088793,-2.581112,1.616827
0,2.61111,107,128,501,498,0.01842429,0.001335744,0.001216903,-1.506272,-3.034239,-1.679718,0.01735336,0.0001209052,-0.01326283,-1.089104,-2.581184,1.616804
0,2.622221,106,130,500,500,0.02060944,0.0005924309,4.681526E-06,-1.50657,-3.034258,-1.679694,0.01520337,0.00177802,-0.006154058,-1.089208,-2.581044,1.61662
0,2.633332,106,130,500,500,0.01904241,0.009584213,0.003783637,-1.506691,-3.034647,-1.679608,0.005268141,-0.002323095,-0.006604565,-1.088967,-2.581098,1.616722
0,2.644443,106,130,500,500,0.0209439,0.01350986,0.006649948,-1.506977,-3.034931,-1.679473,0.000933487,-0.005519763,-0.01275789,-1.088843,-2.581403,1.617049
0,2.655554,106,130,500,500,0.0197091,0.01566009,0.01243557,-1.507133,-3.03521,-1.679233,0.0004314892,-0.01533831,-0.02020315,-1.088632,-2.581992,1.61755
0,2.666665,108,126,500,496,0.02155574,0.02045085,0.0165293,-1.507408,-3.035625,-1.678983,0.003488772,-0.02913614,-0.02659739,-1.0884,-2.582851,1.618069
0,2.677776,108,126,500,496,0.01926609,0.02330946,0.018109,-1.507615,-3.036065,-1.678784,0.002598118,-0.04036915,-0.03686704,-1.087972,-2.583701,1.618833
0,2.688887,108,126,500,496,0.01411728,0.01933596,0.02063597,-1.507629,-3.036212,-1.6785,-0.004724223,-0.0426047,-0.04305002,-1.087508,-2.584385,1.619571
0,2.699998,108,126,500,496,0.01378735,0.02488521,0.02593178,-1.507769,-3.036716,-1.678194,-0.007198185,-0.04466138,-0.04445118,-1.087102,-2.58492,1.620251
0,2.711109,108,126,500,496,0.007251063,0.02714852,0.02956545,-1.507657,-3.037108,-1.67782,-0.007644568,-0.04589705,-0.037761,-1.086763,-2.58549,1.620565
0,2.72222,103,130,499,498,0.005710982,0.03634961,0.03225502,-1.507776,-3.037747,-1.677487,-0.01091678,-0.05496178,-0.03475709,-1.086163,-2.586355,1.620935
0,2.733331,103,130,499,498,0.003278624,0.04198474,0.03647592,-1.507702,-3.038429,-1.677035,-0.01463678,-0.06324615,-0.03367897,-1.085511,-2.587224,1.621387
0,2.744442,103,130,499,498,-0.002600953,0.05251891,0.04263471,-1.507486,-3.039406,-1.67664,-0.01860949,-0.06899274,-0.03503454,-1.084773,-2.588043,1.62202
0,2.755553,103,130,499,498,-0.00815196,0.05787548,0.04140583,-1.507197,-3.040263,-1.676355,-0.01841901,-0.06504405,-0.034632,-1.084313,-2.588693,1.622482
0,2.766664,100,130,499,496,-0.01140757,0.06001213,0.04069058,-1.506929,-3.041033,-1.67599,-0.01679007,-0.05516864,-0.03099419,-1.084043,-2.589028,1.622764
0,2.777775,100,130,499,496,-0.01344192,0.05851086,0.04257361,-1.506686,-3.041703,-1.67554,-0.01673212,-0.0572346,-0.02477342,-1.083645,-2.589577,1.622961
0,2.788886,100,130,499,496,-0.02038341,0.049296,0.03770917,-1.506326,-3.042011,-1.675178,-0.01633245,-0.0536714,-0.02341183,-1.083256,-2.590087,1.623247
0,2.799997,100,130,499,496,-0.02217807,0.04365651,0.0323933,-1.506058,-3.04236,-1.674921,-0.01625205,-0.03914894,-0.01985738,-1.083137,-2.590111,1.623332
0,2.811108,100,130,499,496,-0.02813561,0.0357285,0.02667719,-1.505588,-3.042587,-1.674777,-0.01862923,-0.02048834,-0.01400928,-1.083009,-2.589792,1.623336
0,2.822219,97,138,500,497,-0.0285462,0.02206777,0.02427146,-1.50528,-3.042457,-1.674558,-0.02172257,-0.009021164,-0.01327044,-1.082827,-2.589647,1.623432
0,2.83333,97,138,500,497,-0.03505899,0.003123388,0.01335848,-1.504771,-3.041924,-1.674574,-0.03027712,-0.002935814,-0.008643709,-1.082384,-2.589238,1.623388
0,2.844441,97,138,500,497,-0.03753953,-0.01308793,0.01264791,-1.504332,-3.041347,-1.674378,-0.03616937,-0.007672015,-0.01382224,-1.0819,-2.589197,1.623717
0,2.855552,97,138,500,497,-0.03998696,-0.02960471,0.007541196,-1.503856,-3.040619,-1.674346,-0.03531517,-0.01961267,-0.02361902,-1.081333,-2.589787,1.624375
0,2.866663,97,138,500,497,-0.0459256,-0.03995977,0.003504164,-1.503246,-3.039844,-1.674318,-0.03065208,-0.0254402,-0.0354102,-1.081078,-2.590336,1.62526
0,2.877774,99,164,500,498,-0.05097354,-0.04129303,-0.020616,-1.502593,-3.039148,-1.675122,-0.01259991,-0.02865217,-0.04003073,-1.081265,-2.591182,1.625858
0,2.888885,99,164,500,498,-0.05080684,-0.03117052,-0.07630406,-1.501986,-3.038636,-1.677517,-0.00366996,-0.02481538,-0.03243178,-1.081379,-2.591533,1.626068
0,2.899997,99,164,500,498,-0.04881529,-0.02843466,-0.0726041,-1.501517,-3.038251,-1.678223,0.0007027239,-0.009229724,-0.02364844,-1.08164,-2.591269,1.626126
0,2.911108,99,164,500,498,-0.04667251,-0.03222875,-0.05708044,-1.501076,-3.03772,-1.678409,-0.004088053,0.03214067,-0.006821183,-1.082169,-2.589665,1.625656
0,2.922219,98,129,499,497,-0.04923074,-0.02660363,-0.04089895,-1.50052,-3.037585,-1.678292,-0.008276803,0.04755805,0.0005003596,-1.082359,-2.588609,1.625338
0,2.93333,98,129,499,497,-0.04893268,-0.01055299,-0.03361215,-1.500045,-3.037737,-1.678529,-0.01144284,0.04278491,0.02300877,-1.082325,-2.587758,1.624359
0,2.944441,98,129,499,497,-0.04633298,0.004592262,-0.03839228,-1.499394,-3.037853,-1.679021,-0.008839242,0.02401459,0.03481298,-1.08216,-2.587693,1.623638
0,2.955552,98,129,499,497,-0.04526892,0.005065248,-0.04046601,-1.499047,-3.037895,-1.679604,-0.004428145,0.008248026,0.03081808,-1.08206,-2.587911,1.62338
0,2.966663,98,129,499,497,-0.04235832,0.01151172,-0.03924622,-1.498664,-3.038132,-1.680019,-0.001393947,-0.0303181,0.009572468,-1.08154,-2.589403,1.623947
0,2.977774,100,136,500,499,-0.0412446,0.009941813,-0.03628642,-1.498318,-3.038046,-1.680323,0.002273701,-0.04277902,-0.001161175,-1.081194,-2.590207,1.624224
0,2.988885,100,136,500,499,-0.04130003,0.01002857,-0.03084915,-1.497848,-3.038093,-1.680512,0.01226997,-0.04916676,-0.008623477,-1.081201,-2.591197,1.624596
0,2.999996,100,136,500,499,-0.03500382,0.01301421,-0.03351463,-1.497555,-3.038265,-1.680945,0.01328279,-0.044619,-0.005839325,-1.081189,-2.591491,1.624433
0,3.011107,100,136,500,499,-0.02971108,0.01611207,-0.04266555,-1.497336,-3.038378,-1.68167,0.01236927,-0.01597479,0.01081734,-1.08154,-2.590753,1.623768
0,3.022218,98,151,499,494,-0.03198272,0.01878686,-0.03997438,-1.496893,-3.038561,-1.681945,0.01148674,-0.01029265,0.01691225,-1.081594,-2.590607,1.623303
0,3.033329,98,151,499,494,-0.02347028,0.01957089,-0.04196648,-1.496891,-3.038681,-1.682498,0.00769133,0.00027025,0.02101131,-1.081725,-2.590147,1.622859
0,3.04444,98,151,499,494,-0.01396237,0.01962128,-0.03433442,-1.496959,-3.03884,-1.682635,0.01428799,-0.002514912,0.01822555,-1.081936,-2.590394,1.622657
0,3.055551,98,151,499,494,-0.01285039,0.0188422,-0.03556051,-1.496829,-3.038931,-1.68309,0.01879281,-0.005921457,0.01924977,-1.082138,-2.590569,1.622386
0,3.066662,98,151,499,494,-0.005617242,0.02295332,-0.03256138,-1.496695,-3.039191,-1.683248,0.02507177,-0.006083122,0.01879973,-1.082472,-2.590793,1.622216
0,3.077773,91,176,500,498,-0.004455922,0.02133258,-0.03503551,-1.496661,-3.03929,-1.68372,0.02303055,0.001461068,0.01295324,-1.082748,-2.590695,1.622239
0,3.088884,91,176,500,498,0.002928805,0.02231122,-0.03265496,-1.49688,-3.039514,-1.684057,0.02468604,0.009128928,0.01568633,-1.083138,-2.590465,1.622019
0,3.099995,91,176,500,498,0.007081203,0.02542475,-0.03637069,-1.497016,-3.03976,-1.684568,0.02552821,0.01196192,0.02374314,-1.083466,-2.59025,1.621433
0,3.111106,91,176,500,498,0.01057846,0.02035009,-0.04276373,-1.497201,-3.039845,-1.685026,0.01248129,0.01310816,0.02510646,-1.083337,-2.589822,1.621044
0,3.122217,91,176,500,498,0.0149213,0.01828154,-0.0420729,-1.497363,-3.039925,-1.685524,0.01003461,0.01924911,0.01641805,-1.083526,-2.589575,1.621106
0,3.133328,85,192,499,497,0.01444009,0.006759798,-0.04432738,-1.497691,-3.039564,-1.68601,0.01381032,0.02749669,0.01295322,-1.08397,-2.589209,1.621049
0,3.144439,85,192,499,497,0.013631,0.0004761945,-0.04013387,-1.497831,-3.039341,-1.686315,0.01836528,0.03239061,0.01383571,-1.084495,-2.588908,1.620805
0,3.15555,85,192,499,497,0.01613853,-0.006915753,-0.04049516,-1.498105,-3.038992,-1.686754,0.02243585,0.03814781,0.01755965,-1.085079,-2.588403,1.620443
0,3.166661,85,192,499,497,0.01725058,-0.008505648,-0.03755011,-1.498268,-3.038888,-1.687054,0.0248388,0.04674294,0.01931195,-1.085755,-2.587795,1.62014
0,3.177772,80,187,498,497,0.01943719,-0.009839427,-0.03563978,-1.498543,-3.038709,-1.687403,0.02278972,0.04604782,0.01835674,-1.086153,-2.58735,1.61991
0,3.188883,80,187,498,497,0.02363885,-0.009185981,-0.03224479,-1.498942,-3.038603,-1.687653,0.01858619,0.03635758,0.01660105,-1.086254,-2.58729,1.619823
0,3.199994,80,187,498,497,0.0257674,-0.009681758,-0.02908023,-1.499299,-3.03846,-1.687875,0.01439155,0.02658888,0.01007989,-1.086308,-2.587346,1.619972
0,3.211105,80,187,498,497,0.02682541,-0.01022962,-0.02592968,-1.499535,-3.038331,-1.688066,0.01655153,0.02494171,0.002965395,-1.086639,-2.587328,1.620153
0,3.222216,80,187,498,497,0.02580281,-0.0125584,-0.01987959,-1.499701,-3.038044,-1.688188,0.02018181,0.03136031,-0.002393216,-1.087266,-2.586963,1.620322
0,3.233327,78,172,499,498,0.02371063,-0.01495376,-0.0138328,-1.499791,-3.037711,-1.688113,0.01889206,0.0378524,0.001757499,-1.087688,-2.586433,1.620126
0,3.244438,78,172,499,498,0.02423302,-0.02475175,-0.01357521,-1.500108,-3.037169,-1.68821,0.01808424,0.04553539,-0.003173628,-1.088129,-2.585847,1.620202
0,3.255549,78,172,499,498,0.02203029,-0.02402525,-0.01235099,-1.500077,-3.03691,-1.688247,0.02044915,0.04567186,-0.00842642,-1.088621,-2.585609,1.620438
0,3.26666,78,172,499,498,0.02208839,-0.02568025,-0.009412074,-1.500323,-3.036548,-1.688237,0.01740552,0.03402472,-0.005334518,-1.08875,-2.585558,1.620224
0,3.277771,77,167,499,495,0.02308271,-0.02580946,-0.002910781,-1.500522,-3.036262,-1.688188,0.008775255,0.02136331,-0.00131176,-1.088646,-2.585586,1.620213
0,3.288882,77,167,499,495,0.01889196,-0.02707637,-0.003159259,-1.500744,-3.035944,-1.688055,0.005741836,0.02028881,0.004890978,-1.088573,-2.585303,1.619902
0,3.299993,77,167,499,495,0.01658423,-0.02466583,0.0005650661,-1.500853,-3.035796,-1.687966,0.006028515,0.01769322,0.004945213,-1.088765,-2.585182,1.619807
0,3.311104,77,167,499,495,0.01551573,-0.02533164,0.003697359,-1.501032,-3.03556,-1.687808,0.005222617,0.01265779,-0.001630843,-1.088797,-2.585279,1.620013
0,3.322215,77,167,499,495,0.007776195,-0.02091471,0.006719653,-1.501003,-3.035506,-1.687598,0.01309975,0.01806874,-0.01314451,-1.089289,-2.585313,1.620567
0,3.333326,78,146,500,493,0.003336615,-0.01861863,0.01041719,-1.500933,-3.035373,-1.687366,0.02756978,0.01854501,-0.02116828,-1.089987,-2.585659,1.621063
0,3.344437,78,146,500,493,0.001884824,-0.01014756,0.005542475,-1.500963,-3.035473,-1.687518,0.02946036,0.01535359,-0.01584367,-1.090365,-2.585775,1.621107
0,3.355548,78,146,500,493,0.002719926,-0.005508847,0.004275562,-1.501003,-3.035525,-1.687493,0.02265286,0.01859768,-0.01406112,-1.090577,-2.585592,1.621209
0,3.366659,78,146,500,493,0.002140414,0.004934414,0.006299691,-1.500967,-3.0359,-1.687418,0.006977511,0.02022992,-0.003717924,-1.090371,-2.585029,1.620865
0,3.37777,79,142,498,501,0.002091275,0.006782664,0.002319168,-1.501034,-3.035889,-1.687481,0.0005848855,0.01217969,-0.0007171489,-1.090205,-2.584977,1.620747
0,3.388881,79,142,498,501,0.005220763,0.007592077,0.004649828,-1.501158,-3.036015,-1.687378,-0.003598431,-0.00180288,0.0005163971,-1.089891,-2.585277,1.620773
0,3.399992,79,142,498,501,0.005280538,0.006545972,0.004448202,-1.501254,-3.036036,-1.687296,-0.001229638,-0.003766848,-0.000852644,-1.089941,-2.585395,1.62083
0,3.411103,79,142,498,501,0.00444053,0.001301326,0.008856284,-1.501285,-3.035952,-1.687062,-0.000864963,0.001957003,-0.0009766149,-1.089998,-2.585236,1.620838
0,3.422215,79,142,498,501,0.004618136,-0.001631181,0.007205785,-1.501388,-3.035826,-1.687031,-0.00159996,0.005324118,-0.002963603,-1.090114,-2.585268,1.620936
0,3.433326,81,137,499,498,0.001430582,-0.001396968,0.005075424,-1.501314,-3.035805,-1.687024,0.002767622,0.006349196,0.002285625,-1.090299,-2.585159,1.620745
0,3.444437,81,137,499,498,-0.000767583,-0.0008696511,0.007339674,-1.501123,-3.035836,-1.686933,0.006493116,0.006285469,0.001357846,-1.090429,-2.585224,1.62079
0,3.455548,81,137,499,498,-0.0008843653,0.001015989,0.008787212,-1.501133,-3.0359,-1.686813,0.01022158,0.0062221,0.0004321598,-1.090636,-2.585259,1.620795
0,3.466659,81,137,499,498,0.001015869,0.005105342,0.01066077,-1.501265,-3.036087,-1.686701,0.01222344,0.0005703568,-0.007045884,-1.090616,-2.585609,1.621045
0,3.47777,81,137,499,498,0.003153269,0.005827107,0.007556749,-1.501398,-3.036247,-1.686572,0.01196628,0.003112294,-0.009489221,-1.090847,-2.585578,1.621255
0,3.488881,81,140,498,499,0.005280762,0.005940672,0.007580653,-1.501503,-3.03636,-1.686481,0.01048497,0.005723485,-0.003365474,-1.090976,-2.585446,1.621127
0,3.499992,81,140,498,499,0.007468191,0.0052134,0.00635562,-1.501686,-3.036408,-1.686505,0.01046813,0.005774315,-0.0009840112,-1.091078,-2.585455,1.621054
0,3.511103,81,140,498,499,0.01017458,-0.004918994,0.0033284,-1.501881,-3.036053,-1.686482,0.01582285,0.002976197,0.004839877,-1.091331,-2.585543,1.620816
0,3.522214,81,140,498,499,0.01331345,-0.003496217,0.002519229,-1.502129,-3.036132,-1.686518,0.02049595,-0.0008066818,0.009253667,-1.091393,-2.585691,1.620623
0,3.533325,80,135,499,497,0.01320625,-0.0004010293,-0.002311619,-1.502256,-3.03617,-1.6867,0.02133276,-0.00864855,0.007060631,-1.091557,-2.586082,1.620545
0,3.544436,80,135,499,497,0.01263033,0.01105976,-0.005539674,-1.5024,-3.036662,-1.686927,0.01552985,-0.007169137,0.003171473,-1.091601,-2.586243,1.620639
0,3.555547,80,135,499,497,0.01150581,0.01184572,-0.004307003,-1.502496,-3.03677,-1.686956,0.008432286,0.0007861033,0.001028988,-1.091506,-2.585847,1.6206
0,3.566658,80,135,499,497,0.01552712,0.01666497,-0.005549874,-1.502824,-3.037125,-1.687075,0.006708841,0.007978356,-0.001535041,-1.091657,-2.585634,1.620685
0,3.577769,80,135,499,497,0.01115456,0.01812121,-0.003108346,-1.502885,-3.037371,-1.687049,0.014184,0.01852654,0.004464844,-1.092214,-2.585248,1.62043
0,3.58888,78,126,499,500,0.01120987,0.01687764,-0.002263544,-1.503009,-3.03753,-1.687081,0.01516349,0.02759097,0.01378844,-1.092633,-2.584637,1.619944
0,3.599991,78,126,499,500,0.01163383,0.009972607,-0.005757044,-1.503253,-3.037447,-1.687253,0.01122636,0.02590275,0.01523165,-1.09267,-2.58427,1.619703
0,3.611102,78,126,499,500,0.01068678,0.007424613,-0.004077459,-1.503332,-3.03748,-1.687257,0.009162145,0.01024083,0.009390598,-1.092577,-2.584602,1.619794
0,3.622213,78,126,499,500,0.007564221,0.0062094,-0.004311922,-1.503428,-3.037621,-1.687266,0.01265746,-0.004375161,0.004997305,-1.092604,-2.585228,1.61994
0,3.633324,76,127,499,498,0.004254873,0.008519867,-0.006039567,-1.503357,-3.037702,-1.68735,0.01191024,-0.01378124,-0.0009784193,-1.092518,-2.585749,1.620169
0,3.644435,76,127,499,498,0.007263021,0.01183784,-0.005401142,-1.503526,-3.038036,-1.68741,0.004238678,-0.02608318,-0.00646719,-1.092063,-2.586263,1.62038
0,3.655546,76,127,499,498,0.00282899,0.01493648,-0.005896167,-1.503416,-3.038266,-1.687503,0.0001186989,-0.01680247,-0.002905573,-1.09206,-2.586076,1.620293
0,3.666657,76,127,499,498,0.0008210004,0.01253691,-0.00526817,-1.503334,-3.038496,-1.687442,0.001220429,0.0004775249,0.001461621,-1.092317,-2.585612,1.620137
0,3.677768,76,127,499,498,-0.0004718675,0.01585247,-0.0002954655,-1.503549,-3.038754,-1.687268,-0.004583888,0.01270929,0.007801888,-1.092313,-2.585002,1.619842
0,3.688879,73,140,499,501,-0.004241432,0.007459782,-0.002987686,-1.503401,-3.038568,-1.687371,-0.01222124,0.02387663,0.0141646,-1.092281,-2.584158,1.619443
0,3.69999,73,140,499,501,-0.007137531,0.001664326,-0.001931949,-1.503183,-3.038478,-1.687326,-0.01052683,0.02094169,0.01138123,-1.092425,-2.583848,1.619417
0,3.711101,73,140,499,501,-0.01198203,-0.007584972,-0.0004574396,-1.502943,-3.038137,-1.68726,-0.008500715,0.01307668,0.002998837,-1.092358,-2.583974,1.619629
0,3.722212,73,140,499,501,-0.01487425,-0.01278079,-0.002543906,-1.502742,-3.037827,-1.68728,-0.00235295,0.006684692,0.001281593,-1.0925,-2.584062,1.619741
0,3.733323,73,140,499,501,-0.01676529,-0.01707407,-0.003374174,-1.502559,-3.037491,-1.687284,-0.004371437,0.001654597,0.0009084765,-1.092338,-2.584145,1.619751
0,3.744434,76,129,499,501,-0.01984932,-0.01992769,-0.0006709846,-1.50232,-3.037301,-1.687114,-0.009574434,-0.006401319,-0.002278716,-1.092052,-2.584339,1.619857
0,3.755545,76,129,499,501,-0.01790121,-0.01667827,-4.3849E-05,-1.502196,-3.037166,-1.687075,-0.01468044,-0.008183894,0.0005783867,-1.091739,-2.584341,1.619862
0,3.766656,76,129,499,501,-0.01803015,-0.01538997,0.004537294,-1.502004,-3.036997,-1.686972,-0.01934435,-0.008599235,0.003890506,-1.091382,-2.584229,1.61973
0,3.777767,76,129,499,501,-0.01909326,-0.01463307,0.000328097,-1.501716,-3.036903,-1.687135,-0.01561047,-0.01076529,0.006823768,-1.091261,-2.58428,1.619569
0,3.788878,79,131,499,496,-0.01844939,-0.00826518,0.006982019,-1.501525,-3.037009,-1.686882,-0.01327807,-0.01263309,0.01021537,-1.091089,-2.584324,1.619349
0,3.799989,79,131,499,496,-0.0187981,-0.001184593,0.004000957,-1.501163,-3.037168,-1.687032,-0.01369675,-0.01615552,0.01123769,-1.090752,-2.584367,1.619234
0,3.8111,79,131,499,496,-0.01802419,0.003694178,0.007114975,-1.500982,-3.037327,-1.686911,-0.01720141,-0.01643798,0.01550543,-1.090418,-2.584294,1.618927
0,3.822211,79,131,499,496,-0.01790976,0.002015621,0.00461433,-1.500732,-3.037318,-1.68702,-0.02112541,-0.01814776,0.01694385,-1.090015,-2.584297,1.618677
0,3.833322,79,131,499,496,-0.01471639,0.002386559,0.003606796,-1.500651,-3.037355,-1.687013,-0.02240813,-0.01163482,0.02108956,-1.089851,-2.583943,1.618336
0,3.844433,88,166,500,496,-0.01644365,-0.004829609,0.001118136,-1.50045,-3.037077,-1.687031,-0.02314294,-0.008262852,0.01911294,-1.089604,-2.583756,1.618156
0,3.855544,88,166,500,496,-0.01716295,-0.01012757,-0.005341963,-1.500188,-3.036854,-1.687208,-0.02038753,-0.006616976,0.02147957,-1.089468,-2.583544,1.617827
0,3.866655,88,166,500,496,-0.01171781,-0.01092267,-0.01091555,-1.500207,-3.036683,-1.68743,-0.01696834,-0.001879092,0.02140588,-1.089518,-2.583227,1.617587
0,3.877766,88,166,500,496,-0.01255532,-0.01556181,-0.009651115,-1.500097,-3.036366,-1.687437,-0.01582113,0.0004136423,0.02089733,-1.089577,-2.58313,1.617257
0,3.888877,93,138,500,498,-0.01484514,-0.01171965,-0.01325478,-1.499886,-3.036281,-1.687671,-0.01726966,0.00502068,0.01842324,-1.089446,-2.582802,1.617095
0,3.899988,93,138,500,498,-0.01155807,-0.01446198,-0.009433221,-1.499771,-3.035987,-1.687513,-0.0190141,0.01235995,0.02304829,-1.08943,-2.582242,1.616678
0,3.911099,93,138,500,498,-0.01150464,-0.0157079,-0.008594131,-1.499648,-3.03576,-1.687557,-0.01614696,0.00739781,0.02268139,-1.089319,-2.582116,1.616439
0,3.92221,93,138,500,498,-0.01144681,-0.01572567,-0.01403392,-1.499395,-3.035474,-1.687828,-0.01708151,0.00691274,0.02507092,-1.089147,-2.581633,1.616109
0,3.933321,93,138,500,498,-0.007539638,-0.0100638,-0.008571828,-1.499432,-3.035515,-1.687729,-0.01442436,0.000184847,0.02520475,-1.088977,-2.581627,1.615796
0,3.944432,97,163,500,495,-0.004869314,-0.001323852,-0.002507063,-1.499366,-3.035714,-1.687542,-0.01122491,-0.009683385,0.01681031,-1.088861,-2.581824,1.615883
0,3.955544,97,163,500,495,-0.007095692,0.0006482053,-0.002117834,-1.499402,-3.035691,-1.68747,-0.01675495,-0.01080258,0.01060862,-1.088616,-2.581705,1.615958
0,3.966655,97,163,500,495,-0.006323895,0.004905261,0.004143091,-1.4993,-3.035921,-1.687291,-0.01048788,-0.008913627,0.006314712,-1.088633,-2.581793,1.616004
0,3.977766,97,163,500,495,-0.01080271,0.008659916,0.005955662,-1.49904,-3.036069,-1.687187,-0.004561988,-2.716016E-05,0.003805691,-1.088874,-2.581607,1.615981
0,3.988877,97,149,500,499,-0.009906677,0.01143971,0.00867182,-1.498941,-3.036287,-1.687045,-0.005988009,0.002430486,0.002804134,-1.088829,-2.581496,1.615974
0,3.999988,97,149,500,499,-0.008786501,0.01065761,0.007433807,-1.498846,-3.036432,-1.687036,-0.007368877,0.0005641854,0.004739327,-1.088555,-2.581464,1.615824
0,4.011099,97,149,500,499,-0.008735078,0.008796462,0.01141016,-1.498768,-3.036463,-1.686819,-0.01029746,-0.005040273,0.001963213,-1.088281,-2.581563,1.615883
0.3333333,4.02221,97,149,500,499,-0.009583032,0.003758209,0.01476607,-1.498691,-3.03645,-1.686522,-0.01565745,-0.004280431,0.002405336,-1.087998,-2.58136,1.615857
0.6666667,4.033321,97,149,500,499,-0.01031194,-0.0019454,0.01039822,-1.498611,-3.0363,-1.686459,-0.01670014,-0.01101999,-0.001299857,-1.08768,-2.581605,1.616019
1,4.044433,95,140,499,494,-0.01042229,-5.768077E-05,0.01185199,-1.498492,-3.036371,-1.686287,-0.01673066,-0.01958863,-0.0154539,-1.087342,-2.582194,1.61671
1.333333,4.055544,95,140,499,494,-0.01191653,-0.0132995,0.01251674,-1.498308,-3.035852,-1.686066,-0.017043,-0.01277369,-0.02319171,-1.087114,-2.582255,1.617235
1.666667,4.066655,95,140,499,494,-0.01150474,-0.02246281,0.0150734,-1.498212,-3.035394,-1.685771,-0.009671008,-0.008497849,-0.0232329,-1.087181,-2.582391,1.617546
2,4.077766,95,140,499,494,-0.01779872,-0.02506339,0.01563355,-1.497864,-3.03502,-1.685563,-0.003949815,-0.003481001,-0.02138769,-1.087347,-2.582374,1.617711
2.333333,4.088878,95,140,499,494,-0.01851336,-0.03282331,0.01628946,-1.497674,-3.034455,-1.685296,5.160226E-05,0.006620583,-0.01821242,-1.087633,-2.582144,1.617822
2.666667,4.099989,97,149,500,498,-0.02386915,-0.0338732,0.02041109,-1.497276,-3.034151,-1.684942,0.002096724,0.01146998,-0.02734481,-1.087728,-2.582182,1.618387
3,4.1111,97,149,500,498,-0.02411116,-0.03028916,0.02436692,-1.496903,-3.033916,-1.68455,0.005604522,0.01174757,-0.03162748,-1.087944,-2.582366,1.618914
3.333333,4.122211,97,149,500,498,-0.02513761,-0.03116569,0.02310625,-1.496621,-3.03356,-1.684293,0.007959534,0.009818308,-0.03062282,-1.088023,-2.582588,1.619159
3.666666,4.133323,97,149,500,498,-0.02632877,-0.02910459,0.02350419,-1.496193,-3.033385,-1.683956,-0.003342273,0.01653719,-0.02747483,-1.087892,-2.582191,1.61938
4,4.144434,96,134,500,496,-0.02450865,-0.02292911,0.02580191,-1.495977,-3.033346,-1.683598,-0.02003662,0.01136521,-0.02077988,-1.087247,-2.581874,1.619431
4.333333,4.155545,96,134,500,496,-0.02128864,-0.02462595,0.029827,-1.495876,-3.033088,-1.683115,-0.03267619,0.003380176,-0.02211389,-1.086514,-2.581856,1.619766
4.666667,4.166656,96,134,500,496,-0.020311,-0.02452403,0.03527985,-1.495498,-3.032999,-1.682508,-0.04350851,-0.0119253,-0.02569222,-1.085556,-2.582243,1.62026
5,4.177768,96,134,500,496,-0.01171003,-0.02623086,0.03498099,-1.495622,-3.032693,-1.682123,-0.04275555,-0.01327231,-0.02995142,-1.085133,-2.582401,1.620752
5.333333,4.188879,96,134,500,496,-0.01257096,-0.03228685,0.03815472,-1.495477,-3.032269,-1.681555,-0.0430931,0.001967954,-0.03070134,-1.084912,-2.581944,1.621138
5.666667,4.19999,95,139,500,498,-0.006091848,-0.03448639,0.03993237,-1.495718,-3.031947,-1.681058,-0.05126784,0.02217085,-0.02393794,-1.084572,-2.580901,1.621205
6,4.211102,95,139,500,498,-0.005454775,-0.02541315,0.0438622,-1.495646,-3.032031,-1.680464,-0.05043785,0.03546119,-0.01987666,-1.084446,-2.580037,1.621297
6.333334,4.222213,95,139,500,498,-0.005654212,-0.02181053,0.04781936,-1.495547,-3.031915,-1.679786,-0.04233582,0.03640383,-0.01795353,-1.084389,-2.579657,1.621419
6.666667,4.233324,95,139,500,498,-0.00771584,-0.02455525,0.05054983,-1.495425,-3.031681,-1.679127,-0.03412386,0.01401079,-0.02324533,-1.084076,-2.580206,1.621899
7.000001,4.244435,88,149,499,494,-0.008553084,-0.03181829,0.05459662,-1.495359,-3.031329,-1.678369,-0.02917232,-0.005012614,-0.03813818,-1.08367,-2.581087,1.622871
7.333334,4.255547,88,149,499,494,-0.01027508,-0.04455237,0.05868421,-1.495147,-3.03072,-1.677637,-0.02828874,-0.0107603,-0.04422534,-1.083299,-2.581537,1.623649
7.666668,4.266658,88,149,499,494,-0.01832274,-0.05921434,0.06023808,-1.494818,-3.029815,-1.676835,-0.04155048,-0.003004346,-0.03774492,-1.082664,-2.581047,1.623869
8.000001,4.277769,88,149,499,494,-0.02109461,-0.07183859,0.05785509,-1.49455,-3.028871,-1.676215,-0.04472119,0.002268586,-0.03832857,-1.08224,-2.580823,1.624359
8.333334,4.28888,88,149,499,494,-0.02726405,-0.0809703,0.05939327,-1.494172,-3.027822,-1.6754,-0.04472466,0.002230793,-0.03832673,-1.081824,-2.580773,1.624839
8.666667,4.299992,80,126,499,497,-0.03139168,-0.08733845,0.05820556,-1.493756,-3.026832,-1.674652,-0.04583515,0.04144042,-0.04100242,-1.082422,-2.578676,1.625328
9,4.311103,80,126,499,497,-0.0354193,-0.09684125,0.05642924,-1.493355,-3.025576,-1.673946,-0.04299041,0.04695265,-0.04302777,-1.082294,-2.578442,1.625955
9.333333,4.322214,80,126,499,497,-0.03867393,-0.09792328,0.05624766,-1.492992,-3.024639,-1.673202,-0.04081737,0.04320153,-0.04391805,-1.081983,-2.579196,1.626702
9.666666,4.333325,80,126,499,497,-0.0402258,-0.08675998,0.06053844,-1.492561,-3.024068,-1.672304,-0.05178659,0.03453102,-0.03758121,-1.081268,-2.578779,1.626977
9.999999,4.344437,77,149,499,500,-0.0394889,-0.07991461,0.06509574,-1.492182,-3.023424,-1.671455,-0.07705399,0.02086029,-0.01780852,-1.07997,-2.577472,1.626531
10.33333,4.355548,77,149,499,500,-0.04299579,-0.0366912,0.07748006,-1.491625,-3.024264,-1.670455,-0.1055425,0.01455244,0.002355784,-1.078204,-2.576252,1.625841
10.66667,4.366659,77,149,499,500,-0.0486239,-0.02987564,0.08740021,-1.490934,-3.024277,-1.669198,-0.1088542,0.03637724,-0.0008082129,-1.077634,-2.574775,1.625942
11,4.37777,77,149,499,500,-0.05630004,-0.03130005,0.113117,-1.49007,-3.02406,-1.667209,-0.1100597,0.08507207,-0.03508649,-1.077857,-2.572829,1.627401
11.33333,4.388882,77,149,499,500,-0.0699641,-0.05476894,0.1412668,-1.489004,-3.023158,-1.664757,-0.08379492,0.1422763,-0.05538655,-1.079161,-2.570409,1.628552
11.66666,4.399993,74,128,499,498,-0.09720349,-0.1062339,0.1621145,-1.487395,-3.020778,-1.662281,-0.04137488,0.192581,-0.03888115,-1.081403,-2.567741,1.628233
12,4.411104,74,128,499,498,-0.1216931,-0.1713196,0.1958405,-1.485746,-3.017619,-1.658951,-0.01965027,0.2070607,-0.01733955,-1.08296,-2.565236,1.627635
12.33333,4.422215,74,128,499,498,-0.1360955,-0.2114971,0.2202791,-1.484544,-3.014677,-1.655567,-0.002793863,0.1938312,-0.01280619,-1.083867,-2.563625,1.627494
12.66666,4.433327,74,128,499,498,-0.1545651,-0.2666217,0.2661133,-1.482743,-3.010758,-1.651039,0.005570076,0.1586217,-0.04227122,-1.084568,-2.563653,1.628865
13,4.444438,74,128,499,498,-0.1658329,-0.2942676,0.2919942,-1.480956,-3.007289,-1.64695,-0.004721444,0.1376972,-0.07306166,-1.084642,-2.563454,1.630871
13.33333,4.455549,72,124,498,495,-0.1830956,-0.3247358,0.3262783,-1.478943,-3.003577,-1.642017,-0.02746109,0.1126025,-0.09992503,-1.084066,-2.563451,1.633022
13.66666,4.46666,72,124,498,495,-0.199953,-0.3530355,0.372006,-1.476771,-2.99947,-1.636369,-0.06019893,0.08760816,-0.1205602,-1.08284,-2.56327,1.634965
14,4.477772,72,124,498,495,-0.2099992,-0.3651712,0.3912556,-1.474805,-2.995656,-1.631423,-0.08360528,0.07797463,-0.1420611,-1.081908,-2.562934,1.63725
14.33333,4.488883,72,124,498,495,-0.2209618,-0.3844149,0.4268999,-1.472559,-2.991431,-1.625442,-0.1141182,0.08162017,-0.1635265,-1.080586,-2.562138,1.639943
14.66666,4.499994,74,123,498,499,-0.2380833,-0.3927323,0.4424602,-1.470022,-2.987271,-1.619972,-0.1742617,0.07727665,-0.1968422,-1.077743,-2.561159,1.643435
14.99999,4.511106,74,123,498,499,-0.264281,-0.4176274,0.4771481,-1.467046,-2.982364,-1.613498,-0.2127462,0.07944429,-0.2422579,-1.075244,-2.560507,1.647951
15.33333,4.522217,74,123,498,499,-0.276759,-0.4233572,0.496567,-1.464274,-2.978116,-1.607388,-0.2328483,0.1047101,-0.2635655,-1.073858,-2.558908,1.651657
15.66666,4.533328,74,123,498,499,-0.2908204,-0.429597,0.5257588,-1.461351,-2.973616,-1.600622,-0.2478254,0.1259777,-0.260739,-1.072172,-2.556791,1.654643
15.99999,4.544439,74,123,498,499,-0.2991015,-0.4282833,0.5550201,-1.458699,-2.969274,-1.594005,-0.2718984,0.1519424,-0.2325812,-1.070216,-2.553464,1.656362
16.33333,4.555551,72,130,499,497,-0.2984075,-0.4239869,0.5688571,-1.456071,-2.965218,-1.586954,-0.2975811,0.1506374,-0.2046884,-1.067546,-2.550627,1.657814
16.66666,4.566662,72,130,499,497,-0.2984664,-0.4127065,0.5997777,-1.453391,-2.961427,-1.579433,-0.2980904,0.1341161,-0.1916182,-1.065421,-2.549167,1.659811
16.99999,4.577773,72,130,499,497,-0.2993738,-0.4018499,0.6163558,-1.450642,-2.957578,-1.572355,-0.3121606,0.1159834,-0.2000496,-1.062689,-2.547643,1.662498
17.33333,4.588884,72,130,499,497,-0.300629,-0.3843259,0.6370513,-1.447916,-2.954134,-1.564721,-0.3424282,0.08024934,-0.238571,-1.05883,-2.547115,1.666658
17.66666,4.599996,77,130,504,497,-0.2998667,-0.353439,0.6549199,-1.445251,-2.951293,-1.556992,-0.3418179,0.05242249,-0.2835402,-1.055668,-2.547239,1.671432
18,4.611107,77,130,504,497,-0.2975811,-0.3226438,0.6746668,-1.442607,-2.948705,-1.549071,-0.3374899,0.0514895,-0.3194445,-1.053045,-2.547009,1.676493
18.33333,4.622218,77,130,504,497,-0.2963529,-0.3091803,0.6868594,-1.439948,-2.9458,-1.54119,-0.3403865,0.05970222,-0.3312438,-1.050423,-2.545726,1.680718
18.66666,4.633329,77,130,504,497,-0.2976519,-0.2925629,0.6916111,-1.437155,-2.94311,-1.53352,-0.3487163,0.07827732,-0.3108064,-1.047766,-2.543739,1.683837
19,4.644441,77,130,504,497,-0.2942989,-0.293269,0.7055135,-1.434618,-2.939977,-1.525329,-0.3601444,0.08912194,-0.2687745,-1.044771,-2.541004,1.685624
19.33333,4.655552,137,108,498,498,-0.2948464,-0.2915937,0.7087682,-1.431989,-2.936838,-1.517536,-0.3784491,0.08844879,-0.2463883,-1.041391,-2.538729,1.687909
19.66667,4.666663,137,108,498,498,-0.2910402,-0.2780235,0.7196246,-1.429507,-2.934078,-1.50945,-0.3832326,0.09084889,-0.2279099,-1.038295,-2.536649,1.690292
20,4.677774,137,108,498,498,-0.2843376,-0.2676816,0.721601,-1.427152,-2.93128,-1.50154,-0.3790545,0.08803618,-0.2222562,-1.035504,-2.53496,1.69298
20.33333,4.688886,137,108,498,498,-0.2708692,-0.2468905,0.7266088,-1.42503,-2.929123,-1.493493,-0.3856336,0.06889042,-0.2250713,-1.032034,-2.533657,1.695911
20.66667,4.699997,150,103,495,499,-0.2595159,-0.2224481,0.732724,-1.422987,-2.927145,-1.48531,-0.4016309,0.08850098,-0.2310224,-1.029024,-2.531121,1.698857
21,4.711108,150,103,495,499,-0.2554817,-0.1976891,0.7426861,-1.420743,-2.925436,-1.476966,-0.3990562,0.1125474,-0.2198571,-1.02643,-2.528158,1.701124
21.33334,4.722219,150,103,495,499,-0.2512477,-0.1780926,0.7456611,-1.41835,-2.923826,-1.468656,-0.3941296,0.1106972,-0.2116783,-1.023547,-2.525686,1.703352
21.66667,4.733331,150,103,495,499,-0.2400574,-0.1590815,0.7497099,-1.416543,-2.922354,-1.460471,-0.390141,0.09089002,-0.207293,-1.02038,-2.524026,1.70579
22,4.744442,150,103,495,499,-0.2312069,-0.1416256,0.7513093,-1.414674,-2.921042,-1.452211,-0.3847535,0.06609476,-0.2393457,-1.01717,-2.52354,1.709903
22.33334,4.755553,139,96,495,497,-0.222234,-0.113305,0.7466617,-1.412592,-2.920148,-1.444131,-0.3835799,0.03153172,-0.2662999,-1.013588,-2.523637,1.714324
22.66667,4.766665,139,96,495,497,-0.2123306,-0.07964994,0.7451304,-1.410746,-2.919796,-1.435883,-0.3828723,0.003756285,-0.2752005,-1.009878,-2.523612,1.718305
23.00001,4.777776,139,96,495,497,-0.2050533,-0.05967291,0.7503183,-1.408983,-2.919255,-1.427377,-0.3824908,0.004644811,-0.2609218,-1.006516,-2.522368,1.721104
23.33334,4.788887,139,96,495,497,-0.1980301,-0.04518671,0.7530481,-1.407254,-2.918736,-1.418916,-0.3864966,0.0329386,-0.2368008,-1.003598,-2.519944,1.723246
23.66667,4.799998,139,96,495,497,-0.190645,-0.03640647,0.7619881,-1.405558,-2.918095,-1.410271,-0.4027083,0.05837235,-0.2165206,-0.9999685,-2.517118,1.725352
24.00001,4.81111,123,103,498,499,-0.1850766,-0.03037156,0.7665424,-1.404032,-2.917317,-1.401732,-0.4185677,0.07423422,-0.2127423,-0.9966103,-2.514327,1.727802
24.33334,4.822221,123,103,498,499,-0.1830839,-0.01861081,0.7666665,-1.402319,-2.916926,-1.393066,-0.4308904,0.0687362,-0.2175206,-0.9928877,-2.512277,1.730801
24.66668,4.833332,123,103,498,499,-0.1811898,-0.01000051,0.7720392,-1.400684,-2.916468,-1.384226,-0.4261898,0.05206847,-0.2213657,-0.9893787,-2.510856,1.733801
25.00001,4.844443,123,103,498,499,-0.1775945,0.005846456,0.7750892,-1.399072,-2.91626,-1.375505,-0.4155735,0.02049112,-0.2311974,-0.9855224,-2.510369,1.737263
25.33334,4.855555,140,104,498,499,-0.1756871,0.01659799,0.7769789,-1.397478,-2.915975,-1.366853,-0.4162696,0.0002166927,-0.2426004,-0.9816945,-2.509795,1.74095
25.66668,4.866666,140,104,498,499,-0.1729448,0.02377403,0.7799801,-1.395834,-2.915713,-1.358001,-0.4159895,-0.03058922,-0.2567187,-0.9777679,-2.509831,1.745006
26.00001,4.877777,140,104,498,499,-0.177076,0.02165197,0.7777447,-1.394019,-2.914954,-1.349457,-0.4189794,-0.03515765,-0.261663,-0.973821,-2.509036,1.748681
26.33335,4.888888,140,104,498,499,-0.2019255,0.03324766,0.7880935,-1.391551,-2.914484,-1.340477,-0.4306485,-0.02896678,-0.2656582,-0.9699163,-2.50785,1.752367
26.66668,4.9,140,104,498,499,-0.2042375,0.04083416,0.7960616,-1.389545,-2.914193,-1.331298,-0.4202656,-0.03660464,-0.2397269,-0.9662007,-2.506737,1.754818
27.00001,4.911111,139,123,502,500,-0.1994753,0.0472915,0.7957444,-1.387922,-2.913739,-1.322446,-0.4349497,-0.009588897,-0.2295113,-0.9625357,-2.504397,1.75743
27.33335,4.922222,139,123,502,500,-0.2224456,0.03175277,0.7980436,-1.385511,-2.912236,-1.313758,-0.4722362,-0.0009036958,-0.235795,-0.9579944,-2.50214,1.760727
27.66668,4.933333,139,123,502,500,-0.2313146,0.0254997,0.8014149,-1.38324,-2.910928,-1.304898,-0.4880064,-0.0129047,-0.2379102,-0.9533408,-2.500568,1.764097
28.00002,4.944445,139,123,502,500,-0.250703,0.00696972,0.8119036,-1.380634,-2.908908,-1.295935,-0.489912,-0.05689099,-0.2380653,-0.9483224,-2.500619,1.767761
28.33335,4.955556,163,105,505,498,-0.2749333,-0.0154801,0.8184695,-1.377767,-2.906501,-1.287106,-0.4774143,-0.1163642,-0.2453043,-0.9430578,-2.501868,1.771965
28.66668,4.966667,163,105,505,498,-0.2868683,-0.02562281,0.826784,-1.375075,-2.904208,-1.27814,-0.4632949,-0.1500509,-0.2587734,-0.9380303,-2.503057,1.776462
29.00002,4.977778,163,105,505,498,-0.2933848,-0.01595572,0.8302319,-1.372368,-2.90255,-1.269162,-0.4557775,-0.1534116,-0.273864,-0.9335109,-2.503526,1.781087
29.33335,4.98889,163,105,505,498,-0.3037477,-0.003844559,0.8352847,-1.369505,-2.900886,-1.260072,-0.4555598,-0.1307991,-0.2870737,-0.9294603,-2.503219,1.785655
29.66669,5.000001,163,105,505,498,-0.3097638,0.00225541,0.8357468,-1.366757,-2.899084,-1.250868,-0.4810728,-0.1219651,-0.2845106,-0.924494,-2.502308,1.789761
30.00002,5.011112,192,103,502,501,-0.3184417,0.0144518,0.8352082,-1.363661,-2.897453,-1.241776,-0.5117363,-0.1277897,-0.2793424,-0.9188726,-2.501498,1.793893
30.33335,5.022223,192,103,502,501,-0.3166256,0.03042069,0.8346933,-1.361029,-2.896235,-1.232042,-0.5394654,-0.1156656,-0.2607502,-0.9133253,-2.499727,1.79709
30.66669,5.033335,192,103,502,501,-0.3152643,0.06048492,0.8297817,-1.358068,-2.895534,-1.222815,-0.5498796,-0.1116948,-0.2376245,-0.9080783,-2.498119,1.800281
31.00002,5.044446,192,103,502,501,-0.2978699,0.1048419,0.8222229,-1.355585,-2.895698,-1.213537,-0.5576961,-0.1249814,-0.22584,-0.9023317,-2.496964,1.803312
31.33335,5.055557,192,103,502,501,-0.2810352,0.1552528,0.8164029,-1.353092,-2.896502,-1.203988,-0.5627093,-0.1485264,-0.2256587,-0.8964221,-2.496648,1.807291
31.66669,5.066669,217,99,494,499,-0.2678105,0.1831359,0.814359,-1.350806,-2.897015,-1.194526,-0.5417776,-0.1650134,-0.2412221,-0.8912641,-2.497036,1.811798
32.00002,5.07778,217,99,494,499,-0.2547969,0.2099574,0.819675,-1.348521,-2.897724,-1.184675,-0.5234554,-0.174852,-0.257264,-0.8862941,-2.497516,1.816615
32.33335,5.088891,217,99,494,499,-0.2404294,0.2077735,0.8135567,-1.346573,-2.897724,-1.175456,-0.5109228,-0.1707056,-0.2821533,-0.8817545,-2.498045,1.821998
32.66669,5.100002,217,99,494,499,-0.2399259,0.243515,0.8042905,-1.344047,-2.898993,-1.165842,-0.5069312,-0.1833177,-0.290061,-0.876474,-2.498543,1.826848
33.00002,5.111114,253,101,488,498,-0.2287234,0.2750356,0.789384,-1.3418,-2.900498,-1.156375,-0.5279793,-0.1958204,-0.2624104,-0.8703914,-2.498123,1.830547
33.33335,5.122225,253,101,488,498,-0.2275527,0.2962359,0.7776629,-1.339582,-2.901979,-1.146597,-0.5458438,-0.1936927,-0.2424408,-0.8645836,-2.497269,1.833932
33.66668,5.133336,253,101,488,498,-0.2293065,0.3165719,0.7732574,-1.337086,-2.903361,-1.13694,-0.5587622,-0.1919764,-0.2283872,-0.8586441,-2.496209,1.837438
34.00002,5.144447,253,101,488,498,-0.2353263,0.3184907,0.7700887,-1.334562,-2.90443,-1.127599,-0.5506822,-0.197293,-0.2431385,-0.853305,-2.496471,1.842285
34.33335,5.155559,253,101,488,498,-0.2509493,0.308323,0.7733496,-1.331706,-2.904709,-1.118219,-0.5471776,-0.2002307,-0.2536637,-0.8479835,-2.496621,1.847103
34.66668,5.16667,250,90,505,499,-0.2665236,0.308059,0.7766935,-1.328656,-2.905154,-1.108634,-0.5319246,-0.213212,-0.2697756,-0.8428271,-2.497574,1.852339
35.00001,5.177781,250,90,505,499,-0.2823042,0.3016521,0.7759991,-1.325634,-2.905438,-1.099246,-0.534983,-0.2285355,-0.2620101,-0.8370752,-2.498105,1.856985
35.33334,5.188892,250,90,505,499,-0.2906225,0.3064168,0.7644363,-1.322492,-2.905954,-1.090096,-0.5347446,-0.2379801,-0.2516119,-0.8313606,-2.498481,1.861368
35.66668,5.200004,250,90,505,499,-0.2953312,0.3159976,0.7496533,-1.319396,-2.906895,-1.081112,-0.5339686,-0.2492239,-0.2282794,-0.8254058,-2.498671,1.864899
36.00001,5.211115,246,94,506,500,-0.2997384,0.3201656,0.738303,-1.316256,-2.907532,-1.072129,-0.5274125,-0.2590992,-0.2238553,-0.8197322,-2.499328,1.86924
36.33334,5.222226,246,94,506,500,-0.3033006,0.3220293,0.7275523,-1.313131,-2.908149,-1.063295,-0.5305064,-0.2783221,-0.2403515,-0.8136149,-2.500671,1.874747
36.66667,5.233337,246,94,506,500,-0.3023458,0.3278642,0.7138243,-1.310026,-2.908978,-1.054482,-0.5350938,-0.282285,-0.2526469,-0.8078081,-2.50169,1.880284
37,5.244449,246,94,506,500,-0.3008221,0.3420163,0.7000226,-1.306904,-2.910143,-1.045748,-0.542006,-0.2847638,-0.2467799,-0.8018192,-2.502083,1.884993
37.33334,5.25556,246,94,506,500,-0.2884225,0.3608443,0.6855211,-1.304061,-2.911734,-1.03685,-0.5464514,-0.2762737,-0.2252214,-0.7961115,-2.502173,1.889014
37.66667,5.266671,235,97,493,498,-0.2709003,0.3832442,0.6800556,-1.301558,-2.913759,-1.027474,-0.5358161,-0.274781,-0.2096287,-0.7905375,-2.502428,1.892929
38,5.277782,235,97,493,498,-0.2484723,0.4085104,0.6749645,-1.299342,-2.91594,-1.018093,-0.5368258,-0.273835,-0.1947203,-0.7845603,-2.502311,1.896777
38.33333,5.288894,235,97,493,498,-0.2413555,0.4106969,0.6731774,-1.29695,-2.917412,-1.009138,-0.5266578,-0.2899535,-0.1889967,-0.778711,-2.50328,1.901078
38.66666,5.300005,235,97,493,498,-0.2266116,0.4183911,0.6624974,-1.294803,-2.919262,-1.000268,-0.5233605,-0.2993748,-0.182125,-0.7727109,-2.504092,1.905366
39,5.311116,264,106,482,497,-0.2153245,0.429339,0.6504379,-1.29264,-2.921406,-0.9914485,-0.5211163,-0.3145999,-0.1799966,-0.7666016,-2.505209,1.909889
39.33333,5.322227,264,106,482,497,-0.2136064,0.4323527,0.642256,-1.290377,-2.923212,-0.9825285,-0.5168359,-0.3314621,-0.1859775,-0.7606584,-2.506757,1.91502
39.66666,5.333339,264,106,482,497,-0.2091519,0.4321711,0.6353444,-1.288168,-2.925114,-0.9737886,-0.5093179,-0.347105,-0.1871803,-0.7546977,-2.50879,1.92003
39.99999,5.34445,264,106,482,497,-0.2088211,0.4314341,0.6227359,-1.285849,-2.926876,-0.9654524,-0.4978871,-0.3489304,-0.1898415,-0.7490396,-2.510509,1.925043
40.33332,5.355561,264,106,482,497,-0.2090905,0.4331747,0.6103256,-1.283587,-2.928688,-0.9570421,-0.4786046,-0.3611316,-0.1980997,-0.7436132,-2.513219,1.930675
40.66666,5.366673,316,110,479,498,-0.2074339,0.4390239,0.6033246,-1.28132,-2.930559,-0.9484491,-0.4748284,-0.3673955,-0.2034636,-0.7378655,-2.515508,1.936277
40.99999,5.377784,316,110,479,498,-0.2106417,0.4433118,0.5930433,-1.278988,-2.932536,-0.9399398,-0.4736886,-0.371285,-0.2117292,-0.7323394,-2.517608,1.942026
41.33332,5.388895,316,110,479,498,-0.2146606,0.4461318,0.5876904,-1.276538,-2.934293,-0.9314789,-0.4750984,-0.3864464,-0.2103647,-0.7262115,-2.520215,1.947878
41.66665,5.400006,316,110,479,498,-0.2151773,0.4463268,0.5767971,-1.274246,-2.936119,-0.923295,-0.4635652,-0.3867042,-0.2012294,-0.7207078,-2.522544,1.953051
41.99998,5.411118,316,110,479,498,-0.211658,0.4461403,0.5584479,-1.272003,-2.938039,-0.9153146,-0.4359554,-0.3783423,-0.1871606,-0.7156883,-2.524832,1.957668
42.33332,5.422229,290,115,490,499,-0.2046004,0.4469825,0.5491312,-1.269902,-2.939984,-0.9072548,-0.4273757,-0.3762354,-0.1863811,-0.7104595,-2.527328,1.962997
42.66665,5.43334,290,115,490,499,-0.1971921,0.4454158,0.5407981,-1.267877,-2.941847,-0.8992808,-0.4198069,-0.378318,-0.1860008,-0.7052045,-2.530017,1.968463
42.99998,5.444451,290,115,490,499,-0.180136,0.4450956,0.5260316,-1.266329,-2.944069,-0.8915321,-0.395037,-0.3813681,-0.1933809,-0.7006393,-2.533883,1.974459
43.33331,5.455563,290,115,490,499,-0.1611779,0.444167,0.5140048,-1.264982,-2.946192,-0.8838925,-0.3866652,-0.3778005,-0.1952532,-0.6958563,-2.536883,1.980169
43.66665,5.466674,245,112,514,499,-0.1515234,0.4465367,0.500877,-1.263457,-2.948409,-0.876416,-0.3762148,-0.3726746,-0.1971854,-0.6913119,-2.540219,1.985822
43.99998,5.477785,245,112,514,499,-0.1325327,0.449231,0.483852,-1.262256,-2.950954,-0.8690454,-0.3735931,-0.3791774,-0.170296,-0.6859866,-2.542873,1.990274
44.33331,5.488896,245,112,514,499,-0.1181033,0.4611523,0.4623763,-1.261123,-2.95321,-0.8620594,-0.3751056,-0.3900539,-0.1477942,-0.6804323,-2.545377,1.994781
44.66664,5.500008,245,112,514,499,-0.1063156,0.4677193,0.4484968,-1.259995,-2.956072,-0.85465,-0.3726709,-0.3962399,-0.1475338,-0.6751018,-2.548435,2.000098
44.99997,5.511119,245,112,514,499,-0.09101707,0.4679039,0.4400462,-1.259063,-2.958349,-0.8472725,-0.362668,-0.3932907,-0.1417559,-0.6701738,-2.551379,2.005111
45.33331,5.52223,249,130,491,497,-0.07208794,0.4732519,0.4342313,-1.258472,-2.961224,-0.8398305,-0.3521857,-0.3855971,-0.1342367,-0.6655037,-2.553922,2.009725
45.66664,5.533341,249,130,491,497,-0.06370074,0.4775414,0.4300943,-1.2575,-2.963843,-0.8321478,-0.3337272,-0.3862485,-0.1240469,-0.6608751,-2.557148,2.014532
45.99997,5.544453,249,130,491,497,-0.04039836,0.4853409,0.4292479,-1.257333,-2.966904,-0.824545,-0.3073811,-0.3802448,-0.0999257,-0.6564665,-2.559865,2.01812
46.3333,5.555564,249,130,491,497,-0.0228436,0.4928851,0.4301143,-1.257252,-2.969986,-0.8167499,-0.2852349,-0.3751887,-0.09500182,-0.6523605,-2.563038,2.022485
46.66663,5.566675,259,124,497,494,-0.01542634,0.484656,0.4305475,-1.257055,-2.972649,-0.809422,-0.2663099,-0.3782387,-0.1212954,-0.6484994,-2.567639,2.028573
46.99997,5.577786,259,124,497,494,-0.01053005,0.4871494,0.4159811,-1.256705,-2.975742,-0.8021334,-0.2620454,-0.3761719,-0.1343147,-0.6444243,-2.571656,2.034463
47.3333,5.588898,259,124,497,494,-0.01302147,0.4782276,0.3956695,-1.256304,-2.978498,-0.7954724,-0.2695917,-0.4042549,-0.1486337,-0.6395214,-2.576827,2.041436
47.66663,5.600009,259,124,497,494,-0.01816684,0.4769593,0.3843408,-1.255738,-2.981331,-0.7885242,-0.2675744,-0.4101176,-0.1443179,-0.6349807,-2.580798,2.046994
47.99996,5.61112,259,124,497,494,-0.02914935,0.4751735,0.3739122,-1.254834,-2.984151,-0.7817177,-0.268727,-0.4160927,-0.1272428,-0.6301497,-2.584643,2.052088
48.33329,5.622231,295,122,520,501,-0.03803331,0.4729762,0.3675426,-1.253948,-2.986808,-0.7749159,-0.2670853,-0.418073,-0.1315769,-0.625658,-2.589056,2.058104
48.66663,5.633343,295,122,520,501,-0.04983091,0.4750367,0.3706342,-1.252878,-2.989471,-0.7677121,-0.2846735,-0.4093469,-0.1183034,-0.6208255,-2.592228,2.063152
48.99996,5.644454,295,122,520,501,-0.06159604,0.4746677,0.3738738,-1.251855,-2.991865,-0.7606435,-0.3053854,-0.4159932,-0.08464231,-0.615196,-2.594597,2.067105
49.33329,5.655565,295,122,520,501,-0.0781917,0.4783938,0.3743549,-1.250386,-2.994461,-0.7534423,-0.2828313,-0.4087778,-0.06765912,-0.6108125,-2.598196,2.071216
49.66662,5.666677,266,115,530,498,-0.07612675,0.4756086,0.3671754,-1.249438,-2.996945,-0.746711,-0.251919,-0.4331861,-0.09403062,-0.6066074,-2.604832,2.078559
49.99995,5.677788,266,115,530,498,-0.05407673,0.479428,0.3547958,-1.24909,-2.999891,-0.7399817,-0.2564278,-0.4361242,-0.104284,-0.6018275,-2.609761,2.085182
50.33329,5.688899,266,115,530,498,-0.03722382,0.4913825,0.3553637,-1.248742,-3.003073,-0.7326388,-0.2480703,-0.4187572,-0.09750015,-0.5978067,-2.613614,2.090281
50.66662,5.70001,266,115,530,498,-0.02600878,0.5046385,0.3604667,-1.248507,-3.006207,-0.7250168,-0.2450054,-0.412226,-0.09207574,-0.5937192,-2.617489,2.095358
50.99995,5.711122,266,115,530,498,-0.01537669,0.5105786,0.3635549,-1.248365,-3.009173,-0.7175429,-0.2383087,-0.4068233,-0.0888544,-0.5896266,-2.62162,2.100663
51.33328,5.722233,313,120,517,493,-0.01013869,0.5180169,0.3588546,-1.248012,-3.012265,-0.7101538,-0.2110831,-0.4184115,-0.1078877,-0.5858885,-2.628103,2.107886
51.66661,5.733344,313,120,517,493,0.008423746,0.5269233,0.3520663,-1.24831,-3.015811,-0.7028316,-0.196308,-0.4406234,-0.1221318,-0.5817308,-2.635197,2.115754
51.99995,5.744455,313,120,517,493,0.02767467,0.5325695,0.3484369,-1.248822,-3.019291,-0.69546,-0.1778868,-0.4579394,-0.1361456,-0.5778,-2.642646,2.123957
52.33328,5.755567,313,120,517,493,0.03751391,0.5363491,0.3473152,-1.249173,-3.022609,-0.687952,-0.177849,-0.4477576,-0.1258244,-0.5738569,-2.647762,2.129997
52.66661,5.766678,313,120,517,493,0.04524767,0.5381883,0.3510143,-1.249413,-3.025866,-0.6803732,-0.1827754,-0.4466051,-0.117579,-0.5696736,-2.653265,2.136483
52.99994,5.777789,312,123,508,494,0.03931844,0.5254428,0.342456,-1.249463,-3.028635,-0.6734682,-0.192921,-0.4606913,-0.1190719,-0.5655819,-2.659778,2.144056
53.33327,5.7889,312,123,508,494,0.02996981,0.5148414,0.333536,-1.24936,-3.031346,-0.6667187,-0.1894719,-0.4774879,-0.1072073,-0.5608394,-2.66637,2.151239
53.66661,5.800012,312,123,508,494,0.01695275,0.5060611,0.3295633,-1.248999,-3.033787,-0.6599857,-0.1869754,-0.4798301,-0.09579974,-0.5564089,-2.672474,2.157883
53.99994,5.811123,312,123,508,494,0.006008029,0.5034426,0.3320064,-1.248714,-3.03643,-0.6529703,-0.1916988,-0.4721844,-0.07438548,-0.551758,-2.677427,2.16358
54.33327,5.822234,384,137,514,499,0.005251646,0.5066215,0.3316739,-1.248629,-3.039035,-0.6457968,-0.1970136,-0.4621421,-0.06288216,-0.5473158,-2.682233,2.169322
54.6666,5.833345,384,137,514,499,0.003698826,0.5131076,0.3341107,-1.248441,-3.041862,-0.638512,-0.2047598,-0.4626587,-0.07438114,-0.543345,-2.688011,2.176544
54.99994,5.844457,384,137,514,499,0.006609619,0.5245389,0.3556921,-1.248612,-3.044263,-0.6303351,-0.2105963,-0.4556054,-0.09175572,-0.5393482,-2.694231,2.184584
55.33327,5.855568,384,137,514,499,-0.0004063845,0.543421,0.3890961,-1.248724,-3.046497,-0.6215605,-0.2098145,-0.4553503,-0.09989476,-0.5352554,-2.700524,2.192289
55.6666,5.866679,384,137,514,499,-0.008654714,0.5499925,0.3984583,-1.248505,-3.048677,-0.6132994,-0.2002085,-0.4552731,-0.09579931,-0.5311723,-2.706882,2.199659
55.99993,5.87779,403,135,497,500,0.01531172,0.5160899,0.345126,-1.249,-3.051451,-0.6077265,-0.1857114,-0.4610298,-0.1006602,-0.5271956,-2.714174,2.207764
56.33326,5.888902,403,135,497,500,0.01855284,0.502537,0.3259415,-1.249126,-3.053986,-0.6013146,-0.1698292,-0.4718075,-0.1120316,-0.5234491,-2.722383,2.216786
56.6666,5.900013,403,135,497,500,0.01434416,0.4992816,0.3194367,-1.249089,-3.056246,-0.5944895,-0.165596,-0.4795751,-0.1212736,-0.5195752,-2.730186,2.225913
56.99993,5.911124,403,135,497,500,0.01140201,0.500056,0.3153617,-1.249016,-3.05869,-0.5876036,-0.1477339,-0.4691939,-0.1167097,-0.5163209,-2.737459,2.23371
57.33326,5.922235,440,142,499,497,0.0116356,0.4998237,0.3070279,-1.249014,-3.061099,-0.5808695,-0.1617866,-0.474938,-0.1177742,-0.5123261,-2.745148,2.242752
57.66659,5.933347,440,142,499,497,0.01817173,0.4992361,0.3038245,-1.249304,-3.063504,-0.574014,-0.1720479,-0.4680794,-0.1164239,-0.5085152,-2.752027,2.251201
57.99992,5.944458,440,142,499,497,0.01002836,0.5069165,0.3112615,-1.249186,-3.065703,-0.5667452,-0.1877727,-0.465681,-0.1200654,-0.5045817,-2.759012,2.260206
58.33326,5.955569,440,142,499,497,0.004327774,0.5158765,0.323499,-1.249157,-3.067739,-0.5592745,-0.2028295,-0.4721828,-0.1129643,-0.5002716,-2.766012,2.269097
58.66659,5.966681,440,142,499,497,-0.003412127,0.5291891,0.3373704,-1.248981,-3.069856,-0.5514203,-0.2003162,-0.4591717,-0.08903047,-0.4961709,-2.77178,2.276054
58.99992,5.977792,403,143,502,495,0.006437421,0.5343064,0.3366335,-1.249465,-3.07219,-0.5439331,-0.1929238,-0.4518165,-0.06441839,-0.4921298,-2.777769,2.282768
59.33325,5.988903,403,143,502,495,0.04343671,0.5154272,0.3009419,-1.250722,-3.07516,-0.5380001,-0.1894466,-0.4497797,-0.05329517,-0.488053,-2.784077,2.290153
59.66658,6.000014,403,143,502,495,0.06852809,0.501299,0.2835228,-1.252029,-3.077713,-0.5318279,-0.1861764,-0.4282671,-0.04253715,-0.4844562,-2.789191,2.296383
59.99992,6.011126,403,143,502,495,0.08389539,0.5008114,0.2826045,-1.253231,-3.080238,-0.5250699,-0.1926992,-0.3963154,-0.04224591,-0.4813595,-2.793278,2.302165
60.33325,6.022237,403,143,502,495,0.08796069,0.5089085,0.2896491,-1.254257,-3.082549,-0.5178447,-0.1785007,-0.3991599,-0.05192783,-0.4781748,-2.800103,2.310079
60.66658,6.033348,393,135,500,496,0.08957747,0.5105115,0.2893369,-1.255202,-3.084984,-0.5109264,-0.1631414,-0.4263419,-0.08745182,-0.4749828,-2.810163,2.321595
60.99991,6.044459,393,135,500,496,0.09285879,0.5081528,0.2724569,-1.25611,-3.087529,-0.5044384,-0.1510246,-0.4427659,-0.1053629,-0.4719132,-2.819822,2.332407
61.33324,6.055571,393,135,500,496,0.1050952,0.50135,0.259423,-1.257335,-3.090194,-0.4982108,-0.1372141,-0.4360884,-0.09930339,-0.4690114,-2.827654,2.341023
61.66658,6.066682,393,135,500,496,0.1099023,0.5119765,0.2684064,-1.258688,-3.092641,-0.4909894,-0.1345095,-0.4251824,-0.08998521,-0.4660809,-2.834152,2.348472
61.99991,6.077793,376,154,495,497,0.09448928,0.5314775,0.280959,-1.259289,-3.09506,-0.4832785,-0.1342423,-0.3977731,-0.0683305,-0.4630976,-2.839178,2.35444
62.33324,6.088904,376,154,495,497,0.08158824,0.5268802,0.2758535,-1.259826,-3.097237,-0.4765801,-0.144923,-0.3861467,-0.06627695,-0.460199,-2.845067,2.361816
62.66657,6.100016,376,154,495,497,0.0789662,0.5016667,0.2522317,-1.260471,-3.099318,-0.4710157,-0.1656816,-0.3571289,-0.03469697,-0.4568509,-2.847854,2.366156
62.9999,6.111127,376,154,495,497,0.0731737,0.4755993,0.2307446,-1.260989,-3.101465,-0.4657474,-0.1621071,-0.3397287,0.004237145,-0.4532295,-2.850732,2.369711
63.33324,6.122238,376,154,495,497,0.06207186,0.46497,0.2248845,-1.261434,-3.103243,-0.4599476,-0.1590332,-0.3578172,0.01334888,-0.4494862,-2.857036,2.376806
63.66657,6.133349,365,152,491,498,0.04246923,0.4659566,0.2243547,-1.261333,-3.105178,-0.4538527,-0.1468361,-0.3691322,0.005662918,-0.446283,-2.863914,2.384399
63.9999,6.144461,365,152,491,498,0.02346852,0.4677053,0.2184633,-1.260993,-3.107046,-0.4478793,-0.1440844,-0.3842434,-0.02824558,-0.4435623,-2.872566,2.394521
64.33324,6.155572,365,152,491,498,0.01043952,0.4644035,0.2251367,-1.260927,-3.108506,-0.4418759,-0.1439836,-0.3849418,-0.01810026,-0.4402514,-2.878879,2.401694
64.66657,6.166683,365,152,491,498,0.02594566,0.4660904,0.2113611,-1.261463,-3.110806,-0.4360234,-0.1377431,-0.3834785,0.001365036,-0.4367307,-2.88431,2.40763
64.99991,6.177794,378,149,494,498,0.04174432,0.4549101,0.2038246,-1.262239,-3.112808,-0.4305298,-0.1399111,-0.3827537,0.0148809,-0.4330769,-2.890513,2.414619
65.33324,6.188906,378,149,494,498,0.05246967,0.4551373,0.1987716,-1.263022,-3.114935,-0.4247998,-0.1399417,-0.3598322,0.02400634,-0.4300568,-2.895009,2.419978
65.66658,6.200017,378,149,494,498,0.07259488,0.4644663,0.1925366,-1.264197,-3.117504,-0.4187874,-0.1448392,-0.3753184,0.02677451,-0.4263641,-2.901723,2.427701
65.99992,6.211128,378,149,494,498,0.09989882,0.4714142,0.1913608,-1.265857,-3.120104,-0.4127457,-0.1531235,-0.4059033,0.04131548,-0.4217867,-2.909445,2.436326
66.33325,6.222239,378,149,494,498,0.1075489,0.4820042,0.1994705,-1.267219,-3.122259,-0.4064271,-0.1444947,-0.4008791,0.04225343,-0.4186095,-2.915732,2.443243
66.66659,6.233351,390,146,526,496,0.1071386,0.5050519,0.2130848,-1.268285,-3.124522,-0.3993452,-0.1244965,-0.4142948,0.01742809,-0.4161924,-2.925321,2.453366
66.99992,6.244462,390,146,526,496,0.0845331,0.5262403,0.2308261,-1.268759,-3.126321,-0.3918367,-0.123053,-0.4017991,-0.001050159,-0.4134792,-2.932976,2.46205
67.33326,6.255573,390,146,526,496,0.09459299,0.5133557,0.2073085,-1.269863,-3.128726,-0.386039,-0.1200167,-0.3995219,-0.004854783,-0.4106136,-2.940808,2.470798
67.6666,6.266685,390,146,526,496,0.1095652,0.4862944,0.178204,-1.271206,-3.131206,-0.3810259,-0.1241449,-0.4059388,0.01403877,-0.4068176,-2.948251,2.478971
67.99993,6.277796,438,133,493,501,0.1181914,0.4490803,0.1525264,-1.272536,-3.133343,-0.3768384,-0.132246,-0.4003066,0.03715767,-0.4029789,-2.954466,2.486048
68.33327,6.288907,438,133,493,501,0.09990108,0.4407244,0.1555057,-1.273106,-3.135065,-0.3715525,-0.1263818,-0.3924905,0.05368233,-0.399365,-2.960868,2.492889
68.6666,6.300018,438,133,493,501,0.07607609,0.4322264,0.1564242,-1.273327,-3.136531,-0.3664275,-0.1242403,-0.3809958,0.05510309,-0.3962944,-2.967311,2.500036
68.99994,6.31113,438,133,493,501,0.05823475,0.4261489,0.1516985,-1.27344,-3.138224,-0.3613824,-0.1176371,-0.369102,0.04675996,-0.3935566,-2.97396,2.507402
69.33327,6.322241,438,133,493,501,0.04494935,0.4359615,0.1460557,-1.273455,-3.140169,-0.355891,-0.1187126,-0.3734426,0.04225889,-0.390446,-2.981409,2.515906
69.66661,6.333352,460,140,484,497,0.04342642,0.4379843,0.1398998,-1.273871,3.141187,-0.3505711,-0.1107789,-0.3835894,0.0595361,-0.386765,-2.98915,2.523896
69.99995,6.344463,460,140,484,497,0.03732425,0.4326955,0.1304107,-1.273973,3.139255,-0.345511,-0.09697473,-0.4001102,0.07291356,-0.3828731,-2.997762,2.532518
70.33328,6.355575,460,140,484,497,0.01300347,0.4264607,0.1286597,-1.273369,3.137917,-0.340507,-0.08990705,-0.3891859,0.08457203,-0.3794941,-3.004017,2.538851
70.66662,6.366686,460,140,484,497,-0.006756186,0.4172247,0.1281859,-1.272737,3.136615,-0.3356824,-0.08884776,-0.3751498,0.08887567,-0.3764218,-3.010574,2.545741
70.99995,6.377797,460,140,484,497,-0.007729769,0.4128679,0.1256439,-1.27263,3.135188,-0.3309191,-0.08833,-0.3704668,0.06394671,-0.3740101,-3.018852,2.554657
71.33329,6.388908,437,162,501,498,0.0113335,0.4125003,0.1204941,-1.273038,3.133282,-0.325956,-0.0860045,-0.3832094,0.0469934,-0.3713405,-3.028661,2.565177
71.66663,6.40002,437,162,501,498,0.03689146,0.423409,0.1148686,-1.273937,3.131041,-0.320594,-0.08123174,-0.3803849,0.05396196,-0.368484,-3.036496,2.57325
71.99996,6.411131,437,162,501,498,0.05140549,0.4258102,0.1158828,-1.274727,3.129118,-0.3153854,-0.07373372,-0.387199,0.05905874,-0.3653958,-3.045772,2.582706
72.3333,6.422242,437,162,501,498,0.054616,0.4107193,0.1162794,-1.275368,3.127666,-0.3107962,-0.06482545,-0.3963603,0.0600592,-0.3623055,-3.055292,2.59249
72.66663,6.433353,375,155,486,497,0.04132169,0.4101056,0.1195964,-1.275321,3.126259,-0.3057501,-0.05986995,-0.3894798,0.05225269,-0.3597867,-3.064521,2.602006
72.99997,6.444465,375,155,486,497,0.0324997,0.4064689,0.1243877,-1.275302,3.124989,-0.3006373,-0.07033902,-0.376307,0.04824647,-0.3574708,-3.072263,2.610662
73.33331,6.455576,375,155,486,497,0.03486511,0.3996674,0.1203822,-1.275691,3.123529,-0.2960785,-0.05321327,-0.3718342,0.05660625,-0.3548396,-3.081203,2.61927
73.66664,6.466687,375,155,486,497,0.04539409,0.4128093,0.1123931,-1.276235,3.121459,-0.2908007,-0.03181586,-0.3679788,0.04065505,-0.3530148,-3.091354,2.629167
73.99998,6.477798,375,155,486,497,0.05180654,0.4217721,0.1118969,-1.27685,3.119572,-0.285534,-0.0318352,-0.3793842,0.01532164,-0.3512502,-3.103031,2.641376
74.33331,6.48891,426,162,524,499,0.06640333,0.4258588,0.1043847,-1.277479,3.117369,-0.2802082,-0.057643,-0.402707,0.002458751,-0.3489279,-3.115003,2.654792
74.66665,6.500021,426,162,524,499,0.06111777,0.4215447,0.1009477,-1.277712,3.115614,-0.2751898,-0.06247139,-0.3982981,0.02581906,-0.3460458,-3.124128,2.664318
74.99998,6.511132,426,162,524,499,0.0426724,0.4181754,0.1019861,-1.277677,3.114167,-0.2702576,-0.06585187,-0.3792188,0.06495459,-0.3427265,-3.131414,2.671758
75.33332,6.522243,426,162,524,499,0.04446751,0.4106917,0.1091163,-1.277849,3.112752,-0.265335,-0.0460645,-0.3806677,0.08249724,-0.3399823,-3.141238,2.680993
75.66666,6.533355,412,140,491,497,0.05479801,0.4109051,0.1070814,-1.27865,3.111057,-0.2603964,-0.044687,-0.3678877,0.07061285,-0.3378641,3.132774,2.690508
75.99999,6.544466,412,140,491,497,0.08935693,0.4338812,0.1060669,-1.279964,3.108804,-0.2542088,-0.04245818,-0.364766,0.05823062,-0.3360531,3.122835,2.701034
76.33333,6.555577,412,140,491,497,0.1157162,0.4334192,0.1073162,-1.281742,3.106899,-0.249094,-0.03548628,-0.3886549,0.06269592,-0.3332115,3.110043,2.71399
76.66666,6.566689,412,140,491,497,0.1378531,0.4342131,0.1057218,-1.283154,3.104659,-0.243536,-0.02412698,-0.3829408,0.0626875,-0.3309947,3.099109,2.724761
77,6.5778,412,140,491,497,0.1425254,0.4374029,0.1075786,-1.284761,3.102839,-0.2382496,-0.02404642,-0.3680002,0.05151112,-0.3293643,3.089805,2.734522
77.33334,6.588911,381,151,504,503,0.1605162,0.4383423,0.1046813,-1.286655,3.100724,-0.2326383,-0.03705063,-0.3774439,0.04655235,-0.3272647,3.078423,2.7467
77.66667,6.600022,381,151,504,503,0.1666456,0.4403545,0.1021296,-1.288594,3.098776,-0.2274009,-0.02240726,-0.3830751,0.05745992,-0.3249131,3.066603,2.758333
78.00001,6.611134,381,151,504,503,0.184002,0.4402924,0.09400746,-1.290534,3.096383,-0.2218365,-0.01386935,-0.3788308,0.05608036,-0.3229828,3.055136,2.769672
78.33334,6.622245,381,151,504,503,0.1869886,0.4371753,0.09363917,-1.292201,3.094305,-0.2164963,-0.01338652,-0.3810236,0.04660156,-0.3213487,3.043451,2.781791
78.66668,6.633356,460,149,486,500,0.1826738,0.4370874,0.08858594,-1.293923,3.092385,-0.2114592,-0.0275248,-0.3981336,0.04611155,-0.3190957,3.030359,2.795624
79.00002,6.644467,460,149,486,500,0.1605659,0.442722,0.08824754,-1.294695,3.090369,-0.2057611,-0.03259948,-0.4000776,0.06330056,-0.3166392,3.018569,2.807717
79.33335,6.655579,460,149,486,500,0.1367008,0.5026925,0.1191714,-1.29577,3.088897,-0.198128,-0.02763367,-0.3884012,0.06607418,-0.314661,3.007433,2.818978
79.66669,6.66669,460,149,486,500,0.1042786,0.5491272,0.1426389,-1.295819,3.08737,-0.1897534,-0.0159345,-0.3877112,0.05326991,-0.3133262,2.995106,2.831378
80.00002,6.677801,460,149,486,500,0.1094893,0.5297174,0.1253147,-1.297139,3.085559,-0.1843557,-0.0160875,-0.3873422,0.03792043,-0.3120032,2.982368,2.844608
80.33336,6.688912,498,146,481,496,0.1352188,0.4642823,0.1213059,-1.249165,3.106402,-0.1651501,-0.02328503,-0.4119647,0.0521033,-0.3096074,2.967625,2.859869
80.66669,6.700024,498,146,481,496,0.1289976,0.4423386,0.09651533,-1.252436,3.101474,-0.1602792,-0.01915964,-0.4275759,0.05691953,-0.307568,2.95234,2.875319
81.00003,6.711135,498,146,481,496,0.1008866,0.4489809,0.09084885,-1.253479,3.098269,-0.1544388,-0.01074487,-0.4385556,0.04275554,-0.3064164,2.936568,2.891399
81.33337,6.722246,498,146,481,496,0.04123572,0.4693364,0.09650478,-1.253095,3.09707,-0.147863,-0.01004803,-0.4455182,0.04269066,-0.3047157,2.920635,2.907784
81.6667,6.733357,498,146,481,496,0.003978133,0.4886424,0.09921401,-1.25604,3.095981,-0.1444989,-0.0006531775,-0.4455964,0.03676517,-0.3035071,2.904806,2.92378
82.00004,6.744469,472,184,520,495,-0.01005977,0.4812983,0.08654567,-1.258794,3.092543,-0.1412072,-0.002588063,-0.4462816,0.05157939,-0.3016472,2.889381,2.939419
82.33337,6.75558,472,184,520,495,-0.01511425,0.4743452,0.08096062,-1.258503,3.091115,-0.1358489,-0.00885877,-0.4446292,0.06707537,-0.2995513,2.874347,2.954865
82.66671,6.766691,472,184,520,495,-0.03178066,0.4788226,0.08029211,-1.260233,3.088204,-0.1306195,-0.01637316,-0.444253,0.09683998,-0.296854,2.859486,2.970212
83.00005,6.777802,472,184,520,495,-0.0296818,0.4792998,0.08825103,-1.26095,3.086633,-0.124907,-0.0034886,-0.4390441,0.08970729,-0.2956061,2.84376,2.986041
83.33338,6.788914,509,190,504,503,-0.03366381,0.4607005,0.09069839,-1.262005,3.084861,-0.1210961,0.002656013,-0.4283617,0.0374731,-0.2960253,2.828761,3.001674
83.66672,6.800025,509,190,504,503,-0.005697727,0.4483997,0.08947012,-1.263366,3.083249,-0.1161122,0.008113831,-0.437944,0.01998258,-0.2956982,2.811543,3.019524
84.00005,6.811136,509,190,504,503,0.01845312,0.444172,0.1141069,-1.204235,3.111287,-0.092384,0.003668904,-0.4319789,0.03063057,-0.2945642,2.796434,3.03512
84.33339,6.822248,509,190,504,503,0.03694502,0.45017,0.1252255,-1.209334,3.108303,-0.08614367,0.007423818,-0.4283225,0.05294134,-0.2928082,2.781518,3.049945
84.66673,6.833359,509,190,504,503,0.05677313,0.465371,0.1408197,-1.217179,3.099055,-0.08137555,0.01652002,-0.4057347,0.03551722,-0.2926601,2.768252,3.063333
85.00006,6.84447,514,194,499,503,0.06052983,0.4700324,0.1513358,-1.219058,3.096973,-0.0758676,0.009388357,-0.3911544,-0.01049639,-0.2938223,2.755514,3.077116
85.3334,6.855581,514,194,499,503,0.07131955,0.4540836,0.1610142,-1.228661,3.096583,-0.07838109,0.004671961,-0.3875631,-0.03662097,-0.2946729,2.741943,3.091737
85.66673,6.866693,514,194,499,503,0.121861,0.4271562,0.1689057,-1.235714,3.0944,-0.07717415,0.02515638,-0.4112138,-0.05924794,-0.2959773,2.724256,3.109947
86.00007,6.877804,514,194,499,503,0.1415982,0.4268454,0.1745723,-1.239191,3.092492,-0.07187659,0.01064971,-0.4306114,-0.01360399,-0.2947464,2.707204,3.12764
86.3334,6.888915,531,197,499,497,0.1323387,0.435158,0.1948275,-1.203082,3.108891,-0.05544169,-0.003023297,-0.4112029,0.01561092,-0.2935789,2.694042,3.141559
86.66674,6.900026,531,197,499,497,0.1146736,0.4412317,0.1973956,-1.21347,3.105405,-0.05684038,0.004302531,-0.4018592,0.01441941,-0.2937094,2.680272,-3.127485
87.00008,6.911138,531,197,499,497,0.08928296,0.4239252,0.1965633,-1.214493,3.105539,-0.05213724,-0.006485343,-0.3722199,-0.01205091,-0.2944396,2.669909,-3.115994
87.33341,6.922249,531,197,499,497,0.08552578,0.4063249,0.1956727,-1.217508,3.104073,-0.04641623,-0.01692179,-0.345449,-0.03388266,-0.2953254,2.660344,-3.105115
87.66675,6.93336,531,197,499,497,0.07055992,0.3883504,0.1854078,-1.221311,3.100037,-0.0434042,-0.01852185,-0.3462069,-0.03087389,-0.2956732,2.647961,-3.091736
88.00008,6.944471,496,190,501,501,0.0561257,0.3814906,0.1765067,-1.225079,3.094747,-0.03916711,-0.01461834,-0.3527095,-0.01189834,-0.2954766,2.634639,-3.077734
88.33342,6.955583,496,190,501,501,0.03182042,0.3733324,0.1652382,-1.227042,3.093762,-0.0343649,-0.01039186,-0.3541127,0.0004566759,-0.2954713,2.621447,-3.063868
88.66676,6.966694,496,190,501,501,0.007649779,0.3599223,0.158352,-1.22869,3.095771,-0.03285488,-0.01209569,-0.3471049,-0.009855643,-0.2961504,2.610376,-3.051766
89.00009,6.977805,496,190,501,501,-0.01977211,0.3436253,0.1433016,-1.23031,3.09531,-0.02862046,-0.01722947,-0.3489215,-0.01769376,-0.296797,2.598413,-3.038586
89.33343,6.988916,496,190,501,501,-0.03631851,0.3316728,0.1258156,-1.231261,3.091571,-0.02602867,-0.01418942,-0.3678083,-0.006718785,-0.2970751,2.583632,-3.022925
89.66676,7.000028,459,205,492,495,-0.04146338,0.3254543,0.1124984,-1.235438,3.088411,-0.02194125,-0.01724499,-0.3636247,0.03008869,-0.2960146,2.570366,-3.009001
90.0001,7.011139,459,205,492,495,-0.05055368,0.3225856,0.09777862,-1.234896,3.088077,-0.01819259,-0.02060825,-0.3313612,0.07760716,-0.2941099,2.560058,-2.998416
90.0001,7.02225,459,205,492,495,-0.0671902,0.3203774,0.09118754,-1.236936,3.088352,-0.01561145,-0.01884311,-0.3091483,0.07038143,-0.2940087,2.550846,-2.98862
90.0001,7.033361,459,205,492,495,-0.07863894,0.3052513,0.08795441,-1.236085,3.088536,-0.0124817,-0.02056128,-0.2975913,0.04588804,-0.29456,2.541581,-2.978432
90.0001,7.044473,530,190,522,495,-0.09194347,0.2861833,0.08580269,-1.238207,3.089222,-0.01040497,-0.01808159,-0.2734369,0.03115471,-0.2949121,2.533958,-2.970111
90.0001,7.055584,530,190,522,495,-0.09060392,0.2648131,0.07922,-1.239268,3.088373,-0.007503723,-0.02049887,-0.2622046,0.01749775,-0.295377,2.525828,-2.961174
90.0001,7.066695,530,190,522,495,-0.08497921,0.2516346,0.07316858,-1.24023,3.08919,-0.006143913,-0.02558352,-0.2533318,0.0130931,-0.2956737,2.518013,-2.952441
90.0001,7.077806,530,190,522,495,-0.07978538,0.2484211,0.06413613,-1.240958,3.08835,-0.0030898,-0.03253978,-0.2507931,0.02147024,-0.2955235,2.509228,-2.942647
90.0001,7.088918,530,190,522,495,-0.09563807,0.2368059,0.04147876,-1.240973,3.088881,-0.002221609,-0.04034072,-0.2555694,0.04067844,-0.2949866,2.499569,-2.931958
90.0001,7.100029,479,193,495,495,-0.1053841,0.2288236,0.02724787,-1.241196,3.087429,0.00049375,-0.03136672,-0.2584145,0.065864,-0.2943443,2.488426,-2.920557
90.0001,7.11114,479,193,495,495,-0.1335365,0.2101471,0.01472582,-1.2402,3.088106,0.001190433,-0.03245631,-0.2354155,0.0754501,-0.2935059,2.481151,-2.912752
90.0001,7.122252,479,193,495,495,-0.1608184,0.1969665,0.002959199,-1.239774,3.088836,0.002375007,-0.03150804,-0.2320595,0.07358873,-0.2932545,2.472833,-2.903764
90.0001,7.133363,479,193,495,495,-0.1705711,0.1857035,-0.004936669,-1.23766,3.088704,0.004240818,-0.01918913,-0.2291903,0.05783541,-0.293557,2.463979,-2.894526
90.0001,7.144474,521,199,525,499,-0.1761208,0.1776188,-0.01731255,-1.23863,3.087974,0.005434447,-0.01774743,-0.2101012,0.02432036,-0.2945307,2.459128,-2.888988
90.0001,7.155585,521,199,525,499,-0.1704872,0.1700304,-0.02009963,-1.238586,3.086333,0.007425426,-0.02157828,-0.1811126,0.03428593,-0.2939304,2.454375,-2.883661
90.0001,7.166697,521,199,525,499,-0.1586609,0.1583165,-0.01792435,-1.238022,3.086902,0.007819041,-0.0140399,-0.148559,0.04981908,-0.2932263,2.450573,-2.879958
90.0001,7.177808,521,199,525,499,-0.1511456,0.1483752,-0.0194946,-1.238025,3.085609,0.009519203,-0.007454239,-0.1280995,0.04779499,-0.2930292,2.447296,-2.876686
90.0001,7.188919,521,199,525,499,-0.1335985,0.1185785,-0.00372988,-1.237965,3.086445,0.009212406,-0.009937257,-0.1080906,0.03953405,-0.2929653,2.445116,-2.874228
90.0001,7.20003,435,200,504,495,-0.1203588,0.1030137,0.004490379,-1.238507,3.085751,0.01021961,-0.0002887547,-0.09658145,0.03926232,-0.2928987,2.442134,-2.871439
90.0001,7.211142,435,200,504,495,-0.07716458,0.08302373,0.0242587,-1.239894,3.086781,0.009500029,0.01957671,-0.0834377,0.05407534,-0.2921717,2.438341,-2.868428
90.0001,7.222253,435,200,504,495,-0.04634632,0.07376422,0.03365714,-1.241368,3.086144,0.01015517,0.01155977,-0.07848743,0.06759109,-0.2913221,2.434787,-2.864871
90.0001,7.233364,435,200,504,495,-0.001021229,0.06062559,0.05024315,-1.243447,3.086799,0.009976202,0.01294244,-0.0698414,0.05584276,-0.2911458,2.432429,-2.862663
90.0001,7.244475,541,223,505,499,0.04427559,0.05488762,0.06413788,-1.247725,3.086788,0.009178851,-0.007919978,-0.07130882,0.03538711,-0.2913477,2.430631,-2.860037
90.0001,7.255587,541,223,505,499,0.06883138,0.04863194,0.0720858,-1.250299,3.086618,0.009815346,-0.02158871,-0.06372838,0.03697332,-0.2907767,2.428868,-2.85772
90.0001,7.266698,541,223,505,499,0.09395461,0.04154779,0.07861589,-1.253298,3.087463,0.008955678,-0.01927198,-0.03987947,0.0252919,-0.2906893,2.429509,-2.858257
90.0001,7.277809,541,223,505,499,0.09075463,0.04233222,0.07859133,-1.255551,3.086892,0.009611349,-0.01503554,-0.02773404,0.01517313,-0.2907661,2.42976,-2.858423
90.0001,7.28892,541,223,505,499,0.08434761,0.0348589,0.07844523,-1.257273,3.087816,0.008857141,-0.009601275,-0.01143976,0.008514985,-0.2907639,2.430843,-2.859601
90.0001,7.300032,518,231,506,503,0.06414441,0.01392391,0.06606159,-1.258406,3.088461,0.00815673,-0.0001811147,-0.001759375,0.0005411884,-0.2909013,2.43129,-2.860163
90.0001,7.311143,518,231,506,503,0.0450315,-0.005623821,0.05695572,-1.258909,3.08911,0.007269364,0.01087083,0.004353428,-0.002732045,-0.2910702,2.431699,-2.861009
90.0001,7.322254,518,231,506,503,0.03614589,-0.01581954,0.05413038,-1.260177,3.088763,0.006762299,0.01816393,0.02367787,-0.03616659,-0.2921019,2.435141,-2.864717
90.0001,7.333365,518,231,506,503,0.03220357,-0.02187819,0.04261886,-1.26124,3.089291,0.005455219,0.00748141,0.02581758,-0.04486051,-0.2925877,2.437293,-2.866563
90.0001,7.344477,518,231,506,503,0.03393433,-0.02705591,0.03783046,-1.262809,3.089356,0.004335094,-0.003154928,0.02331306,-0.02743126,-0.2923363,2.438016,-2.867044
90.0001,7.355588,481,217,508,498,0.0403306,-0.03582028,0.0357065,-1.263503,3.089689,0.003655988,-0.01353367,0.03075318,-0.001324819,-0.2913647,2.439515,-2.868363
90.0001,7.366699,481,217,508,498,0.04831478,-0.03846386,0.03593554,-1.266173,3.089239,0.002642921,-0.01573921,0.02382028,0.03525049,-0.2899362,2.438241,-2.867218
90.0001,7.37781,481,217,508,498,0.06218246,-0.03312496,0.04176702,-1.268456,3.08889,0.00279845,-0.01262084,0.008291461,0.02621615,-0.290056,2.43733,-2.866186
90.0001,7.388922,481,217,508,498,0.06926027,-0.02204122,0.04034006,-1.270181,3.089363,0.001997371,-0.01511165,0.0005751792,0.01273565,-0.2903,2.43717,-2.865695
90.0001,7.400033,494,227,529,501,0.06440946,-0.01985848,0.03471436,-1.272298,3.088865,0.001366734,-0.01460868,0.01177994,-0.005738604,-0.2906414,2.439585,-2.867908
90.0001,7.411144,494,227,529,501,0.05031729,-0.02432941,0.03370701,-1.272579,3.089247,0.0009614012,-0.01058596,0.0152485,-0.009305167,-0.2907602,2.44066,-2.868986
90.0001,7.422256,494,227,529,501,0.04206107,-0.03376613,0.03620311,-1.27426,3.089177,-0.0003318299,-0.001855692,0.02816019,-0.002197986,-0.290423,2.442444,-2.871154
90.0001,7.433367,494,227,529,501,0.03342573,-0.03214423,0.03532147,-1.274505,3.0896,-0.0006689861,0.008199293,0.03288809,-0.003446753,-0.2904779,2.443744,-2.872912
90.0001,7.444478,494,227,529,501,0.03295877,-0.02266626,0.03696382,-1.276171,3.089793,-0.001145159,0.0006741993,0.04153042,-0.01700485,-0.2907932,2.447406,-2.876359
90.0001,7.455589,531,213,504,497,0.03563207,-0.01516718,0.03893507,-1.276757,3.090108,-0.001099353,-0.01317372,0.02284491,-0.01644135,-0.2907703,2.447676,-2.876033
90.0001,7.466701,531,213,504,497,0.03838885,-0.01113867,0.02586148,-1.278054,3.089483,-0.001124919,-0.01797383,0.01366955,-0.009741712,-0.2906318,2.447573,-2.875615
90.0001,7.477812,531,213,504,497,0.04440898,-0.007869875,0.03197629,-1.279515,3.089123,-0.001124919,-0.02910692,0.008842958,0.008702571,-0.289811,2.447351,-2.874963
90.0001,7.488923,531,213,504,497,0.0423516,-0.006914698,0.03161152,-1.280499,3.089473,-0.001866343,-0.02490044,-0.0008986648,0.02378322,-0.2892182,2.445925,-2.873493
90.0001,7.500034,600,231,544,494,0.02710715,0.003135942,0.03036926,-1.281062,3.089346,-0.001443433,-0.01442003,0.008809119,0.0399679,-0.2884097,2.446482,-2.874482
90.0001,7.511146,600,231,544,494,0.01402305,0.00654099,0.03347508,-1.281455,3.089851,-0.001778992,-0.008721361,0.01376717,0.01934498,-0.288675,2.44769,-2.875735
90.0001,7.522257,600,231,544,494,0.008262325,0.006743288,0.03071284,-1.282346,3.089984,-0.002302569,-0.007908453,0.01309398,-0.006579197,-0.2893301,2.449254,-2.877067
90.0001,7.533368,600,231,544,494,0.004706378,0.01067531,0.02746139,-1.28237,3.090142,-0.002069809,-0.01538022,0.005342323,-0.01240201,-0.2894696,2.449577,-2.876941
90.0001,7.544479,600,231,544,494,0.004154154,0.01440191,0.01801375,-1.283643,3.089749,-0.002062885,-0.01619498,-0.02030562,0.01156189,-0.2889892,2.446026,-2.87318
90.0001,7.555591,526,234,483,496,0.005236521,0.0211816,0.01801931,-1.284528,3.089214,-0.001464206,-0.01702108,-0.02561086,0.02014915,-0.2885769,2.443991,-2.871005
90.0001,7.566702,526,234,483,496,0.004097829,0.02777714,0.01393374,-1.284573,3.088979,-0.001036502,-0.01829751,-0.0147377,0.005678587,-0.2887314,2.444856,-2.871603
90.0001,7.577813,526,234,483,496,0.001196869,0.02336761,0.01286346,-1.285315,3.088653,-0.0008080031,-0.01944286,-0.01257133,-0.004357512,-0.289068,2.445245,-2.871697
90.0001,7.588924,526,234,483,496,-0.003335584,0.02166485,0.01338683,-1.285523,3.088892,-0.001061536,-0.01934762,-0.003881104,-0.009845069,-0.2891884,2.446357,-2.872587
90.0001,7.600036,460,221,529,506,-0.01256268,0.02035519,0.01499586,-1.286088,3.088955,-0.001104679,-0.01264512,-0.009223252,-0.02150432,-0.2898292,2.446139,-2.872306
90.0001,7.611147,460,221,529,506,-0.009227008,0.01953814,0.01106263,-1.286066,3.088923,-0.0009001484,-0.003388054,-0.01104155,-0.02939964,-0.290463,2.445992,-2.87219
90.0001,7.622258,460,221,529,506,0.006691463,0.01682618,0.01000404,-1.287535,3.088317,-0.0008985506,0.005336037,-0.01413072,-0.009127656,-0.290194,2.444562,-2.871077
90.0001,7.633369,460,221,529,506,0.0244618,0.01734906,0.01385932,-1.288814,3.087808,-0.0006439523,0.0102651,-0.006441589,0.02115638,-0.2891655,2.443514,-2.870517
90.0001,7.644481,460,221,529,506,0.03740191,0.01251457,0.01938279,-1.290043,3.088226,-0.0009763148,0.008065114,-0.0002933708,0.00871571,-0.2892987,2.44419,-2.871233
90.0001,7.655592,509,243,496,500,0.04885326,0.01282771,0.02599965,-1.291195,3.088253,-0.0006535397,-0.002136876,-0.01124067,-0.02370845,-0.2904678,2.444942,-2.871304
90.0001,7.666703,509,243,496,500,0.0581023,0.0151175,0.02453283,-1.292305,3.088213,-0.0007158577,-0.0003879089,-0.01803485,-0.03091236,-0.2910649,2.444361,-2.870555
90.0001,7.677814,509,243,496,500,0.06131269,0.01750582,0.02488832,-1.293306,3.088107,-0.0004324974,0.00123268,-0.01234985,-0.03823297,-0.2914372,2.445199,-2.871341
90.0001,7.688926,509,243,496,500,0.05708412,0.01730485,0.02019501,-1.293805,3.087882,-0.0001267665,-0.004923687,-0.008863538,-0.03734313,-0.2917578,2.445828,-2.871663
90.0001,7.700037,509,243,496,500,0.04581856,0.01717225,0.01705666,-1.294354,3.08785,8.841695E-05,-0.003141521,-0.008827846,-0.01741557,-0.2915954,2.445305,-2.871201
90.0001,7.711148,512,224,480,495,0.03125623,0.008951662,0.01412454,-1.294362,3.087986,-3.195793E-05,0.00485964,-0.002209589,-0.0006151536,-0.2912571,2.444758,-2.870945
90.0001,7.72226,512,224,480,495,0.02664095,0.01057678,0.01901182,-1.29546,3.08775,0.0004910869,0.006559122,0.001505892,-0.004637955,-0.2913168,2.445298,-2.871579
90.0001,7.733371,512,224,480,495,0.03143395,0.01475033,0.02150319,-1.296003,3.087838,0.0007712514,0.0001203245,-0.0004123296,-0.02659273,-0.2920295,2.446563,-2.872488
90.0001,7.744482,512,224,480,495,0.03963921,0.02139631,0.01978302,-1.297645,3.087218,0.0008697884,-0.005583317,-0.008279679,-0.04075573,-0.2928199,2.446738,-2.872197
90.0001,7.755593,495,289,480,495,0.04933893,0.03087591,0.02041247,-1.299052,3.086709,0.001523328,-0.004539065,-0.008477994,-0.0340173,-0.2930154,2.446487,-2.871926
90.0001,7.766705,495,289,480,495,0.05254413,0.03325045,0.02073385,-1.299847,3.086546,0.001847701,-0.003860695,-0.01300219,-0.02296568,-0.2930516,2.445614,-2.870967
90.0001,7.777816,495,289,480,495,0.05359199,0.01981285,0.02165814,-1.300833,3.086504,0.001678857,-0.00433531,-0.009356318,-0.004600077,-0.292585,2.44512,-2.870562
90.0001,7.788927,495,289,480,495,0.04973409,0.01332466,0.01988011,-1.301254,3.086288,0.001686314,0.001632987,-0.01830693,0.01190706,-0.2921999,2.442848,-2.868492
90.0001,7.800038,495,289,480,495,0.04035175,0.0152725,0.01787679,-1.301893,3.08592,0.001953695,0.0002891375,-0.009984884,0.008310007,-0.2921908,2.443333,-2.868995
90.0001,7.81115,423,221,485,493,0.02528435,0.01432127,0.01246045,-1.301937,3.085877,0.001827461,0.001446464,-0.002738832,-0.005642615,-0.2925642,2.444311,-2.869939
90.0001,7.822261,423,221,485,493,0.01383089,0.01288482,0.01012525,-1.302313,3.085648,0.002030927,0.006789248,-0.008412652,-0.01537927,-0.2931251,2.443748,-2.869555
90.0001,7.833372,423,221,485,493,0.002831224,0.01089615,0.01006026,-1.302012,3.085577,0.00216515,0.007230291,-0.002274296,-0.0120725,-0.2931144,2.444031,-2.86999
90.0001,7.844483,423,221,485,493,0.0004854053,0.005995079,0.006885702,-1.302641,3.085276,0.001981392,0.003151103,-0.005181752,-0.01505913,-0.2933728,2.443999,-2.869812
90.0001,7.855595,420,206,476,499,0.006913809,0.01185248,0.003352795,-1.303399,3.084869,0.002349973,0.0006978591,-0.007055751,0.0007679141,-0.2929925,2.44278,-2.868773
90.0001,7.866706,420,206,476,499,0.0186103,0.01571451,0.0006492417,-1.303727,3.084307,0.002807504,-0.000617526,-0.001833732,0.01459298,-0.2924747,2.442581,-2.86868
90.0001,7.877817,420,206,476,499,0.02074896,0.01361099,0.005167856,-1.304217,3.084263,0.002896454,0.01090192,-0.004832975,0.009360233,-0.2925323,2.441586,-2.868136
90.0001,7.888928,420,206,476,499,0.02473568,0.006873933,0.01115729,-1.304526,3.084193,0.002878877,0.011571,-0.006251996,0.002984966,-0.2927272,2.441207,-2.867848
90.0001,7.90004,420,206,476,499,0.03876799,0.00771699,0.02071312,-1.305938,3.084411,0.002651443,0.01345388,-0.001144812,0.001150453,-0.292903,2.441496,-2.868453
90.0001,7.911151,439,201,459,493,0.05518992,0.007765727,0.01698385,-1.306947,3.08423,0.0027601,0.01456852,0.001348849,-0.01494139,-0.293516,2.44228,-2.869309
90.0001,7.922262,439,201,459,493,0.05837335,0.006792665,0.01749033,-1.307685,3.083924,0.003075951,0.0109383,-0.0115038,-0.02971829,-0.2942686,2.441912,-2.868618
90.0001,7.933373,439,201,459,493,0.06630126,0.009806002,0.01234677,-1.308647,3.083614,0.003278884,0.006887922,-0.01358475,-0.02291962,-0.2943778,2.44143,-2.868032
90.0001,7.944485,439,201,459,493,0.06591825,0.009289465,0.009733146,-1.309828,3.083419,0.003214435,0.005465347,-0.005560222,-0.002612729,-0.2937344,2.441241,-2.868037
90.0001,7.955596,452,191,501,499,0.06625596,0.004092942,0.01290184,-1.310705,3.083648,0.003141997,0.001388482,-8.703675E-05,0.01282604,-0.293115,2.44103,-2.867879
90.0001,7.966707,452,191,501,499,0.06450532,0.008915733,0.01939791,-1.311412,3.083828,0.003245861,-0.001384538,0.005488728,0.0100438,-0.2929727,2.441726,-2.868545
90.0001,7.977818,452,191,501,499,0.05109036,0.01651799,0.01570339,-1.312004,3.08364,0.003752927,-0.002760328,0.003043523,-0.01305364,-0.293687,2.442667,-2.869296
90.0001,7.98893,452,191,501,499,0.04391216,0.02315374,0.01335789,-1.31229,3.083468,0.004157194,0.0009288406,-4.195608E-05,-0.02532602,-0.2943176,2.442981,-2.869531
90.0001,8.000041,452,191,501,499,0.02789238,0.01341872,0.007759084,-1.312464,3.083403,0.004137487,-0.002471454,-0.01139383,-0.009617223,-0.2940939,2.441308,-2.867817
90.0001,8.011152,436,178,504,497,0.02310524,0.005900994,0.001101659,-1.312541,3.083233,0.0040006,0.00257183,-0.01594358,0.008844291,-0.2936902,2.439538,-2.866271
90.0001,8.022264,436,178,504,497,0.01329713,0.007396037,-0.007833768,-1.31229,3.082786,0.004495416,-0.002971494,-0.006485484,0.02395193,-0.2928859,2.43947,-2.866355
