ref,t,emg1,emg2,emg1raw,emg2raw,aDotS,bDotS,gDotS,aS,bS,gS,aDotSH,bDotSH,gDotSH,aSH,bSH,gSH
0,0,97,213,500,493,0.2929472,-0.143557,-0.1737456,-1.383151,-3.083782,-1.635853,0.06433566,0.01779796,0.09556121,-0.9953176,-2.630999,1.655913
0,0.01111111,96,220,499,493,0.2965304,-0.1361148,-0.1728631,-1.386707,-3.082593,-1.637658,0.06694864,0.01778475,0.0959554,-0.9960478,-2.630637,1.654611
0,0.02222222,96,220,499,493,0.3068844,-0.1354563,-0.1735584,-1.390547,-3.081242,-1.639608,0.08063398,0.02613967,0.1048446,-0.9973826,-2.630054,1.652814
0,0.03333334,96,220,499,493,0.3124339,-0.1283839,-0.171659,-1.394125,-3.080126,-1.641411,0.0842676,0.03905472,0.1180479,-0.9986476,-2.628908,1.650736
0,0.04444445,96,220,499,493,0.3141065,-0.1164815,-0.1697618,-1.397803,-3.079187,-1.643192,0.07486173,0.07337578,0.1515488,-1.000013,-2.626191,1.64752
0,0.05555556,96,220,499,493,0.325094,-0.09530298,-0.1719082,-1.40171,-3.078709,-1.6453,0.06886362,0.07781601,0.1448084,-1.000812,-2.625089,1.64571
0,0.06666667,89,214,497,498,0.3180978,-0.08042287,-0.1662983,-1.405122,-3.078238,-1.646948,0.07025051,0.07581778,0.1313598,-1.001872,-2.624169,1.644312
0,0.07777778,89,214,497,498,0.3128591,-0.06969944,-0.1661653,-1.408593,-3.077771,-1.648925,0.1035475,0.0787635,0.1031236,-1.004034,-2.624318,1.643856
0,0.08888889,89,214,497,498,0.3116877,-0.07547278,-0.167824,-1.412145,-3.076805,-1.650707,0.143785,0.08485106,0.09012235,-1.006861,-2.624383,1.642987
0,0.1,89,214,497,498,0.2965646,-0.08411623,-0.1716925,-1.415381,-3.075533,-1.652818,0.1735548,0.09798827,0.08158183,-1.009976,-2.624139,1.64199
0,0.1111111,86,203,496,499,0.2946312,-0.1061751,-0.1784765,-1.418732,-3.073732,-1.654855,0.1637339,0.1005601,0.07772188,-1.011743,-2.623335,1.640846
0,0.1222222,86,203,496,499,0.2834094,-0.1262587,-0.18272,-1.42191,-3.07164,-1.656799,0.1334002,0.09916727,0.09341257,-1.012833,-2.621913,1.639056
0,0.1333333,86,203,496,499,0.2749855,-0.138688,-0.1872144,-1.425121,-3.069732,-1.659037,0.1243349,0.09734937,0.1055959,-1.014312,-2.620797,1.637202
0,0.1444445,86,203,496,499,0.2712101,-0.1450303,-0.1911225,-1.428312,-3.067853,-1.661119,0.1233278,0.1006719,0.1076691,-1.016071,-2.619715,1.635609
0,0.1555556,86,203,496,499,0.2660886,-0.1611033,-0.1952827,-1.431409,-3.065516,-1.663415,0.1245096,0.1080781,0.08639438,-1.017985,-2.619081,1.635003
0,0.1666667,88,180,499,503,0.2573256,-0.1576325,-0.1902594,-1.434226,-3.063773,-1.665257,0.1209142,0.1075751,0.07408109,-1.019664,-2.618387,1.634305
0,0.1777778,88,180,499,503,0.2462015,-0.1639646,-0.1943282,-1.436711,-3.061512,-1.667375,0.1223248,0.1017568,0.06386554,-1.021337,-2.617992,1.633735
0,0.1888889,88,180,499,503,0.2365552,-0.1567204,-0.1961356,-1.439263,-3.059764,-1.669472,0.1289341,0.1053487,0.06237373,-1.023322,-2.617403,1.632754
0,0.2,88,180,499,503,0.228929,-0.1414118,-0.1871309,-1.441671,-3.058463,-1.67124,0.1289922,0.1072148,0.06338369,-1.025168,-2.616614,1.631804
0,0.2111111,90,238,498,498,0.2223833,-0.1200066,-0.1810282,-1.444046,-3.057384,-1.673014,0.1292213,0.1069419,0.06337804,-1.026984,-2.61591,1.630901
0,0.2222222,90,238,498,498,0.2017959,-0.08250426,-0.1647243,-1.445778,-3.057285,-1.674432,0.120269,0.1202856,0.06869975,-1.02876,-2.613991,1.629557
0,0.2333333,90,238,498,498,0.2044746,-0.05538352,-0.1560298,-1.448297,-3.057212,-1.676118,0.1156578,0.1157904,0.06582236,-1.030383,-2.613746,1.628888
0,0.2444444,90,238,498,498,0.188682,-0.0127522,-0.1351447,-1.44986,-3.058143,-1.677177,0.11054,0.1100592,0.05768678,-1.031862,-2.612866,1.628253
0,0.2555556,90,238,498,498,0.1769223,0.01966228,-0.1177678,-1.451323,-3.059178,-1.678174,0.1088798,0.1050269,0.06093742,-1.033477,-2.612322,1.627398
0,0.2666667,92,204,499,494,0.165002,0.06204254,-0.09692994,-1.452552,-3.061071,-1.678823,0.1029604,0.098719,0.06856424,-1.034814,-2.611367,1.626211
0,0.2777778,92,204,499,494,0.149778,0.09708761,-0.07791831,-1.453601,-3.063086,-1.679259,0.08313824,0.07664046,0.07091113,-1.035292,-2.611082,1.625069
0,0.2888889,92,204,499,494,0.1334086,0.123037,-0.05782767,-1.454436,-3.065135,-1.679562,0.07518955,0.05194673,0.06720464,-1.035763,-2.611103,1.62433
0,0.3,92,204,499,494,0.1106719,0.1380665,-0.0382054,-1.454861,-3.067067,-1.679749,0.07683117,0.03578585,0.05347181,-1.036651,-2.611513,1.624257
0,0.3111111,94,180,497,499,0.09760258,0.1447337,-0.02483346,-1.455377,-3.068892,-1.679839,0.08323982,0.02783092,0.04079532,-1.037613,-2.612379,1.624217
0,0.3222222,94,180,497,499,0.06651111,0.1415249,-0.01179856,-1.455421,-3.070355,-1.679989,0.08349623,0.02736847,0.03936892,-1.038555,-2.612357,1.623731
0,0.3333333,94,180,497,499,0.05367225,0.1332812,-0.009538884,-1.455493,-3.071619,-1.680104,0.07058939,0.03155915,0.04877234,-1.039153,-2.611744,1.622788
0,0.3444445,94,180,497,499,0.03244425,0.1133188,-0.01340176,-1.455221,-3.072256,-1.680448,0.05055238,0.04097312,0.0674936,-1.039488,-2.610404,1.621268
0,0.3555556,94,180,497,499,0.01869627,0.0861211,-0.01891372,-1.455045,-3.072478,-1.680841,0.03615869,0.04174245,0.08069681,-1.039652,-2.609381,1.619758
0,0.3666667,100,215,496,498,0.006034002,0.0555649,-0.02414762,-1.454837,-3.072212,-1.681215,0.01777767,0.03685797,0.08529212,-1.039437,-2.608341,1.618449
0,0.3777778,100,215,496,498,-0.005701675,0.04035326,-0.02026123,-1.45444,-3.072148,-1.681329,0.01261591,0.03878666,0.06589944,-1.039703,-2.607839,1.618326
0,0.3888889,100,215,496,498,-0.01206189,0.02174614,-0.02041265,-1.454163,-3.07182,-1.681495,0.02772228,0.04663556,0.04190248,-1.040689,-2.60766,1.61853
0,0.4,100,215,496,498,-0.02053433,0.009072656,-0.02247625,-1.453747,-3.071488,-1.681776,0.04935022,0.04258529,0.03612101,-1.041874,-2.607753,1.618149
0,0.4111111,100,215,496,498,-0.02686395,0.00233754,-0.02638728,-1.45326,-3.071286,-1.682221,0.04497585,0.03947142,0.02755793,-1.042394,-2.607594,1.618058
0,0.4222222,117,205,495,495,-0.02681239,-0.001292074,-0.0294594,-1.452974,-3.071159,-1.682572,0.01528063,0.02643964,0.01594853,-1.042046,-2.607399,1.618292
0,0.4333333,117,205,495,495,-0.02794697,0.002887944,-0.02409297,-1.452874,-3.071131,-1.682878,0.008279245,0.02355558,0.0179365,-1.041791,-2.607061,1.617993
0,0.4444444,117,205,495,495,-0.01846044,0.00914592,-0.01804487,-1.452778,-3.071359,-1.682869,-0.01052865,0.01536305,0.01862998,-1.041078,-2.606688,1.617678
0,0.4555556,117,205,495,495,-0.01426595,0.01254146,-0.01386916,-1.452701,-3.071562,-1.682952,-0.01551423,0.01720805,0.01973622,-1.040966,-2.606083,1.617374
0,0.4666667,130,217,494,494,-0.01012079,0.0195738,-0.00661904,-1.452637,-3.071984,-1.682896,-0.002512246,0.03245517,0.01789999,-1.041613,-2.605484,1.617175
0,0.4777778,130,217,494,494,-0.01020487,0.02478315,-0.0009681047,-1.452432,-3.072383,-1.682802,0.00206577,0.0390817,0.009839218,-1.042143,-2.605143,1.617213
0,0.4888889,130,217,494,494,-0.004978545,0.02974238,0.005788983,-1.452467,-3.072875,-1.682639,0.008543059,0.04279725,0.005966065,-1.042691,-2.604735,1.617146
0,0.5,130,217,494,494,-0.0008356888,0.03652512,0.01406198,-1.452482,-3.073548,-1.682342,0.01135689,0.03841746,0.00437586,-1.043028,-2.604556,1.61712
0,0.5111111,130,217,494,494,0.0001996811,0.03370605,0.01667431,-1.452491,-3.073889,-1.682125,0.01766139,0.02254983,-0.009445517,-1.043327,-2.605064,1.617623
0,0.5222223,144,184,494,499,0.01415117,0.03133531,0.008620488,-1.452977,-3.074197,-1.682255,0.01860144,0.0150545,-0.02153971,-1.043542,-2.605525,1.618253
0,0.5333334,144,184,494,499,0.01639033,0.02095658,0.001747339,-1.453393,-3.074049,-1.682571,0.01886567,0.01260748,-0.0287445,-1.043835,-2.60577,1.618806
0,0.5444446,144,184,494,499,0.02941079,0.00590936,-0.01266556,-1.454122,-3.073664,-1.68307,0.01119865,0.02851675,-0.0254367,-1.044153,-2.605161,1.61898
0,0.5555557,144,184,494,499,0.03482601,-0.009835763,-0.01529943,-1.454604,-3.073186,-1.6833,0.008215478,0.04712427,-0.01263859,-1.044636,-2.604198,1.618681
0,0.5666668,151,175,494,499,0.04544848,-0.01155878,-0.01227018,-1.455365,-3.073089,-1.683288,0.01325039,0.05708779,-0.01210648,-1.045403,-2.603636,1.618888
0,0.577778,151,175,494,499,0.0507256,-0.01122701,-0.008822336,-1.456007,-3.073025,-1.683216,0.0183067,0.0610186,-0.01788541,-1.046103,-2.603296,1.619245
0,0.5888891,151,175,494,499,0.05161943,-0.004659859,0.0004335458,-1.456556,-3.073221,-1.682946,0.02582311,0.0531079,-0.02963685,-1.04674,-2.603586,1.620061
0,0.6000003,151,175,494,499,0.05356231,0.008891754,0.008061467,-1.457159,-3.073784,-1.68271,0.03224431,0.03705176,-0.03860049,-1.047204,-2.604219,1.62086
0,0.6111114,151,175,494,499,0.05434236,0.02794699,0.02021453,-1.457979,-3.074669,-1.682407,0.03247165,0.0208557,-0.04218917,-1.047445,-2.604858,1.621496
0,0.6222225,164,137,494,498,0.060493,0.03598565,0.0330585,-1.459039,-3.075436,-1.68195,0.02389047,0.004627069,-0.04324319,-1.047339,-2.605482,1.622108
0,0.6333337,164,137,494,498,0.06137531,0.04494848,0.04167368,-1.45961,-3.076403,-1.681291,0.01984479,-0.008765329,-0.04193664,-1.047242,-2.606085,1.622598
0,0.6444448,164,137,494,498,0.05920595,0.04172345,0.04627701,-1.460397,-3.076968,-1.6808,0.02028943,-0.01533682,-0.04011788,-1.047282,-2.606731,1.623102
0,0.655556,164,137,494,498,0.05614383,0.03440337,0.04012576,-1.460825,-3.077309,-1.68048,0.02365054,-0.008728068,-0.03815988,-1.047692,-2.607074,1.623622
0,0.6666671,178,164,495,502,0.05529748,0.0211452,0.03152952,-1.461689,-3.077312,-1.680506,0.02658004,0.004437337,-0.03802478,-1.048231,-2.607119,1.624084
0,0.6777782,178,164,495,502,0.05764329,0.01019358,0.02245264,-1.462385,-3.077215,-1.680435,0.03359016,0.03885274,-0.0382128,-1.049405,-2.606472,1.624534
0,0.6888894,178,164,495,502,0.05456056,0.0008473039,0.0202574,-1.462906,-3.077042,-1.680176,0.03309975,0.04751908,-0.03670004,-1.049926,-2.606176,1.624843
0,0.7000005,178,164,495,502,0.05463107,-0.006852735,0.02067342,-1.463581,-3.076924,-1.679886,0.02381122,0.05405163,-0.04083578,-1.050339,-2.605772,1.625434
0,0.7111117,178,164,495,502,0.05161197,-0.02080799,0.01962245,-1.464419,-3.076661,-1.679811,0.009510729,0.05060059,-0.04548237,-1.050391,-2.605684,1.626174
0,0.7222228,178,167,494,497,0.04735858,-0.02488064,0.02303407,-1.464934,-3.076198,-1.679468,0.005996527,0.03032748,-0.05325214,-1.050295,-2.606215,1.627077
0,0.7333339,178,167,494,497,0.04303636,-0.02330202,0.02553063,-1.465197,-3.076124,-1.679129,0.0006452221,0.01893548,-0.05423964,-1.050299,-2.606543,1.627746
0,0.7444451,178,167,494,497,0.03981961,-0.02528327,0.02942514,-1.465734,-3.075888,-1.678694,0.004014095,-0.002087407,-0.06062523,-1.050157,-2.607583,1.628758
0,0.7555562,178,167,494,497,0.0373937,-0.01641758,0.04339897,-1.466004,-3.076132,-1.677953,0.009625632,-0.02059653,-0.06412789,-1.050126,-2.608766,1.629637
0,0.7666674,178,167,494,497,0.03933792,-0.009649464,0.05257029,-1.466519,-3.076442,-1.677158,0.01587298,-0.0262812,-0.06230178,-1.050223,-2.609672,1.630412
0,0.7777785,171,151,495,505,0.03792932,0.009349123,0.06547744,-1.466825,-3.077331,-1.676134,0.0195762,-0.0279857,-0.05565902,-1.050455,-2.610343,1.630991
0,0.7888896,171,151,495,505,0.03572128,0.01644437,0.0680712,-1.46724,-3.077825,-1.675378,0.01851374,-0.03214835,-0.05231643,-1.050387,-2.611113,1.63159
0,0.8000008,171,151,495,505,0.0335691,0.02868835,0.06198394,-1.467408,-3.078602,-1.674965,0.01534136,-0.04280018,-0.0475645,-1.050018,-2.612127,1.632161
0,0.8111119,171,151,495,505,0.03361716,0.0319563,0.05720736,-1.46781,-3.079142,-1.674475,0.01635128,-0.03256177,-0.04227258,-1.050136,-2.612496,1.632571
0,0.8222231,164,148,495,498,0.02721419,0.0363151,0.05696454,-1.467888,-3.079787,-1.673908,0.01301588,-0.01769076,-0.04454915,-1.050301,-2.612636,1.633189
0,0.8333342,164,148,495,498,0.02835778,0.03391657,0.0531487,-1.468196,-3.080221,-1.67346,-8.473918E-05,0.02201114,-0.0371557,-1.05058,-2.611469,1.633361
0,0.8444453,164,148,495,498,0.0264195,0.02107721,0.04704681,-1.468569,-3.080163,-1.6731,-0.01279341,0.05341064,-0.02504482,-1.050881,-2.609893,1.633209
0,0.8555565,164,148,495,498,0.02451618,-0.0007916053,0.04229388,-1.468658,-3.079698,-1.672727,-0.01881925,0.05683613,-0.02070603,-1.050868,-2.609324,1.633395
0,0.8666676,164,148,495,498,0.01828263,-0.01309138,0.03847849,-1.468927,-3.079323,-1.672445,-0.0161927,0.04097027,-0.02698152,-1.0508,-2.60947,1.63392
0,0.8777788,162,192,494,496,0.01002652,-0.04759149,0.03643901,-1.468897,-3.077986,-1.671941,-0.01572619,-0.01839704,-0.03902799,-1.049697,-2.611778,1.634988
0,0.8888899,162,192,494,496,0.006838977,-0.05325177,0.03740059,-1.468977,-3.077366,-1.671376,-0.01335184,-0.05898161,-0.05200255,-1.04873,-2.613896,1.636245
0,0.900001,162,192,494,496,0.006784681,-0.05137049,0.03891231,-1.469025,-3.077027,-1.670875,0.002657086,-0.110161,-0.04705898,-1.047822,-2.616731,1.636919
0,0.9111122,162,192,494,496,0.007768549,-0.03230399,0.03646409,-1.469259,-3.077291,-1.67058,0.005422056,-0.09872245,-0.04180752,-1.047543,-2.617532,1.637333
0,0.9222233,160,160,495,497,0.01388347,0.001541224,0.0415445,-1.469372,-3.078429,-1.670065,0.004217509,-0.07163765,-0.03124506,-1.047512,-2.617675,1.637416
0,0.9333345,160,160,495,497,0.01474061,0.03601263,0.04339959,-1.469403,-3.079841,-1.669637,-0.001057778,-0.0306828,-0.01966043,-1.047723,-2.6169,1.637323
0,0.9444456,160,160,495,497,0.01460081,0.06170041,0.04553575,-1.469414,-3.081336,-1.669229,-0.006994214,-0.002181132,-0.004768608,-1.0479,-2.615884,1.636844
0,0.9555568,160,160,495,497,0.01251462,0.06466445,0.04175251,-1.469555,-3.08205,-1.669007,-0.003819495,0.0009204815,0.009978456,-1.047895,-2.615679,1.636349
0,0.9666679,160,160,495,497,0.01040754,0.06570745,0.04192108,-1.469529,-3.082864,-1.668601,0.004880745,-0.006473403,0.01034865,-1.047995,-2.615997,1.636216
0,0.977779,157,144,495,500,0.01373354,0.05892914,0.03289238,-1.469725,-3.083335,-1.668514,0.0127521,-0.02234909,0.004984518,-1.047868,-2.617029,1.636493
0,0.9888902,157,144,495,500,0.01698885,0.0554449,0.02889849,-1.470071,-3.083884,-1.668396,0.01208584,-0.0330021,-0.001708408,-1.047642,-2.617822,1.63679
0,1.000001,157,144,495,500,0.02129002,0.05153216,0.02700654,-1.470374,-3.084459,-1.668174,0.007053593,-0.03117152,-0.003092453,-1.047404,-2.618004,1.637014
0,1.011112,157,144,495,500,0.0202718,0.04758199,0.02505822,-1.470616,-3.084897,-1.667971,0.004639762,-0.02757449,-0.009249185,-1.047273,-2.618277,1.637307
0,1.022224,157,144,495,500,0.0182022,0.04405548,0.02103116,-1.470602,-3.085352,-1.667904,0.003081456,-0.02913064,-0.01542724,-1.047091,-2.618762,1.637719
0,1.033335,150,129,496,498,0.01612846,0.03674737,0.01946942,-1.470785,-3.08555,-1.667808,0.002192998,-0.03545807,-0.01305802,-1.046829,-2.619317,1.63786
0,1.044446,150,129,496,498,0.00975956,0.03211119,0.02059987,-1.470844,-3.085836,-1.667634,0.007276148,-0.05270198,-0.009830684,-1.046489,-2.62037,1.637975
0,1.055557,150,129,496,498,-0.002082862,0.03719638,0.03240175,-1.47045,-3.086509,-1.667005,0.01569618,-0.07687844,-0.00809788,-1.04608,-2.621927,1.638152
0,1.066668,150,129,496,498,0.01606563,0.03482076,0.02880274,-1.471079,-3.086909,-1.666801,0.01596487,-0.08299702,-0.009560341,-1.045711,-2.623092,1.638414
0,1.077779,136,137,496,502,0.01497602,0.0375311,0.03150702,-1.471244,-3.087536,-1.666325,0.01681733,-0.07270406,-0.01144146,-1.045494,-2.623763,1.638753
0,1.08889,136,137,496,502,0.01498541,0.04947291,0.02635001,-1.47129,-3.088464,-1.666278,0.004758805,-0.04299411,-0.007419361,-1.045374,-2.62322,1.638681
0,1.100002,136,137,496,502,0.01711824,0.05200015,0.02470374,-1.471362,-3.089092,-1.666177,-0.002245216,-0.02476957,-0.00728695,-1.045354,-2.623021,1.63876
0,1.111113,136,137,496,502,0.01811984,0.05889127,0.02827961,-1.471461,-3.090052,-1.665943,-0.008332286,-0.02138584,-0.007691898,-1.045077,-2.623198,1.638885
0,1.122224,136,137,496,502,0.0170658,0.05533664,0.02968646,-1.471568,-3.090648,-1.665623,-0.002776623,-0.02397219,-0.009185813,-1.045011,-2.623617,1.639072
0,1.133335,130,138,497,497,0.01496156,0.049902,0.02962048,-1.471544,-3.091131,-1.665435,0.01372891,-0.04104207,-0.007974769,-1.04507,-2.624806,1.639114
0,1.144446,130,138,497,497,0.01288444,0.04259408,0.02808914,-1.471548,-3.091486,-1.665162,0.02474529,-0.05946729,-0.008142758,-1.044988,-2.626171,1.639308
0,1.155557,130,138,497,497,0.01394564,0.04594463,0.02768475,-1.471561,-3.092124,-1.664941,0.02652996,-0.07366961,-0.01819598,-1.044648,-2.627736,1.639969
0,1.166668,130,138,497,497,0.01605484,0.03948019,0.03286438,-1.471997,-3.092524,-1.664528,0.0189206,-0.07757483,-0.02479596,-1.04419,-2.628845,1.640563
0,1.17778,121,156,497,502,0.01711552,0.03802918,0.0347309,-1.47212,-3.093043,-1.664104,0.01352332,-0.07141303,-0.03137342,-1.04389,-2.6296,1.641195
0,1.188891,121,156,497,502,0.01612415,0.03365853,0.02947825,-1.472184,-3.093345,-1.663857,0.009694088,-0.05796625,-0.02700565,-1.043813,-2.629872,1.641436
0,1.200002,121,156,497,502,0.01515675,0.03221957,0.02047781,-1.47228,-3.093672,-1.663889,0.01058255,-0.04196999,-0.01696813,-1.043898,-2.629964,1.64135
0,1.211113,121,156,497,502,0.009875068,0.02844818,0.01748982,-1.472103,-3.09392,-1.663746,0.01433976,-0.03605217,-0.01317156,-1.044,-2.630491,1.641411
0,1.222224,121,156,497,502,0.003533673,0.02927506,0.01324611,-1.471963,-3.094256,-1.663742,0.01918953,-0.0356527,-0.01558687,-1.044113,-2.63111,1.641708
0,1.233335,115,146,496,496,0.0003044885,0.03511729,0.01657053,-1.471818,-3.094931,-1.663417,0.02095699,-0.04019814,-0.01798565,-1.044016,-2.632068,1.642111
0,1.244446,115,146,496,496,0.001334647,0.03866886,0.02053417,-1.472101,-3.095494,-1.66325,0.01880336,-0.04455541,-0.01321304,-1.04386,-2.632715,1.64218
0,1.255558,115,146,496,496,-0.002932793,0.04262463,0.02238042,-1.471802,-3.096049,-1.662917,0.00982427,-0.04831741,-0.01219479,-1.043396,-2.633354,1.642439
0,1.266669,115,146,496,496,0.003385169,0.03971573,0.03159518,-1.472167,-3.096503,-1.662386,0.001103546,-0.05428367,-0.002627864,-1.042789,-2.633812,1.642241
0,1.27778,109,152,498,504,-0.002954284,0.03345734,0.03026272,-1.472164,-3.096805,-1.662002,-0.005428337,-0.05590729,0.004547616,-1.04223,-2.634238,1.642093
0,1.288891,109,152,498,504,-0.005009681,0.02927472,0.02397141,-1.472012,-3.096913,-1.661909,-0.01086951,-0.05731614,0.005529228,-1.041643,-2.634624,1.642091
0,1.300002,109,152,498,504,-0.01229374,0.01715777,0.008432169,-1.471776,-3.096678,-1.662217,-0.01027325,-0.05240168,0.01218837,-1.041323,-2.634818,1.641774
0,1.311113,109,152,498,504,-0.01226428,0.005674031,0.006124914,-1.471597,-3.09648,-1.662079,-0.01135891,-0.04508518,0.01079518,-1.041067,-2.635036,1.641701
0,1.322224,109,152,498,504,-0.016496,-0.00393641,0.00522398,-1.471585,-3.096219,-1.662106,-0.01320363,-0.03087775,0.01611101,-1.040915,-2.635011,1.641425
0,1.333336,99,156,498,497,-0.01967852,-0.007895011,0.003304099,-1.471225,-3.096064,-1.662072,-0.01705587,-0.03075697,0.02567287,-1.04051,-2.634747,1.64082
0,1.344447,99,156,498,497,-0.02180409,-0.005589844,0.002657167,-1.470926,-3.096047,-1.662065,-0.01944737,-0.03660391,0.0370768,-1.039954,-2.634714,1.640038
0,1.355558,99,156,498,497,-0.02291469,0.001310788,0.006207605,-1.47048,-3.096266,-1.661987,-0.0251415,-0.04339228,0.03707882,-1.039206,-2.634958,1.63965
0,1.366669,99,156,498,497,-0.01863861,0.01113087,0.006068593,-1.470424,-3.096658,-1.661966,-0.02418367,-0.04858906,0.03937734,-1.038619,-2.63519,1.639112
0,1.37778,99,156,498,497,-0.01857212,0.0186571,0.001073899,-1.470306,-3.096931,-1.662196,-0.01669787,-0.04638846,0.03689403,-1.038411,-2.635557,1.638783
0,1.388891,96,156,498,496,-0.01856209,0.02200625,0.0006752789,-1.46999,-3.097204,-1.662118,-0.005730834,-0.04749259,0.02957227,-1.038235,-2.636213,1.638661
0,1.400002,96,156,498,496,-0.02175162,0.02410504,0.001074624,-1.46963,-3.097482,-1.662144,-0.006740896,-0.04596576,0.03290937,-1.037889,-2.636352,1.638178
0,1.411114,96,156,498,496,-0.02489251,0.01765469,-0.004615147,-1.469331,-3.097411,-1.662378,-0.004433976,-0.03986908,0.0348243,-1.037668,-2.636341,1.637592
0,1.422225,96,156,498,496,-0.0237685,0.01663525,-0.01024123,-1.469086,-3.097499,-1.662643,-0.01526173,-0.008428469,0.04914297,-1.037587,-2.634973,1.636468
0,1.433336,93,152,498,498,-0.02374879,0.002247826,-0.01427382,-1.468851,-3.097101,-1.662876,-0.01973402,0.007844951,0.05752341,-1.037392,-2.633916,1.635433
0,1.444447,93,152,498,498,-0.02152032,-0.004611568,-0.02327589,-1.468839,-3.09669,-1.663394,-0.01901974,0.02412296,0.06679612,-1.037553,-2.632653,1.634233
0,1.455558,93,152,498,498,-0.02147056,-0.01334616,-0.02834711,-1.468639,-3.096191,-1.663805,-0.02529411,0.02390403,0.0650171,-1.03725,-2.632051,1.633554
0,1.466669,93,152,498,498,-0.02569316,-0.01498362,-0.03093073,-1.468374,-3.095836,-1.664275,-0.01752815,0.01793368,0.05289309,-1.037297,-2.631932,1.63327
0,1.47778,93,152,498,498,-0.02673652,-0.01579481,-0.03221378,-1.468147,-3.095518,-1.664636,-0.02375956,0.01176275,0.0400562,-1.036868,-2.631811,1.633207
0,1.488891,83,172,498,496,-0.02886892,-0.01368385,-0.03181571,-1.467778,-3.09532,-1.664966,-0.02690251,0.01461843,0.04590002,-1.036606,-2.631,1.632319
0,1.500003,83,172,498,496,-0.02992211,-0.01367285,-0.03184205,-1.467567,-3.094994,-1.665364,-0.03178555,0.02015211,0.05707363,-1.036352,-2.629924,1.631223
0,1.511114,83,172,498,496,-0.02780691,-0.009476012,-0.03095263,-1.467191,-3.094981,-1.665646,-0.03382687,0.02900277,0.05919729,-1.036168,-2.628764,1.630443
0,1.522225,83,172,498,496,-0.0246422,-0.008043936,-0.02735934,-1.467098,-3.094827,-1.665918,-0.03597681,0.02645318,0.05637065,-1.035863,-2.62802,1.629773
0,1.533336,78,168,499,493,-0.0236407,-0.003698394,-0.02208295,-1.466775,-3.094803,-1.665985,-0.03030923,0.01413529,0.05653783,-1.0356,-2.627855,1.629114
0,1.544447,78,168,499,493,-0.02043263,-0.00244064,-0.02286995,-1.46669,-3.094632,-1.66623,-0.01459154,0.0001219101,0.05168061,-1.035641,-2.628038,1.628613
0,1.555558,78,168,499,493,-0.01834167,-0.0007810418,-0.02032002,-1.466337,-3.094641,-1.66636,-0.009755975,-0.01111958,0.03802415,-1.035432,-2.628352,1.628534
0,1.566669,78,168,499,493,-0.02158906,0.001476927,-0.01552729,-1.466027,-3.09464,-1.666405,-0.01151974,-0.01232015,0.03802769,-1.035166,-2.628178,1.628136
0,1.577781,78,168,499,493,-0.02272893,0.003513814,-0.00966638,-1.465596,-3.094666,-1.666387,-0.02171681,-0.002858222,0.03080114,-1.03485,-2.627653,1.627929
0,1.588892,75,145,499,498,-0.02379276,0.006651355,-0.009021749,-1.465352,-3.094834,-1.666626,-0.02354611,-0.0001066048,0.0313786,-1.034611,-2.627235,1.627507
0,1.600003,75,145,499,498,-0.01961689,0.006141478,-0.001455958,-1.465155,-3.094917,-1.66637,-0.01898742,0.02001441,0.03408768,-1.034953,-2.626311,1.626984
0,1.611114,75,145,499,498,-0.01541337,0.01046412,0.003868701,-1.464943,-3.095173,-1.666242,-0.006415922,0.01459284,0.03514562,-1.035076,-2.626203,1.626536
0,1.622225,75,145,499,498,-0.01326047,0.01589092,0.003953572,-1.464959,-3.095505,-1.666314,0.00811065,0.01003,0.03236334,-1.03548,-2.626312,1.626206
0,1.633336,71,183,498,495,-0.006883935,0.02295316,0.006619466,-1.46495,-3.096035,-1.666174,0.0173884,-0.01370101,0.02023104,-1.035437,-2.627325,1.626422
0,1.644447,71,183,498,495,-0.002632907,0.03105507,0.00948154,-1.464904,-3.096556,-1.666003,0.02031599,-0.02398238,0.009950798,-1.035431,-2.628064,1.626638
0,1.655559,71,183,498,495,-0.001582915,0.0347797,0.01245876,-1.464846,-3.09709,-1.665817,0.01293275,-0.02638771,0.003854946,-1.035237,-2.62833,1.626727
0,1.66667,71,183,498,495,-0.0004876619,0.03834786,0.01105385,-1.464801,-3.097629,-1.665743,0.0006582076,-0.009859998,0.001594352,-1.035124,-2.627883,1.626779
0,1.677781,71,183,498,495,0.003787761,0.03044241,0.00724482,-1.464954,-3.09773,-1.665771,-0.003128886,0.003566758,0.003858404,-1.035293,-2.627393,1.626642
0,1.688892,70,160,498,497,0.003750068,0.02144774,0.008602123,-1.464927,-3.097831,-1.665553,0.002951255,0.007957825,0.01002144,-1.035574,-2.62714,1.626293
0,1.700003,70,160,498,497,0.008025397,0.01644918,0.006492494,-1.465323,-3.097893,-1.665655,0.01597036,0.009573335,0.0140805,-1.036147,-2.627167,1.625901
0,1.711114,70,160,498,497,0.008047663,0.01689102,0.004411257,-1.465358,-3.098103,-1.665582,0.02375599,-0.002241138,0.008915068,-1.036323,-2.627761,1.625983
0,1.722225,70,160,498,497,0.01336307,0.01457688,0.005062298,-1.465755,-3.098219,-1.665584,0.02479968,-0.01160038,0.00203424,-1.036389,-2.628356,1.626217
0,1.733337,70,160,498,497,0.01765468,0.01731999,0.002427802,-1.466014,-3.098556,-1.665537,0.02079405,-0.01911403,-0.006135965,-1.036329,-2.62885,1.626595
0,1.744448,71,171,498,502,0.0197924,0.01753266,0.001410404,-1.466225,-3.098727,-1.665472,0.01577664,-0.01167409,-0.02064813,-1.036404,-2.629158,1.627305
0,1.755559,71,171,498,502,0.02087129,0.01254072,-0.0007133449,-1.466493,-3.098793,-1.665419,0.02409118,-0.004972687,-0.02257253,-1.036839,-2.629392,1.62756
0,1.76667,71,171,498,502,0.02087798,0.009633627,-0.002412632,-1.466637,-3.098791,-1.665478,0.02823487,0.006166339,-0.0176686,-1.037411,-2.629304,1.627604
0,1.777781,71,171,498,502,0.02410655,0.00799154,-0.004904807,-1.467182,-3.09884,-1.665605,0.03108394,0.009616243,-0.01336434,-1.037845,-2.629265,1.627566
0,1.788892,72,158,499,497,0.02733436,0.004271099,-0.007820602,-1.467608,-3.098895,-1.665635,0.03075467,0.01208812,-0.008544662,-1.038231,-2.629225,1.627502
0,1.800003,72,158,499,497,0.0326843,0.003681212,-0.01006417,-1.468094,-3.098959,-1.665794,0.02950068,0.01199212,-0.01423988,-1.038498,-2.629545,1.6279
0,1.811115,72,158,499,497,0.03373241,0.005778588,-0.009617272,-1.468328,-3.099096,-1.665906,0.02773636,0.01267741,-0.01943573,-1.038853,-2.629726,1.628308
0,1.822226,72,158,499,497,0.03908398,0.003939532,-0.01103736,-1.469067,-3.099059,-1.66608,0.02628688,0.01103929,-0.01609939,-1.039121,-2.629812,1.628374
0,1.833337,72,158,499,497,0.03372987,0.002245391,-0.00818051,-1.469319,-3.099166,-1.665998,0.02893498,0.008911825,-0.02142123,-1.039524,-2.630323,1.628852
0,1.844448,71,154,498,498,0.03372224,0.0007822992,-0.006314101,-1.469868,-3.099147,-1.666057,0.03344052,0.00788107,-0.02198413,-1.039978,-2.630662,1.629153
0,1.855559,71,154,498,498,0.03053092,0.001002068,-0.007392891,-1.470034,-3.099209,-1.66617,0.0374292,0.001862936,-0.0197518,-1.040361,-2.631253,1.629387
0,1.86667,71,154,498,498,0.03371075,0.003107733,-0.006922895,-1.470431,-3.09931,-1.66621,0.03883073,0.00555373,-0.01732797,-1.040861,-2.631427,1.629531
0,1.877781,71,154,498,498,0.03371886,0.003122109,-0.006926046,-1.470971,-3.099312,-1.666311,0.03650194,0.01486442,-0.01857986,-1.041381,-2.63127,1.62969
0,1.888893,73,166,498,498,0.03474094,0.006050189,-0.005226319,-1.471191,-3.09948,-1.66638,0.02976664,0.02512588,-0.01452203,-1.041833,-2.631074,1.629727
0,1.900004,73,166,498,498,0.03367718,0.003546161,-0.003589903,-1.471719,-3.099458,-1.666474,0.02650569,0.02812596,-0.01586669,-1.042211,-2.630946,1.629947
0,1.911115,73,166,498,498,0.03152819,0.006670963,-0.002967462,-1.472104,-3.099549,-1.666453,0.02731073,0.02691251,-0.01542293,-1.042641,-2.630974,1.630119
0,1.922226,73,166,498,498,0.03371884,0.001702859,-0.005064252,-1.472712,-3.099438,-1.666648,0.0312135,0.02095663,-0.01793757,-1.043101,-2.631288,1.630426
0,1.933337,73,166,498,498,0.03155691,-0.001241583,-0.001344512,-1.47293,-3.099433,-1.6666,0.03324997,0.01780635,-0.02228805,-1.043466,-2.631588,1.63081
0,1.944448,75,164,499,496,0.03053105,-0.001847919,-0.003660203,-1.473353,-3.09943,-1.666767,0.02887564,0.004934464,-0.03617635,-1.043502,-2.63238,1.631752
0,1.955559,75,164,499,496,0.02840386,-0.004160165,-0.003067386,-1.47354,-3.099284,-1.666775,0.03234434,0.005473556,-0.03573558,-1.043871,-2.632668,1.63219
0,1.966671,75,164,499,496,0.02735066,-0.005411688,-0.002252902,-1.473974,-3.099198,-1.666838,0.0348467,0.007544752,-0.02954777,-1.044346,-2.632849,1.632354
0,1.977782,75,164,499,496,0.02626158,-0.007103631,0.0006596906,-1.474207,-3.099079,-1.666687,0.02899106,0.01264961,-0.02084984,-1.0446,-2.632657,1.632368
0,1.988893,75,164,499,496,0.02522699,-0.00793513,-0.0006054568,-1.474592,-3.098969,-1.666716,0.02606886,0.01519795,-0.01650036,-1.0449,-2.632568,1.632418
0,2.000004,79,157,499,496,0.0262627,-0.007300217,0.001709152,-1.474916,-3.098948,-1.666625,0.01937446,0.01577373,-0.008310301,-1.045025,-2.632451,1.632309
0,2.011115,79,157,499,496,0.02304635,-0.005023239,0.001058109,-1.474957,-3.099049,-1.666542,0.0234894,0.003677057,-0.00989381,-1.045119,-2.633068,1.632568
0,2.022226,79,157,499,496,0.0219277,-0.001063573,0.002935962,-1.475158,-3.09918,-1.666472,0.03037972,-0.004882934,-0.01194679,-1.045431,-2.633705,1.632819
0,2.033337,79,157,499,496,0.0154771,0.005359769,0.003089755,-1.475063,-3.099467,-1.666395,0.03078766,-0.01137262,-0.01723266,-1.045546,-2.634272,1.633269
0,2.044448,79,195,499,496,0.01753759,0.01541368,0.001879601,-1.475302,-3.099945,-1.666462,0.03246699,-0.01982518,-0.02729537,-1.045714,-2.635176,1.633962
0,2.055559,79,195,499,496,0.01741815,0.02564473,0.005031575,-1.475441,-3.100563,-1.666274,0.02931537,-0.0111347,-0.02385845,-1.045961,-2.635482,1.634257
0,2.06667,79,195,499,496,0.0142115,0.02665921,0.005204354,-1.475488,-3.100785,-1.666245,0.01852327,-0.002398156,-0.01462686,-1.04599,-2.635249,1.634159
0,2.077781,79,195,499,496,0.01422728,0.02436703,0.005812075,-1.475843,-3.101031,-1.666298,0.008832287,0.00864334,0.003659538,-1.045991,-2.634503,1.633544
0,2.088892,79,195,499,496,0.01322966,0.01809385,0.004535668,-1.475951,-3.101072,-1.666278,0.005163484,0.002681868,0.01176323,-1.045887,-2.634404,1.633127
0,2.100003,76,156,499,505,0.01332274,0.008486611,0.003683182,-1.47617,-3.100877,-1.666333,0.004317734,-0.001857541,0.01125759,-1.045796,-2.63461,1.63317
0,2.111114,76,156,499,505,0.003827721,3.934426E-05,0.001894546,-1.475942,-3.100587,-1.666337,0.003853373,-0.01680237,-0.002181898,-1.045442,-2.635535,1.633731
0,2.122225,76,156,499,505,0.002821374,-0.002891016,0.0001995203,-1.476156,-3.100501,-1.666486,0.006643218,-0.01719781,-0.005550156,-1.045476,-2.63589,1.633922
0,2.133336,76,156,499,505,-0.000359155,-0.002503628,-0.001925238,-1.476012,-3.100435,-1.666552,0.002802252,-0.005523915,-0.0006613884,-1.045401,-2.635389,1.633733
0,2.144447,73,167,499,494,-0.00790334,0.004528371,0.0005049992,-1.475784,-3.100641,-1.666535,-0.002655455,0.00280238,0.003275885,-1.045372,-2.634987,1.633548
0,2.155558,73,167,499,494,-0.003680928,0.0076994,0.001184175,-1.475798,-3.100817,-1.666534,-0.0005857218,0.003548982,0.006594144,-1.045247,-2.634793,1.633313
0,2.166669,73,167,499,494,-0.006890221,0.009759388,0.001565237,-1.47579,-3.10095,-1.666572,0.003618585,-0.002824352,0.007446969,-1.045266,-2.634993,1.633203
0,2.17778,73,167,499,494,-0.01011194,0.01182556,0.001951771,-1.475471,-3.101174,-1.666595,0.00455269,-0.0101108,0.001663257,-1.045216,-2.635475,1.633405
0,2.188891,73,167,499,494,-0.01224069,0.01180594,0.001927912,-1.475263,-3.10122,-1.666615,0.00335753,-0.01419196,-0.006925751,-1.045094,-2.635887,1.63379
0,2.200002,73,156,498,497,-0.01014966,0.01474454,0.003627524,-1.475249,-3.101454,-1.666586,-0.0005782908,-0.004302442,-0.001564239,-1.045033,-2.63548,1.633693
0,2.211113,73,156,498,497,-0.01014291,0.01620958,0.001751229,-1.475058,-3.101582,-1.666682,-0.0001135147,0.002782588,0.003721917,-1.045058,-2.635026,1.633472
0,2.222224,73,156,498,497,-0.01012931,0.01495151,0.002574165,-1.475162,-3.101698,-1.666788,-0.005585437,0.005349762,0.01000644,-1.044946,-2.63464,1.633128
0,2.233335,73,156,498,497,-0.008003191,0.01748303,0.0009347799,-1.475075,-3.101971,-1.666858,-0.01118014,0.006151805,0.01437428,-1.044803,-2.634331,1.632863
0,2.244446,72,154,499,496,-0.007960429,0.009327837,0.003626244,-1.475047,-3.101872,-1.666772,-0.01093505,0.005763883,0.01294054,-1.044719,-2.634173,1.632741
0,2.255557,72,154,499,496,-0.01004773,0.0101604,-0.0005659275,-1.474878,-3.102013,-1.666808,-0.002763294,0.004939318,0.009020694,-1.044938,-2.634199,1.632671
0,2.266668,72,154,499,496,-0.0111036,0.01140459,-0.0014155,-1.474883,-3.102147,-1.666931,0.005844466,-0.002399329,0.002180834,-1.045083,-2.634624,1.632849
0,2.277779,72,154,499,496,-0.01218604,0.012443,-0.001210555,-1.474586,-3.102271,-1.666916,0.005097162,-0.003311745,-0.006394931,-1.04494,-2.634747,1.63321
0,2.28889,72,154,499,496,-0.01001552,0.01058245,-0.002660476,-1.474686,-3.102307,-1.667088,0.001363098,-0.003468083,-0.007778329,-1.044846,-2.634805,1.633363
0,2.300001,74,148,498,495,-0.01314983,0.007851037,-0.005417594,-1.474526,-3.102304,-1.667168,-0.01213678,0.01529775,0.01018116,-1.044754,-2.633558,1.632581
0,2.311112,74,148,498,495,-0.01526137,0.004499813,-0.005033528,-1.474248,-3.10231,-1.667198,-0.01137612,0.02590062,0.01932391,-1.04495,-2.632751,1.631986
0,2.322223,74,148,498,495,-0.009860425,-0.0002514228,-0.008124363,-1.474292,-3.10216,-1.667363,-0.01185763,0.0324577,0.01747997,-1.045147,-2.632128,1.631804
0,2.333334,74,148,498,495,-0.007704703,-0.007130931,-0.006251733,-1.474157,-3.101934,-1.667407,-0.006539787,0.02812812,0.009270553,-1.045139,-2.63192,1.631942
0,2.344445,74,148,498,495,-0.009725914,-0.01381276,-0.01090404,-1.47403,-3.101531,-1.667602,-0.004051999,0.02238454,0.007282338,-1.045202,-2.631825,1.631898
0,2.355556,71,144,498,496,-0.00649852,-0.01691192,-0.01150256,-1.474039,-3.101341,-1.667643,0.001761629,0.01543768,0.003807723,-1.045315,-2.63188,1.631966
0,2.366668,71,144,498,496,-0.004308527,-0.02085452,-0.01337832,-1.474091,-3.10096,-1.667815,0.002391001,0.01249612,-3.862428E-05,-1.045382,-2.631912,1.632081
0,2.377779,71,144,498,496,-0.003240566,-0.01811136,-0.01606585,-1.473998,-3.100854,-1.667941,-0.001671926,0.0206385,0.001033987,-1.045486,-2.631398,1.632002
0,2.38889,71,144,498,496,-0.001081485,-0.01492155,-0.02083645,-1.473962,-3.100785,-1.66829,-0.005236713,0.0358559,0.007404375,-1.045652,-2.63047,1.631667
0,2.400001,78,147,500,498,-0.001108922,-0.01430611,-0.01853742,-1.473993,-3.100607,-1.668418,-0.01028054,0.04556879,0.01184386,-1.045812,-2.629554,1.631345
0,2.411112,78,147,500,498,0.002045198,-0.01387498,-0.01513818,-1.474129,-3.100602,-1.668284,-0.01266438,0.05127461,0.01860696,-1.045971,-2.628691,1.63085
0,2.422223,78,147,500,498,0.005223621,-0.01049904,-0.01550408,-1.474304,-3.100574,-1.668508,-0.008385275,0.05063027,0.01949819,-1.046263,-2.628087,1.630534
0,2.433334,78,147,500,498,0.004130392,-0.01093936,-0.01342055,-1.474231,-3.10043,-1.668454,0.001056612,0.03022623,0.009186037,-1.046341,-2.628558,1.630748
0,2.444445,78,147,500,498,0.001051343,-0.01805721,-0.01601076,-1.474383,-3.099971,-1.668751,-0.0006154217,0.02297805,0.002949142,-1.046334,-2.628541,1.630892
0,2.455556,88,130,499,498,0.003195152,-0.0215937,-0.01454036,-1.474438,-3.099627,-1.668828,0.002995317,0.01349701,-0.003367556,-1.046391,-2.628663,1.631056
0,2.466667,88,130,499,498,0.003248132,-0.0272413,-0.01353346,-1.474558,-3.099121,-1.668995,0.006828008,0.009647233,0.002272319,-1.046519,-2.628566,1.630812
0,2.477778,88,130,499,498,0.004308974,-0.02618431,-0.01329858,-1.474702,-3.098901,-1.669032,0.007212426,0.01495395,0.005649657,-1.046821,-2.628276,1.630551
0,2.488889,88,130,499,498,0.006451701,-0.02594699,-0.01430567,-1.474832,-3.098659,-1.669071,-0.0004954496,0.01900129,0.007207766,-1.046915,-2.627757,1.630407
0,2.5,92,140,500,499,0.004197925,-0.01679303,-0.011363,-1.474874,-3.098672,-1.669161,-0.0004480816,0.02475803,0.004868506,-1.047116,-2.627372,1.630388
0,2.511111,92,140,500,499,0.006231702,-0.01072175,-0.008990457,-1.474945,-3.098838,-1.668981,-0.0009146687,0.02946777,0.01063294,-1.047367,-2.626818,1.630013
0,2.522222,92,140,500,499,0.00191106,-0.008067383,-0.006312675,-1.47489,-3.09876,-1.668987,0.002592394,0.02999103,0.01345166,-1.047634,-2.626455,1.629756
0,2.533333,92,140,500,499,0.006094843,-0.004273622,-0.003312521,-1.47501,-3.098899,-1.668889,0.004055537,0.02187584,0.01193757,-1.047706,-2.626323,1.629642
0,2.544444,92,140,500,499,0.006090306,-0.004486284,-0.002270529,-1.475163,-3.098851,-1.668929,0.006682981,0.01392807,0.01136389,-1.047796,-2.626393,1.629516
0,2.555555,96,149,499,502,0.004989848,-0.002409646,-0.00185314,-1.47505,-3.098907,-1.668925,0.002725791,0.006301655,0.008016882,-1.047675,-2.626341,1.629497
0,2.566666,96,149,499,502,0.0007327858,-0.0009726871,-0.003777051,-1.474915,-3.099039,-1.669022,0.001216179,0.006573773,0.001370462,-1.047528,-2.626216,1.629619
0,2.577777,96,149,499,502,-0.001374025,-0.001826319,-0.005060069,-1.474863,-3.098921,-1.669104,-0.001894987,0.01136111,0.001925633,-1.047579,-2.625923,1.62957
0,2.588888,96,149,499,502,-0.0002698805,-0.004943317,-0.005683593,-1.47488,-3.09884,-1.669088,-0.00823658,0.01337785,0.008217434,-1.047572,-2.625529,1.629266
0,2.599999,98,143,500,496,-0.0002551158,-0.00620249,-0.004859806,-1.475022,-3.09873,-1.669193,-0.01464578,0.01543223,0.009752082,-1.047398,-2.625093,1.629082
0,2.61111,98,143,500,496,-0.002329159,-0.00766129,-0.00843215,-1.474914,-3.098706,-1.669177,-0.01032627,0.01657018,0.007800895,-1.047382,-2.624901,1.629072
0,2.622221,98,143,500,496,-0.00227092,-0.01478291,-0.005550494,-1.475103,-3.098363,-1.669255,-0.007884253,0.01870078,0.009219103,-1.047471,-2.62458,1.628907
0,2.633332,98,143,500,496,-0.005414864,-0.01751231,-0.008327824,-1.474836,-3.098075,-1.669425,-0.005174633,0.02042216,0.01158436,-1.047537,-2.624205,1.628668
0,2.644443,98,143,500,496,-0.00321879,-0.02040992,-0.009992977,-1.474999,-3.097711,-1.669596,-0.001474533,0.01664377,0.007689065,-1.047648,-2.624172,1.628677
0,2.655554,99,167,500,496,-0.007481396,-0.01896255,-0.01193408,-1.474686,-3.097696,-1.669846,-0.00441105,0.02109735,0.002054004,-1.047648,-2.623666,1.628717
0,2.666665,99,167,500,496,-0.007440317,-0.0197866,-0.01319567,-1.474788,-3.097481,-1.670032,-0.01478327,0.01945422,0.003140458,-1.047253,-2.623191,1.628555
0,2.677776,99,167,500,496,-0.009548107,-0.02232952,-0.01157467,-1.474803,-3.097107,-1.670169,-0.01878476,0.0236619,0.003713038,-1.047178,-2.622677,1.62847
0,2.688887,99,167,500,496,-0.01069352,-0.02236938,-0.006152193,-1.474597,-3.096918,-1.670001,-0.02244095,0.0274213,0.01001004,-1.047089,-2.621913,1.628029
0,2.699998,99,167,500,496,-0.0128926,-0.01843453,-0.004276252,-1.474424,-3.096786,-1.669996,-0.01884073,0.02579161,0.009472656,-1.0471,-2.621593,1.627897
0,2.711109,99,165,499,496,-0.009846309,-0.01069849,0.0006231446,-1.47437,-3.096946,-1.669794,-0.009273564,0.01104043,0.006329686,-1.047223,-2.622005,1.628039
0,2.72222,99,165,499,496,-0.009915702,-0.004442282,0.001908858,-1.474429,-3.097051,-1.669861,-0.004421208,0.00350471,0.0004729406,-1.047233,-2.622246,1.628218
0,2.733331,99,165,499,496,-0.007866997,0.002058171,0.002182139,-1.474262,-3.097238,-1.669898,-0.00211571,0.003872388,-3.122168E-05,-1.047367,-2.622199,1.628222
0,2.744442,99,165,499,496,-0.007920794,0.006015088,0.004082348,-1.47434,-3.097408,-1.669872,0.002234274,0.0010598,-0.002497335,-1.047457,-2.622425,1.628359
0,2.755553,97,155,499,498,-0.005753071,0.005647401,0.0007612372,-1.474241,-3.097497,-1.670005,0.001587265,0.004018706,-0.001028994,-1.047444,-2.622322,1.628266
0,2.766664,97,155,499,498,-0.005752602,0.00269595,0.004492643,-1.474403,-3.097453,-1.669943,-0.0007234169,0.01153577,0.002884523,-1.04755,-2.62191,1.628082
0,2.777775,97,155,499,498,-0.001429422,-0.00121068,0.002634786,-1.474459,-3.097378,-1.670044,-0.007220708,0.01967577,0.01067135,-1.047481,-2.621145,1.627774
0,2.788886,97,155,499,498,-0.002418291,-0.006219948,0.0005032715,-1.474373,-3.097188,-1.670007,-0.009264966,0.0149803,0.009222968,-1.047371,-2.620877,1.62774
0,2.799997,97,155,499,498,-0.005583385,-0.01107455,0.002728279,-1.474354,-3.096939,-1.66996,-0.01067119,0.01311656,-0.0007854749,-1.047271,-2.620836,1.628041
0,2.811108,98,164,499,497,-0.007584136,-0.01753829,-0.002988324,-1.47415,-3.096463,-1.670122,-0.002948027,0.01090841,-0.009968683,-1.047518,-2.621023,1.628443
0,2.822219,98,164,499,497,-0.006585239,-0.01505112,0.0008034087,-1.474227,-3.096315,-1.670021,0.00979508,0.004975607,-0.01018757,-1.047872,-2.621398,1.628593
0,2.83333,98,164,499,497,-0.005551456,-0.01043409,-0.0004142036,-1.474223,-3.096329,-1.670136,0.01446629,-0.00221964,-0.009835023,-1.047971,-2.621688,1.628722
0,2.844441,98,164,499,497,-0.004566247,-0.001429471,-0.001802852,-1.474175,-3.096534,-1.670214,0.01478998,-0.006602382,-0.007016917,-1.048042,-2.621953,1.628743
0,2.855552,94,164,499,499,-0.004693833,0.00270734,0.004491587,-1.473989,-3.096719,-1.670013,0.0009340718,-0.008747383,-0.008771811,-1.047637,-2.621907,1.628926
0,2.866663,94,164,499,499,-0.0004969691,0.009224766,0.00479001,-1.474259,-3.097,-1.670059,-0.004009387,-0.00694345,-0.002976927,-1.047463,-2.621757,1.628778
0,2.877774,94,164,499,499,0.00804197,0.008280348,0.004668308,-1.474653,-3.097087,-1.670086,-0.004621846,-0.004000965,0.0008715231,-1.047472,-2.621659,1.628624
0,2.888885,94,164,499,499,0.007011979,0.005142159,0.00401006,-1.474574,-3.09712,-1.67007,0.002646309,-0.001528339,-0.0001514421,-1.047554,-2.621705,1.628659
0,2.899997,94,164,499,499,0.006026688,-8.576093E-05,0.0029149,-1.474733,-3.096955,-1.670103,0.01043845,0.000147149,-0.001663457,-1.047866,-2.621858,1.62872
0,2.911108,88,142,499,500,0.007077848,-0.000282971,0.003968631,-1.474788,-3.097063,-1.670077,0.0090333,0.004294909,0.001725276,-1.047893,-2.621621,1.628577
0,2.922219,88,142,499,500,0.008262928,-0.008831885,0.003297179,-1.47508,-3.096683,-1.670136,0.005557596,0.0116411,0.004693075,-1.048035,-2.621239,1.628409
0,2.93333,88,142,499,500,0.008246113,-0.005054636,0.000815708,-1.475139,-3.096761,-1.670165,0.007065283,0.01135724,0.01134273,-1.048248,-2.620998,1.628156
0,2.944441,88,142,499,500,0.007217928,-0.0056837,-0.001499295,-1.475214,-3.096583,-1.67021,0.009367185,0.01171724,0.01084197,-1.048433,-2.620975,1.627935
0,2.955552,88,142,499,500,0.008344883,-0.009842233,-0.002345527,-1.475263,-3.096394,-1.670162,0.006448001,0.008284661,0.001791454,-1.048394,-2.621116,1.62825
0,2.966663,82,137,498,497,0.009428276,-0.01087024,-0.002546626,-1.475537,-3.096283,-1.670242,-0.001123286,-0.001636905,-0.003917048,-1.048104,-2.621351,1.628461
0,2.977774,82,137,498,497,0.008414625,-0.0138023,-0.004242566,-1.47554,-3.096019,-1.670245,-0.001123071,-0.001637158,-0.003916988,-1.048091,-2.621407,1.628535
0,2.988885,82,137,498,497,0.005311955,-0.02010434,-0.005574271,-1.475544,-3.095537,-1.670349,0.003538078,0.002983793,0.002737162,-1.048229,-2.621117,1.628241
0,2.999996,82,137,498,497,0.006337977,-0.01821951,-0.004085802,-1.475666,-3.095427,-1.670333,0.008933587,0.006436536,0.005082113,-1.048522,-2.621026,1.628092
0,3.011107,77,149,499,497,0.006307761,-0.01591409,-0.004700752,-1.475611,-3.095346,-1.670396,0.01113112,0.008947851,0.007936839,-1.048712,-2.62079,1.627899
0,3.022218,77,149,499,497,0.005158198,-0.00841013,-0.004258241,-1.475824,-3.095424,-1.670535,0.009553861,0.007423383,0.004131305,-1.048806,-2.62079,1.62795
0,3.033329,77,149,499,497,0.00519214,-0.009025726,-0.006551301,-1.475856,-3.095239,-1.670541,0.003510379,0.01088984,0.003762627,-1.048867,-2.620574,1.627852
0,3.04444,77,149,499,497,0.004059223,-0.003823688,-0.005495954,-1.476049,-3.095282,-1.670672,0.002060784,0.01508065,0.002385513,-1.048998,-2.620327,1.627843
0,3.055551,77,149,499,497,0.006120118,0.0001577273,-0.003566119,-1.47625,-3.09533,-1.670627,0.007013099,0.003511768,0.003178605,-1.049091,-2.620729,1.62783
0,3.066662,74,126,498,496,0.003986382,0.002861458,-0.006293006,-1.476228,-3.095396,-1.670786,0.01256762,-0.003116925,0.003532663,-1.049234,-2.621048,1.627789
0,3.077773,74,126,498,496,0.00291598,0.00683262,-0.009829513,-1.476323,-3.095502,-1.670893,0.008738032,-0.001094363,0.005501851,-1.049324,-2.621024,1.627628
0,3.088884,74,126,498,496,0.001687931,0.0174693,-0.008734018,-1.476233,-3.095922,-1.670877,0.004965563,0.006690471,0.005139754,-1.049271,-2.620653,1.627473
0,3.099995,74,126,498,496,0.002769937,0.01643823,-0.008936854,-1.476329,-3.096051,-1.671082,0.005328882,0.01596995,0.006641236,-1.049552,-2.620216,1.62736
0,3.111106,73,133,499,496,0.002877818,0.01186642,-0.01313427,-1.476272,-3.095924,-1.671257,0.006784759,0.01966303,0.01142212,-1.049757,-2.61977,1.627029
0,3.122217,73,133,499,496,-0.001333232,0.007206118,-0.01195755,-1.476173,-3.095869,-1.671332,0.001407305,0.02015148,0.01197078,-1.049777,-2.619406,1.626831
0,3.133328,73,133,499,496,-0.0002121748,0.004310959,-0.01363134,-1.47612,-3.095835,-1.671492,0.001031565,0.01482304,0.01097721,-1.049758,-2.619375,1.626753
0,3.144439,73,133,499,496,-0.00112224,-0.002354127,-0.0182838,-1.476141,-3.095558,-1.671811,-0.008348563,0.01164914,0.008687302,-1.049471,-2.619161,1.626715
0,3.15555,73,133,499,496,-0.003262262,-0.005334263,-0.01456353,-1.476004,-3.095407,-1.671738,-0.004895934,0.008252576,0.006226019,-1.049666,-2.619148,1.626763
0,3.166661,75,160,500,493,-0.0032618,-0.00681143,-0.01269482,-1.476025,-3.095213,-1.671817,0.0004734686,0.01566884,0.006697997,-1.04999,-2.618845,1.62664
0,3.177772,75,160,500,493,-0.005379861,-0.006625091,-0.01376777,-1.475932,-3.095073,-1.67199,-0.0009866655,0.01197834,0.001918809,-1.050049,-2.618616,1.626704
0,3.188883,75,160,500,493,-0.005440832,-0.004971488,-0.01124349,-1.475805,-3.095042,-1.671932,-0.001673252,0.01103332,-0.001890583,-1.049966,-2.618657,1.626807
0,3.199994,75,160,500,493,-0.004518213,0.0004344459,-0.00576148,-1.475771,-3.095172,-1.671889,-0.0007771351,0.01160998,-0.001897615,-1.050033,-2.618555,1.626842
0,3.211105,83,136,499,496,-0.006723357,0.006057677,-0.006786982,-1.475476,-3.095375,-1.671956,-0.001016711,0.0159548,4.595565E-05,-1.050244,-2.618227,1.626722
0,3.222216,83,136,499,496,-0.008870171,0.006852198,-0.005558176,-1.475458,-3.095423,-1.672072,-0.002627335,0.01445057,-0.00614398,-1.050249,-2.618176,1.626954
0,3.233327,83,136,499,496,-0.008958707,0.005119431,0.002784168,-1.475222,-3.095409,-1.671825,-0.006562984,0.006798799,-0.004721254,-1.050012,-2.618141,1.62689
0,3.244438,83,136,499,496,-0.003664508,-0.003876266,0.0151141,-1.475356,-3.095218,-1.671269,-0.007980591,-0.0008705319,-0.007626209,-1.049786,-2.618346,1.627087
0,3.255549,83,136,499,496,-0.006889705,-0.003084899,0.01634025,-1.475137,-3.095258,-1.670969,-0.004002234,-0.001141218,-0.007677208,-1.049885,-2.618421,1.627158
0,3.26666,87,159,500,499,-0.004741413,-0.0001091145,0.01262268,-1.475272,-3.095319,-1.670981,0.003154247,-0.004414355,-0.01112359,-1.050026,-2.618767,1.627405
0,3.277771,87,159,500,499,-0.003616584,0.002669443,0.00450976,-1.475179,-3.09535,-1.671134,0.002797072,-0.00580468,-0.009219067,-1.05,-2.618805,1.627358
0,3.288882,87,159,500,499,-0.003680911,0.0053665,0.007248289,-1.475128,-3.095505,-1.670882,0.0002687639,-0.009727856,-0.007788288,-1.049844,-2.618983,1.627361
0,3.299993,87,159,500,499,-0.008064318,0.00945286,0.01349088,-1.47491,-3.095721,-1.670563,-0.003436279,-0.009866168,-0.006792895,-1.049648,-2.619034,1.627428
0,3.311104,83,143,499,504,-0.005893719,0.009089183,0.01017769,-1.474793,-3.095902,-1.670455,-0.0001559076,-0.008988759,-0.0001551458,-1.04968,-2.619048,1.62723
0,3.322215,83,143,499,504,-0.001672992,0.009536464,0.01357023,-1.474951,-3.096014,-1.670255,-1.226668E-05,-0.007226323,0.001763088,-1.049656,-2.619045,1.627154
0,3.333326,83,143,499,504,-0.001661392,0.008497844,0.01335975,-1.474817,-3.096151,-1.670025,0.002280236,-0.002916863,0.001768185,-1.049775,-2.619089,1.627221
0,3.344437,83,143,499,504,-0.000519827,0.006025724,0.00959666,-1.47489,-3.096146,-1.670028,-0.001384967,-0.005168093,-0.005352669,-1.049605,-2.619272,1.627523
0,3.355548,83,143,499,504,-0.0004652347,0.001854909,0.008741152,-1.474833,-3.096092,-1.66985,0.00185771,-0.00820781,-0.00398691,-1.049649,-2.619587,1.627569
0,3.366659,82,149,500,497,0.000633419,0.00103864,0.007492238,-1.475008,-3.096059,-1.669843,0.001121573,-0.003088627,0.000827715,-1.049695,-2.619414,1.6274
0,3.37777,82,149,500,497,0.0007418416,-0.003311941,0.002253613,-1.474949,-3.095976,-1.6698,0.004190328,1.7324E-05,0.001291795,-1.049843,-2.619378,1.627354
0,3.388881,82,149,500,497,0.001835415,-0.002650795,-0.0008591138,-1.474968,-3.096033,-1.669825,0.003768331,0.002617196,-0.001060237,-1.049942,-2.619309,1.627366
0,3.399992,82,149,500,497,0.001806062,-0.003510899,0.003308897,-1.475153,-3.09598,-1.669758,0.005675253,0.005552837,-0.001536329,-1.05012,-2.619245,1.627394
0,3.411103,82,149,500,497,0.005034332,-0.001355808,-0.001643018,-1.475229,-3.096039,-1.669769,0.001604997,0.007970194,0.001866439,-1.050099,-2.619103,1.62726
0,3.422215,86,158,499,488,0.006157559,-0.002996602,-0.004140385,-1.475443,-3.096004,-1.669792,0.001634788,0.007950792,0.004248607,-1.05016,-2.618963,1.62713
0,3.433326,86,158,499,488,0.006133443,0.0005638742,-0.005583935,-1.475506,-3.096083,-1.669894,0.00295794,0.001979111,0.006089575,-1.050109,-2.618997,1.627023
0,3.444437,86,158,499,488,0.003930227,0.00428364,-0.002668454,-1.475594,-3.096228,-1.66989,0.009600624,-0.0004971623,0.003132558,-1.050316,-2.619247,1.627081
0,3.455548,86,158,499,488,0.001803776,0.004476637,-0.003729774,-1.475464,-3.096284,-1.669863,0.01731732,-0.0006526615,0.004471361,-1.050787,-2.61938,1.627041
0,3.466659,87,158,499,496,0.00604818,0.007046881,-0.00532955,-1.475524,-3.096468,-1.669872,0.01477439,-0.0006204396,0.006406885,-1.050868,-2.619382,1.626917
0,3.47777,87,158,499,496,0.006042176,0.008306022,-0.006158068,-1.475576,-3.096578,-1.669973,0.01564473,-2.807844E-05,0.004019611,-1.051067,-2.619481,1.626955
0,3.488881,87,158,499,496,0.01241226,0.0109041,-0.00774347,-1.475587,-3.096797,-1.670101,0.008428738,0.005389952,0.01319626,-1.051209,-2.619132,1.626665
0,3.499992,87,158,499,496,0.0081344,0.01189863,-0.007577928,-1.47569,-3.096915,-1.670269,0.004334847,0.007836035,0.01421565,-1.05116,-2.618743,1.626286
0,3.511103,87,158,499,496,0.009272946,0.009421476,-0.01133338,-1.47578,-3.096838,-1.670403,0.003387362,0.01334449,0.02046258,-1.051404,-2.618414,1.62589
0,3.522214,88,164,500,493,0.005087734,0.004148198,-0.01245232,-1.475719,-3.096673,-1.670463,0.00339287,0.01334095,0.02046398,-1.051504,-2.61818,1.625619
0,3.533325,88,164,500,493,0.00301229,0.001204948,-0.01416693,-1.475679,-3.096513,-1.670655,0.003398372,0.0133374,0.02046538,-1.051604,-2.617947,1.625349
0,3.544436,88,164,500,493,0.006385367,-0.01023103,-0.01648954,-1.475879,-3.096036,-1.670819,2.438575E-05,0.01858013,0.01532126,-1.051747,-2.617867,1.624904
0,3.555547,88,164,500,493,0.003324058,-0.0173521,-0.01909079,-1.475903,-3.095615,-1.671185,-0.002267383,0.02218494,0.01633205,-1.051878,-2.617377,1.624748
0,3.566658,89,144,499,497,0.003490254,-0.02799661,-0.02020327,-1.476006,-3.094963,-1.671374,0.001209877,0.02269659,0.01677164,-1.052091,-2.617085,1.624508
0,3.577769,89,144,499,497,-0.003966979,-0.0280885,-0.02031004,-1.475766,-3.094597,-1.671602,0.0019088,0.02363395,0.02058042,-1.052271,-2.616839,1.624247
0,3.58888,89,144,499,497,-0.005082784,-0.02622918,-0.01885452,-1.475625,-3.094285,-1.671744,0.006764282,0.0239273,0.01814253,-1.052514,-2.616817,1.624045
0,3.599991,89,144,499,497,-0.00310677,-0.01555448,-0.01771233,-1.475668,-3.094283,-1.671945,0.01292734,0.02219464,0.01805385,-1.052883,-2.616711,1.623831
0,3.611102,89,144,499,497,-0.001191999,-0.001750609,-0.01591708,-1.475656,-3.094517,-1.672112,0.01041671,0.01219705,0.01323579,-1.052828,-2.617003,1.623862
0,3.622213,87,158,499,498,0.0007605627,0.007232853,-0.01185502,-1.475676,-3.094829,-1.672182,-0.001422759,0.0109236,0.01003055,-1.052625,-2.61674,1.623809
0,3.633324,87,158,499,498,0.002761209,0.01307635,-0.008442126,-1.475688,-3.094916,-1.672194,-0.003481084,0.002256052,0.01046035,-1.052415,-2.616855,1.623612
0,3.644435,87,158,499,498,0.004911355,0.009327133,-0.005935377,-1.475768,-3.094915,-1.672176,0.00242449,-0.01096779,0.01265376,-1.052348,-2.617296,1.623409
0,3.655546,87,158,499,498,0.005997937,0.01103883,-0.008842176,-1.476058,-3.095009,-1.672497,0.01520206,-0.01521492,0.009608981,-1.052686,-2.617957,1.623395
0,3.666657,94,156,500,496,0.002801463,0.009515376,-0.0070122,-1.475993,-3.095058,-1.672526,0.01481864,-0.004710073,0.00827791,-1.052892,-2.617739,1.623261
0,3.677768,94,156,500,496,0.002739998,0.0138994,-0.007188688,-1.476054,-3.095251,-1.672642,0.009225039,0.008080963,0.009408636,-1.053103,-2.617271,1.623035
0,3.688879,94,156,500,496,0.004763541,0.01892312,-0.00503289,-1.476059,-3.095503,-1.672637,-0.002533972,0.0186603,0.0101188,-1.053044,-2.616591,1.622848
0,3.69999,94,156,500,496,0.002508594,0.02766785,-0.005413972,-1.476121,-3.095999,-1.672828,-0.007891018,0.02313988,0.01117972,-1.053013,-2.616043,1.622653
0,3.711101,94,156,500,496,-0.001805288,0.02630343,0.0007927375,-1.475938,-3.096284,-1.672681,0.001211394,0.02061103,0.001506938,-1.053196,-2.616403,1.623051
0,3.722212,102,146,499,499,-0.003888026,0.02588039,-0.00257298,-1.475821,-3.096521,-1.672835,0.01003575,0.006613763,-0.008245629,-1.053378,-2.617073,1.623498
0,3.733323,102,146,499,499,-0.0005599523,0.01441272,0.0005115603,-1.47591,-3.096375,-1.672675,0.008106823,-0.006325161,-0.01690026,-1.053142,-2.617522,1.623891
0,3.744434,102,146,499,499,-0.0004306008,0.005636624,0.0008615532,-1.475955,-3.096214,-1.672632,0.004362727,-0.01037472,-0.01879383,-1.052991,-2.617857,1.624214
0,3.755545,102,146,499,499,0.001827656,-0.003107487,0.001244985,-1.476077,-3.096004,-1.672533,0.000412425,-0.002182199,-0.01773143,-1.052928,-2.617831,1.62436
0,3.766656,102,146,499,499,0.004095697,-0.01037367,-0.0002463276,-1.476306,-3.095698,-1.672598,-2.774363E-05,0.002534148,-0.01197247,-1.052989,-2.61768,1.624331
0,3.777767,101,151,500,496,0.001943918,-0.01231613,0.003687171,-1.476307,-3.095568,-1.672385,-0.00449619,0.007578619,-0.01092924,-1.052994,-2.617464,1.624384
0,3.788878,101,151,500,496,0.0017672,-0.003140936,0.006677803,-1.476272,-3.09588,-1.672243,-0.005296712,0.008802235,-0.01377174,-1.053003,-2.617417,1.624631
0,3.799989,101,151,500,496,-0.001595248,0.004508298,0.01149204,-1.476251,-3.096174,-1.672044,-0.007531296,-0.001614764,-0.01763725,-1.052689,-2.617936,1.625062
0,3.8111,101,151,500,496,-0.001741119,0.00842905,0.01882822,-1.476194,-3.096358,-1.671658,-0.008925667,0.002562072,-0.01663852,-1.052695,-2.617832,1.625212
0,3.822211,96,151,500,494,-0.0008125287,0.01532088,0.02243253,-1.476171,-3.096777,-1.671364,-0.008814752,-0.003569424,-0.01811362,-1.052506,-2.618108,1.625516
0,3.833322,96,151,500,494,0.0001704786,0.01908592,0.02538782,-1.476171,-3.097144,-1.671042,0.0005581714,-0.01625234,-0.01783234,-1.052466,-2.618867,1.625819
0,3.844433,96,151,500,494,0.0001984313,0.0153218,0.02786915,-1.476126,-3.09728,-1.67062,0.00242939,-0.02515673,-0.02457885,-1.052289,-2.619602,1.626371
0,3.855544,96,151,500,494,-0.0008603483,0.01384427,0.02972943,-1.476095,-3.097414,-1.670168,-0.001605598,-0.02088231,-0.0311674,-1.052163,-2.619893,1.626891
0,3.866655,96,151,500,494,0.002404628,0.006997322,0.03161016,-1.476215,-3.097379,-1.669758,-0.004147345,-0.0129387,-0.02822864,-1.052051,-2.619904,1.627152
0,3.877766,92,139,500,499,-0.0006515943,-0.002431389,0.02965238,-1.476108,-3.097082,-1.669428,-0.002469713,-0.009622909,-0.02727058,-1.052064,-2.620076,1.627482
0,3.888877,92,139,500,499,0.001530012,-0.008038792,0.03070021,-1.47615,-3.09694,-1.669064,-0.0002329499,-0.01108299,-0.0225379,-1.052041,-2.620315,1.627626
0,3.899988,92,139,500,499,0.0004884191,-0.008875034,0.02943297,-1.476118,-3.096891,-1.668792,0.002002345,-0.0243923,-0.02168779,-1.051858,-2.621181,1.627936
0,3.911099,92,139,500,499,0.0004751813,-0.005098999,0.02694082,-1.476129,-3.096973,-1.668563,-0.002317682,-0.02550674,-0.01974337,-1.051708,-2.621526,1.628253
0,3.92221,87,154,499,496,0.001500987,-0.0004830381,0.0257174,-1.4761,-3.097095,-1.668247,-0.009382803,-0.01647666,-0.01866323,-1.051447,-2.621426,1.628484
0,3.933321,87,154,499,496,0.003545877,0.001626015,0.03159803,-1.476191,-3.097257,-1.667727,-0.008828871,-0.01334605,-0.01388502,-1.051412,-2.621404,1.628495
0,3.944432,87,154,499,496,0.0002764985,0.007864676,0.03282781,-1.476067,-3.097585,-1.667357,-0.002430784,-0.01148532,-0.01489277,-1.051522,-2.621644,1.628708
0,3.955544,87,154,499,496,0.001220111,0.0183273,0.03494784,-1.475982,-3.09813,-1.666947,-0.0007647946,-0.01605841,-0.01731525,-1.051377,-2.622134,1.629012
0,3.966655,87,154,499,496,0.0002062507,0.01665774,0.032422,-1.475932,-3.098304,-1.666684,-0.000161469,-0.01901102,-0.02352586,-1.051244,-2.622666,1.62956
0,3.977766,90,153,499,502,-0.004036296,0.01432821,0.03299464,-1.475667,-3.098436,-1.66638,-0.005824633,-0.01811626,-0.02632029,-1.050902,-2.623012,1.630015
0,3.988877,90,153,499,502,-0.003913959,0.006613429,0.02817501,-1.475646,-3.098341,-1.666229,-0.007346685,-0.007842881,-0.01910586,-1.050838,-2.622891,1.630044
0,3.999988,90,153,499,502,-0.0005158894,-0.007127449,0.0210908,-1.475836,-3.097966,-1.666144,-0.01170837,0.002885533,-0.01328645,-1.050758,-2.622478,1.630018
0,4.011099,90,153,499,502,0.002832786,-0.02046092,0.01735289,-1.475942,-3.097452,-1.666014,-0.01738414,0.007718608,-0.01320039,-1.050506,-2.622288,1.630211
0.3333333,4.02221,90,153,499,502,0.001869812,-0.02881909,0.01566718,-1.476127,-3.097004,-1.665872,-0.01621459,0.01183543,-0.009378576,-1.050505,-2.621992,1.630174
0.6666667,4.033321,89,155,500,496,-0.002403246,-0.02760023,0.0147827,-1.475961,-3.096756,-1.665722,-0.01969222,0.007352781,-0.01269164,-1.050177,-2.621939,1.630337
1,4.044433,89,155,500,496,-0.002354078,-0.03407218,0.01457898,-1.475976,-3.096265,-1.665495,-0.03372568,0.001599323,-0.008746991,-1.049434,-2.621688,1.630357
1.333333,4.055544,89,155,500,496,-0.006665753,-0.03096376,0.01516263,-1.475751,-3.09614,-1.665243,-0.03510835,0.001787014,-0.0058662,-1.049059,-2.621505,1.630386
1.666667,4.066655,89,155,500,496,-0.007741531,-0.03347364,0.01682792,-1.475674,-3.095749,-1.664964,-0.03943985,0.0006356165,-0.003907504,-1.048576,-2.621226,1.630362
2,4.077766,89,169,499,498,-0.01205644,-0.02994809,0.02076197,-1.475768,-3.09551,-1.664618,-0.03995411,0.001420204,-0.003415124,-1.048283,-2.620964,1.630414
2.333333,4.088878,89,169,499,498,-0.01531646,-0.02599207,0.02260701,-1.4755,-3.095343,-1.664319,-0.03992606,-0.002552267,-0.003911955,-1.047834,-2.620893,1.630489
2.666667,4.099989,89,169,499,498,-0.01641461,-0.02431675,0.02509789,-1.475472,-3.095167,-1.664093,-0.05053368,9.598956E-05,0.001501724,-1.047103,-2.620325,1.6303
3,4.1111,89,169,499,498,-0.01756486,-0.01845799,0.02842971,-1.475197,-3.095149,-1.663686,-0.05006447,0.001406517,0.009155734,-1.046653,-2.619746,1.629856
3.333333,4.122211,89,169,499,498,-0.01768004,-0.01215811,0.03511864,-1.47496,-3.095282,-1.663124,-0.04625992,0.005431984,0.01821653,-1.046375,-2.619132,1.629292
3.666666,4.133323,90,136,500,497,-0.01879572,-0.01192241,0.03950273,-1.474778,-3.095197,-1.662534,-0.03574893,0.01463361,0.0143587,-1.046445,-2.618706,1.629172
4,4.144434,90,136,500,497,-0.01991144,-0.007084468,0.04262199,-1.474542,-3.095411,-1.66201,-0.02696946,0.006890368,0.003685841,-1.046328,-2.618954,1.62944
4.333333,4.155545,90,136,500,497,-0.01889824,-0.003684017,0.04764623,-1.474475,-3.095655,-1.66137,-0.02440532,0.004998062,0.0117431,-1.046091,-2.618721,1.629086
4.666667,4.166656,90,136,500,497,-0.02646004,-0.004659781,0.05823193,-1.473964,-3.095715,-1.660398,-0.008225307,0.03114818,0.02798917,-1.046853,-2.617599,1.628136
5,4.177768,90,169,499,497,-0.03629711,-0.01174245,0.08387239,-1.47342,-3.095672,-1.65873,0.03293614,0.06593698,0.04443327,-1.04889,-2.616287,1.626911
5.333333,4.188879,90,169,499,497,-0.05805628,-0.02961154,0.1213895,-1.472208,-3.09521,-1.656322,0.07417109,0.08666599,0.04166128,-1.051315,-2.615718,1.626384
5.666667,4.19999,90,169,499,497,-0.08942808,-0.05757424,0.1394802,-1.470517,-3.094161,-1.654111,0.1205308,0.09873389,-0.01177415,-1.05446,-2.616505,1.628018
6,4.211102,90,169,499,497,-0.1091328,-0.08222295,0.146399,-1.468903,-3.092866,-1.652186,0.1122405,0.08357804,-0.04944146,-1.055402,-2.617394,1.629808
6.333334,4.222213,90,169,499,497,-0.1238273,-0.1078422,0.165166,-1.467349,-3.09131,-1.649733,0.06705614,0.06679836,-0.07868983,-1.055207,-2.617793,1.631768
6.666667,4.233324,89,149,499,501,-0.1298994,-0.1207186,0.1800427,-1.465959,-3.090045,-1.647143,-0.03216107,0.04957598,-0.06782886,-1.052861,-2.616361,1.632087
7.000001,4.244435,89,149,499,501,-0.138675,-0.147857,0.2030623,-1.464444,-3.088005,-1.644066,-0.06231606,0.04704236,-0.06038248,-1.051823,-2.615463,1.632605
7.333334,4.255547,89,149,499,501,-0.1460387,-0.1866488,0.2381683,-1.463057,-3.085461,-1.640386,-0.1420719,0.07571653,-0.03968647,-1.049417,-2.612114,1.632314
7.666668,4.266658,89,149,499,501,-0.1430843,-0.1993605,0.2545467,-1.461831,-3.083319,-1.636929,-0.1473627,0.1012012,-0.03804934,-1.048992,-2.609996,1.632629
8.000001,4.277769,89,149,499,501,-0.13379,-0.2362204,0.2852468,-1.461088,-3.080415,-1.632912,-0.1280915,0.137726,-0.04972982,-1.049492,-2.607693,1.63344
8.333334,4.28888,85,144,498,496,-0.1351903,-0.2627681,0.3102518,-1.45991,-3.077427,-1.628609,-0.08669554,0.1499926,-0.07097083,-1.050554,-2.606651,1.634828
8.666667,4.299992,85,144,498,496,-0.15004,-0.309277,0.351331,-1.458415,-3.073328,-1.623323,-0.03365267,0.1247714,-0.1004539,-1.051845,-2.607389,1.636906
9,4.311103,85,144,498,496,-0.1762383,-0.356025,0.3804379,-1.456502,-3.068747,-1.618192,-0.008750513,0.09186873,-0.1308633,-1.052464,-2.608714,1.639468
9.333333,4.322214,85,144,498,496,-0.1959489,-0.3903546,0.4011669,-1.454484,-3.063965,-1.612954,-0.01015119,0.03850016,-0.1870158,-1.051985,-2.611441,1.643729
9.666666,4.333325,90,137,498,503,-0.2234071,-0.4292646,0.43097,-1.452024,-3.058797,-1.607106,-0.04280974,-0.0001434572,-0.2385854,-1.050392,-2.613503,1.648242
9.999999,4.344437,90,137,498,503,-0.2396834,-0.4545739,0.4558931,-1.449744,-3.053529,-1.601182,-0.06903385,-0.009622425,-0.2584503,-1.049054,-2.614812,1.652223
10.33333,4.355548,90,137,498,503,-0.2450406,-0.4635685,0.469764,-1.447802,-3.048756,-1.595451,-0.1121529,0.005878977,-0.2575573,-1.047567,-2.614282,1.655279
10.66667,4.366659,90,137,498,503,-0.2521919,-0.4743437,0.4920863,-1.445626,-3.04363,-1.589237,-0.1611758,0.04287225,-0.2440359,-1.04604,-2.612474,1.657712
11,4.37777,90,137,498,503,-0.2663952,-0.4759246,0.517785,-1.443091,-3.038749,-1.5828,-0.2393194,0.05542774,-0.2801185,-1.042629,-2.611171,1.662244
11.33333,4.388882,102,147,497,497,-0.2818413,-0.4667268,0.5406375,-1.440284,-3.034101,-1.576166,-0.2723323,0.07730304,-0.3537693,-1.040542,-2.611169,1.668923
11.66666,4.399993,102,147,497,497,-0.296014,-0.4479206,0.559407,-1.437485,-3.030025,-1.56944,-0.2778435,0.1002181,-0.3664834,-1.038888,-2.610067,1.673843
12,4.411104,102,147,497,497,-0.3044201,-0.4267464,0.5839267,-1.434686,-3.026202,-1.562365,-0.2933128,0.1276549,-0.327385,-1.037092,-2.607571,1.676312
12.33333,4.422215,102,147,497,497,-0.2985999,-0.3978096,0.6152087,-1.432179,-3.022949,-1.554748,-0.3333033,0.1417993,-0.2668571,-1.034076,-2.603955,1.677584
12.66666,4.433327,115,133,504,498,-0.301607,-0.3814762,0.6259506,-1.429519,-3.019291,-1.547599,-0.3616424,0.1293258,-0.242188,-1.030741,-2.601654,1.67992
13,4.444438,115,133,504,498,-0.2979794,-0.3643965,0.6444722,-1.426995,-3.015987,-1.53997,-0.369592,0.1211907,-0.2349879,-1.027809,-2.59956,1.682569
13.33333,4.455549,115,133,504,498,-0.2925138,-0.3524774,0.6472265,-1.424706,-3.012518,-1.532755,-0.3677499,0.1030018,-0.2441204,-1.025064,-2.598555,1.686048
13.66666,4.46666,115,133,504,498,-0.2928495,-0.3492917,0.6464844,-1.422194,-3.008883,-1.525747,-0.3702314,0.08973879,-0.2724603,-1.022119,-2.597683,1.690395
14,4.477772,115,133,504,498,-0.2962164,-0.3509396,0.6440416,-1.419735,-3.004965,-1.518882,-0.3696028,0.0863739,-0.3015596,-1.0194,-2.596749,1.695067
14.33333,4.488883,167,141,498,494,-0.3050211,-0.3562319,0.644223,-1.416924,-3.000818,-1.51192,-0.36775,0.1022948,-0.2907305,-1.016991,-2.594527,1.698142
14.66666,4.499994,167,141,498,494,-0.3059684,-0.3489723,0.6504046,-1.414426,-2.997282,-1.504567,-0.3749931,0.144586,-0.2556072,-1.014591,-2.591628,1.700592
14.99999,4.511106,167,141,498,494,-0.3069742,-0.3428053,0.6530603,-1.411836,-2.993448,-1.497563,-0.3831189,0.1704318,-0.2247141,-1.012494,-2.586883,1.701673
15.33333,4.522217,167,141,498,494,-0.3017233,-0.3432536,0.6532066,-1.409482,-2.989571,-1.490586,-0.3967508,0.1872484,-0.2037808,-1.009984,-2.58281,1.70326
15.66666,4.533328,169,129,498,498,-0.2994952,-0.3376287,0.6538011,-1.407071,-2.985831,-1.483539,-0.4096535,0.1901068,-0.1988538,-1.007184,-2.57956,1.70549
15.99999,4.544439,169,129,498,498,-0.2903334,-0.3358833,0.6532704,-1.40497,-2.982046,-1.476603,-0.4169051,0.1778164,-0.2216602,-1.004351,-2.576905,1.708769
16.33333,4.555551,169,129,498,498,-0.2905417,-0.3180335,0.6611282,-1.402576,-2.978679,-1.469282,-0.4222268,0.1730272,-0.2446709,-1.001535,-2.574305,1.712369
16.66666,4.566662,169,129,498,498,-0.2839222,-0.3006715,0.6668813,-1.400314,-2.975621,-1.462029,-0.4313053,0.1711133,-0.265461,-0.9989944,-2.571634,1.716169
16.99999,4.577773,169,129,498,498,-0.2833372,-0.2893785,0.6740839,-1.397998,-2.972511,-1.454579,-0.4336363,0.1654391,-0.2610772,-0.9960606,-2.56878,1.719139
17.33333,4.588884,155,105,496,499,-0.2855213,-0.2753156,0.6898358,-1.395571,-2.969542,-1.44677,-0.4246634,0.1468615,-0.2533064,-0.9931652,-2.566662,1.721994
17.66666,4.599996,155,105,496,499,-0.2784283,-0.264611,0.7024791,-1.393476,-2.966617,-1.438953,-0.414088,0.1097846,-0.2562862,-0.9899811,-2.565471,1.725344
18,4.611107,155,105,496,499,-0.2735754,-0.245999,0.6948642,-1.391291,-2.964033,-1.431802,-0.4178401,0.08562106,-0.2697394,-0.9865318,-2.564236,1.729204
18.33333,4.622218,155,105,496,499,-0.2640008,-0.2210284,0.6854191,-1.38924,-2.96183,-1.424652,-0.4416232,0.05548197,-0.2993551,-0.9822643,-2.563439,1.734121
18.66666,4.633329,155,105,496,499,-0.2602047,-0.2068685,0.6848112,-1.387171,-2.959407,-1.417217,-0.4683356,0.05880854,-0.2990611,-0.9780959,-2.561088,1.737798
19,4.644441,158,98,505,500,-0.2500914,-0.1938901,0.6928939,-1.38538,-2.957204,-1.409623,-0.4807451,0.08061656,-0.2806511,-0.9745316,-2.557871,1.74064
19.33333,4.655552,158,98,505,500,-0.2477711,-0.1838633,0.7004706,-1.383361,-2.954918,-1.401877,-0.4724513,0.1131767,-0.2398986,-0.9718647,-2.553941,1.742051
19.66667,4.666663,158,98,505,500,-0.2404532,-0.1720002,0.7146863,-1.38162,-2.952839,-1.39382,-0.4544421,0.1207648,-0.2331441,-0.9691275,-2.551259,1.744661
20,4.677774,158,98,505,500,-0.2375484,-0.1572297,0.7243602,-1.379696,-2.950812,-1.385683,-0.4666897,0.1010001,-0.2509938,-0.9653693,-2.549258,1.748432
20.33333,4.688886,171,133,491,497,-0.2365986,-0.1483667,0.7316625,-1.377963,-2.948886,-1.377652,-0.461803,0.07073277,-0.274041,-0.961693,-2.548155,1.752713
20.66667,4.699997,171,133,491,497,-0.2372409,-0.1391242,0.7291226,-1.376025,-2.9469,-1.369968,-0.449424,0.0260554,-0.2832497,-0.9578304,-2.547993,1.756957
21,4.711108,171,133,491,497,-0.2333256,-0.1327433,0.7278267,-1.374177,-2.944903,-1.362136,-0.4483011,0.001549006,-0.2846217,-0.9538122,-2.547202,1.760752
21.33334,4.722219,171,133,491,497,-0.2279586,-0.1236774,0.724373,-1.372491,-2.943034,-1.354504,-0.4471252,-0.0213435,-0.2865304,-0.9497381,-2.546827,1.764842
21.66667,4.733331,171,133,491,497,-0.2234735,-0.1085901,0.7228003,-1.370701,-2.941381,-1.346827,-0.442381,-0.0230054,-0.285044,-0.9462041,-2.545675,1.768529
22,4.744442,153,118,495,502,-0.2155263,-0.0875521,0.7286245,-1.369109,-2.940131,-1.338743,-0.4521278,-0.02870464,-0.2838327,-0.9420597,-2.544667,1.772441
22.33334,4.755553,153,118,495,502,-0.2046455,-0.06385134,0.7301003,-1.367918,-2.939303,-1.330397,-0.4726349,-0.01738864,-0.2687859,-0.9377299,-2.542522,1.775509
22.66667,4.766665,153,118,495,502,-0.20261,-0.0471804,0.7331936,-1.36626,-2.938284,-1.322312,-0.4820995,-0.01309776,-0.2665091,-0.9336596,-2.540746,1.778917
23.00001,4.777776,153,118,495,502,-0.1943797,-0.03551452,0.7356122,-1.36499,-2.937156,-1.314223,-0.4920717,-0.009384006,-0.2761509,-0.9295349,-2.539115,1.782961
23.33334,4.788887,191,106,495,498,-0.1966591,-0.03078014,0.7388359,-1.363382,-2.935879,-1.306053,-0.487955,-0.009568512,-0.2773286,-0.9256839,-2.537828,1.786827
23.66667,4.799998,191,106,495,498,-0.2062263,-0.03752942,0.7326828,-1.36154,-2.934193,-1.298316,-0.4771639,-0.01375031,-0.2706767,-0.9219522,-2.536547,1.790363
24.00001,4.81111,191,106,495,498,-0.2108802,-0.03074989,0.7324044,-1.359798,-2.932894,-1.290384,-0.4752522,-0.0183782,-0.2640445,-0.9180715,-2.535138,1.793777
24.33334,4.822221,191,106,495,498,-0.216567,-0.04277028,0.7183228,-1.357965,-2.930832,-1.283188,-0.4771684,-0.0382838,-0.2570201,-0.9136943,-2.53424,1.797354
24.66668,4.833332,191,106,495,498,-0.2129132,-0.0348042,0.7140636,-1.356324,-2.929529,-1.275568,-0.4711525,-0.04738316,-0.2438222,-0.9095894,-2.533231,1.800596
25.00001,4.844443,180,95,497,498,-0.204973,-0.01446562,0.7110696,-1.354795,-2.928636,-1.267858,-0.4574722,-0.05371654,-0.2441013,-0.9058518,-2.532564,1.804194
25.33334,4.855555,180,95,497,498,-0.1907487,0.01255247,0.7097543,-1.353521,-2.928279,-1.259951,-0.4367653,-0.07219689,-0.2769982,-0.9024404,-2.53325,1.809497
25.66668,4.866666,180,95,497,498,-0.1735531,0.05009243,0.7061794,-1.35225,-2.928529,-1.251909,-0.4416947,-0.07155944,-0.2849516,-0.8985457,-2.532573,1.813931
26.00001,4.877777,180,95,497,498,-0.1634616,0.06872518,0.7080402,-1.351051,-2.928447,-1.243873,-0.4475591,-0.05921805,-0.2742181,-0.8948147,-2.531266,1.817525
26.33335,4.888888,177,98,491,496,-0.1621256,0.08170564,0.7238126,-1.349717,-2.928244,-1.23522,-0.4516283,-0.0478569,-0.2548924,-0.8910441,-2.529676,1.820591
26.66668,4.9,177,98,491,496,-0.1716517,0.08216558,0.7360584,-1.348113,-2.927541,-1.22669,-0.4572622,-0.04794264,-0.2396165,-0.8870649,-2.528192,1.823613
27.00001,4.911111,177,98,491,496,-0.1816544,0.07570131,0.7298178,-1.346433,-2.926619,-1.218919,-0.4634681,-0.0512594,-0.2371836,-0.8830664,-2.527165,1.827134
27.33335,4.922222,177,98,491,496,-0.1979757,0.0678218,0.6933063,-1.344516,-2.925567,-1.212401,-0.4680074,-0.06163672,-0.2376297,-0.8788602,-2.526221,1.830787
27.66668,4.933333,177,98,491,496,-0.2129537,0.06146157,0.6782135,-1.342442,-2.924532,-1.205335,-0.4615078,-0.0875975,-0.2407556,-0.8745576,-2.526186,1.834868
28.00002,4.944445,216,97,491,498,-0.2218446,0.06157553,0.6668914,-1.340314,-2.923492,-1.198399,-0.4563337,-0.1009872,-0.238104,-0.8703839,-2.525951,1.838616
28.33335,4.955556,216,97,491,498,-0.246988,0.04554945,0.6579788,-1.33779,-2.921704,-1.191543,-0.449536,-0.11204,-0.2269665,-0.8662038,-2.52543,1.841825
28.66668,4.966667,216,97,491,498,-0.2551312,0.04723428,0.6540048,-1.335395,-2.920377,-1.184549,-0.4424294,-0.1102736,-0.2231572,-0.8623742,-2.524836,1.845305
29.00002,4.977778,216,97,491,498,-0.2517676,0.04693976,0.6435466,-1.333508,-2.919223,-1.177647,-0.4489467,-0.1014218,-0.2239232,-0.8584167,-2.523818,1.848818
29.33335,4.98889,216,97,491,498,-0.2483279,0.05332065,0.6373866,-1.331465,-2.91815,-1.170817,-0.4569543,-0.09993394,-0.2100365,-0.8540614,-2.522615,1.851804
29.66669,5.000001,239,97,502,497,-0.2450806,0.06196353,0.6275456,-1.32942,-2.917349,-1.164011,-0.4671252,-0.09779933,-0.1910354,-0.8496411,-2.520959,1.854229
30.00002,5.011112,239,97,502,497,-0.235775,0.08410236,0.6048477,-1.327394,-2.917203,-1.157679,-0.4678553,-0.09947595,-0.1680296,-0.845224,-2.519418,1.856324
30.33335,5.022223,239,97,502,497,-0.2320909,0.09802237,0.5950084,-1.325615,-2.916984,-1.150671,-0.4816355,-0.1089288,-0.1614058,-0.8404164,-2.517997,1.858963
30.66669,5.033335,239,97,502,497,-0.2244162,0.116487,0.5844088,-1.323559,-2.917171,-1.143977,-0.4876457,-0.1240176,-0.1727974,-0.8355913,-2.517493,1.862669
31.00002,5.044446,221,94,493,497,-0.2238748,0.1267861,0.5746798,-1.321451,-2.917027,-1.137553,-0.4816211,-0.1303862,-0.1681594,-0.8311023,-2.516655,1.865574
31.33335,5.055557,221,94,493,497,-0.2144203,0.1448669,0.5704982,-1.319575,-2.917428,-1.130819,-0.465681,-0.1366709,-0.1628201,-0.8269621,-2.515973,1.868402
31.66669,5.066669,221,94,493,497,-0.2057949,0.1584202,0.5680896,-1.317825,-2.917743,-1.124072,-0.4611487,-0.1402814,-0.1566877,-0.8225892,-2.515184,1.871114
32.00002,5.07778,221,94,493,497,-0.193433,0.1755952,0.5629181,-1.316207,-2.918599,-1.117248,-0.439565,-0.1299713,-0.1448965,-0.8190339,-2.514146,1.873239
32.33335,5.088891,221,94,493,497,-0.1812809,0.189005,0.5431303,-1.314793,-2.919502,-1.110982,-0.4307443,-0.1274971,-0.1446681,-0.8150935,-2.513344,1.875904
32.66669,5.100002,262,92,493,497,-0.1721868,0.1975285,0.5218568,-1.313456,-2.920406,-1.104858,-0.4319854,-0.1366045,-0.1472017,-0.8108292,-2.512883,1.878907
33.00002,5.111114,262,92,493,497,-0.1647275,0.2038706,0.5073998,-1.311964,-2.921228,-1.098915,-0.4388187,-0.1413709,-0.1388089,-0.8063141,-2.511757,1.88141
33.33335,5.122225,262,92,493,497,-0.1668431,0.2116525,0.5016612,-1.310125,-2.922265,-1.09234,-0.4356743,-0.1508559,-0.127411,-0.8018911,-2.511065,1.88371
33.66668,5.133336,262,92,493,497,-0.1684798,0.2185319,0.5026571,-1.308333,-2.923068,-1.086012,-0.4256638,-0.1575823,-0.1256258,-0.7977643,-2.510799,1.886368
34.00002,5.144447,247,116,490,495,-0.1755574,0.2240042,0.5078771,-1.306234,-2.923977,-1.079353,-0.4081385,-0.1607391,-0.1350608,-0.794062,-2.511015,1.889536
34.33335,5.155559,247,116,490,495,-0.1769394,0.2283288,0.5093777,-1.304555,-2.924767,-1.072712,-0.3956455,-0.1604544,-0.1419621,-0.7905332,-2.51115,1.892617
34.66668,5.16667,247,116,490,495,-0.1741424,0.2271376,0.4960969,-1.302833,-2.925406,-1.066765,-0.3722482,-0.1566043,-0.1494941,-0.7873071,-2.51156,1.895765
35.00001,5.177781,247,116,490,495,-0.1704388,0.2313286,0.4771612,-1.301082,-2.926737,-1.060958,-0.378308,-0.1671436,-0.1496707,-0.7832522,-2.51175,1.898952
35.33334,5.188892,247,116,490,495,-0.168217,0.2354001,0.4591955,-1.299413,-2.927886,-1.055377,-0.4012835,-0.169855,-0.1253422,-0.7785315,-2.510683,1.900988
35.66668,5.200004,243,109,499,497,-0.1683928,0.248101,0.4508663,-1.297536,-2.929144,-1.049524,-0.4092805,-0.1675021,-0.0996566,-0.7741298,-2.509368,1.902446
36.00001,5.211115,243,109,499,497,-0.1696612,0.2533183,0.4519795,-1.295697,-2.930213,-1.043384,-0.4145037,-0.1743408,-0.07686687,-0.7695641,-2.508354,1.903732
36.33334,5.222226,243,109,499,497,-0.1756391,0.2656808,0.4639611,-1.293674,-2.931411,-1.036723,-0.4063928,-0.1767171,-0.0923664,-0.7655523,-2.508247,1.906604
36.66667,5.233337,243,109,499,497,-0.1796286,0.2692587,0.4717877,-1.291733,-2.93264,-1.030218,-0.4087102,-0.1840957,-0.1038855,-0.7613482,-2.508345,1.909792
37,5.244449,275,115,501,497,-0.1807168,0.2633845,0.471435,-1.289894,-2.933342,-1.024089,-0.3948835,-0.192429,-0.1080059,-0.7572544,-2.50872,1.912794
37.33334,5.25556,275,115,501,497,-0.1782078,0.2594182,0.4543263,-1.288,-2.934534,-1.018474,-0.3821882,-0.1939356,-0.09792282,-0.7533934,-2.50881,1.914952
37.66667,5.266671,275,115,501,497,-0.1753477,0.2656924,0.4431963,-1.286168,-2.935724,-1.012694,-0.3818338,-0.2052949,-0.08104037,-0.7488569,-2.50854,1.9168
38,5.277782,275,115,501,497,-0.1605584,0.2867051,0.447554,-1.284859,-2.937765,-1.006095,-0.3750059,-0.2013157,-0.07468306,-0.7449016,-2.508249,1.918854
38.33333,5.288894,275,115,501,497,-0.1522909,0.3090039,0.4673856,-1.283365,-2.939706,-0.998728,-0.3561489,-0.1988979,-0.08764204,-0.7415034,-2.508967,1.921865
38.66666,5.300005,294,111,495,496,-0.1557105,0.3188433,0.4875553,-1.281713,-2.941175,-0.9913468,-0.3514405,-0.2194781,-0.1184219,-0.737466,-2.510934,1.926496
39,5.311116,294,111,495,496,-0.1557912,0.3218931,0.486715,-1.280092,-2.942725,-0.9846282,-0.3402111,-0.2451213,-0.141871,-0.7334122,-2.513312,1.93118
39.33333,5.322227,294,111,495,496,-0.1568401,0.3266512,0.4740608,-1.278317,-2.944354,-0.9781641,-0.3301385,-0.2722277,-0.1462513,-0.7290488,-2.515946,1.935608
39.66666,5.333339,294,111,495,496,-0.149931,0.3240847,0.448793,-1.27683,-2.946172,-0.9722083,-0.3375515,-0.2870259,-0.1362833,-0.7245353,-2.51754,1.939166
39.99999,5.34445,294,111,495,496,-0.1490346,0.3288951,0.4474124,-1.2752,-2.947787,-0.9657016,-0.3359762,-0.2893429,-0.1238369,-0.7201028,-2.518834,1.942396
40.33332,5.355561,290,116,491,497,-0.1557071,0.3326512,0.4613986,-1.271884,-2.950939,-0.9520481,-0.3365696,-0.2812963,-0.1289237,-0.7119844,-2.521434,1.949884
40.66666,5.366673,290,116,491,497,-0.1557071,0.3326512,0.4613986,-1.271884,-2.950939,-0.9520481,-0.3365696,-0.2812963,-0.1289237,-0.7119844,-2.521434,1.949884
40.99999,5.377784,290,116,491,497,-0.1567369,0.3327428,0.4658779,-1.270226,-2.952219,-0.9452805,-0.3323145,-0.2828511,-0.1368997,-0.7078629,-2.523393,1.954174
41.33332,5.388895,290,116,491,497,-0.1615933,0.3405405,0.4808111,-1.268475,-2.953681,-0.9379163,-0.3169476,-0.2934519,-0.1514311,-0.7039922,-2.526463,1.959186
41.66665,5.400006,285,113,491,498,-0.1515925,0.3533997,0.4851862,-1.267094,-2.955413,-0.9306342,-0.3239462,-0.3123735,-0.1607302,-0.6993908,-2.529396,1.964453
41.99998,5.411118,285,113,491,498,-0.1136255,0.3845177,0.4717675,-1.265094,-2.960049,-0.9163319,-0.336058,-0.3039036,-0.1147795,-0.6902466,-2.531708,1.97099
42.33332,5.422229,285,113,491,498,-0.1136255,0.3845177,0.4717675,-1.265094,-2.960049,-0.9163319,-0.336058,-0.3039036,-0.1147795,-0.6902466,-2.531708,1.97099
42.66665,5.43334,285,113,491,498,-0.1022862,0.402106,0.4976586,-1.26315,-2.964147,-0.9008062,-0.3558139,-0.3171212,-0.08808599,-0.6804408,-2.534121,1.977416
42.99998,5.444451,285,113,491,498,-0.1022862,0.402106,0.4976586,-1.26315,-2.964147,-0.9008062,-0.3558139,-0.3171212,-0.08808599,-0.6804408,-2.534121,1.977416
43.33331,5.455563,291,116,495,497,-0.1088037,0.4063492,0.5053664,-1.261752,-2.966151,-0.8929456,-0.3392799,-0.3295442,-0.1124077,-0.676093,-2.537412,1.982745
43.66665,5.466674,291,116,495,497,-0.1083826,0.4073554,0.4955919,-1.260585,-2.968101,-0.8856326,-0.3270873,-0.3454155,-0.1314216,-0.6716514,-2.540934,1.988318
43.99998,5.477785,291,116,495,497,-0.1056527,0.4055086,0.4883544,-1.259711,-2.969933,-0.8784895,-0.3143874,-0.3389461,-0.1443081,-0.6677716,-2.544028,1.993564
44.33331,5.488896,312,131,492,498,-0.09722573,0.4248112,0.4944678,-1.257788,-2.974103,-0.8629308,-0.3084166,-0.342734,-0.13089,-0.6591095,-2.549469,2.002752
44.66664,5.500008,312,131,492,498,-0.08504879,0.4340928,0.513446,-1.257259,-2.976146,-0.8544694,-0.2999216,-0.3507419,-0.1328642,-0.6547807,-2.552855,2.007879
44.99997,5.511119,312,131,492,498,-0.08504879,0.4340928,0.513446,-1.257259,-2.976146,-0.8544694,-0.2999216,-0.3507419,-0.1328642,-0.6547807,-2.552855,2.007879
45.33331,5.52223,312,131,492,498,-0.0568589,0.4578281,0.5108257,-1.256556,-2.980426,-0.8382581,-0.3105162,-0.375071,-0.1778743,-0.6458113,-2.561331,2.021374
45.66664,5.533341,312,131,492,498,-0.03766656,0.4707714,0.5016429,-1.256441,-2.983255,-0.8301451,-0.3083822,-0.388565,-0.1764858,-0.6411193,-2.565635,2.027716
45.99997,5.544453,312,131,492,498,-0.03766656,0.4707714,0.5016429,-1.256441,-2.983255,-0.8301451,-0.3083822,-0.388565,-0.1764858,-0.6411193,-2.565635,2.027716
46.3333,5.555564,333,135,516,498,-0.03439474,0.472183,0.4994975,-1.256106,-2.985594,-0.8219527,-0.2930379,-0.4010679,-0.1665716,-0.6367389,-2.570062,2.033434
46.66663,5.566675,333,135,516,498,-0.03384876,0.4714842,0.5081958,-1.255483,-2.99006,-0.805546,-0.2707606,-0.3987811,-0.1835839,-0.6289049,-2.579243,2.046369
46.99997,5.577786,333,135,516,498,-0.03384876,0.4714842,0.5081958,-1.255483,-2.99006,-0.805546,-0.2707606,-0.3987811,-0.1835839,-0.6289049,-2.579243,2.046369
47.3333,5.588898,333,135,516,498,-0.04180312,0.4663531,0.4922483,-1.25449,-2.994437,-0.7898754,-0.2715336,-0.4199536,-0.2041884,-0.6202049,-2.590309,2.061785
47.66663,5.600009,333,135,516,498,-0.04180312,0.4663531,0.4922483,-1.25449,-2.994437,-0.7898754,-0.2715336,-0.4199536,-0.2041884,-0.6202049,-2.590309,2.061785
47.99996,5.61112,303,140,529,497,-0.040838,0.4618341,0.476318,-1.254056,-2.996551,-0.7824932,-0.2667021,-0.4122902,-0.1753085,-0.6158144,-2.594144,2.067059
48.33329,5.622231,303,140,529,497,-0.03505868,0.4674966,0.4699894,-1.253811,-2.998846,-0.7748568,-0.2761328,-0.393783,-0.1475254,-0.6115129,-2.596861,2.071653
48.66663,5.633343,303,140,529,497,-0.01810271,0.4606679,0.4639751,-1.253762,-3.003145,-0.7595927,-0.3105297,-0.3674475,-0.09520471,-0.602267,-2.600509,2.079527
48.99996,5.644454,303,140,529,497,-0.01810271,0.4606679,0.4639751,-1.253762,-3.003145,-0.7595927,-0.3105297,-0.3674475,-0.09520471,-0.602267,-2.600509,2.079527
49.33329,5.655565,285,135,493,498,-0.01869291,0.4591968,0.4592916,-1.25357,-3.007378,-0.7446939,-0.3095399,-0.3565882,-0.07826722,-0.5934529,-2.605328,2.08836
49.66662,5.666677,285,135,493,498,-0.01869291,0.4591968,0.4592916,-1.25357,-3.007378,-0.7446939,-0.3095399,-0.3565882,-0.07826722,-0.5934529,-2.605328,2.08836
49.99995,5.677788,285,135,493,498,-0.004689395,0.4609722,0.4507293,-1.253974,-3.011701,-0.7296582,-0.2696384,-0.3791728,-0.1128495,-0.5856813,-2.615615,2.101672
50.33329,5.688899,285,135,493,498,0.007890761,0.4630303,0.4407745,-1.254371,-3.013965,-0.7223175,-0.2544261,-0.3939494,-0.1238606,-0.5816259,-2.621159,2.108682
50.66662,5.70001,285,135,493,498,0.007890761,0.4630303,0.4407745,-1.254371,-3.013965,-0.7223175,-0.2544261,-0.3939494,-0.1238606,-0.5816259,-2.621159,2.108682
50.99995,5.711122,305,136,495,495,0.03956991,0.4687914,0.4152454,-1.255662,-3.018972,-0.7078549,-0.2466272,-0.4018872,-0.1396677,-0.5736305,-2.631938,2.123231
51.33328,5.722233,305,136,495,495,0.03956991,0.4687914,0.4152454,-1.255662,-3.018972,-0.7078549,-0.2466272,-0.4018872,-0.1396677,-0.5736305,-2.631938,2.123231
51.66661,5.733344,305,136,495,495,0.04614586,0.4692819,0.4089948,-1.256398,-3.021416,-0.7007629,-0.2441571,-0.4004701,-0.1299282,-0.5695612,-2.636336,2.1292
51.99995,5.744455,313,135,473,497,0.05136538,0.4540259,0.4100106,-1.257789,-3.025284,-0.686645,-0.2215646,-0.386411,-0.116658,-0.562449,-2.64552,2.141118
52.33328,5.755567,313,135,473,497,0.06363758,0.4606839,0.4195728,-1.258941,-3.027535,-0.6789942,-0.2178969,-0.3900291,-0.1134391,-0.5586023,-2.650521,2.147489
52.66661,5.766678,313,135,473,497,0.07119811,0.4698693,0.4204202,-1.259954,-3.029771,-0.6714367,-0.226708,-0.3734087,-0.1196553,-0.5553506,-2.654603,2.153567
52.99994,5.777789,313,135,473,497,0.07331717,0.4723735,0.4070115,-1.26077,-3.032209,-0.664333,-0.2258097,-0.3660779,-0.1217461,-0.5520701,-2.659188,2.159929
53.33327,5.7889,313,135,473,497,0.07940382,0.4504558,0.3824964,-1.261827,-3.034141,-0.6582589,-0.2360084,-0.3618871,-0.1093693,-0.5481989,-2.662976,2.165687
53.66661,5.800012,313,135,473,497,0.07940382,0.4504558,0.3824964,-1.261827,-3.034141,-0.6582589,-0.2360084,-0.3618871,-0.1093693,-0.5481989,-2.662976,2.165687
53.99994,5.811123,311,129,499,495,0.05476692,0.4154806,0.3481988,-1.262967,-3.03745,-0.6464387,-0.2291506,-0.3685032,-0.08707632,-0.5405386,-2.67165,2.17717
54.33327,5.822234,311,129,499,495,0.04559368,0.4114479,0.3409846,-1.263395,-3.039082,-0.6404833,-0.2337244,-0.3714744,-0.08108769,-0.5365428,-2.675993,2.183247
54.6666,5.833345,311,129,499,495,0.03957501,0.4072219,0.3316742,-1.263763,-3.040702,-0.6345077,-0.2203726,-0.3703698,-0.08196482,-0.5330786,-2.680774,2.189335
54.99994,5.844457,336,143,506,496,0.03783655,0.4131392,0.3285601,-1.26424,-3.042746,-0.6281497,-0.212576,-0.3659434,-0.08130227,-0.5298268,-2.685611,2.195373
55.33327,5.855568,336,143,506,496,0.03783655,0.4131392,0.3285601,-1.26424,-3.042746,-0.6281497,-0.212576,-0.3659434,-0.08130227,-0.5298268,-2.685611,2.195373
55.6666,5.866679,336,143,506,496,0.03941819,0.442553,0.3724222,-1.265578,-3.045722,-0.6135396,-0.1908923,-0.3326548,-0.07973596,-0.5242465,-2.693494,2.205855
55.99993,5.87779,336,143,506,496,0.03941819,0.442553,0.3724222,-1.265578,-3.045722,-0.6135396,-0.1908923,-0.3326548,-0.07973596,-0.5242465,-2.693494,2.205855
56.33326,5.888902,336,143,506,496,0.03683069,0.4396377,0.3569771,-1.266103,-3.047501,-0.6072604,-0.1811163,-0.33649,-0.09688228,-0.5214107,-2.698893,2.212704
56.6666,5.900013,357,148,497,495,0.06476197,0.4169352,0.2914486,-1.267871,-3.051902,-0.5967121,-0.1759542,-0.3837159,-0.1430279,-0.5152407,-2.71417,2.23147
56.99993,5.911124,357,148,497,495,0.06828064,0.4195493,0.2857211,-1.268636,-3.053966,-0.5908116,-0.1642025,-0.3629746,-0.1080823,-0.512201,-2.718173,2.2362
57.33326,5.922235,357,148,497,495,0.0546248,0.4297326,0.2868083,-1.268914,-3.055934,-0.5844712,-0.1631148,-0.352946,-0.0970409,-0.5094424,-2.722672,2.241642
57.66659,5.933347,357,148,497,495,0.04455999,0.4448518,0.2994096,-1.269158,-3.05779,-0.5775928,-0.1779665,-0.3516162,-0.1032903,-0.5062366,-2.727745,2.248691
57.99992,5.944458,357,148,497,495,0.04455999,0.4448518,0.2994096,-1.269158,-3.05779,-0.5775928,-0.1779665,-0.3516162,-0.1032903,-0.5062366,-2.727745,2.248691
58.33326,5.955569,409,151,510,495,-0.005030632,0.424914,0.2898616,-1.268163,-3.06029,-0.5658402,-0.1965151,-0.3546002,-0.07149932,-0.4993027,-2.736365,2.260368
58.66659,5.966681,409,151,510,495,0.005292177,0.4070578,0.2660459,-1.268605,-3.062023,-0.560817,-0.208501,-0.3615801,-0.02620852,-0.4947461,-2.739509,2.264581
58.99992,5.977792,409,151,510,495,0.002151132,0.4144056,0.2638357,-1.268608,-3.063756,-0.5550571,-0.2124453,-0.3530941,-0.01192504,-0.4909825,-2.743136,2.269497
59.33325,5.988903,409,151,510,495,-0.01473814,0.427687,0.2716781,-1.268048,-3.06532,-0.5487044,-0.2176421,-0.3512684,-0.01128231,-0.4872535,-2.747022,2.274987
59.66658,6.000014,388,147,498,497,-0.01402783,0.435319,0.2723749,-1.268063,-3.067132,-0.5425083,-0.2142537,-0.3486067,-0.01632234,-0.4839906,-2.7514,2.280869
59.99992,6.011126,388,147,498,497,-0.02321574,0.4516635,0.2840079,-1.267641,-3.068732,-0.535713,-0.2027384,-0.3440014,-0.03857362,-0.481303,-2.756734,2.287786
60.33325,6.022237,388,147,498,497,-0.03684357,0.4602916,0.2876543,-1.267007,-3.070225,-0.5292873,-0.1900226,-0.3550956,-0.04515491,-0.4780161,-2.762608,2.294966
60.66658,6.033348,388,147,498,497,-0.02388117,0.4561134,0.2701371,-1.267199,-3.072143,-0.5235178,-0.1813008,-0.3685256,-0.04647085,-0.4745918,-2.768887,2.302349
60.99991,6.044459,388,147,498,497,-0.01399487,0.4530773,0.2583989,-1.267238,-3.074047,-0.5176978,-0.1673899,-0.3825116,-0.0302732,-0.4707414,-2.774593,2.308663
61.33324,6.055571,370,165,491,494,-0.01412305,0.4660224,0.2505966,-1.266858,-3.076177,-0.5112561,-0.1605981,-0.4006643,-0.02872454,-0.4673555,-2.781334,2.316115
61.66658,6.066682,370,165,491,494,-0.02501649,0.4809467,0.2377796,-1.266069,-3.078689,-0.5049945,-0.1564737,-0.4086625,-0.01322246,-0.4633138,-2.787587,2.322927
61.99991,6.077793,370,165,491,494,-0.03381348,0.4893567,0.2522183,-1.265782,-3.080179,-0.4982753,-0.1561318,-0.3878835,-0.002926543,-0.4598975,-2.792117,2.328266
62.33324,6.088904,370,165,491,494,-0.04517484,0.5044796,0.2672376,-1.265054,-3.081881,-0.4910954,-0.1579072,-0.381879,-0.001607403,-0.4564642,-2.797322,2.334466
62.66657,6.100016,400,140,491,496,-0.04963195,0.5135809,0.2695583,-1.264479,-3.083927,-0.4841105,-0.1688711,-0.3829108,-0.01940978,-0.4531507,-2.803606,2.342484
62.9999,6.111127,400,140,491,496,-0.04821575,0.5076341,0.2651948,-1.264008,-3.085623,-0.4776252,-0.1785901,-0.3958755,-0.02546254,-0.4494047,-2.810366,2.350876
63.33324,6.122238,400,140,491,496,-0.04282886,0.497401,0.2443927,-1.263777,-3.087798,-0.4717449,-0.1757552,-0.4303282,-0.01613884,-0.4447719,-2.818326,2.359816
63.66657,6.133349,400,140,491,496,-0.04187614,0.4928984,0.2246646,-1.263149,-3.090015,-0.46583,-0.1727889,-0.4487486,-0.00752911,-0.4403872,-2.826368,2.368757
63.9999,6.144461,400,140,491,496,-0.03712016,0.49916,0.2093964,-1.262731,-3.092438,-0.4596179,-0.1586925,-0.4472089,0.01842237,-0.4360676,-2.83284,2.375383
64.33324,6.155572,396,137,491,497,-0.04703301,0.5084541,0.2104214,-1.261848,-3.09445,-0.4528055,-0.1438414,-0.4506855,0.02552232,-0.4320404,-2.84054,2.383525
64.66657,6.166683,396,137,491,497,-0.05201048,0.5291833,0.2184989,-1.261096,-3.096722,-0.4456736,-0.1537682,-0.4676166,0.01423363,-0.4278262,-2.849427,2.393653
64.99991,6.177794,396,137,491,497,-0.04388136,0.5369563,0.2219282,-1.260835,-3.09919,-0.4387046,-0.1591415,-0.4728898,0.03473425,-0.4232615,-2.856866,2.401742
65.33324,6.188906,396,137,491,497,-0.0440504,0.5425181,0.2266126,-1.260296,-3.10123,-0.4316803,-0.1513366,-0.4544094,0.05549242,-0.4190601,-2.86277,2.407983
65.66658,6.200017,367,154,501,497,-0.030725,0.5359856,0.221262,-1.260257,-3.103403,-0.4252568,-0.1458124,-0.4420416,0.0572952,-0.4151272,-2.869435,2.415244
65.99992,6.211128,367,154,501,497,-0.01446193,0.5292537,0.2084798,-1.260343,-3.105812,-0.4189152,-0.1451575,-0.433361,0.04353452,-0.4116586,-2.876808,2.423614
66.33325,6.222239,367,154,501,497,0.01123518,0.5257763,0.199671,-1.261071,-3.108338,-0.4124832,-0.1461443,-0.4557285,0.04264411,-0.407372,-2.885548,2.433442
66.66659,6.233351,367,154,501,497,0.02498823,0.5372663,0.194362,-1.261447,-3.111089,-0.4054908,-0.1334473,-0.4766736,0.0424822,-0.4030929,-2.895885,2.444127
66.99992,6.244462,367,154,501,497,0.02498823,0.5372663,0.194362,-1.261447,-3.111089,-0.4054908,-0.1334473,-0.4766736,0.0424822,-0.4030929,-2.895885,2.444127
67.33326,6.255573,456,165,477,490,0.03701198,0.5514872,0.1928977,-1.262456,-3.116395,-0.3916775,-0.1283418,-0.4779351,0.0440107,-0.3950869,-2.914071,2.46362
67.6666,6.266685,456,165,477,490,0.03701198,0.5514872,0.1928977,-1.262456,-3.116395,-0.3916775,-0.1283418,-0.4779351,0.0440107,-0.3950869,-2.914071,2.46362
67.99993,6.277796,456,165,477,490,0.0300954,0.5454928,0.1880484,-1.262928,-3.121099,-0.3784453,-0.09587657,-0.4479367,0.03028679,-0.3890362,-2.931965,2.481033
68.33327,6.288907,456,165,477,490,0.02919018,0.5386629,0.1858473,-1.263106,-3.123255,-0.3719871,-0.1033735,-0.445272,0.02369969,-0.3857242,-2.941108,2.491112
68.6666,6.300018,456,165,477,490,0.04586035,0.5290456,0.1847758,-1.263962,-3.125602,-0.3656723,-0.1072296,-0.4440745,0.03431144,-0.3822249,-2.950137,2.500812
68.99994,6.31113,524,164,506,500,0.05474794,0.5291087,0.1787224,-1.264647,-3.12808,-0.3591747,-0.09881926,-0.4474012,0.04608142,-0.3784858,-2.959639,2.510531
69.33327,6.322241,524,164,506,500,0.06142503,0.5296565,0.1786837,-1.265337,-3.13048,-0.352635,-0.08860603,-0.4425118,0.0399251,-0.3755307,-2.969312,2.52019
69.66661,6.333352,524,164,506,500,0.08010069,0.5292013,0.1674933,-1.266518,-3.133245,-0.3462472,-0.0829269,-0.4579461,0.03820768,-0.3719967,-2.980792,2.532005
69.99995,6.344463,524,164,506,500,0.08010069,0.5292013,0.1674933,-1.266518,-3.133245,-0.3462472,-0.0829269,-0.4579461,0.03820768,-0.3719967,-2.980792,2.532005
70.33328,6.355575,470,168,497,496,0.1005785,0.524134,0.1639658,-1.268988,-3.137802,-0.33362,-0.08055475,-0.4454281,0.04372562,-0.3656323,-2.998868,2.551587
70.66662,6.366686,470,168,497,496,0.1128311,0.5228587,0.1597684,-1.270519,-3.140441,-0.3274165,-0.0877997,-0.4405547,0.05110173,-0.3621766,-3.008143,2.561512
70.99995,6.377797,470,168,497,496,0.1275353,0.5178292,0.1593848,-1.272264,3.140486,-0.3212545,-0.08606535,-0.4495061,0.06386808,-0.3585275,-3.018591,2.572067
71.33329,6.388908,470,168,497,496,0.138146,0.5102565,0.1565108,-1.273958,3.138201,-0.315331,-0.07258299,-0.452381,0.04871812,-0.3557046,-3.030286,2.583993
71.66663,6.40002,470,168,497,496,0.142697,0.5195327,0.160113,-1.27555,3.136021,-0.3087701,-0.07257164,-0.4529029,0.0373064,-0.3529359,-3.040871,2.595507
71.99996,6.411131,414,161,507,496,0.1349817,0.5525625,0.1855882,-1.27695,3.13396,-0.3010054,-0.07542515,-0.4581013,0.03779051,-0.3497348,-3.052723,2.608009
72.3333,6.422242,414,161,507,496,0.1211829,0.5726178,0.2008944,-1.27808,3.132169,-0.2933163,-0.06809437,-0.436532,0.07020099,-0.3461939,-3.061213,2.61649
72.66663,6.433353,414,161,507,496,0.111425,0.5537236,0.1890298,-1.279011,3.130299,-0.287036,-0.0540626,-0.4322893,0.0693363,-0.3432985,-3.072247,2.627415
72.99997,6.444465,414,161,507,496,0.111425,0.5537236,0.1890298,-1.279011,3.130299,-0.287036,-0.0540626,-0.4322893,0.0693363,-0.3432985,-3.072247,2.627415
73.33331,6.455576,395,182,483,495,0.1499211,0.479892,0.1442714,-1.28286,3.126201,-0.277707,-0.04126361,-0.4327272,0.04588425,-0.3387221,-3.096324,2.651836
73.66664,6.466687,395,182,483,495,0.1670296,0.4793687,0.1417285,-1.284551,3.124062,-0.2715348,-0.04076496,-0.4317472,0.0490557,-0.3359349,-3.107973,2.663707
73.99998,6.477798,395,182,483,495,0.1661243,0.4874041,0.1446851,-1.286108,3.122232,-0.265392,-0.04806718,-0.4268827,0.04725903,-0.3331252,-3.119837,2.676057
74.33331,6.48891,395,182,483,495,0.1522596,0.520575,0.1594479,-1.287476,3.120271,-0.2581333,-0.04765892,-0.4265882,0.04341651,-0.3306709,-3.13188,2.688562
74.66665,6.500021,395,182,483,495,0.1100166,0.5411801,0.1786756,-1.287605,3.119088,-0.2503041,-0.03965873,-0.4246687,0.045431,-0.3283363,3.139174,2.700806
74.99998,6.511132,375,183,495,502,0.09661245,0.5258427,0.1627422,-1.288285,3.117367,-0.2444207,-0.02613124,-0.4308318,0.04416963,-0.3259853,3.125721,2.714142
75.33332,6.522243,375,183,495,502,0.09786725,0.5117328,0.1513956,-1.289299,3.115565,-0.2384589,-0.03130367,-0.4224344,0.03066096,-0.3240769,3.113342,2.727107
75.66666,6.533355,375,183,495,502,0.1087632,0.4736675,0.1278131,-1.290654,3.113831,-0.2341707,-0.04489875,-0.4321725,0.03598335,-0.3217599,3.10031,2.740724
75.99999,6.544466,375,183,495,502,0.09760785,0.4723315,0.1289158,-1.291209,3.112461,-0.2282084,-0.05210519,-0.4410163,0.05350652,-0.3187149,3.087059,2.754539
76.33333,6.555577,375,183,495,502,0.06409475,0.4815303,0.1337459,-1.29109,3.111187,-0.2220735,-0.05464587,-0.4416211,0.07058644,-0.3159031,3.073858,2.768261
76.66666,6.566689,400,197,515,496,0.03948432,0.4848107,0.1377209,-1.291041,3.110026,-0.216124,-0.05692858,-0.4406114,0.08081239,-0.3129917,3.061038,2.781592
77,6.5778,400,197,515,496,0.03948432,0.4848107,0.1377209,-1.291041,3.110026,-0.216124,-0.05692858,-0.4406114,0.08081239,-0.3129917,3.061038,2.781592
77.33334,6.588911,400,197,515,496,0.01486731,0.4744525,0.1357564,-1.290711,3.109124,-0.2106853,-0.04416749,-0.4267225,0.09598677,-0.3105118,3.049016,2.793493
77.66667,6.600022,400,197,515,496,0.02182958,0.4621198,0.1293879,-1.291354,3.107881,-0.2057164,-0.03849232,-0.4202217,0.08978635,-0.3082513,3.036251,2.806505
78.00001,6.611134,384,170,506,503,0.04662317,0.460768,0.1267735,-1.293275,3.105366,-0.1949498,-0.03922907,-0.4100382,0.08179894,-0.3036664,3.010611,2.832857
78.33334,6.622245,384,170,506,503,0.04814345,0.4590078,0.1269242,-1.293915,3.104273,-0.1896751,-0.03636432,-0.3805845,0.06756365,-0.3023114,3.000792,2.843083
78.66668,6.633356,384,170,506,503,0.04423755,0.4475382,0.131514,-1.294518,3.103503,-0.1845848,-0.02385718,-0.4207471,0.04833342,-0.3011268,2.982348,2.861778
79.00002,6.644467,384,170,506,503,0.04141307,0.4427893,0.1324296,-1.295126,3.102759,-0.1795588,-0.03968444,-0.3948442,0.08637835,-0.2981308,2.972426,2.872232
79.33335,6.655579,384,170,506,503,0.0316186,0.4421642,0.135947,-1.295389,3.102082,-0.1742709,-0.02831551,-0.3889107,0.06989039,-0.2969568,2.959696,2.885149
79.66669,6.66669,501,167,529,500,0.03625616,0.4358814,0.136793,-1.295975,3.10109,-0.1692711,-0.03333926,-0.3983504,0.06670624,-0.2951118,2.945494,2.90001
80.00002,6.677801,501,167,529,500,0.03625616,0.4358814,0.136793,-1.295975,3.10109,-0.1692711,-0.03333926,-0.3983504,0.06670624,-0.2951118,2.945494,2.90001
80.33336,6.688912,501,167,529,500,0.05449066,0.4249381,0.1343445,-1.297668,3.09954,-0.159216,-0.03705895,-0.4001472,0.05368361,-0.2921674,2.91784,2.928806
80.66669,6.700024,501,167,529,500,0.05183667,0.4234996,0.1310502,-1.298113,3.098478,-0.1539339,-0.0362691,-0.4172941,0.05048509,-0.2908134,2.901472,2.945806
81.00003,6.711135,508,166,473,498,0.05107537,0.4302327,0.1279947,-1.298785,3.097543,-0.1486555,-0.04247645,-0.4460387,0.04718105,-0.2892166,2.883032,2.965304
81.33337,6.722246,508,166,473,498,0.04580867,0.4369085,0.1267267,-1.299408,3.096532,-0.1435012,-0.05311558,-0.4701528,0.06046912,-0.2870115,2.864571,2.984949
81.6667,6.733357,508,166,473,498,0.04580867,0.4369085,0.1267267,-1.299408,3.096532,-0.1435012,-0.05311558,-0.4701528,0.06046912,-0.2870115,2.864571,2.984949
82.00004,6.744469,508,166,473,498,0.001562774,0.462822,0.1066196,-1.298161,3.093662,-0.1315596,-0.06023097,-0.4858736,0.09632878,-0.2819531,2.829124,3.022211
82.33337,6.75558,508,166,473,498,-0.04210725,0.4737123,0.1007913,-1.296556,3.092858,-0.1257023,-0.05734268,-0.4854656,0.1028625,-0.2799962,2.811495,3.040771
82.66671,6.766691,545,171,503,500,-0.06910598,0.4781666,0.09991377,-1.295334,3.092355,-0.1203163,-0.03638083,-0.479736,0.09146124,-0.2788889,2.793426,3.059155
83.00005,6.777802,545,171,503,500,-0.0775663,0.4872541,0.09708796,-1.294371,3.091442,-0.114354,-0.02375051,-0.4823366,0.06962405,-0.2783126,2.775181,3.078194
83.33338,6.788914,545,171,503,500,-0.06563044,0.498771,0.09526813,-1.294137,3.089794,-0.1078064,-0.01542458,-0.4941128,0.07090563,-0.2772436,2.75482,3.099115
83.66672,6.800025,545,171,503,500,-0.05617434,0.5069046,0.08968669,-1.293853,3.088593,-0.1016252,-0.008928925,-0.496011,0.07600994,-0.2760489,2.735347,3.119148
84.00005,6.811136,452,165,502,498,-0.04881692,0.5195022,0.09562235,-1.293704,3.086998,-0.09505035,0.006025225,-0.4959523,0.09002532,-0.2747871,2.715117,3.139383
84.33339,6.822248,452,165,502,498,-0.04881692,0.5195022,0.09562235,-1.293704,3.086998,-0.09505035,0.006025225,-0.4959523,0.09002532,-0.2747871,2.715117,3.139383
84.66673,6.833359,452,165,502,498,-0.02590305,0.5411193,0.1039078,-1.293928,3.08464,-0.0820978,0.02765629,-0.4759986,0.05584221,-0.2745474,2.678424,-3.106572
85.00006,6.84447,452,165,502,498,0.007555425,0.5512477,0.1040747,-1.294809,3.082914,-0.07561354,0.03894424,-0.5210936,0.05860978,-0.2743897,2.653059,-3.08074
85.3334,6.855581,452,165,502,498,0.02788401,0.5610334,0.1049658,-1.295853,3.081644,-0.06881395,0.04118687,-0.5016633,0.06333898,-0.2739343,2.634043,-3.061435
85.66673,6.866693,512,167,508,498,0.03437233,0.5685561,0.09908281,-1.296362,3.079907,-0.06184499,0.04578951,-0.4919811,0.06208041,-0.2738976,2.614907,-3.042181
86.00007,6.877804,512,167,508,498,0.007345319,0.5720109,0.09692293,-1.295865,3.079162,-0.05503476,0.04378876,-0.4915776,0.0537601,-0.2741144,2.594818,-3.021535
86.3334,6.888915,512,167,508,498,-0.02213734,0.5693479,0.09574503,-1.294811,3.077775,-0.04880136,0.03285027,-0.4833989,0.0237394,-0.2752377,2.577143,-3.002863
86.66674,6.900026,512,167,508,498,-0.02213734,0.5693479,0.09574503,-1.294811,3.077775,-0.04880136,0.03285027,-0.4833989,0.0237394,-0.2752377,2.577143,-3.002863
87.00008,6.911138,512,167,508,498,-0.02648592,0.5680645,0.0898487,-1.294547,3.076544,-0.04298875,0.03654322,-0.488924,0.01807611,-0.275896,2.557627,-2.982632
87.33341,6.922249,468,157,527,491,-0.02977639,0.5672048,0.09177145,-1.294152,3.074503,-0.03043354,0.03591037,-0.4719141,0.05170108,-0.2760042,2.520718,-2.944808
87.66675,6.93336,468,157,527,491,-0.03860956,0.5524275,0.09985277,-1.293838,3.074259,-0.02447551,0.03580171,-0.4629855,0.04405135,-0.276801,2.50347,-2.926982
88.00008,6.944471,468,157,527,491,-0.05023247,0.5322624,0.1185256,-1.293572,3.07494,-0.01903947,0.02276146,-0.4342492,0.01300113,-0.2782668,2.49097,-2.913339
88.33342,6.955583,468,157,527,491,-0.04575682,0.5160884,0.1251967,-1.293624,3.075058,-0.01351181,0.0218378,-0.427233,-0.001189813,-0.279608,2.476059,-2.897474
88.66676,6.966694,473,185,492,494,-0.02924451,0.4694639,0.1299006,-1.294225,3.07574,-0.009283246,0.02967748,-0.4081558,-0.002835974,-0.2807861,2.462687,-2.883717
89.00009,6.977805,473,185,492,494,-0.01414511,0.45756,0.1174206,-1.294621,3.07566,-0.004354801,0.01648319,-0.4058012,0.02074999,-0.2810141,2.447182,-2.867213
89.33343,6.988916,473,185,492,494,-0.01414511,0.45756,0.1174206,-1.294621,3.07566,-0.004354801,0.01648319,-0.4058012,0.02074999,-0.2810141,2.447182,-2.867213
89.66676,7.000028,473,185,492,494,-0.001094252,0.4228709,0.06871428,-1.295068,3.074049,0.004632303,0.04973802,-0.4314163,0.07724528,-0.281511,2.408218,-2.828285
90.0001,7.011139,473,185,492,494,0.01120237,0.3980264,0.05285241,-1.2956,3.073168,0.008589759,0.0449293,-0.4295191,0.04295141,-0.283453,2.393476,-2.812707
90.0001,7.02225,458,200,511,497,0.03976679,0.3908044,0.04182909,-1.296839,3.0722,0.01289609,0.02119905,-0.4362536,0.03478266,-0.2848725,2.377865,-2.795402
90.0001,7.033361,458,200,511,497,0.05356944,0.3896637,0.03200644,-1.297747,3.071145,0.01749697,0.01917639,-0.4343742,0.04765411,-0.2857236,2.361785,-2.778478
90.0001,7.044473,458,200,511,497,0.05880547,0.3882449,0.02903536,-1.298687,3.070411,0.02173033,0.02328467,-0.3816,0.07804418,-0.2852459,2.349838,-2.766582
90.0001,7.055584,458,200,511,497,0.04549521,0.3858302,0.02865269,-1.298908,3.069772,0.02621669,0.03194445,-0.3710438,0.07295988,-0.2861843,2.336571,-2.753059
90.0001,7.066695,610,230,467,495,0.02388796,0.3751072,0.03761013,-1.298943,3.069911,0.03009798,0.07313418,-0.3234696,0.007788599,-0.2890451,2.329095,-2.746832
90.0001,7.077806,610,230,467,495,0.02257869,0.3581735,0.03836046,-1.299326,3.069734,0.03376089,0.0674805,-0.3063798,-0.0513811,-0.2921616,2.322605,-2.739589
90.0001,7.088918,610,230,467,495,0.02257869,0.3581735,0.03836046,-1.299326,3.069734,0.03376089,0.0674805,-0.3063798,-0.0513811,-0.2921616,2.322605,-2.739589
90.0001,7.100029,610,230,467,495,0.06980842,0.3277917,0.03748038,-1.302046,3.068708,0.0404417,0.07559228,-0.2587686,-0.03997694,-0.2949824,2.307776,-2.725204
90.0001,7.11114,610,230,467,495,0.08474848,0.3245864,0.04660431,-1.303588,3.068329,0.04404762,0.06735706,-0.2564369,-0.01005334,-0.2955853,2.298088,-2.715442
90.0001,7.122252,552,210,501,498,0.0986172,0.3140332,0.05946314,-1.305333,3.068234,0.04728656,0.04198179,-0.2414832,0.02041908,-0.2954553,2.289706,-2.706289
90.0001,7.133363,552,210,501,498,0.09478806,0.3056962,0.06090355,-1.306465,3.068127,0.05043707,0.0350882,-0.2432316,0.02166636,-0.2963896,2.281344,-2.697444
90.0001,7.144474,552,210,501,498,0.09478806,0.3056962,0.06090355,-1.306465,3.068127,0.05043707,0.0350882,-0.2432316,0.02166636,-0.2963896,2.281344,-2.697444
90.0001,7.155585,552,210,501,498,0.07648154,0.2875507,0.051442,-1.3079,3.067424,0.0567264,0.03050342,-0.2574346,0.01826732,-0.2990176,2.262901,-2.678089
90.0001,7.166697,525,191,487,497,0.05216268,0.2739642,0.03325487,-1.307904,3.066793,0.0595371,0.04345557,-0.2292385,0.04418793,-0.2990059,2.25509,-2.670787
90.0001,7.177808,525,191,487,497,0.02803406,0.2618035,0.02462392,-1.307019,3.066042,0.06291452,0.04178968,-0.2004938,0.03589965,-0.2995896,2.250166,-2.666002
90.0001,7.188919,525,191,487,497,-0.01809411,0.2327013,0.0157893,-1.305628,3.065998,0.06479365,0.03363746,-0.1711183,0.01064926,-0.3005995,2.247648,-2.663223
90.0001,7.20003,525,191,487,497,-0.05878007,0.1944436,0.01127541,-1.304093,3.066268,0.06594147,0.02933529,-0.1446989,0.0009845011,-0.3012589,2.245339,-2.660558
90.0001,7.211142,525,191,487,497,-0.08022539,0.1698762,0.005488439,-1.30245,3.066168,0.06751806,0.02422701,-0.1139735,-0.008884985,-0.3017868,2.244796,-2.659929
90.0001,7.222253,421,214,490,495,-0.1006858,0.1325167,0.004252423,-1.300803,3.066535,0.06792606,0.02783176,-0.1125198,0.005507968,-0.3020669,2.240006,-2.655238
90.0001,7.233364,421,214,490,495,-0.1114653,0.0930168,0.001093052,-1.299133,3.06678,0.06804323,0.05671576,-0.1120631,0.0477142,-0.3015668,2.231945,-2.648608
90.0001,7.244475,421,214,490,495,-0.1192593,0.06337264,-0.001264967,-1.297753,3.067145,0.06797452,0.04060028,-0.08337785,0.05793383,-0.3008488,2.23007,-2.646877
90.0001,7.255587,421,214,490,495,-0.1059839,0.04520753,-0.003198717,-1.296771,3.06737,0.06824457,0.004837494,-0.0573687,0.03579012,-0.3007119,2.231686,-2.647486
90.0001,7.266698,421,214,490,495,-0.08355937,0.03867881,0.0006383006,-1.29644,3.067523,0.06851621,-0.007395882,-0.04043608,0.03713923,-0.30024,2.231272,-2.646759
90.0001,7.277809,498,238,502,499,-0.06087704,0.02903762,0.0039402,-1.296518,3.068077,0.06866322,-0.02345374,-0.01046966,0.03237695,-0.2994916,2.232883,-2.647946
90.0001,7.28892,498,238,502,499,-0.02396992,0.007206261,0.0254835,-1.297412,3.068832,0.06808478,-0.02228165,-0.01428226,0.03691167,-0.2990996,2.231445,-2.646327
90.0001,7.300032,498,238,502,499,0.02064374,-0.02080828,0.04813281,-1.299144,3.07047,0.06653801,-0.009740526,-0.02617696,0.02368514,-0.2995348,2.229124,-2.643997
90.0001,7.311143,498,238,502,499,0.04757588,-0.03735888,0.0659899,-1.30067,3.071527,0.0655372,0.01249525,-0.02091045,0.01339975,-0.2999012,2.228402,-2.643926
90.0001,7.322254,593,304,483,493,0.08814418,-0.05324383,0.08028165,-1.302954,3.072983,0.06420881,0.01522712,-0.001268035,-0.003854548,-0.3002171,2.230858,-2.646733
90.0001,7.333365,593,304,483,493,0.1241292,-0.06122713,0.09110598,-1.305486,3.073951,0.06318296,0.002974875,0.009154874,-0.05819932,-0.301832,2.236242,-2.651515
90.0001,7.344477,593,304,483,493,0.147706,-0.06542056,0.08822774,-1.307928,3.074643,0.06212569,-0.01783259,0.02074541,-0.06322281,-0.3019508,2.239829,-2.654101
90.0001,7.355588,593,304,483,493,0.1535883,-0.06868412,0.08438487,-1.309887,3.075729,0.06092567,-0.02615005,0.03215559,-0.03444069,-0.3010927,2.241412,-2.655445
90.0001,7.366699,593,304,483,493,0.1445729,-0.07613507,0.0851946,-1.311472,3.076527,0.05980448,-0.03142557,0.03789834,0.009925287,-0.2993585,2.240459,-2.654444
90.0001,7.37781,545,246,492,499,0.1347554,-0.07754959,0.0882866,-1.31284,3.077816,0.05868755,-0.02852339,0.05933431,0.01629211,-0.2984221,2.24355,-2.657762
90.0001,7.388922,545,246,492,499,0.1311016,-0.07151797,0.08928479,-1.314367,3.07862,0.05797169,-0.02200268,0.0745254,-0.03479741,-0.2993846,2.250247,-2.664403
90.0001,7.400033,545,246,492,499,0.1291721,-0.07092009,0.08507191,-1.315966,3.079527,0.05698845,-0.02957932,0.06620243,-0.08622261,-0.301098,2.256505,-2.669836
90.0001,7.411144,545,246,492,499,0.1385321,-0.06619129,0.06932352,-1.31779,3.0795,0.0563658,-0.03740539,0.05862452,-0.08070798,-0.3014016,2.259685,-2.672379
90.0001,7.422256,489,261,491,492,0.1375951,-0.06457804,0.05430626,-1.319344,3.07966,0.05550347,-0.04307141,0.05841269,-0.05243317,-0.3006219,2.261288,-2.673794
90.0001,7.433367,489,261,491,492,0.1337023,-0.06129929,0.05241831,-1.320966,3.08038,0.05476098,-0.05059605,0.05243455,0.001574873,-0.2988669,2.260384,-2.672535
90.0001,7.444478,489,261,491,492,0.1185841,-0.06064837,0.05460299,-1.322013,3.080945,0.05403075,-0.05523673,0.05631592,0.01702075,-0.2978101,2.262094,-2.673851
90.0001,7.455589,489,261,491,492,0.1001297,-0.05295142,0.05283144,-1.322868,3.081609,0.0534555,-0.05449978,0.05625359,0.01172763,-0.2973952,2.26441,-2.67576
90.0001,7.466701,489,261,491,492,0.08619606,-0.04415546,0.04704084,-1.323552,3.081892,0.05315829,-0.03279688,0.06039201,-0.008065579,-0.2977025,2.267535,-2.67912
90.0001,7.477812,454,213,500,498,0.07261432,-0.04060445,0.04028274,-1.324057,3.082355,0.05258252,-0.02228731,0.06244066,-0.02391211,-0.2979017,2.270948,-2.682618
90.0001,7.488923,454,213,500,498,0.06772409,-0.03403699,0.02656627,-1.324641,3.082192,0.05236254,-0.01364677,0.05458751,-0.03766207,-0.2984892,2.273293,-2.685012
90.0001,7.500034,454,213,500,498,0.0676889,-0.03886365,0.02319669,-1.325588,3.082388,0.05172817,-0.02129335,0.04940638,-0.03323764,-0.2982431,2.275042,-2.686327
90.0001,7.511146,454,213,500,498,0.06574377,-0.03264523,0.01821528,-1.326252,3.082309,0.05156785,-0.02091513,0.03605472,0.01763971,-0.296772,2.272591,-2.683962
90.0001,7.522257,466,224,488,497,0.06768405,-0.03344307,0.02305155,-1.32744,3.082807,0.05101765,-0.01857401,0.03609731,0.0362536,-0.2957073,2.272366,-2.68399
90.0001,7.533368,466,224,488,497,0.06195193,-0.02850093,0.0234957,-1.328125,3.08327,0.05066877,-0.02115597,0.03520012,0.02301365,-0.2955283,2.273883,-2.685318
90.0001,7.544479,466,224,488,497,0.04869967,-0.02131275,0.02677535,-1.328409,3.083622,0.05059047,-0.01236359,0.01770001,0.003018967,-0.2962133,2.273872,-2.685115
90.0001,7.555591,466,224,488,497,0.04443108,-0.01823384,0.0261452,-1.32907,3.083976,0.05032576,-0.007511918,0.02440872,-0.01150203,-0.2964817,2.275984,-2.687274
90.0001,7.566702,466,224,488,497,0.0529094,-0.00773719,0.01940113,-1.329833,3.083806,0.05049353,-0.01469908,0.0195475,-0.02101316,-0.2967401,2.277505,-2.688398
90.0001,7.577813,495,218,495,488,0.05476541,-0.00457013,0.02053697,-1.330614,3.08394,0.0504962,-0.01455933,0.02100442,-0.01779487,-0.2965835,2.278392,-2.68919
90.0001,7.588924,495,218,495,488,0.05903395,0.002167733,0.02082001,-1.331413,3.083948,0.05068848,-0.01591082,0.02784604,-0.01165374,-0.2962708,2.279899,-2.690629
90.0001,7.600036,495,218,495,488,0.06485095,0.003095614,0.02372588,-1.332463,3.084212,0.0506922,-0.00422843,0.03041003,-0.01114399,-0.2961265,2.280627,-2.691722
90.0001,7.611147,495,218,495,488,0.0669187,0.003126282,0.02425788,-1.333294,3.084284,0.05072576,0.004015559,0.02592867,-0.02390277,-0.2966293,2.281838,-2.693096
90.0001,7.622258,495,218,495,488,0.06993067,0.00677108,0.02913696,-1.334411,3.084617,0.05081951,0.005523019,0.02574531,-0.0344523,-0.2972562,2.283604,-2.695051
90.0001,7.633369,519,267,484,489,0.07038391,0.004885806,0.02769757,-1.335395,3.08488,0.05081205,0.0008763187,0.01831891,-0.04573913,-0.297956,2.285113,-2.696286
90.0001,7.644481,519,267,484,489,0.06952235,0.007475653,0.01890603,-1.336119,3.084642,0.05098089,-0.007361149,0.01265682,-0.04463889,-0.2980599,2.285684,-2.696411
90.0001,7.655592,519,267,484,489,0.05558144,0.00825873,0.009500085,-1.336604,3.084549,0.05110287,-0.01323395,0.01031954,-0.02820907,-0.2978202,2.285848,-2.696318
90.0001,7.666703,519,267,484,489,0.03828783,0.005939205,0.004203608,-1.336585,3.084457,0.05113056,0.001955405,0.003822088,0.0009505061,-0.2972519,2.283532,-2.69445
90.0001,7.677814,429,239,490,500,0.0293796,0.003149339,0.004535264,-1.336853,3.084591,0.05109487,0.008751427,0.004324656,0.000822736,-0.2973403,2.283605,-2.694747
90.0001,7.688926,429,239,490,500,0.01084981,-0.0007274952,0.007600045,-1.336508,3.084886,0.05095266,0.002503872,0.003076683,-0.0269334,-0.2981995,2.285514,-2.69632
90.0001,7.700037,429,239,490,500,0.006450211,0.001885414,0.003497705,-1.336633,3.084782,0.0510038,0.00277942,-0.008934231,-0.03420699,-0.2987215,2.285673,-2.696201
90.0001,7.711148,429,239,490,500,0.007507893,0.01096567,-0.004570095,-1.336686,3.084406,0.05140647,0.003321817,-0.01604928,-0.02431747,-0.2988903,2.284584,-2.695065
90.0001,7.72226,429,239,490,500,0.01681848,0.01470522,-0.01024576,-1.337211,3.084037,0.05164295,0.0004326906,-0.01422757,-6.637536E-06,-0.2983182,2.283138,-2.693509
90.0001,7.733371,432,237,519,495,0.01829388,0.01690451,-0.003787572,-1.337608,3.084185,0.05182352,0.001718435,-0.006662632,0.001115198,-0.2982431,2.283377,-2.693843
90.0001,7.744482,432,237,519,495,0.03615306,0.01494018,0.007535424,-1.338565,3.084355,0.05190767,0.006241777,0.008226624,-0.01034859,-0.2985872,2.285465,-2.696282
90.0001,7.755593,432,237,519,495,0.06154191,0.01506571,0.01565564,-1.340039,3.084485,0.05190608,0.01301242,0.006746888,-0.02119305,-0.2991252,2.28617,-2.69721
90.0001,7.766705,432,237,519,495,0.07635994,0.017727,0.01791484,-1.341316,3.08442,0.05215641,0.01544721,0.008853785,-0.03701266,-0.2998932,2.287645,-2.698773
90.0001,7.777816,455,239,483,495,0.09885625,0.01751581,0.02052615,-1.343093,3.084351,0.05231886,0.01041492,0.005868647,-0.03338271,-0.3001952,2.288164,-2.69933
90.0001,7.788927,455,239,483,495,0.1050714,0.01935924,0.01793212,-1.344489,3.084243,0.05248931,0.005328013,-0.003234945,-0.01888484,-0.3001361,2.287113,-2.698161
90.0001,7.800038,455,239,483,495,0.09756217,0.02094604,0.02504544,-1.345464,3.084446,0.0527503,0.005975521,0.007875435,0.001463303,-0.2994778,2.287114,-2.698436
90.0001,7.81115,455,239,483,495,0.08583714,0.01394199,0.02384432,-1.34624,3.08465,0.0525937,0.001834873,0.01435367,0.00291481,-0.299236,2.287851,-2.699128
90.0001,7.822261,455,239,483,495,0.07024188,0.005301393,0.02471828,-1.34657,3.084974,0.05235508,-0.004544535,0.01457533,-0.01953624,-0.2997931,2.289811,-2.700791
90.0001,7.833372,432,226,506,493,0.06119436,0.003808059,0.01748465,-1.347072,3.084954,0.05237213,0.004765224,0.002949996,-0.02552255,-0.3003316,2.289389,-2.700521
90.0001,7.844483,432,226,506,493,0.05215117,0.005852717,0.001957759,-1.347313,3.084482,0.05250955,0.01347364,-0.001802456,-0.01449492,-0.3003758,2.28836,-2.699854
90.0001,7.855595,432,226,506,493,0.03139214,0.006125918,-0.0069577,-1.347104,3.084213,0.05258998,0.01157109,0.005473045,-0.0148939,-0.3003833,2.28933,-2.700859
90.0001,7.866706,432,226,506,493,0.01680651,0.006473956,-0.01419909,-1.34696,3.083974,0.05258305,0.002315016,0.01083004,-0.01524937,-0.3004009,2.290501,-2.701844
90.0001,7.877817,461,186,454,495,-0.002997979,0.004278291,-0.01436095,-1.346326,3.083955,0.05264537,-0.0009474419,0.02346627,-0.01378908,-0.3002576,2.292337,-2.703787
90.0001,7.888928,461,186,454,495,-0.01010474,-0.004061483,-0.01220743,-1.346116,3.084022,0.0523929,0.005042989,0.02115755,-0.01610395,-0.3004525,2.293147,-2.7048
90.0001,7.90004,461,186,454,495,-0.004267275,-0.01115051,-0.0130388,-1.346173,3.083897,0.05207492,0.008838635,0.01379478,-0.01219936,-0.3006997,2.293083,-2.705037
90.0001,7.911151,461,186,454,495,0.01982601,-0.01205148,-0.01227816,-1.347122,3.083688,0.05185015,0.01017628,0.005121917,-0.01185352,-0.3009084,2.292637,-2.704666
90.0001,7.922262,461,186,454,495,0.0277156,-0.007545603,-0.01717443,-1.347577,3.08326,0.05187785,0.01249964,-0.005525269,-0.0124103,-0.3012621,2.291907,-2.704027
90.0001,7.933373,432,203,521,492,0.02607264,-0.006880105,-0.01525584,-1.347663,3.083145,0.05182032,0.0163393,0.0004191361,-0.01625193,-0.3015029,2.292877,-2.705331
90.0001,7.944485,432,203,521,492,0.02074305,-0.007341881,-0.007818926,-1.34779,3.083256,0.05169622,0.01211878,0.005844077,-0.02772875,-0.3019513,2.294452,-2.706833
90.0001,7.955596,432,203,521,492,0.01312355,-0.01166642,-0.003942307,-1.347785,3.083352,0.05147251,0.002210151,0.0278992,-0.03280606,-0.3020349,2.297599,-2.709949
90.0001,7.966707,432,203,521,492,0.01653872,-0.01072111,-0.008455132,-1.347991,3.083111,0.05137184,0.0007989435,0.01808113,-0.01776659,-0.3019268,2.297282,-2.709615
90.0001,7.977818,432,203,521,492,0.0253264,-0.01391446,-0.01228013,-1.348486,3.082906,0.05105173,0.002025187,0.009948397,-0.009903742,-0.3019353,2.29627,-2.708799
90.0001,7.98893,439,218,511,497,0.02897143,-0.01717344,-0.01750705,-1.348857,3.082583,0.05071511,0.003537946,0.008969482,-0.001045376,-0.301717,2.295988,-2.708688
90.0001,8.000041,439,218,511,497,0.03689628,-0.01360192,-0.01027841,-1.34944,3.082511,0.05072363,0.001239825,0.002325435,-0.01419152,-0.3021468,2.296476,-2.709008
90.0001,8.011152,439,218,511,497,0.03823658,-0.01080222,-0.007197732,-1.349975,3.082334,0.05069806,-0.00153616,0.008233375,-0.01255067,-0.3021351,2.297021,-2.709528
90.0001,8.022264,439,218,511,497,0.04637092,-0.01213916,0.003636168,-1.350779,3.082554,0.05050951,-0.001288031,0.014331,-0.0244711,-0.302509,2.298944,-2.711405
