ref,t,emg1,emg2,emg1raw,emg2raw,aDotS,bDotS,gDotS,aS,bS,gS,aDotSH,bDotSH,gDotSH,aSH,bSH,gSH
0,0,118,185,500,499,0.166921,-0.09306853,-0.1537768,-1.406897,3.091792,-1.602663,0.07268158,0.06694853,0.09248479,-1.032185,-2.666157,1.662833
0,0.01111111,123,213,501,495,0.1666482,-0.1170961,-0.1599851,-1.409289,3.093079,-1.605149,0.07889679,0.07680458,0.1043343,-1.033607,-2.664866,1.660955
0,0.02222222,123,213,501,495,0.1712398,-0.1387023,-0.1698732,-1.41206,3.094699,-1.607616,0.08362563,0.07960352,0.1186214,-1.034931,-2.66366,1.658752
0,0.03333334,123,213,501,495,0.1750893,-0.1689529,-0.1902654,-1.414491,3.097558,-1.610172,0.09492663,0.06733682,0.1223892,-1.036534,-2.663224,1.657005
0,0.04444445,123,213,501,495,0.176141,-0.176322,-0.1984238,-1.416753,3.099823,-1.612491,0.09643412,0.06328933,0.1181568,-1.038522,-2.662569,1.655047
0,0.05555556,123,213,501,495,0.1729714,-0.2205625,-0.2352056,-1.419173,3.103906,-1.616113,0.0826475,0.06801268,0.1063581,-1.039393,-2.661605,1.653984
0,0.06666667,116,175,500,495,0.1723229,-0.2409518,-0.2517873,-1.42145,3.107376,-1.619272,0.08290757,0.08069652,0.09965216,-1.040844,-2.660439,1.652825
0,0.07777778,116,175,500,495,0.1688387,-0.2729532,-0.268728,-1.423775,3.111722,-1.622568,0.08394605,0.09434653,0.1015183,-1.042336,-2.659003,1.651326
0,0.08888889,116,175,500,495,0.1682273,-0.3001691,-0.2835925,-1.426067,3.116182,-1.625853,0.08551147,0.109353,0.1109999,-1.04399,-2.65722,1.649475
0,0.1,116,175,500,495,0.1676183,-0.3161742,-0.2896063,-1.428311,3.120572,-1.629024,0.08952758,0.1383283,0.1375938,-1.046082,-2.654519,1.646806
0,0.1111111,111,192,500,494,0.1664397,-0.3290214,-0.2949122,-1.430791,3.124909,-1.632182,0.08275712,0.1511368,0.1644085,-1.047653,-2.6517,1.643704
0,0.1222222,111,192,500,494,0.1699822,-0.3361457,-0.2978581,-1.433195,3.129185,-1.635295,0.07960793,0.150579,0.1678494,-1.04908,-2.649566,1.641304
0,0.1333333,111,192,500,494,0.1648889,-0.3465907,-0.30289,-1.435407,3.133775,-1.638547,0.05492033,0.1278102,0.1404735,-1.049236,-2.648544,1.640532
0,0.1444445,111,192,500,494,0.1710785,-0.3515528,-0.3108548,-1.437985,3.138234,-1.641927,0.0583145,0.1031936,0.113774,-1.050205,-2.648149,1.63993
0,0.1555556,111,192,500,494,0.1794716,-0.3599325,-0.3228612,-1.440686,-3.140294,-1.645537,0.0789772,0.09106633,0.09217501,-1.051779,-2.648058,1.639419
0,0.1666667,109,190,501,490,0.182919,-0.356435,-0.3280941,-1.443077,-3.135897,-1.649002,0.08895354,0.09729938,0.0873218,-1.053436,-2.647059,1.638264
0,0.1777778,109,190,501,490,0.1883435,-0.3565307,-0.3273644,-1.44576,-3.131549,-1.65229,0.08380421,0.1094246,0.09877045,-1.0548,-2.645344,1.636585
0,0.1888889,109,190,501,490,0.1990689,-0.3538639,-0.320348,-1.448567,-3.127177,-1.655311,0.07665965,0.1269042,0.120252,-1.056214,-2.642988,1.63436
0,0.2,109,190,501,490,0.2046132,-0.3463889,-0.3190166,-1.451253,-3.123015,-1.658488,0.06492701,0.1278575,0.131366,-1.057143,-2.640988,1.632223
0,0.2111111,105,157,500,498,0.2133502,-0.3440122,-0.3142438,-1.454402,-3.11884,-1.661681,0.05127534,0.1259166,0.1406095,-1.057928,-2.63891,1.630024
0,0.2222222,105,157,500,498,0.2208949,-0.3345804,-0.3068322,-1.457393,-3.114939,-1.664653,0.04824884,0.1169298,0.1306784,-1.058766,-2.637595,1.628561
0,0.2333333,105,157,500,498,0.2314309,-0.3305525,-0.2948983,-1.460646,-3.111053,-1.66731,0.05058466,0.09524699,0.110174,-1.05956,-2.637033,1.627837
0,0.2444444,105,157,500,498,0.2344787,-0.3343516,-0.2914571,-1.463555,-3.106798,-1.670105,0.06456386,0.08706367,0.09576938,-1.060894,-2.636487,1.627041
0,0.2555556,105,157,500,498,0.2395234,-0.3131741,-0.2825004,-1.466657,-3.103543,-1.672804,0.07532018,0.07792781,0.08426958,-1.062175,-2.636159,1.626273
0,0.2666667,98,152,500,491,0.2347574,-0.2993896,-0.2752794,-1.469518,-3.100138,-1.675423,0.07788432,0.06980608,0.07902905,-1.06317,-2.635574,1.625381
0,0.2777778,98,152,500,491,0.2315058,-0.2741978,-0.2611501,-1.472186,-3.097538,-1.67767,0.07535947,0.06581052,0.07571763,-1.064127,-2.635001,1.62449
0,0.2888889,98,152,500,491,0.2169474,-0.2158441,-0.2169653,-1.474343,-3.096345,-1.678973,0.07013834,0.06013513,0.07718877,-1.064939,-2.634335,1.623452
0,0.3,98,152,500,491,0.2158781,-0.1894141,-0.1948545,-1.476749,-3.094665,-1.680469,0.06482963,0.05664992,0.08199171,-1.065695,-2.633558,1.622292
0,0.3111111,98,152,500,491,0.2079296,-0.1258998,-0.1594352,-1.478906,-3.094776,-1.681385,0.05684063,0.04933842,0.08109624,-1.066349,-2.633032,1.621314
0,0.3222222,95,145,500,501,0.2104232,-0.09390758,-0.1427655,-1.481288,-3.094431,-1.682552,0.05456472,0.0489573,0.07682082,-1.067051,-2.632365,1.620501
0,0.3333333,95,145,500,501,0.1926036,-0.04019907,-0.1195585,-1.482896,-3.095412,-1.683378,0.06384556,0.03963128,0.0453358,-1.068052,-2.632827,1.620895
0,0.3444445,95,145,500,501,0.1831042,-0.01322458,-0.1074481,-1.484753,-3.095814,-1.684438,0.07884177,0.03533825,0.02766823,-1.069346,-2.633066,1.620965
0,0.3555556,95,145,500,501,0.1545075,0.02818927,-0.0760957,-1.485545,-3.097372,-1.684559,0.1063553,0.03296201,0.01238416,-1.071194,-2.633858,1.621275
0,0.3666667,95,145,500,501,0.1545075,0.02818927,-0.0760957,-1.485545,-3.097372,-1.684559,0.1063553,0.03296201,0.01238416,-1.071194,-2.633858,1.621275
0,0.3777778,90,159,500,498,0.120354,0.0696928,-0.04051892,-1.487341,-3.09969,-1.685027,0.1058851,0.04399414,0.02332656,-1.073994,-2.633568,1.620292
0,0.3888889,90,159,500,498,0.1089687,0.08221277,-0.02934797,-1.488296,-3.100828,-1.685147,0.09358305,0.04589226,0.03096522,-1.074934,-2.633186,1.619559
0,0.4,90,159,500,498,0.09082017,0.1024697,-0.01008255,-1.488602,-3.102693,-1.684869,0.07305345,0.04294215,0.04340687,-1.075221,-2.632465,1.618527
0,0.4111111,90,159,500,498,0.07400925,0.1174038,0.003730094,-1.488933,-3.10436,-1.684774,0.060902,0.03837204,0.04584085,-1.07562,-2.632066,1.6179
0,0.4222222,86,164,498,499,0.06534937,0.1180866,0.009206813,-1.489291,-3.105761,-1.68466,0.05721318,0.02998578,0.0444762,-1.076103,-2.632022,1.61738
0,0.4333333,86,164,498,499,0.04411224,0.1146508,0.01600666,-1.489161,-3.106851,-1.68451,0.06245697,0.008649357,0.04128172,-1.076656,-2.632725,1.617073
0,0.4444444,86,164,498,499,0.02527482,0.1058661,0.02281513,-1.48879,-3.10768,-1.684081,0.06067775,-0.0030091,0.04041757,-1.077028,-2.633163,1.616517
0,0.4555556,86,164,498,499,0.007670756,0.09341526,0.02671687,-1.488311,-3.108373,-1.683803,0.04396302,-0.01247409,0.03240811,-1.077046,-2.633751,1.61631
0,0.4666667,86,164,498,499,-0.007816644,0.08128457,0.0295933,-1.487917,-3.108898,-1.683546,0.02511189,-0.01206811,0.02670404,-1.076696,-2.633568,1.616231
0,0.4777778,79,159,499,497,-0.01976657,0.06159782,0.02768731,-1.48729,-3.108926,-1.683311,-0.01012893,-0.0131261,0.03535311,-1.075865,-2.63322,1.615153
0,0.4888889,79,159,499,497,-0.03256421,0.03562898,0.02446784,-1.486608,-3.108409,-1.683086,-0.03469257,-0.0156247,0.0311454,-1.074817,-2.632858,1.614898
0,0.5,79,159,499,497,-0.0471699,0.000452189,0.01821601,-1.485732,-3.107289,-1.682944,-0.03826687,-0.01394259,0.0149548,-1.074297,-2.63285,1.615255
0,0.5111111,79,159,499,497,-0.05402873,-0.01774979,0.02091885,-1.484996,-3.106494,-1.68263,-0.02113882,-0.005473136,-0.01088254,-1.074721,-2.633441,1.616564
0,0.5222223,81,173,496,492,-0.06486705,-0.04164918,0.01367639,-1.484043,-3.105151,-1.682589,-0.008039314,-0.0004656799,-0.01809011,-1.0751,-2.633673,1.617059
0,0.5333334,81,173,496,492,-0.06558835,-0.05207256,0.01146813,-1.483424,-3.104147,-1.682447,0.004037574,0.00844905,-0.006739274,-1.075212,-2.633616,1.6168
0,0.5444446,81,173,496,492,-0.06552632,-0.05347293,0.007883226,-1.48285,-3.103337,-1.682353,-0.02170949,0.01643603,0.01285524,-1.074446,-2.632363,1.615793
0,0.5555557,81,173,496,492,-0.06333002,-0.05480151,0.004313872,-1.482309,-3.102643,-1.682379,-0.04975729,0.01350515,0.01776888,-1.073137,-2.631503,1.615502
0,0.5666668,81,173,496,492,-0.05391714,-0.0484008,0.001339623,-1.482,-3.102191,-1.682425,-0.0540399,0.008137483,0.01304738,-1.072584,-2.63118,1.615618
0,0.577778,93,136,497,499,-0.05398158,-0.04923675,0.005498123,-1.481451,-3.101615,-1.682172,-0.05062498,0.002379283,0.009725153,-1.072098,-2.631074,1.615631
0,0.5888891,93,136,497,499,-0.0466602,-0.04395177,0.002283636,-1.481122,-3.101195,-1.682222,-0.0439189,0.003622025,0.009692887,-1.071932,-2.630767,1.615584
0,0.6000003,93,136,497,499,-0.04256113,-0.03941004,0.002161708,-1.480678,-3.100892,-1.682153,-0.03754233,0.01578511,0.009644977,-1.072015,-2.630141,1.615452
0,0.6111114,93,136,497,499,-0.03615684,-0.03855276,-0.0008928487,-1.480515,-3.100468,-1.682217,-0.03270613,0.03258371,0.0072116,-1.072232,-2.629147,1.615337
0,0.6222225,111,175,496,498,-0.03295582,-0.03608274,-0.006901602,-1.480284,-3.100133,-1.682431,-0.03331784,0.04610011,0.009579143,-1.072338,-2.628013,1.615077
0,0.6333337,111,175,496,498,-0.02752391,-0.03882509,-0.008545536,-1.480187,-3.099568,-1.682515,-0.03438776,0.06044,0.01482862,-1.072409,-2.626637,1.614586
0,0.6444448,111,175,496,498,-0.02115599,-0.0390744,-0.006381417,-1.480121,-3.099126,-1.682477,-0.0307647,0.05649606,0.01579203,-1.072402,-2.625932,1.614264
0,0.655556,111,175,496,498,-0.01255055,-0.04113053,-0.005666469,-1.480443,-3.09861,-1.682524,-0.02488991,0.0550111,0.0148163,-1.0726,-2.625274,1.614034
0,0.6666671,111,175,496,498,-0.007409983,-0.03598331,-0.003456505,-1.480452,-3.098374,-1.682526,-0.005435666,0.04943166,0.008520037,-1.073188,-2.625099,1.614006
0,0.6777782,140,139,495,498,-0.004274473,-0.03358311,-0.004015031,-1.480518,-3.098081,-1.682555,-0.006467186,0.04493087,0.008055922,-1.073265,-2.624679,1.613897
0,0.6888894,140,139,495,498,0.003001496,-0.02837522,-0.001770922,-1.480724,-3.097891,-1.682534,-0.002936706,0.043154,0.005175391,-1.073467,-2.6243,1.613916
0,0.7000005,140,139,495,498,0.005177861,-0.02913056,-0.003002421,-1.480888,-3.097545,-1.682567,-0.005624669,0.03933444,0.004241651,-1.073472,-2.62394,1.613878
0,0.7111117,140,139,495,498,0.01161776,-0.02975639,-0.004171417,-1.481252,-3.097147,-1.682586,-0.009091094,0.03892486,0.006161077,-1.073469,-2.623518,1.613799
0,0.7222228,140,139,495,498,0.01621865,-0.03878892,-0.007115075,-1.481684,-3.096261,-1.682571,-0.01307581,0.03100256,0.003813374,-1.073262,-2.623406,1.613843
0,0.7333339,155,114,495,498,0.01744948,-0.04269611,-0.009011749,-1.481978,-3.095693,-1.682649,-0.002714965,0.03440289,-0.001019443,-1.073712,-2.623187,1.613981
0,0.7444451,155,114,495,498,0.01960495,-0.04218009,-0.01106802,-1.482227,-3.095252,-1.682825,0.001449505,0.03575879,-0.001524135,-1.07409,-2.622932,1.613963
0,0.7555562,155,114,495,498,0.02066257,-0.0408785,-0.0118628,-1.482598,-3.094884,-1.682881,0.01364503,0.02969097,-0.01682777,-1.074576,-2.623479,1.614741
0,0.7666674,155,114,495,498,0.02040553,-0.03359494,-0.01032113,-1.482774,-3.094607,-1.682862,0.02210303,0.03635065,-0.01499553,-1.0753,-2.623261,1.614889
0,0.7777785,165,136,495,500,0.02104877,-0.02061504,-0.009765425,-1.483058,-3.094741,-1.682986,0.02047616,0.03703179,-0.01309735,-1.075662,-2.622992,1.614962
0,0.7888896,165,136,495,500,0.02592817,-0.007706506,-0.008118475,-1.48342,-3.09504,-1.683095,0.0123684,0.04661913,-0.004541092,-1.075904,-2.622135,1.614648
0,0.8000008,165,136,495,500,0.0337044,0.01216805,-0.00282594,-1.483823,-3.095719,-1.683082,0.01098296,0.04689164,-0.004069986,-1.076215,-2.621708,1.614626
0,0.8111119,165,136,495,500,0.03251236,0.01483267,-0.000107715,-1.484188,-3.095995,-1.683037,0.01634923,0.03787436,-0.002145777,-1.076564,-2.621787,1.614599
0,0.8222231,165,136,495,500,0.03662935,0.0200315,-0.003356542,-1.484736,-3.09628,-1.683145,0.02235065,0.02975708,-0.01070099,-1.076977,-2.622056,1.614921
0,0.8333342,168,147,495,494,0.03900544,0.01174278,0.0003581491,-1.485333,-3.096215,-1.683017,0.02298254,0.02233809,-0.01877101,-1.077234,-2.622366,1.615467
0,0.8444453,168,147,495,494,0.03502878,0.004519136,-0.002252606,-1.485572,-3.096008,-1.683104,0.02805992,0.02415707,-0.02643081,-1.077885,-2.622574,1.616126
0,0.8555565,168,147,495,494,0.03254497,-0.01286103,-0.008052153,-1.48599,-3.095355,-1.683366,0.02627773,0.03142295,-0.019342,-1.078355,-2.622182,1.616106
0,0.8666676,168,147,495,494,0.03198553,-0.02517696,-0.01169618,-1.486314,-3.09476,-1.683543,0.02907132,0.03312235,-0.007463076,-1.078989,-2.621852,1.6159
0,0.8777788,166,169,495,500,0.03105188,-0.02855048,-0.01130482,-1.486666,-3.094359,-1.683597,0.02604669,0.03411416,-0.002710646,-1.079384,-2.621581,1.615804
0,0.8888899,166,169,495,500,0.02884171,-0.02631905,-0.01194456,-1.486809,-3.094173,-1.683738,0.02779862,0.02901843,-0.006485892,-1.079779,-2.621676,1.615983
0,0.900001,166,169,495,500,0.0328392,-0.02010685,-0.00955312,-1.487131,-3.094122,-1.68385,0.02873118,0.01904064,-0.007346632,-1.080034,-2.621925,1.616047
0,0.9111122,166,169,495,500,0.03059143,-0.01726816,-0.007886733,-1.487527,-3.093999,-1.683893,0.02839737,0.01330551,-0.007294443,-1.08024,-2.622151,1.616159
0,0.9222233,166,169,495,500,0.02904508,-0.00583724,-0.005539746,-1.487678,-3.094241,-1.683973,0.02898471,0.008130594,-0.004859252,-1.080518,-2.622332,1.616086
0,0.9333345,161,154,496,496,0.02893135,-0.00248007,-0.005944516,-1.488143,-3.094254,-1.684155,0.03029026,0.001767507,0.002826587,-1.080737,-2.622539,1.615812
0,0.9444456,161,154,496,496,0.02753959,0.004132164,-0.001328886,-1.488361,-3.094476,-1.684081,0.03246469,-0.001923788,0.004298637,-1.081111,-2.62271,1.615701
0,0.9555568,161,154,496,496,0.02936968,0.01217433,-0.002938054,-1.488736,-3.094841,-1.684236,0.02907729,-0.006660156,0.006726035,-1.081222,-2.622919,1.615547
0,0.9666679,161,154,496,496,0.02797922,0.01921973,-0.000413076,-1.488898,-3.095261,-1.684196,0.02636672,-0.0104726,0.005810676,-1.081307,-2.623177,1.615517
0,0.977779,153,142,496,497,0.02589087,0.01809756,-0.0006570979,-1.489104,-3.095432,-1.684243,0.02572986,-0.01356816,0.01060326,-1.081427,-2.623417,1.615269
0,0.9888902,153,142,496,497,0.02575655,0.02144472,-0.001063989,-1.489421,-3.095716,-1.684272,0.02780702,-0.01294135,0.00679672,-1.081767,-2.623687,1.615308
0,1.000001,153,142,496,497,0.02006034,0.02913469,0.002656145,-1.489437,-3.096216,-1.684172,0.03572698,-0.01385793,0.004445688,-1.08225,-2.624154,1.615304
0,1.011112,153,142,496,497,0.0210322,0.03149131,0.002045137,-1.489741,-3.096732,-1.684224,0.03956424,-0.02039519,0.01023716,-1.08254,-2.624636,1.61503
0,1.022224,153,142,496,497,0.0218757,0.03760215,-0.001049877,-1.489937,-3.097218,-1.684294,0.04264528,-0.02360434,0.006954487,-1.08288,-2.625214,1.61505
0,1.033335,143,156,495,495,0.01835251,0.04455756,0.00143902,-1.489992,-3.097911,-1.684304,0.04007782,-0.0234616,0.006480604,-1.083103,-2.625612,1.614976
0,1.044446,143,156,495,495,0.01591197,0.05283931,-0.002306145,-1.489967,-3.098695,-1.684456,0.03562286,-0.02219977,0.006927658,-1.082936,-2.625998,1.614966
0,1.055557,143,156,495,495,0.01484042,0.05301166,-0.003362329,-1.490072,-3.099291,-1.684583,0.03036857,-0.01532329,0.008755461,-1.083133,-2.626033,1.614804
0,1.066668,143,156,495,495,0.01260833,0.05437341,0.0001531201,-1.4903,-3.099979,-1.684518,0.02664639,-0.01531182,0.007321804,-1.083184,-2.626343,1.61479
0,1.077779,132,128,497,498,0.01158851,0.05371451,-0.002154313,-1.490352,-3.100552,-1.68469,0.02558022,-0.0198811,-0.0002446496,-1.083215,-2.626893,1.615058
0,1.08889,132,128,497,498,0.009722518,0.0469441,-0.001365153,-1.490252,-3.100898,-1.684814,0.03302089,-0.01996498,0.0002578404,-1.083684,-2.627546,1.615062
0,1.100002,132,128,497,498,0.006442056,0.04932757,-0.003062936,-1.4903,-3.101548,-1.684988,0.03433428,-0.01588702,0.001650183,-1.08401,-2.62785,1.614996
0,1.111113,132,128,497,498,0.008755904,0.04545326,-0.004932281,-1.490488,-3.101796,-1.685047,0.02912121,-0.01114288,0.007302227,-1.084169,-2.627824,1.614737
0,1.122224,132,128,497,498,0.006732506,0.04348461,-0.00641658,-1.490473,-3.102192,-1.684962,0.02163417,-0.008861942,0.01011944,-1.084116,-2.627876,1.614543
0,1.133335,119,136,497,498,0.007686882,0.04518996,-0.003890066,-1.490547,-3.102776,-1.685017,0.01239478,-0.01205761,0.008709534,-1.083911,-2.627974,1.614454
0,1.144446,119,136,497,498,0.007727476,0.04414884,-0.004097375,-1.490535,-3.103217,-1.685092,0.01167453,-0.01085362,0.005838943,-1.08393,-2.62804,1.614428
0,1.155557,119,136,497,498,0.00453006,0.04379896,-0.003090852,-1.490476,-3.103648,-1.685152,0.01821366,-0.01157329,-0.003187009,-1.084276,-2.628574,1.614814
0,1.166668,119,136,497,498,0.002862615,0.03285694,-0.003165626,-1.490509,-3.103761,-1.685319,0.02353865,-0.0101804,-0.007471843,-1.084598,-2.628805,1.614984
0,1.17778,104,119,497,497,0.0060863,0.03131157,-0.0002103113,-1.490631,-3.104088,-1.685277,0.02339008,-0.01419925,-0.01265371,-1.084721,-2.629313,1.615324
0,1.188891,104,119,497,497,0.000210868,0.01870752,0.001539288,-1.490451,-3.103915,-1.685182,0.01823318,-0.01170078,-0.01269528,-1.084648,-2.629634,1.615498
0,1.200002,104,119,497,497,0.0004198168,0.0147499,-0.0003604687,-1.490744,-3.103994,-1.685261,0.01943472,-0.01376131,-0.01266046,-1.084782,-2.630006,1.615671
0,1.211113,104,119,497,497,0.0024867,0.01524531,0.003009226,-1.490816,-3.104178,-1.685159,0.00678425,-0.00893787,-0.007514939,-1.084532,-2.629978,1.615633
0,1.222224,104,119,497,497,0.002515503,0.01335251,0.006965125,-1.490815,-3.104355,-1.685097,0.00754304,-0.01235265,-0.00794672,-1.084549,-2.630157,1.615798
0,1.233335,95,114,498,495,0.007499332,0.0208844,0.008519377,-1.490984,-3.104802,-1.685037,0.009829136,-0.009946076,-0.009875268,-1.084669,-2.630349,1.615977
0,1.244446,95,114,498,495,0.008556277,0.02050482,0.01061386,-1.491114,-3.105007,-1.68493,0.01046204,-0.01745246,-0.0202492,-1.08455,-2.630946,1.616564
0,1.255558,95,114,498,495,0.008601295,0.01925117,0.0114414,-1.491183,-3.105228,-1.68479,0.007036654,-0.02003249,-0.02164868,-1.084406,-2.631329,1.616904
0,1.266669,95,114,498,495,0.007716549,0.01418698,0.01474508,-1.49132,-3.105257,-1.684618,0.008152965,-0.01770428,-0.01977063,-1.084414,-2.63164,1.617123
0,1.27778,95,114,498,495,0.007857023,0.01084925,0.01515121,-1.491404,-3.105323,-1.684442,0.006303852,-0.01871281,-0.01499764,-1.084329,-2.631895,1.617166
0,1.288891,105,140,497,498,0.00616185,0.00095524,0.01530197,-1.491634,-3.105165,-1.684362,0.005492782,-0.01309591,-0.01364505,-1.084375,-2.631943,1.617271
0,1.300002,105,140,497,498,0.001945007,-0.0009023736,0.01816729,-1.49163,-3.105187,-1.684077,0.01096443,-0.00767732,-0.0127491,-1.08465,-2.632061,1.617392
0,1.311113,105,140,497,498,0.005086305,7.4093E-05,0.01946358,-1.491781,-3.105266,-1.68384,0.02083597,-0.01195032,-0.01931553,-1.084964,-2.632636,1.617883
0,1.322224,105,140,497,498,0.006034201,0.004516169,0.01384236,-1.491847,-3.105464,-1.683866,0.02164508,-0.01756485,-0.02065649,-1.084852,-2.633141,1.618238
0,1.333336,113,133,496,497,0.006772237,0.01207849,0.0142801,-1.491937,-3.105838,-1.683717,0.00707119,-0.020088,-0.02400152,-1.084439,-2.633425,1.618633
0,1.344447,113,133,496,497,0.006638878,0.01541962,0.01385828,-1.492092,-3.106059,-1.68367,-0.005035454,-0.01838389,-0.02501995,-1.084154,-2.633549,1.61902
0,1.355558,113,133,496,497,0.006917793,0.008742111,0.01468537,-1.492155,-3.106021,-1.68346,-0.006192317,-0.01849483,-0.02359181,-1.083979,-2.63379,1.619271
0,1.366669,113,133,496,497,0.006034917,0.003691613,0.01800368,-1.492321,-3.106001,-1.683229,-0.006183615,-0.01849999,-0.02359005,-1.083828,-2.634071,1.619578
0,1.37778,113,133,496,497,0.006371641,-0.00340018,0.01549585,-1.492412,-3.105783,-1.683107,-0.006174915,-0.01850513,-0.0235883,-1.083678,-2.634353,1.619886
0,1.388891,117,162,497,497,0.002366476,-0.008375938,0.01229827,-1.49244,-3.105651,-1.683176,-0.003677574,-0.007937167,-0.01040611,-1.083884,-2.633569,1.619207
0,1.400002,117,162,497,497,0.003473777,-0.009371508,0.01210221,-1.49246,-3.105585,-1.683053,-0.007826082,-0.009305511,-0.01230756,-1.083618,-2.633723,1.619552
0,1.411114,117,162,497,497,0.0002793577,-0.009507511,0.01206207,-1.492388,-3.105491,-1.682904,-0.01262844,-0.01169974,-0.01800578,-1.083258,-2.634058,1.620189
0,1.422225,117,162,497,497,-0.002958631,-0.008599022,0.01223304,-1.49235,-3.105433,-1.682716,-0.004096668,-0.009344476,-0.0132478,-1.083344,-2.634098,1.620063
0,1.433336,119,167,496,496,-0.002235755,-0.001870207,0.01684103,-1.492343,-3.105628,-1.682434,-0.00154361,-0.009449519,-0.01037909,-1.083338,-2.634237,1.620117
0,1.444447,119,167,496,496,-0.003255529,-0.003164059,0.01766849,-1.492342,-3.105587,-1.682162,-0.003795695,-0.01197128,-0.01558836,-1.083024,-2.63421,1.620614
0,1.455558,119,167,496,496,-0.00458771,0.003472088,0.01681385,-1.492237,-3.105822,-1.682039,-0.005109785,-0.005566871,-0.0161669,-1.082983,-2.63415,1.62082
0,1.466669,119,167,496,496,-0.003435738,0.001431215,0.0164123,-1.492161,-3.105803,-1.681867,-0.01071023,-0.004509163,-0.0190628,-1.082636,-2.634134,1.621313
0,1.47778,119,167,496,496,-0.001273634,-0.0001425678,0.01936537,-1.492189,-3.105815,-1.681564,-0.008259112,-0.008691607,-0.02375346,-1.082534,-2.634517,1.621763
0,1.488891,117,169,497,494,-0.007514993,-0.003120213,0.01657117,-1.491942,-3.10567,-1.681492,-0.007752681,-0.009568201,-0.02659739,-1.082498,-2.634767,1.622328
0,1.500003,117,169,497,494,-0.01080096,-0.001363738,0.01799345,-1.491789,-3.105759,-1.681258,-0.009375893,-0.01928677,-0.02073196,-1.082043,-2.635004,1.62238
0,1.511114,117,169,497,494,-0.007638811,0.0004354169,0.01510643,-1.491778,-3.105821,-1.681165,-0.01674895,-0.02145364,-0.01977312,-1.081604,-2.635211,1.622692
0,1.522225,117,169,497,494,-0.008770162,0.0004024885,0.02052598,-1.49163,-3.105808,-1.680785,-0.01820334,-0.01901709,-0.02076541,-1.081304,-2.635309,1.622767
0,1.533336,107,159,497,493,-0.01222522,0.00634258,0.02278224,-1.491413,-3.106096,-1.680421,-0.01131151,-0.01599208,-0.01888279,-1.08135,-2.635474,1.622973
0,1.544447,107,159,497,493,-0.01143563,0.01162724,0.02925984,-1.491297,-3.106435,-1.679964,-0.008002806,-0.01738684,-0.02027842,-1.081277,-2.635868,1.62333
0,1.555558,107,159,497,493,-0.01071054,0.01962215,0.03301266,-1.491174,-3.106923,-1.679555,-0.007889096,-0.01338842,-0.01748241,-1.081199,-2.635906,1.62346
0,1.566669,107,159,497,493,-0.01075467,0.01985748,0.03739291,-1.491031,-3.10721,-1.67905,-0.01373855,-0.0119184,-0.01894995,-1.080826,-2.635942,1.623541
0,1.577781,107,159,497,493,-0.01205307,0.02589425,0.03965739,-1.490818,-3.107754,-1.678599,-0.01541462,-0.01745515,-0.02315609,-1.080471,-2.636337,1.623994
0,1.588892,101,141,498,498,-0.01188224,0.02132475,0.04091795,-1.490679,-3.10792,-1.678129,-0.01193408,-0.01707046,-0.02505229,-1.080223,-2.636389,1.624223
0,1.600003,101,141,498,498,-0.01162989,0.01507436,0.0396812,-1.49056,-3.107936,-1.677737,-0.01180317,-0.02139327,-0.02212624,-1.079954,-2.636729,1.624432
0,1.611114,101,141,498,498,-0.0147142,0.010827,0.04425208,-1.490337,-3.108025,-1.677134,-0.01899836,-0.0218192,-0.0216639,-1.079322,-2.636767,1.624507
0,1.622225,101,141,498,498,-0.009078465,0.002874218,0.0416262,-1.490294,-3.107853,-1.67675,-0.02328164,-0.02508321,-0.02781877,-1.07883,-2.637055,1.62503
0,1.633336,101,141,498,498,-0.009958163,-0.002772352,0.04268412,-1.490169,-3.107756,-1.676216,-0.02501309,-0.02839658,-0.02872702,-1.078369,-2.637456,1.625445
0,1.644447,91,159,498,497,-0.01203164,-0.005723655,0.04643584,-1.489963,-3.107717,-1.675618,-0.02805423,-0.02747259,-0.02874792,-1.077842,-2.637607,1.625737
0,1.655559,91,159,498,497,-0.01281631,-0.01449762,0.0468927,-1.489827,-3.107427,-1.675047,-0.02757933,-0.02007476,-0.03409506,-1.077562,-2.637736,1.626315
0,1.66667,91,159,498,497,-0.01163898,-0.01717027,0.04420989,-1.48973,-3.107261,-1.674611,-0.02623947,-0.01817036,-0.03364285,-1.077244,-2.637956,1.626738
0,1.677781,91,159,498,497,-0.01367128,-0.02035192,0.04358494,-1.489535,-3.107035,-1.674126,-0.02392731,-0.01782686,-0.02935348,-1.076985,-2.638136,1.626994
0,1.688892,91,168,497,495,-0.01467139,-0.02225295,0.04212928,-1.489359,-3.106836,-1.673689,-0.0263913,-0.01377245,-0.02941964,-1.076658,-2.638186,1.627374
0,1.700003,91,168,497,495,-0.01272413,-0.01713604,0.04421885,-1.489258,-3.106905,-1.673142,-0.03011558,-0.01376832,-0.02609233,-1.076203,-2.638206,1.627605
0,1.711114,91,168,497,495,-0.0159052,-0.01640986,0.0400039,-1.489012,-3.106791,-1.672797,-0.02803649,-0.006998202,-0.02856907,-1.07584,-2.63841,1.628046
0,1.722225,91,168,497,495,-0.01281695,-0.0129605,0.039602,-1.488837,-3.106778,-1.67236,-0.02679817,-0.002886417,-0.02719761,-1.075656,-2.638348,1.628332
0,1.733337,91,168,497,495,-0.01045644,-0.01979816,0.03612892,-1.488833,-3.106428,-1.672002,-0.02639969,0.004676437,-0.02302007,-1.075532,-2.638046,1.628468
0,1.744448,93,132,497,498,-0.009239119,-0.02438612,0.0320157,-1.488657,-3.105962,-1.671519,-0.0257361,0.005677756,-0.01923374,-1.075513,-2.638239,1.628789
0,1.755559,93,132,497,498,-0.006019946,-0.02532759,0.03185876,-1.488698,-3.105718,-1.671133,-0.03020297,0.0007254127,-0.01773599,-1.07506,-2.63823,1.629001
0,1.76667,93,132,497,498,-0.005727652,-0.03393312,0.02588046,-1.488715,-3.105107,-1.670903,-0.03060846,-0.0006992426,-0.02056928,-1.074752,-2.638204,1.629268
0,1.777781,93,132,497,498,-0.004506264,-0.03872618,0.02280749,-1.488744,-3.104589,-1.670684,-0.02597659,-0.0001243204,-0.0215213,-1.074612,-2.638254,1.629565
0,1.788892,91,129,498,497,-0.003399165,-0.03874641,0.01739237,-1.488672,-3.104113,-1.67055,-0.02449895,0.003602391,-0.01919747,-1.07458,-2.638169,1.629816
0,1.800003,91,129,498,497,-0.003340593,-0.04063455,0.01595418,-1.488677,-3.103641,-1.670362,-0.02518334,0.008806642,-0.0168939,-1.07444,-2.637865,1.62994
0,1.811115,91,129,498,497,-0.001219478,-0.03893207,0.013042,-1.488811,-3.103238,-1.670292,-0.0252984,0.01719459,-0.01226103,-1.074468,-2.637414,1.629998
0,1.822226,91,129,498,497,-0.002300662,-0.03692146,0.007993424,-1.488678,-3.102811,-1.670305,-0.02441644,0.02394672,-0.008544266,-1.074463,-2.636918,1.629915
0,1.833337,91,129,498,497,0.002026584,-0.03665012,0.001562828,-1.488834,-3.102459,-1.670396,-0.02368777,0.02885688,-0.009095514,-1.074471,-2.63643,1.63
0,1.844448,84,135,497,501,0.001043982,-0.03651795,-0.004932583,-1.488956,-3.102139,-1.670618,-0.02543039,0.03166189,-0.01104864,-1.074426,-2.636069,1.630148
0,1.855559,84,135,497,501,-0.0009276392,-0.04160547,-0.007001188,-1.488933,-3.101527,-1.670656,-0.02602561,0.03467399,-0.009666178,-1.074381,-2.63557,1.6302
0,1.86667,84,135,497,501,6.943801E-05,-0.03988184,-0.004492607,-1.489028,-3.1012,-1.670597,-0.02333553,0.03641121,-0.004899475,-1.074065,-2.634979,1.630059
0,1.877781,84,135,497,501,-0.0009266264,-0.04180269,-0.005951913,-1.489023,-3.100675,-1.670665,-0.02275244,0.03346859,-0.001513254,-1.074001,-2.634545,1.629952
0,1.888893,80,139,499,499,0.003219448,-0.03729735,-0.006153418,-1.489152,-3.100461,-1.670719,-0.01462881,0.02237726,0.007253807,-1.073861,-2.634516,1.629629
0,1.900004,80,139,499,499,0.002051337,-0.03254184,-0.00850974,-1.489148,-3.100227,-1.67086,-0.0147643,0.01441306,0.004034198,-1.073676,-2.634509,1.629697
0,1.911115,80,139,499,499,0.002653228,-0.01722411,-0.003411171,-1.489297,-3.100476,-1.670819,-0.01539869,0.007234756,-0.001103776,-1.073381,-2.634436,1.629861
0,1.922226,80,139,499,499,-0.0006661317,-0.01292948,-0.003688352,-1.489174,-3.100415,-1.670799,-0.014266,0.01352538,-0.001190197,-1.073412,-2.634099,1.629853
0,1.933337,80,139,499,499,0.001216764,-0.00450303,-0.002069576,-1.489236,-3.100625,-1.670789,-0.01404229,0.01929255,0.001112937,-1.073457,-2.633657,1.62974
0,1.944448,81,136,499,496,-0.002090003,-0.002248162,0.002677922,-1.489127,-3.100696,-1.670691,-0.01315764,0.02607386,0.007209517,-1.073588,-2.633191,1.629536
0,1.955559,81,136,499,496,-0.004377739,0.00272417,0.004700768,-1.489006,-3.100876,-1.670622,-0.01372245,0.02289496,0.004871246,-1.073542,-2.632967,1.629555
0,1.966671,81,136,499,496,-0.003256498,0.0004672368,0.005352351,-1.489023,-3.100892,-1.67066,-0.01016173,0.02116314,0.004424949,-1.073558,-2.632766,1.629521
0,1.977782,81,136,499,496,-0.006313711,-0.003204136,0.001381764,-1.488881,-3.100738,-1.670727,-0.01431799,0.009532308,-0.003997644,-1.073444,-2.632884,1.629794
0,1.988893,81,136,499,496,-0.007312587,-0.007371331,0.005998883,-1.488821,-3.100517,-1.670598,-0.01484787,0.0001524957,-0.01005879,-1.073171,-2.633211,1.630092
0,2.000004,83,123,499,497,-0.007244314,-0.01131077,0.00957917,-1.488762,-3.100269,-1.670468,-0.0165514,-0.003266809,-0.01811471,-1.072994,-2.633311,1.630557
0,2.011115,83,123,499,497,-0.0114293,-0.01495856,0.01103014,-1.488554,-3.10004,-1.670277,-0.009284198,0.001195253,-0.01816908,-1.073261,-2.63351,1.630805
0,2.022226,83,123,499,497,-0.00826209,-0.01382263,0.01125663,-1.488596,-3.100002,-1.670249,-0.00707192,0.003726618,-0.01534244,-1.073275,-2.633356,1.630873
0,2.033337,83,123,499,497,-0.006204289,-0.01206941,0.01377301,-1.488594,-3.099963,-1.670017,-0.01192592,-0.002573266,-0.01192389,-1.072975,-2.633438,1.630942
0,2.044448,85,138,500,494,-0.00415822,-0.008871639,0.01439272,-1.488672,-3.099995,-1.669869,-0.01339255,-0.006282907,-0.01187282,-1.072734,-2.633582,1.631116
0,2.055559,85,138,500,494,-0.006311754,-0.009718868,0.01855955,-1.488549,-3.099912,-1.669561,-0.02148692,-0.007369566,-0.01139113,-1.07224,-2.633566,1.631222
0,2.06667,85,138,500,494,-0.005209966,-0.01073359,0.01836672,-1.48864,-3.099794,-1.669468,-0.02112747,0.0001628436,-0.009590968,-1.07212,-2.633282,1.631321
0,2.077781,85,138,500,494,-0.006220032,-0.01284904,0.0179607,-1.488566,-3.099621,-1.669251,-0.01512937,0.006635075,-0.01205765,-1.072222,-2.633162,1.631533
0,2.088892,85,138,500,494,-0.007237233,-0.01699625,0.02259365,-1.488403,-3.09942,-1.668827,-0.005162689,0.01276069,-0.01451911,-1.072471,-2.6331,1.631816
0,2.100003,89,134,500,498,-0.008415001,-0.01263362,0.02233524,-1.488256,-3.099406,-1.668544,0.0006045075,0.003449669,-0.01389479,-1.072503,-2.633464,1.632003
0,2.111114,89,134,500,498,-0.005325701,-0.008164902,0.02211479,-1.488288,-3.099468,-1.668312,0.01044624,-0.01855266,-0.01830612,-1.072427,-2.634503,1.632416
0,2.122225,89,134,500,498,-0.002274325,-0.001205754,0.0202052,-1.488358,-3.099701,-1.667988,0.002204271,-0.02140239,-0.01732975,-1.072129,-2.634685,1.632591
0,2.133336,89,134,500,498,0.002853421,0.005861592,0.02372979,-1.488463,-3.100041,-1.667655,-0.01376894,-0.027943,-0.01584582,-1.071391,-2.634931,1.632805
0,2.144447,92,139,499,497,0.0006522853,0.009153685,0.02325499,-1.488412,-3.100257,-1.667392,-0.01463117,-0.02447344,-0.01065998,-1.071167,-2.634953,1.632769
0,2.155558,92,139,499,497,0.003880031,0.008386604,0.02203831,-1.488557,-3.100393,-1.667189,-0.007743176,-0.01738544,-0.01075056,-1.071356,-2.635036,1.632987
0,2.166669,92,139,499,497,0.007195359,0.002843384,0.02317864,-1.488687,-3.100309,-1.666878,-0.003681494,-0.009761159,-0.007514892,-1.0715,-2.635045,1.632945
0,2.17778,92,139,499,497,0.006188883,0.0009250555,0.0217291,-1.488715,-3.100317,-1.666686,-0.006957899,-0.008593331,-0.01564002,-1.071579,-2.63553,1.633475
0,2.188891,92,139,499,497,0.002071192,-0.003813579,0.01757298,-1.488565,-3.100281,-1.666545,-0.01308485,-0.006842963,-0.018062,-1.071303,-2.63553,1.633765
0,2.200002,90,128,499,495,0.002131512,-0.00772781,0.0211834,-1.488672,-3.10019,-1.666086,-0.01567756,-0.01078197,-0.02134179,-1.070965,-2.635933,1.634115
0,2.211113,90,128,499,495,-5.515292E-05,-0.00587237,0.02260288,-1.488608,-3.100228,-1.665806,-0.009946765,-0.01387686,-0.01699457,-1.070883,-2.636186,1.634212
0,2.222224,90,128,499,495,-0.001245795,-0.0006607682,0.02356816,-1.488648,-3.100257,-1.665674,0.0003147032,-0.01422669,-0.01743963,-1.07105,-2.636557,1.634444
0,2.233335,90,128,499,495,-0.00353153,0.007020743,0.02281938,-1.488479,-3.100673,-1.665312,-0.0001153238,-0.01957152,-0.01830979,-1.070874,-2.636989,1.634724
0,2.244446,83,126,498,499,-0.001493299,0.01087722,0.02570608,-1.488688,-3.100933,-1.664969,-0.005473072,-0.01907403,-0.02261437,-1.070612,-2.637236,1.635118
0,2.255557,83,126,498,499,0.000540562,0.01492658,0.02754378,-1.488719,-3.101267,-1.664655,-0.01494837,-0.02003011,-0.02643333,-1.070124,-2.637428,1.635571
0,2.266668,83,126,498,499,0.0005381722,0.0163608,0.02563208,-1.488858,-3.10139,-1.664508,-0.01940378,-0.01485593,-0.02080937,-1.069868,-2.637237,1.635687
0,2.277779,83,126,498,499,-0.00259251,0.01257972,0.02816282,-1.488742,-3.101481,-1.664111,-0.01392217,-0.01750885,-0.01504007,-1.06975,-2.637486,1.635706
0,2.28889,83,126,498,499,-0.001551421,0.01365556,0.02836137,-1.488639,-3.101709,-1.663815,-0.006532783,-0.02118524,-0.007822354,-1.069735,-2.637788,1.635536
0,2.300001,76,139,499,496,-0.001468997,0.01090438,0.02568537,-1.488616,-3.101779,-1.663613,-0.005648309,-0.02462063,-0.0106232,-1.069511,-2.638155,1.635736
0,2.311112,76,139,499,496,-0.0004598834,0.01264083,0.02816948,-1.488499,-3.101997,-1.663287,-0.007103128,-0.0184064,-0.0207203,-1.069413,-2.638405,1.636326
0,2.322223,76,139,499,496,0.001676274,0.0143157,0.02523664,-1.488693,-3.102219,-1.663008,-0.009954372,-0.007952702,-0.02755461,-1.069355,-2.638365,1.636803
0,2.333334,76,139,499,496,-0.0005254634,0.01684915,0.02893309,-1.488594,-3.102559,-1.662614,-0.006943102,-0.01256794,-0.01365959,-1.069225,-2.638504,1.636585
0,2.344445,76,139,499,496,0.002586054,0.02273521,0.02677027,-1.488758,-3.103018,-1.662383,-0.00392043,-0.01727075,-0.004531361,-1.06898,-2.638799,1.63634
0,2.355556,75,133,499,496,0.002576509,0.02397967,0.02590817,-1.488751,-3.103359,-1.66215,-0.002174861,-0.02399226,-0.000620401,-1.06877,-2.639174,1.636262
0,2.366668,75,133,499,496,-0.0006833244,0.02849652,0.02455157,-1.488572,-3.10381,-1.661944,-0.002028927,-0.02222588,-0.001119045,-1.068655,-2.639411,1.636287
0,2.377779,75,133,499,496,0.001469124,0.02930287,0.02037382,-1.488616,-3.104174,-1.661865,0.001782211,-0.01036846,-0.007952001,-1.068875,-2.639457,1.636578
0,2.38889,75,133,499,496,-0.0006654859,0.03051168,0.01949708,-1.488562,-3.104659,-1.661684,-0.001035159,0.008022893,-0.01395813,-1.069073,-2.639075,1.636912
0,2.400001,78,131,498,496,0.003866675,0.01935115,0.009905404,-1.488652,-3.104553,-1.661867,-0.005592282,0.01935136,-0.007005045,-1.069178,-2.638495,1.636853
0,2.411112,78,131,498,496,0.001836271,0.01369436,0.01103261,-1.488637,-3.10462,-1.661629,-0.003684607,0.01840463,-0.0007905175,-1.069256,-2.638266,1.636675
0,2.422223,78,131,498,496,0.004171037,0.005073455,0.00513984,-1.488756,-3.104553,-1.661751,-0.005554704,0.009488614,0.007926913,-1.069102,-2.638182,1.636292
0,2.433334,78,131,498,496,0.007391639,0.004276687,0.003926991,-1.488912,-3.104567,-1.661747,-0.004174318,0.005313333,0.009423506,-1.069069,-2.638151,1.636119
0,2.444445,78,131,498,496,0.007437303,0.001988071,0.004595032,-1.48911,-3.104515,-1.66163,-0.001521846,-0.0009399949,0.006186701,-1.06906,-2.638168,1.636156
0,2.455556,78,136,498,499,0.006324063,0.005683686,0.002012642,-1.489136,-3.104651,-1.661696,-0.008249858,0.007686269,0.0008031928,-1.068976,-2.637813,1.636279
0,2.466667,78,136,498,499,0.006284737,0.007960855,0.001349303,-1.489172,-3.104682,-1.661624,-0.0129563,0.01309717,-0.004052034,-1.068872,-2.637362,1.636454
0,2.477778,78,136,498,499,0.003112092,0.006850752,0.001132496,-1.48915,-3.104691,-1.661613,-0.01412141,0.01295892,-0.002625936,-1.06876,-2.63702,1.636465
0,2.488889,78,136,498,499,0.003085817,0.007711248,0.002365776,-1.48919,-3.104843,-1.661624,-0.01310649,0.01137122,-0.001173043,-1.068743,-2.636873,1.636461
0,2.5,79,130,499,497,0.001041031,0.001861632,0.004536392,-1.489101,-3.104731,-1.661571,-0.010963,0.005961454,-0.001558365,-1.068633,-2.636798,1.636417
0,2.511111,79,130,499,497,0.002142942,-0.0004041587,0.005213107,-1.489158,-3.104684,-1.661465,-0.01570594,0.007544581,0.002702814,-1.068439,-2.63647,1.636261
0,2.522222,79,130,499,497,0.003224692,-0.001619501,0.00607939,-1.489233,-3.104715,-1.661388,-0.01977148,0.01397652,0.001653632,-1.068269,-2.635983,1.636249
0,2.533333,79,130,499,497,0.002149027,-0.002020964,0.008169137,-1.48922,-3.104653,-1.661193,-0.02617199,0.01607996,-0.001715474,-1.067975,-2.635592,1.636353
0,2.544444,79,130,499,497,0.003281207,-0.006756633,0.01056679,-1.489306,-3.104558,-1.661003,-0.02594746,0.01172089,-0.001174023,-1.067716,-2.635453,1.636395
0,2.555555,76,110,498,498,9.988341E-05,-0.008051375,0.01140009,-1.489224,-3.10445,-1.660846,-0.02116131,-0.003812867,0.001911633,-1.067376,-2.635789,1.636321
0,2.566666,76,110,498,498,0.001136866,-0.008974065,0.01664779,-1.489258,-3.104385,-1.660582,-0.0149254,-0.0116224,0.007737973,-1.067203,-2.635919,1.636117
0,2.577777,76,110,498,498,-0.003141984,-0.006200058,0.0127962,-1.489146,-3.104358,-1.66055,-0.009282273,-0.01263825,0.003468466,-1.067064,-2.636248,1.636269
0,2.588888,76,110,498,498,-0.002199727,-7.99424E-05,0.01497975,-1.48916,-3.104563,-1.660445,-0.007834394,-0.004953595,0.003843474,-1.067099,-2.636064,1.636205
0,2.599999,78,121,498,498,-0.001255329,0.007656829,0.01421033,-1.489283,-3.10487,-1.66038,-0.0144319,0.009463303,0.003170205,-1.066985,-2.635444,1.636156
0,2.61111,78,121,498,498,0.000914868,0.007401919,0.009844651,-1.489342,-3.10495,-1.660377,-0.02251884,0.00826475,0.001280727,-1.066611,-2.635165,1.636188
0,2.622221,78,121,498,498,-0.0001214417,0.004907449,0.01154949,-1.489289,-3.104893,-1.660266,-0.01885481,-0.003487973,0.003819109,-1.066262,-2.635475,1.636118
0,2.633332,78,121,498,498,-0.003162761,-0.001921288,0.007058081,-1.489186,-3.104646,-1.660298,-0.009052255,-0.020943,0.005943623,-1.066062,-2.636136,1.636038
0,2.644443,78,121,498,498,-0.002070681,-0.00238424,0.003732878,-1.48908,-3.104608,-1.660314,-0.005466223,-0.02262736,0.005486828,-1.065977,-2.636355,1.635974
0,2.655554,85,130,497,497,-0.004170895,-0.003091646,0.001429494,-1.488969,-3.104559,-1.660359,-0.007231624,-0.01587121,0.003973752,-1.06587,-2.636304,1.635962
0,2.666665,85,130,497,497,-0.003140903,-0.000599507,-0.0002811748,-1.488862,-3.104585,-1.660416,-0.01309383,-0.006624666,0.003380646,-1.065654,-2.63598,1.636025
0,2.677776,85,130,497,497,-0.002172533,0.006465377,-0.003329717,-1.488842,-3.104856,-1.66056,-0.01319848,-0.0004707286,0.004737444,-1.0656,-2.635716,1.63591
0,2.688887,85,130,497,497,-0.003205391,0.004353665,-0.003716153,-1.488678,-3.104846,-1.660585,-0.01399379,-0.007199667,0.00338577,-1.065271,-2.635871,1.63592
0,2.699998,85,130,497,497,-0.008539125,0.004079546,-0.002706981,-1.488367,-3.104893,-1.66055,-0.008611137,-0.007797853,-0.001853331,-1.065228,-2.636091,1.636189
0,2.711109,95,125,497,498,-0.00965558,0.007397352,-0.003192836,-1.488222,-3.105027,-1.66061,-0.0007837932,-0.006206235,-0.0009195213,-1.065397,-2.636211,1.636176
0,2.72222,95,125,497,498,-0.008692684,0.01227665,-0.000138513,-1.488169,-3.105308,-1.660568,-0.004875053,-0.003714009,1.087785E-06,-1.065293,-2.636117,1.636187
0,2.733331,95,125,497,498,-0.007640904,0.01353278,-0.0009864033,-1.4881,-3.105465,-1.660621,-0.01089053,-0.0001753373,0.001867647,-1.065078,-2.635854,1.636103
0,2.744442,95,125,497,498,-0.004544344,0.01864037,0.001038127,-1.488111,-3.105889,-1.66058,-0.01358776,-0.001839294,0.00665334,-1.064784,-2.635738,1.635899
0,2.755553,93,147,498,498,-0.004666866,0.02255108,0.009321677,-1.488039,-3.106265,-1.660258,-0.002454073,-0.009407206,0.01006564,-1.064861,-2.636047,1.635666
0,2.766664,93,147,498,498,0.000604854,0.0259788,0.008885075,-1.488081,-3.106752,-1.66019,0.002517577,-0.0192765,0.005885716,-1.064847,-2.636613,1.635726
0,2.777775,93,147,498,498,-0.0005052015,0.02748858,0.01239646,-1.488015,-3.107108,-1.660034,0.005460098,-0.0219965,-0.000752483,-1.06482,-2.637058,1.635953
0,2.788886,93,147,498,498,0.0005269097,0.03141748,0.008783455,-1.487984,-3.107675,-1.660097,0.0008445624,-0.02672441,-0.009746835,-1.064587,-2.637484,1.636416
0,2.799997,93,147,498,498,0.003811,0.02442412,0.01185513,-1.488074,-3.107798,-1.659894,-0.001584604,-0.02486829,-0.00833812,-1.064352,-2.637638,1.636422
0,2.811108,87,141,498,496,0.004949128,0.02024994,0.01110255,-1.488138,-3.107943,-1.659804,-0.007719474,-0.01901655,0.006361404,-1.064146,-2.637381,1.635865
0,2.822219,87,141,498,496,0.005102421,0.01044016,0.01149332,-1.488195,-3.107877,-1.659643,-0.009752864,-0.01181876,0.008664037,-1.064004,-2.637177,1.635751
0,2.83333,87,141,498,496,0.008384348,0.006867829,0.00761615,-1.48837,-3.107889,-1.659654,-0.00139126,-0.003058598,0.01475921,-1.064261,-2.636951,1.635351
0,2.844441,87,141,498,496,0.004234588,0.0003216387,0.007498479,-1.488397,-3.10777,-1.659538,0.000553187,0.003810358,0.01468878,-1.064354,-2.636802,1.635159
0,2.855552,79,142,499,496,0.002158307,-0.002856796,0.006915412,-1.488371,-3.107665,-1.659474,0.006202565,0.006793253,0.01084064,-1.064631,-2.636755,1.635138
0,2.866663,79,142,499,496,0.002213473,-0.002958766,0.001482897,-1.488554,-3.107644,-1.659651,0.01385226,-0.005303306,0.008578446,-1.064748,-2.63729,1.635178
0,2.877774,79,142,499,496,2.653938E-05,0.001765033,-0.0009242925,-1.488509,-3.107741,-1.659749,0.02241335,-0.01282666,0.01151105,-1.064991,-2.637708,1.634971
0,2.888885,79,142,499,496,0.003195214,0.005910124,-0.005573698,-1.488687,-3.107925,-1.659938,0.01970319,-0.01454071,0.01152586,-1.064824,-2.637786,1.634801
0,2.899997,79,142,499,496,0.006365146,0.008624787,-0.008320633,-1.488833,-3.10798,-1.660196,0.003353449,-0.0006174075,0.01568478,-1.064652,-2.637094,1.634428
0,2.911108,77,157,498,498,0.006393163,0.007960286,-0.01060116,-1.488908,-3.108068,-1.660332,-0.004431291,0.005763734,0.02039863,-1.064528,-2.636581,1.63401
0,2.922219,77,157,498,498,0.007652186,-0.0006944622,-0.01648422,-1.489024,-3.107756,-1.660596,-0.00634551,0.006805651,0.02134539,-1.064429,-2.636387,1.633748
0,2.93333,77,157,498,498,0.005706381,-0.008349917,-0.02221086,-1.489071,-3.107373,-1.660976,-0.004938476,0.006542439,0.01848791,-1.064437,-2.636271,1.63361
0,2.944441,77,157,498,498,0.004746262,-0.01379791,-0.02212286,-1.489186,-3.107016,-1.661198,7.586647E-05,0.00859917,0.02037068,-1.064568,-2.636014,1.633253
0,2.955552,75,158,498,493,0.003811935,-0.02009948,-0.02327391,-1.489222,-3.106571,-1.661457,0.001266871,0.01275028,0.02414602,-1.064717,-2.635613,1.632803
0,2.966663,75,158,498,493,0.0005885437,-0.01767173,-0.02502608,-1.489128,-3.106379,-1.661791,-0.005232418,0.02101086,0.01979972,-1.064696,-2.634972,1.632693
0,2.977774,75,158,498,493,-0.002784118,-0.01115799,-0.01953202,-1.488923,-3.106331,-1.661861,-0.004487518,0.0158206,0.01746363,-1.064741,-2.634918,1.63251
0,2.988885,75,158,498,493,-0.001919407,-0.001888603,-0.0167627,-1.488825,-3.106587,-1.662042,-0.001410773,0.01492993,0.01507915,-1.064969,-2.634738,1.632401
0,2.999996,75,158,498,493,-0.002133222,0.006777618,-0.01084825,-1.48872,-3.106853,-1.661986,0.00277506,0.01020245,0.008444062,-1.065041,-2.634767,1.632434
0,3.011107,74,170,499,496,-0.005301881,0.005865595,-0.01211224,-1.488562,-3.106854,-1.662145,-0.002278631,0.004150134,0.001358647,-1.064821,-2.634865,1.632626
0,3.022218,74,170,499,496,-0.006463003,0.008036188,-0.006303618,-1.488319,-3.107007,-1.662047,-0.0007351701,0.005663002,-0.001996375,-1.064942,-2.634787,1.632777
0,3.033329,74,170,499,496,-0.002151724,0.004586631,-0.004746795,-1.488397,-3.10697,-1.662052,-0.0003194991,0.01098111,-0.003475122,-1.065077,-2.634586,1.63284
0,3.04444,74,170,499,496,-0.009461202,-0.00269171,-0.007189532,-1.488094,-3.106655,-1.66206,-0.003766736,0.01446328,-0.001113177,-1.064927,-2.634191,1.632713
0,3.055551,74,170,499,496,-0.007233227,-0.007892684,-0.008132725,-1.488028,-3.1064,-1.662157,-0.008723045,0.02037781,0.002658369,-1.064919,-2.633641,1.632522
0,3.066662,74,157,499,493,-0.006172271,-0.01150197,-0.0001161247,-1.487999,-3.106254,-1.661864,-0.01478524,0.01600254,0.003666426,-1.064593,-2.633383,1.632475
0,3.077773,74,157,499,493,-0.009371039,-0.01136446,-0.001196903,-1.487731,-3.106111,-1.661944,-0.01559915,0.009281402,0.002297555,-1.064382,-2.633367,1.632495
0,3.088884,74,157,499,493,-0.009381554,-0.0133696,0.003852322,-1.487665,-3.105921,-1.661745,-0.01281409,0.0009223102,0.005220245,-1.064351,-2.633404,1.632343
0,3.099995,74,157,499,493,-0.0073196,-0.0101914,0.004438909,-1.487524,-3.105846,-1.661754,-0.008495514,-0.005945657,0.002405296,-1.06436,-2.633609,1.632446
0,3.111106,71,154,498,496,-0.003206582,-0.003167181,0.007914622,-1.487583,-3.106047,-1.661601,-0.003896135,-0.009233402,0.003375117,-1.06438,-2.633872,1.63245
0,3.122217,71,154,498,496,-0.00120304,0.004584795,0.007182932,-1.487563,-3.106266,-1.661492,-0.007216611,-0.004060002,-0.00428585,-1.064217,-2.633759,1.632725
0,3.133328,71,154,498,496,-0.0002427194,0.009459648,0.01024422,-1.487542,-3.106556,-1.6613,-0.01061638,0.00732196,-0.003418892,-1.064222,-2.633331,1.63272
0,3.144439,71,154,498,496,-0.002349485,0.008564701,0.008989992,-1.487409,-3.106548,-1.661199,-0.01239089,0.01406484,-0.00728119,-1.064154,-2.632994,1.632862
0,3.15555,71,154,498,496,-0.003272864,-0.0002162524,0.00954133,-1.487413,-3.10632,-1.661096,-0.010146,0.02062453,0.003146413,-1.064297,-2.632425,1.632471
0,3.166661,72,133,499,500,0.0001850906,-0.01483181,0.006890858,-1.487554,-3.10581,-1.661032,-0.01250984,0.01236818,0.002749915,-1.063977,-2.632405,1.632416
0,3.177772,72,133,499,500,-0.0008315286,-0.0181832,0.007358452,-1.48754,-3.105546,-1.66091,-0.01239637,0.01017956,0.001814866,-1.063891,-2.632299,1.632426
0,3.188883,72,133,499,500,0.005707882,-0.02502899,0.003984093,-1.48783,-3.105089,-1.660922,-0.007322729,0.00208439,-0.002900788,-1.063837,-2.63258,1.632656
0,3.199994,72,133,499,500,0.005749029,-0.02693037,0.002570643,-1.487908,-3.104865,-1.660743,-0.003521082,-0.004014156,-0.01000797,-1.063794,-2.632883,1.633019
0,3.211105,75,152,497,498,0.007868908,-0.02565541,0.001735385,-1.488066,-3.104595,-1.660704,-0.003015858,-0.004844985,-0.01286051,-1.063742,-2.633061,1.633262
0,3.222216,75,152,497,498,0.00777951,-0.02165361,0.003550517,-1.48807,-3.104516,-1.660564,-0.004825854,-0.00602791,-0.01760725,-1.063587,-2.633194,1.633543
0,3.233327,75,152,497,498,0.007566817,-0.01031497,0.006692381,-1.48813,-3.104756,-1.660424,-0.008135176,-0.0007819515,-0.01573794,-1.063504,-2.633058,1.633678
0,3.244438,75,152,497,498,0.00528111,-0.001965917,0.008200647,-1.488015,-3.104967,-1.660226,-0.005139377,0.008472859,-0.01153358,-1.063672,-2.632793,1.633649
0,3.255549,75,152,497,498,0.005058412,0.01060713,0.01047448,-1.487966,-3.105346,-1.660128,-0.002689861,0.01059574,-0.01012867,-1.063791,-2.632689,1.633704
0,3.26666,82,141,498,497,0.001806948,0.01351111,0.01206535,-1.487875,-3.105595,-1.659952,-0.009773279,0.003847313,-0.01100697,-1.063477,-2.632756,1.633854
0,3.277771,82,141,498,497,-0.0003644647,0.01520119,0.0145236,-1.487814,-3.105886,-1.659706,-0.01086209,-0.01432721,-0.009897307,-1.062985,-2.633296,1.633911
0,3.288882,82,141,498,497,-0.006702372,0.01177089,0.01495341,-1.487573,-3.105998,-1.659522,-0.01793888,-0.02507188,-0.01361044,-1.062397,-2.633736,1.634222
0,3.299993,82,141,498,497,-0.00885147,0.01241443,0.01722104,-1.487477,-3.106198,-1.659299,-0.02728748,-0.02427977,-0.01550096,-1.061812,-2.6338,1.634492
0,3.311104,82,141,498,497,-0.02347019,-0.005235047,0.01178314,-1.48684,-3.105562,-1.659274,-0.03651251,-0.01384758,-0.02174478,-1.061297,-2.633585,1.634946
0,3.322215,86,161,498,498,-0.02229281,-0.01539924,0.01428548,-1.486647,-3.105191,-1.658897,-0.04688327,-0.007473014,-0.01746225,-1.060701,-2.633232,1.635005
0,3.333326,86,161,498,498,-0.02753845,-0.02621103,0.01987425,-1.486239,-3.104619,-1.658481,-0.05160817,-0.01787292,-0.01450834,-1.059867,-2.633352,1.635131
0,3.344437,86,161,498,498,-0.02333071,-0.03173182,0.03298665,-1.486126,-3.104185,-1.657741,-0.04976859,-0.02860846,-0.01110987,-1.059206,-2.633812,1.635191
0,3.355548,86,161,498,498,-0.02347629,-0.03240766,0.04911952,-1.485886,-3.103958,-1.656711,-0.03651255,-0.04737312,-0.02010382,-1.058662,-2.634958,1.635797
0,3.366659,84,137,498,498,-0.02053743,-0.01578742,0.05971121,-1.485761,-3.104513,-1.655665,-0.02480472,-0.05179874,-0.02392635,-1.058494,-2.635815,1.636298
0,3.37777,84,137,498,498,-0.01526652,-0.003544886,0.05219124,-1.48573,-3.104798,-1.655332,-0.009876203,-0.05922998,-0.02630832,-1.058348,-2.636963,1.636768
0,3.388881,84,137,498,498,-0.0185605,0.01384872,0.04553982,-1.485377,-3.105455,-1.655072,-0.01089784,-0.04964659,-0.0173259,-1.058099,-2.636935,1.636773
0,3.399992,84,137,498,498,-0.01751587,0.02356285,0.03969229,-1.485416,-3.105907,-1.654934,-0.01937848,-0.04039888,-0.01830341,-1.057678,-2.636923,1.637042
0,3.411103,84,137,498,498,-0.01747537,0.02166951,0.03826651,-1.485225,-3.106138,-1.654557,-0.0221032,-0.02625054,-0.009326376,-1.057428,-2.636637,1.636897
0,3.422215,77,149,498,496,-0.01207457,0.01456401,0.0359356,-1.485225,-3.106054,-1.654308,-0.02416323,-0.01508336,0.000627053,-1.057254,-2.636384,1.63656
0,3.433326,77,149,498,496,-0.006655406,0.01085647,0.02664796,-1.485301,-3.106073,-1.654261,-0.0223585,-0.001971887,0.0162809,-1.057224,-2.635612,1.63579
0,3.444437,77,149,498,496,-0.002327023,0.003556602,0.02537101,-1.485431,-3.106,-1.653982,-0.007624682,0.004710139,0.01856036,-1.057661,-2.635413,1.635535
0,3.455548,77,149,498,496,0.0008938536,0.004510236,0.0201473,-1.485438,-3.106101,-1.65394,0.002755578,-0.005618161,0.009034237,-1.057772,-2.63594,1.635753
0,3.466659,73,152,499,498,0.004096416,0.01145231,0.01165935,-1.48559,-3.106374,-1.654045,0.00407695,-0.02348629,6.230338E-05,-1.057485,-2.636737,1.636145
0,3.47777,73,152,499,498,0.006223286,0.01252176,0.01185555,-1.485782,-3.106574,-1.653914,0.001180667,-0.03272988,0.0005869353,-1.057125,-2.637252,1.636167
0,3.488881,73,152,499,498,0.00942664,0.01699592,0.005091768,-1.485943,-3.106891,-1.65406,0.00483443,-0.04626441,-0.003659688,-1.056833,-2.638099,1.636341
0,3.499992,73,152,499,498,0.008345084,0.02192659,0.001627782,-1.486067,-3.10723,-1.654195,0.01187342,-0.04341704,-0.003222736,-1.056934,-2.638584,1.636385
0,3.511103,73,152,499,498,0.01146565,0.03213943,-0.0008755005,-1.486222,-3.107852,-1.654329,0.01785677,-0.03103197,0.003841871,-1.057216,-2.638691,1.63614
0,3.522214,70,140,498,498,0.009286352,0.03896845,-0.002916203,-1.486174,-3.108367,-1.654416,0.01525356,-0.01909519,0.009512206,-1.057281,-2.638434,1.635772
0,3.533325,70,140,498,498,0.01251539,0.03641176,-0.006596094,-1.48636,-3.108674,-1.654642,0.0111342,-0.004744403,0.01899332,-1.057454,-2.637869,1.635198
0,3.544436,70,140,498,498,0.008262621,0.03674798,-0.008715104,-1.486347,-3.109052,-1.654794,0.004508335,0.005704226,0.03232151,-1.057481,-2.63718,1.634386
0,3.555547,70,140,498,498,0.01141949,0.04172325,-0.01213888,-1.486517,-3.10961,-1.655082,0.00327218,0.007710482,0.03947021,-1.057531,-2.636726,1.633634
0,3.566658,71,131,499,497,0.01355908,0.03964492,-0.01249229,-1.486638,-3.109908,-1.655199,0.003902312,0.004711176,0.03566259,-1.057563,-2.636656,1.633365
0,3.577769,71,131,499,497,0.01042113,0.03598458,-0.01638873,-1.486593,-3.110213,-1.655367,0.001565881,0.0003795289,0.02854108,-1.057451,-2.63666,1.633221
0,3.58888,71,131,499,497,0.006270474,0.02688515,-0.02018348,-1.486547,-3.110194,-1.655693,0.002675608,0.0005290403,0.01995663,-1.057538,-2.636786,1.633288
0,3.599991,71,131,499,497,0.001030786,0.01645952,-0.01665754,-1.486556,-3.110114,-1.655742,0.01002127,-0.004962412,0.02517196,-1.057668,-2.636852,1.632776
0,3.611102,71,131,499,497,-0.0009963801,0.005392337,-0.0153932,-1.486525,-3.109862,-1.65587,0.01363722,-0.006627028,0.02944047,-1.0578,-2.636871,1.632272
0,3.622213,78,125,500,502,-0.003119089,0.006800217,-0.01731616,-1.486571,-3.11005,-1.656112,0.01478173,-0.002514354,0.02846702,-1.057907,-2.636834,1.632014
0,3.633324,78,125,500,502,-0.00204201,0.005765534,-0.01749454,-1.486583,-3.110035,-1.656304,0.01822454,0.005903391,0.02509583,-1.058283,-2.636625,1.631783
0,3.644435,78,125,500,502,-0.003121002,0.006806342,-0.0173098,-1.486498,-3.110126,-1.656431,0.01976377,0.007435648,0.02413226,-1.058544,-2.636584,1.631498
0,3.655546,78,125,500,502,-0.002094192,0.009965508,-0.01673863,-1.486509,-3.11029,-1.656627,0.01872675,0.005073493,0.02223789,-1.058697,-2.636583,1.631275
0,3.666657,78,125,500,502,-0.002118671,0.01368054,-0.01931674,-1.486473,-3.110498,-1.656935,0.009492731,0.003701659,0.0218145,-1.058587,-2.636375,1.631001
0,3.677768,84,138,500,502,-0.001084258,0.01417336,-0.015971,-1.486491,-3.110604,-1.656947,0.001777653,-0.004036057,0.01949228,-1.058367,-2.636309,1.630772
0,3.688879,84,138,500,502,4.515611E-05,0.005904918,-0.01203702,-1.48653,-3.110463,-1.656953,0.007164296,-0.008520881,0.0208949,-1.058456,-2.636463,1.63047
0,3.69999,84,138,500,502,-0.000968758,0.001510869,-0.01174282,-1.486551,-3.11038,-1.656984,0.009991577,-0.008989995,0.0223058,-1.058548,-2.636521,1.630156
0,3.711101,84,138,500,502,0.002221062,0.001359464,-0.01067046,-1.486663,-3.110411,-1.657078,0.01959139,-0.01022674,0.02034837,-1.05896,-2.636864,1.62994
0,3.722212,87,130,499,498,0.005412302,0.001399449,-0.0106518,-1.486738,-3.11041,-1.657285,0.01714248,-0.01235384,0.01893274,-1.058945,-2.637069,1.629768
0,3.733323,87,130,499,498,0.004274509,0.006625921,-0.009717334,-1.486696,-3.110558,-1.657371,0.001322979,-0.009397099,0.009016851,-1.058585,-2.636996,1.629943
0,3.744434,87,130,499,498,0.005324698,0.006265542,-0.00761314,-1.486721,-3.110655,-1.657417,0.002442818,-0.009237346,0.002818436,-1.058599,-2.63723,1.63009
0,3.755545,87,130,499,498,-0.0001155701,0.01459109,-0.00614222,-1.486465,-3.111003,-1.657466,0.0106482,-0.002322926,-9.475276E-05,-1.058992,-2.637286,1.63019
0,3.766656,87,130,499,498,0.00195142,0.01700619,-0.001369313,-1.486524,-3.111285,-1.657363,0.01987651,-0.004939448,-0.0001363349,-1.059373,-2.637662,1.630116
0,3.777767,91,150,499,496,0.00298177,0.01873915,0.001102234,-1.486706,-3.111513,-1.657427,0.02566131,-0.004102493,0.002216846,-1.059737,-2.637871,1.630024
0,3.788878,91,150,499,496,0.001870976,0.02168304,0.002707767,-1.486658,-3.111866,-1.657383,0.02089337,-0.01051638,0.000825576,-1.059678,-2.638345,1.630109
0,3.799989,91,150,499,496,0.003902099,0.02885903,0.005090298,-1.48674,-3.112415,-1.657226,0.01469362,-0.0127452,-0.006755916,-1.059558,-2.638664,1.630436
0,3.8111,91,150,499,496,0.004961433,0.02868429,0.006143131,-1.486808,-3.112746,-1.657167,0.01005048,-0.009484373,-0.01483751,-1.059543,-2.638947,1.630943
0,3.822211,92,131,500,498,0.003960766,0.02324145,0.006242195,-1.486825,-3.112887,-1.65711,0.01029277,-0.00595277,-0.02056129,-1.059692,-2.639208,1.631379
0,3.833322,92,131,500,498,0.004001385,0.01848472,0.008632746,-1.486862,-3.112994,-1.656956,0.01595518,0.004961756,-0.02347978,-1.06017,-2.639193,1.63175
0,3.844433,92,131,500,498,0.001986132,0.008837666,0.007979983,-1.486769,-3.112866,-1.656829,0.008444631,0.006975548,-0.01345063,-1.060266,-2.638903,1.631612
0,3.855544,92,131,500,498,0.002013564,0.006741066,0.007604083,-1.486776,-3.112905,-1.656751,0.005011697,0.006493959,-0.006762695,-1.060266,-2.638771,1.631471
0,3.866655,92,131,500,498,0.0009624641,0.004258102,0.009315695,-1.486733,-3.112926,-1.656642,-0.003103957,-0.002613211,-0.009552984,-1.059951,-2.638996,1.631741
0,3.877766,91,135,499,498,0.003074573,0.005145394,0.01056629,-1.486822,-3.11305,-1.656497,-0.003521873,-0.007971628,-0.01524724,-1.059811,-2.639341,1.632131
0,3.888877,91,135,499,498,0.0009395601,0.004932371,0.01160461,-1.486758,-3.113121,-1.656239,-0.003679204,-0.001896598,-0.02575357,-1.059856,-2.639574,1.632853
0,3.899988,91,135,499,498,-0.002256537,0.003282552,0.01453781,-1.486702,-3.113035,-1.656026,-0.003657057,0.01390435,-0.02869213,-1.060242,-2.639232,1.633222
0,3.911099,91,135,499,498,-0.005343992,-0.007602855,0.01474761,-1.486543,-3.112792,-1.65578,-0.001991482,0.02509335,-0.03401424,-1.060543,-2.638978,1.633782
0,3.92221,91,135,499,498,-0.01168912,-0.01574921,0.01759406,-1.486198,-3.112432,-1.655422,0.004261524,0.02108663,-0.04450946,-1.060765,-2.639475,1.63463
0,3.933321,89,137,499,496,-0.01475705,-0.03101378,0.0181063,-1.486012,-3.11168,-1.655137,0.0290045,0.01571467,-0.06646875,-1.061671,-2.640569,1.636135
0,3.944432,89,137,499,496,-0.0253321,-0.05059577,0.02429919,-1.485502,-3.110614,-1.654608,0.03610197,0.01447321,-0.06884925,-1.062325,-2.641091,1.637025
0,3.955544,89,137,499,496,-0.02738088,-0.06707194,0.02569467,-1.485277,-3.109451,-1.654188,0.04036606,0.01768743,-0.06745417,-1.062864,-2.641462,1.637806
0,3.966655,89,137,499,496,-0.0262763,-0.07352542,0.0256547,-1.485285,-3.108567,-1.653876,0.01124784,0.01393743,-0.05404746,-1.062366,-2.641247,1.638111
0,3.977766,85,131,499,496,-0.02742137,-0.06931846,0.02640338,-1.48501,-3.107943,-1.653479,-0.003755025,0.007870357,-0.04061994,-1.061837,-2.641248,1.6382
0,3.988877,85,131,499,496,-0.02220924,-0.05649477,0.02763863,-1.484915,-3.107748,-1.65313,-0.01195412,0.004956918,-0.03247762,-1.061484,-2.641177,1.638343
0,3.999988,85,131,499,496,-0.02985461,-0.03960413,0.03600413,-1.484492,-3.107719,-1.652477,0.004343411,0.00502381,-0.0463156,-1.062016,-2.64191,1.639309
0,4.011099,85,131,499,496,-0.0278828,-0.02036409,0.04374906,-1.48423,-3.108013,-1.651827,0.01704864,0.01457766,-0.06359442,-1.062722,-2.642354,1.640602
0.3333333,4.02221,85,131,499,496,-0.0290139,-0.01126195,0.04751233,-1.483893,-3.108093,-1.651209,0.01897214,0.02147975,-0.0589255,-1.063118,-2.642401,1.641124
0.6666667,4.033321,83,134,499,498,-0.03333234,-0.005853714,0.05384377,-1.483411,-3.108175,-1.650488,0.009726555,0.02418319,-0.04706015,-1.063196,-2.64213,1.641325
1,4.044433,83,134,499,498,-0.03228374,-0.001962766,0.05669268,-1.483136,-3.108428,-1.649799,-0.002582149,0.01971104,-0.0432028,-1.062908,-2.642162,1.641812
1.333333,4.055544,83,134,499,498,-0.03659721,-0.01211865,0.06569701,-1.482674,-3.1081,-1.648815,-0.03538902,0.007525558,-0.04875438,-1.061749,-2.642121,1.642598
1.666667,4.066655,83,134,499,498,-0.04091741,-0.02066313,0.07174259,-1.482167,-3.107671,-1.647874,-0.04150631,0.001113826,-0.05677139,-1.061149,-2.642372,1.643566
2,4.077766,78,119,499,499,-0.0485108,-0.0421172,0.07769153,-1.481529,-3.106713,-1.646767,-0.04472705,0.007743519,-0.07214864,-1.06102,-2.642443,1.645048
2.333333,4.088878,78,119,499,499,-0.05721828,-0.05967681,0.07997967,-1.480655,-3.105652,-1.645778,-0.04209513,0.01710494,-0.08328016,-1.060932,-2.642416,1.646401
2.666667,4.099989,78,119,499,499,-0.06711826,-0.08313723,0.08558443,-1.479842,-3.104277,-1.644568,-0.02942428,0.02663411,-0.09823701,-1.061309,-2.642688,1.647836
3,4.1111,78,119,499,499,-0.07604155,-0.09972269,0.09565324,-1.478892,-3.1029,-1.643106,0.003285605,0.02697988,-0.1115774,-1.062299,-2.643592,1.649595
3.333333,4.122211,78,119,499,499,-0.07638891,-0.1081124,0.1083284,-1.478307,-3.101679,-1.641536,0.004773829,0.01296692,-0.1127475,-1.062261,-2.644556,1.651087
3.666666,4.133323,75,135,499,497,-0.08097551,-0.1095652,0.1189122,-1.477409,-3.100598,-1.639845,-0.04528642,-0.01158868,-0.09716238,-1.060306,-2.644733,1.651914
4,4.144434,75,135,499,497,-0.08003287,-0.1000379,0.1281633,-1.476602,-3.099994,-1.638206,-0.1212138,-0.02620244,-0.07980631,-1.056985,-2.643836,1.652295
4.333333,4.155545,75,135,499,497,-0.08014725,-0.09397444,0.1324829,-1.475812,-3.099294,-1.636588,-0.1608571,-0.02661893,-0.0758971,-1.054345,-2.643046,1.653162
4.666667,4.166656,75,135,499,497,-0.08468124,-0.0922901,0.1446762,-1.474783,-3.098593,-1.634541,-0.2034164,0.007300019,-0.08339699,-1.052125,-2.640982,1.65443
5,4.177768,80,158,500,494,-0.09380963,-0.1026593,0.1591306,-1.47362,-3.097355,-1.632257,-0.2034123,0.05241141,-0.08544219,-1.051248,-2.638855,1.655458
5.333333,4.188879,80,158,500,494,-0.1118706,-0.1210134,0.1786619,-1.472046,-3.095733,-1.629639,-0.1862376,0.08173782,-0.08446899,-1.050757,-2.636942,1.656343
5.666667,4.19999,80,158,500,494,-0.1235976,-0.137455,0.1931975,-1.470546,-3.093968,-1.62696,-0.1741763,0.08042321,-0.08829796,-1.04993,-2.635987,1.657619
6,4.211102,80,158,500,494,-0.1398954,-0.1558437,0.2084396,-1.468637,-3.092095,-1.62411,-0.1713662,0.04890709,-0.100167,-1.048327,-2.635977,1.659274
6.333334,4.222213,80,158,500,494,-0.146154,-0.1630296,0.2126933,-1.467097,-3.090346,-1.621515,-0.1738128,0.01759921,-0.1139234,-1.046284,-2.63633,1.661235
6.666667,4.233324,84,169,499,495,-0.1583499,-0.1788161,0.2263094,-1.465299,-3.088164,-1.618494,-0.1816649,-0.03016971,-0.1360088,-1.043635,-2.637771,1.663838
7.000001,4.244435,84,169,499,495,-0.1641511,-0.1906717,0.2417483,-1.463462,-3.086134,-1.615278,-0.1904521,-0.05174636,-0.1427279,-1.041074,-2.638419,1.665895
7.333334,4.255547,84,169,499,495,-0.1666382,-0.1971345,0.2722688,-1.461877,-3.084116,-1.611397,-0.2228407,-0.06551065,-0.1346266,-1.037644,-2.638364,1.6675
7.666668,4.266658,84,169,499,495,-0.1749999,-0.1929583,0.3011627,-1.460107,-3.082525,-1.607211,-0.2744599,-0.0381926,-0.05931486,-1.033881,-2.635188,1.665926
8.000001,4.277769,94,163,500,496,-0.180431,-0.1943752,0.3086208,-1.458232,-3.08057,-1.603502,-0.2741873,0.005950645,-0.01152077,-1.03199,-2.632094,1.664572
8.333334,4.28888,94,163,500,496,-0.1911421,-0.2080599,0.314093,-1.456102,-3.078083,-1.59986,-0.2278515,0.09813365,0.02595413,-1.032606,-2.62751,1.662623
8.666667,4.299992,94,163,500,496,-0.2052234,-0.2350212,0.3176108,-1.454087,-3.074998,-1.59611,-0.195498,0.157029,0.007628616,-1.033076,-2.624287,1.663068
9,4.311103,94,163,500,496,-0.2223308,-0.2774262,0.3350764,-1.451749,-3.07101,-1.591777,-0.1671777,0.2034074,-0.06760479,-1.034242,-2.621948,1.666036
9.333333,4.322214,94,163,500,496,-0.2436539,-0.3110794,0.3571039,-1.449143,-3.06696,-1.587186,-0.1690188,0.1998695,-0.1199208,-1.03352,-2.620603,1.668967
9.666666,4.333325,99,136,501,497,-0.2706952,-0.3714196,0.385065,-1.446271,-3.061468,-1.582079,-0.1740434,0.178477,-0.1221241,-1.032537,-2.618994,1.670483
9.999999,4.344437,99,136,501,497,-0.2770516,-0.3843213,0.3922771,-1.443776,-3.057191,-1.577439,-0.163321,0.1615182,-0.1129898,-1.031958,-2.61742,1.671291
10.33333,4.355548,99,136,501,497,-0.2889999,-0.4116119,0.4180267,-1.441022,-3.052073,-1.572062,-0.1574217,0.1257078,-0.1049985,-1.030872,-2.61674,1.6723
10.66667,4.366659,99,136,501,497,-0.2927474,-0.413655,0.4356752,-1.438448,-3.047686,-1.56676,-0.1591865,0.08317132,-0.1317867,-1.029313,-2.616976,1.674819
11,4.37777,99,136,501,497,-0.29348,-0.4090036,0.45,-1.435973,-3.043391,-1.561447,-0.1604036,0.07819736,-0.1499291,-1.028283,-2.616214,1.677106
11.33333,4.388882,98,168,501,496,-0.2956505,-0.3980373,0.4694265,-1.433354,-3.039465,-1.555818,-0.166583,0.08428533,-0.1955142,-1.027333,-2.615872,1.680866
11.66666,4.399993,98,168,501,496,-0.3014275,-0.3898781,0.4818388,-1.43057,-3.035491,-1.550178,-0.169464,0.08835261,-0.2119811,-1.026402,-2.615251,1.684014
12,4.411104,98,168,501,496,-0.3058537,-0.3796178,0.4944278,-1.427604,-3.031744,-1.544452,-0.172371,0.09950703,-0.2257538,-1.025648,-2.614251,1.687193
12.33333,4.422215,98,168,501,496,-0.3065214,-0.3675525,0.5085631,-1.425068,-3.028105,-1.538472,-0.1726212,0.09865172,-0.2259379,-1.024731,-2.613505,1.689954
12.66666,4.433327,106,145,499,498,-0.3006735,-0.3429298,0.5296669,-1.422527,-3.02514,-1.532123,-0.2355858,0.1414988,-0.2030132,-1.02203,-2.607849,1.690966
13,4.444438,106,145,499,498,-0.2905536,-0.3082984,0.5562607,-1.420151,-3.022887,-1.525282,-0.2563904,0.1344043,-0.176465,-1.020303,-2.606577,1.692846
13.33333,4.455549,106,145,499,498,-0.2739604,-0.2718295,0.5765496,-1.418095,-3.021028,-1.518418,-0.2789563,0.11213,-0.1511171,-1.017511,-2.604515,1.693844
13.66666,4.46666,106,145,499,498,-0.2684886,-0.2605642,0.5861142,-1.415825,-3.018504,-1.511629,-0.2976956,0.08227542,-0.1534548,-1.014561,-2.603404,1.69572
14,4.477772,106,145,499,498,-0.2557925,-0.2321283,0.5942398,-1.413774,-3.016745,-1.504968,-0.3077667,0.04726571,-0.1817429,-1.011455,-2.603269,1.699121
14.33333,4.488883,101,159,500,496,-0.2476826,-0.2220172,0.5960243,-1.411857,-3.014564,-1.498534,-0.3074431,0.02889754,-0.202297,-1.008719,-2.603016,1.702429
14.66666,4.499994,101,159,500,496,-0.2475084,-0.2178265,0.5969657,-1.409646,-3.012219,-1.491978,-0.2954345,0.02560157,-0.2127683,-1.00658,-2.602484,1.705464
14.99999,4.511106,101,159,500,496,-0.2443625,-0.215569,0.6000045,-1.407679,-3.009923,-1.48543,-0.2990013,0.03312242,-0.22131,-1.004428,-2.601651,1.708376
15.33333,4.522217,101,159,500,496,-0.2448324,-0.2179782,0.6024989,-1.405511,-3.00736,-1.478866,-0.3061982,0.04352468,-0.2167775,-1.001807,-2.599853,1.710793
15.66666,4.533328,180,108,496,498,-0.2446411,-0.2269332,0.6002985,-1.403528,-3.004471,-1.472531,-0.3280392,0.04788655,-0.211895,-0.9988143,-2.598089,1.713292
15.99999,4.544439,180,108,496,498,-0.2479703,-0.2316867,0.5972958,-1.401423,-3.001656,-1.466166,-0.3374646,0.04865098,-0.2100314,-0.9959402,-2.596898,1.716166
16.33333,4.555551,180,108,496,498,-0.2436068,-0.2328835,0.5905314,-1.399539,-2.998867,-1.460065,-0.3326064,0.04100534,-0.2077822,-0.9932802,-2.59582,1.718746
16.66666,4.566662,180,108,496,498,-0.2392463,-0.2177252,0.5869367,-1.397449,-2.99675,-1.453728,-0.3438668,0.04797703,-0.2256367,-0.9907124,-2.594415,1.72224
16.99999,4.577773,180,108,496,498,-0.2263812,-0.1982366,0.5795212,-1.395857,-2.9949,-1.447719,-0.3705282,0.06950909,-0.2303632,-0.9877606,-2.591929,1.725323
17.33333,4.588884,174,107,497,497,-0.2136832,-0.1689081,0.5757184,-1.394308,-2.99371,-1.441486,-0.388284,0.08150518,-0.2128798,-0.984633,-2.589085,1.727346
17.66666,4.599996,174,107,497,497,-0.2010514,-0.1485876,0.5712525,-1.392842,-2.992316,-1.435278,-0.4027681,0.1004916,-0.1747689,-0.9816854,-2.585471,1.728175
18,4.611107,174,107,497,497,-0.1941625,-0.1393856,0.5777028,-1.39133,-2.99079,-1.428879,-0.3963053,0.1036231,-0.147417,-0.9789785,-2.582368,1.728945
18.33333,4.622218,174,107,497,497,-0.1929861,-0.1382236,0.5760958,-1.389678,-2.989096,-1.422619,-0.3779821,0.09673133,-0.1569329,-0.9766967,-2.580812,1.731207
18.66666,4.633329,174,107,497,497,-0.1912189,-0.1341972,0.586385,-1.388156,-2.987361,-1.416046,-0.3622825,0.07455346,-0.1806758,-0.9741396,-2.579952,1.73431
19,4.644441,168,104,499,497,-0.1928013,-0.1299686,0.5933241,-1.386413,-2.985718,-1.409345,-0.3510404,0.06562591,-0.1967807,-0.9714817,-2.578957,1.73746
19.33333,4.655552,168,104,499,497,-0.1977349,-0.1392443,0.594432,-1.384744,-2.983487,-1.403058,-0.3530946,0.06069753,-0.2030043,-0.9687877,-2.577475,1.740266
19.66667,4.666663,168,104,499,497,-0.201494,-0.1420573,0.5904526,-1.383054,-2.981452,-1.396865,-0.3644281,0.05764821,-0.1809514,-0.9654992,-2.574874,1.741686
20,4.677774,168,104,499,497,-0.2003954,-0.1501291,0.5866217,-1.38154,-2.979128,-1.390817,-0.3699943,0.05264318,-0.1701101,-0.9624392,-2.572881,1.743504
20.33333,4.688886,170,100,493,497,-0.1990954,-0.1443176,0.5863388,-1.380064,-2.977305,-1.38412,-0.3746523,0.04649007,-0.1635311,-0.9592557,-2.570952,1.745331
20.66667,4.699997,170,100,493,497,-0.1991561,-0.1418316,0.5911774,-1.378436,-2.975313,-1.377722,-0.3716036,0.03780609,-0.1716624,-0.9563491,-2.569774,1.747854
21,4.711108,170,100,493,497,-0.1952341,-0.1259471,0.5982761,-1.376766,-2.973836,-1.371167,-0.363671,0.01120231,-0.1904476,-0.9531768,-2.569567,1.751167
21.33334,4.722219,170,100,493,497,-0.1925659,-0.09961993,0.6212405,-1.375115,-2.972923,-1.363545,-0.3498597,0.008934647,-0.2197746,-0.9506941,-2.569217,1.755144
21.66667,4.733331,170,100,493,497,-0.1999393,-0.09416832,0.6523166,-1.373433,-2.971248,-1.35587,-0.3483409,0.007193029,-0.2429265,-0.9480278,-2.568746,1.759122
22,4.744442,170,100,493,497,-0.2116438,-0.1022358,0.6534651,-1.371483,-2.969201,-1.348885,-0.3591598,0.003104061,-0.2535219,-0.9448001,-2.56781,1.762704
22.33334,4.755553,170,100,493,497,-0.2267202,-0.1199844,0.6397189,-1.369466,-2.966553,-1.34274,-0.3744621,0.002836913,-0.2428336,-0.9413934,-2.566383,1.765643
22.66667,4.766665,170,100,493,497,-0.2368613,-0.1432923,0.6318445,-1.367501,-2.963544,-1.336464,-0.3821581,0.00452131,-0.2007794,-0.9382614,-2.563978,1.766799
23.00001,4.777776,170,100,493,497,-0.2417727,-0.1567519,0.6401944,-1.365652,-2.96052,-1.329692,-0.3814113,0.002845556,-0.1800495,-0.9350668,-2.562238,1.768512
23.33334,4.788887,170,100,493,497,-0.2476076,-0.1577856,0.6524696,-1.363636,-2.957707,-1.322585,-0.3575419,-0.01012623,-0.1800527,-0.9322459,-2.561692,1.771083
23.66667,4.799998,170,100,493,497,-0.2446648,-0.1419985,0.6537431,-1.361759,-2.955505,-1.315751,-0.3538381,-0.0209538,-0.1987915,-0.929113,-2.561347,1.774463
24.00001,4.81111,170,100,493,497,-0.2264446,-0.1091658,0.6602622,-1.36046,-2.954166,-1.30857,-0.3610266,-0.04611224,-0.2346977,-0.9255257,-2.561897,1.779123
24.33334,4.822221,170,100,493,497,-0.2176116,-0.07574636,0.6584255,-1.358708,-2.953255,-1.301379,-0.3665801,-0.04948547,-0.2443849,-0.9220993,-2.561352,1.782903
24.66668,4.833332,170,100,493,497,-0.1950091,-0.04133588,0.663348,-1.357616,-2.952797,-1.294014,-0.3829552,-0.04532245,-0.2419974,-0.9185359,-2.560386,1.786222
25.00001,4.844443,217,90,505,499,-0.1917337,-0.01089834,0.6768212,-1.35596,-2.952524,-1.286145,-0.4054975,-0.04117805,-0.2319568,-0.9147074,-2.558889,1.789125
25.33334,4.855555,217,90,505,499,-0.1961421,0.002071574,0.6897913,-1.354196,-2.951556,-1.278293,-0.4257309,-0.04294571,-0.2319057,-0.9106045,-2.557581,1.792462
25.66668,4.866666,217,90,505,499,-0.2041232,-0.001835659,0.7059556,-1.352387,-2.950171,-1.270206,-0.4243956,-0.06390695,-0.2305412,-0.9062247,-2.557256,1.79591
26.00001,4.877777,217,90,505,499,-0.2082241,-0.002262563,0.7135321,-1.350869,-2.948725,-1.262532,-0.4109902,-0.08691606,-0.2377678,-0.9025485,-2.557716,1.799788
26.33335,4.888888,241,88,524,497,-0.2155534,-0.01707602,0.7180105,-1.349094,-2.94678,-1.254803,-0.3895296,-0.108072,-0.2455543,-0.8989905,-2.558673,1.803926
26.66668,4.9,241,88,524,497,-0.2262775,-0.008362412,0.7158569,-1.347075,-2.945471,-1.247132,-0.3611299,-0.1276636,-0.2548505,-0.895807,-2.560058,1.808257
27.00001,4.911111,241,88,524,497,-0.2247407,-0.004157871,0.7136836,-1.345315,-2.944027,-1.239483,-0.348872,-0.1462963,-0.2698213,-0.8922969,-2.561726,1.813089
27.33335,4.922222,241,88,524,497,-0.2113886,0.01862037,0.7154906,-1.34384,-2.943594,-1.231478,-0.3520281,-0.1473703,-0.2756436,-0.8886164,-2.562567,1.817564
27.66668,4.933333,241,88,524,497,-0.2070486,0.04137872,0.7133139,-1.342274,-2.943035,-1.223665,-0.3620999,-0.1412973,-0.2771653,-0.8849919,-2.562995,1.821886
28.00002,4.944445,294,90,485,500,-0.2000011,0.06040967,0.7125923,-1.340755,-2.942693,-1.215559,-0.3847728,-0.1439239,-0.2681174,-0.8807921,-2.563063,1.825784
28.33335,4.955556,294,90,485,500,-0.1985296,0.06288783,0.7156615,-1.339304,-2.941708,-1.207664,-0.3998699,-0.1444075,-0.2556345,-0.876514,-2.562981,1.829493
28.66668,4.966667,294,90,485,500,-0.2093869,0.05716191,0.7137266,-1.337375,-2.940564,-1.199922,-0.4007646,-0.1424277,-0.2417313,-0.8723195,-2.562785,1.833039
29.00002,4.977778,294,90,485,500,-0.214327,0.05546466,0.7137913,-1.33549,-2.939454,-1.192149,-0.3893839,-0.1452843,-0.24275,-0.8687114,-2.563417,1.837056
29.33335,4.98889,294,90,485,500,-0.217352,0.05589178,0.7104539,-1.333695,-2.938182,-1.184514,-0.3887702,-0.1425725,-0.2429015,-0.8649159,-2.563921,1.841111
29.66669,5.000001,243,88,496,497,-0.2151575,0.07111195,0.6975621,-1.331845,-2.937777,-1.176919,-0.3852523,-0.1347946,-0.235664,-0.8613504,-2.563941,1.844745
30.00002,5.011112,243,88,496,497,-0.2017539,0.09781563,0.6909213,-1.330369,-2.937795,-1.169189,-0.3786892,-0.136053,-0.2315955,-0.857843,-2.564266,1.848392
30.33335,5.022223,243,88,496,497,-0.1965533,0.1209784,0.6819014,-1.328737,-2.938032,-1.161331,-0.3835326,-0.1404716,-0.2399019,-0.854047,-2.564916,1.852616
30.66669,5.033335,243,88,496,497,-0.1896693,0.137951,0.6846194,-1.327295,-2.938076,-1.153407,-0.4036074,-0.1514822,-0.2495847,-0.8496112,-2.565382,1.857242
31.00002,5.044446,252,93,491,497,-0.1865212,0.1439213,0.6921927,-1.325819,-2.937951,-1.145166,-0.4151475,-0.1483293,-0.2321366,-0.8452991,-2.564842,1.860487
31.33335,5.055557,252,93,491,497,-0.1878005,0.1411159,0.6848319,-1.324417,-2.937268,-1.137687,-0.4036223,-0.1522271,-0.2164451,-0.8414263,-2.565011,1.863761
31.66669,5.066669,252,93,491,497,-0.179407,0.14486,0.6572959,-1.322995,-2.937157,-1.130827,-0.392729,-0.1630325,-0.1988727,-0.8375887,-2.565382,1.86671
32.00002,5.07778,252,93,491,497,-0.1763787,0.1634244,0.6448447,-1.321404,-2.937635,-1.123484,-0.3766386,-0.1616648,-0.1990767,-0.8339476,-2.565867,1.870367
32.33335,5.088891,252,93,491,497,-0.1601174,0.1839053,0.6304858,-1.32034,-2.938433,-1.115914,-0.3642487,-0.1637991,-0.2134029,-0.830568,-2.566906,1.874664
32.66669,5.100002,247,95,501,497,-0.1527343,0.209429,0.6207204,-1.318992,-2.939512,-1.108362,-0.3616662,-0.1741597,-0.2185965,-0.8268812,-2.567997,1.878996
33.00002,5.111114,247,95,501,497,-0.1437272,0.2209539,0.6116906,-1.317758,-2.940381,-1.101074,-0.3677387,-0.1824515,-0.2208836,-0.8229167,-2.568908,1.883167
33.33335,5.122225,247,95,501,497,-0.1340988,0.2199609,0.5999627,-1.316772,-2.940995,-1.094029,-0.3711109,-0.1839208,-0.2114709,-0.8191553,-2.569392,1.886742
33.66668,5.133336,247,95,501,497,-0.1375295,0.2132353,0.5985518,-1.315467,-2.941277,-1.086859,-0.359257,-0.169034,-0.2109737,-0.8160464,-2.569849,1.890425
34.00002,5.144447,247,94,504,498,-0.1354836,0.2176842,0.5905457,-1.314308,-2.941946,-1.079768,-0.3628093,-0.1633005,-0.2082535,-0.8125651,-2.570192,1.894117
34.33335,5.155559,247,94,504,498,-0.1373723,0.2277042,0.5929061,-1.312985,-2.942605,-1.072324,-0.3735507,-0.1653972,-0.1997966,-0.8085916,-2.570304,1.897578
34.66668,5.16667,247,94,504,498,-0.133546,0.2362117,0.5772792,-1.311823,-2.943559,-1.065442,-0.3702667,-0.1664564,-0.1814656,-0.8047599,-2.570254,1.900271
35.00001,5.177781,247,94,504,498,-0.1280679,0.2445069,0.5617215,-1.310753,-2.944654,-1.058732,-0.3586531,-0.1776703,-0.165711,-0.8010751,-2.571075,1.903272
35.33334,5.188892,247,94,504,498,-0.1155038,0.2515886,0.5446768,-1.309898,-2.945826,-1.052146,-0.3504152,-0.1783527,-0.1716245,-0.7975971,-2.571879,1.906886
35.66668,5.200004,269,98,491,497,-0.1133038,0.2530534,0.5404642,-1.308802,-2.946754,-1.045405,-0.349491,-0.1800442,-0.1824154,-0.7942292,-2.572666,1.910908
36.00001,5.211115,269,98,491,497,-0.1176572,0.2508591,0.5456248,-1.307712,-2.947337,-1.038469,-0.3465708,-0.1702797,-0.1900878,-0.7910547,-2.573189,1.914742
36.33334,5.222226,269,98,491,497,-0.121604,0.2525359,0.5420132,-1.306587,-2.948147,-1.031548,-0.3284846,-0.1708247,-0.1868921,-0.7878951,-2.574188,1.918285
36.66667,5.233337,269,98,491,497,-0.1249483,0.2421643,0.5308704,-1.305329,-2.948484,-1.025229,-0.3341211,-0.1854906,-0.1756764,-0.7839931,-2.575087,1.921705
37,5.244449,252,101,508,498,-0.1328279,0.2405597,0.5057765,-1.303784,-2.949172,-1.019397,-0.3454282,-0.1978664,-0.1601766,-0.7797192,-2.575672,1.92482
37.33334,5.25556,252,101,508,498,-0.1365563,0.2375124,0.4869635,-1.302386,-2.949793,-1.01365,-0.3416205,-0.1997616,-0.1549914,-0.7760553,-2.57638,1.928053
37.66667,5.266671,252,101,508,498,-0.155036,0.2235609,0.4714428,-1.300513,-2.949861,-1.008255,-0.3325335,-0.2170446,-0.1545072,-0.7723471,-2.578102,1.931738
38,5.277782,252,101,508,498,-0.1679008,0.2215866,0.4705541,-1.298641,-2.950245,-1.002182,-0.3296589,-0.216612,-0.1583411,-0.7687417,-2.579242,1.935467
38.33333,5.288894,252,101,508,498,-0.1645958,0.2203228,0.4662957,-1.297179,-2.950535,-0.9964249,-0.3193104,-0.186825,-0.1571068,-0.766127,-2.579209,1.938431
38.66666,5.300005,235,106,500,498,-0.1521072,0.2289919,0.4640965,-1.296098,-2.951336,-0.9903561,-0.3215338,-0.1786952,-0.145806,-0.7628497,-2.579181,1.941071
39,5.311116,235,106,500,498,-0.1206622,0.2608351,0.4625241,-1.295414,-2.953281,-0.9837973,-0.3160844,-0.1554818,-0.1241284,-0.7600092,-2.578397,1.9427
39.33333,5.322227,235,106,500,498,-0.09354913,0.2806829,0.46533,-1.294675,-2.954714,-0.9773369,-0.3103404,-0.1528173,-0.1156039,-0.7570052,-2.578634,1.94504
39.66666,5.333339,235,106,500,498,-0.07663083,0.2939425,0.4659618,-1.294661,-2.956603,-0.9706194,-0.3022584,-0.1666604,-0.1321512,-0.7539052,-2.579961,1.948776
39.99999,5.34445,235,106,500,498,-0.0595952,0.3045201,0.4639926,-1.294345,-2.958334,-0.9641016,-0.2871903,-0.190763,-0.1441017,-0.7505965,-2.581952,1.952821
40.33332,5.355561,223,105,498,495,-0.05240998,0.3004177,0.4471645,-1.293834,-2.959858,-0.9584557,-0.2808059,-0.2109976,-0.1493126,-0.7471908,-2.584029,1.956794
40.66666,5.366673,223,105,498,495,-0.03825775,0.2991869,0.4162948,-1.293705,-2.961626,-0.9533062,-0.2858505,-0.2262076,-0.1481711,-0.7434267,-2.585722,1.96048
40.99999,5.377784,223,105,498,495,-0.03655148,0.3013921,0.4057317,-1.293198,-2.963457,-0.9474339,-0.2837014,-0.2227464,-0.1395807,-0.7403034,-2.586684,1.963491
41.33332,5.388895,223,105,498,495,-0.04325765,0.3034837,0.3956528,-1.292472,-2.965075,-0.9418695,-0.2806765,-0.2073055,-0.1248281,-0.7372354,-2.587202,1.966004
41.66665,5.400006,241,109,495,499,-0.04388729,0.3015667,0.3977599,-1.291916,-2.966576,-0.9360191,-0.2875327,-0.1926011,-0.1179667,-0.7341658,-2.58742,1.968556
41.99998,5.411118,241,109,495,499,-0.04484701,0.3070712,0.4061398,-1.291503,-2.967941,-0.929832,-0.277931,-0.1825635,-0.1170554,-0.7314659,-2.588088,1.971325
42.33332,5.422229,241,109,495,499,-0.03679869,0.3174698,0.4327188,-1.291343,-2.969614,-0.922829,-0.2855042,-0.1871896,-0.1168102,-0.7279974,-2.58903,1.974594
42.66665,5.43334,241,109,495,499,-0.03441733,0.3242103,0.4396778,-1.291008,-2.971206,-0.9162813,-0.2745164,-0.1901409,-0.1094613,-0.7250105,-2.590012,1.97729
42.99998,5.444451,241,109,495,499,-0.02138343,0.3268037,0.4376839,-1.291031,-2.972847,-0.9100405,-0.2617777,-0.2078239,-0.1146123,-0.7217917,-2.592107,1.980966
43.33331,5.455563,257,127,505,496,-0.01663968,0.3316685,0.4248082,-1.290894,-2.974709,-0.9039951,-0.2496713,-0.2211606,-0.1288693,-0.7187813,-2.594588,1.985179
43.66665,5.466674,257,127,505,496,-0.009732008,0.3408381,0.4055829,-1.290925,-2.977015,-0.8981516,-0.2358675,-0.2391773,-0.1492822,-0.715847,-2.59791,1.990128
43.99998,5.477785,257,127,505,496,-0.01232234,0.3437852,0.4019293,-1.290688,-2.978801,-0.8919762,-0.2348634,-0.247802,-0.153108,-0.7126608,-2.600555,1.994549
44.33331,5.488896,257,127,505,496,-0.02001885,0.3478839,0.3973463,-1.29016,-2.980675,-0.8858883,-0.2283207,-0.2430486,-0.1382428,-0.7095998,-2.602212,1.997567
44.66664,5.500008,274,127,500,498,-0.02125028,0.3540913,0.3923401,-1.289712,-2.982636,-0.8797939,-0.2430472,-0.2378969,-0.1277612,-0.7064061,-2.603367,2.000742
44.99997,5.511119,274,127,500,498,-0.02122018,0.3588883,0.393791,-1.289426,-2.9847,-0.8735291,-0.2469714,-0.2351556,-0.1189391,-0.7031523,-2.604768,2.00391
45.33331,5.52223,274,127,500,498,-0.01962993,0.3630605,0.3944692,-1.289121,-2.986641,-0.8672839,-0.2576171,-0.230871,-0.1101171,-0.6998622,-2.605947,2.006959
45.66664,5.533341,274,127,500,498,-0.01035479,0.3709647,0.3986957,-1.289176,-2.98875,-0.860763,-0.2620007,-0.232146,-0.1083841,-0.6965066,-2.607356,2.010305
45.99997,5.544453,274,127,500,498,-0.004633248,0.3772906,0.3997559,-1.289172,-2.990838,-0.8542542,-0.2603698,-0.2510798,-0.1093282,-0.6929034,-2.609887,2.014189
46.3333,5.555564,227,125,497,497,-0.004742324,0.3905736,0.4004633,-1.289078,-2.992373,-0.8476692,-0.2580042,-0.2769355,-0.1200628,-0.6890466,-2.613107,2.019015
46.66663,5.566675,227,125,497,497,-0.00177002,0.4001652,0.4030561,-1.288822,-2.994344,-0.8405501,-0.2549623,-0.2941987,-0.1226657,-0.6852878,-2.616232,2.023669
46.99997,5.577786,227,125,497,497,-0.003753304,0.4209168,0.4410545,-1.28873,-2.996353,-0.8323715,-0.2427085,-0.2969784,-0.130862,-0.6821197,-2.619473,2.02828
47.3333,5.588898,227,125,497,497,-0.005536139,0.430106,0.4527016,-1.28861,-2.998324,-0.8247176,-0.2379877,-0.3032981,-0.1460637,-0.6787865,-2.623008,2.033606
47.66663,5.600009,227,125,497,497,-0.02282321,0.4219045,0.4516259,-1.287988,-2.999888,-0.8177199,-0.2408849,-0.3093293,-0.1512049,-0.6752237,-2.626121,2.038608
47.99996,5.61112,248,128,507,495,-0.02116793,0.4146357,0.4363089,-1.287706,-3.001791,-0.8111802,-0.2333829,-0.317068,-0.1470679,-0.6716956,-2.629663,2.043487
48.33329,5.622231,248,128,507,495,-0.02370119,0.4090047,0.4077665,-1.287229,-3.003867,-0.8050991,-0.2281184,-0.3459315,-0.1475313,-0.667655,-2.634284,2.049145
48.66663,5.633343,248,128,507,495,-0.03046694,0.406307,0.3965235,-1.286738,-3.005774,-0.7988093,-0.2332349,-0.360226,-0.1518283,-0.6635729,-2.638584,2.055043
48.99996,5.644454,248,128,507,495,-0.05320075,0.4024639,0.4014429,-1.285564,-3.007023,-0.792145,-0.2368998,-0.3542574,-0.1401066,-0.65973,-2.641721,2.059736
49.33329,5.655565,255,135,490,496,-0.08087462,0.3983967,0.4061159,-1.284008,-3.008296,-0.7855281,-0.231137,-0.3234797,-0.1321393,-0.656874,-2.64397,2.063611
49.66662,5.666677,255,135,490,496,-0.08941007,0.4030168,0.4053435,-1.282872,-3.009832,-0.7787759,-0.2477404,-0.3218198,-0.1259019,-0.6530327,-2.64633,2.068087
49.99995,5.677788,255,135,490,496,-0.1070565,0.4124982,0.4253479,-1.281422,-3.010947,-0.7712908,-0.2809883,-0.3368864,-0.1108573,-0.6480206,-2.648708,2.072752
50.33329,5.688899,255,135,490,496,-0.1206496,0.4257755,0.4435486,-1.279881,-3.01216,-0.7635075,-0.2841303,-0.3418555,-0.113534,-0.6438602,-2.651781,2.077833
50.66662,5.70001,255,135,490,496,-0.1298583,0.4285378,0.4559436,-1.27864,-3.013332,-0.7560341,-0.2880013,-0.3505575,-0.1105037,-0.6396332,-2.654796,2.08284
50.99995,5.711122,297,140,491,494,-0.1241655,0.4183486,0.4330615,-1.277667,-3.014758,-0.7498503,-0.2853889,-0.3627639,-0.1007466,-0.6351032,-2.658131,2.087686
51.33328,5.722233,297,140,491,494,-0.1025455,0.4122357,0.3982234,-1.27697,-3.016619,-0.7441629,-0.2804354,-0.373628,-0.09411396,-0.630628,-2.661649,2.092585
51.66661,5.733344,297,140,491,494,-0.09916586,0.4179816,0.3977702,-1.276008,-3.018235,-0.7373878,-0.2679022,-0.3793636,-0.1158144,-0.6267893,-2.666359,2.099032
51.99995,5.744455,297,140,491,494,-0.09805542,0.4230296,0.3962172,-1.274988,-3.019781,-0.7305812,-0.2652106,-0.3746608,-0.127568,-0.6229309,-2.67027,2.10502
52.33328,5.755567,330,127,485,495,-0.09998155,0.4278836,0.3969267,-1.273877,-3.021342,-0.72368,-0.2609913,-0.37417,-0.1328079,-0.6191279,-2.674407,2.111051
52.66661,5.766678,330,127,485,495,-0.1019258,0.4354593,0.3971125,-1.272752,-3.023099,-0.7165821,-0.260072,-0.3851718,-0.1180126,-0.6146858,-2.678442,2.11651
52.99994,5.777789,330,127,485,495,-0.09658849,0.4466756,0.4120811,-1.272005,-3.024653,-0.7089601,-0.2522683,-0.3900838,-0.1143534,-0.6106953,-2.682626,2.122216
53.33327,5.7889,330,127,485,495,-0.08521843,0.4577112,0.4138201,-1.271349,-3.02665,-0.7014942,-0.2408143,-0.3908646,-0.1163919,-0.6068864,-2.687243,2.128229
53.66661,5.800012,330,127,485,495,-0.0638715,0.4627008,0.4039164,-1.271169,-3.028644,-0.694472,-0.2359045,-0.3872095,-0.1235271,-0.603174,-2.691742,2.134495
53.99994,5.811123,323,128,499,498,-0.03631443,0.4603665,0.3917287,-1.271545,-3.030755,-0.6877224,-0.2363001,-0.4064777,-0.1396355,-0.5990765,-2.697635,2.142225
54.33327,5.822234,323,128,499,498,-0.02076203,0.462894,0.3838971,-1.271668,-3.032778,-0.6808062,-0.2304313,-0.4133603,-0.1298099,-0.5948559,-2.702617,2.148487
54.6666,5.833345,323,128,499,498,-0.01148641,0.4626852,0.3810749,-1.271766,-3.034662,-0.6738383,-0.2130648,-0.3834911,-0.1245927,-0.5919414,-2.706615,2.153801
54.99994,5.844457,323,128,499,498,-0.005637884,0.4683644,0.3789477,-1.271845,-3.036702,-0.6667852,-0.2031607,-0.381418,-0.1181329,-0.5885772,-2.711313,2.159651
55.33327,5.855568,312,125,487,497,0.007677674,0.4917501,0.3975166,-1.272367,-3.038976,-0.6587393,-0.2038355,-0.379117,-0.1207145,-0.585129,-2.715744,2.165685
55.6666,5.866679,312,125,487,497,0.01406139,0.5010523,0.4043359,-1.272734,-3.041054,-0.6509112,-0.2083163,-0.3934315,-0.1207374,-0.5811118,-2.721167,2.172622
55.99993,5.87779,312,125,487,497,0.02337086,0.5114233,0.3960718,-1.273176,-3.043595,-0.6433808,-0.2172265,-0.4046302,-0.1292254,-0.5770814,-2.726789,2.180085
56.33326,5.888902,312,125,487,497,0.03329027,0.4999518,0.372143,-1.273707,-3.046046,-0.6367634,-0.2309915,-0.4367782,-0.1352928,-0.5723362,-2.733526,2.18875
56.6666,5.900013,312,125,487,497,0.02896476,0.4860749,0.3565639,-1.273831,-3.047933,-0.630318,-0.2412808,-0.4438041,-0.1250504,-0.5679058,-2.738713,2.195744
56.99993,5.911124,312,125,487,497,0.02831304,0.4793546,0.3439692,-1.274132,-3.050152,-0.6236958,-0.2277357,-0.4518948,-0.1265796,-0.5638903,-2.745284,2.203641
57.33326,5.922235,312,125,487,497,0.02932584,0.4808878,0.3386453,-1.274422,-3.052298,-0.6168925,-0.2290345,-0.420987,-0.1144263,-0.560442,-2.74929,2.20941
57.66659,5.933347,312,125,487,497,0.03132749,0.4872979,0.3349025,-1.274896,-3.054631,-0.6099768,-0.2391158,-0.4014117,-0.09849703,-0.5565922,-2.75315,2.215174
57.99992,5.944458,312,125,487,497,0.03432566,0.4991956,0.3486146,-1.275376,-3.056722,-0.602415,-0.2440059,-0.3971539,-0.08566529,-0.552493,-2.757237,2.221022
58.33326,5.955569,312,125,487,497,0.02352232,0.5217525,0.3823064,-1.275651,-3.058501,-0.5940058,-0.2558731,-0.394913,-0.06090552,-0.5478479,-2.760411,2.22592
58.66659,5.966681,405,144,523,498,0.02156562,0.5342767,0.4074463,-1.276118,-3.060302,-0.585708,-0.2611478,-0.4034899,-0.06469238,-0.5435565,-2.76526,2.232823
58.99992,5.977792,405,144,523,498,0.03405052,0.5172073,0.3785155,-1.276794,-3.062256,-0.579188,-0.2538095,-0.4076826,-0.07264052,-0.53977,-2.770463,2.239774
59.33325,5.988903,405,144,523,498,0.06030852,0.4972093,0.3311059,-1.277911,-3.065025,-0.5734702,-0.2423092,-0.4245232,-0.07271977,-0.535526,-2.776514,2.247255
59.66658,6.000014,405,144,523,498,0.07145816,0.4941961,0.3163828,-1.278799,-3.067253,-0.5668789,-0.2216613,-0.4207767,-0.07486771,-0.5319329,-2.782139,2.254015
59.99992,6.011126,409,148,484,494,0.06999481,0.4990655,0.3158804,-1.279538,-3.069501,-0.5599062,-0.2027049,-0.4061514,-0.07063597,-0.5286817,-2.78729,2.260201
60.33325,6.022237,409,148,484,494,0.06343311,0.519698,0.3334776,-1.28013,-3.071498,-0.5519476,-0.2070698,-0.3985574,-0.07548702,-0.5253416,-2.79232,2.26706
60.66658,6.033348,409,148,484,494,0.05089128,0.5267708,0.3455111,-1.280515,-3.073277,-0.5443752,-0.2043627,-0.3950104,-0.08040337,-0.5219972,-2.797792,2.274179
60.99991,6.044459,409,148,484,494,0.04935372,0.5198078,0.3370871,-1.281037,-3.075136,-0.5374712,-0.2029394,-0.4045363,-0.0868462,-0.5184152,-2.804294,2.28226
61.33324,6.055571,409,148,484,494,0.04562515,0.4785736,0.2979658,-1.281463,-3.076846,-0.5325118,-0.2250722,-0.4290163,-0.07228255,-0.5136689,-2.809994,2.289738
61.66658,6.066682,409,149,522,496,0.03598163,0.4668834,0.2816049,-1.281706,-3.078715,-0.5267248,-0.2420927,-0.431091,-0.02616125,-0.5084465,-2.81384,2.294975
61.99991,6.077793,409,149,522,496,0.01166868,0.4690204,0.2828064,-1.281309,-3.08021,-0.5202075,-0.2398034,-0.4180561,-0.004577562,-0.5041407,-2.817583,2.299958
62.33324,6.088904,409,149,522,496,-0.000531435,0.4658158,0.2817684,-1.281105,-3.081813,-0.5140141,-0.252109,-0.3894745,0.01078679,-0.5000197,-2.81992,2.304148
62.66657,6.100016,409,149,522,496,-0.0175457,0.4646387,0.2917276,-1.280689,-3.082754,-0.507558,-0.2488679,-0.3786808,0.002889708,-0.4964356,-2.823938,2.309833
62.9999,6.111127,407,145,491,500,-0.0372113,0.4694487,0.3106034,-1.280081,-3.083603,-0.500653,-0.2393824,-0.3627192,-0.0131323,-0.4933005,-2.828156,2.315881
63.33324,6.122238,407,145,491,500,-0.04512954,0.4885002,0.3348645,-1.279743,-3.084448,-0.493129,-0.2242379,-0.3621359,-0.02903014,-0.4900962,-2.833467,2.322726
63.66657,6.133349,407,145,491,500,-0.03429264,0.4889045,0.3194922,-1.279769,-3.086125,-0.486575,-0.2115297,-0.3796576,-0.04430948,-0.4866724,-2.840292,2.331085
63.9999,6.144461,407,145,491,500,-0.001189679,0.450265,0.2689777,-1.280463,-3.087895,-0.4822047,-0.1959569,-0.3891751,-0.03651968,-0.4828125,-2.846378,2.338155
64.33324,6.155572,407,145,491,500,0.02989992,0.4467748,0.2614318,-1.281611,-3.089616,-0.4762286,-0.187552,-0.3747004,-0.02144031,-0.4795506,-2.850609,2.343525
64.66657,6.166683,409,146,488,495,0.05216333,0.4476341,0.2636722,-1.282748,-3.091243,-0.4702141,-0.1939944,-0.3589022,-0.009927556,-0.4761109,-2.854399,2.348748
64.99991,6.177794,409,146,488,495,0.08110791,0.4512044,0.260551,-1.284377,-3.093058,-0.4640734,-0.1947051,-0.3506017,-0.005179524,-0.4727324,-2.859051,2.354728
65.33324,6.188906,409,146,488,495,0.1140333,0.4507174,0.2557964,-1.286544,-3.095075,-0.4582507,-0.1876402,-0.3588006,-0.03024861,-0.4698498,-2.86552,2.362811
65.66658,6.200017,409,146,488,495,0.1376242,0.4651447,0.2522121,-1.288564,-3.097277,-0.4518628,-0.1894825,-0.3672894,-0.05933157,-0.4670982,-2.872418,2.371789
65.99992,6.211128,409,146,488,495,0.1503315,0.4750663,0.2504337,-1.290592,-3.099547,-0.445501,-0.1915756,-0.377739,-0.06673734,-0.4639764,-2.879225,2.380482
66.33325,6.222239,409,146,488,495,0.1649133,0.4751377,0.2372894,-1.292643,-3.101853,-0.4394674,-0.1867425,-0.3793163,-0.05251496,-0.4606566,-2.885036,2.387616
66.66659,6.233351,409,146,488,495,0.1667313,0.4656133,0.2337181,-1.294595,-3.103666,-0.4337267,-0.1936566,-0.3587466,-0.0160569,-0.4569649,-2.888088,2.391974
66.99992,6.244462,409,146,488,495,0.1512184,0.4556346,0.2206202,-1.295756,-3.105428,-0.4282411,-0.1849877,-0.3313586,-0.0142716,-0.4546996,-2.891833,2.396882
67.33326,6.255573,409,146,488,495,0.1392377,0.4356248,0.2167443,-1.297141,-3.106684,-0.423081,-0.1942997,-0.3427879,-0.03197795,-0.4519842,-2.897758,2.404938
67.6666,6.266685,386,130,506,497,0.1227141,0.4266847,0.2092413,-1.29806,-3.10816,-0.4178867,-0.1928236,-0.3565369,-0.04952662,-0.4491554,-2.904853,2.413978
67.99993,6.277796,386,130,506,497,0.08304441,0.4150041,0.1940632,-1.297974,-3.109541,-0.4129428,-0.1833478,-0.3705111,-0.05076401,-0.446096,-2.912181,2.42261
68.33327,6.288907,386,130,506,497,0.07661957,0.4131694,0.1927251,-1.298776,-3.110945,-0.4077571,-0.1733703,-0.3673477,-0.02577932,-0.4427505,-2.917722,2.429079
68.6666,6.300018,386,130,506,497,0.0712153,0.4122314,0.1784064,-1.299398,-3.112668,-0.4027238,-0.1660272,-0.3545305,-0.01153162,-0.4397103,-2.922387,2.434893
68.99994,6.31113,386,130,506,497,0.07721633,0.4176095,0.169325,-1.300297,-3.114542,-0.3975194,-0.1631114,-0.3469291,-0.01433609,-0.4369773,-2.927994,2.441825
69.33327,6.322241,362,127,533,500,0.07152295,0.4171183,0.166306,-1.300814,-3.116148,-0.3923273,-0.1623814,-0.3330929,-0.0282709,-0.4347499,-2.933471,2.449057
69.66661,6.333352,362,127,533,500,0.0589532,0.4117022,0.1636646,-1.301166,-3.117479,-0.3874383,-0.1600129,-0.3360138,-0.03825034,-0.4323584,-2.939991,2.457156
69.99995,6.344463,362,127,533,500,0.05649576,0.4043821,0.163087,-1.301725,-3.118827,-0.3825668,-0.1568808,-0.3286419,-0.03427741,-0.4299855,-2.945526,2.463833
70.33328,6.355575,362,127,533,500,0.05561206,0.4054355,0.1551295,-1.302297,-3.120498,-0.377755,-0.155541,-0.3389205,-0.005490988,-0.4265798,-2.950675,2.46987
70.66662,6.366686,372,127,526,498,0.06580782,0.4063278,0.1504155,-1.303205,-3.122243,-0.3727563,-0.137171,-0.3447311,-0.0007113516,-0.4238144,-2.957375,2.477153
70.99995,6.377797,372,127,526,498,0.07685047,0.4073911,0.1418502,-1.304247,-3.124151,-0.3678965,-0.1322756,-0.3553742,0.004305184,-0.4208748,-2.964357,2.485191
71.33329,6.388908,372,127,526,498,0.07471403,0.4140515,0.1419849,-1.304952,-3.125933,-0.3627843,-0.123928,-0.357058,0.019803,-0.4177221,-2.970671,2.492023
71.66663,6.40002,372,127,526,498,0.06258893,0.4163266,0.1470572,-1.305272,-3.127255,-0.3576167,-0.1191938,-0.3637593,0.02043684,-0.4147591,-2.977479,2.499711
71.99996,6.411131,372,127,526,498,0.06291941,0.4215659,0.1495093,-1.305916,-3.12885,-0.3523511,-0.1220633,-0.3590899,0.03062645,-0.4116182,-2.983637,2.506702
72.3333,6.422242,372,127,526,498,0.06068957,0.4455085,0.1656545,-1.3067,-3.130317,-0.3459521,-0.1180229,-0.3586906,0.04674777,-0.4082839,-2.989455,2.513193
72.66663,6.433353,372,127,526,498,0.0592854,0.5091892,0.2028505,-1.307574,-3.131943,-0.3376143,-0.09382546,-0.3388306,0.06032917,-0.4055808,-2.994797,2.518221
72.99997,6.444465,372,127,526,498,0.05943787,0.5078461,0.2033897,-1.30828,-3.133452,-0.3314038,-0.08347225,-0.3233945,0.0503619,-0.4036857,-3.000523,2.524143
73.33331,6.455576,372,127,526,498,0.07804868,0.4758229,0.1774641,-1.30955,-3.135169,-0.32669,-0.08395487,-0.3412169,0.01927227,-0.4017421,-3.009437,2.533996
73.66664,6.466687,349,154,490,499,0.1020055,0.4274054,0.1364294,-1.311171,-3.137053,-0.3233919,-0.08856001,-0.3492494,0.002739087,-0.3994875,-3.017661,2.543282
73.99998,6.477798,349,154,490,499,0.09587395,0.4420075,0.1311397,-1.311811,-3.138966,-0.3174413,-0.08561009,-0.3559938,0.00206098,-0.3970885,-3.025312,2.551486
74.33331,6.48891,349,154,490,499,0.0879001,0.444314,0.1309449,-1.312333,-3.14079,-0.3120213,-0.07701758,-0.3698204,0.02122636,-0.3940152,-3.033821,2.560104
74.66665,6.500021,349,154,490,499,0.08566347,0.4540712,0.1295606,-1.313094,3.140705,-0.3063727,-0.06832796,-0.3572724,0.05388935,-0.3908232,-3.039725,2.565825
74.99998,6.511132,349,154,490,499,0.1052568,0.4606999,0.1278074,-1.313975,3.138752,-0.2997803,-0.06255034,-0.3479412,0.05883273,-0.3881664,-3.046569,2.572723
75.33332,6.522243,379,122,512,498,0.1139264,0.4582578,0.1290764,-1.315405,3.137003,-0.2943411,-0.06656453,-0.3508756,0.05860879,-0.3856252,-3.053929,2.580788
75.66666,6.533355,379,122,512,498,0.1146161,0.460804,0.1314934,-1.31636,3.135566,-0.2883277,-0.05349836,-0.348744,0.05940093,-0.3830904,-3.061695,2.588392
75.99999,6.544466,379,122,512,498,0.1296474,0.4584069,0.1336144,-1.318099,3.133959,-0.2829523,-0.05001038,-0.3466821,0.06817333,-0.3804224,-3.068733,2.595489
76.33333,6.555577,379,122,512,498,0.1521365,0.4562862,0.134109,-1.320105,3.132383,-0.2772015,-0.0387091,-0.3364407,0.05406642,-0.3785577,-3.076398,2.603121
76.66666,6.566689,379,122,512,498,0.168678,0.461541,0.1293574,-1.322212,3.130534,-0.271333,-0.037577,-0.3480151,0.02776924,-0.3769987,-3.086048,2.613245
77,6.5778,435,132,469,498,0.1765371,0.4683451,0.1248541,-1.324185,3.128566,-0.2656999,-0.0364154,-0.3620054,0.0198918,-0.3747701,-3.095966,2.62357
77.33334,6.588911,435,132,469,498,0.1787268,0.4649355,0.1248112,-1.326055,3.12671,-0.2602356,-0.04336718,-0.3821775,0.02476518,-0.3719813,-3.106492,2.634568
77.66667,6.600022,435,132,469,498,0.169915,0.4651101,0.1213299,-1.32761,3.125065,-0.2548624,-0.04409441,-0.3785841,0.03228371,-0.3695056,-3.114986,2.643215
78.00001,6.611134,435,132,469,498,0.1560897,0.4596796,0.1188215,-1.328616,3.123196,-0.2492527,-0.04252282,-0.3787326,0.03264731,-0.3671844,-3.124494,2.652997
78.33334,6.622245,404,151,492,490,0.1375419,0.4601471,0.1160164,-1.329523,3.121749,-0.2439306,-0.07149863,-0.3796154,0.04466043,-0.3637963,-3.132219,2.662246
78.66668,6.633356,404,151,492,490,0.1329356,0.4601955,0.1135558,-1.330597,3.119915,-0.2384147,-0.07534304,-0.3831222,0.05204277,-0.3610085,-3.141202,2.671889
79.00002,6.644467,404,151,492,490,0.1345879,0.4635435,0.1100504,-1.3319,3.118026,-0.232723,-0.07493261,-0.4137127,0.08622389,-0.3571097,3.130077,2.683344
79.33335,6.655579,404,151,492,490,0.1331933,0.4619178,0.1136315,-1.333334,3.11666,-0.2272774,-0.0654614,-0.4215946,0.09666598,-0.3537525,3.119091,2.694345
79.66669,6.66669,404,151,492,490,0.1156183,0.4790024,0.1206662,-1.33408,3.115382,-0.2213023,-0.06246045,-0.4129559,0.08671981,-0.3512624,3.109101,2.705186
80.00002,6.677801,437,152,492,499,0.08843112,0.5267993,0.14603,-1.334297,3.114032,-0.2133671,-0.06334764,-0.4219674,0.08003081,-0.348473,3.097391,2.717483
80.33336,6.688912,437,152,492,499,0.05849141,0.535642,0.1490381,-1.333997,3.112628,-0.206469,-0.06647652,-0.4344985,0.07473522,-0.3456959,3.08521,2.730337
80.66669,6.700024,437,152,492,499,0.06837577,0.4950395,0.1251197,-1.335005,3.111281,-0.2019869,-0.0629853,-0.4432222,0.09618147,-0.3420681,3.073415,2.741958
81.00003,6.711135,437,152,492,499,0.05910435,0.4682275,0.1068489,-1.335062,3.109575,-0.197148,-0.05981264,-0.4507234,0.09844856,-0.3390076,3.060756,2.754962
81.33337,6.722246,477,141,483,497,0.04647386,0.458734,0.09880775,-1.335201,3.108393,-0.1921295,-0.06669796,-0.4588139,0.1124772,-0.335309,3.048308,2.767904
81.6667,6.733357,477,141,483,497,0.02308175,0.4626041,0.1010807,-1.334867,3.107544,-0.1866929,-0.06233555,-0.4565112,0.1127514,-0.3322901,3.035755,2.780787
82.00004,6.744469,477,141,483,497,0.005785227,0.4689678,0.1065528,-1.334623,3.10685,-0.1810657,-0.05152395,-0.4473357,0.08198464,-0.3305063,3.022644,2.794608
82.33337,6.75558,477,141,483,497,-0.002608567,0.4726579,0.1062954,-1.334033,3.105553,-0.1751407,-0.04545805,-0.4463134,0.07606128,-0.3282218,3.009344,2.8083
82.66671,6.766691,477,141,483,497,-0.009125829,0.4799777,0.1085777,-1.333847,3.10464,-0.1692892,-0.04594854,-0.4297869,0.07297483,-0.3261206,2.998267,2.820114
83.00005,6.777802,492,124,504,498,-0.02108991,0.4913498,0.1086745,-1.332968,3.103344,-0.1630377,-0.050753,-0.4364244,0.06600687,-0.3239405,2.984563,2.834678
83.33338,6.788914,492,124,504,498,-0.03097045,0.4913766,0.114164,-1.332115,3.102138,-0.1565976,-0.05269191,-0.4538006,0.06734732,-0.3215959,2.969549,2.850414
83.66672,6.800025,492,124,504,498,-0.03617197,0.4929813,0.1138637,-1.331726,3.101586,-0.1509581,-0.02760521,-0.4598505,0.08200973,-0.319232,2.954705,2.864876
84.00005,6.811136,492,124,504,498,-0.02749521,0.4955893,0.1133636,-1.33133,3.100148,-0.1445207,-0.01676297,-0.4455737,0.07553354,-0.3174733,2.941152,2.878486
84.33339,6.822248,494,127,462,499,-0.01759613,0.4974927,0.1119242,-1.331433,3.099461,-0.1389398,-0.02278894,-0.4454705,0.0727153,-0.3154951,2.927702,2.892662
84.66673,6.833359,494,127,462,499,-0.003892422,0.4953026,0.1158492,-1.331385,3.098283,-0.1326137,-0.04365656,-0.47117,0.06658974,-0.313314,2.910851,2.910875
85.00006,6.84447,494,127,462,499,0.01013762,0.4993205,0.1155425,-1.331937,3.097657,-0.1268416,-0.0499219,-0.4660358,0.0730783,-0.3110966,2.897273,2.925323
85.3334,6.855581,494,127,462,499,0.02284688,0.5021583,0.1180916,-1.332811,3.097165,-0.1212047,-0.05371803,-0.4519265,0.07597393,-0.3090907,2.883943,2.939506
85.66673,6.866693,494,127,462,499,0.03161523,0.4988667,0.1181918,-1.333359,3.095814,-0.1157602,-0.05171835,-0.4523376,0.07432361,-0.3072888,2.869217,2.954949
86.00007,6.877804,533,144,502,500,0.03020093,0.4982924,0.121632,-1.333858,3.095613,-0.1100407,-0.05190313,-0.4504686,0.06734447,-0.3057277,2.854591,2.970597
86.3334,6.888915,533,144,502,500,0.0257867,0.4984286,0.122665,-1.334216,3.09508,-0.104234,-0.04395384,-0.4376673,0.06102844,-0.3044222,2.840691,2.98513
86.66674,6.900026,533,144,502,500,0.02434936,0.4901821,0.1258769,-1.334189,3.093673,-0.09869568,-0.04363248,-0.4349191,0.03846647,-0.3037394,2.82601,3.000928
87.00008,6.911138,533,144,502,500,0.01802108,0.4900303,0.1243553,-1.334423,3.093223,-0.09298693,-0.039332,-0.4450344,0.02192046,-0.3031753,2.809736,3.018255
87.33341,6.922249,533,144,502,500,0.01267731,0.4864646,0.1232114,-1.334239,3.092172,-0.08760522,-0.03533664,-0.446055,0.031177,-0.3020675,2.794419,3.03426
87.66675,6.93336,471,144,501,497,0.008485019,0.4877238,0.1212776,-1.334418,3.091738,-0.08193588,-0.03195435,-0.4372219,0.04016447,-0.3009079,2.779924,3.049416
88.00008,6.944471,471,144,501,497,0.0009551048,0.4885588,0.1269484,-1.334521,3.091438,-0.07697601,-0.03077486,-0.4235204,0.04726464,-0.2996898,2.76636,3.063604
88.33342,6.955583,471,144,501,497,-0.003663599,0.4950759,0.1332553,-1.334639,3.09162,-0.07113143,-0.03583774,-0.4065855,0.05904572,-0.2982815,2.753797,3.076959
88.66676,6.966694,471,144,501,497,-0.0006580651,0.4860064,0.1338936,-1.3348,3.090992,-0.06629354,-0.03900585,-0.4123487,0.03793134,-0.2982442,2.739336,3.092526
89.00009,6.977805,541,155,490,499,0.0157623,0.4751805,0.1323836,-1.335779,3.091123,-0.0610503,-0.04085475,-0.4127349,0.0463883,-0.2972429,2.725129,3.107865
89.33343,6.988916,541,155,490,499,0.04096678,0.4525475,0.1313721,-1.337051,3.091036,-0.05636847,-0.03519234,-0.3898973,0.02923347,-0.2971257,2.713142,3.120694
89.66676,7.000028,541,155,490,499,0.04838967,0.4478954,0.1375523,-1.338138,3.091415,-0.05126106,-0.0347625,-0.4085451,0.03843518,-0.2963683,2.69767,3.137196
90.0001,7.011139,541,155,490,499,0.05595362,0.4459329,0.1423999,-1.339221,3.091618,-0.04620744,-0.02792138,-0.4154451,0.03393742,-0.2960146,2.682115,-3.129631
90.0001,7.02225,541,155,490,499,0.05618739,0.4479858,0.139297,-1.340172,3.091815,-0.0409754,-0.03001365,-0.4434114,0.02576074,-0.2958639,2.663925,-3.110171
90.0001,7.033361,465,157,504,493,0.06033322,0.444464,0.1330916,-1.341193,3.09192,-0.03580087,-0.03807417,-0.4875764,0.03488268,-0.2953243,2.642857,-3.087492
90.0001,7.044473,465,157,504,493,0.05846381,0.4433471,0.1244178,-1.342075,3.091861,-0.03088628,-0.0309945,-0.510619,0.0405165,-0.2949675,2.622487,-3.065919
90.0001,7.055584,465,157,504,493,0.05121478,0.4371069,0.1213772,-1.342684,3.091857,-0.02606702,-0.03137928,-0.4698788,0.05267505,-0.2942761,2.608975,-3.051558
90.0001,7.066695,465,157,504,493,0.03422153,0.4325171,0.1181567,-1.343172,3.09227,-0.02146561,-0.02383655,-0.4355414,0.05147056,-0.2940583,2.596603,-3.03864
90.0001,7.077806,530,154,530,505,0.03449953,0.4333559,0.1149851,-1.343834,3.092503,-0.01647964,-0.02256611,-0.4156379,0.06182626,-0.293475,2.582984,-3.024296
90.0001,7.088918,530,154,530,505,0.03006452,0.4325153,0.1083548,-1.344226,3.09238,-0.01166358,-0.02254528,-0.3870272,0.05970307,-0.2931789,2.571183,-3.011652
90.0001,7.100029,530,154,530,505,0.03400356,0.4294301,0.1038543,-1.345065,3.092481,-0.006871488,-0.01490638,-0.384649,0.05189197,-0.2935102,2.557099,-2.996928
90.0001,7.11114,530,154,530,505,0.02806836,0.4179082,0.1000966,-1.345536,3.092619,-0.002493784,0.002318174,-0.3780621,0.04089153,-0.2941067,2.543686,-2.983229
90.0001,7.122252,530,154,530,505,0.02177304,0.4149072,0.1072027,-1.345891,3.09324,0.002240251,0.01339152,-0.3668032,0.02828339,-0.2947901,2.530745,-2.969961
90.0001,7.133363,517,143,509,500,0.01565585,0.4144006,0.1082417,-1.346176,3.093472,0.006856042,0.0141328,-0.3601161,0.01646598,-0.2956338,2.518838,-2.957394
90.0001,7.144474,517,143,509,500,0.01503423,0.4120333,0.104306,-1.34663,3.093425,0.01168062,0.02128056,-0.3521981,-0.01897986,-0.2974341,2.507552,-2.945446
90.0001,7.155585,517,143,509,500,0.01226407,0.4104496,0.09572993,-1.347078,3.093581,0.01625647,0.02026156,-0.3495117,-0.01802766,-0.2983997,2.495644,-2.932851
90.0001,7.166697,517,143,509,500,0.0003138483,0.4036479,0.0886282,-1.346558,3.093395,0.02109064,0.02864352,-0.3304347,-0.0008455291,-0.2986314,2.484534,-2.921735
90.0001,7.177808,512,150,497,498,-0.0193083,0.3927006,0.0778446,-1.34621,3.093608,0.02525902,0.04407886,-0.3234766,-0.008266218,-0.2998986,2.47404,-2.91122
90.0001,7.188919,512,150,497,498,-0.04951984,0.375247,0.07462278,-1.345143,3.093991,0.02900023,0.02730361,-0.2952212,-0.01542909,-0.3007124,2.466722,-2.90311
90.0001,7.20003,512,150,497,498,-0.09587446,0.353562,0.06552848,-1.343222,3.09452,0.03245435,0.04216221,-0.3302979,0.04366331,-0.3000653,2.450098,-2.886549
90.0001,7.211142,512,150,497,498,-0.1373953,0.3353851,0.05031016,-1.340943,3.09472,0.03565227,0.0768086,-0.2206226,0.1045282,-0.2979502,2.443158,-2.882178
90.0001,7.222253,512,150,497,498,-0.1828532,0.3042119,0.0672878,-1.338414,3.096456,0.03814765,0.03784618,-0.1819563,0.07417366,-0.2980556,2.441404,-2.87963
90.0001,7.233364,507,156,515,500,-0.1943421,0.2795095,0.084131,-1.336375,3.097911,0.04062386,-0.006474316,-0.2273558,0.07504086,-0.2977968,2.430033,-2.866359
90.0001,7.244475,507,156,515,500,-0.1963784,0.2475476,0.09096293,-1.334705,3.099278,0.04256371,-0.006691143,-0.2001802,0.04873946,-0.2984211,2.423881,-2.859818
90.0001,7.255587,507,156,515,500,-0.1899752,0.2155564,0.0834105,-1.332986,3.10026,0.04406253,0.0004318357,-0.1453414,0.004062682,-0.2995396,2.425121,-2.861023
90.0001,7.266698,507,156,515,500,-0.1857837,0.1807759,0.07258679,-1.331348,3.10116,0.0450772,-0.004897296,-0.1473726,0.01825052,-0.299555,2.419553,-2.855166
90.0001,7.277809,507,156,515,500,-0.1741334,0.163088,0.0661493,-1.329942,3.102029,0.04639972,0.005631775,-0.1575476,0.04006505,-0.2991992,2.411736,-2.847274
90.0001,7.28892,587,144,519,500,-0.1217912,0.118561,0.06709715,-1.330197,3.102838,0.04645618,0.007946059,-0.1640844,0.06122546,-0.2986362,2.40407,-2.839553
90.0001,7.300032,587,144,519,500,-0.09030613,0.09618237,0.0700863,-1.330181,3.103613,0.04697443,0.02190609,-0.1713052,0.0488431,-0.2992834,2.397099,-2.832577
90.0001,7.311143,587,144,519,500,-0.04627371,0.07190006,0.07628441,-1.331156,3.104568,0.04702397,0.01452416,-0.1406476,-0.000624422,-0.3006128,2.396497,-2.831535
90.0001,7.322254,587,144,519,500,-0.01757606,0.05770443,0.0813408,-1.332056,3.105548,0.04734088,0.003418535,-0.1372148,-0.01581746,-0.3014698,2.393419,-2.82777
90.0001,7.333365,531,184,487,496,0.01389584,0.04473259,0.08063078,-1.333371,3.106286,0.04728442,-0.005843639,-0.1211756,-0.01341154,-0.3017596,2.391025,-2.824823
90.0001,7.344477,531,184,487,496,0.03817724,0.02979523,0.08197761,-1.334772,3.107176,0.04703728,-0.01788463,-0.0800973,-0.002061084,-0.3012184,2.391455,-2.824946
90.0001,7.355588,531,184,487,496,0.05288469,0.01082283,0.08997056,-1.33597,3.108386,0.04654992,-0.02521097,-0.05269799,-0.01027008,-0.3013963,2.391951,-2.824928
90.0001,7.366699,531,184,487,496,0.06842604,-0.003944516,0.09895826,-1.337453,3.109559,0.04592408,-0.02527337,-0.01780683,-0.005233998,-0.3010661,2.393952,-2.826813
90.0001,7.37781,531,184,487,496,0.08656467,-0.02600011,0.1070876,-1.339224,3.110892,0.0449973,-0.02630393,0.008176178,-0.01875198,-0.3012733,2.396605,-2.829281
90.0001,7.388922,617,215,551,504,0.1228063,-0.0331717,0.1172519,-1.341811,3.11213,0.04427239,-0.03251239,0.0304001,-0.05175137,-0.3021548,2.401674,-2.833747
90.0001,7.400033,617,215,551,504,0.1498766,-0.0414685,0.112214,-1.344371,3.11295,0.04347451,-0.03874044,0.01988512,-0.0518054,-0.3025948,2.402412,-2.833647
90.0001,7.411144,617,215,551,504,0.1803742,-0.04544183,0.1020246,-1.347254,3.113282,0.04283055,-0.03803065,-0.006218594,-0.01223777,-0.3018459,2.39921,-2.830062
90.0001,7.422256,617,215,551,504,0.1989336,-0.04201122,0.09456737,-1.349918,3.113739,0.04228514,-0.03069444,-0.00888247,0.01638613,-0.3010746,2.397293,-2.8283
90.0001,7.433367,584,205,463,499,0.1913507,-0.04501408,0.09041502,-1.351997,3.114427,0.04160124,-0.03660004,0.003522173,0.02706298,-0.3003023,2.398235,-2.828871
90.0001,7.444478,584,205,463,499,0.1645723,-0.04836478,0.08819786,-1.353343,3.115469,0.04066008,-0.03513198,0.02880804,0.02056304,-0.2998496,2.40122,-2.831733
90.0001,7.455589,584,205,463,499,0.1405415,-0.05034694,0.07931226,-1.354366,3.116023,0.03999695,-0.03316774,0.03214052,-0.002997287,-0.3002235,2.403713,-2.833873
90.0001,7.466701,584,205,463,499,0.1031228,-0.04903414,0.05338427,-1.354499,3.116206,0.03928482,-0.03854591,0.03609637,-0.02585836,-0.3007796,2.407156,-2.836684
90.0001,7.477812,584,205,463,499,0.08105309,-0.04587093,0.04059801,-1.354954,3.116332,0.03880013,-0.02747111,0.02894903,-0.02578434,-0.3009058,2.407812,-2.837279
90.0001,7.488923,475,148,485,500,0.05437405,-0.04373427,0.01984718,-1.354891,3.11621,0.03823554,-0.01901703,0.03139936,0.004105007,-0.3000669,2.408072,-2.837816
90.0001,7.500034,475,148,485,500,0.02776468,-0.04384049,0.0121047,-1.354643,3.116397,0.03772474,-0.01822688,0.04134395,0.009598529,-0.2995151,2.409705,-2.839476
90.0001,7.511146,475,148,485,500,0.00362017,-0.04659345,0.007812883,-1.354204,3.116711,0.03701102,-0.01323444,0.05576214,0.008274448,-0.2991454,2.412776,-2.842773
90.0001,7.522257,475,148,485,500,-0.004601225,-0.04745631,0.0100555,-1.354125,3.117058,0.03638411,-0.009633236,0.0599223,-0.01277988,-0.2995907,2.415995,-2.84586
90.0001,7.533368,445,175,473,492,-0.000317052,-0.04025752,0.001316321,-1.354163,3.116863,0.03613111,-0.01667532,0.05871078,-0.02179606,-0.2997702,2.418922,-2.848456
90.0001,7.544479,445,175,473,492,0.01150614,-0.03384507,-0.006825234,-1.354711,3.116596,0.03576199,-0.01072253,0.02360647,-0.003976122,-0.2995881,2.416794,-2.846411
90.0001,7.555591,445,175,473,492,0.02189761,-0.02992188,-0.01358032,-1.355156,3.116192,0.03551485,-0.01591809,0.009899572,0.03315056,-0.2983475,2.414686,-2.844257
90.0001,7.566702,445,175,473,492,0.02623037,-0.02397973,-0.009164937,-1.355627,3.116241,0.03531139,-0.002527561,0.01818405,0.04333013,-0.2976487,2.414328,-2.844596
90.0001,7.577813,445,175,473,492,0.03560622,-0.02027026,-0.002853483,-1.35636,3.116278,0.03511218,0.006188236,0.03099043,0.0199806,-0.2979918,2.417016,-2.847605
90.0001,7.588924,590,205,492,502,0.04365981,-0.01571716,0.00439034,-1.357188,3.11643,0.03496038,0.001711901,0.05198492,-0.03542127,-0.2994767,2.423162,-2.853459
90.0001,7.600036,590,205,492,502,0.05571565,-0.00446438,-0.0006291363,-1.358026,3.116065,0.0351761,-0.001752511,0.05583331,-0.05465717,-0.3002948,2.426873,-2.85696
90.0001,7.611147,590,205,492,502,0.06532674,0.004267843,-0.004521845,-1.359014,3.115721,0.03540193,0.008873191,0.04464206,-0.03281318,-0.3001734,2.426707,-2.857281
90.0001,7.622258,590,205,492,502,0.072733,0.000570083,-0.01242011,-1.360089,3.115178,0.03529434,0.00806864,0.02949436,0.007377681,-0.2990544,2.424878,-2.855713
90.0001,7.633369,590,205,492,502,0.08304483,-0.007810012,-0.004957292,-1.361407,3.115204,0.03488315,0.01123152,0.02314408,0.03957832,-0.2979939,2.423741,-2.855009
90.0001,7.644481,552,192,511,498,0.08411188,-0.003449589,-0.00509394,-1.362477,3.114897,0.0349183,0.01273818,0.01929181,0.02796385,-0.2980312,2.423939,-2.855406
90.0001,7.655592,552,192,511,498,0.080919,0.002972815,-0.005827237,-1.363264,3.114612,0.03513775,0.01643428,0.01493044,0.0005011037,-0.2989079,2.424672,-2.856238
90.0001,7.666703,552,192,511,498,0.07196295,0.001262126,-0.004950289,-1.3639,3.114553,0.03507064,0.02309034,0.008505026,-0.03720496,-0.300387,2.425701,-2.857322
90.0001,7.677814,552,192,511,498,0.07050572,-0.003243882,-0.01726061,-1.364407,3.113979,0.03482083,0.0159577,0.01249798,-0.03869062,-0.3006086,2.426949,-2.858385
90.0001,7.688926,540,193,456,492,0.06905021,-0.002011884,-0.02518576,-1.365031,3.113352,0.03482722,0.01344723,-0.008743338,0.004455136,-0.2997835,2.423649,-2.855303
90.0001,7.700037,540,193,456,492,0.0771996,0.00959919,-0.02789643,-1.366013,3.112746,0.03529381,0.01062127,-0.00594238,0.03644603,-0.2986586,2.421922,-2.853914
90.0001,7.711148,540,193,456,492,0.07936205,0.01865293,-0.02361801,-1.367,3.112368,0.03565333,0.0206812,0.01048829,0.02313944,-0.2986916,2.423224,-2.855826
90.0001,7.72226,540,193,456,492,0.08113395,0.0208859,-0.01733383,-1.367988,3.112143,0.03596386,0.01506075,0.01155805,-0.03234711,-0.3005255,2.426127,-2.858428
90.0001,7.733371,540,193,456,492,0.07190543,0.01462982,-0.01506095,-1.368535,3.11196,0.03590474,0.01729193,0.01635185,-0.05258294,-0.3015833,2.428224,-2.86057
90.0001,7.744482,509,205,451,493,0.07121828,0.007241748,-0.0165764,-1.369425,3.111712,0.03572737,0.01792482,0.001262419,-0.03166073,-0.3015135,2.426379,-2.858932
90.0001,7.755593,509,205,451,493,0.06850649,0.014008,-0.01937842,-1.370168,3.111205,0.03609702,0.01596262,-0.01468448,0.003942484,-0.3008051,2.423592,-2.856366
90.0001,7.766705,509,205,451,493,0.06390624,0.0219722,-0.02350864,-1.370798,3.11077,0.0364395,0.01809685,-0.01901978,0.03700012,-0.2997553,2.420748,-2.85401
90.0001,7.777816,509,205,451,493,0.04778357,0.01812217,-0.02453075,-1.370885,3.110477,0.03653484,0.02203136,-0.00673751,0.01597148,-0.3001862,2.421409,-2.85504
90.0001,7.788927,453,166,491,497,0.03538335,0.0183351,-0.02289425,-1.37097,3.110267,0.03664403,0.02597774,-0.004081575,0.002630431,-0.3006102,2.421554,-2.855478
90.0001,7.800038,453,166,491,497,0.01846071,0.01325434,-0.02984716,-1.370639,3.109765,0.03659343,0.04325952,-0.007389072,-0.006844723,-0.3012861,2.420415,-2.85519
90.0001,7.81115,453,166,491,497,0.01331932,0.01756845,-0.03139054,-1.370619,3.109317,0.03696894,0.04606951,-0.003395252,0.0002196776,-0.3012595,2.419827,-2.855259
90.0001,7.822261,453,166,491,497,0.01797759,0.0223157,-0.03284165,-1.370885,3.108782,0.03728852,0.03436939,-0.006689683,0.001111005,-0.3011928,2.418857,-2.854344
90.0001,7.833372,453,166,491,497,0.02580043,0.02744961,-0.02907882,-1.371396,3.108443,0.0376587,0.02282007,-0.006202731,0.005278305,-0.3008744,2.41866,-2.854216
90.0001,7.844483,458,179,488,499,0.03160037,0.03009915,-0.03064243,-1.37184,3.107923,0.03809598,0.0277213,-0.01126484,-0.008891544,-0.3014752,2.418014,-2.853814
90.0001,7.855595,458,179,488,499,0.03381982,0.03378703,-0.02620948,-1.37224,3.107601,0.0385924,0.02656261,-0.009152271,-0.01892538,-0.3020557,2.418084,-2.853974
90.0001,7.866706,458,179,488,499,0.03637708,0.03013353,-0.02293609,-1.372634,3.107341,0.03885978,0.02764197,-0.00594382,-0.01329288,-0.3021569,2.417929,-2.854122
90.0001,7.877817,458,179,488,499,0.03181916,0.02468399,-0.01714966,-1.372874,3.107299,0.03899933,0.03565112,-0.009192336,0.00574701,-0.301905,2.415652,-2.852555
90.0001,7.888928,478,169,456,498,0.02951461,0.02447715,-0.01661704,-1.373164,3.107038,0.03926139,0.03069649,-0.008339318,0.01124188,-0.3017255,2.414879,-2.852032
90.0001,7.90004,478,169,456,498,0.03000038,0.01938128,-0.01847801,-1.373569,3.106701,0.03944035,0.03049039,-0.01881309,0.01019776,-0.3018736,2.413377,-2.850765
90.0001,7.911151,478,169,456,498,0.02981376,0.01814922,-0.01762672,-1.373841,3.106432,0.03963103,0.03096203,-0.01784985,0.005934992,-0.3020728,2.412535,-2.85021
90.0001,7.922262,478,169,456,498,0.02850336,0.01357941,-0.01648372,-1.37418,3.106197,0.03960387,0.02858319,-0.01699212,-0.01301883,-0.3027279,2.412549,-2.850312
90.0001,7.933373,478,169,456,498,0.02883983,0.01306931,-0.01317914,-1.374522,3.106088,0.03968643,0.02174265,-0.01022266,-0.01012387,-0.3027508,2.412738,-2.850554
90.0001,7.944485,480,149,516,500,0.03352246,0.01382033,-0.009803109,-1.375172,3.105869,0.03980893,0.01906293,0.002439765,-0.01077188,-0.3026784,2.414031,-2.851985
90.0001,7.955596,480,149,516,500,0.04427923,0.01092857,-0.008974882,-1.375935,3.105632,0.03984195,0.01401116,-0.001902146,-0.01176456,-0.3028717,2.413819,-2.851701
90.0001,7.966707,480,149,516,500,0.07226145,0.01078475,-0.007214371,-1.377617,3.10524,0.03983397,0.00790688,-0.01670301,-0.009611903,-0.3030347,2.411913,-2.84956
90.0001,7.977818,480,149,516,500,0.08653694,0.0117872,-0.002865938,-1.378996,3.104971,0.03991865,0.001877265,-0.01580354,0.001120156,-0.3026203,2.411214,-2.84875
90.0001,7.98893,480,149,516,500,0.08647841,0.01532864,0.002023986,-1.379985,3.104927,0.04012212,0.006974434,-0.01938734,-0.0228121,-0.3035364,2.411163,-2.848635
90.0001,8.000041,481,163,510,502,0.07286483,0.01980013,0.004093528,-1.380447,3.104876,0.04046141,0.01037689,-0.01723846,-0.02648873,-0.304035,2.41142,-2.849073
90.0001,8.011152,481,163,510,502,0.05373378,0.02616586,0.006360712,-1.380671,3.105018,0.04086461,0.00919047,-0.01038429,-0.03440502,-0.3045948,2.412241,-2.849835
90.0001,8.022264,481,163,510,502,0.04344793,0.02141904,-0.001106871,-1.380841,3.104658,0.04093012,0.00567897,-0.01217366,-0.01336315,-0.3042811,2.410955,-2.848567
