ref,t,emg1,emg2,emg1raw,emg2raw,aDotS,bDotS,gDotS,aS,bS,gS,aDotSH,bDotSH,gDotSH,aSH,bSH,gSH
0,0,92,206,499,498,0.3440077,-0.7290633,-0.4279867,-1.381413,-2.954689,-1.644229,0.08156362,0.2046219,0.0005342215,-1.036997,-2.652781,1.652654
0,0.01111111,92,206,499,498,0.358873,-0.6522803,-0.4017991,-1.386562,-2.948906,-1.647828,0.0792962,0.2144328,0.02094349,-1.038933,-2.650565,1.651469
0,0.02222222,94,176,499,498,0.4001806,-0.5812598,-0.3826603,-1.392678,-2.944214,-1.651295,0.08707048,0.2043519,0.05421798,-1.040885,-2.648553,1.649567
0,0.03333334,94,176,499,498,0.4186376,-0.519708,-0.3616377,-1.398384,-2.939652,-1.654441,0.0847027,0.185921,0.06900057,-1.042525,-2.646967,1.648116
0,0.04444445,94,176,499,498,0.4375487,-0.4334978,-0.3298072,-1.404142,-2.937211,-1.657138,0.08456904,0.1654246,0.05702425,-1.043982,-2.646076,1.647608
0,0.05555556,94,176,499,498,0.4644059,-0.3506495,-0.2990801,-1.410176,-2.935184,-1.659631,0.08823596,0.1526312,0.05314036,-1.045504,-2.645246,1.646994
0,0.06666667,110,219,498,494,0.4841258,-0.2519724,-0.2639188,-1.416026,-2.935209,-1.661681,0.08609001,0.1445763,0.0493045,-1.046938,-2.644246,1.646399
0,0.07777778,110,219,498,494,0.4966318,-0.1834408,-0.2417713,-1.421707,-2.934862,-1.663882,0.07129495,0.1114321,0.05669308,-1.047496,-2.643492,1.645349
0,0.08888889,110,219,498,494,0.5133597,-0.08742283,-0.2120356,-1.427574,-2.937053,-1.665556,0.06783677,0.09964965,0.06725561,-1.048395,-2.642587,1.644086
0,0.1,110,219,498,494,0.5303969,-0.006173244,-0.1955943,-1.433774,-2.939045,-1.667624,0.104373,0.09890502,0.07940502,-1.050663,-2.64198,1.642621
0,0.1111111,110,219,498,494,0.5325414,0.04227839,-0.1790915,-1.439457,-2.941183,-1.669297,0.1173576,0.09679255,0.08458166,-1.052513,-2.641229,1.641397
0,0.1222222,99,192,499,497,0.5350169,0.08968106,-0.1621672,-1.445364,-2.943246,-1.670995,0.1329881,0.09632593,0.08498998,-1.054645,-2.640714,1.640214
0,0.1333333,99,192,499,497,0.5165253,0.1261037,-0.1373292,-1.450388,-2.945595,-1.672205,0.1383669,0.07439508,0.08654401,-1.056063,-2.640746,1.639016
0,0.1444445,99,192,499,497,0.5103086,0.1410995,-0.119746,-1.455651,-2.947863,-1.673268,0.1416869,0.04953257,0.08146999,-1.057435,-2.64123,1.638154
0,0.1555556,99,192,499,497,0.4997699,0.15211,-0.1172798,-1.460667,-2.949791,-1.674873,0.1388946,0.03603854,0.0863564,-1.058685,-2.641282,1.63688
0,0.1666667,99,192,499,497,0.4826864,0.1662384,-0.09787624,-1.465378,-2.952326,-1.675668,0.1222416,0.01833944,0.07177268,-1.059291,-2.641762,1.63641
0,0.1777778,88,161,498,500,0.4612136,0.1792826,-0.06144264,-1.469817,-2.954963,-1.675677,0.1466828,0.02691825,0.02368836,-1.061572,-2.642828,1.637522
0,0.1888889,88,161,498,500,0.4464167,0.1796129,-0.05489555,-1.474264,-2.957253,-1.676299,0.1746696,0.02231731,0.01814543,-1.063993,-2.643916,1.637364
0,0.2,88,161,498,500,0.4143961,0.1951637,-0.05150713,-1.477836,-2.959854,-1.677186,0.1930161,0.0149803,0.02839775,-1.06626,-2.6449,1.636733
0,0.2111111,88,161,498,500,0.3959662,0.2167988,-0.05551708,-1.48147,-2.962955,-1.678224,0.1922312,0.01191406,0.03475829,-1.068064,-2.645521,1.636148
0,0.2222222,87,158,500,517,0.37476,0.2177511,-0.06052747,-1.485111,-2.965456,-1.679424,0.1636753,0.001131043,0.04394089,-1.068887,-2.645909,1.635314
0,0.2333333,87,158,500,517,0.3493626,0.218553,-0.05245394,-1.488182,-2.967814,-1.680121,0.1229196,-0.01217408,0.04213685,-1.068913,-2.646317,1.634904
0,0.2444444,87,158,500,517,0.3319238,0.2073957,-0.0488954,-1.491283,-2.969941,-1.680774,0.1090269,-0.01421011,0.04501472,-1.069536,-2.646641,1.634275
0,0.2555556,87,158,500,517,0.308845,0.2061163,-0.03250282,-1.494059,-2.972273,-1.680914,0.1054154,-0.01265873,0.04550264,-1.070526,-2.647,1.633601
0,0.2666667,87,158,500,517,0.2972415,0.2118154,-0.0266249,-1.496889,-2.974904,-1.681305,0.1098399,-0.0038298,0.04924084,-1.071785,-2.64715,1.632861
0,0.2777778,103,194,496,497,0.2710155,0.2336315,-0.01323139,-1.49913,-2.978204,-1.681712,0.1046932,-0.003769584,0.05068069,-1.072654,-2.647443,1.632198
0,0.2888889,103,194,496,497,0.2413767,0.2620635,0.007872308,-1.500748,-2.982101,-1.681435,0.09347996,0.002112959,0.05485835,-1.073358,-2.647244,1.631372
0,0.3,103,194,496,497,0.2062815,0.2955077,0.02878029,-1.501957,-2.986355,-1.68088,0.06681253,-0.005347848,0.0634417,-1.073226,-2.647056,1.630486
0,0.3111111,103,194,496,497,0.1792259,0.3185419,0.03807378,-1.502912,-2.990669,-1.680642,0.04786422,-0.0192729,0.06974928,-1.072956,-2.647155,1.629506
0,0.3222222,111,192,497,498,0.129966,0.3665425,0.06294391,-1.502838,-2.996016,-1.679826,0.02421862,-0.04785873,0.07950801,-1.071967,-2.647557,1.62826
0,0.3333333,111,192,497,498,0.1166572,0.3741878,0.06505842,-1.50346,-3.000518,-1.679507,0.004538044,-0.08096356,0.06737453,-1.070766,-2.648679,1.627828
0,0.3444445,111,192,497,498,0.05441256,0.395957,0.08750269,-1.502237,-3.0055,-1.678434,0.0006297417,-0.0910213,0.03696231,-1.070079,-2.649976,1.628296
0,0.3555556,111,192,497,498,0.02636232,0.3861775,0.08582233,-1.501665,-3.009435,-1.678292,0.008043582,-0.08491587,0.02213874,-1.070058,-2.650895,1.628415
0,0.3666667,111,192,497,498,0.0006782711,0.3532748,0.08093747,-1.500795,-3.012613,-1.677852,0.0008894447,-0.0752963,0.02913143,-1.06961,-2.651072,1.627874
0,0.3777778,116,211,496,499,-0.01432952,0.3155968,0.06971842,-1.500217,-3.015092,-1.67768,-0.02066031,-0.07069474,0.03901938,-1.06859,-2.650854,1.626987
0,0.3888889,116,211,496,499,-0.03874668,0.2515925,0.05802187,-1.499032,-3.016092,-1.677469,-0.03902306,-0.05921716,0.03558952,-1.067619,-2.650805,1.626767
0,0.4,116,211,496,499,-0.05466146,0.1827765,0.04528774,-1.498037,-3.016159,-1.677398,-0.05148423,-0.04518619,0.03170092,-1.06676,-2.650376,1.626482
0,0.4111111,116,211,496,499,-0.06862836,0.1151653,0.032664,-1.496912,-3.01564,-1.677291,-0.05285705,-0.03488328,0.03163767,-1.06618,-2.650158,1.626199
0,0.4222222,124,175,496,498,-0.07656811,0.07783711,0.02781979,-1.495859,-3.015469,-1.677183,-0.06338116,-0.007818989,0.03156582,-1.065621,-2.648915,1.625741
0,0.4333333,124,175,496,498,-0.08212771,0.03323463,0.01610363,-1.494861,-3.014679,-1.677238,-0.07745957,0.02488467,0.02533362,-1.065143,-2.64737,1.625568
0,0.4444444,124,175,496,498,-0.09052879,0.003294682,0.01252019,-1.49368,-3.013812,-1.677126,-0.07461691,0.03840325,0.01958667,-1.064863,-2.646262,1.625445
0,0.4555556,124,175,496,498,-0.1006998,-0.009727092,0.01103887,-1.492356,-3.013345,-1.67709,-0.07097994,0.04456892,0.01290844,-1.064605,-2.645458,1.625389
0,0.4666667,124,175,496,498,-0.1017105,-0.01233391,0.01375882,-1.49122,-3.013082,-1.676839,-0.06260844,0.04302278,0.0004831422,-1.064427,-2.644972,1.625709
0,0.4777778,132,218,496,502,-0.09868278,-0.008348224,0.01669263,-1.490243,-3.013036,-1.676605,-0.06005812,0.03672028,-0.009982789,-1.064046,-2.644734,1.626085
0,0.4888889,132,218,496,502,-0.0926251,0.0009487581,0.02068541,-1.489404,-3.013249,-1.676319,-0.05559756,0.02544426,-0.01234067,-1.063618,-2.644636,1.626336
0,0.5,132,218,496,502,-0.08763559,0.01164362,0.02279174,-1.488645,-3.013616,-1.67606,-0.05121346,0.01636366,-0.01137,-1.063138,-2.644571,1.626438
0,0.5111111,132,218,496,502,-0.07381979,0.01295566,0.02417965,-1.488247,-3.013734,-1.675766,-0.05678604,0.02129588,-0.004190583,-1.062626,-2.64371,1.626394
0,0.5222223,132,218,496,502,-0.05466837,0.01560731,0.01933652,-1.48813,-3.013969,-1.675816,-0.07316203,0.02730749,-0.003108965,-1.061762,-2.642682,1.626365
0,0.5333334,141,214,496,498,-0.04375608,0.007381389,0.0188413,-1.487838,-3.013787,-1.67562,-0.0728571,0.04267277,-0.01458528,-1.061575,-2.641762,1.626911
0,0.5444446,141,214,496,498,-0.03261071,-0.00776325,0.01481742,-1.487835,-3.013271,-1.675503,-0.06024992,0.05451246,-0.02376993,-1.06175,-2.641028,1.627433
0,0.5555557,141,214,496,498,-0.02271391,-0.01853687,0.01600247,-1.487848,-3.012769,-1.675171,-0.03994898,0.07228348,-0.0277961,-1.062455,-2.640193,1.627732
0,0.5666668,141,214,496,498,-0.02036875,-0.02598529,0.01563729,-1.487733,-3.01229,-1.674943,-0.02427495,0.07365268,-0.01121204,-1.062981,-2.639339,1.627316
0,0.577778,146,155,494,500,-0.01493142,-0.03247396,0.02198692,-1.487626,-3.011891,-1.674523,-0.0168179,0.07604905,0.002105001,-1.063325,-2.638238,1.626704
0,0.5888891,146,155,494,500,-0.007059606,-0.01213085,0.03034278,-1.487747,-3.012428,-1.67402,-0.01450464,0.07242656,0.005912846,-1.063523,-2.637496,1.626521
0,0.6000003,146,155,494,500,-0.001172679,0.004588398,0.0347,-1.487787,-3.013138,-1.673645,-0.02338237,0.04835311,0.004140832,-1.063007,-2.637359,1.62654
0,0.6111114,146,155,494,500,0.007947531,0.0199507,0.04095849,-1.48805,-3.013827,-1.673045,-0.02849241,0.01818305,-0.00480558,-1.062305,-2.637838,1.626932
0,0.6222225,146,155,494,500,0.01679942,0.04433049,0.05108574,-1.488293,-3.015145,-1.672423,-0.02209248,0.009820221,-0.01721622,-1.062195,-2.638193,1.627555
0,0.6333337,148,172,496,498,0.0218426,0.05517022,0.05205541,-1.488595,-3.016157,-1.671912,-0.01701398,0.00961161,-0.0282113,-1.062275,-2.638335,1.628265
0,0.6444448,148,172,496,498,0.02397935,0.05385163,0.05934134,-1.488779,-3.016665,-1.671183,-0.01090343,0.03199444,-0.02403866,-1.062764,-2.637599,1.628401
0,0.655556,148,172,496,498,0.01984454,0.05141629,0.05449651,-1.488797,-3.01721,-1.670752,-0.007806205,0.04125044,-0.01265993,-1.063116,-2.636853,1.628188
0,0.6666671,148,172,496,498,0.0202432,0.0388373,0.04664842,-1.489064,-3.017343,-1.670432,-0.01340796,0.04842592,0.004988607,-1.063212,-2.635772,1.627514
0,0.6777782,145,150,496,498,0.01734403,0.02830603,0.04461904,-1.489095,-3.01744,-1.67003,-0.01937527,0.0519939,0.009308352,-1.063138,-2.634923,1.627239
0,0.6888894,145,150,496,498,0.01484735,0.004115372,0.03459966,-1.48924,-3.01685,-1.669893,-0.02898604,0.05328342,0.008892585,-1.062928,-2.634009,1.627086
0,0.7000005,145,150,496,498,0.01115762,-0.01632767,0.02746495,-1.489254,-3.016103,-1.669735,-0.02837083,0.05424526,0.005540055,-1.062891,-2.633234,1.627229
0,0.7111117,145,150,496,498,0.01053319,-0.03309203,0.02430337,-1.489338,-3.015419,-1.669435,-0.03192521,0.0559479,0.008421125,-1.062828,-2.632399,1.627046
0,0.7222228,145,150,496,498,0.009744866,-0.04134799,0.01624449,-1.489476,-3.014734,-1.669398,-0.03220451,0.05239794,0.009398715,-1.062751,-2.631709,1.626861
0,0.7333339,137,156,495,503,0.005761473,-0.0535568,0.0171938,-1.489443,-3.013901,-1.669093,-0.03308432,0.04566941,0.003235391,-1.062519,-2.631296,1.626973
0,0.7444451,137,156,495,503,0.001832313,-0.06582633,0.01271092,-1.489438,-3.012846,-1.668961,-0.04106474,0.04235067,0.005217941,-1.062139,-2.630563,1.626815
0,0.7555562,137,156,495,503,0.001034185,-0.0746811,0.007796854,-1.489558,-3.011815,-1.66895,-0.0453361,0.04304727,0.00191782,-1.061749,-2.629825,1.626918
0,0.7666674,137,156,495,503,-0.002980098,-0.0819819,-0.0001010448,-1.489519,-3.010669,-1.669031,-0.05058975,0.0391911,-0.008998834,-1.061299,-2.629385,1.627337
0,0.7777785,131,165,497,497,-0.0007542162,-0.08487329,-0.00170164,-1.489676,-3.009659,-1.668971,-0.04843574,0.03772117,-0.009007132,-1.061074,-2.628935,1.627498
0,0.7888896,131,165,497,497,-0.005955769,-0.0891988,-0.002499838,-1.489788,-3.008507,-1.668808,-0.04295809,0.04115046,0.0005043987,-1.061072,-2.62812,1.627122
0,0.8000008,131,165,497,497,-0.00608802,-0.08173937,-0.007622284,-1.489774,-3.007599,-1.669032,-0.04467487,0.03386998,0.003884465,-1.060644,-2.627558,1.626961
0,0.8111119,131,165,497,497,-0.002961626,-0.07832627,-0.008040114,-1.48992,-3.006929,-1.668992,-0.04291555,0.03498889,-0.000887515,-1.060435,-2.626977,1.627132
0,0.8222231,131,165,497,497,-0.005500638,-0.06228556,-0.007230235,-1.489822,-3.006595,-1.669142,-0.03703727,0.04152492,-0.01047673,-1.060514,-2.626481,1.627515
0,0.8333342,123,175,496,500,-0.006881665,-0.05119628,-0.002962749,-1.489862,-3.006283,-1.668937,-0.02952415,0.04962763,-0.009105821,-1.060753,-2.625695,1.627452
0,0.8444453,123,175,496,500,-0.01155026,-0.0368424,0.0007936533,-1.489592,-3.006249,-1.668821,-0.03465004,0.05593768,0.003331533,-1.060685,-2.624581,1.627042
0,0.8555565,123,175,496,500,-0.0129208,-0.02613621,0.007140735,-1.489645,-3.006285,-1.668591,-0.03334702,0.05392371,0.008115957,-1.060556,-2.623844,1.626735
0,0.8666676,123,175,496,500,-0.0112789,-0.009263382,0.01573497,-1.489515,-3.006609,-1.668156,-0.03158821,0.04714346,0.009551868,-1.060455,-2.62331,1.62654
0,0.8777788,123,175,496,500,-0.0114652,-0.004149099,0.02318955,-1.489313,-3.006742,-1.667781,-0.03057089,0.03541716,0.001920132,-1.060331,-2.62339,1.626797
0,0.8888899,117,149,497,495,-0.01175323,0.006984405,0.02743573,-1.489158,-3.00713,-1.667416,-0.02081507,0.01570696,-0.01386973,-1.060191,-2.624062,1.627504
0,0.900001,117,149,497,495,-0.01503775,0.01130642,0.02714418,-1.488932,-3.007458,-1.667195,-0.007906375,-0.004868122,-0.02251074,-1.060221,-2.624951,1.628094
0,0.9111122,117,149,497,495,-0.01291301,0.01135136,0.02715065,-1.488708,-3.007488,-1.667063,-0.004533319,-0.02020419,-0.02394105,-1.059937,-2.625579,1.6284
0,0.9222233,117,149,497,495,-0.01085584,0.01416172,0.02984459,-1.48862,-3.007787,-1.666679,-0.01410159,-0.01894192,-0.01722022,-1.059504,-2.625582,1.628435
0,0.9333345,111,151,497,498,-0.01196821,0.0176842,0.02832789,-1.488583,-3.008157,-1.66637,-0.0157797,-0.004249836,-0.01054823,-1.059523,-2.625234,1.628322
0,0.9444456,111,151,497,498,-0.009923112,0.02192872,0.02911935,-1.488497,-3.008572,-1.666047,-0.01622625,0.004473069,-0.006739114,-1.0595,-2.624892,1.628296
0,0.9555568,111,151,497,498,-0.01108922,0.02715142,0.03007921,-1.48839,-3.009043,-1.665757,-0.01202415,0.007706195,-0.01486988,-1.059596,-2.624991,1.628707
0,0.9666679,111,151,497,498,-0.007841347,0.02494126,0.03075308,-1.488383,-3.009315,-1.665415,-0.009511463,0.007612459,-0.02394209,-1.059606,-2.625129,1.629275
0,0.977779,111,151,497,498,-0.006761558,0.02478395,0.03179762,-1.488483,-3.009593,-1.665033,0.0001008306,-0.005491416,-0.01540098,-1.059616,-2.625576,1.629227
0,0.9888902,107,131,496,499,-0.004667601,0.02654753,0.03428292,-1.488504,-3.009992,-1.664657,0.008037867,-0.01400963,-0.01162075,-1.059688,-2.62608,1.629283
0,1.000001,107,131,496,499,-0.003513293,0.0243976,0.0284698,-1.488477,-3.010228,-1.66451,0.005231041,-0.01353619,-0.01065814,-1.059649,-2.626291,1.629517
0,1.011112,107,131,496,499,0.0007337518,0.02573163,0.02763404,-1.488608,-3.010612,-1.664295,0.00859149,-0.006897924,-0.01115873,-1.059899,-2.626274,1.629637
0,1.022224,107,131,496,499,0.003021404,0.02065862,0.02020155,-1.488857,-3.01086,-1.664275,0.01516212,0.000633711,-0.01215751,-1.060317,-2.626337,1.629824
0,1.033335,104,152,498,499,0.006306198,0.01710241,0.01630502,-1.488864,-3.010854,-1.664264,0.01851133,0.003302433,-0.01312924,-1.060655,-2.626518,1.629981
0,1.044446,104,152,498,499,0.007430728,0.01599298,0.01068852,-1.488952,-3.011013,-1.664327,0.005841124,0.009383649,-0.01308587,-1.060578,-2.626185,1.630119
0,1.055557,104,152,498,499,0.00974087,0.00967368,0.00412004,-1.489268,-3.011016,-1.664337,-0.003635655,0.004516621,-0.00540532,-1.06028,-2.626073,1.630026
0,1.066668,104,152,498,499,0.008858734,0.001465215,0.001527008,-1.489366,-3.010801,-1.664366,-0.007249132,-0.005668387,-0.001549781,-1.059971,-2.626228,1.629949
0,1.077779,104,152,498,499,0.01118061,-0.008494234,0.002959568,-1.489559,-3.010477,-1.664235,-0.001617257,-0.006614835,-0.003485168,-1.060113,-2.626514,1.630149
0,1.08889,99,139,498,500,0.01445526,-0.01098867,-0.0007376433,-1.489764,-3.010337,-1.664365,0.001601478,-0.005705197,-0.001597786,-1.060197,-2.626592,1.630112
0,1.100002,99,139,498,500,0.01658,-0.00912342,-0.00472098,-1.490014,-3.010275,-1.66452,0.008713434,0.00104516,0.004067078,-1.060578,-2.626443,1.629862
0,1.111113,99,139,498,500,0.01534355,-0.001623887,-0.004437821,-1.489974,-3.010413,-1.664572,0.008994448,0.004601519,0.005485419,-1.060734,-2.626304,1.62973
0,1.122224,99,139,498,500,0.01626695,0.004687358,-0.003280657,-1.490168,-3.01065,-1.664594,0.005891425,0.001507041,0.002647842,-1.060668,-2.626532,1.62987
0,1.133335,99,118,497,498,0.01616042,0.01069823,-0.006518902,-1.490366,-3.010876,-1.664875,0.00488247,0.003116353,0.003594072,-1.060763,-2.626592,1.629905
0,1.144446,99,118,497,498,0.009554333,0.01998808,-0.004836645,-1.490241,-3.011369,-1.664925,0.007089838,0.00563589,0.006434706,-1.060937,-2.626484,1.629755
0,1.155557,99,118,497,498,0.01051094,0.02324869,0.001168666,-1.49045,-3.011797,-1.664779,0.008242982,0.005797403,0.004995732,-1.061142,-2.626546,1.629801
0,1.166668,99,118,497,498,0.00618526,0.02668217,-0.0003786448,-1.49036,-3.012171,-1.664863,0.01830283,0.009880768,0.01113059,-1.061683,-2.626416,1.629445
0,1.17778,99,118,497,498,0.004005131,0.02872778,-6.839633E-06,-1.490276,-3.012495,-1.664872,0.01434409,0.01019485,0.0135274,-1.061786,-2.626262,1.629253
0,1.188891,101,134,498,499,0.007026889,0.0361313,0.001347183,-1.490514,-3.013078,-1.664919,0.01672417,0.004372157,0.009249246,-1.06196,-2.626518,1.629299
0,1.200002,101,134,498,499,0.007119682,0.03174947,0.001626936,-1.490569,-3.013305,-1.664908,0.01902725,0.0007471051,0.01306736,-1.062147,-2.626582,1.628949
0,1.211113,101,134,498,499,0.004992478,0.03189418,0.000567254,-1.490523,-3.013659,-1.664971,0.01747092,-0.000798502,0.01165046,-1.062241,-2.626656,1.628853
0,1.222224,101,134,498,499,0.005088706,0.02770543,-0.000201076,-1.490606,-3.013878,-1.665009,0.01222197,0.001522218,0.009284465,-1.062297,-2.626562,1.628795
0,1.233335,101,134,498,499,0.005012168,0.03085287,0.0003734624,-1.490605,-3.014393,-1.665056,0.009316875,0.004188898,0.01357653,-1.062403,-2.62634,1.628449
0,1.244446,103,153,496,502,0.006125739,0.02897378,-0.001048591,-1.490655,-3.014641,-1.665146,0.006327404,0.0129924,0.0168959,-1.062539,-2.625875,1.628133
0,1.255558,103,153,496,502,-0.0001912012,0.02568511,-0.001659657,-1.490337,-3.014763,-1.665166,0.001748431,0.01629444,0.0183374,-1.06253,-2.625543,1.627882
0,1.266669,103,153,496,502,0.002036371,0.02173425,-0.003459138,-1.490406,-3.014893,-1.665269,-0.001598923,0.01362413,0.01931759,-1.062435,-2.625299,1.627617
0,1.27778,103,153,496,502,-0.001021299,0.01461038,-0.0004428785,-1.490318,-3.014898,-1.665206,0.0008951128,0.009565125,0.01217137,-1.062428,-2.625386,1.627638
0,1.288891,107,134,497,497,-0.002055686,0.013924,-0.002735945,-1.490256,-3.015011,-1.665313,0.002186617,0.01149949,0.01025382,-1.062563,-2.625226,1.627568
0,1.300002,107,134,497,497,-0.002779177,-0.0009538796,-0.004386836,-1.490251,-3.014665,-1.665371,0.00426241,0.01617229,0.006894684,-1.062747,-2.625019,1.627561
0,1.311113,107,134,497,497,-0.001667712,-0.003217236,-0.003716994,-1.490283,-3.014617,-1.665411,0.002136108,0.01147212,0.0007246421,-1.062693,-2.625013,1.62771
0,1.322224,107,134,497,497,-0.001487221,-0.01016647,-0.007161231,-1.490274,-3.014288,-1.665583,0.005207072,0.01058501,0.0007091891,-1.06284,-2.625001,1.627721
0,1.333336,107,134,497,497,-0.004669303,-0.01023569,-0.007177932,-1.490345,-3.014237,-1.665572,0.005917654,0.005411345,-0.001664265,-1.062871,-2.625143,1.627876
0,1.344447,105,130,497,499,-0.0002178601,-0.01909859,-0.005539049,-1.490495,-3.013762,-1.665544,0.001171956,0.006934255,-0.004507128,-1.06283,-2.625053,1.628018
0,1.355558,105,130,497,499,-0.003394394,-0.02041188,-0.00470579,-1.490385,-3.013478,-1.665519,-0.0047098,0.008314495,-0.001148212,-1.062599,-2.624709,1.627905
0,1.366669,105,130,497,499,-0.003465108,-0.01707663,-0.005178256,-1.490358,-3.013355,-1.665579,-0.006350645,0.008972318,0.003147485,-1.062549,-2.624466,1.627711
0,1.37778,105,130,497,499,-0.00141517,-0.01388399,-0.004587642,-1.490328,-3.013338,-1.665634,-0.005229878,0.005178016,0.003629236,-1.062468,-2.624453,1.627651
0,1.388891,97,125,497,498,-0.0005790802,-0.00462243,-0.001811465,-1.490302,-3.013548,-1.665748,-0.002475176,0.0007205594,-0.002565648,-1.062458,-2.624652,1.627869
0,1.400002,97,125,497,498,0.00254091,-0.001407909,-0.001210043,-1.490408,-3.013627,-1.665738,0.005201583,0.0004715822,-0.005935765,-1.062659,-2.624863,1.628085
0,1.411114,97,125,497,498,0.0001940466,0.006152344,0.004502326,-1.49026,-3.013878,-1.665615,0.004440291,0.001680212,-0.006412552,-1.062711,-2.624874,1.628169
0,1.422225,97,125,497,498,-0.002027845,0.01067949,0.003162775,-1.490149,-3.014107,-1.665648,0.009555251,-0.002420445,-0.00118037,-1.062782,-2.625023,1.627954
0,1.433336,97,125,497,498,-0.002065859,0.01114663,0.006500798,-1.49,-3.014214,-1.665442,0.003581533,0.001136912,0.003120544,-1.062724,-2.624899,1.627849
0,1.444447,91,146,498,502,-0.004260711,0.01462753,0.004969398,-1.489887,-3.014453,-1.66545,-0.004130593,-0.002576658,0.006025225,-1.062435,-2.624828,1.6277
0,1.455558,91,146,498,502,-0.0009470237,0.009270993,0.005080733,-1.489968,-3.01447,-1.665311,-0.008268205,-0.004054479,0.001762119,-1.062127,-2.624916,1.627819
0,1.466669,91,146,498,502,-0.003924087,-0.0002260305,0.00332508,-1.489856,-3.014217,-1.665329,-0.007044665,-0.006100729,-0.007766454,-1.062048,-2.625161,1.628207
0,1.47778,91,146,498,502,-0.002623062,-0.01067675,0.001407823,-1.489819,-3.013847,-1.6653,-0.004344468,-0.004404231,-0.01016297,-1.062203,-2.6252,1.628349
0,1.488891,91,146,498,502,-0.003522043,-0.01803149,4.885416E-05,-1.489755,-3.013474,-1.66533,0.001466692,0.0003680927,-0.009727484,-1.062417,-2.625217,1.628474
0,1.500003,86,129,499,499,-0.00764918,-0.02258656,-0.005149829,-1.489563,-3.01307,-1.665542,-0.001349893,-0.003075673,-0.002078312,-1.062288,-2.625049,1.628195
0,1.511114,86,129,499,499,-0.005596618,-0.01978408,-0.002453895,-1.489614,-3.012974,-1.66545,-0.008253437,-0.004037999,0.004151395,-1.062017,-2.624866,1.627946
0,1.522225,86,129,499,499,-0.005606086,-0.02016965,-0.0003580025,-1.489564,-3.012754,-1.665374,-0.01226005,-0.003743247,-0.002975923,-1.06182,-2.624872,1.628177
0,1.533336,86,129,499,499,-0.008844313,-0.01794408,-0.001043237,-1.489427,-3.01267,-1.665373,-0.01701184,-0.002239144,-0.005813236,-1.061458,-2.624862,1.628359
0,1.544447,81,125,497,497,-0.009888067,-0.01901273,-0.001246342,-1.489304,-3.012427,-1.665368,-0.007519172,-0.001332683,-0.006816506,-1.061622,-2.624994,1.628486
0,1.555558,81,125,497,497,-0.009968624,-0.01606178,0.0003713834,-1.48914,-3.012312,-1.665402,0.001486463,0.0003897281,-0.002571278,-1.061794,-2.625012,1.628269
0,1.566669,81,125,497,497,-0.01106146,-0.01523318,0.001610539,-1.489038,-3.012098,-1.665255,0.000483911,0.00201439,0.0007677103,-1.061727,-2.624799,1.628104
0,1.577781,81,125,497,497,-0.009946188,-0.0171095,0.0001826758,-1.488982,-3.011882,-1.665276,-0.001716976,-0.000494462,0.0003082519,-1.061619,-2.624839,1.628119
0,1.588892,81,125,497,497,-0.007878181,-0.01373167,-0.0002793707,-1.488994,-3.011788,-1.665423,-0.007504262,-0.001316048,0.000344211,-1.061225,-2.624653,1.628061
0,1.600003,79,145,497,495,-0.006817738,-0.01390263,0.0007761567,-1.488964,-3.01163,-1.66538,-0.008647697,0.002470418,-0.002515878,-1.061189,-2.624538,1.628167
0,1.611114,79,145,497,495,-0.007897411,-0.01268504,-8.80966E-05,-1.488927,-3.011484,-1.665422,-0.005822463,0.005947608,-0.005401183,-1.06126,-2.624392,1.628353
0,1.622225,79,145,497,495,-0.01008373,-0.01102025,0.00237839,-1.488783,-3.011417,-1.665328,-0.003547414,-0.001630919,-0.002061392,-1.061172,-2.62455,1.628301
0,1.633336,79,145,497,495,-0.006972818,-0.00839561,0.006123745,-1.488753,-3.011363,-1.665201,-0.002954533,-0.008576555,-0.001574511,-1.060904,-2.624781,1.6283
0,1.644447,83,117,498,497,-0.00283493,-0.001250014,0.003126385,-1.48881,-3.011561,-1.665272,0.001619857,-0.01583131,-0.00110985,-1.060852,-2.625204,1.628317
0,1.655559,83,117,498,497,0.001329901,0.00322191,0.002882449,-1.48881,-3.011709,-1.665288,0.000855918,-0.014625,-0.001587633,-1.060728,-2.625342,1.628414
0,1.66667,83,117,498,497,0.001259666,0.006163744,0.004507159,-1.488824,-3.011765,-1.665244,0.004730063,-0.0127509,0.001723129,-1.060828,-2.625457,1.628295
0,1.677781,83,117,498,497,0.00341924,0.005548121,0.00223398,-1.488884,-3.011831,-1.665303,-0.00291753,-0.008568389,0.005565982,-1.060601,-2.625215,1.628109
0,1.688892,83,117,498,497,-0.0008875155,0.007360847,0.003641479,-1.488779,-3.011947,-1.665186,-0.001990449,-0.004041978,0.006034994,-1.060623,-2.625052,1.627944
0,1.700003,80,129,498,497,-0.001838321,0.002102524,0.002665795,-1.488745,-3.011853,-1.665179,-0.00148495,-0.004849317,0.005556424,-1.060565,-2.625089,1.627895
0,1.711114,80,129,498,497,-0.005078881,0.003941322,0.004075533,-1.488657,-3.011968,-1.665155,0.005450423,-0.003857607,0.006471102,-1.06079,-2.625117,1.627768
0,1.722225,80,129,498,497,-0.003996192,0.004931738,-0.001153555,-1.488636,-3.012007,-1.665309,0.006761664,-0.001914957,0.009319438,-1.060879,-2.625062,1.627571
0,1.733337,80,129,498,497,-0.000762791,0.002514574,0.0005765392,-1.488714,-3.011975,-1.665254,0.006133132,-0.002883798,0.01266192,-1.060885,-2.624935,1.627236
0,1.744448,76,150,498,499,-0.00282361,-0.0002836041,-0.002116148,-1.488549,-3.011852,-1.66536,0.001625888,-0.005721886,0.01268894,-1.060715,-2.624929,1.627096
0,1.755559,76,150,498,499,-0.001754252,-0.0002590294,-0.002111486,-1.488628,-3.011881,-1.665437,0.001825042,-0.0140422,0.01268882,-1.06055,-2.625229,1.626993
0,1.76667,76,150,498,499,0.0002175388,0.007304075,-0.001791804,-1.488677,-3.012059,-1.665581,-0.001835058,-0.02026659,0.007472298,-1.060345,-2.625437,1.627044
0,1.777781,76,150,498,499,-0.001928536,0.008696214,-0.003706601,-1.488598,-3.012146,-1.665685,0.001127978,-0.01896852,0.008404602,-1.060336,-2.62558,1.626923
0,1.788892,76,150,498,499,-0.002003462,0.01144913,-0.001027644,-1.488577,-3.012342,-1.665616,0.000722141,-0.02034353,0.005547975,-1.060235,-2.62586,1.626966
0,1.800003,74,140,499,506,-0.00425774,0.01846682,-0.004061858,-1.48844,-3.012703,-1.665782,0.002539005,-0.01920976,0.007915517,-1.060194,-2.625982,1.626816
0,1.811115,74,140,499,506,-0.005446614,0.02328316,-0.001002464,-1.488257,-3.012904,-1.665815,0.004108803,-0.01767348,0.01171301,-1.060203,-2.626014,1.62655
0,1.822226,74,140,499,506,-0.006512054,0.02306729,3.958819E-05,-1.488129,-3.013141,-1.665799,0.003207671,-0.01824302,0.01171462,-1.060101,-2.626121,1.626401
0,1.833337,74,140,499,506,-0.005455411,0.02510487,-0.004991613,-1.488124,-3.013321,-1.666095,-0.001494257,-0.01672245,0.01602769,-1.059955,-2.626035,1.626083
0,1.844448,74,140,499,506,-0.007422957,0.01773367,-0.006369888,-1.487983,-3.013295,-1.666198,-0.007006296,-0.01398822,0.01272915,-1.059712,-2.625962,1.626039
0,1.855559,72,140,499,497,-0.007339383,0.0133557,-0.006103373,-1.487805,-3.013331,-1.666289,-0.007061303,-0.003888641,0.01226264,-1.059854,-2.625665,1.625908
0,1.86667,72,140,499,497,-0.01030391,0.003025108,-0.009135542,-1.487592,-3.0131,-1.666507,0.0006747018,-0.00016451,0.01412507,-1.060093,-2.625588,1.625563
0,1.877781,72,140,499,497,-0.01013587,-0.006133628,-0.006517474,-1.487522,-3.012781,-1.666499,0.003661056,0.005088557,0.013157,-1.060273,-2.625366,1.625408
0,1.888893,72,140,499,497,-0.006743649,-0.01404769,-0.01015715,-1.487596,-3.012459,-1.666641,0.00406247,0.006459399,0.01363235,-1.060371,-2.625212,1.625214
0,1.900004,72,171,498,499,-0.009926322,-0.01351907,-0.01332833,-1.487404,-3.012271,-1.66687,0.007179423,-0.004526074,0.01407346,-1.060343,-2.625596,1.62508
0,1.911115,72,171,498,499,-0.008963357,-0.007660938,-0.01548583,-1.48732,-3.012422,-1.667187,-0.0004000689,-0.006470151,0.01412079,-1.060113,-2.625489,1.624907
0,1.922226,72,171,498,499,-0.004823476,-0.002536039,-0.0134206,-1.487377,-3.012511,-1.667301,-0.01656233,-0.004792065,0.01090499,-1.059547,-2.625147,1.624876
0,1.933337,72,171,498,499,-0.005921736,-0.001900074,-0.01114422,-1.487251,-3.012523,-1.667437,-0.02630592,-0.005302185,0.01098368,-1.059086,-2.624927,1.624718
0,1.944448,72,171,498,499,-0.005924719,-0.002096203,-0.01009862,-1.487189,-3.012457,-1.66753,-0.02251963,-0.01135601,0.008558011,-1.058806,-2.625095,1.624699
0,1.955559,71,133,499,499,-0.004837969,-0.005349272,-0.004209719,-1.487146,-3.012351,-1.667469,-0.02034819,-0.01281212,0.008542174,-1.058581,-2.625119,1.624506
0,1.966671,71,133,499,499,-0.004752357,-0.009930657,-0.002907015,-1.487105,-3.01213,-1.667441,-0.01637857,-0.009160008,0.004233873,-1.05853,-2.625131,1.624598
0,1.977782,71,133,499,499,-0.00691114,-0.009125398,-0.00167995,-1.486976,-3.012058,-1.667423,-0.01726878,-0.001795605,-0.001934001,-1.058504,-2.624947,1.624852
0,1.988893,71,133,499,499,-0.007916901,-0.01248002,-0.001244124,-1.486814,-3.011861,-1.667514,-0.02262393,0.006675672,-0.005200543,-1.058309,-2.624547,1.625012
0,2.000004,72,125,498,499,-0.005653844,-0.01891178,-0.001369453,-1.486811,-3.011496,-1.667497,-0.02703122,0.01173429,0.0005799597,-1.058083,-2.624014,1.62475
0,2.011115,72,125,498,499,-0.008786164,-0.02231967,-0.0009383704,-1.486704,-3.011088,-1.667392,-0.01897529,0.008937409,-0.0004512351,-1.058179,-2.62397,1.624777
0,2.022226,72,125,498,499,-0.008759977,-0.02500485,0.001807127,-1.486599,-3.010765,-1.667252,-0.01619688,0.004503569,-0.001916758,-1.058052,-2.624021,1.624862
0,2.033337,72,125,498,499,-0.007785469,-0.02283186,0.007654177,-1.486621,-3.010607,-1.666933,-0.01001181,-0.003377015,-0.008185428,-1.058041,-2.624354,1.625143
0,2.044448,72,125,498,499,-0.005780277,-0.01794928,0.01075776,-1.486605,-3.010564,-1.666702,-0.01213025,-0.004094847,-0.01626995,-1.057859,-2.62453,1.625604
0,2.055559,79,128,497,502,-0.00475318,-0.01746775,0.01411184,-1.486592,-3.010452,-1.666419,-0.01255131,-0.005466077,-0.01912913,-1.057591,-2.624579,1.625926
0,2.06667,79,128,497,502,-0.003845927,-0.01011845,0.01550454,-1.486514,-3.010533,-1.666198,-0.01059559,-0.002560354,-0.01723109,-1.057587,-2.624614,1.626093
0,2.077781,79,128,497,502,-0.002873629,-0.006299828,0.01839706,-1.48653,-3.010615,-1.66592,-0.01505936,0.00250974,-0.01622586,-1.057369,-2.62426,1.6262
0,2.088892,79,128,497,502,-0.005151173,0.000991297,0.01975848,-1.486396,-3.010872,-1.665677,-0.01685815,0.005327633,-0.01810951,-1.057322,-2.624092,1.626426
0,2.100003,82,120,498,497,-0.005322609,0.008976864,0.02342364,-1.486274,-3.011186,-1.665353,-0.01996991,-0.001728755,-0.01905923,-1.056937,-2.624414,1.626824
0,2.111114,82,120,498,497,-0.006363371,0.007528582,0.02531536,-1.486296,-3.011272,-1.664961,-0.01255822,-0.00549118,-0.02151391,-1.056922,-2.624815,1.627227
0,2.122225,82,120,498,497,-0.002184529,0.0116079,0.02717533,-1.486306,-3.011606,-1.664643,-0.004652882,-0.01400826,-0.02492864,-1.056882,-2.625455,1.62768
0,2.133336,82,120,498,497,-0.002203867,0.01246534,0.02841548,-1.486237,-3.011782,-1.664299,0.003814979,-0.01937369,-0.0235721,-1.057004,-2.625949,1.627981
0,2.144447,82,120,498,497,-0.002244132,0.01619728,0.02585842,-1.486157,-3.012082,-1.664095,0.002706438,-0.01559354,-0.01926808,-1.056976,-2.62606,1.628086
0,2.155558,86,128,498,495,-2.802536E-05,0.01224568,0.02404194,-1.486277,-3.012091,-1.663858,0.001316538,-0.01140574,-0.01829365,-1.056927,-2.626106,1.628245
0,2.166669,86,128,498,495,-0.002095032,0.009266956,0.02239481,-1.486195,-3.012155,-1.663654,-0.008554013,-0.001861828,-0.02106202,-1.056738,-2.625865,1.628597
0,2.17778,86,128,498,495,-0.003113449,0.007546859,0.01990631,-1.486108,-3.012228,-1.663435,-0.006505731,0.002835637,-0.02202345,-1.056727,-2.625759,1.628903
0,2.188891,86,128,498,495,-0.003012707,0.0008820756,0.02083426,-1.486084,-3.012102,-1.663137,0.005244583,0.0001691831,-0.0287808,-1.056992,-2.626213,1.629453
0,2.200002,86,128,498,495,-0.004936819,-0.01028213,0.01658672,-1.486064,-3.011663,-1.66305,0.01038047,-0.003919436,-0.02834292,-1.057164,-2.626656,1.629874
0,2.211113,85,137,498,495,-0.004852259,-0.01551427,0.01561825,-1.486015,-3.011397,-1.662859,0.01091845,-0.01659356,-0.02310416,-1.057078,-2.627234,1.629954
0,2.222224,85,137,498,495,-0.003754285,-0.01758485,0.01524541,-1.486036,-3.011247,-1.662633,0.006066464,-0.01687392,-0.02068856,-1.056935,-2.627471,1.630159
0,2.233335,85,137,498,495,-0.001703977,-0.01211675,0.01518602,-1.48612,-3.01129,-1.662438,-0.002362026,-0.01153345,-0.01729869,-1.056825,-2.62745,1.630366
0,2.244446,85,137,498,495,-0.002683903,-0.01717205,0.01316405,-1.486051,-3.011018,-1.662336,-0.002620147,-0.01113503,-0.01824833,-1.056746,-2.627649,1.630637
0,2.255557,80,135,498,492,-0.003929228,-0.005084578,0.01214496,-1.485852,-3.011352,-1.662209,-0.0008114027,-0.002078036,-0.01730862,-1.056962,-2.627543,1.630849
0,2.266668,80,135,498,492,-0.009310597,-0.0005825526,0.01078404,-1.48562,-3.011497,-1.662192,-0.004505291,0.001767143,-0.01347421,-1.056887,-2.627346,1.63087
0,2.277779,80,135,498,492,-0.009368162,0.002180876,0.01346356,-1.485481,-3.011657,-1.661917,-0.004504971,0.001764942,-0.0134746,-1.056857,-2.62738,1.63104
0,2.28889,80,135,498,492,-0.009436295,0.007610444,0.0133879,-1.485443,-3.011839,-1.661713,-0.004504649,0.001762726,-0.013475,-1.056828,-2.627414,1.631211
0,2.300001,80,135,498,492,-0.00834971,0.006772951,0.01215304,-1.485374,-3.011895,-1.661632,0.004499082,-0.0004166397,-0.009718534,-1.057231,-2.627689,1.630978
0,2.311112,77,133,499,497,-0.007309757,0.009276118,0.01044675,-1.48524,-3.012166,-1.661704,0.007309649,-0.004833903,-0.01116114,-1.057192,-2.627985,1.6314
0,2.322223,77,133,499,497,-0.008376134,0.01089043,0.007492476,-1.485106,-3.012308,-1.66172,0.005238518,-0.01349565,-0.01542491,-1.057021,-2.628383,1.631809
0,2.333334,77,133,499,497,-0.005108419,0.005508437,0.007592783,-1.485117,-3.012319,-1.661597,-0.002211943,-0.01373065,-0.01823623,-1.056687,-2.628458,1.632095
0,2.344445,77,133,499,497,-0.007262347,0.007768694,0.006918759,-1.484986,-3.012458,-1.661561,-0.005387722,-0.006729857,-0.01203076,-1.056584,-2.628285,1.632083
0,2.355556,73,131,498,497,-0.006164045,0.005884406,0.005492541,-1.484924,-3.012503,-1.661516,-0.00484024,-0.003567018,-0.004891053,-1.056433,-2.628083,1.631933
0,2.366668,73,131,498,497,-0.001860815,0.002603305,0.005983814,-1.485047,-3.012457,-1.661463,-0.00533594,-0.00276255,-0.002029868,-1.056358,-2.628022,1.631879
0,2.377779,73,131,498,497,-0.004037349,0.007347097,0.003606329,-1.484907,-3.012664,-1.661445,-0.004671346,-0.00178405,0.001776412,-1.0563,-2.627908,1.631797
0,2.38889,73,131,498,497,-0.0008609141,0.00824259,0.004867167,-1.484996,-3.012807,-1.661365,-0.003015687,-0.002414013,-0.0001397689,-1.056284,-2.627973,1.631853
0,2.400001,73,131,498,497,-0.001936065,0.009665752,0.002961468,-1.484833,-3.012974,-1.661375,-0.002181157,-0.009767843,-0.01300256,-1.056115,-2.628658,1.632367
0,2.411112,73,134,498,498,-0.004015587,0.005061466,0.004267405,-1.484728,-3.012899,-1.661286,-0.001798109,-0.004435455,-0.01205493,-1.056143,-2.628706,1.632423
0,2.422223,73,134,498,498,-0.00620746,0.008842065,0.007126491,-1.484612,-3.013197,-1.661079,0.003865314,-0.00534189,-0.009230235,-1.05619,-2.628865,1.632575
0,2.433334,73,134,498,498,-0.006133295,0.003798001,0.005110465,-1.484555,-3.01306,-1.661077,0.003627279,-0.0009799269,-0.004944757,-1.056271,-2.628834,1.632336
0,2.444445,73,134,498,498,-0.0007644747,-0.00090602,0.007512775,-1.484693,-3.01296,-1.660885,-0.001062037,0.0005097941,0.004136148,-1.056165,-2.628591,1.63201
0,2.455556,73,134,498,498,0.000292911,0.001975933,0.003716374,-1.484761,-3.013061,-1.660959,-0.00633302,-0.0051258,0.0008358734,-1.055779,-2.628738,1.632284
0,2.466667,73,142,497,492,0.000335109,-0.001166514,0.003136101,-1.484752,-3.012954,-1.660935,-0.01048981,-0.006636459,-0.008187517,-1.055533,-2.628879,1.63266
0,2.477778,73,142,497,492,-0.001763932,-0.003095649,0.001690045,-1.484665,-3.012852,-1.660894,-0.004986032,-0.00536468,-0.009178471,-1.055486,-2.62908,1.632901
0,2.488889,73,142,497,492,-0.001796498,-0.001193399,0.003126168,-1.484661,-3.012913,-1.660787,0.002086433,-0.006492731,-0.00684064,-1.055638,-2.629354,1.632814
0,2.5,73,142,497,492,-0.002903479,0.001938863,0.003701656,-1.484584,-3.013075,-1.660707,0.005437437,-0.003787738,-0.003051928,-1.05575,-2.629398,1.632698
0,2.511111,73,131,498,499,0.001248773,0.01036574,0.005276691,-1.484688,-3.013379,-1.660567,0.005062419,-0.009123524,-0.003999161,-1.055679,-2.629741,1.632858
0,2.522222,73,131,498,499,0.0001490503,0.01206219,0.007751713,-1.48464,-3.013574,-1.660402,0.00428714,-0.007921426,-0.004471212,-1.055658,-2.629808,1.63292
0,2.533333,73,131,498,499,0.003312512,0.01562717,0.006252693,-1.484754,-3.013796,-1.660415,-0.0003459509,-0.004668331,-0.005396876,-1.055473,-2.629789,1.633011
0,2.544444,73,131,498,499,0.0033002,0.01667512,0.006444062,-1.484764,-3.014043,-1.660338,0.001839091,-0.006095547,-0.005409759,-1.055485,-2.629933,1.633069
0,2.555555,73,131,498,499,0.003262504,0.02144982,0.00407729,-1.484797,-3.0145,-1.660311,0.001843301,-0.002137561,-0.002551578,-1.055499,-2.629803,1.632883
0,2.566666,74,122,499,498,0.008624963,0.01837159,0.003528394,-1.485023,-3.014618,-1.660293,0.007499056,0.0009187488,0.0007448483,-1.055748,-2.629775,1.632769
0,2.577777,74,122,499,498,0.005514306,0.01204401,0.002354453,-1.485052,-3.014523,-1.660244,0.002504064,-0.001157223,0.001251328,-1.055556,-2.629712,1.632844
0,2.588888,74,122,499,498,0.00870426,0.01189076,0.003419677,-1.485216,-3.014682,-1.660186,0.002904841,-0.00769647,0.0007781507,-1.055484,-2.630001,1.632889
0,2.599999,74,122,499,498,0.006584145,0.01062162,0.004258676,-1.485259,-3.014731,-1.660161,0.002647532,-0.01521258,-0.003505896,-1.05524,-2.63044,1.63307
0,2.61111,79,112,499,497,0.007615153,0.01416081,0.002744547,-1.485368,-3.014963,-1.660194,-0.001858342,-0.01809875,-0.008238913,-1.054923,-2.630596,1.633221
0,2.622221,79,112,499,497,0.007592056,0.01482696,0.005030244,-1.485411,-3.015198,-1.660101,-0.003159525,-0.01609893,-0.01061206,-1.054806,-2.630772,1.633438
0,2.633332,79,112,499,497,0.007612361,0.01215912,0.007786406,-1.485563,-3.015325,-1.659939,-0.0007324237,-0.01001089,-0.008725098,-1.055006,-2.630848,1.633502
0,2.644443,79,112,499,497,0.006432059,0.02014596,0.01140416,-1.485582,-3.015795,-1.659757,0.0001807171,-0.005472604,-0.003493888,-1.055056,-2.630748,1.633373
0,2.655554,79,112,499,497,0.004286322,0.02098014,0.0126285,-1.485508,-3.016092,-1.659632,0.004657013,-0.002587358,-0.00352367,-1.055238,-2.630734,1.633361
0,2.666665,88,117,499,495,0.001124993,0.01903841,0.01117769,-1.485441,-3.016263,-1.659542,0.001699162,-0.007874234,-0.007313237,-1.054865,-2.630824,1.633593
0,2.677776,88,117,499,495,0.00325895,0.01744486,0.0141382,-1.485517,-3.016461,-1.659317,-0.0003685397,-0.004669941,-0.007778088,-1.05488,-2.630737,1.633681
0,2.688887,88,117,499,495,-0.001005109,0.01663734,0.01830355,-1.48549,-3.016657,-1.658961,0.0006594546,-0.006272907,-0.008735897,-1.054863,-2.630921,1.63384
0,2.699998,88,117,499,495,-0.0009591384,0.01387245,0.0156318,-1.485453,-3.016719,-1.658951,-8.942373E-05,-0.00902768,-0.007299973,-1.054689,-2.631058,1.63387
0,2.711109,98,146,500,500,-0.0009664129,0.01349641,0.01772337,-1.485369,-3.016935,-1.658732,0.009132409,-0.01157793,-0.01211296,-1.055016,-2.631701,1.634179
0,2.72222,98,146,500,500,-0.005242897,0.01554624,0.01807702,-1.48523,-3.017105,-1.658541,0.01447763,-0.008125469,-0.01690711,-1.055291,-2.632006,1.634534
0,2.733331,98,146,500,500,-0.003154483,0.01852204,0.01970288,-1.485135,-3.017366,-1.658387,0.0178313,-0.009379463,-0.01596506,-1.055642,-2.632428,1.634761
0,2.744442,98,146,500,500,0.0009723501,0.03295492,0.01800514,-1.485209,-3.018121,-1.658291,0.01313192,-0.01978124,-0.01781893,-1.055452,-2.633023,1.635079
0,2.755553,98,146,500,500,0.002006155,0.0361084,0.01857697,-1.485158,-3.018553,-1.658123,0.001853358,-0.02196951,-0.02155914,-1.055158,-2.633429,1.635493
0,2.766664,100,144,500,498,0.006272036,0.03634538,0.01754381,-1.485293,-3.019002,-1.657979,-0.007614031,-0.01902392,-0.0153225,-1.054774,-2.633352,1.635485
0,2.777775,100,144,500,498,0.004209659,0.03003555,0.01639064,-1.485145,-3.019197,-1.657888,-0.004180044,-0.01453939,-0.01677347,-1.054917,-2.633602,1.635637
0,2.788886,100,144,500,498,0.002210372,0.01581624,0.01705049,-1.485024,-3.019006,-1.657719,0.00388805,-0.005354913,-0.009218474,-1.055306,-2.633472,1.635552
0,2.799997,100,144,500,498,0.003353789,0.01010793,0.01277221,-1.485089,-3.018997,-1.657683,0.001689267,0.003995421,-0.003512279,-1.05542,-2.633129,1.635401
0,2.811108,100,144,500,498,0.00349571,-0.001711387,0.006296601,-1.485067,-3.01867,-1.657832,-0.0007837107,0.01373952,-0.001137131,-1.055526,-2.632653,1.635251
0,2.822219,104,130,499,496,0.003574253,-0.007621905,0.003060226,-1.485152,-3.018408,-1.657858,-0.009827364,0.01584702,-0.009668058,-1.055349,-2.632394,1.635554
0,2.83333,104,130,499,496,0.00362757,-0.0141102,0.002970626,-1.485124,-3.01795,-1.657762,-0.01048903,0.01882306,-0.01063039,-1.055443,-2.632141,1.635714
0,2.844441,104,130,499,496,0.003642238,-0.01354039,-0.0001744963,-1.485168,-3.017799,-1.657839,-0.0001383414,0.02437151,-0.01357506,-1.055877,-2.632012,1.635942
0,2.855552,104,130,499,496,0.005842088,-0.01818976,-0.004249474,-1.485274,-3.017509,-1.657883,0.006187064,0.02447245,-0.009326875,-1.056364,-2.631867,1.635842
0,2.866663,103,119,499,498,0.003731433,-0.01801941,-0.005315925,-1.485437,-3.01731,-1.658023,0.006191809,0.02843694,-0.006487945,-1.056642,-2.631521,1.635804
0,2.877774,103,119,499,498,0.00692545,-0.01817661,-0.004244222,-1.485613,-3.017134,-1.658004,-0.002925479,0.0327613,-0.004556704,-1.056602,-2.631001,1.635834
0,2.888885,103,119,499,498,0.006915717,-0.0171278,-0.004053605,-1.485705,-3.016984,-1.658031,-0.003172501,0.02919778,-0.00597592,-1.056689,-2.630837,1.635942
0,2.899997,103,119,499,498,0.01120909,-0.01917343,-0.004400033,-1.485996,-3.016792,-1.658048,-0.00316614,0.02522833,-0.008821216,-1.056796,-2.630725,1.636073
0,2.911108,103,119,499,498,0.008045179,-0.0211134,-0.005847516,-1.486019,-3.016474,-1.658149,0.003657521,0.02056051,-0.007884167,-1.056986,-2.63067,1.636115
0,2.922219,99,129,500,499,0.009088105,-0.01776099,-0.006319306,-1.486239,-3.01649,-1.658214,0.003014667,0.02354458,-0.006468897,-1.057185,-2.630368,1.63612
0,2.93333,99,129,500,499,0.01007662,-0.01145539,-0.005174363,-1.486339,-3.016594,-1.658209,-0.001336923,0.02244901,-0.004537915,-1.057131,-2.62994,1.636103
0,2.944441,99,129,500,499,0.005776499,-0.009973962,-0.001676332,-1.486294,-3.016527,-1.658123,-0.003904114,0.02646404,-0.002163005,-1.057224,-2.629492,1.636023
0,2.955552,99,129,500,499,0.007956976,-0.01432688,-0.001366488,-1.486492,-3.01635,-1.658091,-0.001348656,0.03038061,-0.00124002,-1.05739,-2.628977,1.635933
0,2.966663,88,132,498,497,0.007945627,-0.01327775,-0.001176282,-1.486606,-3.016236,-1.658088,0.00700142,0.03121442,-0.0008141389,-1.057855,-2.628789,1.635897
0,2.977774,88,132,498,497,0.009032132,-0.013933,-0.003456661,-1.486718,-3.016085,-1.658182,0.02024603,0.02839021,0.001526357,-1.058374,-2.628774,1.635723
0,2.988885,88,132,498,497,0.01116413,-0.01428208,-0.001348297,-1.486991,-3.015946,-1.658195,0.02589694,0.02746554,-0.0004022708,-1.058904,-2.628766,1.635768
0,2.999996,88,132,498,497,0.01222845,-0.0112256,-0.006208011,-1.487163,-3.015924,-1.658405,0.008963034,0.03018741,0.0006068582,-1.058756,-2.628031,1.635596
0,3.011107,88,132,498,497,0.01327007,-0.008925145,-0.006876674,-1.487294,-3.015862,-1.658512,0.002167074,0.02695106,-0.001254614,-1.058791,-2.627768,1.635613
0,3.022218,79,123,499,501,0.007963201,-0.00984926,-0.00814682,-1.487255,-3.015701,-1.658641,0.007929178,0.02383414,-0.006508128,-1.059099,-2.627836,1.635851
0,3.033329,79,123,499,501,0.009099055,-0.01507876,-0.00908118,-1.487363,-3.015362,-1.658723,0.01075896,0.02337052,-0.007474898,-1.059517,-2.627746,1.635926
0,3.04444,79,123,499,501,0.008022617,-0.01261403,-0.01081125,-1.487521,-3.015289,-1.65893,0.01990928,0.02698077,0.001044692,-1.060128,-2.627496,1.635595
0,3.055551,79,123,499,501,0.01127015,-0.01732953,-0.008392146,-1.487777,-3.015033,-1.658877,0.01931315,0.02208498,0.008700375,-1.06044,-2.627491,1.63529
0,3.066662,82,142,499,497,0.01227829,-0.01330855,-0.006583915,-1.488002,-3.014993,-1.658925,0.01394054,0.01865308,0.01112317,-1.060497,-2.627301,1.635063
0,3.077773,82,142,499,497,0.01538432,-0.005354017,-0.008388069,-1.488311,-3.01518,-1.659012,0.0154651,0.01224018,0.00449099,-1.060732,-2.627622,1.635212
0,3.088884,82,142,499,497,0.01105823,-0.001408122,-0.006614379,-1.488344,-3.015236,-1.659039,0.02135091,0.01087622,-0.001232522,-1.061125,-2.627822,1.635402
0,3.099995,82,142,499,497,0.01631609,0.004287134,-0.007737027,-1.48873,-3.015436,-1.659106,0.0244586,0.01795363,0.004421689,-1.061661,-2.62766,1.635218
0,3.111106,82,142,499,497,0.01517203,0.009704081,-0.007855077,-1.488864,-3.015641,-1.659226,0.02139395,0.01882724,0.006804153,-1.061903,-2.627452,1.635039
0,3.122217,86,136,500,497,0.01511856,0.01266894,-0.006246402,-1.48903,-3.015902,-1.6593,0.02283578,0.02257065,0.01153887,-1.062274,-2.627214,1.634653
0,3.133328,86,136,500,497,0.01502826,0.01772104,-0.004258594,-1.489137,-3.016201,-1.659239,0.02118171,0.02320703,0.01344875,-1.062438,-2.62694,1.634344
0,3.144439,86,136,500,497,0.01615087,0.01515533,-0.007959601,-1.489361,-3.01623,-1.65944,0.01899297,0.02066354,0.01061383,-1.062628,-2.626849,1.63429
0,3.15555,86,136,500,497,0.01402299,0.01531592,-0.009018442,-1.489457,-3.016425,-1.659563,0.01549197,0.01219465,0.004499769,-1.062625,-2.626983,1.634351
0,3.166661,84,126,499,500,0.01309546,0.006908182,-0.01052084,-1.489602,-3.016166,-1.659682,0.02021713,0.002786397,0.006471267,-1.062821,-2.627304,1.634237
0,3.177772,84,126,499,500,0.009996098,0.001994009,-0.01357257,-1.489641,-3.016034,-1.659913,0.01660982,0.0004661344,0.00173611,-1.062925,-2.627376,1.634315
0,3.188883,84,126,499,500,0.00896821,-0.0003119102,-0.01289558,-1.489791,-3.015953,-1.659879,0.01867034,0.005131044,-0.00163901,-1.063246,-2.62739,1.634422
0,3.199994,84,126,499,500,0.005809908,-0.002458343,-0.0132898,-1.489791,-3.015823,-1.660022,0.01908612,0.0105013,0.00403219,-1.063549,-2.627158,1.634157
0,3.211105,84,126,499,500,0.007879719,0.0005373494,-0.01166449,-1.48991,-3.015931,-1.660116,0.02102945,0.01342648,0.00590972,-1.063894,-2.627022,1.633994
0,3.222216,82,140,500,500,0.01203266,0.005289888,-0.00755456,-1.490084,-3.016126,-1.660093,0.0173248,0.01336887,0.01163334,-1.064034,-2.62676,1.633626
0,3.233327,82,140,500,500,0.01301237,0.01074089,-0.007650813,-1.490317,-3.016471,-1.660017,0.01677075,0.006214854,0.006450824,-1.064102,-2.627138,1.633837
0,3.244438,82,140,500,500,0.01076473,0.01681655,-0.005498393,-1.490349,-3.016836,-1.660146,0.01695947,-0.006142819,-0.003441656,-1.064078,-2.627727,1.634198
0,3.255549,82,140,500,500,0.01180144,0.01751102,-0.003209576,-1.490486,-3.017063,-1.660157,0.01798242,-0.007742889,-0.001999636,-1.064291,-2.627995,1.634253
0,3.26666,82,140,500,500,0.009553522,0.02376644,-0.002100467,-1.490447,-3.017482,-1.660166,0.02041482,-0.009542838,0.003731564,-1.064471,-2.628189,1.634038
0,3.277771,78,122,499,497,0.009506943,0.02511996,0.002461904,-1.490615,-3.017867,-1.660041,0.02105921,-0.008562936,0.005152212,-1.064622,-2.62827,1.6339
0,3.288882,78,122,499,497,0.01150832,0.03325205,-0.0004171499,-1.490819,-3.018489,-1.66023,0.01736258,-0.004672583,0.008930789,-1.064722,-2.628176,1.633665
0,3.299993,78,122,499,497,0.01033882,0.03810394,0.002601784,-1.490862,-3.019057,-1.660174,0.01045549,-0.001699219,0.01081235,-1.064608,-2.628121,1.633589
0,3.311104,78,122,499,497,0.009332438,0.03531551,-5.90242E-05,-1.490897,-3.019366,-1.660289,0.01341435,-0.0004398907,0.006992558,-1.064988,-2.628402,1.633564
0,3.322215,78,125,499,497,0.009422864,0.02951187,0.002147718,-1.491061,-3.019518,-1.660256,0.01338642,-0.004444977,0.001791243,-1.065037,-2.628673,1.63371
0,3.333326,78,125,499,497,0.006349668,0.02353742,-0.00108469,-1.491026,-3.019629,-1.660397,0.009279323,-0.005940567,-9.530899E-05,-1.065008,-2.629057,1.633804
0,3.344437,78,125,499,497,0.0033343,0.01404207,-0.002780404,-1.491005,-3.019521,-1.660461,0.01505373,-0.005115286,-0.000105917,-1.06527,-2.629254,1.633811
0,3.355548,78,125,499,497,0.005562603,0.008838975,-0.003699724,-1.491113,-3.01952,-1.660513,0.01803604,0.0001720572,0.003655487,-1.065569,-2.629169,1.633579
0,3.366659,78,125,499,497,0.003468429,0.006699581,-0.004081449,-1.491017,-3.01949,-1.660512,0.01572796,-0.0001333561,0.00651878,-1.065651,-2.629179,1.633416
0,3.37777,85,120,499,497,0.002520548,0.0001998486,-0.004156915,-1.491019,-3.019291,-1.660538,0.01186848,-0.002012484,0.005588494,-1.065626,-2.629238,1.633367
0,3.388881,85,120,499,497,0.00142666,0.002838524,-0.006932863,-1.491026,-3.019387,-1.660635,0.008801793,-0.001136526,0.005579036,-1.065714,-2.629394,1.633403
0,3.399992,85,120,499,497,0.004635579,0.001474641,-0.005001723,-1.49116,-3.019393,-1.660614,0.001751895,9.190408E-06,0.0008090076,-1.065582,-2.629335,1.633548
0,3.411103,85,120,499,497,0.006619001,0.00847736,-0.001586394,-1.491289,-3.019623,-1.660548,0.004460258,0.001706164,0.0007937269,-1.065782,-2.629448,1.633463
0,3.422215,85,111,499,499,0.004496707,0.008996571,-0.004744552,-1.491253,-3.019683,-1.660685,0.002798943,0.002366405,0.002694198,-1.065785,-2.62936,1.633355
0,3.433326,85,111,499,499,0.004547623,0.00529429,-0.002158244,-1.491301,-3.019688,-1.660625,0.004885938,0.007045176,0.001698021,-1.066055,-2.629197,1.633238
0,3.444437,85,111,499,499,0.004529502,0.006529924,-0.003020663,-1.49135,-3.019805,-1.660695,0.007481408,0.01093502,0.002608766,-1.066305,-2.629035,1.63318
0,3.455548,85,111,499,499,0.006651254,0.006012501,0.0001408258,-1.491503,-3.019926,-1.660555,0.0148964,0.007152504,0.002643007,-1.066674,-2.629149,1.633131
0,3.466659,85,111,499,499,0.004547858,0.005296712,-0.002155809,-1.491478,-3.019961,-1.660645,0.01455208,-0.004316247,0.002767614,-1.066634,-2.629463,1.633011
0,3.47777,78,121,499,497,0.004541975,0.004741342,0.0009979496,-1.49155,-3.020092,-1.660427,0.004435793,-0.002254792,0.0003681335,-1.066452,-2.629351,1.633079
0,3.488881,78,121,499,497,0.005644782,0.00247523,0.001680384,-1.491657,-3.020016,-1.660403,-0.0005225105,0.003628339,-0.000644087,-1.066516,-2.628987,1.633091
0,3.499992,78,121,499,497,0.004725278,-0.004885802,0.0003734237,-1.491698,-3.019769,-1.660423,-6.212667E-05,0.01295568,0.00306987,-1.066692,-2.628589,1.632936
0,3.511103,78,121,499,497,0.002722929,-0.01121827,-0.0007521213,-1.491723,-3.019473,-1.660432,0.003839977,0.01879096,0.004429726,-1.067026,-2.628341,1.632866
0,3.522214,78,121,499,497,0.0006742913,-0.01526188,-0.002554636,-1.491641,-3.019327,-1.66043,0.008434271,0.01549251,0.005415052,-1.06725,-2.628342,1.632777
0,3.533325,74,128,498,497,0.0006718622,-0.01507354,-0.003606034,-1.491581,-3.019183,-1.660492,0.01758473,0.004883825,0.002190731,-1.067695,-2.628797,1.632944
0,3.544436,74,128,498,497,0.002675948,-0.008742279,-0.002475744,-1.491639,-3.019299,-1.66046,0.01841822,-0.002502235,-0.001058503,-1.067797,-2.62915,1.633068
0,3.555547,74,128,498,497,0.001507191,-0.003331996,-0.002602453,-1.491569,-3.019402,-1.660494,0.009578237,-0.002425702,-0.001062756,-1.067789,-2.629195,1.633124
0,3.566658,74,128,498,497,0.003564913,0.001276211,-0.003946408,-1.491716,-3.019489,-1.660652,0.001203358,-0.007122991,-0.001964729,-1.06749,-2.629279,1.633188
0,3.577769,72,119,499,498,0.0004150392,-0.0006950585,-0.005387477,-1.491637,-3.019397,-1.66074,-0.0006336332,-0.01214252,0.004758723,-1.067341,-2.629425,1.632896
0,3.58888,72,119,499,498,0.002579169,-0.00312331,-0.003647519,-1.491713,-3.019333,-1.660688,0.002467385,-0.009117955,0.0004388479,-1.067393,-2.629502,1.632997
0,3.599991,72,119,499,498,0.002527929,-0.001399494,-0.001176141,-1.4917,-3.019342,-1.660629,0.003833351,0.0007237711,-0.0006229342,-1.067589,-2.629316,1.633029
0,3.611102,72,119,499,498,0.001665861,-0.01011554,-0.007052355,-1.491718,-3.018926,-1.660816,0.00510274,0.01283623,0.006388464,-1.06796,-2.628782,1.632657
0,3.622213,72,119,499,498,0.0006689401,-0.01328243,-0.007619672,-1.491756,-3.018688,-1.660917,0.0002012588,0.02273661,0.01056623,-1.06809,-2.628159,1.632375
0,3.633324,73,138,498,498,-0.003597732,-0.01354601,-0.006597607,-1.491599,-3.018567,-1.660908,0.0002062488,0.02273801,0.01056656,-1.068205,-2.627881,1.632249
0,3.644435,73,138,498,498,-0.001392197,-0.01628017,-0.009241259,-1.491712,-3.018289,-1.661058,0.005552636,0.01820025,0.009663397,-1.068418,-2.627849,1.632151
0,3.655546,73,138,498,498,-0.005755456,-0.0129096,-0.004324268,-1.491531,-3.018291,-1.660909,0.006119571,0.01126319,0.01022117,-1.0684,-2.627755,1.631994
0,3.666657,73,138,498,498,-0.003662065,-0.01021043,-0.007087254,-1.491496,-3.018214,-1.661058,0.006540224,0.002504652,0.006507744,-1.068397,-2.627847,1.632016
0,3.677768,73,140,497,498,-0.004663234,-0.01337574,-0.007655361,-1.491433,-3.01798,-1.661122,-0.001949374,-9.653228E-05,-0.002992732,-1.068177,-2.627921,1.632317
0,3.688879,73,140,497,498,-0.002549345,-0.01389482,-0.004493344,-1.491376,-3.017817,-1.661063,-0.001549969,0.001284879,-0.002536352,-1.068254,-2.627847,1.632377
0,3.69999,73,140,497,498,-0.006782524,-0.01464878,-0.00680948,-1.49121,-3.017609,-1.661194,-0.0008589467,0.006286085,0.004077813,-1.068362,-2.627547,1.632126
0,3.711101,73,140,497,498,-0.006700899,-0.01865387,-0.008608619,-1.491082,-3.01726,-1.661291,-0.002287038,0.01668269,0.008728961,-1.068527,-2.626917,1.631804
0,3.722212,73,140,497,498,-0.004479253,-0.02262022,-0.01039397,-1.491126,-3.016881,-1.661409,-0.0005337708,0.02396466,0.01007595,-1.068751,-2.626453,1.631613
0,3.733323,74,133,499,499,-0.005574582,-0.02177989,-0.00916557,-1.491005,-3.016625,-1.661419,-0.000134699,0.02531712,0.008154182,-1.068838,-2.626127,1.631575
0,3.744434,74,133,499,499,-0.005584972,-0.02054737,-0.01003072,-1.491031,-3.016351,-1.661555,-0.008622292,0.02287964,0.01295695,-1.068633,-2.625661,1.63123
0,3.755545,74,133,499,499,-0.008751179,-0.02128176,-0.01233262,-1.490905,-3.016043,-1.661611,-0.008471711,0.02465045,0.01246101,-1.068659,-2.625293,1.631111
0,3.766656,74,133,499,499,-0.006659018,-0.02094687,-0.007927857,-1.49092,-3.015808,-1.661458,-0.007204254,0.0124599,0.005925928,-1.068499,-2.625453,1.631213
0,3.777767,74,133,499,499,-0.004552316,-0.02004589,-0.006677716,-1.490945,-3.015614,-1.661477,-0.004981682,0.004854308,0.00457149,-1.068454,-2.625532,1.631297
0,3.788878,75,146,499,498,-0.002575257,-0.01285663,-0.004305848,-1.490925,-3.015621,-1.661506,0.001001021,0.00121728,-0.002058297,-1.068503,-2.62573,1.631488
0,3.799989,75,146,499,498,-0.002673965,-0.007238497,-0.005466358,-1.490888,-3.015682,-1.661607,0.0004364315,0.008157617,-0.002611499,-1.068639,-2.625502,1.631524
0,3.8111,75,146,499,498,0.0004943919,-0.006318614,-0.004206846,-1.490956,-3.015605,-1.661595,0.001841468,0.008005052,0.006444343,-1.068567,-2.62532,1.631174
0,3.822211,75,146,499,498,0.003720257,-0.006742797,-0.007517792,-1.491055,-3.015476,-1.661737,-0.005033883,0.0009113476,0.00652297,-1.06851,-2.625167,1.631014
0,3.833322,74,126,498,498,0.009069597,-0.007497642,-0.008717179,-1.491261,-3.015389,-1.66183,-0.006374026,-0.005014784,0.003247369,-1.068305,-2.625526,1.631203
0,3.844433,74,126,498,498,0.00589383,-0.008805629,-0.007875588,-1.491253,-3.015129,-1.661818,-0.008832587,-0.007178616,-0.002922845,-1.068088,-2.625687,1.631433
0,3.855544,74,126,498,498,0.006006496,-0.01385606,-0.009867255,-1.491283,-3.014824,-1.661989,-0.008075625,-0.008389019,-0.002435482,-1.067956,-2.625811,1.631498
0,3.866655,74,126,498,498,-0.001351021,-0.01981178,-0.007713537,-1.491104,-3.014391,-1.661983,-0.01016064,0.001016101,0.0008103866,-1.067889,-2.625364,1.631231
0,3.877766,74,126,498,498,-0.001309631,-0.02229476,-0.005983574,-1.491194,-3.01396,-1.661906,-0.01409344,0.005279539,-0.001135606,-1.06774,-2.625111,1.631296
0,3.888877,72,143,498,500,-0.004463715,-0.02426632,-0.007434865,-1.491021,-3.013579,-1.661981,-0.004192315,0.007550918,0.0007405429,-1.068004,-2.625047,1.631224
0,3.899988,72,143,498,500,-0.001453182,-0.01477245,-0.005724656,-1.491197,-3.013621,-1.662074,0.0006389623,0.003845878,0.002676371,-1.068033,-2.62519,1.631235
0,3.911099,72,143,498,500,-0.000617045,-0.004454937,-0.002796041,-1.491119,-3.013832,-1.662104,-5.305072E-05,-0.001091851,0.0008201886,-1.068019,-2.625252,1.63129
0,3.92221,72,143,498,500,0.0003582881,-0.0004320847,-0.0009894917,-1.491161,-3.013879,-1.66208,-2.984609E-05,-0.01125555,-0.005744395,-1.067857,-2.62573,1.631557
0,3.933321,78,133,499,497,-0.003010809,0.008076777,-0.0005537531,-1.490982,-3.014152,-1.662074,-0.001186998,-0.01145327,-0.009072671,-1.067707,-2.625895,1.63171
0,3.944432,78,133,499,497,0.0001473185,0.008248207,0.004895878,-1.49107,-3.014299,-1.661874,-0.001758154,-0.004462981,-0.004857127,-1.067721,-2.625703,1.631631
0,3.955544,78,133,499,497,-0.007303316,0.008288967,0.003801953,-1.490758,-3.014349,-1.661863,0.000739652,0.001609,-0.003012274,-1.067861,-2.62553,1.631526
0,3.966655,78,133,499,497,-0.002979301,0.005037908,0.004312631,-1.490896,-3.014333,-1.661808,0.001330635,0.008768611,0.002154369,-1.068033,-2.625171,1.631298
0,3.977766,78,133,499,497,-0.007107809,-0.00114582,0.002108316,-1.49072,-3.014145,-1.661836,0.005409999,0.006201965,-0.003548854,-1.068263,-2.625441,1.631705
0,3.988877,81,158,497,497,-0.004953148,-0.003955356,0.005940836,-1.490678,-3.014053,-1.661661,0.006585352,-0.003768989,-0.006774526,-1.068109,-2.625847,1.631886
0,3.999988,81,158,497,497,-0.003840653,-0.005846404,0.004522878,-1.490699,-3.013901,-1.661637,0.003545509,-0.01296494,-0.006199805,-1.067884,-2.626218,1.631979
0,4.011099,81,158,497,497,-0.003847417,-0.006031739,0.00557314,-1.490625,-3.013864,-1.661518,0.002495109,-0.01530133,-0.005697004,-1.067719,-2.626396,1.63198
0.3333333,4.02221,81,158,497,497,-0.001762432,-0.004082993,0.007012873,-1.490652,-3.013873,-1.661396,0.001669741,-0.007994099,-0.009583915,-1.067753,-2.626426,1.632203
0.6666667,4.033321,78,149,498,498,-0.005071886,0.0009111025,0.008981534,-1.490399,-3.014002,-1.661212,-0.000819263,5.424558E-05,-0.004429461,-1.067717,-2.626356,1.632251
1,4.044433,78,149,498,498,-0.004041516,0.00160909,0.01126915,-1.490271,-3.014102,-1.661111,0.001929024,0.005710317,-0.004015008,-1.067916,-2.626121,1.632166
1.333333,4.055544,78,149,498,498,-0.004102873,0.002399252,0.01898435,-1.490207,-3.014222,-1.660684,0.006806497,0.005946329,-0.004017778,-1.068098,-2.626204,1.6322
1.666667,4.066655,78,149,498,498,-0.00518073,0.00399206,0.01601868,-1.490015,-3.014305,-1.660647,0.007523475,0.0007475629,-0.006347424,-1.068046,-2.626565,1.632462
2,4.077766,78,149,498,498,-0.008343088,0.001468968,0.01772057,-1.489838,-3.014295,-1.660414,0.002682501,-0.009606693,-0.008137954,-1.067809,-2.62694,1.632637
2.333333,4.088878,75,153,499,496,-0.009456009,0.004785288,0.0172279,-1.489759,-3.014424,-1.660226,-0.008333231,-0.008100013,-0.01053743,-1.067414,-2.626814,1.632845
2.666667,4.099989,75,153,499,496,-0.01146024,-0.002772106,0.01695152,-1.489592,-3.014212,-1.660015,-0.02145255,0.002683198,-0.01923048,-1.067073,-2.626466,1.63333
3,4.1111,75,153,499,496,-0.0153553,-0.0268309,0.0180449,-1.489341,-3.01341,-1.659746,-0.02877525,0.01837672,-0.01558866,-1.066908,-2.625744,1.633376
3.333333,4.122211,75,153,499,496,-0.01624461,-0.04054256,0.02209365,-1.489259,-3.012656,-1.659344,-0.03649539,0.03269072,-0.01240167,-1.066745,-2.624819,1.633395
3.666666,4.133323,75,153,499,496,-0.02540861,-0.07201345,0.02184224,-1.488826,-3.011075,-1.659036,-0.04063237,0.03115475,-0.01667273,-1.066408,-2.624542,1.633766
4,4.144434,73,151,499,504,-0.02607582,-0.103174,0.02061448,-1.48862,-3.009139,-1.658701,-0.03802563,0.0208891,-0.02275828,-1.06609,-2.624578,1.634235
4.333333,4.155545,73,151,499,504,-0.02890253,-0.1288679,0.01275782,-1.488418,-3.007018,-1.658608,-0.02705055,-0.01068866,-0.03623271,-1.065608,-2.625821,1.635148
4.666667,4.166656,73,151,499,504,-0.02661999,-0.141222,0.009472576,-1.488301,-3.005288,-1.658485,-0.0282629,-0.03480415,-0.04929786,-1.064831,-2.627053,1.636249
5,4.177768,73,151,499,504,-0.02769465,-0.1456045,0.009779262,-1.488111,-3.003574,-1.658212,-0.04655996,-0.05171812,-0.05720311,-1.063589,-2.627842,1.637267
5.333333,4.188879,74,168,498,497,-0.03745365,-0.1468091,0.0160153,-1.487577,-3.002036,-1.657704,-0.06278998,-0.0401538,-0.0587381,-1.062665,-2.627787,1.637858
5.666667,4.19999,74,168,498,497,-0.04090334,-0.1379338,0.02083586,-1.487154,-3.000768,-1.657238,-0.07036059,-0.01439591,-0.04851337,-1.062044,-2.626966,1.638131
6,4.211102,74,168,498,497,-0.04652688,-0.1248795,0.02636179,-1.486588,-2.999752,-1.656819,-0.0259443,0.02739493,-0.01614383,-1.06342,-2.625904,1.637345
6.333334,4.222213,74,168,498,497,-0.05540077,-0.1099094,0.03330446,-1.485759,-2.998943,-1.656163,0.08189763,0.09326588,0.04972328,-1.067709,-2.624125,1.634679
6.666667,4.233324,74,168,498,497,-0.06875378,-0.08053014,0.05688629,-1.484568,-2.99893,-1.654944,0.1432886,0.1385709,0.08918041,-1.07138,-2.622142,1.632254
7.000001,4.244435,83,145,499,497,-0.07333003,-0.06904234,0.07841771,-1.483752,-2.998557,-1.653542,0.1594757,0.181803,0.08987853,-1.074927,-2.619724,1.630798
7.333334,4.255547,83,145,499,497,-0.08442948,-0.05369584,0.1222374,-1.482432,-2.998648,-1.651056,0.0515222,0.1406839,0.03933971,-1.072765,-2.618682,1.631892
7.666668,4.266658,83,145,499,497,-0.09638706,-0.04976673,0.1455917,-1.481062,-2.998449,-1.648752,-0.05988717,0.09465698,2.178364E-06,-1.069484,-2.617621,1.633132
8.000001,4.277769,83,145,499,497,-0.1222752,-0.05801512,0.1721136,-1.479265,-2.997843,-1.646182,-0.1955389,0.0515473,0.02753232,-1.064132,-2.614909,1.632141
8.333334,4.28888,90,143,500,499,-0.1322721,-0.07820923,0.1739211,-1.477654,-2.996665,-1.644034,-0.205491,0.05769521,0.05460061,-1.062821,-2.612257,1.630471
8.666667,4.299992,90,143,500,499,-0.1396233,-0.1212648,0.1837109,-1.476127,-2.994391,-1.641544,-0.173869,0.09960878,0.05055988,-1.062851,-2.60947,1.629749
9,4.311103,90,143,500,499,-0.1691744,-0.181743,0.1979436,-1.473896,-2.991103,-1.638607,-0.145801,0.1323255,0.005224902,-1.06336,-2.60769,1.630993
9.333333,4.322214,90,143,500,499,-0.2030474,-0.2529035,0.2211557,-1.471268,-2.986742,-1.635246,-0.1251042,0.1663915,-0.04838904,-1.063961,-2.60575,1.632911
9.666666,4.333325,90,143,500,499,-0.2289191,-0.3117321,0.2433793,-1.468567,-2.982127,-1.631704,-0.1160728,0.1893023,-0.07128379,-1.06416,-2.603549,1.634242
9.999999,4.344437,93,136,499,497,-0.2646469,-0.4048287,0.2695509,-1.46558,-2.975431,-1.627621,-0.1256233,0.2094328,-0.09277773,-1.064203,-2.60094,1.63591
10.33333,4.355548,93,136,499,497,-0.2973915,-0.4904831,0.3005236,-1.462434,-2.968154,-1.623068,-0.140003,0.2154498,-0.09722461,-1.063739,-2.598255,1.636951
10.66667,4.366659,93,136,499,497,-0.3255591,-0.5615445,0.3309385,-1.459123,-2.960708,-1.618285,-0.1687529,0.2140787,-0.0970662,-1.062674,-2.595303,1.637751
11,4.37777,93,136,499,497,-0.3543565,-0.6163428,0.3664714,-1.455541,-2.952848,-1.612971,-0.1921754,0.1976829,-0.1092113,-1.061206,-2.593104,1.639353
11.33333,4.388882,95,136,499,497,-0.3720002,-0.6372801,0.3915628,-1.451997,-2.945637,-1.607746,-0.1958153,0.1533967,-0.1571359,-1.059624,-2.593141,1.642785
11.66666,4.399993,95,119,499,498,-0.3980122,-0.6586789,0.4208688,-1.448187,-2.937968,-1.602113,-0.18175,0.1189262,-0.2259101,-1.05858,-2.594077,1.647636
12,4.411104,95,119,499,498,-0.4189108,-0.6591239,0.4580764,-1.444091,-2.930927,-1.595863,-0.200615,0.09166557,-0.2941042,-1.056669,-2.594619,1.653166
12.33333,4.422215,95,119,499,498,-0.431898,-0.6472446,0.483328,-1.440277,-2.924226,-1.589779,-0.242019,0.08478202,-0.3334114,-1.054073,-2.594382,1.658495
12.66666,4.433327,95,119,499,498,-0.4433467,-0.5969322,0.5254076,-1.436035,-2.91927,-1.582816,-0.2849611,0.1000676,-0.3233078,-1.051524,-2.592395,1.661961
13,4.444438,90,138,499,489,-0.4448476,-0.5639601,0.546411,-1.432139,-2.913955,-1.576175,-0.3560815,0.14087,-0.2854553,-1.047908,-2.588083,1.664193
13.33333,4.455549,90,138,499,489,-0.4364806,-0.5158769,0.5785031,-1.428269,-2.909643,-1.568957,-0.4019363,0.1914108,-0.2494826,-1.044956,-2.583081,1.665877
13.66666,4.46666,90,138,499,489,-0.4321951,-0.4799017,0.6020402,-1.424447,-2.905494,-1.561615,-0.4243985,0.2237926,-0.2366719,-1.042213,-2.578428,1.668171
14,4.477772,90,138,499,489,-0.4213891,-0.4193558,0.6431799,-1.420799,-2.90256,-1.553546,-0.4359231,0.245691,-0.2276021,-1.039662,-2.574167,1.670624
14.33333,4.488883,90,138,499,489,-0.416741,-0.3903362,0.6565794,-1.416965,-2.899092,-1.545974,-0.4498635,0.2253957,-0.2338806,-1.036219,-2.571231,1.673799
14.66666,4.499994,134,132,506,497,-0.4090683,-0.3536645,0.6774837,-1.413442,-2.89619,-1.53805,-0.4501993,0.1874744,-0.2616323,-1.032758,-2.569443,1.677838
14.99999,4.511106,134,132,506,497,-0.4021057,-0.3235406,0.6918197,-1.409728,-2.893526,-1.529988,-0.4437947,0.1535974,-0.2838204,-1.029342,-2.568017,1.682102
15.33333,4.522217,134,132,506,497,-0.3936233,-0.2839415,0.7082477,-1.406258,-2.891555,-1.52182,-0.4682677,0.1093907,-0.2975871,-1.024645,-2.566807,1.686423
15.66666,4.533328,134,132,506,497,-0.3815463,-0.2459961,0.7264451,-1.402886,-2.889949,-1.513308,-0.4818074,0.1000507,-0.2918908,-1.020645,-2.564249,1.689754
15.99999,4.544439,190,119,490,498,-0.3630285,-0.212392,0.7430033,-1.399938,-2.888542,-1.504715,-0.4862664,0.1019637,-0.2787415,-1.016789,-2.561633,1.69282
16.33333,4.555551,190,119,490,498,-0.3467125,-0.1864397,0.7519385,-1.397058,-2.887151,-1.496188,-0.5016668,0.1197897,-0.2607429,-1.012922,-2.557895,1.695399
16.66666,4.566662,190,119,490,498,-0.3452752,-0.1681964,0.7636474,-1.393756,-2.885708,-1.487384,-0.5081041,0.1360674,-0.2509492,-1.009276,-2.554269,1.6981
16.99999,4.577773,190,119,490,498,-0.3365458,-0.1570579,0.7748058,-1.390899,-2.884195,-1.478582,-0.4963523,0.1470465,-0.2385613,-1.006152,-2.550798,1.700534
17.33333,4.588884,190,119,490,498,-0.3437961,-0.1515565,0.7826062,-1.387427,-2.882478,-1.469785,-0.4811906,0.1320493,-0.2515182,-1.002833,-2.548872,1.704231
17.66666,4.599996,158,111,497,498,-0.3534935,-0.1526366,0.8068804,-1.383963,-2.880505,-1.460375,-0.4672764,0.07894367,-0.2865508,-0.998907,-2.548767,1.709104
18,4.611107,158,111,497,498,-0.3545778,-0.1587355,0.8430408,-1.380799,-2.878417,-1.449759,-0.478905,0.02651754,-0.3252668,-0.9939817,-2.548812,1.71467
18.33333,4.622218,158,111,497,498,-0.3583836,-0.1615479,0.8428819,-1.377564,-2.876132,-1.440735,-0.4855222,0.003971785,-0.3496351,-0.9894868,-2.548556,1.720099
18.66666,4.633329,158,111,497,498,-0.3571872,-0.1651939,0.8150409,-1.374438,-2.873822,-1.432835,-0.5035475,-0.003317177,-0.3642418,-0.9848365,-2.54752,1.725142
19,4.644441,141,104,499,500,-0.3559955,-0.1625546,0.7854703,-1.371326,-2.871554,-1.425149,-0.5286078,0.01264006,-0.3534212,-0.9801205,-2.545208,1.729376
19.33333,4.655552,141,104,499,500,-0.3577114,-0.1657191,0.7790349,-1.368095,-2.869077,-1.416745,-0.5411912,0.02264377,-0.3359992,-0.9755841,-2.54284,1.73316
19.66667,4.666663,141,104,499,500,-0.3570689,-0.1713722,0.7780204,-1.365173,-2.866296,-1.408507,-0.5484107,0.0419049,-0.3028058,-0.9712554,-2.539613,1.7359
20,4.677774,141,104,499,500,-0.3613289,-0.1731119,0.782357,-1.361944,-2.863666,-1.399904,-0.5465446,0.04739377,-0.2802695,-0.9669688,-2.537015,1.738981
20.33333,4.688886,141,104,499,500,-0.3636055,-0.1665231,0.7870917,-1.358761,-2.861325,-1.391387,-0.5508325,0.03003424,-0.2778073,-0.9620627,-2.535111,1.742711
20.66667,4.699997,146,109,499,497,-0.3618687,-0.1532728,0.7889834,-1.355717,-2.859159,-1.382888,-0.560063,0.008167386,-0.2833029,-0.9569649,-2.533635,1.746904
21,4.711108,146,109,499,497,-0.3572897,-0.1378336,0.7922083,-1.352787,-2.857475,-1.373424,-0.5713696,-0.0196467,-0.2933453,-0.9514106,-2.532627,1.751495
21.33334,4.722219,146,109,499,497,-0.3590283,-0.1254939,0.7925487,-1.349629,-2.855469,-1.36498,-0.5539539,-0.02198374,-0.2938071,-0.9470664,-2.531353,1.755529
21.66667,4.733331,146,109,499,497,-0.3440078,-0.1016162,0.7970222,-1.346767,-2.854231,-1.356285,-0.5309776,-0.02718118,-0.3061394,-0.9429827,-2.530536,1.760067
22,4.744442,174,109,507,498,-0.3287686,-0.06583577,0.79927,-1.344098,-2.853541,-1.347361,-0.5303956,-0.04573673,-0.3068801,-0.9381065,-2.52987,1.764541
22.33334,4.755553,174,109,507,498,-0.3069046,-0.01901266,0.794018,-1.341636,-2.853659,-1.338645,-0.5316913,-0.04499027,-0.2965377,-0.9334864,-2.528301,1.768197
22.66667,4.766665,174,109,507,498,-0.2685069,0.03435433,0.7848534,-1.339886,-2.854645,-1.329916,-0.5326355,-0.03837556,-0.2818848,-0.9289804,-2.526469,1.771588
23.00001,4.777776,174,109,507,498,-0.2508897,0.06670605,0.7870229,-1.337896,-2.855218,-1.320895,-0.5413201,-0.03415903,-0.2792557,-0.9243385,-2.52476,1.775455
23.33334,4.788887,174,109,507,498,-0.2292082,0.1022823,0.7963825,-1.336082,-2.856521,-1.311374,-0.5476122,-0.02366251,-0.2790769,-0.9198505,-2.522649,1.779276
23.66667,4.799998,167,117,504,496,-0.2239935,0.1136328,0.8008744,-1.334211,-2.856967,-1.302143,-0.5436814,-0.01815566,-0.2765703,-0.9155325,-2.520787,1.782991
24.00001,4.81111,167,117,504,496,-0.2243268,0.1105204,0.7937889,-1.332177,-2.857084,-1.293213,-0.5414481,-0.02960867,-0.2681417,-0.9107825,-2.51932,1.786543
24.33334,4.822221,167,117,504,496,-0.2164427,0.09993383,0.760972,-1.330425,-2.856876,-1.285634,-0.5270501,-0.0431211,-0.2634826,-0.9064894,-2.51835,1.790211
24.66668,4.833332,167,117,504,496,-0.2024156,0.09914695,0.7356471,-1.328883,-2.85705,-1.277882,-0.518587,-0.0428195,-0.2637436,-0.9022774,-2.517072,1.793916
25.00001,4.844443,167,117,504,496,-0.1983286,0.1063603,0.7231988,-1.327155,-2.857323,-1.26993,-0.5249466,-0.04806638,-0.2615545,-0.8976179,-2.515634,1.797688
25.33334,4.855555,203,101,500,499,-0.2015269,0.1060962,0.726732,-1.325237,-2.857402,-1.261491,-0.5288144,-0.047254,-0.2632718,-0.8930394,-2.514059,1.801491
25.66668,4.866666,203,101,500,499,-0.2117311,0.09780966,0.7368362,-1.323226,-2.857078,-1.253032,-0.5459732,-0.05842152,-0.2711898,-0.8879464,-2.512717,1.805834
26.00001,4.877777,203,101,500,499,-0.2108294,0.09614018,0.736574,-1.321439,-2.856789,-1.244734,-0.5667434,-0.06139362,-0.2583705,-0.8825503,-2.510746,1.80936
26.33335,4.888888,203,101,500,499,-0.2105399,0.08493492,0.7242966,-1.319825,-2.856149,-1.237059,-0.5502694,-0.05732638,-0.2317322,-0.878368,-2.50879,1.811777
26.66668,4.9,222,114,492,496,-0.210283,0.0783661,0.6967587,-1.318106,-2.855514,-1.230076,-0.5358048,-0.05663481,-0.221348,-0.8741453,-2.507103,1.814723
27.00001,4.911111,222,114,492,496,-0.2134399,0.08065714,0.6810629,-1.316077,-2.855291,-1.222923,-0.5276779,-0.06268641,-0.2249697,-0.8697889,-2.505895,1.818349
27.33335,4.922222,222,114,492,496,-0.2132615,0.08793797,0.6747325,-1.31429,-2.85503,-1.215486,-0.5106552,-0.05673927,-0.2342214,-0.8660318,-2.504719,1.822173
27.66668,4.933333,222,114,492,496,-0.2178207,0.09617221,0.6861463,-1.312345,-2.854931,-1.207325,-0.4811258,-0.05200973,-0.2443046,-0.8627912,-2.504015,1.825863
28.00002,4.944445,222,114,492,496,-0.2138605,0.09937535,0.7029473,-1.310752,-2.854398,-1.198964,-0.4753344,-0.05256218,-0.2418202,-0.8590404,-2.502842,1.829459
28.33335,4.955556,215,111,490,499,-0.2119586,0.1018048,0.6971555,-1.309124,-2.854029,-1.191384,-0.4762368,-0.07188886,-0.2344847,-0.8546419,-2.501959,1.832865
28.66668,4.966667,215,111,490,499,-0.1918695,0.112131,0.650794,-1.3078,-2.854346,-1.185002,-0.4755932,-0.1036054,-0.2168153,-0.8497902,-2.501572,1.836003
29.00002,4.977778,215,111,490,499,-0.178835,0.1328871,0.6239641,-1.306309,-2.855124,-1.178184,-0.4748029,-0.1252746,-0.2120342,-0.8451589,-2.501333,1.839479
29.33335,4.98889,215,111,490,499,-0.1544124,0.1646509,0.6048174,-1.30523,-2.856594,-1.171128,-0.4844047,-0.1433949,-0.2252279,-0.8401384,-2.501452,1.844008
29.66669,5.000001,244,131,494,497,-0.150034,0.1958863,0.6151302,-1.303664,-2.858169,-1.163017,-0.488,-0.1113435,-0.2346153,-0.8364382,-2.500063,1.847817
30.00002,5.011112,244,131,494,497,-0.1503651,0.2163363,0.6360252,-1.302181,-2.859509,-1.154497,-0.4787759,-0.09266737,-0.2278497,-0.8327694,-2.498708,1.85109
30.33335,5.022223,244,131,494,497,-0.1507867,0.2256446,0.6605824,-1.300834,-2.860548,-1.145751,-0.4682667,-0.07192945,-0.2189244,-0.8294889,-2.497072,1.854033
30.66669,5.033335,244,131,494,497,-0.1436865,0.2266008,0.6449782,-1.299632,-2.861525,-1.138357,-0.4658013,-0.07012126,-0.2039071,-0.8253744,-2.495543,1.856764
31.00002,5.044446,244,131,494,497,-0.1372727,0.2253158,0.6016546,-1.298284,-2.86278,-1.13197,-0.4588571,-0.08927083,-0.1878879,-0.821165,-2.494677,1.859518
31.33335,5.055557,238,120,505,496,-0.1307681,0.2296613,0.5746401,-1.297086,-2.864051,-1.125529,-0.4590959,-0.1107992,-0.1835375,-0.8166631,-2.494269,1.862924
31.66669,5.066669,238,120,505,496,-0.1376726,0.2396905,0.5606736,-1.295318,-2.865464,-1.118673,-0.4617588,-0.1295758,-0.1831102,-0.8120191,-2.493961,1.866395
32.00002,5.07778,238,120,505,496,-0.1580408,0.2434834,0.5683335,-1.293277,-2.866559,-1.110897,-0.4541454,-0.1420493,-0.1815115,-0.8076712,-2.494023,1.869914
32.33335,5.088891,238,120,505,496,-0.1643979,0.2470312,0.5695273,-1.291546,-2.867585,-1.103674,-0.444347,-0.1455252,-0.1810907,-0.8036483,-2.493812,1.873272
32.66669,5.100002,238,120,505,496,-0.1721799,0.2438529,0.5751783,-1.28969,-2.868368,-1.096398,-0.4341871,-0.1608818,-0.1858488,-0.7995917,-2.494256,1.877056
33.00002,5.111114,244,118,510,497,-0.1665604,0.2497745,0.5757327,-1.288185,-2.869491,-1.0891,-0.4421378,-0.179005,-0.1919171,-0.794764,-2.494685,1.881262
33.33335,5.122225,244,118,510,497,-0.1602397,0.2675787,0.5802914,-1.286609,-2.871096,-1.081385,-0.4472287,-0.1846968,-0.1932696,-0.7901567,-2.494839,1.885244
33.66668,5.133336,244,118,510,497,-0.1544402,0.2918838,0.5918848,-1.285054,-2.873059,-1.073218,-0.4427856,-0.1787181,-0.1803657,-0.7859047,-2.49442,1.888314
34.00002,5.144447,244,118,510,497,-0.1409835,0.3201383,0.5952611,-1.283783,-2.875474,-1.06495,-0.4399521,-0.1829205,-0.1669318,-0.7814146,-2.494155,1.8913
34.33335,5.155559,241,120,494,498,-0.1395277,0.3322821,0.5858139,-1.282213,-2.877517,-1.057213,-0.4259245,-0.186326,-0.173128,-0.7774582,-2.494714,1.89524
34.66668,5.16667,241,120,494,498,-0.1329006,0.3392892,0.5516962,-1.280708,-2.879788,-1.050447,-0.4113914,-0.2163175,-0.2002291,-0.7730832,-2.497023,1.900734
35.00001,5.177781,241,120,494,498,-0.1320073,0.3377435,0.5256747,-1.279031,-2.881855,-1.043738,-0.3990295,-0.2441783,-0.2187668,-0.7686181,-2.499514,1.906308
35.33334,5.188892,241,120,494,498,-0.1305495,0.3425594,0.5210626,-1.277581,-2.883921,-1.036398,-0.3943865,-0.2406193,-0.2080324,-0.7643757,-2.500362,1.910216
35.66668,5.200004,241,120,494,498,-0.1381853,0.3603449,0.5177707,-1.275599,-2.886405,-1.028785,-0.4167776,-0.2231605,-0.1785108,-0.7597663,-2.499501,1.912913
36.00001,5.211115,248,124,505,496,-0.1348658,0.3593316,0.5180077,-1.27415,-2.888327,-1.02147,-0.4265479,-0.2269851,-0.1590527,-0.7549326,-2.499369,1.915897
36.33334,5.222226,248,124,505,496,-0.1314391,0.3679689,0.518958,-1.272661,-2.890755,-1.013938,-0.416638,-0.2301384,-0.1366709,-0.7503675,-2.499502,1.918496
36.66667,5.233337,248,124,505,496,-0.1286361,0.3808594,0.5284813,-1.271176,-2.89313,-1.005933,-0.3967371,-0.2437593,-0.1526803,-0.7462705,-2.5015,1.923138
37,5.244449,248,124,505,496,-0.1139646,0.3985315,0.5441256,-1.270144,-2.895905,-0.9973991,-0.4014621,-0.2626367,-0.1691585,-0.7414427,-2.503356,1.928152
37.33334,5.25556,228,126,523,496,-0.08453465,0.416234,0.5365119,-1.269652,-2.899161,-0.9893169,-0.3933792,-0.2645574,-0.1635188,-0.7372615,-2.504747,1.932123
37.66667,5.266671,228,126,523,496,-0.06061608,0.4346645,0.5190678,-1.269126,-2.902674,-0.9816236,-0.3872442,-0.2641053,-0.1414879,-0.7326739,-2.505273,1.934965
38,5.277782,228,126,523,496,-0.01756448,0.4527506,0.4963622,-1.26941,-2.906868,-0.974057,-0.3744001,-0.2808894,-0.1458573,-0.7281194,-2.507409,1.939315
38.33333,5.288894,228,126,523,496,-0.006769478,0.46919,0.498794,-1.269093,-2.910511,-0.9658896,-0.3717633,-0.2873088,-0.1746371,-0.7237204,-2.509806,1.944877
38.66666,5.300005,228,126,523,496,-0.003819346,0.4712391,0.5150009,-1.268863,-2.913685,-0.9574122,-0.3553565,-0.2942616,-0.1868818,-0.7196847,-2.512616,1.95021
39,5.311116,223,161,498,493,-0.003858089,0.4601843,0.5265012,-1.268675,-2.916229,-0.9492763,-0.3624395,-0.3200306,-0.1884166,-0.7147152,-2.515498,1.955565
39.33333,5.322227,223,161,498,493,-0.01888418,0.461596,0.5180132,-1.267679,-2.91942,-0.9411963,-0.3676304,-0.3277231,-0.1597888,-0.7095194,-2.517089,1.95927
39.66666,5.333339,223,161,498,493,-0.02572322,0.4527148,0.4970206,-1.267036,-2.922296,-0.9338454,-0.3532521,-0.3066299,-0.1343661,-0.7056136,-2.518116,1.96213
39.99999,5.34445,223,161,498,493,-0.03087813,0.4508405,0.4794863,-1.266255,-2.925172,-0.9266943,-0.3494293,-0.3060625,-0.1318809,-0.7012529,-2.519857,1.966087
40.33332,5.355561,216,174,497,495,-0.03924823,0.4493961,0.4750141,-1.265413,-2.92787,-0.9190776,-0.351797,-0.3013191,-0.1546742,-0.697206,-2.522288,1.971359
40.66666,5.366673,216,174,497,495,-0.06033146,0.4409111,0.4833953,-1.264261,-2.929964,-0.9113801,-0.3687581,-0.3094937,-0.1519311,-0.6922749,-2.524101,1.975991
40.99999,5.377784,216,174,497,495,-0.0757547,0.4369162,0.4964851,-1.263021,-2.931941,-0.9034784,-0.4054761,-0.3275703,-0.1263775,-0.6860548,-2.524737,1.979563
41.33332,5.388895,216,174,497,495,-0.09711736,0.4317633,0.5152617,-1.26158,-2.933617,-0.8953063,-0.388397,-0.329455,-0.09902136,-0.6812782,-2.526,1.982256
41.66665,5.400006,216,174,497,495,-0.09519148,0.422987,0.4979489,-1.260531,-2.935713,-0.8882841,-0.3783291,-0.3455966,-0.09808269,-0.6761532,-2.528487,1.986621
41.99998,5.411118,211,175,499,495,-0.08430457,0.4244122,0.4820224,-1.259769,-2.938172,-0.881109,-0.3573661,-0.3439185,-0.1113424,-0.6718165,-2.531301,1.991554
42.33332,5.422229,211,175,499,495,-0.07581311,0.430174,0.4709783,-1.25912,-2.939243,-0.8741869,-0.3359611,-0.3460887,-0.1440531,-0.6679203,-2.53516,1.997731
42.66665,5.43334,211,175,499,495,-0.07177395,0.4291296,0.4806156,-1.258483,-2.941318,-0.8664291,-0.3235891,-0.3503659,-0.1755626,-0.6639559,-2.53935,2.004545
42.99998,5.444451,211,175,499,495,-0.08303571,0.4366578,0.5001554,-1.257172,-2.943006,-0.8579863,-0.318225,-0.3595076,-0.1872678,-0.6597039,-2.543412,2.011044
43.33331,5.455563,211,175,499,495,-0.08819413,0.4405642,0.511473,-1.256065,-2.944917,-0.8497966,-0.311227,-0.3704261,-0.1745267,-0.6551152,-2.54661,2.016147
43.66665,5.466674,242,178,490,497,-0.08257151,0.4459462,0.4953204,-1.255164,-2.947346,-0.8423153,-0.3166223,-0.3770698,-0.1642188,-0.6502987,-2.549884,2.021538
43.99998,5.477785,242,178,490,497,-0.06871492,0.4427364,0.4616435,-1.254483,-2.949998,-0.8355652,-0.3326398,-0.3639439,-0.1394511,-0.6455939,-2.551246,2.025438
44.33331,5.488896,242,178,490,497,-0.05703729,0.4463434,0.4467458,-1.253983,-2.95264,-0.8284609,-0.3460916,-0.3648849,-0.1335438,-0.6407763,-2.553538,2.030334
44.66664,5.500008,242,178,490,497,-0.04537737,0.4482257,0.4465605,-1.25389,-2.955249,-0.8208539,-0.3506127,-0.3695137,-0.1329613,-0.6358808,-2.556429,2.035751
44.99997,5.511119,218,169,504,498,-0.04353434,0.4448301,0.4467882,-1.253424,-2.957348,-0.8136048,-0.3511818,-0.3520009,-0.1357937,-0.6317189,-2.55864,2.040811
45.33331,5.52223,218,169,504,498,-0.04695201,0.4413209,0.4453778,-1.252868,-2.959582,-0.8063967,-0.3420503,-0.3614517,-0.1269163,-0.6270567,-2.561668,2.045851
45.66664,5.533341,218,169,504,498,-0.05110562,0.4424006,0.4476257,-1.252211,-2.961651,-0.7989643,-0.3328179,-0.3744949,-0.1215528,-0.622246,-2.565091,2.051275
45.99997,5.544453,218,169,504,498,-0.05649585,0.4512361,0.4589179,-1.251571,-2.963881,-0.7910063,-0.3287485,-0.3697113,-0.1125941,-0.6177106,-2.567703,2.055959
46.3333,5.555564,218,169,504,498,-0.05573922,0.4553903,0.4625147,-1.25102,-2.965937,-0.783266,-0.3147922,-0.3505312,-0.1117069,-0.6141335,-2.570221,2.060582
46.66663,5.566675,360,166,509,497,-0.05148327,0.4469911,0.4490782,-1.250514,-2.968019,-0.776287,-0.3152787,-0.3537837,-0.10895,-0.6096721,-2.573137,2.065649
46.99997,5.577786,360,166,509,497,-0.03327447,0.4397529,0.4221998,-1.250557,-2.970458,-0.7700924,-0.3040896,-0.3621691,-0.1020072,-0.6052875,-2.576199,2.070438
47.3333,5.588898,360,166,509,497,-0.0226267,0.4445595,0.4156722,-1.25051,-2.972849,-0.7628849,-0.2968305,-0.3800678,-0.1146698,-0.6007143,-2.580671,2.076871
47.66663,5.600009,360,166,509,497,-0.01064348,0.4553326,0.4132102,-1.250564,-2.975559,-0.7555947,-0.2977819,-0.3825595,-0.1300842,-0.5965044,-2.584922,2.083492
47.99996,5.61112,350,165,506,497,-0.0008782744,0.4619974,0.4065139,-1.250647,-2.978152,-0.7483051,-0.2944241,-0.3869272,-0.1295527,-0.5922828,-2.58846,2.089133
48.33329,5.622231,350,165,506,497,0.007349014,0.4659539,0.3973945,-1.250771,-2.980988,-0.7412397,-0.2925285,-0.3843846,-0.1174779,-0.5879359,-2.591973,2.09452
48.66663,5.633343,350,165,506,497,0.009114385,0.4621873,0.3931533,-1.250881,-2.983258,-0.7342469,-0.2889699,-0.3806586,-0.1010242,-0.5835252,-2.595057,2.099207
48.99996,5.644454,350,165,506,497,0.001639724,0.452474,0.3902327,-1.250725,-2.985324,-0.7275676,-0.2849036,-0.36439,-0.08036631,-0.5794,-2.597175,2.102912
49.33329,5.655565,350,165,506,497,-0.01817849,0.4420301,0.3840552,-1.249998,-2.987075,-0.7211148,-0.2861799,-0.3583451,-0.07682027,-0.5751868,-2.600153,2.107781
49.66662,5.666677,358,160,490,499,-0.04223368,0.4314027,0.3888076,-1.249058,-2.988356,-0.7143583,-0.2864044,-0.371842,-0.09058437,-0.5708896,-2.60467,2.114324
49.99995,5.677788,358,160,490,499,-0.07281619,0.429992,0.4010724,-1.247645,-2.989513,-0.7072983,-0.2922556,-0.3908219,-0.09306853,-0.5661396,-2.609136,2.120889
50.33329,5.688899,358,160,490,499,-0.08766741,0.4331859,0.4049219,-1.246496,-2.990911,-0.7002441,-0.2839239,-0.3876861,-0.08429183,-0.561886,-2.612855,2.126296
50.66662,5.70001,358,160,490,499,-0.09335524,0.4241202,0.3886541,-1.245468,-2.992391,-0.6939926,-0.2740487,-0.3686423,-0.07994415,-0.5581772,-2.615973,2.131174
50.99995,5.711122,358,160,490,499,-0.0855259,0.4119074,0.3684944,-1.24488,-2.993953,-0.6880037,-0.2720228,-0.3728369,-0.07189897,-0.5537532,-2.619637,2.136518
51.33328,5.722233,365,162,494,495,-0.0819115,0.4030002,0.3546353,-1.244143,-2.995447,-0.6821266,-0.2585828,-0.36405,-0.07763313,-0.5501686,-2.623488,2.14199
51.66661,5.733344,365,162,494,495,-0.08946565,0.3964646,0.3518644,-1.243149,-2.996605,-0.6760259,-0.2526678,-0.3730792,-0.09141327,-0.5463294,-2.628483,2.148796
51.99995,5.744455,365,162,494,495,-0.09311938,0.3946965,0.3490641,-1.242299,-2.997908,-0.6699512,-0.2471152,-0.371389,-0.1082836,-0.5428433,-2.633568,2.155916
52.33328,5.755567,365,162,494,495,-0.08578059,0.3901441,0.343153,-1.241794,-2.999443,-0.6641759,-0.2523264,-0.3709317,-0.09044662,-0.5388731,-2.637052,2.160908
52.66661,5.766678,399,164,489,495,-0.06630355,0.3946312,0.3417398,-1.241556,-3.001023,-0.6579792,-0.2589387,-0.3618771,-0.05268946,-0.5344405,-2.638987,2.164463
52.99994,5.777789,399,164,489,495,-0.05352223,0.3904024,0.3259712,-1.241453,-3.00274,-0.6525198,-0.2565924,-0.3639979,-0.04792266,-0.5303184,-2.64258,2.169626
53.33327,5.7889,399,164,489,495,-0.04139662,0.3895482,0.3246059,-1.24139,-3.004265,-0.6466193,-0.2573586,-0.3689129,-0.06685577,-0.5264888,-2.647306,2.176512
53.66661,5.800012,399,164,489,495,-0.03668168,0.3857984,0.3204084,-1.241232,-3.005758,-0.6409286,-0.2471041,-0.3625005,-0.08454734,-0.5228499,-2.652004,2.183072
53.99994,5.811123,399,164,489,495,-0.03055871,0.3787715,0.3095998,-1.24112,-3.007272,-0.6354926,-0.2374541,-0.3596281,-0.08465163,-0.5196168,-2.656489,2.189211
54.33327,5.822234,395,168,509,496,-0.03188476,0.3726533,0.297183,-1.240739,-3.008898,-0.6301295,-0.2311489,-0.36478,-0.07174677,-0.5156881,-2.660877,2.194978
54.6666,5.833345,395,168,509,496,-0.02861059,0.3728699,0.2939614,-1.240662,-3.010416,-0.6246024,-0.2221314,-0.3561304,-0.05949807,-0.5121445,-2.664589,2.199909
54.99994,5.844457,395,168,509,496,-0.02085388,0.3718404,0.2869508,-1.240661,-3.012236,-0.6192505,-0.213322,-0.3503059,-0.04405466,-0.5085109,-2.668186,2.204527
55.33327,5.855568,395,168,509,496,-0.0203754,0.3685374,0.2792917,-1.240531,-3.013727,-0.6138485,-0.2045319,-0.3540228,-0.06198023,-0.5053252,-2.673567,2.211448
55.6666,5.866679,388,169,505,496,-0.006976396,0.3680246,0.2739138,-1.240966,-3.01552,-0.6086335,-0.201884,-0.340358,-0.08824407,-0.5027547,-2.678516,2.218522
55.99993,5.87779,388,169,505,496,0.00721398,0.3690017,0.2701563,-1.241474,-3.01727,-0.6033258,-0.1970312,-0.3300538,-0.08953451,-0.4999829,-2.68296,2.224581
56.33326,5.888902,388,169,505,496,0.02526698,0.3862991,0.2650628,-1.24206,-3.019629,-0.5975356,-0.1837445,-0.3398257,-0.08717737,-0.4968026,-2.688237,2.231048
56.6666,5.900013,388,169,505,496,0.03737667,0.3919927,0.2544025,-1.242635,-3.022027,-0.5921086,-0.165553,-0.3399521,-0.1036311,-0.4943663,-2.694533,2.238574
56.99993,5.911124,388,169,505,496,0.04424578,0.3923846,0.2538666,-1.243215,-3.023949,-0.5866656,-0.1604289,-0.3326428,-0.1041103,-0.4917916,-2.699447,2.244974
57.33326,5.922235,384,167,483,496,0.03867331,0.4105986,0.2810673,-1.24372,-3.025705,-0.5802208,-0.1649688,-0.3214831,-0.09771835,-0.4891593,-2.703866,2.250917
57.66659,5.933347,384,167,483,496,0.03301477,0.4472419,0.3344663,-1.244307,-3.027273,-0.5720124,-0.1691501,-0.3170984,-0.07184568,-0.4859481,-2.707187,2.255557
57.99992,5.944458,384,167,483,496,0.01526967,0.4680482,0.3537322,-1.244252,-3.028996,-0.5642259,-0.1586874,-0.3158847,-0.06424247,-0.4831587,-2.711872,2.261156
58.33326,5.955569,384,167,483,496,0.04098931,0.4491365,0.3161734,-1.245251,-3.031367,-0.5590172,-0.160838,-0.3298192,-0.04771313,-0.4796625,-2.716761,2.266712
58.66659,5.966681,449,175,483,495,0.1074033,0.3883692,0.2271036,-1.24774,-3.034583,-0.5566875,-0.1531066,-0.3302517,-0.05033234,-0.4771,-2.721964,2.272726
58.99992,5.977792,449,175,483,495,0.1092384,0.3883051,0.2204573,-1.248826,-3.036854,-0.5515699,-0.1304372,-0.3149011,-0.06698092,-0.4752597,-2.727534,2.279075
59.33325,5.988903,449,175,483,495,0.07018501,0.3921051,0.2276068,-1.248583,-3.038516,-0.5458436,-0.1247652,-0.31753,-0.08445065,-0.4733268,-2.733806,2.286272
59.66658,6.000014,449,175,483,495,0.04857188,0.3862963,0.2286202,-1.248652,-3.040176,-0.540774,-0.1415931,-0.3175478,-0.06929433,-0.4702945,-2.738399,2.292207
59.99992,6.011126,449,175,483,495,0.03076538,0.3691847,0.2288817,-1.248695,-3.041342,-0.5360549,-0.1503049,-0.3101978,-0.04899339,-0.4672484,-2.742439,2.297274
60.33325,6.022237,443,171,500,498,0.009342134,0.3667372,0.2315449,-1.248327,-3.042528,-0.531029,-0.1655297,-0.3005636,-0.00957486,-0.4636398,-2.744426,2.300307
60.66658,6.033348,443,171,500,498,0.001049936,0.3719306,0.2277494,-1.248187,-3.044114,-0.5257895,-0.1660218,-0.3015977,-0.003381729,-0.4605138,-2.748418,2.305288
60.99991,6.044459,443,171,500,498,-0.0142653,0.3880941,0.2374572,-1.247735,-3.045611,-0.5200093,-0.1828656,-0.3304038,-0.01495989,-0.4567406,-2.754257,2.312922
61.33324,6.055571,443,171,500,498,-0.03227368,0.4077174,0.2492951,-1.247051,-3.047121,-0.5136886,-0.1914774,-0.3441546,-0.01979937,-0.453058,-2.76006,2.320301
61.66658,6.066682,443,171,500,498,-0.04439169,0.4136592,0.2527592,-1.246344,-3.04845,-0.5078132,-0.1902917,-0.3320307,-0.008723989,-0.4498186,-2.763556,2.325039
61.99991,6.077793,401,170,498,497,-0.03547195,0.4144876,0.2566998,-1.246292,-3.049793,-0.5020346,-0.1845153,-0.3221423,0.00326553,-0.4466174,-2.767075,2.32963
62.33324,6.088904,401,170,498,497,-0.007239223,0.3954831,0.2219348,-1.246903,-3.051743,-0.4977097,-0.1819661,-0.3225224,0.007539004,-0.4433077,-2.771446,2.335133
62.66657,6.100016,401,170,498,497,0.01016057,0.3842384,0.2002547,-1.247335,-3.053741,-0.4932728,-0.1780771,-0.3084734,0.0163527,-0.4403031,-2.774623,2.339389
62.9999,6.111127,401,170,498,497,0.02339166,0.3785976,0.2006326,-1.248086,-3.055318,-0.488395,-0.1644509,-0.2951138,0.02026072,-0.4377779,-2.777999,2.343315
63.33324,6.122238,377,166,490,498,0.02161962,0.3758234,0.2006544,-1.248234,-3.056883,-0.4835267,-0.1502463,-0.3003209,0.009566143,-0.4350881,-2.783256,2.349379
63.66657,6.133349,377,166,490,498,0.02082297,0.3787051,0.1997497,-1.248403,-3.058497,-0.4784113,-0.138573,-0.3137523,-0.009937346,-0.4326646,-2.790141,2.357024
63.9999,6.144461,377,166,490,498,0.02288708,0.3837196,0.1985937,-1.248711,-3.060369,-0.4733412,-0.1491323,-0.3537098,-0.03028032,-0.4292898,-2.798724,2.367152
64.33324,6.155572,377,166,490,498,0.02198398,0.3865502,0.1946083,-1.248892,-3.062135,-0.4682136,-0.1606244,-0.3696009,-0.02255157,-0.4255566,-2.804914,2.37484
64.66657,6.166683,377,166,490,498,0.02397493,0.4001664,0.2012892,-1.249208,-3.063963,-0.4625687,-0.1748852,-0.3518611,0.01113869,-0.421743,-2.807725,2.378923
64.99991,6.177794,372,180,468,497,0.03173664,0.4039569,0.1974009,-1.249721,-3.065807,-0.4572333,-0.1740931,-0.3315175,0.05071904,-0.418144,-2.809455,2.381135
65.33324,6.188906,372,180,468,497,0.02138889,0.4270163,0.2308098,-1.249959,-3.067053,-0.4505541,-0.1743554,-0.3485624,0.05951397,-0.4141562,-2.814932,2.387557
65.66658,6.200017,372,180,468,497,-0.02821821,0.4698029,0.2702339,-1.248666,-3.068077,-0.4425519,-0.1770341,-0.3608143,0.07387036,-0.4097604,-2.819873,2.393386
65.99992,6.211128,372,180,468,497,-0.05292797,0.4626294,0.2480772,-1.247369,-3.069502,-0.4369225,-0.1758226,-0.3998989,0.06608304,-0.4053028,-2.827966,2.402489
66.33325,6.222239,432,166,479,499,-0.04931802,0.4345466,0.2166581,-1.246806,-3.07104,-0.4323184,-0.1774649,-0.5020742,0.06471263,-0.399014,-2.841629,2.416958
66.66659,6.233351,432,166,479,499,-0.07437569,0.3924938,0.1693134,-1.245216,-3.072343,-0.4290555,-0.1682495,-0.528441,0.0914579,-0.3933031,-2.850777,2.426539
66.99992,6.244462,432,166,479,499,-0.1372758,0.381997,0.1588633,-1.242212,-3.072952,-0.4246091,-0.1651752,-0.5455031,0.1158207,-0.3873056,-2.860128,2.43616
67.33326,6.255573,432,166,479,499,-0.1937984,0.3807346,0.1627536,-1.238827,-3.073205,-0.4195166,-0.1660391,-0.555136,0.1396501,-0.3814824,-2.868161,2.444589
67.6666,6.266685,432,166,479,499,-0.2645313,0.3715535,0.158319,-1.234148,-3.072984,-0.4151213,-0.1701201,-0.5432535,0.1662818,-0.375502,-2.875127,2.451978
67.99993,6.277796,459,158,499,495,-0.3372959,0.3759109,0.156965,-1.228936,-3.072733,-0.4101465,-0.1775996,-0.5485295,0.1833018,-0.3693671,-2.88314,2.460773
68.33327,6.288907,459,158,499,495,-0.3687357,0.3940184,0.1535897,-1.224257,-3.073188,-0.404645,-0.177361,-0.5527428,0.1849729,-0.3634725,-2.892458,2.470736
68.6666,6.300018,459,158,499,495,-0.4293394,0.4315668,0.1767624,-1.218202,-3.072941,-0.3977367,-0.1829796,-0.5502164,0.1807292,-0.3579869,-2.901906,2.481233
68.99994,6.31113,459,158,499,495,-0.5510321,0.4592335,0.1814861,-1.209406,-3.071923,-0.3909536,-0.1950344,-0.5504364,0.200056,-0.3516406,-2.909941,2.490269
69.33327,6.322241,553,163,525,495,-0.595658,0.4493123,0.1649957,-1.201019,-3.071086,-0.3852555,-0.1834199,-0.5553868,0.2127065,-0.3453502,-2.919446,2.499999
69.66661,6.333352,553,163,525,495,-0.6327875,0.382271,0.1140401,-1.193306,-3.06978,-0.3828976,-0.1562914,-0.5429319,0.2143217,-0.3401395,-2.929109,2.509391
69.99995,6.344463,553,163,525,495,-0.6467838,0.3367373,0.07081944,-1.185515,-3.06885,-0.3803079,-0.1338908,-0.5376447,0.2075863,-0.3349852,-2.939721,2.519833
70.33328,6.355575,553,163,525,495,-0.6602286,0.3616835,0.06633589,-1.178065,-3.068749,-0.3750061,-0.1146165,-0.5424803,0.180467,-0.3306165,-2.95279,2.532781
70.66662,6.366686,553,163,525,495,-0.6508176,0.3821253,0.05629444,-1.171118,-3.069088,-0.369994,-0.107804,-0.5372779,0.1682899,-0.325956,-2.964739,2.544983
70.99995,6.377797,430,142,512,500,-0.5752017,0.3970412,0.0437589,-1.166651,-3.070682,-0.3650272,-0.1081717,-0.5274727,0.1668058,-0.3212784,-2.975878,2.556617
71.33329,6.388908,430,142,512,500,-0.4954035,0.4143144,0.03356856,-1.16295,-3.072836,-0.3598239,-0.09123167,-0.5149686,0.1674798,-0.3170813,-2.987772,2.568036
71.66663,6.40002,430,142,512,500,-0.4326837,0.4297112,0.03449333,-1.159457,-3.074776,-0.3545365,-0.08135065,-0.4947024,0.1623506,-0.3130354,-2.998117,2.578357
71.99996,6.411131,430,142,512,500,-0.3531134,0.4369866,0.05554193,-1.157391,-3.076498,-0.3490392,-0.06696063,-0.478019,0.1301256,-0.3101635,-3.011009,2.591355
72.3333,6.422242,430,142,512,500,-0.2540792,0.4407595,0.07939,-1.156914,-3.078815,-0.3433475,-0.05632347,-0.4582488,0.09864756,-0.3075397,-3.023266,2.603831
72.66663,6.433353,414,147,501,492,-0.136734,0.4557803,0.1033975,-1.157858,-3.081745,-0.3373607,-0.05525872,-0.4508749,0.0866155,-0.3047588,-3.036171,2.616864
72.99997,6.444465,414,147,501,492,-0.05686757,0.462882,0.1151592,-1.159017,-3.084886,-0.331237,-0.07278028,-0.4523883,0.09824124,-0.3008131,-3.04805,2.6295
73.33331,6.455576,414,147,501,492,0.02028522,0.4732661,0.1287208,-1.160666,-3.088115,-0.3249813,-0.07079235,-0.4327307,0.1224444,-0.2970937,-3.058486,2.639935
73.66664,6.466687,414,147,501,492,0.05246675,0.4716762,0.1315224,-1.161944,-3.091139,-0.3190424,-0.05951971,-0.428646,0.1080923,-0.2943096,-3.071102,2.652465
73.99998,6.477798,466,156,492,497,0.06880051,0.471139,0.1376038,-1.162882,-3.09363,-0.3133608,-0.0527145,-0.4280832,0.08043678,-0.2919821,-3.084891,2.666667
74.33331,6.48891,466,156,492,497,0.06869811,0.4616262,0.1353209,-1.163497,-3.096155,-0.3079328,-0.05495349,-0.4336261,0.04349312,-0.2901439,-3.100977,2.683671
74.66665,6.500021,466,156,492,497,0.07191941,0.4659544,0.1389995,-1.164284,-3.098816,-0.3019055,-0.05768612,-0.4286537,0.06493856,-0.2868778,-3.113442,2.696533
74.99998,6.511132,466,156,492,497,0.0779506,0.4744067,0.1364851,-1.165133,-3.101867,-0.2957264,-0.05029345,-0.4195955,0.07992168,-0.2839787,-3.126206,2.709217
75.33332,6.522243,466,156,492,497,0.07706246,0.4834975,0.1433464,-1.165926,-3.104566,-0.2892955,-0.04477343,-0.4397374,0.06591573,-0.2813821,3.140337,2.726185
75.66666,6.533355,527,226,481,491,0.0429534,0.5342519,0.1808113,-1.165714,-3.106616,-0.2809193,-0.05516624,-0.4509842,0.04229839,-0.2795557,3.12278,2.74488
75.99999,6.544466,527,226,481,491,0.01495934,0.5570414,0.1874084,-1.165355,-3.109021,-0.2730795,-0.06164929,-0.4579775,0.04196137,-0.2769949,3.106514,2.762041
76.33333,6.555577,527,226,481,491,0.0281899,0.5319998,0.1577189,-1.165794,-3.112029,-0.2674053,-0.06686193,-0.450261,0.06471671,-0.2739956,3.091866,2.777313
76.66666,6.566689,527,226,481,491,0.0440855,0.4887808,0.1261316,-1.166477,-3.114691,-0.2626516,-0.06526682,-0.4494438,0.08208069,-0.2708813,3.076797,2.79287
77,6.5778,512,235,498,494,0.03119653,0.467929,0.1128493,-1.166356,-3.117062,-0.2574446,-0.07092196,-0.4492628,0.09230073,-0.26789,3.060337,2.810114
77.33334,6.588911,512,235,498,494,-0.006103337,0.4580924,0.1036447,-1.165209,-3.118973,-0.2520485,-0.06747416,-0.4384054,0.07636578,-0.2660173,3.046072,2.825177
77.66667,6.600022,512,235,498,494,-0.05148232,0.4513619,0.1008098,-1.163506,-3.120673,-0.2468314,-0.05830351,-0.4335948,0.03765887,-0.2651592,3.0293,2.842817
78.00001,6.611134,512,235,498,494,-0.06863248,0.4612666,0.09351387,-1.162321,-3.122803,-0.2409245,-0.05839372,-0.4425599,0.04324158,-0.2628753,3.01186,2.861271
78.33334,6.622245,512,235,498,494,-0.06066355,0.4721231,0.09167187,-1.161749,-3.1253,-0.2347838,-0.06337917,-0.4689519,0.0786895,-0.2594888,2.992379,2.88149
78.66668,6.633356,520,211,459,495,-0.06436715,0.4808601,0.08381036,-1.160849,-3.127888,-0.2287655,-0.05183136,-0.5020303,0.08462407,-0.2567676,2.969801,2.904588
79.00002,6.644467,520,211,459,495,-0.06850281,0.4878835,0.08373889,-1.159923,-3.130267,-0.2225641,-0.0726451,-0.5115498,0.0948398,-0.2538877,2.949381,2.926491
79.33335,6.655579,520,211,459,495,-0.08427557,0.4900286,0.08744887,-1.158544,-3.132073,-0.2165933,-0.06480393,-0.4855992,0.09602928,-0.2516741,2.93322,2.943426
79.66669,6.66669,520,211,459,495,-0.099906,0.4893078,0.09541483,-1.157155,-3.133641,-0.2105383,-0.05045575,-0.4740347,0.09020518,-0.2499419,2.914739,2.962298
80.00002,6.677801,520,211,459,495,-0.09907892,0.4953485,0.09245834,-1.15624,-3.135798,-0.2043486,-0.03962591,-0.4753977,0.07887992,-0.2482002,2.894901,2.982778
80.33336,6.688912,542,196,490,500,-0.09904251,0.5025519,0.08352299,-1.154897,-3.138287,-0.1979155,-0.03237611,-0.4765736,0.06425449,-0.2469006,2.874249,3.004112
80.66669,6.700024,542,196,490,500,-0.09785569,0.5038146,0.07593408,-1.153557,-3.140821,-0.1915553,-0.02113694,-0.4619416,0.02636656,-0.2467983,2.854811,3.024226
81.00003,6.711135,542,196,490,500,-0.09023979,0.4999439,0.0783268,-1.152872,3.140364,-0.1857576,-0.01489636,-0.4649479,0.03466038,-0.2456484,2.835574,3.043982
81.33337,6.722246,542,196,490,500,-0.06637758,0.4985733,0.08589998,-1.152759,3.138197,-0.1795722,0.001718432,-0.474766,0.03788909,-0.2447908,2.81336,3.066284
81.6667,6.733357,431,245,506,492,-0.04080063,0.4965577,0.09116203,-1.152996,3.135844,-0.1737345,0.005581826,-0.4754948,0.03766169,-0.243904,2.792529,3.087597
82.00004,6.744469,431,245,506,492,-0.01059449,0.5027382,0.09888227,-1.153748,3.133332,-0.1672902,-0.002205849,-0.46814,0.0520386,-0.242664,2.7726,3.108156
82.33337,6.75558,431,245,506,492,0.0105651,0.503762,0.1038719,-1.154541,3.130894,-0.1611223,0.001757354,-0.4557044,0.05074202,-0.241937,2.753268,3.127911
82.66671,6.766691,431,245,506,492,0.04750973,0.5060283,0.1158767,-1.156272,3.12845,-0.1545821,0.006094545,-0.4494436,0.0363885,-0.2419003,2.73366,-3.135127
83.00005,6.777802,431,245,506,492,0.05950138,0.5041476,0.1143339,-1.157292,3.125924,-0.1484686,0.004734129,-0.4452772,0.02835754,-0.2418731,2.714151,-3.11498
83.33338,6.788914,424,245,492,498,0.08100688,0.5032538,0.1183375,-1.158871,3.123585,-0.1421803,0.001494646,-0.4406635,0.01776126,-0.2420941,2.695114,-3.095134
83.66672,6.800025,424,245,492,498,0.1110726,0.4992591,0.1239065,-1.161168,3.121069,-0.1361653,0.009596139,-0.4421512,0.004357934,-0.2426161,2.675337,-3.074731
84.00005,6.811136,424,245,492,498,0.1310487,0.4951815,0.1220258,-1.163192,3.118619,-0.1303117,0.0112007,-0.4461955,0.01132055,-0.2424371,2.655319,-3.054031
84.33339,6.822248,424,245,492,498,0.1320947,0.4853427,0.1131618,-1.164808,3.116122,-0.1246173,0.02075416,-0.4204403,0.0003013313,-0.2431471,2.639052,-3.037536
84.66673,6.833359,545,272,454,497,0.1173212,0.4796906,0.1118667,-1.165749,3.114241,-0.1190795,0.0202114,-0.4013412,-0.03901239,-0.2449858,2.624922,-3.022473
85.00006,6.84447,545,272,454,497,0.1078179,0.4695099,0.1117779,-1.166895,3.112374,-0.1135524,0.04962343,-0.4333373,-0.08596752,-0.2482631,2.603828,-3.001158
85.3334,6.855581,545,272,454,497,0.1052277,0.4649211,0.1104986,-1.168316,3.110447,-0.1080333,0.03609639,-0.4522346,-0.0191116,-0.2474588,2.580825,-2.977556
85.66673,6.866693,545,272,454,497,0.1096851,0.4572713,0.1082435,-1.169904,3.108462,-0.1024688,0.03451747,-0.4321018,-0.02052969,-0.2484782,2.564438,-2.960649
86.00007,6.877804,545,272,454,497,0.09728456,0.4578505,0.09852734,-1.17077,3.106368,-0.09709246,0.02669737,-0.4398283,-0.01001139,-0.2491355,2.544689,-2.940067
86.3334,6.888915,541,350,535,495,0.07746944,0.4572352,0.09099007,-1.171158,3.104503,-0.09151793,0.01130646,-0.423872,0.005546927,-0.2494434,2.528088,-2.922511
86.66674,6.900026,541,350,535,495,0.05995658,0.4494079,0.09392404,-1.171703,3.102982,-0.0862795,0.004445493,-0.399069,0.01405349,-0.2498365,2.513525,-2.90718
87.00008,6.911138,541,350,535,495,0.06439626,0.4507717,0.09090432,-1.172695,3.101178,-0.0809276,-0.006077677,-0.39112,0.004718229,-0.2509252,2.499166,-2.891747
87.33341,6.922249,541,350,535,495,0.07027128,0.4564522,0.07676737,-1.173599,3.098766,-0.07522045,-0.01120377,-0.4005321,-0.002347082,-0.2522376,2.482388,-2.873732
87.66675,6.93336,541,350,535,495,0.07479414,0.4676835,0.07004414,-1.17464,3.096481,-0.06938387,-0.002782613,-0.4123536,0.009232,-0.253249,2.463242,-2.853871
88.00008,6.944471,541,350,535,495,0.05486971,0.4718354,0.05936534,-1.17471,3.09435,-0.06351586,0.02005219,-0.4019164,0.01212536,-0.2544278,2.44689,-2.837496
88.33342,6.955583,541,350,535,495,0.03212452,0.4693699,0.05692292,-1.174485,3.092591,-0.05813787,0.02646565,-0.3857996,-0.008366182,-0.2561482,2.433912,-2.82392
88.66676,6.966694,541,350,535,495,0.02086517,0.4710256,0.06001037,-1.174603,3.09096,-0.05239024,0.03778324,-0.3944686,-0.01924101,-0.2582414,2.417823,-2.807427
89.00009,6.977805,541,350,535,495,0.02492806,0.4775124,0.05799941,-1.175098,3.088707,-0.04645512,0.0442484,-0.394942,-0.01913838,-0.2598958,2.402629,-2.791501
89.33343,6.988916,541,350,535,495,0.05596879,0.4876197,0.06295618,-1.176733,3.086418,-0.04017005,0.05937088,-0.3899596,0.0004322678,-0.2609892,2.385954,-2.775022
89.66676,7.000028,541,350,535,495,0.1186701,0.496903,0.08697364,-1.179976,3.084309,-0.03414119,0.06735468,-0.416092,0.03203565,-0.2620652,2.36528,-2.754318
90.0001,7.011139,541,350,535,495,0.1959708,0.5246677,0.1078862,-1.184271,3.081678,-0.02698261,0.04784015,-0.4354552,0.05757086,-0.2628657,2.345533,-2.733334
90.0001,7.02225,541,350,535,495,0.2442886,0.5399655,0.1245732,-1.188603,3.079268,-0.02002058,0.04119,-0.4409344,0.07088785,-0.2639001,2.326783,-2.713847
90.0001,7.033361,541,350,535,495,0.2548959,0.548481,0.1325594,-1.191823,3.077127,-0.01336055,0.06467384,-0.4437945,0.04195565,-0.2665617,2.310351,-2.697587
90.0001,7.044473,709,352,504,481,0.2300188,0.5656559,0.1313983,-1.194173,3.075229,-0.006045908,0.09120134,-0.4329629,0.009860173,-0.2695726,2.29557,-2.683128
90.0001,7.055584,709,352,504,481,0.2040058,0.5757568,0.1182541,-1.195927,3.07291,0.0008154599,0.09143358,-0.4376031,-0.02202,-0.2728845,2.281182,-2.668229
90.0001,7.066695,709,352,504,481,0.1552786,0.5845389,0.08997864,-1.196522,3.070525,0.008044344,0.1036875,-0.4423843,-0.02144837,-0.2754683,2.264568,-2.651679
90.0001,7.077806,709,352,504,481,0.1185898,0.5896996,0.06336522,-1.196772,3.067986,0.01499413,0.1146976,-0.4415476,0.001233965,-0.2776351,2.247537,-2.634953
90.0001,7.088918,668,366,515,494,0.05273265,0.5880446,0.0240682,-1.195424,3.065197,0.02169411,0.1213663,-0.4264797,0.01981597,-0.2793555,2.231793,-2.619628
90.0001,7.100029,668,366,515,494,-0.01120025,0.5851012,-0.008418238,-1.193382,3.062672,0.02862685,0.1063802,-0.4242145,0.009759605,-0.2819377,2.218145,-2.605445
90.0001,7.11114,668,366,515,494,-0.05901724,0.5718461,-0.03756069,-1.191236,3.059833,0.03467755,0.1005626,-0.4275238,0.0008780509,-0.2848192,2.204127,-2.590809
90.0001,7.122252,668,366,515,494,-0.07275832,0.5347075,-0.07190664,-1.189708,3.057018,0.04015408,0.09940925,-0.4359747,0.02675287,-0.2868715,2.18752,-2.573957
90.0001,7.133363,668,366,515,494,-0.07703274,0.5324016,-0.07789995,-1.188568,3.053875,0.04617975,0.1045149,-0.4272935,0.04418011,-0.2887559,2.172081,-2.558521
90.0001,7.144474,638,357,504,510,-0.07910359,0.5430881,-0.07107553,-1.187582,3.05151,0.05305816,0.1143033,-0.4299068,0.05262376,-0.2910095,2.156086,-2.542687
90.0001,7.155585,638,357,504,510,-0.08504236,0.5494262,-0.06623291,-1.186653,3.048985,0.05932618,0.1081074,-0.4317028,0.05339076,-0.2934606,2.141502,-2.527737
90.0001,7.166697,638,357,504,510,-0.09570622,0.5480611,-0.0714975,-1.185177,3.046627,0.06591004,0.1021016,-0.4240765,0.05501169,-0.295581,2.127642,-2.513361
90.0001,7.177808,638,357,504,510,-0.1133453,0.5411999,-0.08421902,-1.183155,3.043649,0.0719469,0.1038545,-0.4090158,0.02820359,-0.2985979,2.117257,-2.502809
90.0001,7.188919,650,379,526,502,-0.1269943,0.5212007,-0.09967969,-1.18128,3.041043,0.07722741,0.09996894,-0.3880536,0.004013158,-0.3014405,2.108228,-2.493489
90.0001,7.20003,650,379,526,502,-0.142968,0.4874175,-0.1073704,-1.179027,3.039058,0.08216065,0.09083647,-0.3516821,0.0002245381,-0.3034784,2.100769,-2.485815
90.0001,7.211142,650,379,526,502,-0.1462275,0.4527494,-0.116513,-1.17709,3.037046,0.08673277,0.08237341,-0.2963164,0.03085695,-0.3040052,2.092621,-2.477865
90.0001,7.222253,650,379,526,502,-0.1554326,0.3801771,-0.1123849,-1.174907,3.035995,0.08922122,0.07890818,-0.2597022,0.06237195,-0.3042315,2.084096,-2.469698
90.0001,7.233364,650,379,526,502,-0.1547078,0.32728,-0.1050462,-1.17313,3.035136,0.09212567,0.06641047,-0.2134068,0.08980615,-0.3038683,2.076261,-2.462145
90.0001,7.244475,660,390,455,482,-0.1500769,0.2970755,-0.09223211,-1.171511,3.034253,0.09492785,0.06682079,-0.2003629,0.09036462,-0.304451,2.068969,-2.45513
90.0001,7.255587,660,390,455,482,-0.1388897,0.2522782,-0.07079945,-1.170372,3.034127,0.09680271,0.06851315,-0.1918989,0.08263353,-0.3056254,2.062072,-2.448365
90.0001,7.266698,660,390,455,482,-0.1161444,0.2201052,-0.05125752,-1.169843,3.033833,0.098758,0.06820281,-0.1687276,0.06037673,-0.3065757,2.05827,-2.444763
90.0001,7.277809,660,390,455,482,-0.1007671,0.2043418,-0.03441509,-1.169267,3.03355,0.1007687,0.07143554,-0.1442487,0.05205345,-0.3071775,2.054464,-2.441525
90.0001,7.28892,667,400,492,498,-0.08206014,0.1907161,-0.0148735,-1.169006,3.033641,0.1026542,0.06608298,-0.1137346,0.03353591,-0.3076894,2.052748,-2.439949
90.0001,7.300032,667,400,492,498,-0.03855892,0.1623338,0.008722199,-1.169992,3.033704,0.1036912,0.0420293,-0.1116562,-0.02081857,-0.3095829,2.053924,-2.440428
90.0001,7.311143,667,400,492,498,0.009557165,0.1302385,0.02843057,-1.171529,3.033896,0.1043554,0.01120669,-0.1285918,-0.06080071,-0.3117683,2.053448,-2.438342
90.0001,7.322254,667,400,492,498,0.04635913,0.09813763,0.05356752,-1.173349,3.034433,0.1045046,0.003972411,-0.1179174,-0.06043147,-0.3128282,2.05292,-2.437247
90.0001,7.333365,667,400,492,498,0.07033767,0.0801984,0.06824094,-1.174996,3.035008,0.1048545,0.01565202,-0.1092392,-0.02719858,-0.3131334,2.047857,-2.432418
90.0001,7.344477,648,374,444,497,0.09167013,0.05543361,0.1065985,-1.177361,3.036601,0.1044753,0.01021086,-0.0840584,0.00247355,-0.3128532,2.045053,-2.429379
90.0001,7.355588,648,374,444,497,0.1067343,0.03621993,0.1247851,-1.179418,3.037993,0.1041157,0.007681567,-0.0511942,-8.061714E-05,-0.3126248,2.045572,-2.430019
90.0001,7.366699,648,374,444,497,0.1112422,0.01965559,0.1309153,-1.181275,3.039144,0.1036556,-0.0007575061,-0.01264428,-0.01803861,-0.3127648,2.048229,-2.432366
90.0001,7.37781,648,374,444,497,0.1473508,-0.01587022,0.1512421,-1.184379,3.040824,0.1022292,-0.008440997,-0.005559609,-0.03571979,-0.3132144,2.050681,-2.43448
90.0001,7.388922,648,374,444,497,0.1697866,-0.02860083,0.1574774,-1.187149,3.042101,0.1014547,-0.01102185,-0.03355245,-0.06665001,-0.3150722,2.051582,-2.434506
90.0001,7.400033,589,331,508,509,0.1840414,-0.02990223,0.1534328,-1.190007,3.042874,0.100871,-0.01844709,-0.01900162,-0.04195807,-0.314767,2.051917,-2.434494
90.0001,7.411144,589,331,508,509,0.178119,-0.02568741,0.1463608,-1.192104,3.043903,0.1004896,-0.01469152,-0.000527462,-0.0201921,-0.3142935,2.052041,-2.434701
90.0001,7.422256,589,331,508,509,0.140016,-0.02630324,0.1393273,-1.193157,3.045108,0.1000182,-0.009179519,0.01516882,-0.01850423,-0.3140692,2.053573,-2.436439
90.0001,7.433367,589,331,508,509,0.1179055,-0.03375594,0.1292989,-1.194329,3.046355,0.0992379,-0.01797309,0.04981633,-0.03954981,-0.3139057,2.059131,-2.441867
90.0001,7.444478,577,322,495,493,0.0906032,-0.05499121,0.1134573,-1.194797,3.047422,0.09788076,-0.03059933,0.06381373,-0.07809033,-0.3144171,2.065775,-2.447852
90.0001,7.455589,577,322,495,493,0.08437613,-0.07547881,0.09828594,-1.195782,3.048357,0.09625303,-0.0334387,0.05896048,-0.05882031,-0.3141294,2.067945,-2.449717
90.0001,7.466701,577,322,495,493,0.08379197,-0.07619558,0.08763351,-1.196851,3.048947,0.09525328,-0.01765293,0.0539829,-0.03117886,-0.3135931,2.066921,-2.449091
90.0001,7.477812,577,322,495,493,0.07373285,-0.06168985,0.06896946,-1.197488,3.049285,0.09495021,-0.01693002,0.04140858,-0.01141155,-0.3131792,2.066336,-2.448439
90.0001,7.488923,577,322,495,493,0.06036743,-0.05200424,0.06686349,-1.197969,3.050007,0.09449002,-0.02054951,0.04317425,0.006507267,-0.3124378,2.066689,-2.448607
90.0001,7.500034,509,259,476,498,0.03393248,-0.04184237,0.0599006,-1.197784,3.050642,0.09425353,-0.01790753,0.05022651,0.005278188,-0.3119073,2.068285,-2.450327
90.0001,7.511146,509,259,476,498,0.01292869,-0.04899538,0.0497903,-1.197497,3.051423,0.093494,-0.02300617,0.05180719,-0.006779418,-0.311764,2.071321,-2.453095
90.0001,7.522257,509,259,476,498,0.01426536,-0.05408137,0.04003991,-1.197784,3.051945,0.09248412,-0.03674015,0.05721509,-0.0247621,-0.3116245,2.075518,-2.456681
90.0001,7.533368,509,259,476,498,0.01406053,-0.04875511,0.02812598,-1.197951,3.052127,0.09211874,-0.04130617,0.05666105,-0.01856612,-0.3110822,2.077469,-2.458238
90.0001,7.544479,520,298,521,502,0.01134945,-0.04611918,0.01656407,-1.197934,3.052116,0.09167027,-0.04057886,0.04945996,-0.007566147,-0.3105715,2.078136,-2.458645
90.0001,7.555591,520,298,521,502,0.008856047,-0.04544681,0.0168048,-1.198057,3.052602,0.09110248,-0.04286174,0.02819243,0.008137112,-0.3102615,2.076495,-2.456586
90.0001,7.566702,520,298,521,502,0.01197466,-0.04701938,0.0202116,-1.198342,3.053007,0.09046651,-0.04081659,0.01624422,0.008707076,-0.3101326,2.076817,-2.456542
90.0001,7.577813,520,298,521,502,0.01410235,-0.03832011,0.01798088,-1.198719,3.053291,0.09028809,-0.03336189,0.01765259,0.01328853,-0.3097405,2.076894,-2.456541
90.0001,7.588924,520,298,521,502,0.02028511,-0.02781177,0.01952226,-1.199217,3.053559,0.090148,-0.01806691,0.04571111,0.009721274,-0.3090455,2.079715,-2.460072
90.0001,7.600036,506,261,488,500,0.04109852,-0.02522402,0.02534405,-1.200314,3.053662,0.08988275,-0.02023448,0.05236614,-0.01841545,-0.3091712,2.083705,-2.463915
90.0001,7.611147,506,261,488,500,0.06554157,-0.02097017,0.0309042,-1.201709,3.053798,0.08960046,-0.02045172,0.04585907,-0.02671945,-0.3093027,2.085281,-2.465186
90.0001,7.622258,506,261,488,500,0.07518789,-0.02080738,0.03541861,-1.202921,3.053968,0.08930112,-0.01259189,0.04143368,-0.02400763,-0.3093027,2.086451,-2.466491
90.0001,7.633369,506,261,488,500,0.08425465,-0.02327615,0.04123723,-1.204109,3.054259,0.08912801,0.0004331917,0.03773719,-0.01036875,-0.3089112,2.08664,-2.467171
90.0001,7.644481,506,261,488,500,0.0860322,-0.02824778,0.05257411,-1.205243,3.055008,0.08857727,0.003119379,0.03554382,0.01014838,-0.3081389,2.086213,-2.467004
90.0001,7.655592,523,262,510,492,0.0792169,-0.02032122,0.05678366,-1.20628,3.055586,0.08842228,0.01760695,0.03560288,-0.001885721,-0.3082833,2.087238,-2.468652
90.0001,7.666703,523,262,510,492,0.07155266,-0.01708773,0.05296751,-1.206914,3.055957,0.0882742,-0.002729628,0.03129464,-0.03375041,-0.3086849,2.090497,-2.471544
90.0001,7.677814,523,262,510,492,0.06218313,-0.01548179,0.05029698,-1.207413,3.056307,0.08806008,-0.02462929,0.02808477,-0.03591736,-0.3086982,2.093262,-2.473198
90.0001,7.688926,523,262,510,492,0.04350387,-0.01655338,0.0400073,-1.207483,3.056636,0.08763504,-0.03776575,0.02626268,-0.006646873,-0.3076335,2.092901,-2.472218
90.0001,7.700037,558,298,498,502,0.02623826,-0.02109701,0.02681674,-1.207265,3.056742,0.08725262,-0.0216764,0.01022546,0.01299894,-0.3073586,2.090733,-2.4702
90.0001,7.711148,558,298,498,502,0.01588624,-0.02625618,0.02398817,-1.207262,3.057195,0.08680361,-0.01844463,0.01069105,0.01529589,-0.3070177,2.090847,-2.470316
90.0001,7.72226,558,298,498,502,0.01729249,-0.02257065,0.02338165,-1.207557,3.057398,0.08660866,-0.01348281,0.02587766,-0.02239201,-0.3075387,2.095207,-2.474708
90.0001,7.733371,558,298,498,502,0.02003684,-0.01811145,0.02488547,-1.207867,3.057634,0.08674555,-0.01922053,0.03006826,-0.04425012,-0.3079711,2.099197,-2.478256
90.0001,7.744482,558,298,498,502,0.02944347,-0.01296445,0.02723278,-1.208475,3.057872,0.08672851,-0.0224128,0.02231363,-0.05056629,-0.3082961,2.100909,-2.479543
90.0001,7.755593,497,290,528,497,0.0472871,-0.01236879,0.03438862,-1.209735,3.058314,0.08643343,-0.02975683,0.01821285,-0.02520299,-0.307831,2.100957,-2.479179
90.0001,7.766705,497,290,528,497,0.06485308,-0.005922142,0.04445408,-1.211165,3.05881,0.08628535,-0.02279582,0.01431593,-0.007562183,-0.3074619,2.100292,-2.47846
90.0001,7.777816,497,290,528,497,0.06863205,-0.008632198,0.04401318,-1.212043,3.058955,0.08613621,-0.01050247,0.009217189,0.008282606,-0.3071253,2.098888,-2.477316
90.0001,7.788927,497,290,528,497,0.06703205,-0.009494502,0.05512205,-1.212828,3.059556,0.08598548,0.001557254,0.01184021,-0.0007352754,-0.3072366,2.099859,-2.478599
90.0001,7.800038,518,280,469,491,0.06583393,-0.01081711,0.05527974,-1.213708,3.059954,0.08576284,-0.006012115,0.01334516,-0.03326583,-0.3079493,2.103134,-2.48153
90.0001,7.81115,518,280,469,491,0.0671594,-0.006546339,0.05229402,-1.214622,3.060242,0.08575272,-0.01437622,0.007407734,-0.04743821,-0.3084809,2.105624,-2.483568
90.0001,7.822261,518,280,469,491,0.06615931,0.003225852,0.04392647,-1.215388,3.060156,0.08606431,-0.02162129,0.007009742,-0.03824982,-0.3084569,2.106655,-2.484188
90.0001,7.833372,518,280,469,491,0.06274802,0.006390123,0.03846721,-1.215963,3.060054,0.08636578,-0.02818511,-0.006983979,-0.008185687,-0.307887,2.10428,-2.481398
90.0001,7.844483,518,280,469,491,0.05041179,0.005047919,0.03730061,-1.216245,3.060417,0.08638549,-0.02200003,-0.01524593,0.02027512,-0.3073336,2.10121,-2.478277
90.0001,7.855595,534,279,469,491,0.0350444,0.004220903,0.03250507,-1.216307,3.060652,0.08638283,-0.003084553,-0.00293378,0.02197062,-0.3070475,2.100732,-2.478589
90.0001,7.866706,534,279,469,491,0.01909778,0.007492913,0.02875614,-1.215962,3.06085,0.08662517,-0.005067288,-0.001738299,-0.0006144249,-0.3074492,2.102667,-2.480375
90.0001,7.877817,534,279,469,491,-0.01034503,0.01297774,0.01347417,-1.214964,3.06082,0.08696872,-0.003483068,0.008388371,-0.0372075,-0.3082865,2.106567,-2.484183
90.0001,7.888928,534,279,469,491,-0.02163615,0.01319706,0.002308089,-1.214453,3.060779,0.08724516,-0.002432748,-0.0009150375,-0.04321083,-0.3087866,2.107279,-2.484735
90.0001,7.90004,467,263,461,496,-0.02562234,0.01370018,-0.001799292,-1.214035,3.060736,0.0874401,-0.0118261,-0.002788749,-0.02341298,-0.3085709,2.10705,-2.484177
90.0001,7.911151,467,263,461,496,-0.0221005,0.01166442,-0.009362729,-1.213714,3.060587,0.08754449,-0.01221937,-0.007046987,0.004495926,-0.3080122,2.104999,-2.482102
90.0001,7.922262,467,263,461,496,-0.0116739,0.007046034,0.00126409,-1.213975,3.060877,0.08753917,-0.01123277,-0.006906591,0.03659789,-0.3070284,2.102075,-2.479231
90.0001,7.933373,467,263,461,496,-0.01062349,0.003574735,0.006741127,-1.213973,3.061118,0.08744755,-0.007607468,-0.002923589,0.01743,-0.3073086,2.103452,-2.480603
90.0001,7.944485,467,263,461,496,-0.004247644,0.006314491,0.008083732,-1.214115,3.061189,0.08763611,-0.00346698,-0.001657762,-0.01121011,-0.3078657,2.105701,-2.482905
90.0001,7.955596,464,349,460,493,0.003895145,0.007190294,0.01329452,-1.214461,3.061371,0.08765315,-0.001278439,-0.001951391,-0.03136209,-0.3085645,2.1074,-2.484532
90.0001,7.966707,464,349,460,493,0.008764723,0.01020144,0.01280036,-1.21469,3.061296,0.0880196,-0.001945163,0.002283481,-0.0336947,-0.3087994,2.108712,-2.485786
90.0001,7.977818,464,349,460,493,0.03065539,0.01274777,0.01868024,-1.215701,3.061285,0.08821721,-0.006502843,0.01409018,-0.0002147933,-0.3075493,2.107864,-2.484992
90.0001,7.98893,464,349,460,493,0.04603569,0.01021198,0.02360935,-1.216739,3.061326,0.08818579,-0.00729572,0.01702192,0.01458165,-0.3069219,2.107738,-2.485016
90.0001,8.000041,464,349,460,493,0.05907452,0.01454823,0.03080191,-1.217873,3.061404,0.08844038,-0.01376754,0.01928949,0.004498812,-0.306745,2.109066,-2.486116
90.0001,8.011152,454,305,494,498,0.07127585,0.01065727,0.03501781,-1.219043,3.061404,0.08854371,-0.01350505,0.01984223,-0.007258185,-0.3068366,2.110879,-2.48777
90.0001,8.022264,454,305,494,498,0.07500205,0.005957797,0.0424293,-1.220096,3.061765,0.08842494,-0.001498969,0.01594299,-0.02561266,-0.3074811,2.112391,-2.489491
