ref,t,emg1,emg2,emg1raw,emg2raw,aDotS,bDotS,gDotS,aS,bS,gS,aDotSH,bDotSH,gDotSH,aSH,bSH,gSH
17.00022,0,285,176,499,498,0.2795117,-0.1518608,0.06701282,-1.35841,-2.872147,-1.532836,0.03814293,0.01649556,-0.140379,-0.7737117,-2.471908,1.290239
17.00022,0.01111111,285,176,499,498,0.3145785,-0.1304138,0.06273399,-1.358976,-2.871184,-1.537434,0.04874808,0.03142489,-0.1457582,-0.7756153,-2.471577,1.289179
17.00022,0.02222222,285,176,499,498,0.3497092,-0.1312581,0.0734811,-1.36019,-2.869708,-1.542421,0.06903154,0.04422189,-0.1362782,-0.7769378,-2.470894,1.287385
17.00022,0.03333334,285,176,499,498,0.3496367,-0.1205579,0.08408625,-1.361366,-2.868578,-1.54655,0.06802477,0.03143114,-0.1288253,-0.7781006,-2.471356,1.286981
17.00022,0.04444445,285,176,499,498,0.3549197,-0.1141134,0.09046113,-1.362524,-2.867435,-1.55089,0.07343018,0.01757828,-0.117166,-0.7792425,-2.472135,1.286711
17.00022,0.05555556,285,176,499,498,0.3601659,-0.10555,0.09896022,-1.363833,-2.866093,-1.554955,0.06921921,0.01437219,-0.1086164,-0.780188,-2.472314,1.286234
17.00022,0.06666667,285,176,499,498,0.3633424,-0.1086902,0.1085779,-1.365322,-2.864693,-1.559171,0.06385083,0.01223435,-0.1160524,-0.7817656,-2.47297,1.286112
17.00022,0.07777778,285,176,499,498,0.3612477,-0.1203733,0.1182075,-1.366781,-2.863062,-1.56351,0.05956693,0.01542857,-0.1192195,-0.7831925,-2.473181,1.285723
17.00022,0.08888889,285,176,499,498,0.3580276,-0.1225553,0.1139354,-1.367732,-2.86141,-1.567128,0.06803805,0.0420786,-0.1224349,-0.7848054,-2.471898,1.283896
17.00022,0.1,285,176,499,498,0.3516002,-0.1214753,0.1245517,-1.369189,-2.860024,-1.57106,0.06689452,0.05167358,-0.1330734,-0.7867314,-2.47149,1.282924
17.00022,0.1111111,285,176,499,498,0.3419815,-0.1193458,0.1341085,-1.370945,-2.858719,-1.574872,0.06581978,0.06125303,-0.1330536,-0.7883319,-2.47094,1.281886
17.00022,0.1222222,285,176,499,498,0.3280457,-0.1023386,0.1393256,-1.37257,-2.858075,-1.578315,0.07219529,0.05806908,-0.1362926,-0.7900049,-2.470818,1.280825
17.00022,0.1333333,285,176,499,498,0.3098132,-0.07580892,0.1370215,-1.37384,-2.857836,-1.581235,0.0699288,0.0378474,-0.1618631,-0.7923325,-2.471939,1.2809
17.00022,0.1444445,285,176,499,498,0.3117706,-0.05129942,0.1402242,-1.375446,-2.857507,-1.584774,0.06128717,0.02081008,-0.1820673,-0.7947602,-2.473279,1.281592
17.00022,0.1555556,285,176,499,498,0.3288092,-0.04158897,0.1465017,-1.377303,-2.857677,-1.588878,0.06335561,0.004843369,-0.194877,-0.797058,-2.474868,1.281946
17.00022,0.1666667,155,328,497,487,0.3436277,-0.02020856,0.1506957,-1.378993,-2.857853,-1.593266,0.07827126,0.002730951,-0.1939083,-0.7991241,-2.475578,1.281201
17.00022,0.1777778,155,328,497,487,0.3468115,-0.01805871,0.1517585,-1.380712,-2.857764,-1.597207,0.07832133,0.00485456,-0.1853844,-0.8008828,-2.476135,1.280713
17.00022,0.1888889,155,328,497,487,0.3328886,-0.001079628,0.1505884,-1.382355,-2.858294,-1.600387,0.0761966,0.01017709,-0.1832383,-0.8028589,-2.47655,1.280292
17.00022,0.2,155,328,497,487,0.3147422,0.005240648,0.1537111,-1.384092,-2.858526,-1.603331,0.07515816,0.009104565,-0.177909,-0.8046927,-2.477237,1.280061
17.00022,0.2111111,148,340,500,495,0.2923382,0.01470398,0.1514764,-1.385523,-2.858845,-1.605955,0.06348276,0.01973446,-0.1693026,-0.8063263,-2.477318,1.279675
17.00022,0.2222222,148,340,500,495,0.3019946,-0.0001613165,0.1536913,-1.38725,-2.858418,-1.609806,0.06352352,0.01439944,-0.1629259,-0.8080718,-2.478067,1.279533
17.00022,0.2333333,148,340,500,495,0.3233142,0.002018554,0.143076,-1.388517,-2.85862,-1.613915,0.07637313,0.006947532,-0.1534229,-0.8094273,-2.478781,1.278859
17.00022,0.2444444,148,340,500,495,0.3467655,-0.001061475,0.1473845,-1.390074,-2.858487,-1.618475,0.08808483,0.002699748,-0.1534984,-0.8110614,-2.479503,1.278184
17.00022,0.2555556,148,340,500,495,0.3477995,0.005339745,0.1484237,-1.391736,-2.85878,-1.622304,0.09771574,-0.007947788,-0.1482395,-0.8123717,-2.480628,1.277595
17.00022,0.2666667,144,336,501,507,0.3478471,-0.01162887,0.1655412,-1.393956,-2.858341,-1.626274,0.0988461,-0.0132876,-0.1375848,-0.8133283,-2.481496,1.27717
17.00022,0.2777778,144,336,501,507,0.3456606,0.005363314,0.1558731,-1.395394,-2.858949,-1.629946,0.1010572,-0.02181707,-0.1258866,-0.8141938,-2.482548,1.276711
17.00022,0.2888889,144,336,501,507,0.3659039,0.004378316,0.1569916,-1.397133,-2.858877,-1.634586,0.1022349,-0.03567901,-0.1088561,-0.8145811,-2.483896,1.276521
17.00022,0.3,144,336,501,507,0.354302,-0.01806289,0.1527935,-1.398708,-2.858121,-1.638437,0.0938223,-0.05274566,-0.09390439,-0.8148847,-2.485591,1.276895
17.00022,0.3111111,144,336,501,507,0.3298753,-0.02787819,0.1314783,-1.399546,-2.857324,-1.641313,0.1151087,-0.03675678,-0.09509452,-0.815992,-2.486275,1.275462
17.00022,0.3222222,144,343,501,483,0.3309446,-0.03107831,0.1325609,-1.401166,-2.856848,-1.645048,0.1108355,-0.003728509,-0.09184688,-0.8172123,-2.485312,1.273674
17.00022,0.3333333,144,343,501,483,0.3277149,-0.02046821,0.1261149,-1.402399,-2.856998,-1.648585,0.1001328,0.006918803,-0.09816454,-0.8185242,-2.485327,1.272877
17.00022,0.3444445,144,343,501,483,0.3266157,-0.009827368,0.1250051,-1.403806,-2.857261,-1.652317,0.1098027,0.01118264,-0.08436663,-0.8190759,-2.485298,1.271356
17.00022,0.3555556,144,343,501,483,0.3083811,0.01673207,0.1269778,-1.405204,-2.858308,-1.655078,0.1131274,0.007976159,-0.06627944,-0.8193684,-2.485405,1.26986
17.00022,0.3666667,142,357,500,492,0.2677201,0.05597457,0.1299146,-1.406668,-2.860048,-1.656789,0.101483,0.002624184,-0.05448996,-0.8195782,-2.485738,1.269349
17.00022,0.3777778,142,357,500,492,0.2463147,0.07826142,0.1318917,-1.40796,-2.86165,-1.658787,0.1004598,-0.003771216,-0.04915858,-0.8198659,-2.48615,1.268492
17.00022,0.3888889,142,357,500,492,0.26225,0.09001293,0.1254824,-1.409084,-2.862894,-1.661905,0.1122996,-0.01762651,-0.03112835,-0.8194664,-2.486847,1.267391
17.00022,0.4,142,357,500,492,0.2835704,0.08903726,0.1233953,-1.410184,-2.863979,-1.665534,0.1079664,-0.03791627,-0.04604641,-0.8200544,-2.489479,1.268171
17.00022,0.4111111,142,357,500,492,0.299618,0.07841709,0.1149579,-1.411186,-2.864636,-1.669245,0.1089713,-0.04962446,-0.05778008,-0.8207021,-2.490975,1.267956
17.00022,0.4222222,142,347,501,505,0.2933026,0.06875239,0.10432,-1.411866,-2.865201,-1.672307,0.1153443,-0.04428983,-0.05886254,-0.8209796,-2.491485,1.26696
17.00022,0.4333333,142,347,501,505,0.2837653,0.05910744,0.1011457,-1.412847,-2.865715,-1.675118,0.1249812,-0.03470002,-0.04932652,-0.821247,-2.491803,1.265545
17.00022,0.4444444,142,347,501,505,0.2763101,0.06119177,0.10112,-1.413871,-2.86645,-1.67807,0.1176033,-0.02939361,-0.03755647,-0.8212315,-2.49215,1.264518
17.00022,0.4555556,142,347,501,505,0.262423,0.06965148,0.1010518,-1.414862,-2.867577,-1.680431,0.1123197,-0.0198178,-0.02899417,-0.8212869,-2.492149,1.26342
17.00022,0.4666667,143,360,500,486,0.2463707,0.0823608,0.1020207,-1.415808,-2.868916,-1.682374,0.1102248,-0.007049024,-0.02044492,-0.8213114,-2.491917,1.262151
17.00022,0.4777778,143,360,500,486,0.2079319,0.1034844,0.09970732,-1.416587,-2.870727,-1.683467,0.1070707,-0.001730755,-0.01189397,-0.8211969,-2.49169,1.260935
17.00022,0.4888889,143,360,500,486,0.1598975,0.1256212,0.09632206,-1.417546,-2.872753,-1.68368,0.1040003,-0.009235516,-0.01410213,-0.8224092,-2.493504,1.259213
17.00022,0.5,143,360,500,486,0.1406913,0.1340425,0.09304647,-1.418311,-2.874553,-1.684515,0.1019236,-0.01989504,-0.005570209,-0.8220432,-2.494062,1.258651
17.00022,0.5111111,143,360,500,486,0.1406256,0.1499958,0.08765822,-1.419025,-2.876702,-1.685741,0.09882372,-0.05082589,-0.00456251,-0.8222041,-2.496838,1.258643
17.00022,0.5222223,138,355,500,491,0.1437515,0.1628287,0.08658548,-1.420278,-2.879504,-1.686898,0.09988518,-0.06680198,-0.007776583,-0.8220161,-2.498449,1.258588
17.00022,0.5333334,138,355,500,491,0.1374038,0.1616708,0.07164881,-1.420274,-2.881295,-1.688084,0.1062945,-0.09555732,-0.02814022,-0.8230084,-2.501791,1.257871
17.00022,0.5444446,138,355,500,491,0.1321671,0.1552833,0.06317925,-1.421076,-2.883862,-1.689621,0.1084056,-0.1040899,-0.04096865,-0.8235676,-2.504358,1.257641
17.00022,0.5555557,138,355,500,491,0.1247555,0.1488249,0.05573425,-1.421309,-2.885407,-1.690562,0.1050872,-0.09875117,-0.06011976,-0.8244225,-2.506153,1.257774
17.00022,0.5666668,140,304,502,503,0.1216266,0.1382374,0.05260944,-1.422063,-2.888031,-1.691703,0.09954156,-0.07637507,-0.0888354,-0.8259565,-2.507367,1.257983
17.00022,0.577778,140,304,502,503,0.1227161,0.1350274,0.04836488,-1.422303,-2.889495,-1.692875,0.09721576,-0.05185635,-0.1133061,-0.827801,-2.508128,1.257779
17.00022,0.5888891,140,304,502,503,0.1217505,0.1232928,0.04094102,-1.422171,-2.890884,-1.694428,0.1056733,-0.02946004,-0.127176,-0.8293861,-2.508397,1.256005
17.00022,0.6000003,140,304,502,503,0.1026686,0.1103544,0.02603383,-1.421847,-2.891711,-1.694929,0.1132318,-0.02307904,-0.1059113,-0.8299156,-2.508821,1.255154
17.00022,0.6111114,140,304,502,503,0.07605154,0.1134063,0.01318633,-1.421584,-2.893521,-1.694799,0.1179428,-0.01673341,-0.03242256,-0.8282319,-2.508001,1.253095
17.00022,0.6222225,128,344,501,500,0.06003731,0.1229005,0.008845219,-1.421365,-2.895153,-1.694777,0.1170936,-0.03274116,0.001659328,-0.8270457,-2.508655,1.252393
17.00022,0.6333337,128,344,501,500,0.02686427,0.160014,0.00222353,-1.420993,-2.898105,-1.693851,0.08740184,-0.03703178,0.02209022,-0.8260652,-2.508867,1.252315
17.00022,0.6444448,128,344,501,500,0.01299261,0.1747663,-0.007484393,-1.420066,-2.899494,-1.693844,0.07559907,-0.01678332,0.01366317,-0.8263208,-2.508213,1.251482
17.00022,0.655556,128,344,501,500,-0.01468363,0.1767083,-0.02140365,-1.419209,-2.901464,-1.692607,0.0681199,-0.007201128,0.01158603,-0.826307,-2.507944,1.250739
17.00022,0.6666671,128,344,501,500,-0.04976404,0.1668779,-0.03954571,-1.418175,-2.902858,-1.690845,0.06173289,0.006642293,0.01911605,-0.8257599,-2.50696,1.249926
17.00022,0.6777782,131,434,499,475,-0.0900857,0.1420955,-0.06083357,-1.416816,-2.903663,-1.688716,0.05862892,-0.0008288361,0.03297825,-0.8249733,-2.506909,1.249336
17.00022,0.6888894,131,434,499,475,-0.1325907,0.1290458,-0.07897745,-1.415422,-2.904753,-1.686163,0.05556438,-0.03066954,0.05535662,-0.8233408,-2.507725,1.249814
17.00022,0.7000005,131,434,499,475,-0.1591638,0.1214263,-0.08859518,-1.414018,-2.905845,-1.683628,0.04493001,-0.04559322,0.05968785,-0.8221748,-2.508328,1.250301
17.00022,0.7111117,131,434,499,475,-0.1921847,0.1212227,-0.09612553,-1.412663,-2.906799,-1.680308,0.01511198,-0.06266564,0.05879156,-0.8212262,-2.509578,1.251797
17.00022,0.7222228,121,361,501,494,-0.223073,0.1274099,-0.111137,-1.41091,-2.908279,-1.676862,-0.01910972,-0.0658646,0.03876761,-0.8210121,-2.510277,1.253507
17.00022,0.7333339,121,361,501,494,-0.2486169,0.1304385,-0.1239899,-1.409064,-2.909749,-1.67339,-0.03401398,-0.06375032,0.04312388,-0.8202392,-2.510822,1.254815
17.00022,0.7444451,121,361,501,494,-0.2709689,0.1345412,-0.136843,-1.407071,-2.911167,-1.669821,-0.03927865,-0.06588621,0.05167161,-0.8193151,-2.511402,1.255636
17.00022,0.7555562,121,361,501,494,-0.2848083,0.1365703,-0.1454053,-1.405071,-2.912573,-1.666044,-0.0455565,-0.06910249,0.06981789,-0.8178014,-2.511958,1.256692
17.00022,0.7666674,121,361,501,494,-0.3029209,0.1385961,-0.1518625,-1.402872,-2.914063,-1.661934,-0.05300025,-0.06592665,0.07734041,-0.8163595,-2.512455,1.258177
17.00022,0.7777785,117,299,500,507,-0.3124962,0.1353612,-0.150804,-1.401107,-2.915344,-1.657953,-0.06467122,-0.06061789,0.08593841,-0.8150519,-2.512638,1.259344
17.00022,0.7888896,117,299,500,507,-0.3326454,0.1213845,-0.1582353,-1.399215,-2.916127,-1.653811,-0.08826661,-0.05743445,0.06158077,-0.8148495,-2.513562,1.261688
17.00022,0.8000008,117,299,500,507,-0.3432158,0.1053574,-0.1581898,-1.397367,-2.916793,-1.649733,-0.09475429,-0.0457058,0.04992459,-0.8143744,-2.513536,1.263042
17.00022,0.8111119,117,299,500,507,-0.3611488,0.07114306,-0.1676646,-1.395307,-2.916535,-1.645303,-0.09911515,-0.02971973,0.03611443,-0.8143957,-2.513395,1.264154
17.00022,0.8222231,116,325,501,500,-0.3706285,0.05189009,-0.1729137,-1.393476,-2.916453,-1.64115,-0.09702507,-0.01798519,0.03398883,-0.8139994,-2.512857,1.26501
17.00022,0.8333342,116,325,501,500,-0.3822641,0.03478261,-0.1749938,-1.391479,-2.916238,-1.636627,-0.0980107,-0.01267037,0.04784804,-0.8131451,-2.51252,1.265879
17.00022,0.8444453,116,325,501,500,-0.387611,0.03691283,-0.1696952,-1.389647,-2.916673,-1.63215,-0.1075217,-0.01588015,0.0596225,-0.8121278,-2.512412,1.267224
17.00022,0.8555565,116,325,501,500,-0.394063,0.04650434,-0.1622953,-1.387978,-2.917347,-1.627469,-0.114887,-0.009507805,0.07565223,-0.8109022,-2.511787,1.268255
17.00022,0.8666676,116,325,501,500,-0.3931297,0.071077,-0.1485498,-1.386646,-2.918842,-1.623052,-0.1181296,0.00754039,0.07142788,-0.8104015,-2.510747,1.268961
17.00022,0.8777788,192,338,490,490,-0.3996228,0.08709509,-0.1358543,-1.38529,-2.920257,-1.618162,-0.1182323,0.02672637,0.05759411,-0.8103749,-2.50958,1.269458
17.00022,0.8888899,192,338,490,490,-0.4060019,0.08070749,-0.1283829,-1.384046,-2.92096,-1.613362,-0.1320726,0.03204042,0.06088266,-0.8097714,-2.508602,1.270651
17.00022,0.900001,192,338,490,490,-0.4175499,0.04653442,-0.132517,-1.382444,-2.920397,-1.60866,-0.1491655,0.01285295,0.05033435,-0.8091162,-2.508979,1.273009
17.00022,0.9111122,192,338,490,490,-0.4205861,0.01664453,-0.1430434,-1.380617,-2.919729,-1.604054,-0.1770199,-0.01378298,0.0206554,-0.8094246,-2.510377,1.276699
17.00022,0.9222233,192,338,490,490,-0.4256444,-0.03564059,-0.1534958,-1.378464,-2.91777,-1.599659,-0.1760272,-0.01163411,0.008941971,-0.8094625,-2.510373,1.278544
17.00022,0.9333345,180,242,498,497,-0.4264743,-0.08361615,-0.1607402,-1.376533,-2.915482,-1.595313,-0.1631931,0.01074022,0.02059894,-0.809185,-2.509281,1.279281
17.00022,0.9444456,180,242,498,497,-0.4273355,-0.1272913,-0.1605458,-1.374844,-2.913106,-1.591085,-0.1620354,0.02351989,0.03765563,-0.8084047,-2.507875,1.280047
17.00022,0.9555568,180,242,498,497,-0.4219772,-0.1368306,-0.1551647,-1.373285,-2.911266,-1.586893,-0.1714441,0.03414014,0.06861548,-0.8070571,-2.506325,1.281144
17.00022,0.9666679,180,242,498,497,-0.4134891,-0.1367392,-0.1402235,-1.372269,-2.90968,-1.582833,-0.1734496,0.04158384,0.08566636,-0.8060973,-2.505036,1.281851
17.00022,0.977779,129,255,500,501,-0.40619,-0.1152179,-0.1211318,-1.371363,-2.908991,-1.57867,-0.1702773,0.03945979,0.08245086,-0.8054358,-2.504232,1.283186
17.00022,0.9888902,129,255,500,501,-0.3998656,-0.1002957,-0.1083911,-1.370624,-2.90845,-1.574618,-0.1618305,0.02776308,0.06747876,-0.8050896,-2.503998,1.284546
17.00022,1.000001,129,255,500,501,-0.3915081,-0.07352155,-0.08718251,-1.370228,-2.908434,-1.570553,-0.1638389,0.01604481,0.07705048,-0.8042885,-2.503682,1.285478
17.00022,1.011112,129,255,500,501,-0.3831114,-0.05212013,-0.07447565,-1.369721,-2.908455,-1.566457,-0.1712896,-0.004201367,0.07495023,-0.8033447,-2.504153,1.287899
17.00022,1.022224,129,255,500,501,-0.3767244,-0.05208314,-0.07659265,-1.368744,-2.907999,-1.562358,-0.1947389,-0.01910958,0.06119882,-0.8034272,-2.50472,1.290279
17.00022,1.033335,106,334,499,491,-0.3628226,-0.06162635,-0.08078037,-1.367741,-2.90708,-1.558871,-0.2043319,-0.006335914,0.06233236,-0.8027912,-2.504176,1.292433
17.00022,1.044446,106,334,499,491,-0.3510645,-0.07437283,-0.07858389,-1.366699,-2.905589,-1.55536,-0.2021823,0.02455521,0.07193412,-0.8020376,-2.502195,1.29336
17.00022,1.055557,106,334,499,491,-0.335005,-0.09240463,-0.0774022,-1.365853,-2.904047,-1.552406,-0.1902263,0.06822312,0.101691,-0.801196,-2.49883,1.291417
17.00022,1.066668,106,334,499,491,-0.3178863,-0.1146581,-0.07405895,-1.365215,-2.90249,-1.549341,-0.176376,0.08740887,0.1090803,-0.8001872,-2.49637,1.291645
17.00022,1.077779,116,290,500,499,-0.303983,-0.1262833,-0.06756185,-1.36488,-2.900828,-1.546836,-0.1689111,0.09274083,0.1111692,-0.7992657,-2.494288,1.291868
17.00022,1.08889,116,290,500,499,-0.2901629,-0.1251073,-0.05688326,-1.364493,-2.899429,-1.54426,-0.1403787,0.1002117,0.07692102,-0.7994602,-2.4933,1.2922
17.00022,1.100002,116,290,500,499,-0.2837807,-0.1240033,-0.05474335,-1.36391,-2.898071,-1.541571,-0.1372374,0.0959613,0.06731055,-0.7992594,-2.491848,1.292624
17.00022,1.111113,116,290,500,499,-0.2721201,-0.1174819,-0.04088517,-1.363982,-2.897208,-1.539068,-0.1151096,0.09174748,0.0320198,-0.800118,-2.49099,1.293137
17.00022,1.122224,116,290,500,499,-0.2636598,-0.1110112,-0.0344983,-1.363766,-2.896259,-1.536217,-0.1076852,0.08962354,0.02879543,-0.7997931,-2.489557,1.293401
17.00022,1.133335,130,214,499,498,-0.2540913,-0.1098737,-0.02809022,-1.3636,-2.895044,-1.533901,-0.1108886,0.06405748,0.02346822,-0.7996807,-2.489416,1.294603
17.00022,1.144446,130,214,499,498,-0.2455661,-0.1098297,-0.02914947,-1.36299,-2.893921,-1.531618,-0.1152024,0.04808481,0.01390125,-0.7997089,-2.489181,1.296009
17.00022,1.155557,130,214,499,498,-0.2349231,-0.1065949,-0.03127073,-1.362541,-2.892822,-1.529545,-0.1119375,0.03742738,0.02346067,-0.7992333,-2.488834,1.296919
17.00022,1.166668,130,214,499,498,-0.2157547,-0.1065092,-0.03228668,-1.36218,-2.891698,-1.527744,-0.1065828,0.03956988,0.02875528,-0.7989755,-2.487682,1.297178
17.00022,1.17778,137,236,493,477,-0.2019327,-0.1011149,-0.03121459,-1.361824,-2.890712,-1.526099,-0.09800326,0.03424494,0.03722109,-0.7984183,-2.487114,1.297636
17.00022,1.188891,137,236,493,477,-0.187088,-0.0924823,-0.02373981,-1.362054,-2.890061,-1.524346,-0.09255242,0.02678338,0.05744904,-0.7970095,-2.48626,1.298051
17.00022,1.200002,137,236,493,477,-0.1679993,-0.08061746,-0.01096448,-1.362265,-2.889518,-1.523002,-0.0893135,0.03103639,0.06807598,-0.796267,-2.485385,1.298613
17.00022,1.211113,137,236,493,477,-0.1531552,-0.06985396,-0.001391649,-1.362496,-2.889029,-1.521796,-0.07544427,0.0502201,0.07439806,-0.7955837,-2.483555,1.297806
17.00022,1.222224,137,236,493,477,-0.1436154,-0.06340013,0.003916085,-1.362467,-2.888393,-1.520437,-0.06170495,0.06836154,0.06367709,-0.795532,-2.481559,1.297143
17.00022,1.233335,143,240,499,499,-0.1382742,-0.06868323,0.008212723,-1.362629,-2.887497,-1.519242,-0.05645783,0.06944191,0.05086202,-0.7955091,-2.480366,1.296807
17.00022,1.244446,143,240,499,499,-0.1307398,-0.07935935,-0.0002467576,-1.362297,-2.88602,-1.518409,-0.05228999,0.06413183,0.03485339,-0.7956406,-2.479673,1.296853
17.00022,1.255558,143,240,499,499,-0.1232269,-0.09106296,-0.004445609,-1.361974,-2.884679,-1.517407,-0.04384601,0.06415004,0.02201794,-0.7959294,-2.478758,1.29647
17.00022,1.266669,143,240,499,499,-0.1136112,-0.09954274,-0.009711312,-1.361671,-2.883702,-1.51625,-0.04185279,0.05990455,0.01884877,-0.7953126,-2.477447,1.297736
17.00022,1.27778,143,240,499,499,-0.1018496,-0.1069652,-0.01391331,-1.361318,-2.882284,-1.515736,-0.03762185,0.06417321,0.01456496,-0.795499,-2.476305,1.297232
17.00022,1.288891,128,212,503,507,-0.0911878,-0.1080144,-0.01816054,-1.360712,-2.880878,-1.515188,-0.03870364,0.06311333,0.01350985,-0.795532,-2.475213,1.297066
17.00022,1.300002,128,212,503,507,-0.07099581,-0.09828813,-0.009629766,-1.360888,-2.880129,-1.515306,-0.03224566,0.04925883,0.0241145,-0.7950143,-2.4748,1.297155
17.00022,1.311113,128,212,503,507,-0.05724637,-0.07797052,-0.006493517,-1.360839,-2.879719,-1.515092,-0.02796115,0.03860845,0.02621094,-0.7947256,-2.474444,1.297112
17.00022,1.322224,128,212,503,507,-0.04666359,-0.06511601,-0.00333941,-1.360717,-2.879432,-1.514778,-0.0237035,0.03115561,0.02512253,-0.794462,-2.474075,1.297096
17.00022,1.333336,128,223,498,498,-0.04038565,-0.04163662,-0.0002337806,-1.360799,-2.879589,-1.51445,-0.01523334,0.03117041,0.01654827,-0.7945759,-2.473614,1.296731
17.00022,1.344447,128,223,498,498,-0.03514013,-0.02456718,0.002919732,-1.361229,-2.879488,-1.514238,-0.01421718,0.03436041,0.01122864,-0.7945253,-2.473093,1.296708
17.00022,1.355558,128,223,498,498,-0.02672427,-0.004259583,0.00923986,-1.361534,-2.880011,-1.514073,-0.007853417,0.04289152,0.008000297,-0.7947171,-2.472129,1.295961
17.00022,1.366669,128,223,498,498,-0.02039832,0.009616111,0.009208738,-1.361886,-2.88035,-1.513865,-0.008926254,0.05992817,0.01123259,-0.7945365,-2.470509,1.295133
17.00022,1.37778,128,223,498,498,-0.01507929,0.01389689,0.0113435,-1.362267,-2.880342,-1.514076,-0.006777231,0.06099316,0.01441623,-0.794495,-2.469449,1.294398
17.00022,1.388891,134,164,498,500,-0.008699822,0.0171172,0.01027796,-1.362366,-2.880623,-1.514083,0.0007180423,0.05034231,0.01863294,-0.7941168,-2.46904,1.293848
17.00022,1.400002,134,164,498,500,-0.003353965,0.01287095,0.009249629,-1.362529,-2.88057,-1.514132,0.006020658,0.03224103,0.01219632,-0.7940928,-2.469212,1.293809
17.00022,1.411114,134,164,498,500,-0.002271585,0.008619497,0.01033636,-1.362669,-2.880548,-1.514127,0.01235395,0.00562558,-0.001711926,-0.7942974,-2.470233,1.294218
17.00022,1.422225,134,164,498,500,0.0008997265,0.01077338,0.01033339,-1.362769,-2.880883,-1.513932,0.01974822,-0.01459961,-0.01349123,-0.7945445,-2.471294,1.294723
17.00022,1.433336,138,204,501,502,0.007262361,0.01613854,0.01245416,-1.362998,-2.881184,-1.514124,0.02080154,-0.01566223,-0.01562911,-0.794716,-2.471705,1.29477
17.00022,1.444447,138,204,501,502,0.008262934,0.02468309,0.01562246,-1.36342,-2.881719,-1.51385,0.02079479,-0.01139486,-0.01455437,-0.7947602,-2.471497,1.294545
17.00022,1.455558,138,204,501,502,0.01141272,0.03323425,0.0187871,-1.363749,-2.882329,-1.51394,0.02503041,0.007785521,-0.01563095,-0.7951022,-2.470748,1.293603
17.00022,1.466669,138,204,501,502,0.01247568,0.03534317,0.0155858,-1.363873,-2.882576,-1.514043,0.0218081,0.01842986,-0.01774319,-0.7955746,-2.470406,1.293247
17.00022,1.47778,138,204,501,502,0.01357665,0.03000588,0.01561048,-1.364044,-2.882526,-1.514423,0.01329944,0.02694336,-0.01342205,-0.7957302,-2.469721,1.292912
17.00022,1.488891,132,177,495,498,0.01044376,0.01612293,0.0113914,-1.363847,-2.882312,-1.514366,0.01011739,0.03013067,-0.01021199,-0.79598,-2.469274,1.2926
17.00022,1.500003,132,177,495,498,0.01476762,0.003339473,0.009323908,-1.363825,-2.881875,-1.51472,0.009077421,0.02053681,-0.004881418,-0.7957893,-2.469318,1.292773
17.00022,1.511114,132,177,495,498,0.01057451,-0.009482467,0.005110745,-1.36373,-2.881399,-1.514827,0.01337188,0.006689838,-0.001722075,-0.7956279,-2.46969,1.292779
17.00022,1.522225,132,177,495,498,0.01486236,-0.0137378,0.005146923,-1.363886,-2.880951,-1.515296,0.01659438,-0.01034786,0.0003677516,-0.7955927,-2.470309,1.292983
17.00022,1.533336,155,183,497,496,0.01486237,-0.0137378,0.005146923,-1.363943,-2.880787,-1.515481,0.0208509,-0.02525533,-0.002865346,-0.7955118,-2.471281,1.293317
17.00022,1.544447,155,183,497,496,0.01484284,-0.0105175,0.008332611,-1.364167,-2.880949,-1.515638,0.01659086,-0.02632491,-0.00284015,-0.7954537,-2.471725,1.293564
17.00022,1.555558,155,183,497,496,0.01160067,-0.0009399322,0.00934777,-1.364328,-2.881223,-1.51562,0.01554942,-0.02100783,0.002504738,-0.7951677,-2.471737,1.293483
17.00022,1.566669,155,183,497,496,0.0169119,0.002297734,0.01360097,-1.364543,-2.881305,-1.516084,0.01556179,-0.01355281,0.006776955,-0.7949195,-2.471491,1.293236
17.00022,1.577781,155,183,497,496,0.01478358,0.003338911,0.01039562,-1.364577,-2.881382,-1.516166,0.009094063,0.01094999,-0.00169045,-0.7954537,-2.470486,1.29262
17.00022,1.588892,127,198,498,500,0.01272022,-0.00946255,0.004060336,-1.36452,-2.881207,-1.516187,0.006941102,0.03331906,-0.001660638,-0.7957536,-2.469171,1.291718
17.00022,1.600003,127,198,498,500,0.01276082,-0.01692362,-0.00123169,-1.364383,-2.88114,-1.516265,0.000544887,0.03225152,-0.0005566766,-0.7957951,-2.468726,1.291719
17.00022,1.611114,127,198,498,500,0.01280686,-0.02440441,-0.00652463,-1.364138,-2.880661,-1.516513,0.0005242126,0.02692822,-0.004821788,-0.7959927,-2.468539,1.291586
17.00022,1.622225,127,198,498,500,0.009646608,-0.03083326,-0.007550173,-1.364265,-2.879884,-1.516757,0.002673485,0.01947813,-0.002718045,-0.7960982,-2.468453,1.291456
17.00022,1.633336,127,198,498,500,0.01175063,-0.02760376,-0.002233397,-1.364361,-2.879633,-1.516997,0.00589407,0.007761503,-0.0006157951,-0.7959858,-2.468752,1.291494
17.00022,1.644447,138,185,495,494,0.01490888,-0.02119383,-0.002272733,-1.364076,-2.879655,-1.517136,0.004810486,-0.01034733,-0.004871118,-0.7957935,-2.469527,1.292145
17.00022,1.655559,138,185,495,494,0.01592084,-0.01263811,0.00408306,-1.364297,-2.879746,-1.517332,0.008001458,-0.01247034,-0.005963076,-0.7959155,-2.469765,1.292154
17.00022,1.66667,138,185,495,494,0.01264259,0.0054695,0.007189451,-1.364446,-2.88027,-1.51737,0.01117253,-0.001830043,-0.005970161,-0.7959304,-2.469666,1.292075
17.00022,1.677781,138,185,495,494,0.008312769,0.01612081,0.008198971,-1.364597,-2.880857,-1.517002,0.007940468,0.0002925918,-0.01234525,-0.7962654,-2.469919,1.292189
17.00022,1.688892,137,183,495,497,0.007259509,0.01503633,0.005005548,-1.364572,-2.881027,-1.517021,0.006908826,0.0120042,-0.004872988,-0.7962548,-2.469267,1.291698
17.00022,1.700003,137,183,495,497,0.007259507,0.01503633,0.005005549,-1.364636,-2.881195,-1.517067,0.01014233,0.01732846,0.002580495,-0.7959475,-2.468675,1.291103
17.00022,1.711114,137,183,495,497,0.008348963,0.0139664,0.001829708,-1.364717,-2.881349,-1.517315,0.01335433,0.007743238,0.003619088,-0.795817,-2.46884,1.290986
17.00022,1.722225,137,183,495,497,0.006229322,0.01501377,-0.0003057801,-1.364744,-2.881602,-1.517472,0.01438506,-0.001835344,-0.004919282,-0.7960843,-2.469364,1.291066
17.00022,1.733337,137,183,495,497,0.004093991,0.01501353,0.001820066,-1.364819,-2.881752,-1.517457,0.01432105,-0.01567471,-0.01771296,-0.7964582,-2.470366,1.291613
17.00022,1.744448,176,158,492,497,0.004074787,0.01609086,0.002879452,-1.364851,-2.882052,-1.517247,0.01104695,-0.02311393,-0.03154314,-0.7970085,-2.470973,1.292035
17.00022,1.755559,176,158,492,497,0.0008813222,0.0160714,0.001807081,-1.364864,-2.882241,-1.517137,0.01000132,-0.01033213,-0.02619395,-0.7971251,-2.470605,1.291697
17.00022,1.76667,176,158,492,497,0.0008780621,0.01820735,0.00497283,-1.364689,-2.882388,-1.517338,0.001565094,0.0003041411,-0.009073032,-0.7966452,-2.469936,1.291518
17.00022,1.777781,176,158,492,497,-0.001242737,0.01606701,0.00497767,-1.364748,-2.882513,-1.517247,-0.003746097,0.004557713,-0.005841659,-0.796675,-2.469735,1.291562
17.00022,1.788892,158,179,497,496,0.001956146,0.01605776,0.004982353,-1.364754,-2.882335,-1.517461,-0.002627246,0.01519979,0.003740954,-0.7965984,-2.46911,1.291045
17.00022,1.800003,158,179,497,496,0.001939275,0.01500545,0.006054349,-1.364885,-2.882609,-1.517126,-0.000479741,0.01627348,0.005867294,-0.7964678,-2.468622,1.29057
17.00022,1.811115,158,179,497,496,0.003002058,0.01607085,0.004986642,-1.364927,-2.882819,-1.517137,-0.006874753,0.006680915,0.003768674,-0.7964247,-2.468873,1.290993
17.00022,1.822226,158,179,497,496,-0.001231018,0.009658229,0.004998305,-1.364894,-2.882735,-1.517003,-0.004748875,0.00562019,0.002698343,-0.7963374,-2.468751,1.29089
17.00022,1.833337,158,179,497,496,-0.004447159,0.01073927,0.00712859,-1.365211,-2.883218,-1.516637,-0.005868285,0.007755944,-0.005815802,-0.7966793,-2.468676,1.29093
17.00022,1.844448,147,152,500,502,-0.004409259,0.002219257,0.007158569,-1.365186,-2.883056,-1.516614,-0.01230077,0.01308204,-0.01216269,-0.7970127,-2.468349,1.290958
17.00022,1.855559,147,152,500,502,-0.006515317,-0.005229317,0.007193549,-1.365345,-2.883081,-1.51634,-0.01017129,0.0141495,-0.01217491,-0.7971938,-2.468153,1.290869
17.00022,1.86667,147,152,500,502,-0.008593169,-0.01484484,0.004034625,-1.365236,-2.882618,-1.516293,-0.007966702,0.01946451,0.0005957359,-0.796944,-2.467598,1.290504
17.00022,1.877781,147,152,500,502,-0.007459873,-0.02658466,-0.001214243,-1.365404,-2.881985,-1.516393,-0.009061892,0.01840015,-0.004726869,-0.797213,-2.467498,1.290548
17.00022,1.888893,149,212,497,492,-0.008492598,-0.03403616,-0.000129309,-1.365238,-2.881516,-1.516391,-0.009024032,0.0130698,0.0005956152,-0.7970777,-2.467417,1.290599
17.00022,1.900004,149,212,497,492,-0.009587862,-0.0308527,0.003062186,-1.365527,-2.880936,-1.516252,-0.008995799,0.01200368,0.006993393,-0.7967917,-2.467063,1.290624
17.00022,1.911115,149,212,497,492,-0.007476762,-0.02763479,0.004128521,-1.365749,-2.880828,-1.516219,-0.01324605,0.01412843,0.009151487,-0.796674,-2.466752,1.290663
17.00022,1.922226,149,212,497,492,-0.01284743,-0.02017872,0.007255468,-1.365567,-2.880934,-1.515884,-0.01002045,0.02478158,0.01660917,-0.7963368,-2.465756,1.290078
17.00022,1.933337,149,212,497,492,-0.01392238,-0.01910879,0.009378877,-1.36572,-2.880735,-1.515746,-0.01213478,0.02158202,0.01875044,-0.7961291,-2.465446,1.290061
17.00022,1.944448,130,172,502,502,-0.01392543,-0.01700832,0.01042497,-1.365686,-2.880081,-1.515893,-0.01001377,0.02371269,0.0166035,-0.7961882,-2.465071,1.289786
17.00022,1.955559,130,172,502,502,-0.01709373,-0.01812503,0.005080674,-1.365352,-2.879693,-1.515861,-0.005780809,0.02585064,0.01231793,-0.7962686,-2.464603,1.289412
17.00022,1.966671,130,172,502,502,-0.01812002,-0.02559641,0.002981257,-1.365327,-2.879208,-1.515722,0.003732883,0.01309169,-0.001586125,-0.7964348,-2.464908,1.289357
17.00022,1.977782,130,172,502,502,-0.02026829,-0.02347742,0.004031398,-1.365381,-2.878904,-1.51544,0.00370552,0.01203241,-0.006922491,-0.7967911,-2.464819,1.289219
17.00022,1.988893,130,172,502,502,-0.02027818,-0.02029115,0.001886467,-1.365323,-2.878772,-1.515236,0.003696911,0.02055477,-0.006916371,-0.7970074,-2.46431,1.288827
17.00022,2.000004,141,141,497,499,-0.0160683,-0.01278674,0.00504919,-1.36535,-2.879023,-1.514958,0.003738961,0.01521761,-0.0005354481,-0.7969179,-2.464335,1.288849
17.00022,2.011115,141,141,497,499,-0.01397184,-0.00637574,0.007155769,-1.365485,-2.87911,-1.514843,0.001587799,0.003500981,-0.005857262,-0.7970229,-2.464761,1.289171
17.00022,2.022226,141,141,497,499,-0.01400322,0.002141265,0.008177514,-1.365532,-2.879223,-1.5148,-0.002700181,-0.001827678,-0.01010448,-0.7973254,-2.465146,1.289666
17.00022,2.033337,141,141,497,499,-0.01295511,0.006402489,0.00709545,-1.36559,-2.879427,-1.514633,0.001542531,-0.002886362,-0.01332704,-0.7975619,-2.465306,1.289685
17.00022,2.044448,131,168,504,500,-0.009739819,0.005361046,0.007119279,-1.365831,-2.879557,-1.514808,0.003715308,-0.008209285,-0.008025942,-0.7975672,-2.465492,1.289623
17.00022,2.055559,131,168,504,500,-0.008657778,0.005332501,-0.0003353378,-1.3656,-2.879621,-1.514724,0.003760749,-0.008214639,-0.0005690029,-0.7973334,-2.465543,1.289612
17.00022,2.06667,131,168,504,500,-0.009688217,-0.00321208,0.0007529268,-1.365349,-2.879055,-1.514658,0.001671655,0.004563773,0.007972354,-0.797148,-2.464846,1.289123
17.00022,2.077781,131,168,504,500,-0.007523126,-0.009608196,0.0007847496,-1.365395,-2.878535,-1.514849,-0.001532845,0.01948342,0.008002561,-0.7973052,-2.463833,1.288423
17.00022,2.088892,131,168,504,500,-0.003271671,-0.00851376,0.002920011,-1.36546,-2.878445,-1.514943,-0.004675623,0.03758189,0.01975304,-0.797057,-2.462376,1.287548
17.00022,2.100003,121,157,498,499,-0.006447818,-0.008553967,-0.001362325,-1.3651,-2.878289,-1.514967,-0.009966224,0.04396345,0.02724794,-0.7967517,-2.461355,1.287127
17.00022,2.111114,121,157,498,499,-0.004322142,-0.007478888,-0.001362369,-1.365094,-2.878231,-1.514986,-0.007856257,0.03225117,0.02190012,-0.7966724,-2.461228,1.287071
17.00022,2.122225,121,157,498,499,-0.002157366,-0.01173622,-0.002400537,-1.365068,-2.877951,-1.515273,-0.003622532,0.02799802,0.01547815,-0.7967661,-2.46103,1.286735
17.00022,2.133336,121,157,498,499,-0.00320623,-0.01493922,-0.003437741,-1.365236,-2.877735,-1.515234,0.0005747145,0.0141627,0.00265882,-0.7970122,-2.461464,1.286906
17.00022,2.144447,122,150,497,498,1.627859E-05,-0.01814422,-0.008742673,-1.364982,-2.877453,-1.515368,0.003727387,0.004582458,-0.004823669,-0.7971805,-2.461839,1.287145
17.00022,2.155558,122,150,497,498,0.002214162,-0.02881612,-0.01400718,-1.364791,-2.876775,-1.515689,0.00160332,-0.00181149,-0.004815281,-0.7971699,-2.462137,1.287395
17.00022,2.166669,122,150,497,498,0.002257969,-0.03520729,-0.01611783,-1.364409,-2.876379,-1.515922,-0.001552974,-0.0007581847,0.001609038,-0.7967656,-2.461972,1.28738
17.00022,2.17778,122,150,497,498,0.004407838,-0.03946968,-0.01718166,-1.363832,-2.875791,-1.516101,-0.005778146,0.007746813,0.01016998,-0.7964172,-2.46146,1.287317
17.00022,2.188891,122,150,497,498,0.007576913,-0.03517955,-0.01399781,-1.363744,-2.875517,-1.516313,-0.007900045,0.01839534,0.01338639,-0.7963405,-2.460691,1.286942
17.00022,2.200002,123,142,499,499,0.00650974,-0.03412591,-0.01400608,-1.363556,-2.875068,-1.516493,-0.008953413,0.02158536,0.01552169,-0.7962739,-2.460312,1.28675
17.00022,2.211113,123,142,499,499,0.00857929,-0.02238376,-0.01085809,-1.363544,-2.875152,-1.516623,-0.004718535,0.02159482,0.01123452,-0.7963656,-2.459969,1.286465
17.00022,2.222224,123,142,499,499,0.008508018,-0.01173411,-0.0109104,-1.363357,-2.875274,-1.516333,-0.0004336052,0.01946467,0.01440831,-0.7961041,-2.459666,1.28612
17.00022,2.233335,123,142,499,499,0.005241558,0.002118034,-0.007768517,-1.36361,-2.875697,-1.516217,-0.001528336,0.0162736,0.009084714,-0.7962053,-2.459512,1.286085
17.00022,2.244446,123,142,499,499,0.001987406,0.009575224,-0.003565975,-1.36344,-2.875937,-1.515879,0.00167489,0.009872974,0.007990824,-0.7961525,-2.459787,1.286087
17.00022,2.255557,115,156,496,500,-0.0002130913,0.02236172,0.0006360218,-1.363617,-2.876395,-1.51573,0.004845003,0.006677954,0.004784227,-0.7960013,-2.459845,1.286128
17.00022,2.266668,115,156,496,500,0.004016479,0.02666631,0.005952821,-1.363842,-2.876809,-1.515818,-0.001510948,0.003471774,0.01014728,-0.7957509,-2.459815,1.286294
17.00022,2.277779,115,156,496,500,0.00505367,0.03305959,0.003788629,-1.363733,-2.877435,-1.515707,-0.003645181,0.004533958,0.01016976,-0.79554,-2.459608,1.286294
17.00022,2.28889,115,156,496,500,0.001906432,0.02555932,-0.002576704,-1.363569,-2.877533,-1.515619,-0.003677639,0.004537727,0.004843376,-0.7956482,-2.459585,1.286328
17.00022,2.300001,124,184,495,493,0.0009008183,0.01487963,-0.00680064,-1.363245,-2.87738,-1.515654,-0.002641572,-0.001849471,-0.0004992721,-0.7958133,-2.459954,1.286635
17.00022,2.311112,124,184,495,493,0.0009936066,-0.003249137,-0.01098044,-1.362983,-2.876854,-1.515759,0.002696762,-0.007170047,0.0005305698,-0.7957174,-2.460159,1.28661
17.00022,2.322223,124,184,495,493,-0.002168394,-0.01072054,-0.009899558,-1.362731,-2.876499,-1.515747,0.003771649,-0.01036896,0.002649189,-0.7956263,-2.460461,1.286856
17.00022,2.333334,124,184,495,493,-3.147032E-05,-0.01494121,-0.004531188,-1.363086,-2.876342,-1.51583,0.0005709527,-0.006120749,0.001603364,-0.7956694,-2.460628,1.286975
17.00022,2.344445,124,184,495,493,-0.001143608,-0.005346405,-0.002449816,-1.363062,-2.876588,-1.515767,-0.0004575523,0.002395266,0.009072867,-0.7954559,-2.46016,1.286671
17.00022,2.355556,120,154,496,501,0.0009468099,0.002134811,0.0007303595,-1.363349,-2.876809,-1.515813,-0.002574381,0.007726343,0.01121642,-0.7954138,-2.459672,1.286325
17.00022,2.366668,120,154,496,501,-0.0001311689,0.005334577,0.001779371,-1.363413,-2.876986,-1.515814,-0.003645067,0.006660712,0.01015688,-0.7953563,-2.459579,1.286327
17.00022,2.377779,120,154,496,501,-0.001217762,0.008511421,-0.002504394,-1.363202,-2.877232,-1.515477,-0.003669696,0.008797901,0.005892062,-0.795549,-2.459358,1.286169
17.00022,2.38889,120,154,496,501,0.002029334,-0.001075658,-0.005650057,-1.363069,-2.876956,-1.515648,0.002697077,0.007742138,0.001591243,-0.7956694,-2.459336,1.285957
17.00022,2.400001,107,176,499,498,0.0009934567,-0.006412725,-0.005614275,-1.363198,-2.876659,-1.515758,0.001625803,-0.0007746411,-0.0005420154,-0.795727,-2.459601,1.28618
17.00022,2.411112,107,176,499,498,0.003150903,-0.01173406,-0.006650873,-1.363072,-2.876383,-1.515919,0.00376392,0.004552511,0.001579354,-0.7957184,-2.459311,1.285881
17.00022,2.422223,107,176,499,498,0.006340704,-0.01275176,-0.004503962,-1.363147,-2.876572,-1.515935,0.004828076,0.00243037,0.0005068181,-0.7957759,-2.459194,1.285684
17.00022,2.433334,107,176,499,498,0.007381593,-0.008476213,-0.00239015,-1.363189,-2.876595,-1.516035,0.0005858764,0.008820374,0.004800242,-0.7956747,-2.458667,1.28544
17.00022,2.444445,107,176,499,498,0.00524259,-0.004217113,-0.0002746667,-1.363374,-2.876622,-1.516237,-0.001550523,0.008813323,0.003747192,-0.7956822,-2.458635,1.285477
17.00022,2.455556,121,147,499,498,0.004162982,-0.003133165,0.004001275,-1.363843,-2.876637,-1.516265,-0.0004915376,0.007753099,0.002666604,-0.7958314,-2.458543,1.285395
17.00022,2.466667,121,147,499,498,0.005235312,-0.006316254,0.005068894,-1.363739,-2.876537,-1.516297,0.002716747,0.008811045,0.004774302,-0.7957792,-2.458532,1.285249
17.00022,2.477778,121,147,499,498,0.003091173,-0.001024882,-0.0002911449,-1.363519,-2.876664,-1.51622,0.004820736,-0.0007784199,0.000485625,-0.79589,-2.459106,1.285702
17.00022,2.488889,121,147,499,498,-0.0001289805,0.002175309,0.003948498,-1.363667,-2.876755,-1.516117,0.005897937,-0.006104551,0.001540678,-0.7957797,-2.459366,1.285782
17.00022,2.5,121,147,499,498,-0.002287111,0.008558993,0.005003246,-1.364089,-2.876966,-1.516069,0.006932263,-0.01142037,-0.003801374,-0.795972,-2.459668,1.285937
17.00022,2.511111,121,147,499,498,-0.00126784,0.01923586,0.007076873,-1.364102,-2.877611,-1.516089,0.004790947,-0.01354434,-0.005921744,-0.79607,-2.459853,1.286077
17.00022,2.522222,121,147,499,498,-0.001304759,0.02352271,0.01026161,-1.364431,-2.878141,-1.515815,0.004805684,-0.01248462,-0.002727184,-0.7959981,-2.460042,1.286215
17.00022,2.533333,121,147,499,498,0.0008117314,0.02778893,0.009205578,-1.364842,-2.878531,-1.515827,0.002662451,-0.00609225,-0.002718836,-0.7961994,-2.459899,1.286245
17.00022,2.544444,121,147,499,498,-0.002315923,0.01605359,0.006037069,-1.364579,-2.878595,-1.515797,-0.0005226181,0.002424615,0.0005024504,-0.7961685,-2.459536,1.286089
17.00022,2.555555,124,145,499,497,-0.002280536,0.008604472,0.006079249,-1.364773,-2.878611,-1.515787,-0.0005253279,0.009882874,0.001578514,-0.7961243,-2.459065,1.285777
17.00022,2.566666,124,145,499,497,-0.001163869,-0.002048143,0.005064171,-1.364797,-2.878304,-1.515876,-0.002659148,0.01307657,0.001593735,-0.7961611,-2.458736,1.285611
17.00022,2.577777,124,145,499,497,-3.885268E-05,-0.0126949,0.006185253,-1.364936,-2.87786,-1.516178,-0.001579233,0.008808135,0.001574879,-0.7962282,-2.458991,1.285633
17.00022,2.588888,124,145,499,497,0.001021456,-0.01056899,0.004047506,-1.364919,-2.8778,-1.516241,-0.0005290364,-0.001840769,-0.002700199,-0.7962719,-2.459433,1.285928
17.00022,2.599999,124,145,499,497,0.005274977,-0.01160089,0.005140399,-1.365185,-2.877759,-1.516248,0.000488352,-0.007156757,-0.01229874,-0.7966069,-2.459795,1.286072
17.00022,2.61111,121,141,498,497,0.005267667,-0.01053084,0.0062009,-1.365269,-2.877666,-1.516308,-0.0005447967,-0.01355338,-0.008040292,-0.7965669,-2.460211,1.286382
17.00022,2.622221,121,141,498,497,0.005235476,-0.006275066,0.004051672,-1.365254,-2.877763,-1.516072,-0.005861591,-0.009306539,-0.005872444,-0.796511,-2.460331,1.286657
17.00022,2.633332,121,141,498,497,0.007356798,-0.002026339,0.004037963,-1.3653,-2.877528,-1.516405,-0.006949892,0.0002846522,-0.007990807,-0.7967405,-2.460008,1.286542
17.00022,2.644443,121,141,498,497,0.007349459,0.0001228455,0.006158056,-1.365421,-2.877706,-1.516552,-0.006905323,0.01092358,0.0005368376,-0.7966303,-2.459575,1.286246
17.00022,2.655554,124,148,495,494,0.006306097,-0.003086299,0.006179713,-1.365606,-2.87745,-1.516754,-0.006888607,0.01412248,0.003734617,-0.7966079,-2.459103,1.285979
17.00022,2.666665,124,148,495,494,0.005207899,0.002261949,0.0114764,-1.365833,-2.877648,-1.516803,-0.006870748,0.01837914,0.006942211,-0.7964098,-2.458627,1.285685
17.00022,2.677776,124,148,495,494,0.007349626,0.001203728,0.01040157,-1.365665,-2.877673,-1.516999,-0.007932333,0.0173138,0.006945979,-0.7964242,-2.458389,1.28559
17.00022,2.688887,124,148,495,494,0.009485098,0.0001482811,0.01041114,-1.365787,-2.877635,-1.517167,-0.005832081,0.01518906,0.001605124,-0.7965877,-2.458285,1.285523
17.00022,2.699998,124,148,495,494,0.007365149,-0.00305255,0.01040769,-1.365708,-2.877582,-1.517142,-0.00479309,0.01093978,-0.002659493,-0.7966639,-2.458147,1.285517
17.00022,2.711109,123,153,500,497,0.004191346,-0.007333174,0.009354357,-1.365773,-2.877396,-1.517151,-0.002690656,0.00668441,-0.008001799,-0.7968833,-2.458326,1.28562
17.00022,2.72222,123,153,500,497,0.004233956,-0.0137358,0.006167083,-1.365469,-2.877146,-1.517348,-0.003721008,-0.00397968,-0.003752277,-0.796829,-2.458933,1.286122
17.00022,2.733331,123,153,500,497,0.003171156,-0.01480122,0.007234754,-1.365562,-2.876944,-1.517394,0.0005440833,-0.008233776,-0.003783191,-0.7968562,-2.459159,1.286177
17.00022,2.744442,123,153,500,497,0.001048105,-0.01482606,0.006169111,-1.365632,-2.876669,-1.517493,0.001591981,-0.001842662,-0.004849011,-0.7969638,-2.459003,1.286087
17.00022,2.755553,123,149,498,498,0.00105045,-0.01376963,0.002984595,-1.365802,-2.876601,-1.517514,0.0005135438,-0.001839993,-0.006973173,-0.7970942,-2.459027,1.286144
17.00022,2.766664,123,149,498,498,0.002104158,-0.01269145,0.005112235,-1.365915,-2.876426,-1.517599,0.003777301,-0.005042335,0.002593614,-0.7967299,-2.459168,1.286037
17.00022,2.777775,123,149,498,498,0.006392285,-0.01691999,0.006198387,-1.365884,-2.87624,-1.517941,-0.002565864,-0.002918521,0.00902942,-0.7964641,-2.458929,1.285883
17.00022,2.788886,123,149,498,498,0.006372607,-0.01160316,0.004043912,-1.365875,-2.876242,-1.517994,0.004842309,0.006681184,0.002598944,-0.7966937,-2.458533,1.285361
17.00022,2.799997,123,149,498,498,0.002110675,-0.01163782,0.002954355,-1.365662,-2.875965,-1.517919,0.006961433,0.01201128,-0.000609302,-0.7968998,-2.458261,1.284852
17.00022,2.811108,125,150,494,495,0.003185704,-0.01269992,0.0008453559,-1.365806,-2.875888,-1.518009,0.002664149,0.02160015,-0.004841735,-0.7972642,-2.457693,1.284558
17.00022,2.822219,125,150,494,495,-0.001102626,-0.007410913,-0.002403205,-1.365446,-2.875907,-1.517746,0.004813529,0.02373629,-0.001653158,-0.797246,-2.457117,1.284031
17.00022,2.83333,125,150,494,495,0.002097578,-0.008456795,-0.003439735,-1.365626,-2.875896,-1.517823,0.005891372,0.01734913,-0.000599632,-0.7972583,-2.457004,1.283881
17.00022,2.844441,125,150,494,495,0.005240192,8.095751E-05,-0.002424613,-1.36539,-2.87608,-1.517759,0.01016888,0.00349515,0.001494625,-0.7971022,-2.457552,1.28421
17.00022,2.855552,121,139,499,498,0.008407085,0.006487381,-0.001377387,-1.365466,-2.87626,-1.517934,0.01233622,-0.007167564,0.007868506,-0.7967256,-2.458021,1.284541
17.00022,2.866663,121,139,499,498,0.01049483,0.01181302,-0.002478861,-1.365201,-2.876467,-1.517765,0.01554295,-0.01781724,0.007841767,-0.7965131,-2.458623,1.284697
17.00022,2.877774,121,139,499,498,0.005153575,0.01494725,-0.005714983,-1.36484,-2.876372,-1.517581,0.01447311,-0.02100819,0.005709512,-0.7965328,-2.458932,1.284716
17.00022,2.888885,121,139,499,498,0.005160897,0.0138772,-0.006775483,-1.364748,-2.876491,-1.517607,0.01339698,-0.01674737,0.004653642,-0.79647,-2.459027,1.284666
17.00022,2.899997,121,139,499,498,0.003025294,0.0138741,-0.004648083,-1.364794,-2.876594,-1.517556,0.0123544,-0.009293953,0.007865693,-0.7962559,-2.458794,1.284242
17.00022,2.911108,116,150,500,496,0.0009215344,0.01064459,-0.009964952,-1.364531,-2.876627,-1.517501,0.01344876,0.006681521,0.0153271,-0.7960497,-2.457959,1.283496
17.00022,2.922219,116,150,500,496,0.001968219,0.01280635,-0.0046256,-1.364916,-2.876849,-1.51757,0.007104043,0.02051679,0.02496137,-0.7957392,-2.457001,1.28289
17.00022,2.93333,116,150,500,496,0.003024942,0.01388699,-0.005676783,-1.365072,-2.877249,-1.517445,0.007121086,0.02264874,0.0281564,-0.7954926,-2.456417,1.282424
17.00022,2.944441,116,150,500,496,0.0009008723,0.01173262,-0.008878547,-1.364741,-2.877337,-1.517224,0.005985342,0.009871926,0.01429686,-0.7957664,-2.456901,1.282715
17.00022,2.955552,113,139,498,497,-0.002258597,0.006367071,-0.01312301,-1.364481,-2.877203,-1.517181,0.00597307,-0.003970377,0.01002293,-0.795719,-2.457395,1.282994
17.00022,2.966663,113,139,498,497,0.002027243,0.001070167,-0.01309721,-1.364247,-2.877237,-1.517308,0.007013124,-0.0124823,0.004688665,-0.7956386,-2.457787,1.283173
17.00022,2.977774,113,139,498,497,0.001039252,-0.008570408,-0.0215749,-1.363826,-2.876786,-1.517583,0.005927192,-0.01780647,0.0004292133,-0.7956614,-2.458283,1.283497
17.00022,2.988885,113,139,498,497,0.00426447,-0.01389157,-0.02367436,-1.363503,-2.87651,-1.517767,0.003830479,-0.007155402,0.006851887,-0.7953776,-2.457688,1.283022
17.00022,2.999996,113,139,498,497,0.002161598,-0.01604844,-0.02474779,-1.363019,-2.876142,-1.518017,0.0006442501,-0.006100096,0.01007687,-0.7950324,-2.457684,1.283228
17.00022,3.011107,125,157,501,500,0.002142042,-0.01284308,-0.02263157,-1.362816,-2.87609,-1.518063,-0.0003908081,0.002416875,0.01648082,-0.7947618,-2.45714,1.282852
17.00022,3.022218,125,157,501,500,0.004210114,0.002084342,-0.01736803,-1.362794,-2.876251,-1.518383,-0.003611986,0.004546912,0.01329875,-0.7948402,-2.457047,1.28296
17.00022,3.033329,125,157,501,500,0.003070212,0.01806021,-0.009992612,-1.36276,-2.876404,-1.518611,-0.005746329,0.008808296,0.01331863,-0.7947267,-2.456633,1.282765
17.00022,3.04444,125,157,501,500,0.005166535,0.02765816,-0.01216914,-1.362497,-2.877138,-1.518632,-0.003614143,0.006677032,0.0133109,-0.7944822,-2.456588,1.282715
17.00022,3.055551,125,157,501,500,0.003007208,0.03299177,-0.007918129,-1.362824,-2.877606,-1.518595,-0.002527647,0.01093902,0.0175664,-0.7942771,-2.456123,1.282402
17.00022,3.066662,118,131,501,501,-0.0001836235,0.02977433,-0.007910551,-1.362732,-2.877743,-1.518349,-0.008916324,0.00666612,0.01760655,-0.7939948,-2.456185,1.282739
17.00022,3.077773,118,131,501,501,-0.002286451,0.02337109,-0.007872863,-1.362816,-2.877805,-1.518237,-0.001479472,-0.001852065,0.01328833,-0.7939544,-2.456672,1.282921
17.00022,3.088884,118,131,501,501,-0.002244933,0.01695558,-0.01317057,-1.362543,-2.877838,-1.518211,-0.003661905,-0.008239575,0.003709471,-0.7941088,-2.457119,1.283315
17.00022,3.099995,118,131,501,501,-0.003299068,0.0127055,-0.008900442,-1.362453,-2.877851,-1.51816,-0.001550609,-0.008231301,0.0004989794,-0.7941775,-2.457175,1.283324
17.00022,3.111106,130,125,498,498,-6.403541E-05,0.005253778,-0.01099031,-1.362248,-2.877708,-1.518271,-0.001577313,-0.008223085,-0.003767473,-0.7944342,-2.457285,1.283424
17.00022,3.122217,130,125,498,498,-3.235461E-05,-8.480099E-05,-0.009898045,-1.362176,-2.877337,-1.518487,-0.004757024,-0.01248982,-0.002688479,-0.794382,-2.457655,1.283744
17.00022,3.133328,130,125,498,498,0.00106295,-0.005395608,-0.009847573,-1.362409,-2.877278,-1.518602,-0.002583478,-0.010361,0.004753051,-0.7941861,-2.457611,1.28369
17.00022,3.144439,130,125,498,498,-0.002134437,-0.007519393,-0.005587081,-1.3624,-2.877164,-1.518492,-0.003667078,-0.01035809,0.003694979,-0.7941621,-2.457682,1.283969
17.00022,3.15555,130,125,498,498,0.002106993,-0.004287744,-0.003439247,-1.362747,-2.877297,-1.518597,-0.002599176,-0.007157557,0.004752933,-0.7941434,-2.457628,1.28396
17.00022,3.166661,116,116,499,498,0.002055357,0.003197715,0.00291265,-1.362823,-2.877529,-1.518516,-0.005764898,0.003495877,0.009023823,-0.7942761,-2.457079,1.28351
17.00022,3.177772,116,116,499,498,-0.0001095496,0.00958255,0.005009932,-1.362934,-2.877692,-1.518417,-0.007903857,0.004558669,0.01010924,-0.7940779,-2.456911,1.283725
17.00022,3.188883,116,116,499,498,0.0009215157,0.01493292,0.00924956,-1.363152,-2.877969,-1.518393,-0.01006586,0.00988581,0.005864726,-0.7941924,-2.456566,1.28363
17.00022,3.199994,116,116,499,498,-0.004395658,0.0138403,0.008189334,-1.36337,-2.878111,-1.518197,-0.005788944,0.006702543,0.00476054,-0.7943459,-2.456486,1.283262
17.00022,3.211105,125,114,494,498,-0.00441038,0.01703613,0.008174981,-1.363479,-2.878377,-1.518111,-0.005780258,0.004571226,0.005824358,-0.7942441,-2.456438,1.283288
17.00022,3.222216,125,114,494,498,-0.004399026,0.01381471,0.007107046,-1.363296,-2.878165,-1.518019,-0.01006,-0.002877056,-0.000546196,-0.7943736,-2.456653,1.283489
17.00022,3.233327,125,114,494,498,-0.005441886,0.009550772,0.003949174,-1.363578,-2.878369,-1.51782,-0.01009181,-0.01032792,-0.006947004,-0.794585,-2.457151,1.283949
17.00022,3.244438,125,114,494,498,-0.004354705,0.003177318,0.006090881,-1.363429,-2.878302,-1.517772,-0.006871143,-0.008195531,-0.008055024,-0.7950132,-2.457405,1.283637
17.00022,3.255549,125,114,494,498,-0.002187376,-0.004274196,0.006132415,-1.363544,-2.877981,-1.517921,-0.005806777,-0.007127745,-0.008056914,-0.79505,-2.457475,1.283724
17.00022,3.26666,121,152,497,497,0.004196886,-0.005297761,0.008259,-1.363367,-2.877965,-1.518025,-0.005826544,-0.009265848,-0.01017899,-0.7949626,-2.45788,1.284221
17.00022,3.277771,121,152,497,497,0.00208002,-0.008495967,0.009353472,-1.363757,-2.877817,-1.518026,-0.0005238373,-0.01565278,-0.01339545,-0.7948577,-2.458392,1.284615
17.00022,3.288882,121,152,497,497,0.004121131,0.002187258,0.01568465,-1.363889,-2.878031,-1.517732,0.002634108,-0.01671051,-0.01980731,-0.7951709,-2.458864,1.284851
17.00022,3.299993,121,152,497,497,0.005140749,0.01073734,0.0209556,-1.363962,-2.878324,-1.517822,0.001576651,-0.01991619,-0.01766078,-0.7950111,-2.459393,1.285357
17.00022,3.311104,121,152,497,497,0.00938722,0.0128971,0.02308621,-1.364267,-2.878507,-1.518005,0.004826644,-0.02204918,-0.009159488,-0.7947853,-2.459781,1.285484
17.00022,3.322215,109,128,496,498,0.009313663,0.02571628,0.02621234,-1.364474,-2.87948,-1.517786,0.004837221,-0.01567055,-0.004893235,-0.7946724,-2.459913,1.285659
17.00022,3.333326,109,128,496,498,0.01355795,0.03210402,0.02619404,-1.364783,-2.879614,-1.518204,0.009091003,-0.01460202,-0.005980014,-0.7946915,-2.46015,1.285604
17.00022,3.344437,109,128,496,498,0.01251121,0.03103677,0.0251254,-1.364961,-2.880032,-1.518386,0.00905513,-0.01566003,-0.01129738,-0.7947693,-2.460432,1.285776
17.00022,3.355548,109,128,496,498,0.01251407,0.03314206,0.02191833,-1.365098,-2.88028,-1.51853,0.01114691,-0.01565451,-0.01769886,-0.7950287,-2.460815,1.285872
17.00022,3.366659,116,114,498,499,0.01254082,0.02780876,0.01872715,-1.364943,-2.880563,-1.518521,0.01218728,-0.01245787,-0.02195691,-0.7952359,-2.461052,1.2858
17.00022,3.37777,116,114,498,499,0.009395859,0.01925808,0.01554761,-1.364815,-2.880558,-1.518619,0.01432603,-0.01458679,-0.02089613,-0.7952188,-2.461335,1.285808
17.00022,3.388881,116,114,498,499,0.01154599,0.01606254,0.01343621,-1.364901,-2.880643,-1.518789,0.01013639,-0.01459914,-0.009152101,-0.7949781,-2.461467,1.285892
17.00022,3.399992,116,114,498,499,0.01475331,0.01393746,0.01027152,-1.365155,-2.880824,-1.518915,0.01227287,-0.01566122,-0.007036498,-0.7949792,-2.461714,1.285976
17.00022,3.411103,116,114,498,499,0.01155018,0.01393704,0.01346016,-1.365414,-2.880976,-1.518906,0.01334363,-0.0209866,-0.007046635,-0.7949621,-2.462251,1.286178
17.00022,3.422215,114,122,499,501,0.01151868,0.01714459,0.01238496,-1.365607,-2.881505,-1.518618,0.009075804,-0.02205545,-0.008087625,-0.7950329,-2.462684,1.286514
17.00022,3.433326,114,122,499,501,0.009375761,0.02138233,0.01236038,-1.365763,-2.881662,-1.518721,0.01225931,-0.02311169,-0.0102438,-0.7952124,-2.463069,1.286568
17.00022,3.444437,114,122,499,501,0.005108085,0.02563305,0.0123302,-1.365919,-2.882188,-1.518743,0.007994471,-0.01779493,-0.009145323,-0.7951996,-2.463224,1.286748
17.00022,3.455548,114,122,499,501,0.004048405,0.02562199,0.01021378,-1.366224,-2.882514,-1.518713,0.01116933,-0.01034619,-0.009167206,-0.7953632,-2.463437,1.286884
17.00022,3.466659,106,123,497,493,-0.000207928,0.02559121,0.008067371,-1.36617,-2.882808,-1.518515,0.01227256,-0.01567517,-0.003850939,-0.7951666,-2.463824,1.287006
17.00022,3.47777,106,123,497,493,-0.0002197754,0.02878872,0.005944017,-1.36652,-2.883386,-1.518365,0.01009724,-0.01674275,-0.01022813,-0.7953376,-2.464315,1.287384
17.00022,3.488881,106,123,497,493,-0.003415059,0.02878016,0.006997033,-1.366551,-2.88375,-1.518198,0.01328418,-0.02099251,-0.01238355,-0.7954739,-2.464733,1.287451
17.00022,3.499992,106,123,497,493,-0.004467473,0.02664635,0.005951243,-1.366777,-2.884085,-1.51806,0.01221776,-0.01780912,-0.01131362,-0.7955512,-2.465147,1.287683
17.00022,3.511103,106,123,497,493,-0.004489533,0.03091222,0.006997385,-1.366927,-2.884575,-1.517906,0.007995466,-0.0178176,-0.004895661,-0.7953728,-2.46537,1.287868
17.00022,3.522214,94,168,499,494,-0.006617731,0.03089333,0.008057857,-1.367044,-2.884711,-1.517808,0.005876497,-0.01356732,-0.001687386,-0.7953318,-2.465568,1.288029
17.00022,3.533325,94,168,499,494,-0.009781169,0.02554954,0.007024038,-1.367306,-2.884879,-1.517648,0.003741896,-0.01356269,-0.002741647,-0.7954042,-2.465693,1.288073
17.00022,3.544436,94,168,499,494,-0.01190931,0.02448086,0.007006197,-1.367145,-2.885238,-1.51737,0.002686881,-0.0103661,-0.0006054617,-0.7954037,-2.465672,1.288035
17.00022,3.555547,94,168,499,494,-0.01186515,0.01807493,0.004894175,-1.366987,-2.885211,-1.517409,0.004832803,-0.01675326,0.001509121,-0.7952369,-2.46605,1.28823
17.00022,3.566658,114,155,500,501,-0.0118161,0.008477913,0.002806651,-1.366953,-2.88506,-1.517293,0.0102253,-0.02421135,0.01105903,-0.7947384,-2.466535,1.288296
17.00022,3.577769,114,155,500,501,-0.01602494,0.004164423,-0.0003806385,-1.366845,-2.884755,-1.517435,0.0123174,-0.02740426,0.004648549,-0.7948012,-2.467199,1.288615
17.00022,3.58888,114,155,500,501,-0.01388209,0.0009832005,0.000703813,-1.366885,-2.884672,-1.517356,0.01650323,-0.01780289,-0.006027888,-0.7952673,-2.467253,1.288407
17.00022,3.599991,114,155,500,501,-0.01708782,0.002051929,0.006014874,-1.367033,-2.884651,-1.517207,0.01438267,-0.01355331,-0.003878107,-0.7951448,-2.467427,1.288408
17.00022,3.611102,114,155,500,501,-0.01069859,0.003141941,0.004959276,-1.367058,-2.884712,-1.51725,0.01121378,-0.008227325,0.00147044,-0.7949962,-2.467182,1.2882
17.00022,3.622213,126,133,498,499,-0.01070905,0.005302083,0.006018563,-1.367199,-2.88518,-1.517067,0.01013828,0.002422168,0.001482857,-0.7950766,-2.466832,1.287859
17.00022,3.633324,126,133,498,499,-0.00856123,0.004227769,0.003878241,-1.366886,-2.885089,-1.517133,0.01118333,0.005618783,-0.0006430219,-0.7950639,-2.466709,1.287662
17.00022,3.644435,126,133,498,499,-0.01176688,0.006343579,0.00386145,-1.366938,-2.885196,-1.516902,0.005839521,0.01626698,-0.001668584,-0.7952188,-2.466141,1.287327
17.00022,3.655546,126,133,498,499,-0.007478356,-0.001077152,0.002852424,-1.367144,-2.885277,-1.516782,0.003691293,0.02583858,-0.002711614,-0.7953137,-2.465723,1.287079
17.00022,3.666657,126,133,498,499,-0.005343111,-0.002129062,0.003926028,-1.367176,-2.885215,-1.516791,0.005809945,0.0247769,-0.004855882,-0.7954857,-2.465415,1.286742
17.00022,3.677768,127,134,499,497,-0.003207171,-2.39505E-05,0.0007095194,-1.366871,-2.884985,-1.516967,0.007892316,0.007743144,-0.01446328,-0.7957142,-2.466039,1.287101
17.00022,3.688879,127,134,499,497,0.003155126,0.005341464,0.002830666,-1.366976,-2.885173,-1.51712,0.01223933,-0.007170398,-0.002786316,-0.7954314,-2.466476,1.287178
17.00022,3.69999,127,134,499,497,0.007382855,0.008604575,0.008152,-1.367236,-2.885678,-1.517093,0.01870173,-0.003989905,0.008891308,-0.7950537,-2.466518,1.286809
17.00022,3.711101,127,134,499,497,0.004179634,0.01071561,0.007069914,-1.367294,-2.88587,-1.516984,0.02192531,-0.0125089,0.01205759,-0.7948076,-2.466892,1.286751
17.00022,3.722212,109,141,498,494,-0.001196482,0.02242518,0.008071319,-1.367459,-2.886585,-1.516765,0.01231882,-0.008257964,0.01212683,-0.7946042,-2.466971,1.286999
17.00022,3.733323,109,141,498,494,-0.003363026,0.0288307,0.01125542,-1.367998,-2.887171,-1.516596,0.01232087,-0.009319903,0.01212203,-0.7944982,-2.46692,1.286928
17.00022,3.744434,109,141,498,494,-0.002292844,0.02777034,0.01126261,-1.368138,-2.887451,-1.516532,0.003812568,0.008761142,0.01644181,-0.7943927,-2.466375,1.28664
17.00022,3.755545,109,141,498,494,-0.004390091,0.02350377,0.01129499,-1.368518,-2.887643,-1.516585,0.0005982742,0.02154144,0.01434292,-0.7943959,-2.465621,1.286062
17.00022,3.766656,109,141,498,494,-0.0032832,0.01603746,0.008134984,-1.368506,-2.887617,-1.516584,0.001707928,0.02260291,0.02179407,-0.7940721,-2.465075,1.285636
17.00022,3.777767,104,126,498,498,-0.002146942,0.002186568,0.003925147,-1.368257,-2.887463,-1.516586,-0.001550207,0.009834008,0.01009349,-0.7941216,-2.465268,1.285914
17.00022,3.788878,104,126,498,498,-0.004238354,-0.004233962,-0.0003121638,-1.368117,-2.887226,-1.516519,-0.005880538,0.001315717,-0.002669543,-0.794413,-2.465722,1.286414
17.00022,3.799989,104,126,498,498,-0.007373556,-0.01598432,-0.005600407,-1.367791,-2.886847,-1.516355,-0.002752393,-0.004007502,-0.01548396,-0.7949643,-2.466384,1.286738
17.00022,3.8111,104,126,498,498,-0.00417018,-0.01598001,-0.006641978,-1.367915,-2.886599,-1.516523,-0.001649495,-0.002945449,-0.009099814,-0.7948875,-2.466362,1.286695
17.00022,3.822211,108,137,496,496,-0.007372963,-0.01599008,-0.005585339,-1.367841,-2.886448,-1.516312,-0.004861274,0.003441344,-0.009074584,-0.7949999,-2.466153,1.286834
17.00022,3.833322,108,137,496,496,-0.003135854,-0.01274699,-0.002394681,-1.367871,-2.886564,-1.516346,-0.009104127,0.004504835,-0.005850732,-0.7950138,-2.465952,1.286923
17.00022,3.844433,108,137,496,496,-0.00316034,-0.007420616,-0.002418544,-1.367855,-2.88662,-1.516303,-0.01225819,0.01196193,0.00270781,-0.7947384,-2.465116,1.286603
17.00022,3.855544,108,137,496,496,-0.002097716,-0.005294155,-0.002408424,-1.36807,-2.886474,-1.516438,-0.01120576,0.01303222,0.00270732,-0.7947277,-2.464789,1.286625
17.00022,3.866655,108,137,496,496,-0.003242351,0.005369194,0.001789742,-1.368053,-2.886797,-1.516004,-0.01334706,0.004509747,-0.0004811513,-0.7947789,-2.465082,1.287039
17.00022,3.877766,113,156,498,498,0.0009753266,0.01284921,0.00283302,-1.36814,-2.887102,-1.515969,-0.01015144,-0.001873802,-0.001575009,-0.7948571,-2.465282,1.287196
17.00022,3.888877,113,156,498,498,-0.0001021936,0.01497961,0.003886346,-1.368232,-2.887328,-1.515895,-0.009098054,-0.002936607,-0.003712757,-0.7949328,-2.465411,1.287353
17.00022,3.899988,113,156,498,498,-0.002236544,0.01390673,0.005997485,-1.368099,-2.887312,-1.515755,-0.01123755,-0.001860661,-0.005824158,-0.7950196,-2.465144,1.287283
17.00022,3.911099,113,156,498,498,0.0009822804,0.01070834,0.007086084,-1.368222,-2.887036,-1.516086,-0.008043086,-0.007178293,-0.006913213,-0.7950761,-2.465353,1.287434
17.00022,3.92221,119,144,498,497,0.002039989,0.006464587,0.01136361,-1.368399,-2.886874,-1.515926,-0.01022263,-0.01037523,-0.01648449,-0.7953339,-2.465848,1.287851
17.00022,3.933321,119,144,498,497,0.006317656,0.00433955,0.01138215,-1.368504,-2.886672,-1.516253,-0.01234792,-0.002919771,-0.01433622,-0.7954713,-2.465604,1.287873
17.00022,3.944432,119,144,498,497,0.0148372,0.003303131,0.00926847,-1.368448,-2.886718,-1.516469,-0.009146824,-0.001848173,-0.01541494,-0.7955991,-2.465606,1.287686
17.00022,3.955544,119,144,498,497,0.01588855,0.005413027,0.01031717,-1.368446,-2.886398,-1.516691,-0.005988106,-0.007173232,-0.02289242,-0.7959214,-2.466214,1.288048
17.00022,3.966655,119,144,498,497,0.01801921,0.002255606,0.01672801,-1.368796,-2.886319,-1.51696,-0.004940186,-0.002909565,-0.02502666,-0.7962639,-2.466235,1.288086
17.00022,3.977766,147,148,487,498,0.01904807,0.005468676,0.01779717,-1.369252,-2.88655,-1.516885,-0.003878273,0.0002878299,-0.02502979,-0.7965014,-2.466192,1.288072
17.00022,3.988877,147,148,487,498,0.02545205,0.000200947,0.02424516,-1.369932,-2.886372,-1.517405,-0.007067611,0.0002838518,-0.02394504,-0.7967342,-2.466288,1.288309
17.00022,3.999988,147,148,487,498,0.02970542,-0.0008485955,0.02425024,-1.370047,-2.886268,-1.517686,-0.008147203,0.0002768459,-0.02606868,-0.7970314,-2.466602,1.288688
17.00022,4.011099,147,148,487,498,0.03291095,-0.004013048,0.02641657,-1.370573,-2.886199,-1.518148,-0.004964475,0.0002822764,-0.02821978,-0.7973984,-2.466756,1.288759
16.80022,4.02221,147,148,487,498,0.04570309,-0.003931252,0.02963902,-1.370951,-2.886259,-1.519219,0.001391412,0.005607521,-0.03144768,-0.7977872,-2.466814,1.288761
16.60022,4.033321,150,153,498,494,0.05632171,0.0004124438,0.03391757,-1.371609,-2.886545,-1.519986,0.01097299,-0.001839198,-0.03149391,-0.797833,-2.467173,1.288826
16.40022,4.044433,150,153,498,494,0.06484264,0.001524727,0.03499613,-1.371999,-2.88661,-1.520964,0.02267805,-0.001825769,-0.03369585,-0.7982373,-2.467366,1.288394
16.20021,4.055544,150,153,498,494,0.07018182,-0.0005596636,0.03716595,-1.372712,-2.886684,-1.521944,0.02586566,-0.007145047,-0.03585505,-0.7987177,-2.467828,1.288357
16.00021,4.066655,150,153,498,494,0.07869434,-0.0005012908,0.0414464,-1.373288,-2.886673,-1.523041,0.03014816,-0.008210961,-0.03161075,-0.7988109,-2.468068,1.288132
15.80021,4.077766,147,179,499,497,0.08618227,-0.007907626,0.04361267,-1.373603,-2.886479,-1.524228,0.03230299,-0.007147744,-0.02628229,-0.7987411,-2.468133,1.287889
15.60021,4.088878,147,179,499,497,0.09262566,-0.01958999,0.04581494,-1.374203,-2.885895,-1.525578,0.03018432,-0.00608601,-0.02413807,-0.7989414,-2.468244,1.287697
15.40021,4.099989,147,179,499,497,0.09908861,-0.03129375,0.04054293,-1.374311,-2.885364,-1.527002,0.02592993,0.007758619,-0.020916,-0.7993723,-2.467685,1.287106
15.20021,4.1111,147,179,499,497,0.1067327,-0.06856801,0.03328631,-1.37465,-2.883659,-1.5287,0.02168709,0.01520871,-0.01662445,-0.7995902,-2.467208,1.286629
15.00021,4.122211,147,179,499,497,0.1111723,-0.105871,0.02492003,-1.374326,-2.8815,-1.53028,0.01751448,0.01732458,-0.003820134,-0.7994639,-2.46689,1.28614
14.80021,4.133323,124,167,495,497,0.1220105,-0.1431228,0.01551954,-1.374136,-2.879402,-1.532181,0.02602984,0.01733928,-0.00494213,-0.7996802,-2.466594,1.285403
14.60021,4.144434,124,167,495,497,0.1317499,-0.1729348,0.009283211,-1.373976,-2.876708,-1.534408,0.03560813,0.01628696,-0.008194637,-0.7998852,-2.46644,1.284493
14.40022,4.155545,124,167,495,497,0.1349917,-0.1803899,0.003999416,-1.373859,-2.874718,-1.536326,0.05582558,0.01312197,-0.01471428,-0.8002735,-2.466372,1.283123
14.20022,4.166656,124,167,495,497,0.1403745,-0.1920881,0.002998743,-1.373783,-2.87222,-1.53852,0.06113493,-0.008174337,-0.02115224,-0.8004653,-2.467404,1.283028
14.00022,4.177768,110,145,497,496,0.1445763,-0.1814322,0.007210068,-1.373763,-2.869991,-1.540655,0.06009965,-0.01668835,-0.01902183,-0.8005452,-2.467745,1.282557
13.80022,4.188879,110,145,497,496,0.1498569,-0.1718166,0.01144281,-1.373968,-2.868076,-1.542958,0.0633266,-0.009229787,-0.01264413,-0.8005707,-2.467575,1.281642
13.60022,4.19999,110,145,497,496,0.156185,-0.1621867,0.01459853,-1.374004,-2.866442,-1.544994,0.06546775,-0.001771934,-0.01051282,-0.8005638,-2.467315,1.280589
13.40022,4.211102,110,145,497,496,0.1582989,-0.1568579,0.01353886,-1.374417,-2.864732,-1.547213,0.05163085,0.01206123,-0.00615765,-0.8006676,-2.466568,1.279874
13.20022,4.222213,110,145,497,496,0.1625636,-0.1632515,0.01143238,-1.374235,-2.86252,-1.549124,0.04417999,0.01950643,-0.002905477,-0.8006469,-2.466031,1.279279
13.00022,4.233324,98,130,496,498,0.1669083,-0.1813401,0.008336332,-1.374313,-2.860193,-1.551429,0.03998649,0.02269171,0.008837426,-0.8003944,-2.465411,1.278507
12.80022,4.244435,98,130,496,498,0.1669511,-0.1952174,0.005181886,-1.37396,-2.857414,-1.553426,0.03786401,0.0248135,0.01098449,-0.8002586,-2.464987,1.277851
12.60022,4.255547,98,130,496,498,0.1787468,-0.212202,0.002108712,-1.374097,-2.85479,-1.556131,0.02930366,0.02374917,0.004640508,-0.8005154,-2.464635,1.277549
12.40022,4.266658,98,130,496,498,0.1851383,-0.2132472,0.002128351,-1.374074,-2.852243,-1.55876,0.03347393,0.02269961,-0.01029362,-0.801017,-2.464505,1.277013
12.20022,4.277769,104,209,499,495,0.1957123,-0.2046733,0.005308367,-1.374144,-2.849986,-1.561204,0.0473233,0.01206011,-0.01253024,-0.8013452,-2.464913,1.276349
12.00022,4.28888,104,209,499,495,0.203118,-0.1929225,0.009521499,-1.374182,-2.847844,-1.564216,0.05051396,-0.001783386,-0.01575447,-0.8015108,-2.465543,1.276145
11.80022,4.299992,104,209,499,495,0.215794,-0.1778989,0.02226099,-1.374652,-2.846105,-1.567146,0.05478507,-0.01137486,-0.01472273,-0.8014805,-2.466239,1.276013
11.60022,4.311103,104,209,499,495,0.2296236,-0.1735754,0.02440922,-1.375023,-2.844081,-1.570514,0.05263834,-0.01457091,-0.01790764,-0.8016802,-2.466692,1.275804
11.40022,4.322214,104,209,499,495,0.2413314,-0.176715,0.02656442,-1.375132,-2.841893,-1.573653,0.05149977,-0.006046414,-0.02748145,-0.8022624,-2.466687,1.275386
11.20022,4.333325,122,169,494,495,0.2584307,-0.1862415,0.02664943,-1.375474,-2.839321,-1.57762,0.05566157,0.009940647,-0.04027622,-0.803089,-2.466337,1.274483
11.00022,4.344437,122,169,494,495,0.2701891,-0.1979062,0.02671543,-1.37561,-2.836814,-1.581194,0.05665749,0.02060081,-0.04986336,-0.8040286,-2.46597,1.273571
10.80022,4.355548,122,169,494,495,0.2840827,-0.204259,0.02676537,-1.37579,-2.83403,-1.585413,0.05654803,0.0301939,-0.06584876,-0.8054081,-2.46588,1.272923
10.60022,4.366659,122,169,494,495,0.2926055,-0.2063334,0.02998628,-1.376204,-2.831674,-1.589305,0.05647875,0.04618288,-0.07436894,-0.8068132,-2.465033,1.27172
10.40022,4.37777,122,169,494,495,0.3043012,-0.2030727,0.03638737,-1.376774,-2.829283,-1.593555,0.06173826,0.06643002,-0.0829121,-0.8082933,-2.463924,1.270051
10.20022,4.388882,142,198,494,504,0.318049,-0.186985,0.04913122,-1.377743,-2.82704,-1.598435,0.07125857,0.0781656,-0.09255289,-0.81001,-2.462787,1.26803
10.00022,4.399993,142,198,494,504,0.318049,-0.186985,0.04913122,-1.377743,-2.82704,-1.598435,0.07125857,0.0781656,-0.09255289,-0.81001,-2.462787,1.26803
9.80022,4.411104,142,198,494,504,0.3242174,-0.1538884,0.06827819,-1.379614,-2.823848,-1.606246,0.07330664,0.06432992,-0.108556,-0.8129198,-2.462355,1.266129
9.60022,4.422215,142,198,494,504,0.3284143,-0.1357142,0.07236885,-1.380541,-2.823246,-1.609614,0.07431775,0.05794515,-0.1170889,-0.8143036,-2.462406,1.265551
9.40022,4.433327,162,230,498,497,0.3335199,-0.09836787,0.08498725,-1.381696,-2.822708,-1.613439,0.08817077,0.02919725,-0.1203851,-0.8156645,-2.463456,1.265009
9.20022,4.444438,162,230,498,497,0.3335199,-0.09836787,0.08498725,-1.381696,-2.822708,-1.613439,0.08817077,0.02919725,-0.1203851,-0.8156645,-2.463456,1.265009
9.00022,4.455549,162,230,498,497,0.3408045,-0.0652713,0.09551327,-1.384076,-2.821965,-1.621122,0.09569854,0.01641417,-0.1108569,-0.817845,-2.464295,1.263363
8.80022,4.46666,162,230,498,497,0.3438173,-0.03540008,0.1060249,-1.385328,-2.822312,-1.624632,0.1011226,-0.0006463379,-0.09919623,-0.818505,-2.465604,1.26284
8.600221,4.477772,162,230,498,497,0.3468932,-0.01086726,0.1144468,-1.388105,-2.822701,-1.632515,0.109573,-0.008085132,-0.1141627,-0.8212001,-2.467358,1.261224
8.400221,4.488883,121,198,501,506,0.3572925,0.0318445,0.1302466,-1.391182,-2.824845,-1.640079,0.109466,0.01856081,-0.1280022,-0.8248353,-2.467019,1.258493
8.200221,4.499994,121,198,501,506,0.3572925,0.0318445,0.1302466,-1.391182,-2.824845,-1.640079,0.109466,0.01856081,-0.1280022,-0.8248353,-2.467019,1.258493
8.000221,4.511106,121,198,501,506,0.3572396,0.0425124,0.1355269,-1.394285,-2.826218,-1.647888,0.1265553,0.03881475,-0.1163636,-0.827229,-2.4658,1.254377
7.800221,4.522217,121,198,501,506,0.3572396,0.0425124,0.1355269,-1.394285,-2.826218,-1.647888,0.1265553,0.03881475,-0.1163636,-0.827229,-2.4658,1.254377
7.600222,4.533328,110,294,497,495,0.3572348,0.04143669,0.1365839,-1.39712,-2.827135,-1.655529,0.124479,0.02389759,-0.1099662,-0.8293254,-2.466636,1.252249
7.400222,4.544439,110,294,497,495,0.3572348,0.04143669,0.1365839,-1.39712,-2.827135,-1.655529,0.124479,0.02389759,-0.1099662,-0.8293254,-2.466636,1.252249
7.200222,4.555551,110,294,497,495,0.3593385,0.04572178,0.1397751,-1.400369,-2.828609,-1.663368,0.1415335,-0.01335716,-0.1143524,-0.8314139,-2.469769,1.250626
7.000222,4.566662,110,294,497,495,0.3593385,0.04572178,0.1397751,-1.400369,-2.828609,-1.663368,0.1415335,-0.01335716,-0.1143524,-0.8314139,-2.469769,1.250626
6.800222,4.577773,105,239,499,493,0.3561508,0.04569538,0.1365704,-1.403161,-2.829919,-1.670995,0.1235022,-0.01551071,-0.1035986,-0.8331732,-2.471241,1.249458
6.600223,4.588884,105,239,499,493,0.3561508,0.04569538,0.1365704,-1.403161,-2.829919,-1.670995,0.1235022,-0.01551071,-0.1035986,-0.8331732,-2.471241,1.249458
6.400223,4.599996,105,239,499,493,0.3572481,0.04139947,0.1291375,-1.405705,-2.830883,-1.678796,0.1106032,0.01218434,-0.1184136,-0.8364792,-2.470933,1.247209
6.200223,4.611107,105,239,499,493,0.3572481,0.04139947,0.1291375,-1.405705,-2.830883,-1.678796,0.1106032,0.01218434,-0.1184136,-0.8364792,-2.470933,1.247209
6.000223,4.622218,105,239,499,493,0.3540598,0.04348735,0.124853,-1.408109,-2.832053,-1.686512,0.1362603,0.01540421,-0.103664,-0.838533,-2.47102,1.243354
5.800223,4.633329,105,239,499,493,0.3540598,0.04348735,0.124853,-1.408109,-2.832053,-1.686512,0.1362603,0.01540421,-0.103664,-0.838533,-2.47102,1.243354
5.600224,4.644441,110,251,495,489,0.3294227,0.07108734,0.1310646,-1.410856,-2.83474,-1.692748,0.1427158,-0.006956875,-0.09626659,-0.8401629,-2.472896,1.241279
5.400224,4.655552,110,251,495,489,0.3294227,0.07108734,0.1310646,-1.410856,-2.83474,-1.692748,0.1427158,-0.006956875,-0.09626659,-0.8401629,-2.472896,1.241279
5.200224,4.666663,110,251,495,489,0.2664528,0.1058775,0.1232904,-1.412629,-2.838101,-1.696095,0.1406355,-0.01867303,-0.09199311,-0.8416995,-2.474693,1.239291
5.000224,4.677774,110,251,495,489,0.2664528,0.1058775,0.1232904,-1.412629,-2.838101,-1.696095,0.1406355,-0.01867303,-0.09199311,-0.8416995,-2.474693,1.239291
4.800224,4.688886,111,248,500,491,0.3249768,0.1221126,0.1265328,-1.414908,-2.841415,-1.705268,0.140649,-0.02505754,-0.08558226,-0.8427269,-2.476026,1.237493
4.600224,4.699997,111,248,500,491,0.3249768,0.1221126,0.1265328,-1.414908,-2.841415,-1.705268,0.140649,-0.02505754,-0.08558226,-0.8427269,-2.476026,1.237493
4.400225,4.711108,111,248,500,491,0.3432072,0.10192,0.1170696,-1.416831,-2.843402,-1.713413,0.1353111,-0.009091362,-0.08234073,-0.8444447,-2.476405,1.235049
4.200225,4.722219,111,248,500,491,0.3432072,0.10192,0.1170696,-1.416831,-2.843402,-1.713413,0.1353111,-0.009091362,-0.08234073,-0.8444447,-2.476405,1.235049
4.000225,4.733331,108,299,499,492,0.2964399,0.08355895,0.1064015,-1.418714,-2.845011,-1.718031,0.1279269,-0.005913883,-0.06843758,-0.8453256,-2.476878,1.232941
3.800225,4.744442,108,299,499,492,0.2964399,0.08355895,0.1064015,-1.418714,-2.845011,-1.718031,0.1279269,-0.005913883,-0.06843758,-0.8453256,-2.476878,1.232941
3.600225,4.755553,108,299,499,492,0.2911437,0.08029719,0.09468558,-1.420137,-2.847033,-1.723829,0.1396813,0.0068551,-0.05784531,-0.8462269,-2.476796,1.229611
3.400225,4.766665,108,299,499,492,0.2911437,0.08029719,0.09468558,-1.420137,-2.847033,-1.723829,0.1396813,0.0068551,-0.05784531,-0.8462269,-2.476796,1.229611
3.200225,4.777776,108,299,499,492,0.311341,0.09422096,0.08721454,-1.421408,-2.850091,-1.731104,0.1301328,-0.003822148,-0.05247581,-0.8470951,-2.477979,1.227934
3.000225,4.788887,108,299,499,492,0.311341,0.09422096,0.08721454,-1.421408,-2.850091,-1.731104,0.1301328,-0.003822148,-0.05247581,-0.8470951,-2.477979,1.227934
2.800225,4.799998,102,319,499,506,0.2793301,0.1058015,0.08711462,-1.423185,-2.853335,-1.735865,0.127957,-0.0176349,-0.0609775,-0.8481854,-2.47922,1.226087
2.600225,4.81111,102,319,499,506,0.2793301,0.1058015,0.08711462,-1.423185,-2.853335,-1.735865,0.127957,-0.0176349,-0.0609775,-0.8481854,-2.47922,1.226087
2.400225,4.822221,102,319,499,506,0.2335371,0.1034635,0.08383312,-1.424668,-2.856,-1.73914,0.1215322,-0.002708539,-0.06196484,-0.8493833,-2.478835,1.223487
2.200225,4.833332,102,319,499,506,0.2335371,0.1034635,0.08383312,-1.424668,-2.856,-1.73914,0.1215322,-0.002708539,-0.06196484,-0.8493833,-2.478835,1.223487
2.000225,4.844443,95,301,502,524,0.2292984,0.1013027,0.07957192,-1.425917,-2.858566,-1.743816,0.1067972,0.005808644,-0.03202579,-0.8491883,-2.477557,1.220621
1.800225,4.855555,95,301,502,524,0.2292984,0.1013027,0.07957192,-1.425917,-2.858566,-1.743816,0.1067972,0.005808644,-0.03202579,-0.8491883,-2.477557,1.220621
1.600224,4.866666,95,301,502,524,0.2336887,0.08314566,0.06368472,-1.426596,-2.86002,-1.749156,0.08868605,-0.02510396,-0.03833091,-0.8496997,-2.480235,1.22103
1.400224,4.877777,95,301,502,524,0.2336887,0.08314566,0.06368472,-1.426596,-2.86002,-1.749156,0.08868605,-0.02510396,-0.03833091,-0.8496997,-2.480235,1.22103
1.200224,4.888888,96,435,498,495,0.2391079,0.06712688,0.04672983,-1.4269,-2.861209,-1.754223,0.08105199,-0.045333,-0.06811014,-0.8513348,-2.483506,1.221847
1.000224,4.9,96,435,498,495,0.2391079,0.06712688,0.04672983,-1.4269,-2.861209,-1.754223,0.08105199,-0.045333,-0.06811014,-0.8513348,-2.483506,1.221847
0.8002244,4.911111,96,435,498,495,0.2422878,0.07137552,0.0392617,-1.427182,-2.86305,-1.759323,0.08863156,0.0004612803,-0.04042769,-0.8518749,-2.48168,1.218333
0.6002244,4.922222,96,435,498,495,0.2422878,0.07137552,0.0392617,-1.427182,-2.86305,-1.759323,0.08863156,0.0004612803,-0.04042769,-0.8518749,-2.48168,1.218333
0.4002244,4.933333,96,411,498,487,0.2316138,0.08208862,0.04455267,-1.42826,-2.866693,-1.764148,0.09308285,0.02812992,-0.004225885,-0.8514781,-2.47948,1.21468
0.2002244,4.944445,96,411,498,487,0.2316138,0.08208862,0.04455267,-1.42826,-2.866693,-1.764148,0.09308285,0.02812992,-0.004225885,-0.8514781,-2.47948,1.21468
0.00022435,4.955556,96,411,498,487,0.1986573,0.07662737,0.04238511,-1.428939,-2.868783,-1.767615,0.08654148,0.01534564,-0.02869375,-0.852773,-2.480476,1.213863
-0.1997757,4.966667,96,411,498,487,0.1986573,0.07662737,0.04238511,-1.428939,-2.868783,-1.767615,0.08654148,0.01534564,-0.02869375,-0.852773,-2.480476,1.213863
-0.1997757,4.977778,96,411,498,487,0.2093848,0.05645112,0.03721023,-1.42987,-2.869968,-1.772085,0.08440626,0.003610782,-0.02974368,-0.8530941,-2.481495,1.212866
-0.1997757,4.98889,96,411,498,487,0.2093848,0.05645112,0.03721023,-1.42987,-2.869968,-1.772085,0.08440626,0.003610782,-0.02974368,-0.8530941,-2.481495,1.212866
-0.1997757,5.000001,95,373,499,510,0.2116653,0.02774024,0.03207424,-1.431098,-2.870751,-1.776878,0.07177766,0.01849703,-0.001973934,-0.8527069,-2.479891,1.210645
-0.1997757,5.011112,95,373,499,510,0.2116653,0.02774024,0.03207424,-1.431098,-2.870751,-1.776878,0.07177766,0.01849703,-0.001973934,-0.8527069,-2.479891,1.210645
-0.1997757,5.022223,95,373,499,510,0.1914776,0.01699627,0.02888372,-1.431645,-2.871176,-1.780331,0.0525272,0.0248764,-0.008236151,-0.8533477,-2.479107,1.210066
-0.1997757,5.033335,95,373,499,510,0.1914776,0.01699627,0.02888372,-1.431645,-2.871176,-1.780331,0.0525272,0.0248764,-0.008236151,-0.8533477,-2.479107,1.210066
-0.1997757,5.044446,94,394,500,509,0.1989202,0.02448578,0.02460016,-1.431708,-2.872267,-1.784984,0.05682369,0.01847894,0.00452829,-0.8527969,-2.478615,1.209012
-0.1997757,5.055557,94,394,500,509,0.1989202,0.02448578,0.02460016,-1.431708,-2.872267,-1.784984,0.05682369,0.01847894,0.00452829,-0.8527969,-2.478615,1.209012
-0.1997757,5.066669,94,394,500,509,0.2063251,0.03309476,0.03096874,-1.432318,-2.8738,-1.789675,0.05265357,0.002492715,0.01518066,-0.8522137,-2.478905,1.208019
-0.1997757,5.07778,94,394,500,509,0.2063251,0.03309476,0.03096874,-1.432318,-2.8738,-1.789675,0.05265357,0.002492715,0.01518066,-0.8522137,-2.478905,1.208019
-0.1997757,5.088891,92,397,500,492,0.2138046,0.03204827,0.02457846,-1.43218,-2.874684,-1.794567,0.04398864,0.008887727,-0.008200829,-0.8533977,-2.478993,1.207349
-0.1997757,5.100002,92,397,500,492,0.2138046,0.03204827,0.02457846,-1.43218,-2.874684,-1.794567,0.04398864,0.008887727,-0.008200829,-0.8533977,-2.478993,1.207349
-0.1997757,5.111114,92,397,500,492,0.224549,0.01610498,0.02043655,-1.432832,-2.874708,-1.800055,0.04936972,0.03657303,-0.0007778127,-0.8540438,-2.476924,1.204124
-0.1997757,5.122225,92,397,500,492,0.224549,0.01610498,0.02043655,-1.432832,-2.874708,-1.800055,0.04936972,0.03657303,-0.0007778127,-0.8540438,-2.476924,1.204124
-0.1997757,5.133336,92,397,500,492,0.2225097,-0.006256842,0.02371461,-1.433515,-2.873964,-1.804952,0.05465866,0.05468063,-0.005065892,-0.8549392,-2.475041,1.201407
-0.1997757,5.144447,92,397,500,492,0.2225097,-0.006256842,0.02371461,-1.433515,-2.873964,-1.804952,0.05465866,0.05468063,-0.005065892,-0.8549392,-2.475041,1.201407
-0.1997757,5.155559,89,489,500,516,0.2023207,-0.01803532,0.033311,-1.434799,-2.873343,-1.809116,0.06004161,0.05254075,0.0002210457,-0.8552225,-2.47384,1.198823
-0.1997757,5.16667,89,489,500,516,0.2023207,-0.01803532,0.033311,-1.434799,-2.873343,-1.809116,0.06004161,0.05254075,0.0002210457,-0.8552225,-2.47384,1.198823
-0.1997757,5.177781,89,489,500,516,0.1906998,-0.03623198,0.02803486,-1.435535,-2.871863,-1.8131,0.05268831,0.03122015,0.01089544,-0.8546345,-2.473623,1.197546
-0.1997757,5.188892,89,489,500,516,0.1906998,-0.03623198,0.02803486,-1.435535,-2.871863,-1.8131,0.05268831,0.03122015,0.01089544,-0.8546345,-2.473623,1.197546
-0.1997757,5.200004,86,433,500,510,0.2013917,-0.03835474,0.0206009,-1.435881,-2.870827,-1.818301,0.0535828,0.006742664,-0.02428426,-0.8561258,-2.475459,1.197334
-0.1997757,5.211115,86,433,500,510,0.2013917,-0.03835474,0.0206009,-1.435881,-2.870827,-1.818301,0.0535828,0.006742664,-0.02428426,-0.8561258,-2.475459,1.197334
-0.1997757,5.222226,86,433,500,510,0.1777892,-0.0107369,0.02573454,-1.435939,-2.87171,-1.818989,0.05582533,0.01525176,-0.007265012,-0.8561131,-2.474825,1.195897
-0.1997757,5.233337,86,433,500,510,0.1777892,-0.0107369,0.02573454,-1.435939,-2.87171,-1.818989,0.05582533,0.01525176,-0.007265012,-0.8561131,-2.474825,1.195897
-0.1997757,5.244449,86,433,500,510,0.1648963,0.008424018,0.03520253,-1.436365,-2.872561,-1.820321,0.05588903,0.0216221,0.004451625,-0.8559144,-2.474405,1.195022
-0.1997757,5.25556,86,402,500,510,0.147691,0.04142135,0.04461795,-1.436893,-2.874301,-1.821405,0.05909659,0.02589802,0.005489834,-0.8561882,-2.473751,1.193683
-0.1997757,5.266671,86,402,500,510,0.1444018,0.05632192,0.0445344,-1.43697,-2.87536,-1.82247,0.05904785,0.02376099,-0.004101964,-0.8565557,-2.473919,1.193037
-0.1997757,5.277782,86,402,500,510,0.1336531,0.0754618,0.04762089,-1.437227,-2.876899,-1.823405,0.05896448,0.01844509,-0.01902155,-0.8572353,-2.474211,1.192542
-0.1997757,5.288894,86,402,500,510,0.1240303,0.08287612,0.04756961,-1.437499,-2.87816,-1.824308,0.06109767,0.002457999,-0.0211785,-0.8573434,-2.475143,1.192424
-0.1997757,5.300005,89,504,499,494,0.09622616,0.1019167,0.04846973,-1.437424,-2.879714,-1.824147,0.062224,-0.01032615,-0.01586846,-0.8571565,-2.475651,1.191781
-0.1997757,5.311116,89,504,499,494,0.07172435,0.1028388,0.04412896,-1.437276,-2.880723,-1.824062,0.06012489,-0.01459162,-0.01159717,-0.857067,-2.475965,1.191365
-0.1997757,5.322227,89,504,499,494,0.05997862,0.109153,0.0408746,-1.437252,-2.882027,-1.824164,0.06333318,-0.01672254,-0.009491455,-0.8570606,-2.476345,1.190825
-0.1997757,5.333339,89,504,499,494,0.04932141,0.1133687,0.04084047,-1.437454,-2.883571,-1.824417,0.06549339,-0.01670665,-0.007393006,-0.8573546,-2.476438,1.189856
-0.1997757,5.34445,89,504,499,494,0.04076789,0.1207791,0.03972588,-1.437512,-2.885186,-1.824423,0.06337072,-0.02630204,-0.008456351,-0.8572998,-2.477362,1.189753
-0.1997757,5.355561,89,433,501,519,0.03223442,0.1217692,0.03436748,-1.43731,-2.886392,-1.824102,0.06017186,-0.03269278,-0.01056828,-0.8572518,-2.478054,1.189586
-0.1997757,5.366673,89,433,501,519,0.02264645,0.1248784,0.02687103,-1.436976,-2.887733,-1.823832,0.05810284,-0.05294404,-0.005238131,-0.8566297,-2.479577,1.189856
-0.1997757,5.377784,89,433,501,519,0.00351114,0.1257927,0.01084587,-1.436233,-2.889137,-1.823169,0.05815483,-0.07423685,-0.00314088,-0.8563821,-2.481235,1.190043
-0.1997757,5.388895,89,433,501,519,0.0002784096,0.1374592,0.006515238,-1.43565,-2.890671,-1.822969,0.06565077,-0.08591808,-0.004235545,-0.8558846,-2.482713,1.190074
-0.1997757,5.400006,89,433,501,519,-0.006158628,0.149159,0.007513477,-1.435249,-2.892749,-1.822603,0.06246855,-0.08700394,0.001079699,-0.8556215,-2.483749,1.189952
-0.1997757,5.411118,88,428,500,491,-0.01049958,0.1640743,0.01170008,-1.434964,-2.895072,-1.822037,0.04434515,-0.0603925,0.00333512,-0.8556162,-2.483601,1.189916
-0.1997757,5.422229,88,428,500,491,-0.0190278,0.1640067,0.0074155,-1.434464,-2.896671,-1.821142,0.03583893,-0.04123297,0.00978644,-0.8554105,-2.483416,1.189689
-0.1997757,5.43334,88,428,500,491,-0.03063256,0.1436582,-0.004252044,-1.433687,-2.897451,-1.820265,0.03055198,-0.03270344,0.01513321,-0.8553802,-2.483298,1.189177
-0.1997757,5.444451,88,428,500,491,-0.03587222,0.1276288,-0.01057916,-1.433241,-2.898328,-1.819578,0.03271516,-0.03270468,0.02044654,-0.8548907,-2.483544,1.188915
-0.1997757,5.455563,91,398,499,491,-0.0442434,0.09880357,-0.01473358,-1.432897,-2.89841,-1.818974,0.02959458,-0.03164512,0.03217905,-0.854194,-2.483608,1.188647
-0.1997757,5.466674,91,398,499,491,-0.05904853,0.07739475,-0.02212724,-1.432408,-2.898487,-1.817763,0.02535545,-0.03592035,0.03540783,-0.8533807,-2.484099,1.188838
-0.1997757,5.477785,91,398,499,491,-0.07068472,0.06134608,-0.02420235,-1.432206,-2.898579,-1.816684,0.02006892,-0.03805595,0.0386268,-0.8529359,-2.484392,1.188754
-0.1997757,5.488896,91,398,499,491,-0.08128969,0.05381774,-0.02737868,-1.431896,-2.898812,-1.815575,0.01903675,-0.04231916,0.04288945,-0.8521417,-2.484905,1.188807
-0.1997757,5.500008,91,398,499,491,-0.08867884,0.04097096,-0.03266726,-1.431375,-2.898684,-1.814374,0.01798725,-0.04339375,0.04502877,-0.8513647,-2.48536,1.188914
-0.1997757,5.511119,94,439,499,487,-0.09503055,0.03347373,-0.03584761,-1.430809,-2.898753,-1.813119,0.006235757,-0.04233886,0.03871219,-0.8509359,-2.485812,1.18938
-0.1997757,5.52223,94,439,499,487,-0.1002593,0.01741496,-0.04750456,-1.430062,-2.898189,-1.811903,-0.003390897,-0.03915771,0.03451494,-0.8504853,-2.486221,1.190109
-0.1997757,5.533341,94,439,499,487,-0.09803475,0.0003494434,-0.05595,-1.429278,-2.89758,-1.810921,-0.006602689,-0.0317029,0.03241424,-0.850072,-2.486195,1.190159
-0.1997757,5.544453,94,439,499,487,-0.08093826,-0.00918421,-0.06119473,-1.428573,-2.897001,-1.810572,-0.007680275,-0.02852209,0.03135416,-0.8496634,-2.486585,1.190552
-0.1997757,5.555564,97,373,500,499,-0.04361166,-0.01965427,-0.05786379,-1.428249,-2.89628,-1.811391,-0.009798912,-0.01467821,0.03563746,-0.8492458,-2.485968,1.190318
-0.1997757,5.566675,97,373,500,499,-0.04572621,-0.02497112,-0.05572141,-1.427694,-2.895871,-1.810717,-0.01836262,-0.002972547,0.03037737,-0.8490813,-2.485543,1.190433
-0.1997757,5.577786,97,373,500,499,-0.05845815,-0.03463171,-0.05890363,-1.427136,-2.895033,-1.80981,-0.03005433,0.004459593,0.03684814,-0.8485332,-2.485095,1.190915
-0.1997757,5.588898,97,373,500,499,-0.0690636,-0.04427822,-0.0599457,-1.426721,-2.894082,-1.808881,-0.02891001,0.008720685,0.04855993,-0.8478423,-2.484304,1.190479
-0.1997757,5.600009,97,373,500,499,-0.06691809,-0.04747028,-0.06099518,-1.426145,-2.893289,-1.808283,-0.02998516,0.01297524,0.04857153,-0.8473875,-2.483796,1.190582
-0.1997757,5.61112,101,382,501,509,-0.05839958,-0.04637356,-0.06096979,-1.425763,-2.892595,-1.808018,-0.03432839,0.01298344,0.03475164,-0.8474323,-2.483544,1.190873
-0.1997757,5.622231,101,382,501,509,-0.04141891,-0.03244366,-0.06099268,-1.425093,-2.892497,-1.808063,-0.03545766,0.01938029,0.02624567,-0.8474807,-2.483,1.190991
-0.1997757,5.633343,101,382,501,509,-0.04356585,-0.02819239,-0.06208997,-1.424316,-2.892164,-1.80756,-0.03973677,0.02363693,0.02307952,-0.8474333,-2.482445,1.191092
-0.1997757,5.644454,101,382,501,509,-0.04892645,-0.01865564,-0.06747545,-1.423383,-2.89199,-1.806839,-0.04292047,0.02469148,0.02630251,-0.8470706,-2.481947,1.191419
-0.1997757,5.655565,105,354,499,490,-0.05854666,-0.01233864,-0.07285868,-1.422368,-2.89166,-1.805745,-0.04399869,0.01190962,0.02203948,-0.8468591,-2.482193,1.192114
-0.1997757,5.666677,105,354,499,490,-0.05432012,-0.001675512,-0.07609742,-1.42135,-2.891751,-1.805356,-0.03984043,0.001275029,0.0006826315,-0.8475302,-2.482982,1.192701
-0.1997757,5.677788,105,354,499,490,-0.04262724,0.005816173,-0.08037013,-1.420239,-2.891737,-1.805192,-0.03459463,0.0002144556,-0.01319931,-0.8479313,-2.48341,1.19317
-0.1997757,5.688899,105,354,499,490,-0.03197968,0.0122209,-0.08783011,-1.419053,-2.891703,-1.80522,-0.04424095,0.001290366,-0.02485907,-0.8485401,-2.483446,1.193768
-0.1997757,5.70001,105,354,499,490,-0.01813956,0.01545548,-0.09313574,-1.417905,-2.891665,-1.805331,-0.04636162,0.01619153,-0.0195154,-0.8488554,-2.482947,1.194121
-0.1997757,5.711122,104,407,499,496,-0.005411252,0.02935595,-0.09636424,-1.416601,-2.892137,-1.805556,-0.04295237,0.04067192,0.01883376,-0.8480368,-2.4809,1.193083
-0.1997757,5.722233,104,407,499,496,-0.008632533,0.03572019,-0.09853178,-1.415351,-2.892355,-1.805307,-0.04278696,0.05129735,0.04760142,-0.8471239,-2.479409,1.19257
-0.1997757,5.733344,104,407,499,496,-0.004413396,0.0495507,-0.1071046,-1.413775,-2.892912,-1.805273,-0.0331793,0.0449165,0.04966623,-0.8467616,-2.478769,1.192244
-0.1997757,5.744455,104,407,499,496,0.00405588,0.06659342,-0.1156796,-1.412132,-2.8936,-1.805496,-0.02374211,0.02151841,0.01867261,-0.8476288,-2.479654,1.192614
-0.1997757,5.755567,101,440,500,482,0.016795,0.0794073,-0.1220994,-1.410369,-2.894438,-1.80588,-0.01640693,0.01940126,-0.0005587642,-0.8481966,-2.479864,1.192847
-0.1997757,5.766678,101,440,500,482,0.03160953,0.1007576,-0.1274786,-1.40861,-2.895712,-1.806208,-0.01325209,0.02049295,-0.0101803,-0.8488746,-2.479482,1.192383
-0.1997757,5.777789,101,440,500,482,0.0453776,0.1231504,-0.1371339,-1.406439,-2.897215,-1.806824,-0.01652519,0.03434445,-0.01867162,-0.8495069,-2.478746,1.192323
-0.1997757,5.7889,101,440,500,482,0.05279087,0.1369908,-0.1446309,-1.40434,-2.898501,-1.807415,-0.01240917,0.05353761,-0.03892543,-0.850815,-2.477858,1.191757
-0.1997757,5.800012,101,440,500,482,0.0473877,0.1645618,-0.168205,-1.401264,-2.900449,-1.807447,-0.01243898,0.05673698,-0.04318329,-0.851574,-2.477266,1.19151
-0.1997757,5.811123,95,519,499,489,0.04735576,0.1783516,-0.1799756,-1.398668,-2.902138,-1.807745,-0.007171838,0.05358046,-0.05707669,-0.8529493,-2.476786,1.190799
-0.1997757,5.822234,95,519,499,489,0.03773904,0.1931441,-0.2034905,-1.3954,-2.903911,-1.807737,0.009897071,0.04826359,-0.05399019,-0.8535208,-2.476694,1.190145
-0.1997757,5.833345,95,519,499,489,0.04420602,0.1973117,-0.2269462,-1.391653,-2.90549,-1.808356,0.03234696,0.01740799,-0.05098744,-0.8542254,-2.477741,1.189386
-0.1997757,5.844457,95,519,499,489,0.06766841,0.1994824,-0.2428717,-1.38826,-2.907004,-1.809393,0.06109541,-0.01132616,-0.05543897,-0.8543496,-2.479297,1.189298
-0.1997757,5.855568,88,469,500,500,0.09006092,0.1984949,-0.2502808,-1.384782,-2.908521,-1.810668,0.07273841,-0.004913963,-0.06721526,-0.8552896,-2.479488,1.188321
-0.1997757,5.866679,88,469,500,500,0.1155361,0.2230858,-0.257778,-1.381206,-2.91097,-1.812177,0.07364186,0.004691057,-0.0917168,-0.8569605,-2.479932,1.187766
-0.1997757,5.87779,88,469,500,500,0.1154204,0.2528784,-0.2685605,-1.377194,-2.913744,-1.812987,0.06703962,0.04623924,-0.117208,-0.8592114,-2.479042,1.186765
-0.1997757,5.888902,88,469,500,500,0.1058141,0.2644831,-0.2825001,-1.372809,-2.916084,-1.813362,0.08210055,0.08028039,-0.08421621,-0.8592162,-2.477348,1.184777
-0.1997757,5.900013,88,469,500,500,0.07728013,0.2438383,-0.3431984,-1.367056,-2.916857,-1.813203,0.08770257,0.08770713,-0.03630792,-0.8588551,-2.47561,1.182666
-0.1997757,5.911124,87,476,500,497,0.08379632,0.2267455,-0.3580278,-1.362408,-2.91768,-1.814313,0.1009667,0.07167031,0.04138181,-0.8562872,-2.474264,1.180539
-0.1997757,5.922235,87,476,500,497,0.09348142,0.2075714,-0.3653768,-1.357936,-2.918275,-1.815401,0.114052,0.05140004,0.08602852,-0.8543959,-2.473452,1.178324
-0.1997757,5.933347,87,476,500,497,0.1106578,0.1862647,-0.3833587,-1.352932,-2.918641,-1.816917,0.1129233,0.0439177,0.08182077,-0.8530701,-2.472766,1.177329
-0.1997757,5.944458,87,476,500,497,0.1106605,0.1904665,-0.3982949,-1.347684,-2.91977,-1.817755,0.1086446,0.02685856,0.07866774,-0.8518877,-2.472515,1.17629
-0.1997757,5.955569,87,476,500,497,0.1084153,0.2159957,-0.4026763,-1.342519,-2.921576,-1.818412,0.1064995,0.005552679,0.07440688,-0.8509998,-2.472723,1.17545
-0.1997757,5.966681,86,471,500,495,0.1039821,0.258541,-0.4188564,-1.336506,-2.924554,-1.818637,0.118066,-0.007193543,0.04768791,-0.8511846,-2.47322,1.174163
-0.1997757,5.977792,86,471,500,495,0.08993545,0.310583,-0.4393538,-1.330228,-2.927943,-1.818444,0.1117143,0.002383687,0.05518804,-0.8505492,-2.472421,1.172529
