ref,t,emg1,emg2,emg1raw,emg2raw,aDotS,bDotS,gDotS,aS,bS,gS,aDotSH,bDotSH,gDotSH,aSH,bSH,gSH
90,0,599,177,535,499,-1.548522,0.3798111,0.3629829,-1.324746,3.029936,-0.2687503,-0.4776726,-0.2419767,0.8895831,-0.2104957,-2.294634,1.395171
90,0.01111111,599,177,535,499,-1.504827,0.3789475,0.3556067,-1.32981,3.032591,-0.2536943,-0.4597064,-0.2281629,0.8617963,-0.2010101,-2.299031,1.404199
90,0.02222222,599,177,535,499,-1.387525,0.3775902,0.3431635,-1.335054,3.034695,-0.2426081,-0.4598393,-0.2398686,0.840484,-0.1920672,-2.307087,1.417117
90,0.03333334,663,179,514,496,-1.286379,0.3876855,0.3465701,-1.340398,3.037594,-0.2312338,-0.4375565,-0.2462033,0.8222508,-0.1830657,-2.314461,1.428623
90,0.04444445,663,179,514,496,-1.238538,0.4092009,0.3369698,-1.346136,3.039877,-0.2194407,-0.4281029,-0.2568439,0.8008791,-0.174436,-2.325714,1.444167
90,0.05555556,663,179,514,496,-1.186255,0.3988845,0.3446392,-1.351114,3.043036,-0.2080296,-0.4271401,-0.2526003,0.7806255,-0.166209,-2.336177,1.459114
90,0.06666667,663,179,514,496,-1.147636,0.3510933,0.3321145,-1.354469,3.045888,-0.1969679,-0.4059188,-0.2046347,0.7666819,-0.157934,-2.335361,1.462257
90,0.07777778,663,179,514,496,-1.121871,0.3181391,0.3195732,-1.357852,3.048822,-0.1854497,-0.3615353,-0.2173982,0.7088504,-0.1513197,-2.349124,1.478658
90,0.08888889,658,179,478,503,-1.091913,0.296936,0.3069223,-1.36112,3.051444,-0.1745857,-0.3509732,-0.2524951,0.691735,-0.1437889,-2.368756,1.501704
90,0.1,658,179,478,503,-1.028884,0.269475,0.285845,-1.363949,3.053766,-0.1651708,-0.3297029,-0.2865614,0.6862387,-0.1362772,-2.39409,1.529889
90,0.1111111,658,179,478,503,-0.9765821,0.2568195,0.2561451,-1.366863,3.05567,-0.1558056,-0.3159794,-0.2811846,0.6669952,-0.1292022,-2.412824,1.551694
90,0.1222222,658,179,478,503,-0.9307091,0.2474273,0.2455992,-1.369721,3.057686,-0.1470225,-0.3193916,-0.2609146,0.6308085,-0.1230711,-2.430326,1.572699
90,0.1333333,725,199,452,504,-0.8986942,0.2347874,0.2446131,-1.372275,3.060146,-0.1381243,-0.3183599,-0.2342854,0.6212363,-0.1163578,-2.447608,1.593246
90,0.1444445,725,199,452,504,-0.8740914,0.2188881,0.2329977,-1.3746,3.062163,-0.129468,-0.30043,-0.2086616,0.5892035,-0.1104381,-2.46164,1.610064
90,0.1555556,725,199,452,504,-0.8398847,0.1976927,0.2181776,-1.376429,3.063852,-0.1209762,-0.2868528,-0.2032917,0.5464921,-0.1058255,-2.482272,1.633404
90,0.1666667,725,199,452,504,-0.7897441,0.1872586,0.2076449,-1.378475,3.065703,-0.1138102,-0.2730102,-0.2000881,0.54322,-0.09989837,-2.507385,1.661041
90,0.1777778,725,199,452,504,-0.7449428,0.1810463,0.1928224,-1.380631,3.067298,-0.1069115,-0.2317363,-0.1553401,0.4961044,-0.09554143,-2.517924,1.67292
90,0.1888889,779,210,509,503,-0.7246668,0.1769157,0.1917937,-1.382707,3.06913,-0.09973272,-0.2052009,-0.1649211,0.4810143,-0.09082071,-2.546128,1.702629
90,0.2,779,210,509,503,-0.6872621,0.1558004,0.1887488,-1.384167,3.071109,-0.0934402,-0.1862161,-0.1979279,0.4478416,-0.08722811,-2.586046,1.743887
90,0.2111111,779,210,509,503,-0.6561912,0.1271853,0.1814699,-1.384899,3.072904,-0.08736713,-0.1960449,-0.2160205,0.4106104,-0.08427573,-2.627724,1.787835
90,0.2222222,779,210,509,503,-0.5748351,0.06902747,0.1338788,-1.384144,3.072942,-0.08296599,-0.20994,-0.1755396,0.4000668,-0.08040882,-2.649653,1.812226
90,0.2333333,830,219,431,496,-0.5406657,0.05406144,0.1212256,-1.384747,3.074191,-0.07802636,-0.1638447,-0.1414824,0.4391794,-0.07511286,-2.675515,1.838352
90,0.2444444,830,219,431,496,-0.523544,0.0455471,0.1010541,-1.385099,3.074826,-0.0727485,-0.1307807,-0.1137958,0.4485585,-0.07029627,-2.703295,1.866743
90,0.2555556,830,219,431,496,-0.5107247,0.04345223,0.08825473,-1.385654,3.075127,-0.06753457,-0.1322119,-0.08822176,0.3857383,-0.0678632,-2.720796,1.885437
90,0.2666667,830,219,431,496,-0.5000048,0.03387478,0.0776649,-1.385826,3.075768,-0.06239999,-0.1408549,-0.09142002,0.3708688,-0.06481016,-2.756606,1.923149
90,0.2777778,830,219,431,496,-0.472224,0.02226427,0.06280378,-1.385892,3.075683,-0.0578854,-0.1270596,-0.0871492,0.359046,-0.06189825,-2.788128,1.955373
90,0.2888889,932,230,498,499,-0.4369128,-0.004243113,0.05019495,-1.385142,3.076007,-0.05408028,-0.124975,-0.09033439,0.3547732,-0.0587259,-2.829616,1.998288
90,0.3,932,230,498,499,-0.4027006,-0.02116422,0.03219031,-1.384629,3.075666,-0.05056331,-0.1154816,-0.09351048,0.3387191,-0.05632426,-2.868748,2.038305
90,0.3111111,932,230,498,499,-0.3845819,-0.02109599,0.02689878,-1.384472,3.0759,-0.04679121,-0.09217784,-0.07858467,0.3183342,-0.05394659,-2.900958,2.070812
90,0.3222222,932,230,498,499,-0.3675466,-0.01568222,0.02261426,-1.384583,3.075722,-0.04327371,-0.07415134,-0.07219295,0.3001097,-0.05175907,-2.938562,2.108416
90,0.3333333,932,230,498,499,-0.343097,0.002543904,0.0161671,-1.385231,3.075488,-0.04039057,-0.05618994,-0.0647268,0.2744166,-0.05016756,-2.971637,2.141387
90,0.3444445,910,225,507,499,-0.3144882,0.03358346,0.01608337,-1.386438,3.075677,-0.03763952,-0.04572068,-0.07110533,0.2487847,-0.04881841,-3.013369,2.183488
90,0.3555556,910,225,507,499,-0.2784229,0.07315477,0.00418653,-1.388307,3.074574,-0.03548769,-0.04052982,-0.08600961,0.2263897,-0.04790068,-3.063747,2.234045
90,0.3666667,910,225,507,499,-0.2550531,0.08816555,-9.496883E-05,-1.389642,3.074491,-0.03320909,-0.04701335,-0.08920228,0.2157791,-0.04692277,-3.110823,2.282051
90,0.3777778,910,225,507,499,-0.2220375,0.09359314,-0.008610569,-1.390433,3.073912,-0.03157018,-0.04072221,-0.09664319,0.2008039,-0.04647323,3.130372,2.324344
90,0.3888889,818,226,501,500,-0.2006822,0.0862041,-0.01706116,-1.391162,3.073493,-0.02976615,-0.02152751,-0.07853359,0.2038843,-0.04506228,3.088882,2.36549
90,0.4,818,226,501,500,-0.1824396,0.07032923,-0.01911442,-1.391766,3.072875,-0.02873551,0.004997991,-0.0327059,0.1877397,-0.04327211,3.082985,2.370608
90,0.4111111,818,226,501,500,-0.1609797,0.03955426,-0.02320286,-1.391865,3.072465,-0.02728781,0.0196811,-0.04547658,0.1492808,-0.04355121,3.057172,2.39559
90,0.4222222,818,226,501,500,-0.1427265,0.01618299,-0.02946448,-1.391488,3.071928,-0.02631097,0.022722,-0.05078775,0.1268892,-0.04343722,3.031171,2.421387
90,0.4333333,818,226,501,500,-0.1062462,-0.02632128,-0.04625798,-1.390136,3.070971,-0.02627794,0.02256474,-0.04650139,0.1023862,-0.04330247,3.02058,2.431777
90,0.4444444,792,200,467,496,-0.07839292,-0.056048,-0.05353102,-1.388771,3.070296,-0.0259589,0.0428347,-0.01773263,0.1097381,-0.04178713,3.001624,2.44997
90,0.4555556,792,200,467,496,-0.06235637,-0.06870145,-0.04811789,-1.388122,3.069892,-0.02563186,0.05880783,-0.009212472,0.1064505,-0.04093385,2.978409,2.47189
90,0.4666667,792,200,467,496,-0.04960155,-0.0654106,-0.04065283,-1.387487,3.069636,-0.02531867,0.07775827,-0.02517325,0.07436626,-0.04151975,2.967678,2.481497
90,0.4777778,792,200,467,496,-0.04650439,-0.04940762,-0.04073337,-1.387454,3.068882,-0.02442971,0.08511654,-0.04221844,0.05831878,-0.04227555,2.949644,2.498348
90,0.4888889,696,219,499,494,-0.03489011,-0.02698923,-0.04294273,-1.387761,3.068326,-0.02424009,0.0689989,-0.05073016,0.03711292,-0.04302496,2.941829,2.505832
90,0.5,696,219,499,494,-0.02111102,-0.00675109,-0.05685353,-1.38805,3.067389,-0.02424329,0.03906041,-0.04432245,0.02026075,-0.04331738,2.944763,2.503283
90,0.5111111,696,219,499,494,-0.01261066,-0.0003632195,-0.06326208,-1.387882,3.066493,-0.02410321,0.03374805,-0.001703605,0.02137672,-0.04231923,2.957649,2.490019
90,0.5222223,696,219,499,494,0.0001971936,-0.00031811,-0.06750709,-1.387849,3.065558,-0.02451173,0.0444679,0.0004247949,0.03303236,-0.0418047,2.944372,2.502637
90,0.5333334,696,219,499,494,0.006538091,0.005133476,-0.05367714,-1.388543,3.065184,-0.02462146,0.07218222,0.01108306,0.03390896,-0.04134291,2.946296,2.499046
90,0.5444446,669,228,499,499,0.006453227,0.01586594,-0.03561062,-1.388992,3.06534,-0.02467472,0.06865122,-0.02404908,-0.01615608,-0.04315333,2.956313,2.4885
90,0.5555557,669,228,499,499,0.02022751,0.03192971,-0.03460876,-1.389928,3.064656,-0.02516741,0.05889223,-0.04427734,-0.04487284,-0.04481567,2.965339,2.478917
90,0.5666668,669,228,499,499,0.02441802,0.04896141,-0.04213151,-1.390846,3.063997,-0.02537726,0.05252411,-0.05173302,-0.04056741,-0.04547827,2.959584,2.484341
90,0.577778,669,228,499,499,0.02537802,0.06602488,-0.04113483,-1.392137,3.063577,-0.02528938,0.06337007,-0.03469972,-0.01186449,-0.04493232,2.948422,2.494392
90,0.5888891,669,228,499,499,0.02318359,0.07670051,-0.03372886,-1.393254,3.063366,-0.02545023,0.06657335,-0.03363921,-0.0108245,-0.04536003,2.94594,2.496018
90,0.6000003,582,195,469,500,0.02843443,0.08638496,-0.0199089,-1.394593,3.063603,-0.02585823,0.06112883,-0.03788741,-0.02996403,-0.04633315,2.955394,2.486013
90,0.6111114,582,195,469,500,0.03692713,0.09071037,-0.01458681,-1.395727,3.063563,-0.02649792,0.04296735,-0.04748346,-0.03730392,-0.04748736,2.951773,2.489693
90,0.6222225,582,195,469,500,0.04012324,0.09386366,-0.02205628,-1.396465,3.063013,-0.02699966,0.02388562,-0.02618228,-0.02224945,-0.04718376,2.952983,2.48868
90,0.6333337,582,195,469,500,0.0359128,0.08849566,-0.03270854,-1.397643,3.062043,-0.02716211,0.0261264,-0.01020822,-0.005213005,-0.04674434,2.951802,2.489508
90,0.6444448,618,208,485,499,0.03269096,0.09169867,-0.02739898,-1.398733,3.061885,-0.02739913,0.0229709,0.004698033,0.001209234,-0.04633315,2.952866,2.488246
90,0.655556,618,208,485,499,0.03260365,0.1055713,-0.02108719,-1.400154,3.061501,-0.02752164,0.02498694,0.0004536882,-0.01800212,-0.04699095,2.96972,2.470944
90,0.6666671,618,208,485,499,0.03037642,0.1226465,-0.01157762,-1.401936,3.061626,-0.0278524,0.02481594,-0.01550854,-0.04250831,-0.04815528,2.980304,2.460288
90,0.6777782,618,208,485,499,0.03249295,0.1248049,-0.01264309,-1.403686,3.061452,-0.02814375,0.01842204,-0.02295918,-0.04461588,-0.04891588,2.987471,2.452904
90,0.6888894,618,208,485,499,0.02283473,0.1396733,-0.01272597,-1.405651,3.061276,-0.02812777,0.01537477,-0.01233552,-0.02221643,-0.04874117,2.980356,2.459892
90,0.7000005,606,218,492,495,0.01744546,0.1460776,-0.006382144,-1.40757,3.061151,-0.02783376,0.01442013,-0.0006266795,-0.005158649,-0.04823304,2.97823,2.461867
90,0.7111117,606,218,492,495,0.01215158,0.1364645,-0.009544365,-1.40902,3.060895,-0.02754188,0.01650095,-0.01127884,-0.009432444,-0.0486975,2.975102,2.465073
90,0.7222228,606,218,492,495,-0.001608938,0.1161778,-0.005216816,-1.409818,3.060934,-0.02718555,0.01755858,-0.02832941,-0.009448257,-0.04952308,2.965713,2.474342
90,0.7333339,606,218,492,495,-0.007863991,0.08740072,-0.002982317,-1.410151,3.060756,-0.02698475,0.01110261,-0.03684118,-0.02113751,-0.05031457,2.96951,2.470441
90,0.7444451,608,210,493,503,0.004102513,0.03840989,-0.01233152,-1.409374,3.060425,-0.02728036,-0.00919548,-0.03044622,-0.02845484,-0.0507444,2.974178,2.466524
90,0.7555562,608,210,493,503,0.009556839,0.01496116,-0.0175532,-1.408839,3.059988,-0.02758289,-0.0155319,-0.01659667,-0.02095452,-0.05061125,2.979854,2.461107
90,0.7666674,608,210,493,503,0.005444912,-0.0149103,-0.02275378,-1.407879,3.059637,-0.02749021,-0.01324967,0.02387271,0.003551845,-0.04916035,2.987207,2.453901
90,0.7777785,608,210,493,503,0.004495967,-0.03087869,-0.01948663,-1.407196,3.059623,-0.02813896,-0.003572796,0.04410607,0.01522288,-0.04801253,2.991849,2.448846
90,0.7888896,608,210,493,503,0.002399772,-0.04467467,-0.007731447,-1.406471,3.05957,-0.02796905,-0.004633807,0.03557264,0.01630396,-0.04786872,2.985572,2.455258
90,0.8000008,537,209,532,502,0.00240244,-0.04568997,0.003979391,-1.405907,3.059767,-0.02826732,-0.002565577,0.01000945,0.007758147,-0.04827885,2.979422,2.461457
90,0.8111119,537,209,532,502,-0.0008239523,-0.03824023,0.007117445,-1.405604,3.059635,-0.02829822,-0.003661915,-0.005971683,0.0013598,-0.04884504,2.975822,2.464976
90,0.8222231,537,209,532,502,-0.004079988,-0.02547201,0.007054845,-1.405707,3.059697,-0.02814269,-0.01749996,-0.013436,0.00464404,-0.04900856,2.968402,2.473133
90,0.8333342,537,209,532,502,-0.007322669,-0.0148523,0.00487892,-1.405707,3.059792,-0.02799355,-0.01528522,-0.002783487,0.01633686,-0.04856328,2.968729,2.47277
90,0.8444453,537,209,532,502,-0.009519851,-0.001011621,0.005878937,-1.406077,3.059869,-0.02782843,-0.01519633,0.004666075,0.03018929,-0.04791559,2.960784,2.48087
90,0.8555565,486,187,488,500,-0.01598622,0.0107178,0.01539681,-1.406454,3.060215,-0.02750406,-0.01093644,-0.0006623287,0.02802285,-0.04796566,2.95539,2.48609
90,0.8666676,486,187,488,500,-0.02668739,0.0192153,0.02173036,-1.40686,3.060601,-0.02701191,-0.0163714,-0.02302618,0.013137,-0.04877899,2.947377,2.494585
90,0.8777788,486,187,488,500,-0.02568794,0.03201581,0.02274385,-1.407676,3.060899,-0.02673654,-0.02485292,-0.0294294,0.01744676,-0.04912627,2.935677,2.506563
90,0.8888899,486,187,488,500,-0.01824801,0.03630513,0.02167265,-1.408172,3.061115,-0.02681484,-0.02807941,-0.02942352,0.01533996,-0.0491758,2.930371,2.512495
90,0.900001,538,204,463,493,-0.01723749,0.04485776,0.02589798,-1.40902,3.06149,-0.02662202,-0.04095213,-0.01768646,0.001573364,-0.04924504,2.94193,2.501781
90,0.9111122,538,204,463,493,-0.02474514,0.05231557,0.03224955,-1.409921,3.062094,-0.02614691,-0.05070009,-0.007016368,-0.02283669,-0.04939524,2.955126,2.489407
90,0.9222233,538,204,463,493,-0.02795332,0.05338491,0.03650049,-1.410562,3.062595,-0.02583213,-0.04431582,-0.008083221,-0.02287682,-0.04965996,2.956148,2.488799
90,0.9333345,538,204,463,493,-0.0237382,0.05979033,0.03646193,-1.411335,3.062718,-0.02545503,-0.03040339,-0.01129118,-0.01442471,-0.04966849,2.946448,2.498349
90,0.9444456,538,204,463,493,-0.02054786,0.05981858,0.0396643,-1.412014,3.063242,-0.02539058,-0.02937091,-0.01661581,-0.01869202,-0.05009406,2.946704,2.498469
90,0.9555568,586,197,500,500,-0.02051541,0.05341497,0.03756113,-1.412398,3.063594,-0.02519563,-0.02936751,-0.0261886,-0.01764584,-0.05058888,2.949076,2.496536
90,0.9666679,586,197,500,500,-0.02049578,0.04915289,0.0375809,-1.412838,3.064008,-0.02503212,-0.04111088,-0.0144702,-0.02075676,-0.05067623,2.954731,2.491721
90,0.977779,586,197,500,500,-0.01512054,0.03957944,0.0354981,-1.412995,3.0643,-0.02506035,-0.04859442,-0.01446562,-0.0249667,-0.05095692,2.959219,2.487977
90,0.9888902,586,197,500,500,-0.01084349,0.03638754,0.03339448,-1.413277,3.064695,-0.02509443,-0.03890669,-0.004889894,-0.009043846,-0.05064107,2.955445,2.491945
90,1.000001,560,193,498,503,-0.006592769,0.03748699,0.03659275,-1.413728,3.065171,-0.02520629,-0.01955456,0.008957321,0.01852653,-0.04954438,2.950289,2.496741
90,1.011112,560,193,498,503,-0.006648876,0.04497907,0.04614811,-1.414353,3.065955,-0.02517753,-0.01533867,-0.007016543,0.01211683,-0.04981443,2.940761,2.50639
90,1.022224,560,193,498,503,-0.01097821,0.05882028,0.04927509,-1.415366,3.066566,-0.02505182,-0.02717685,-0.01978991,-0.005933054,-0.05068688,2.945865,2.501983
90,1.033335,560,193,498,503,-0.01205334,0.06197581,0.04605604,-1.41582,3.066872,-0.02492825,-0.03901175,-0.03468611,-0.02398253,-0.05165893,2.951633,2.496939
90,1.044446,560,193,498,503,-0.01627066,0.05236284,0.04503061,-1.41614,3.06741,-0.02465448,-0.0432584,-0.03469043,-0.02075642,-0.05205628,2.948321,2.500939
90,1.055557,541,221,489,503,-0.01944403,0.04698437,0.04079008,-1.416279,3.067788,-0.02430614,-0.05067044,-0.01550479,-0.01535719,-0.05145174,2.952435,2.497412
90,1.066668,541,221,489,503,-0.0172359,0.03100487,0.03873555,-1.416205,3.068191,-0.02424435,-0.04421793,-0.005926814,-0.004736676,-0.05116199,2.949227,2.501062
90,1.077779,541,221,489,503,-0.01394782,0.008649945,0.03991093,-1.415627,3.068755,-0.02413463,-0.03244783,0.0004634894,0.00158413,-0.05092017,2.948325,2.501847
90,1.08889,541,221,489,503,-0.009564567,-0.006237604,0.03996586,-1.415294,3.068971,-0.02492133,-0.03468652,-0.008047547,-0.0143688,-0.05131006,2.95044,2.500273
90,1.100002,487,217,504,496,-0.005296662,-0.007287767,0.0389125,-1.415182,3.069406,-0.02502306,-0.03897147,-0.02082495,-0.01861528,-0.0519865,2.951065,2.500152
90,1.111113,487,217,504,496,-0.006397934,0.003317803,0.03246204,-1.415339,3.06945,-0.02494636,-0.0378596,-0.01762291,-0.01010304,-0.05186932,2.950596,2.501122
90,1.122224,487,217,504,496,-0.003256167,0.01610173,0.02921437,-1.415874,3.069679,-0.02502785,-0.04099569,-0.005909905,-0.0004858449,-0.05151992,2.949272,2.503035
90,1.133335,487,217,504,496,-0.00551739,0.04377085,0.03014573,-1.416808,3.069968,-0.0249405,-0.03448806,0.001542177,0.01652085,-0.05094947,2.942765,2.509676
90,1.144446,487,217,504,496,-0.001324229,0.05658716,0.03329544,-1.417794,3.070473,-0.02506514,-0.03773182,-0.002719916,0.01014875,-0.05115613,2.940611,2.512422
90,1.155557,557,216,460,497,0.0008018129,0.05978516,0.03114955,-1.418499,3.070678,-0.02528299,-0.03774474,-0.003774889,0.00802884,-0.05102563,2.938793,2.514671
90,1.166668,557,216,460,497,-0.003425691,0.04912206,0.03119908,-1.418906,3.071146,-0.02498471,-0.03561422,-0.0005849041,0.009083403,-0.05092763,2.936382,2.517532
90,1.17778,557,216,460,497,-0.006555069,0.03949617,0.02589618,-1.419061,3.071084,-0.02501081,-0.04217218,-0.01654653,-0.01857379,-0.05185334,2.942827,2.511532
90,1.188891,557,216,460,497,-0.01385961,0.01598895,0.02063855,-1.418442,3.070865,-0.02508272,-0.04006087,-0.008027392,-0.02071299,-0.05197052,2.948015,2.506823
90,1.200002,557,216,460,497,-0.003102045,-0.005281101,0.01755597,-1.417814,3.070988,-0.02532187,-0.04217451,0.0004993156,-0.0174972,-0.05166,2.953081,2.502329
90,1.211113,573,223,463,497,0.01086142,-0.02546076,0.01873867,-1.416967,3.071309,-0.02620338,-0.03034723,0.01115845,-0.001587117,-0.05093349,2.95313,2.502224
90,1.222224,573,223,463,497,0.01406783,-0.02758322,0.01769082,-1.416644,3.071543,-0.02644945,-0.02286261,0.002633763,0.002620819,-0.05099527,2.948182,2.507195
90,1.233335,573,223,463,497,0.01407352,-0.02547954,0.01554999,-1.416184,3.071655,-0.02677116,-0.01329574,0.0004896978,-0.0006499492,-0.05142031,2.948289,2.507008
90,1.244446,573,223,463,497,0.003354087,-0.01273338,0.01867375,-1.416381,3.071997,-0.02653467,-0.02401169,-0.008034462,-0.009106358,-0.05188797,2.947959,2.507982
90,1.255558,537,203,510,502,-0.005152819,-0.01067881,0.01649918,-1.415935,3.071873,-0.02653041,-0.03144824,-0.01016757,-0.007991377,-0.05207599,2.946108,2.510202
90,1.266669,537,203,510,502,-0.00197253,-0.005370145,0.009027749,-1.416049,3.071805,-0.02653627,-0.03031261,-0.002721027,0.003724701,-0.05179688,2.942458,2.51424
90,1.27778,537,203,510,502,-0.0009127371,0.00208168,0.007919936,-1.416205,3.0717,-0.02695439,-0.02170257,0.00898001,0.01431929,-0.05138196,2.940227,2.516191
90,1.288891,537,203,510,502,-0.0009766649,0.01596139,0.01104501,-1.416924,3.071795,-0.02706091,-0.0185455,-0.002746271,0.007903568,-0.05186932,2.935108,2.52142
90,1.300002,537,203,510,502,-0.00209704,0.02662341,0.01419148,-1.417484,3.072016,-0.02705026,-0.01442089,-0.01019612,-0.01236754,-0.05258412,2.941248,2.515384
90,1.311113,613,194,480,499,-0.003198478,0.03620062,0.0109469,-1.418191,3.071981,-0.02702043,-0.02304553,-0.02189227,-0.02830558,-0.05332714,2.950353,2.506723
90,1.322224,613,194,480,499,-0.002179116,0.04684015,0.006644556,-1.418966,3.071993,-0.02697036,-0.0241022,-0.0218974,-0.02616741,-0.05369945,2.950201,2.507246
90,1.333336,613,194,480,499,-0.003250279,0.05003028,0.00340661,-1.419781,3.071578,-0.02688568,-0.02082272,-0.01017456,-0.01446258,-0.05331862,2.951352,2.506126
90,1.344447,613,194,480,499,-0.009650718,0.05212126,0.001259882,-1.420401,3.071582,-0.02655385,-0.02181769,-0.008046424,-0.003797991,-0.05317534,2.947136,2.510614
90,1.355558,602,200,488,502,-0.01495235,0.04254488,0.005523841,-1.420855,3.071326,-0.0260292,-0.01431227,-0.002723957,0.003613314,-0.05293246,2.944739,2.512957
90,1.366669,602,200,488,502,-0.01492453,0.03616756,0.00447337,-1.421347,3.071124,-0.02578579,-0.01111411,-0.005924465,0.004642688,-0.05322327,2.944617,2.513184
90,1.37778,602,200,488,502,-0.009526273,0.02232483,0.0002831625,-1.421214,3.071034,-0.02580976,-0.00149198,-0.01764558,0.009900324,-0.05347468,2.935552,2.522008
90,1.388891,602,200,488,502,-0.007376049,0.01912543,-0.002894213,-1.421364,3.070924,-0.02576981,-0.006817474,-0.01765336,0.008887172,-0.05354392,2.927705,2.529974
90,1.400002,602,200,488,502,-0.008397155,0.01373993,-0.01033764,-1.421061,3.070485,-0.02568672,-0.0121022,-0.007003812,0.01531921,-0.05315723,2.924499,2.533445
90,1.411114,577,185,485,504,-0.01367096,0.0041323,-0.01028852,-1.420955,3.070624,-0.02551255,-0.0120957,0.004716028,0.01639009,-0.05270502,2.925817,2.532285
90,1.422225,577,185,485,504,-0.02004957,0.0009114151,-0.00921955,-1.420878,3.07055,-0.02510988,-0.01104526,0.003643589,0.01531668,-0.05269543,2.922996,2.53531
90,1.433336,577,185,485,504,-0.02105919,-0.01188647,-0.005962246,-1.420064,3.070716,-0.0248931,0.001799621,-0.0006157337,0.02482121,-0.05241953,2.913914,2.544064
90,1.444447,577,185,485,504,-0.01681685,-0.01078709,-0.00594901,-1.420195,3.070817,-0.02464809,0.001765219,-0.009130698,0.01736703,-0.05260382,2.909809,2.54798
90,1.455558,538,184,525,503,-0.01574661,-0.0118474,-0.005942477,-1.420024,3.070755,-0.02450801,0.001765225,-0.008065397,0.0173676,-0.05256281,2.905988,2.551782
90,1.466669,538,184,525,503,-0.01682497,-0.008658377,-0.01023918,-1.420255,3.070259,-0.02411652,-0.002481428,-0.006998624,0.01952732,-0.05235455,2.9012,2.556703
90,1.47778,538,184,525,503,-0.02004923,-0.003337397,-0.008137774,-1.42035,3.070236,-0.02381558,-0.005674691,-0.0005984716,0.01849158,-0.0520142,2.900279,2.557657
90,1.488891,538,184,525,503,-0.01792763,-0.003303654,-0.002807806,-1.420308,3.070325,-0.02368402,0.00181075,0.001533399,0.02376969,-0.05169462,2.895057,2.562726
90,1.500003,538,184,525,503,-0.01577722,-0.007554812,-0.002785183,-1.420117,3.070308,-0.02356471,0.00291063,-0.005926506,0.02908518,-0.05164136,2.88465,2.573052
90,1.511114,580,194,519,504,-0.0136699,-0.007553807,-0.0006682263,-1.41976,3.070141,-0.02319773,0.003927221,-0.01657352,0.02266839,-0.05208823,2.882114,2.575627
90,1.522225,580,194,519,504,-0.01154569,-0.005422891,-0.002804858,-1.419751,3.07005,-0.02310878,0.002805028,-0.02189662,0.01415004,-0.05240728,2.879036,2.578714
90,1.533336,580,194,519,504,-0.009446374,-0.001159219,-0.003869035,-1.419811,3.070233,-0.02288295,-0.006835956,-0.003772298,0.005698519,-0.05203604,2.887527,2.570532
90,1.544447,580,194,519,504,-0.01157068,-0.00120033,-0.005998745,-1.419487,3.070224,-0.02273541,-0.00686536,0.007947096,0.00144397,-0.05174735,2.892993,2.56517
90,1.555558,580,194,519,504,-0.007336004,0.004150594,-0.004950308,-1.419676,3.070209,-0.02274766,-0.01112576,0.001573273,0.001464621,-0.05170474,2.894051,2.564335
90,1.566669,522,185,481,501,-0.005228376,0.005254295,-0.00280693,-1.420034,3.070432,-0.02255058,-0.006764516,-0.001630439,0.01635102,-0.05150127,2.883463,2.574834
90,1.577781,522,185,481,501,-0.003119699,0.008479026,0.001443419,-1.420232,3.070542,-0.02258467,0.003950784,-0.000570253,0.02586956,-0.05122164,2.874729,2.583245
90,1.588892,522,185,481,501,0.002192711,0.01386784,0.006739579,-1.420724,3.07053,-0.02298308,0.004903662,-0.01334199,0.0098693,-0.05177291,2.877589,2.580435
90,1.600003,522,185,481,501,0.00111787,0.01704446,0.003527712,-1.420995,3.070484,-0.02295538,0.0005799066,-0.01759819,0.0003074529,-0.05215854,2.878576,2.579549
90,1.611114,583,223,497,494,-0.004177393,0.01383018,0.002463576,-1.421214,3.070424,-0.0229458,-0.004785205,-0.01864915,-0.006048336,-0.05231141,2.881022,2.577281
90,1.622225,583,223,497,494,-0.0009698756,0.01170976,0.001413024,-1.421295,3.070403,-0.02302622,-0.002654549,-0.0133227,-0.006059501,-0.0523455,2.881955,2.576313
90,1.633336,583,223,497,494,0.0001459834,0.004289092,0.004642645,-1.421379,3.070541,-0.0234209,-0.00261405,0.002643373,-0.0007245562,-0.05198437,2.882219,2.576021
90,1.644447,583,223,497,494,0.003363614,-0.002048452,0.009989353,-1.421428,3.070614,-0.02356471,-0.004726937,0.005852055,0.001420793,-0.05168503,2.884459,2.573842
90,1.655559,583,223,497,494,0.006551045,-0.0009588422,0.01212033,-1.421429,3.070808,-0.02374741,0.0005715601,0.0005277018,-0.002877791,-0.05185334,2.885311,2.572814
90,1.66667,524,204,497,503,0.00760509,0.002251042,0.009974429,-1.421798,3.070808,-0.02382571,-0.00484952,-0.01224673,-0.0177533,-0.05250156,2.887582,2.570702
90,1.677781,524,204,497,503,0.005449812,0.007567518,0.009947218,-1.422022,3.070923,-0.02383263,-0.008062478,0.0005428782,-0.02093222,-0.05242166,2.89917,2.559275
90,1.688892,524,204,497,503,0.007542848,0.01289755,0.009948834,-1.42218,3.07135,-0.02383476,-0.01019692,0.005852157,-0.02091372,-0.05253884,2.901726,2.556933
90,1.700003,524,204,497,503,0.006437822,0.02036379,0.01310968,-1.422596,3.071576,-0.0239056,-0.002760707,0.01224545,-0.02415489,-0.05248451,2.910349,2.548162
90,1.711114,461,183,473,501,0.01593743,0.03530035,0.01413407,-1.422965,3.071913,-0.02410534,-0.002857964,0.004790061,-0.03907922,-0.05321528,2.921955,2.536595
90,1.722225,461,183,473,501,0.01584845,0.05342427,0.01724908,-1.42407,3.072179,-0.02431892,-0.008179056,-0.004799169,-0.03798443,-0.05372075,2.924785,2.534033
90,1.733337,461,183,473,501,0.02005177,0.06940334,0.01292056,-1.425246,3.07214,-0.02476846,-0.008113051,-0.0101408,-0.0294667,-0.0540904,2.922556,2.536236
90,1.744448,461,183,473,501,0.02004609,0.06833903,0.01080547,-1.426075,3.072355,-0.02481427,-0.01342038,-0.01546757,-0.02410559,-0.05434979,2.921245,2.538031
90,1.755559,461,183,473,501,0.02012646,0.05023885,0.0130169,-1.426178,3.072541,-0.02505449,-0.01447077,-0.01120416,-0.02197857,-0.05452396,2.927451,2.53202
90,1.76667,437,175,497,499,0.01272329,0.04058978,0.01198398,-1.426085,3.072664,-0.02512959,-0.01339328,-0.009074322,-0.01985449,-0.05465499,2.929977,2.529642
90,1.777781,437,175,497,499,-0.003173871,0.02241076,0.01310434,-1.42582,3.072839,-0.02464063,-0.01660856,-0.006939885,-0.02303001,-0.05496072,2.934435,2.52538
90,1.788892,437,175,497,499,0.004369962,0.00645806,0.008899465,-1.425645,3.072442,-0.02495755,-0.0198296,-0.00267685,-0.02620711,-0.05505393,2.942875,2.517365
90,1.800003,437,175,497,499,0.0203942,-0.0009531782,0.002566745,-1.425404,3.072303,-0.02561055,-0.01981595,-0.01013498,-0.02408027,-0.05541985,2.943072,2.517403
90,1.811115,536,208,492,502,0.02577606,-0.01053152,-0.0005813483,-1.425038,3.072198,-0.02608619,-0.01763574,-0.006948818,-0.0166465,-0.05559935,2.943496,2.51709
90,1.822226,536,208,492,502,0.024716,-0.01055071,-0.003778918,-1.424913,3.072073,-0.02630298,-0.01336054,-0.0005582292,-0.01454055,-0.05550614,2.946747,2.513883
90,1.833337,536,208,492,502,0.0193315,0.00434591,-0.00173697,-1.425367,3.071928,-0.02652721,-0.01221056,0.009020932,-0.001760512,-0.05501079,2.945971,2.51476
90,1.844448,536,208,492,502,0.01071336,0.02879135,-0.0008064508,-1.426018,3.071777,-0.02666783,-0.01329023,0.006886526,-0.003882932,-0.05509867,2.946427,2.51452
90,1.855559,536,208,492,502,0.002078816,0.0511463,0.00440655,-1.4272,3.071928,-0.02649845,-0.0144175,-0.004822667,-0.01348596,-0.05572824,2.952514,2.508627
90,1.86667,535,207,523,502,0.003075451,0.06501608,0.00433012,-1.428434,3.071704,-0.02648088,-0.01447362,-0.01333351,-0.02094794,-0.05618631,2.956244,2.505165
90,1.877781,535,207,523,502,0.005180322,0.07351024,-0.004226735,-1.429462,3.0714,-0.02653893,-0.01762091,-0.01653303,-0.01347177,-0.05638658,2.952534,2.509147
90,1.888893,535,207,523,502,0.006265037,0.07032603,-0.006318144,-1.430358,3.0716,-0.02668594,-0.02291195,-0.01121132,-0.007029796,-0.05620868,2.948388,2.513778
90,1.900004,535,207,523,502,0.005261004,0.05858409,-0.01052871,-1.430699,3.071336,-0.02669659,-0.02606558,0.002634434,-0.0006103448,-0.05577724,2.949932,2.512598
90,1.911115,535,207,523,502,0.006348569,0.04795177,-0.0105113,-1.431154,3.070739,-0.02633706,-0.02488356,0.01540993,0.01644456,-0.05493036,2.944178,2.518513
90,1.922226,576,220,528,500,0.006369822,0.04263489,-0.008356952,-1.431479,3.070696,-0.02639406,-0.01956443,0.006887918,0.01534025,-0.05496711,2.940507,2.522253
90,1.933337,576,220,528,500,0.00426678,0.03411828,-0.005152056,-1.431656,3.070357,-0.02625184,-0.01218846,-0.01654976,0.002496812,-0.05598923,2.93572,2.526925
90,1.944448,576,220,528,500,0.004267165,0.02878209,-0.006165654,-1.431771,3.070673,-0.02597914,-0.0144052,-0.02719381,-0.01027351,-0.05660176,2.936378,2.526557
90,1.955559,576,220,528,500,0.005372258,0.0223669,-0.01252716,-1.431827,3.07036,-0.02601589,-0.01227434,-0.01867151,-0.01028317,-0.05665343,2.938219,2.5248
90,1.966671,508,199,539,505,0.00433562,0.01704472,-0.01250124,-1.432016,3.070292,-0.0260798,-0.01120649,-0.006953302,-0.01027693,-0.05644783,2.940272,2.522816
90,1.977782,508,199,539,505,0.01181232,0.01281818,-0.01247044,-1.43205,3.070156,-0.02641696,-0.009152167,-0.0005557863,-0.02200568,-0.05662733,2.949819,2.513331
90,1.988893,508,199,539,505,0.01394962,0.01175318,-0.01245435,-1.432035,3.070143,-0.02664812,-0.01129745,0.003706603,-0.02305361,-0.05668805,2.954723,2.508709
90,2.000004,508,199,539,505,0.01498194,0.01815925,-0.01035059,-1.432404,3.070063,-0.02681803,-0.002803354,0.0005075643,-0.02630389,-0.05698845,2.957673,2.50567
90,2.011115,508,199,539,505,0.01172191,0.03094772,-0.008243831,-1.433207,3.070516,-0.02689526,0.005698195,-0.001609385,-0.03168002,-0.05714718,2.96415,2.498756
90,2.022226,527,227,497,492,0.01274585,0.03842856,-0.004014258,-1.433832,3.070553,-0.02706784,0.004577197,-0.004800994,-0.04019687,-0.05764678,2.971955,2.490934
90,2.033337,527,227,497,492,0.007375136,0.04796658,-0.008311821,-1.434522,3.070549,-0.0268894,0.004548233,-0.02503714,-0.04447936,-0.05875146,2.974485,2.488229
90,2.044448,527,227,497,492,0.008484457,0.04052364,-0.01039288,-1.43502,3.070557,-0.02710885,0.003564514,-0.02610309,-0.03168719,-0.05890646,2.972065,2.4908
90,2.055559,527,227,497,492,0.01493847,0.0267094,-0.009255665,-1.434955,3.070472,-0.02743003,0.008988542,-0.01652304,-0.01680332,-0.05870992,2.969743,2.492858
90,2.06667,456,213,530,507,0.01710424,0.01499287,-0.009187681,-1.434733,3.070586,-0.02741671,0.009062425,-0.005877258,-0.005073277,-0.05837756,2.967507,2.495043
90,2.077781,456,213,530,507,0.02036401,0.001159072,-0.0091209,-1.434345,3.070501,-0.02771712,0.01867804,0.002642659,-0.0008705205,-0.05805691,2.968734,2.493332
90,2.088892,456,213,530,507,0.02143895,-0.0009683734,-0.009103894,-1.434292,3.070493,-0.02797491,0.01323287,-0.008000214,-0.01788683,-0.05877277,2.974535,2.487655
90,2.100003,456,213,530,507,0.02037046,8.724257E-05,-0.01017561,-1.434305,3.07035,-0.02815174,0.009947689,-0.01119168,-0.03064772,-0.05939968,2.980005,2.482255
90,2.111114,456,213,530,507,0.01931285,7.283222E-05,-0.01335527,-1.434366,3.070369,-0.02837705,0.005717356,-0.01651492,-0.02742191,-0.05962711,2.979532,2.482605
90,2.122225,437,196,498,499,0.01930922,7.364899E-05,-0.01335101,-1.434374,3.070278,-0.02853098,0.007913351,-0.01758067,-0.01785666,-0.05980607,2.978507,2.483437
90,2.133336,437,196,498,499,0.02136765,0.01286541,-0.01339888,-1.434817,3.070198,-0.02863964,0.01013521,0.001587801,-0.004012618,-0.05920953,2.979557,2.482221
90,2.144447,437,196,498,499,0.01923089,0.01711661,-0.01238182,-1.435016,3.069705,-0.02893631,0.01228084,0.00904263,0.0002346472,-0.05899168,2.982109,2.479696
90,2.155558,437,196,498,499,0.01705929,0.0256337,-0.01135788,-1.43551,3.069583,-0.02905562,0.01009421,0.0005245078,-0.008277781,-0.05934428,2.984277,2.477478
90,2.166669,437,196,498,499,0.01487618,0.03412396,-0.01457352,-1.435975,3.069626,-0.02891554,0.01109341,-0.003731618,-0.01788017,-0.0598098,2.989797,2.471838
90,2.17778,369,167,484,495,0.01381239,0.03306325,-0.01243989,-1.436305,3.069534,-0.02902206,0.005752953,-0.00692623,-0.01997743,-0.06013311,2.992076,2.469658
90,2.188891,369,167,484,495,0.01173783,0.02663448,-0.01348388,-1.436073,3.069301,-0.02943432,0.0004869094,-0.005866086,-0.01035462,-0.06003564,2.989529,2.472352
90,2.200002,369,167,484,495,0.01286733,0.01173035,-0.01234684,-1.435813,3.069251,-0.02955257,-0.001637792,0.002648557,-0.008205221,-0.05992965,2.991365,2.470725
90,2.211113,369,167,484,495,0.01079769,-0.00320755,-0.01121723,-1.435137,3.069191,-0.02951741,0.00381217,0.01862071,0.008807955,-0.05916106,2.991703,2.470042
90,2.222224,469,171,502,497,0.007642598,-0.01280842,-0.01117546,-1.434783,3.069135,-0.02945137,0.004874943,0.01222461,0.009866771,-0.05911578,2.988307,2.473481
90,2.233335,469,171,502,497,0.006630065,-0.017099,-0.01116402,-1.434118,3.068941,-0.02994671,0.005887383,0.00584761,0.002406346,-0.05920367,2.98989,2.47187
90,2.244446,469,171,502,497,0.001319932,-0.01604679,-0.009045403,-1.434006,3.068929,-0.03016456,0.00899042,-0.002667344,-0.01145903,-0.05960794,2.992724,2.468867
90,2.255557,469,171,502,497,0.002355463,-0.01070126,-0.005871599,-1.434037,3.068938,-0.03021942,0.006852373,-0.0133197,-0.01251548,-0.06006174,2.990618,2.470969
90,2.266668,469,171,502,497,0.001303561,-0.007522637,-0.006962413,-1.433918,3.068692,-0.03055019,0.004778643,-0.01225444,-0.002916511,-0.05992645,2.987701,2.473969
90,2.277779,467,164,469,497,-0.001918362,-0.00115524,-0.009126556,-1.434088,3.068518,-0.03040425,0.002739302,-0.002673303,0.0109506,-0.05942791,2.983441,2.478252
90,2.28889,467,164,469,497,-0.005141376,0.003086477,-0.0091419,-1.434143,3.068546,-0.03015817,0.006076537,0.01010402,0.03331488,-0.05834187,2.974641,2.486954
90,2.300001,467,164,469,497,-0.008360438,0.007342217,-0.007035438,-1.434376,3.068504,-0.02996855,0.004891721,0.006918677,0.01521282,-0.05850432,2.978704,2.482895
90,2.311112,467,164,469,497,-0.01370505,0.01052316,-0.003852083,-1.434503,3.068696,-0.02973792,0.004779276,0.004798631,-0.002906547,-0.05889261,2.987831,2.473645
90,2.322223,440,224,509,494,-0.01264804,0.01053665,-0.003853367,-1.434746,3.068589,-0.02950783,0.001519803,-0.01011033,-0.01247957,-0.0595568,2.987186,2.4744
90,2.333334,440,224,509,494,-0.01262315,0.006261335,-0.007030238,-1.434702,3.068443,-0.02935762,-0.002746034,-0.01223643,-0.014571,-0.05966653,2.985835,2.475758
90,2.344445,440,224,509,494,-0.008342749,0.002026655,-0.005943106,-1.434652,3.068365,-0.02937467,0.006936747,-0.002660757,0.002404228,-0.05930114,2.983273,2.47821
90,2.355556,440,224,509,494,-0.008349624,0.002045603,-0.001681967,-1.434666,3.068476,-0.0292756,0.01025868,0.006917614,0.0215628,-0.05859381,2.976291,2.484972
90,2.366668,440,224,509,494,-0.006221236,0.002063793,0.0004474078,-1.434692,3.068462,-0.02928199,0.004913116,0.01010201,0.01841752,-0.05844094,2.972393,2.488955
90,2.377779,423,191,484,499,-0.004094098,0.002083127,0.002581366,-1.434714,3.068561,-0.02930223,0.0006241482,0.01116952,0.01418486,-0.05832855,2.973487,2.488003
90,2.38889,423,191,484,499,-0.007242891,-0.005389993,0.002599241,-1.434428,3.068442,-0.02929264,-0.003613096,0.01010384,0.01848019,-0.05799939,2.968383,2.493311
90,2.400001,423,191,484,499,-0.006082961,-0.01712162,-0.002675336,-1.434023,3.068276,-0.02968732,-0.009033897,-0.003740129,0.00466065,-0.05856664,2.968204,2.493753
90,2.411112,423,191,484,499,-0.00708266,-0.03097986,-0.003680672,-1.433329,3.068246,-0.02956109,-0.01010317,-0.006933176,0.002533098,-0.05870885,2.967718,2.494223
90,2.422223,431,200,486,499,-0.0102758,-0.03100996,-0.006878601,-1.432985,3.068156,-0.0293246,-0.006906863,-0.006929913,0.001453142,-0.05866092,2.966202,2.495609
90,2.433334,431,200,486,499,-0.006012691,-0.02778067,-0.005824784,-1.432862,3.068074,-0.02964365,-0.001594154,-0.0005373764,-0.0007093446,-0.05857782,2.968789,2.492907
90,2.444445,431,200,486,499,-0.001791798,-0.02134607,-0.002661175,-1.432908,3.067989,-0.02963033,-0.00476671,0.0005248981,0.002514031,-0.05846065,2.965932,2.495855
90,2.455556,431,200,486,499,0.00238866,-0.006379374,0.004736106,-1.433231,3.068229,-0.02977467,-0.002615308,-0.001607294,0.00569488,-0.05842976,2.963368,2.498389
90,2.466667,431,200,486,499,0.002372196,3.071642E-05,0.006814121,-1.433486,3.068006,-0.029984,-0.0004412886,0.000529652,0.01312989,-0.0581432,2.962587,2.499193
90,2.477778,425,203,488,498,0.005520216,0.01069443,0.005706715,-1.433891,3.068015,-0.03012728,-0.005746684,0.0005284622,0.01636067,-0.05795731,2.958589,2.503413
90,2.488889,425,203,488,498,0.004428703,0.01389105,0.00783364,-1.43407,3.068326,-0.03007348,-0.01313266,0.01330468,0.02493288,-0.05736982,2.957503,2.504642
90,2.5,425,203,488,498,0.007641782,0.0117526,0.002522584,-1.434176,3.068233,-0.0302141,-0.01211065,0.02075988,0.01960624,-0.05697141,2.959264,2.50311
90,2.511111,425,203,488,498,0.003373322,0.01069139,0.008908068,-1.434189,3.068446,-0.03013899,-0.01851944,0.0196988,0.01643367,-0.05692666,2.963958,2.498745
90,2.522222,425,203,488,498,0.002296702,0.01387275,0.006761595,-1.43444,3.068466,-0.03014112,-0.02183435,0.01118174,-0.0005914574,-0.05733147,2.968724,2.494411
90,2.533333,448,191,493,498,-0.003035456,0.01490985,0.007803188,-1.434517,3.068438,-0.02999678,-0.02084369,-0.001595732,-0.01445284,-0.0579408,2.971822,2.491266
90,2.544444,448,191,493,498,-0.0009136163,0.01280897,0.01316098,-1.434563,3.069019,-0.0300069,-0.01765568,-0.005863495,-0.0144751,-0.05822842,2.970711,2.492579
90,2.555555,448,191,493,498,-0.00302623,0.008542765,0.01424189,-1.434552,3.069216,-0.02995257,-0.01438875,-0.003724243,-0.003846989,-0.05790564,2.970195,2.493123
90,2.566666,448,191,493,498,-0.0008675994,0.002165109,0.01318773,-1.434534,3.06904,-0.02993606,-0.01538262,-0.0005319826,0.006821478,-0.05752321,2.965017,2.498488
90,2.577777,553,182,530,503,0.00234623,-0.002076508,0.0142769,-1.434408,3.069257,-0.03010118,-0.01537516,0.009055194,0.007891233,-0.05718552,2.966682,2.496997
90,2.588888,553,182,530,503,0.001318965,-0.01062089,0.01112945,-1.434029,3.069474,-0.03002075,-0.01327545,0.01651099,0.003616257,-0.05699697,2.972087,2.491737
90,2.599999,553,182,530,503,-0.0007973528,-0.01382581,0.01114072,-1.433825,3.069628,-0.02998506,-0.01538438,0.01224366,0.007891413,-0.05690217,2.968192,2.495958
90,2.61111,553,182,530,503,-0.0007820781,-0.0159732,0.01326801,-1.433228,3.069686,-0.03011183,-0.007928777,0.01331537,0.006780742,-0.05664597,2.969556,2.494411
90,2.622221,553,182,530,503,-0.003986537,-0.01704352,0.017514,-1.432912,3.069804,-0.02990144,-0.00897958,0.005853277,0.009981118,-0.05664916,2.964471,2.499707
90,2.633332,532,183,488,501,-0.00505829,-0.01492733,0.01537232,-1.4328,3.069927,-0.02982794,-0.01218608,0.0005335622,0.008924976,-0.05672586,2.964775,2.49968
90,2.644443,532,183,488,501,-0.006131264,-0.01813319,0.014294,-1.43249,3.069678,-0.0293523,-0.01752506,0.003729613,0.007885555,-0.05669657,2.967671,2.497209
90,2.655554,532,183,488,501,-0.00607189,-0.02881427,0.007949587,-1.4319,3.069624,-0.02927507,-0.01537327,0.009054516,0.01106986,-0.05636101,2.967827,2.497149
90,2.666665,532,183,488,501,0.006776229,-0.04047715,0.008014298,-1.431124,3.069633,-0.02983699,-0.012187,0.009059911,0.009989735,-0.05613517,2.966941,2.498113
90,2.677776,521,187,502,498,0.01107502,-0.04897492,0.009124073,-1.430362,3.069785,-0.03008733,-0.01006328,0.01225619,0.008911956,-0.05593064,2.968121,2.496981
90,2.688887,521,187,502,498,0.01638228,-0.04255571,0.01016858,-1.430072,3.069921,-0.03059493,-0.0122149,0.01011935,0.004661786,-0.05604037,2.968799,2.496417
90,2.699998,521,187,502,498,0.01100839,-0.03193416,0.009048841,-1.429946,3.070023,-0.03058481,-0.01430309,0.01757359,0.01107085,-0.05553596,2.96885,2.496583
90,2.711109,521,187,502,498,0.006676542,-0.02022162,0.01004698,-1.430184,3.070034,-0.03032115,-0.01110968,0.01757642,0.009983128,-0.05528722,2.970681,2.494714
90,2.72222,521,187,502,498,0.001228786,0.00533063,0.01205577,-1.43098,3.070215,-0.03020557,-0.02083899,0.009065549,-0.01125313,-0.05573996,2.977893,2.488045
90,2.733331,518,188,497,493,0.001110476,0.03303017,0.01405733,-1.431944,3.070342,-0.03048254,-0.02408689,0.000546772,-0.01868952,-0.05605847,2.983221,2.483085
90,2.744442,518,188,497,493,1.763925E-05,0.03836621,0.01722671,-1.432584,3.070551,-0.03045271,-0.02191562,0.002678575,-0.01125634,-0.05601267,2.982761,2.483861
90,2.755553,518,188,497,493,6.520376E-05,0.0287693,0.01513869,-1.432664,3.070668,-0.03049639,-0.01546836,-0.003717458,-0.00277907,-0.05604995,2.977757,2.488863
90,2.766664,518,188,497,493,0.006466754,0.02346733,0.01517511,-1.432607,3.070877,-0.03058214,-0.01330324,-0.004801773,0.001468922,-0.05622679,2.972558,2.494072
90,2.777775,503,195,489,497,0.006581439,1.240149E-05,0.01101791,-1.431961,3.070901,-0.03068707,-0.01433287,0.00797939,0.006808172,-0.05572185,2.973679,2.49314
90,2.788886,503,195,489,497,0.002396031,-0.0117505,0.006786321,-1.431479,3.070683,-0.03077709,-0.01653009,0.009062406,-0.002766991,-0.0557096,2.982425,2.48471
90,2.799997,503,195,489,497,0.003503855,-0.02027721,0.004695137,-1.431041,3.070715,-0.03086977,-0.01226073,0.01438264,-0.0006608609,-0.05547897,2.983361,2.483897
90,2.811108,503,195,489,497,0.003494991,-0.02026638,0.005770124,-1.430938,3.070947,-0.0308442,-0.01335379,0.01225686,-0.007033367,-0.05543103,2.98508,2.482153
90,2.822219,503,195,489,497,0.001340132,-0.01705894,0.01001634,-1.430856,3.071226,-0.03080372,-0.01452531,0.004806046,-0.02299945,-0.05591999,2.991529,2.475926
90,2.83333,558,203,465,491,0.006619243,-0.01168426,0.01427371,-1.430937,3.071645,-0.03085006,-0.008119788,0.002674144,-0.02091186,-0.05605954,2.993726,2.473649
90,2.844441,558,203,465,491,0.005545915,-0.008512223,0.009996739,-1.430929,3.071648,-0.03088308,-0.007019464,0.0005396521,-0.01666493,-0.05619377,2.994753,2.472589
90,2.855552,558,203,465,491,0.00870764,0.001061664,0.003567412,-1.431206,3.071517,-0.03104447,-0.007930716,0.002659557,0.006779067,-0.05570002,2.985315,2.482136
90,2.866663,558,203,465,491,0.009741552,0.002150227,0.003570233,-1.431492,3.071643,-0.03081011,-0.007912024,0.003712215,0.009978179,-0.05565208,2.981531,2.486039
90,2.877774,558,203,465,491,0.007569653,0.0106663,0.004595861,-1.431817,3.071733,-0.03082822,-0.006874377,0.01010589,0.005713007,-0.05544169,2.985105,2.48254
90,2.888885,500,200,518,499,0.004353443,0.01277131,0.002454666,-1.432007,3.07176,-0.03059173,-0.009102221,0.01222932,-0.009183077,-0.05575168,2.991107,2.476705
90,2.899997,500,200,518,499,0.004363174,0.009589627,0.005664685,-1.432058,3.071918,-0.0306663,-0.005927908,0.002642937,-0.01240425,-0.0560638,2.9917,2.476103
90,2.911108,500,200,518,499,0.005393804,0.01283169,0.01096414,-1.432441,3.071922,-0.03060611,-0.0006110556,-0.01119957,-0.01351247,-0.05644463,2.989456,2.478193
90,2.922219,500,200,518,499,0.003273412,0.01174264,0.007769372,-1.432612,3.071944,-0.03059439,-0.001684258,-0.01653178,-0.01350656,-0.05681641,2.987276,2.480544
90,2.93333,445,221,481,493,0.00332706,0.006374343,0.001416343,-1.432367,3.072022,-0.03096084,-0.008079843,-0.006937526,-0.01346039,-0.05671042,2.992549,2.47561
90,2.944441,445,221,481,493,0.004387252,0.002088167,-0.0006656771,-1.432032,3.072397,-0.03069559,-0.008038508,0.009037664,-0.008124777,-0.05626407,2.996903,2.471254
90,2.955552,445,221,481,493,0.004450524,-0.0096582,-0.007005354,-1.431602,3.072162,-0.03070944,-0.006979994,0.01329928,-0.009195106,-0.05613624,3.001153,2.467075
90,2.966663,445,221,481,493,0.006578416,-0.01390197,-0.002703198,-1.431202,3.072543,-0.03066364,-0.004848451,0.009031497,-0.009206469,-0.05627419,2.999962,2.468249
90,2.977774,445,221,481,493,0.007642033,-0.01494347,0.001564287,-1.431004,3.072682,-0.03081064,-0.002774611,-0.004813593,-0.01774895,-0.05687926,3.001017,2.467159
90,2.988885,503,219,481,494,0.009748724,-0.0117407,-0.002697319,-1.431185,3.072672,-0.03075312,0.003596127,-0.008020878,-0.0209756,-0.05721588,2.999028,2.468953
90,2.999996,503,219,481,494,0.008636343,-0.003199737,0.002589629,-1.431395,3.072854,-0.03084207,0.0004145075,-0.008027294,-0.01775737,-0.05734958,2.998338,2.469779
90,3.011107,503,219,481,494,0.009682548,0.002150399,0.0004209837,-1.431925,3.07256,-0.03097842,-0.005882061,-0.002705869,-0.003864264,-0.0571035,2.996129,2.472179
90,3.022218,503,219,481,494,0.009697329,0.00105877,-0.004900727,-1.431861,3.072354,-0.03107962,-0.005810502,0.009002442,0.007860225,-0.05659111,2.994205,2.474267
90,3.033329,427,196,496,495,0.01075224,0.001085351,-0.001692117,-1.431998,3.072599,-0.03118562,-0.003604895,0.01752724,0.01849946,-0.05589123,2.994132,2.474233
90,3.04444,427,196,496,495,0.006555485,-0.009607714,-0.002723683,-1.431382,3.072462,-0.03136192,-0.003623258,0.01219761,0.01636649,-0.05589975,2.991681,2.476784
90,3.055551,427,196,496,495,0.00549667,-0.01173369,-0.000585256,-1.431194,3.072536,-0.03142157,0.0006101727,0.01007238,0.01102321,-0.05574316,2.990399,2.477845
90,3.066662,427,196,496,495,-0.001949483,-0.01492699,0.001548454,-1.431318,3.072598,-0.03118402,0.00161557,0.0004940159,0.0003518615,-0.05613091,2.994205,2.473857
90,3.077773,427,196,496,495,-0.01049285,-0.009651515,-0.0006166865,-1.431348,3.072656,-0.03092303,-0.0005483902,-0.006970757,-0.002833087,-0.05636847,2.994548,2.473623
90,3.088884,469,187,477,499,-0.01156533,-0.006449357,-0.001707379,-1.431561,3.072386,-0.03077389,-0.0005306175,-0.004832906,-0.0006956318,-0.05632639,2.990345,2.477929
90,3.099995,469,187,477,499,0.002220462,0.007458085,-0.002811685,-1.431995,3.072357,-0.03116058,-0.0004858598,0.004746284,0.006765871,-0.05599403,2.988752,2.47961
90,3.111106,469,187,477,499,-0.001058437,0.02556611,0.0002949184,-1.432714,3.072372,-0.03115259,-0.00148835,0.009004628,0.01422955,-0.05563131,2.98639,2.481814
90,3.122217,469,187,477,499,-0.003203936,0.02875091,0.0002792978,-1.433077,3.072389,-0.03102263,0.0006541992,0.003676902,0.01634451,-0.05554928,2.981833,2.486326
90,3.133328,469,187,477,499,-0.006428685,0.03089705,0.003455699,-1.433693,3.072427,-0.0306647,-0.004710305,0.009011757,0.009993324,-0.05532291,2.98574,2.482576
90,3.144439,445,194,494,495,-0.00851395,0.01918639,0.004569782,-1.433765,3.072504,-0.03044845,-0.006917136,0.004762995,-0.001699852,-0.05539002,2.988534,2.479904
90,3.15555,445,194,494,495,-0.009506251,0.005304614,-0.001762063,-1.43345,3.072329,-0.03028014,-0.004892251,-0.009078691,-0.01769926,-0.05618418,2.992501,2.47594
90,3.166661,445,194,494,495,-0.009477971,-0.004283572,-0.003826154,-1.433331,3.072574,-0.02994352,-0.001638992,-0.005909938,-0.009198118,-0.05634077,2.986964,2.481397
90,3.177772,445,194,494,495,-0.007305278,-0.0117544,-0.009116249,-1.432996,3.072341,-0.02988812,0.006966993,0.001534655,0.004599755,-0.05592106,2.982191,2.485968
90,3.188883,374,185,497,499,0.0001396006,-0.009563852,-0.005925094,-1.433131,3.072278,-0.03012248,0.01336384,-0.009112142,0.004551965,-0.05615009,2.978426,2.489334
90,3.199994,374,185,497,499,0.001193543,-0.007423702,-0.004867685,-1.433097,3.072254,-0.03015231,0.005842688,-0.00591071,-0.006041613,-0.05628484,2.982305,2.485546
90,3.211105,374,185,497,499,0.004349782,-0.002092068,-0.002736692,-1.432973,3.072576,-0.03014805,0.00906635,-0.008043408,-0.001802454,-0.0563429,2.979416,2.488244
90,3.222216,374,185,497,499,0.007547178,-0.002082223,-0.003797177,-1.432956,3.072511,-0.03032275,0.005874088,-0.005927379,-0.001784006,-0.05656075,2.97763,2.489985
90,3.233327,374,185,497,499,0.009654568,-0.001037721,-0.009108927,-1.432872,3.072478,-0.03010224,-0.005766323,0.006851519,0.01001666,-0.05601906,2.975878,2.492085
90,3.244438,378,239,446,497,0.008570408,0.002152756,-0.008047991,-1.432917,3.07259,-0.03014059,-0.003598522,0.01537506,0.01745354,-0.05551253,2.977374,2.490712
90,3.255549,378,239,446,497,0.006452772,-0.001048064,-0.006971678,-1.432837,3.072513,-0.0301342,-0.004677327,0.02389845,0.01533382,-0.05503582,2.981342,2.486846
90,3.26666,378,239,446,497,0.002237088,-0.01065444,-0.002665595,-1.432216,3.072736,-0.03021303,-0.007930992,0.01431072,0.006828959,-0.05529095,2.9818,2.486578
90,3.277771,378,239,446,497,0.0001193238,-0.01385492,-0.001589165,-1.431986,3.072748,-0.03017308,0.001604261,-0.005935007,0.0003666482,-0.05594236,2.9759,2.492313
90,3.288882,466,232,498,495,0.003319093,-0.01278626,0.001606971,-1.431526,3.072847,-0.03052409,0.004692249,-0.02297137,-0.01671257,-0.05691175,2.978716,2.489307
90,3.299993,466,232,498,495,0.005452567,-0.01279129,-0.00158298,-1.431373,3.072777,-0.03059226,0.0003990959,-0.02191758,-0.02093342,-0.05729525,2.977283,2.490922
90,3.311104,466,232,498,495,0.003319182,-0.01068485,-0.004780721,-1.431311,3.07279,-0.03059972,-0.004874495,-0.01126241,-0.01345068,-0.05720044,2.981855,2.486501
90,3.322215,466,232,498,495,0.005344878,0.007444951,0.0004680361,-1.431701,3.072928,-0.03052142,-0.004819497,0.006852115,-0.005992587,-0.05665236,2.988421,2.479902
90,3.333326,466,232,498,495,0.006343819,0.02130786,0.002538608,-1.432276,3.072994,-0.03062103,0.001586308,0.01004671,-0.00390254,-0.05647925,2.990788,2.477364
90,3.344437,483,202,503,498,0.008434486,0.02773031,0.005723306,-1.432808,3.073321,-0.03072968,0.0004788935,-0.005925274,-0.01029511,-0.05704172,2.989892,2.478282
90,3.355548,483,202,503,498,0.007356275,0.03091655,0.004642188,-1.433246,3.07336,-0.03076697,-0.007043229,-0.01125423,-0.01876951,-0.05756476,2.991002,2.477585
90,3.366659,483,202,503,498,0.006346794,0.02556849,0.006789088,-1.432989,3.073399,-0.03131238,-0.008097672,-0.01444949,-0.01877934,-0.0579882,2.994531,2.474021
90,3.37777,483,202,503,498,0.005325232,0.01702723,0.003629554,-1.432958,3.073361,-0.03131984,-0.009114944,-0.002740487,-0.01024382,-0.05774479,2.99477,2.474025
90,3.388881,478,174,520,499,0.003223792,0.01062585,0.003654787,-1.432904,3.073401,-0.03129853,-0.01230301,0.001524031,-0.01023191,-0.05777834,3.000597,2.468324
90,3.399992,478,174,520,499,0.001135202,0.003144945,0.002648178,-1.432641,3.073828,-0.0314008,-0.007980294,0.01536863,-0.0006635156,-0.05716369,3.002697,2.466202
90,3.411103,478,174,520,499,0.005407644,-2.196943E-05,0.004799404,-1.432557,3.073949,-0.0316016,-0.003720864,0.004729797,-0.0006993525,-0.05722281,3.002937,2.465898
90,3.422215,478,174,520,499,0.003275651,-0.001077698,0.009061774,-1.432545,3.07419,-0.03161598,-0.002713284,-0.01018148,-0.01030251,-0.05789552,3.002336,2.46641
90,3.433326,478,174,520,499,0.001102256,0.005291717,0.005856507,-1.432832,3.074474,-0.0313241,-0.007044736,-0.01763354,-0.02093063,-0.05852563,3.00488,2.464061
90,3.444437,444,173,484,500,0.001079309,0.01062703,0.006887632,-1.433142,3.074411,-0.03138056,-0.001633273,-0.002722484,-0.009236134,-0.05799353,3.00556,2.463148
90,3.455548,444,173,484,500,0.001055088,0.01700447,0.003663311,-1.433496,3.07435,-0.03137896,-0.008032192,-0.008048167,-0.01026187,-0.05826038,3.004719,2.464262
90,3.466659,444,173,484,500,0.003165128,0.01807971,0.001540085,-1.433838,3.07444,-0.03120799,-0.009045464,0.0004822072,-0.0006540443,-0.05772029,3.004217,2.465047
90,3.47777,444,173,484,500,0.00211006,0.01488937,0.0036843,-1.433923,3.074543,-0.03118934,-0.003707739,-0.0005911756,0.001452529,-0.057683,2.999486,2.469694
90,3.488881,444,173,484,500,0.001083377,0.009564984,0.003711657,-1.43399,3.074656,-0.03139121,0.0005339072,-0.004837046,-0.001776842,-0.05777621,3.002146,2.466873
90,3.499992,393,189,500,504,0.002142766,0.01063588,0.003709185,-1.434171,3.074687,-0.03144448,-0.002702093,-0.01335888,-0.007084352,-0.05825079,3.000186,2.469042
90,3.511103,393,189,500,504,-0.001069782,0.01378546,-0.001639296,-1.434303,3.074481,-0.03117709,-0.008032824,-0.0101546,-0.009178143,-0.05826144,3.003385,2.465955
90,3.522214,393,189,500,504,-0.001074644,0.01484505,-0.002706411,-1.434472,3.074479,-0.03114727,-0.002657235,0.002628085,0.0003869397,-0.05773893,3.002686,2.466739
90,3.533325,393,189,500,504,-0.003220871,0.01591343,0.00154745,-1.434596,3.074629,-0.03101038,-0.007948364,0.007952404,0.005750696,-0.05741456,3.002612,2.467033
90,3.544436,440,192,507,501,-0.006449042,0.02335104,0.0004441165,-1.435057,3.074585,-0.03084473,-0.007927483,0.0004846891,0.008949654,-0.05754452,2.995156,2.474559
90,3.555547,440,192,507,501,-0.005383797,0.02230484,0.003646325,-1.435273,3.0747,-0.03083301,0.005870982,-0.003773324,0.001400824,-0.05771603,2.995609,2.473643
90,3.566658,440,192,507,501,-0.002135376,0.02229605,-0.002791972,-1.435527,3.073761,-0.03137843,0.001536515,-0.01441532,-0.01030194,-0.05831577,2.999112,2.4702
90,3.577769,440,192,507,501,-0.004259611,0.02120952,-0.004917731,-1.435728,3.073698,-0.03124367,0.001531631,-0.01228961,-0.01030097,-0.05850645,2.998822,2.470553
90,3.58888,440,192,507,501,-0.002114881,0.02011652,-0.008097228,-1.4356,3.073659,-0.03133902,-0.003702277,-0.005898491,0.002517475,-0.05815705,2.996207,2.473217
90,3.599991,421,184,516,497,-0.004201679,0.01051417,-0.008062007,-1.435386,3.073524,-0.03121598,0.0005941573,0.001555956,0.007819275,-0.05782468,2.995425,2.473886
90,3.611102,421,184,516,497,-0.002035491,0.002011161,-0.005890306,-1.435175,3.073522,-0.03124953,0.001712342,0.006869003,0.01634273,-0.05749019,2.989364,2.479938
90,3.622213,421,184,516,497,-0.004082079,-0.01079857,-0.005836158,-1.43449,3.073472,-0.03151585,0.002763407,0.002608734,0.01420325,-0.05749658,2.986977,2.482262
90,3.633324,421,184,516,497,-0.004030151,-0.02040972,-0.01111991,-1.433997,3.0732,-0.03146898,0.002688226,-0.003778553,0.002481367,-0.05791204,2.988394,2.480774
90,3.644435,452,197,509,501,-0.001886392,-0.02254012,-0.01322637,-1.433722,3.07317,-0.03148602,0.004793107,-0.002710735,-0.000725475,-0.05792642,2.989453,2.47968
90,3.655546,452,197,509,501,-0.00401374,-0.0236104,-0.01215958,-1.433419,3.073067,-0.03134967,0.006979741,0.0004811701,0.007784192,-0.05766862,2.986437,2.482548
90,3.666657,452,197,509,501,-0.006191635,-0.01083983,-0.007952923,-1.433349,3.073177,-0.03147857,0.006988693,-0.001649438,0.007789266,-0.05760737,2.983181,2.485593
90,3.677768,452,197,509,501,-0.01050149,-0.001257649,-0.004806196,-1.433584,3.073198,-0.03125805,0.009103984,0.002606486,0.006714396,-0.05755091,2.983087,2.48566
90,3.688879,452,197,509,501,-0.01054907,0.006184898,-0.006956758,-1.433767,3.073232,-0.0309209,0.004836726,0.0004827578,0.004608457,-0.05753067,2.984116,2.484578
90,3.69999,484,210,502,497,-0.01379831,0.01999047,-0.01341494,-1.434366,3.072892,-0.03064233,0.009140654,-0.001656347,0.01203738,-0.05744279,2.977367,2.491179
90,3.711101,484,210,502,497,-0.01167293,0.02427352,-0.0133973,-1.434906,3.073221,-0.03083248,0.01026339,0.003671652,0.02055739,-0.05690642,2.973168,2.495182
90,3.722212,484,210,502,497,-0.01275288,0.02641341,-0.01021256,-1.435274,3.073184,-0.03065405,0.01019639,0.001543663,0.01097086,-0.05704065,2.974327,2.49397
90,3.733323,484,210,502,497,-0.007438326,0.02538982,-0.01125146,-1.435802,3.073222,-0.03046337,0.006921115,-0.002699411,-0.0007218675,-0.05719405,2.978158,2.490221
90,3.744434,605,202,486,496,-0.005266219,0.01580692,-0.01122348,-1.435622,3.072852,-0.03037815,0.009018014,-0.004837408,-0.004996099,-0.05744492,2.977204,2.491091
90,3.755545,605,202,486,496,-0.004152304,0.00515903,-0.01117442,-1.435399,3.072739,-0.03034619,0.01013225,-0.004840837,0.002453825,-0.05732508,2.973185,2.494948
90,3.766656,605,202,486,496,-0.001966484,-0.005463401,-0.01220456,-1.435387,3.072335,-0.03037442,0.007005014,-0.004849085,0.01418969,-0.05715463,2.965911,2.502346
90,3.777767,605,202,486,496,-0.002976453,-0.01824215,-0.01001881,-1.434796,3.072294,-0.03028973,0.008091646,0.002606494,0.01738189,-0.05682387,2.964091,2.504049
90,3.788878,605,202,486,496,-0.001843276,-0.02997602,-0.01103156,-1.433959,3.072157,-0.03047402,0.00699109,0.01539539,0.01205161,-0.05653678,2.973841,2.494268
90,3.799989,525,216,508,498,0.0003054403,-0.03210316,-0.008889114,-1.433356,3.072144,-0.03069985,0.009058852,0.01859552,0.002451604,-0.05644676,2.980549,2.487412
90,3.8111,525,216,508,498,0.0002827477,-0.0267815,-0.009978075,-1.433181,3.072027,-0.03069453,0.003695663,0.01327342,-0.001777667,-0.05656607,2.982247,2.485965
90,3.822211,525,216,508,498,0.003452059,-0.01931196,-0.01213545,-1.433221,3.071833,-0.03085219,0.009096141,0.006865046,0.009908497,-0.05642866,2.972495,2.49549
90,3.833322,525,216,508,498,0.002354275,-0.01291571,-0.01003495,-1.433241,3.071777,-0.03083514,0.009143377,0.004741849,0.01628648,-0.0562172,2.971088,2.496726
90,3.844433,525,216,508,498,0.00546376,0.005208623,-0.009040424,-1.433692,3.071762,-0.0309422,0.01340014,0.00580492,0.01626467,-0.05601267,2.968921,2.498686
90,3.855544,446,209,517,508,0.004322145,0.01909027,-0.000581501,-1.434255,3.071976,-0.03098961,0.01335174,0.01752657,0.008813057,-0.05566699,2.976109,2.491368
90,3.866655,446,209,517,508,0.005357174,0.0265706,0.0004354205,-1.43487,3.071753,-0.03113448,0.007960452,0.0058232,-0.001816542,-0.05601267,2.980467,2.487009
90,3.877766,446,209,517,508,0.006368719,0.03829329,0.0003856089,-1.435575,3.071751,-0.03123781,0.01217921,-0.001631182,-0.008239545,-0.05632852,2.982019,2.48521
90,3.888877,446,209,517,508,0.009545241,0.04363106,0.001409197,-1.436063,3.071458,-0.03148282,0.0121729,-0.01548303,-0.00825021,-0.05688991,2.976989,2.490165
90,3.899988,457,213,509,499,0.01061657,0.04253484,-0.002850549,-1.436253,3.07123,-0.03153289,0.005830096,-0.006961886,-0.0007662079,-0.05676794,2.980157,2.48713
90,3.911099,457,213,509,499,0.01701633,0.0425728,-0.001782251,-1.436782,3.071142,-0.03200161,-0.0004907148,0.01007836,0.009936212,-0.05610109,2.980682,2.486795
90,3.92221,457,213,509,499,0.01492512,0.03085625,-0.002803659,-1.437036,3.071029,-0.03185034,-0.0004863348,0.01861203,0.009940751,-0.05559828,2.985721,2.481685
90,3.933321,457,213,509,499,0.01821356,0.009579554,0.0004916812,-1.436625,3.071145,-0.03214861,-0.0005215378,0.01435324,0.004612459,-0.05559828,2.987629,2.479766
90,3.944432,457,213,509,499,0.01930671,0.001072027,0.002684715,-1.43649,3.071563,-0.03233237,0.003691671,0.002639758,-0.001814202,-0.05596047,2.987803,2.479519
90,3.955544,435,193,512,504,0.0193604,-0.009594914,-0.0004637737,-1.436112,3.07149,-0.03255235,0.003628729,0.003709379,-0.01140119,-0.05614902,2.993642,2.473662
90,3.966655,435,193,512,504,0.0193471,-0.008525592,-0.002590798,-1.436293,3.071516,-0.03259922,0.002547999,-0.004816615,-0.01459418,-0.0565208,2.993318,2.473893
90,3.977766,435,193,512,504,0.02251047,-0.001058748,-0.00368438,-1.436484,3.07145,-0.0329433,0.002450416,0.001577129,-0.02843799,-0.05683718,3.003086,2.464207
90,3.988877,435,193,512,504,0.02460801,0.003213162,-0.003702749,-1.436685,3.071358,-0.03306954,0.0003143651,0.01329428,-0.03054972,-0.05673226,3.013458,2.453786
90,3.999988,404,188,514,506,0.02567196,0.004273006,-0.005830914,-1.436728,3.071323,-0.03336834,0.00251885,0.01435235,-0.01884448,-0.05652612,3.013111,2.454071
90,4.011099,404,188,514,506,0.02995094,3.615068E-05,-0.004740195,-1.436618,3.071332,-0.03380563,0.01004731,0.02180175,-0.009302527,-0.05613198,3.015169,2.451573
89.8,4.02221,404,188,514,506,0.03316431,-0.008441431,-0.0025791,-1.436608,3.071182,-0.03397341,0.009018737,0.02179658,-0.002901864,-0.05587738,3.01516,2.45159
89.60001,4.033321,404,188,514,506,0.03320332,-0.01696363,-0.002541221,-1.436208,3.071164,-0.0343665,0.002591546,0.02713376,-0.009244882,-0.05562065,3.024276,2.442553
89.40001,4.044433,404,188,514,506,0.03427244,-0.01911105,-0.003592188,-1.435742,3.071143,-0.03465838,0.002552706,0.02927228,-0.01457869,-0.05554555,3.035363,2.431507
89.20001,4.055544,422,204,514,493,0.04172943,-0.01907693,-0.003580832,-1.435516,3.07112,-0.03531405,0.003589911,0.02820885,-0.01884727,-0.05553064,3.043159,2.423656
89.00002,4.066655,422,204,514,493,0.0427839,-0.01799276,0.001716936,-1.435223,3.070958,-0.03582005,0.005658199,0.01223379,-0.02844404,-0.05597006,3.044968,2.421705
88.80002,4.077766,422,204,514,493,0.04597325,-0.01690812,0.002782334,-1.435081,3.071022,-0.03641021,0.006674044,0.005846838,-0.03589118,-0.05621933,3.048164,2.418433
88.60002,4.088878,422,204,514,493,0.0491799,-0.0168859,-0.0004056906,-1.435193,3.070972,-0.03712234,0.009861778,0.0005213488,-0.03697987,-0.05659111,3.052204,2.414177
88.40002,4.099989,422,204,514,493,0.04917991,-0.0168859,-0.0004056934,-1.435007,3.070974,-0.03766349,0.009856923,0.0005168319,-0.03697941,-0.05688885,3.056494,2.409857
88.20003,4.1111,436,202,505,500,0.05980516,-0.00941347,-0.003617055,-1.434895,3.070861,-0.03870532,0.001282517,-0.001607124,-0.04546035,-0.05751948,3.068791,2.397746
88.00003,4.122211,436,202,505,500,0.06927861,0.01193706,-0.01117383,-1.436047,3.070182,-0.03922889,0.00124719,0.001591746,-0.0507843,-0.05790192,3.07905,2.387501
87.80003,4.133323,436,202,505,500,0.07243629,0.02049128,-0.009066485,-1.436639,3.070299,-0.04021533,0.01307098,0.01543281,-0.03487599,-0.05746143,3.084207,2.381885
87.60004,4.144434,436,202,505,500,0.07561579,0.02266688,-0.002685573,-1.436942,3.070354,-0.04118685,0.008764515,0.01011035,-0.0412427,-0.05788967,3.09256,2.373611
87.40004,4.155545,481,191,498,496,0.07877577,0.02909211,0.001552021,-1.437447,3.070455,-0.04216956,0.008715231,0.004787229,-0.04870201,-0.05845532,3.100513,2.365576
87.20004,4.166656,481,191,498,496,0.08089354,0.03017837,0.001536413,-1.43797,3.070212,-0.04296318,0.002268255,-0.01010745,-0.05719245,-0.05929795,3.107829,2.358404
87.00005,4.177768,481,191,498,496,0.0798429,0.03014956,-0.001632508,-1.438213,3.070642,-0.04406466,-0.0009487979,-0.01436704,-0.06036919,-0.06004097,3.113508,2.352841
86.80005,4.188879,481,191,498,496,0.06920126,0.0247611,-0.005866647,-1.438439,3.070729,-0.04419942,-0.00831092,0.002669763,-0.04540908,-0.05976187,3.121852,2.344868
86.60005,4.19999,481,191,498,496,0.05853181,0.027907,-0.004832083,-1.438739,3.070698,-0.04453977,-0.01041043,0.02184892,-0.04113006,-0.05948277,3.13687,2.329996
86.40005,4.211102,446,177,504,497,0.05856077,0.0183502,0.0005504685,-1.438804,3.071094,-0.04509424,-0.01366191,0.02930998,-0.04962789,-0.05967825,-3.130997,2.314943
86.20006,4.222213,446,177,504,497,0.07667623,0.01418912,0.001660237,-1.439066,3.071071,-0.04623461,-0.01475957,0.03038542,-0.05387899,-0.05989875,-3.117734,2.301965
86.00006,4.233324,446,177,504,497,0.08313456,0.000360365,-0.0003990568,-1.438725,3.071036,-0.04731265,-0.01263621,0.0271899,-0.05495973,-0.06024017,-3.108087,2.292425
85.80006,4.244435,446,177,504,497,0.08743443,-0.01028034,-0.003545803,-1.438473,3.070865,-0.04809456,-0.005143229,0.03357761,-0.04861226,-0.06014483,-3.09801,2.282337
85.60007,4.255547,400,174,478,492,0.09706259,-0.01981447,-0.001358147,-1.438013,3.07094,-0.04944744,-0.0008037668,0.05807395,-0.03691127,-0.0594066,-3.080515,2.264756
85.40007,4.266658,400,174,478,492,0.1109044,-0.02081009,0.002938883,-1.437604,3.07129,-0.05100699,0.006910425,0.08255765,0.001396198,-0.05763134,-3.070495,2.254425
85.20007,4.277769,400,174,478,492,0.13107,-0.008938001,0.01676613,-1.437877,3.071855,-0.05311515,0.03804322,0.1113028,0.03742517,-0.05513383,-3.058323,2.240943
85.00008,4.28888,400,174,478,492,0.1597278,0.01253489,0.0273926,-1.438489,3.072786,-0.05586566,0.05494941,0.1251576,0.01494041,-0.05471731,-3.026938,2.208404
84.80008,4.299992,400,174,478,492,0.1916344,0.02334323,0.02952427,-1.439089,3.073149,-0.0589496,0.05151379,0.1017391,-0.02232928,-0.05541879,-3.006294,2.187282
84.60008,4.311103,351,167,517,499,0.2277726,0.0447967,0.02949876,-1.439914,3.073598,-0.06278775,0.04279024,0.07725593,-0.05211318,-0.05645422,-2.988707,2.169573
84.40009,4.322214,351,167,517,499,0.2374351,0.0320386,0.02318243,-1.440067,3.07373,-0.06568634,0.05103697,0.07728204,-0.09478138,-0.05769472,-2.953094,2.13314
84.20009,4.333325,351,167,517,499,0.2566962,0.01505812,0.01796122,-1.439811,3.073806,-0.06902647,0.04874554,0.08475021,-0.1192653,-0.0587781,-2.919063,2.098688
84.00009,4.344437,351,167,517,499,0.2855704,-0.01040842,0.008554183,-1.439226,3.074048,-0.07264358,0.03673235,0.09648507,-0.1639214,-0.06067427,-2.876176,2.055851
83.80009,4.355548,472,172,488,493,0.3187257,-0.0358669,-0.0008688085,-1.438146,3.073857,-0.0770101,0.03341954,0.1380399,-0.1819915,-0.06178001,-2.819705,1.999216
83.6001,4.366659,472,172,488,493,0.3422568,-0.05815694,-0.001802217,-1.436718,3.073888,-0.08119978,0.04618376,0.1582794,-0.1841989,-0.06269507,-2.774053,1.952875
83.4001,4.37777,472,172,488,493,0.364664,-0.06655977,0.0004037246,-1.435946,3.074095,-0.08578521,0.05867149,0.1135568,-0.2279749,-0.06595531,-2.752716,1.930683
83.2001,4.388882,472,172,488,493,0.3849353,-0.07178991,0.0004578531,-1.435092,3.074181,-0.09065241,0.06596355,0.09865148,-0.2536007,-0.06904884,-2.725744,1.902814
83.00011,4.399993,472,172,488,493,0.4136547,-0.07175045,0.002647519,-1.43441,3.07437,-0.09597553,0.06359598,0.07737221,-0.288741,-0.07253918,-2.701191,1.877796
82.80011,4.411104,488,189,497,501,0.4264191,-0.06517105,0.007968105,-1.433957,3.074908,-0.1007996,0.08164731,0.0837695,-0.2984476,-0.0757371,-2.672501,1.847734
82.60011,4.422215,488,189,497,501,0.4284478,-0.04917194,0.01535415,-1.433584,3.075277,-0.1053104,0.08365832,0.08377725,-0.316569,-0.07919762,-2.647441,1.821788
82.40012,4.433327,488,189,497,501,0.432654,-0.03742973,0.01637357,-1.4335,3.075503,-0.1102623,0.08463237,0.08378333,-0.3304245,-0.08291645,-2.624298,1.797752
82.20012,4.444438,488,189,497,501,0.436896,-0.03101182,0.02166897,-1.433078,3.075816,-0.1155439,0.08252558,0.08164012,-0.3272234,-0.0862992,-2.606855,1.779499
82.00012,4.455549,488,189,497,501,0.4358081,-0.02674611,0.0237789,-1.432925,3.076139,-0.1204026,0.08045164,0.09015888,-0.3186836,-0.08927662,-2.585507,1.757378
81.80013,4.46666,452,232,484,487,0.4241045,-0.02679666,0.02272501,-1.432728,3.076735,-0.125045,0.08043024,0.09015843,-0.3218919,-0.09286603,-2.567537,1.738595
81.60013,4.477772,452,232,484,487,0.3868695,-0.03658554,0.01314168,-1.432132,3.077105,-0.1283175,0.0761272,0.09229207,-0.3282546,-0.09650709,-2.549671,1.720066
81.40013,4.488883,452,232,484,487,0.3858522,-0.04724311,0.0131869,-1.431352,3.077348,-0.1325855,0.07505506,0.09336385,-0.3271874,-0.09996175,-2.532578,1.702397
81.20013,4.499994,452,232,484,487,0.3858546,-0.04725675,0.008916408,-1.430895,3.077308,-0.1368737,0.07400617,0.08058706,-0.3229248,-0.1033168,-2.521601,1.690804
81.00014,4.511106,372,184,501,499,0.3859286,-0.06538756,0.004743244,-1.429722,3.077477,-0.1410069,0.08042502,0.05821374,-0.3187157,-0.1067203,-2.517116,1.685298
80.80014,4.522217,372,184,501,499,0.3806986,-0.08886615,0.0005923323,-1.428233,3.077809,-0.1448797,0.09225173,0.0582141,-0.3017527,-0.1096061,-2.507106,1.67401
80.60014,4.533328,372,184,501,499,0.3764958,-0.09956681,-0.005758312,-1.426827,3.077772,-0.1489415,0.09233665,0.07205728,-0.2889633,-0.1123236,-2.494228,1.66019
80.40015,4.544439,372,184,501,499,0.3679896,-0.1028331,-0.01109376,-1.425532,3.077596,-0.1527099,0.07861896,0.09123194,-0.2686169,-0.1145612,-2.477995,1.643651
80.20015,4.555551,372,184,501,499,0.3573303,-0.1018116,-0.01004962,-1.424433,3.077691,-0.1564053,0.07653081,0.09655562,-0.2622088,-0.1172228,-2.465729,1.630663
80.00015,4.566662,430,171,505,496,0.347723,-0.09867521,-0.01326909,-1.423416,3.077705,-0.1598685,0.07340369,0.09441581,-0.2515369,-0.1197421,-2.457183,1.621446
79.80016,4.577773,430,171,505,496,0.3402064,-0.08592104,-0.0122725,-1.422795,3.077682,-0.163435,0.08089535,0.08376017,-0.2462644,-0.1222753,-2.450781,1.613984
79.60016,4.588884,430,171,505,496,0.3337774,-0.07849832,-0.01232357,-1.422044,3.077533,-0.1669259,0.08516584,0.06671274,-0.2452327,-0.1249694,-2.448291,1.610384
79.40016,4.599996,430,171,505,496,0.3337088,-0.06146821,-0.01559556,-1.421836,3.07731,-0.1706436,0.07988895,0.07310136,-0.2377378,-0.1273678,-2.439764,1.601196
79.20016,4.611107,425,195,502,500,0.3389571,-0.04440945,-0.01673802,-1.421681,3.076982,-0.1745132,0.07481386,0.0975887,-0.1993378,-0.1284187,-2.424984,1.585939
79.00017,4.622218,425,195,502,500,0.33135,-0.01248381,-0.01048689,-1.422083,3.077106,-0.178085,0.08019236,0.09545143,-0.1908641,-0.1305071,-2.417415,1.577424
78.80017,4.633329,425,195,502,500,0.3098849,0.0204717,-0.004275717,-1.42323,3.077047,-0.1809101,0.08321102,0.06563477,-0.2175302,-0.1336475,-2.417849,1.576836
78.60017,4.644441,425,195,502,500,0.2927396,0.03956556,-0.004376911,-1.424051,3.076957,-0.1834668,0.06172082,0.0422086,-0.2451007,-0.1372119,-2.419162,1.578073
78.40018,4.655552,425,195,502,500,0.2852683,0.04377863,-0.007603355,-1.424639,3.076668,-0.1863813,0.05527982,0.0400815,-0.2525164,-0.1402383,-2.416404,1.574894
78.20018,4.666663,397,193,501,496,0.2820881,0.03841957,-0.0054253,-1.424548,3.07703,-0.1894701,0.04893975,0.04328397,-0.2439536,-0.1426645,-2.410737,1.568908
78.00018,4.677774,397,193,501,496,0.2789608,0.02238738,-0.009595197,-1.424099,3.077186,-0.1923569,0.0394867,0.05712419,-0.2236438,-0.144567,-2.403713,1.561809
77.80019,4.688886,397,193,501,496,0.2865087,0.002180679,-0.009492807,-1.42353,3.077176,-0.1957317,0.04057261,0.06884797,-0.2193765,-0.1467902,-2.395829,1.553594
77.60019,4.699997,397,193,501,496,0.2918722,-0.008444307,-0.00730478,-1.423128,3.077255,-0.1990127,0.04823483,0.09120508,-0.1885229,-0.1479977,-2.384649,1.541768
77.40019,4.711108,462,169,510,501,0.2972503,-0.02329133,0.002357941,-1.422552,3.077661,-0.2025297,0.06439047,0.09012884,-0.1630591,-0.1490236,-2.378095,1.533955
77.2002,4.722219,462,169,510,501,0.3015606,-0.03816605,0.006704256,-1.42189,3.078114,-0.205864,0.05469534,0.07096543,-0.1779124,-0.1514508,-2.37687,1.532567
77.0002,4.733331,462,169,510,501,0.2994891,-0.05096368,0.005692933,-1.42102,3.078346,-0.2091689,0.04826804,0.0592498,-0.1832018,-0.15365,-2.37542,1.530788
76.8002,4.744442,462,169,510,501,0.3016272,-0.05307228,0.007836286,-1.420477,3.078624,-0.2126247,0.05137901,0.0624443,-0.1949377,-0.1560596,-2.371013,1.525843
76.6002,4.755553,462,169,510,501,0.3027024,-0.05414703,0.004646853,-1.419849,3.078715,-0.216033,0.04497355,0.07203312,-0.1970216,-0.1583457,-2.36501,1.519572
76.40021,4.766665,427,163,497,495,0.3069893,-0.05734405,0.005752169,-1.418901,3.079211,-0.2198589,0.04280538,0.06670596,-0.203409,-0.1608837,-2.36251,1.516636
76.20021,4.777776,427,163,497,495,0.3112067,-0.04983942,0.01211729,-1.418645,3.079594,-0.2234999,0.05018382,0.03901327,-0.2151888,-0.1635905,-2.365616,1.518944
76.00021,4.788887,427,163,497,495,0.3090463,-0.04342299,0.0227606,-1.418343,3.080487,-0.2272449,0.06280538,0.03583688,-0.239776,-0.1669376,-2.364246,1.51651
75.80022,4.799998,427,163,497,495,0.3058105,-0.03912377,0.03444069,-1.418114,3.081039,-0.2306106,0.06045078,0.02733114,-0.2727911,-0.1707875,-2.364671,1.516411
75.60022,4.81111,427,163,497,495,0.3121628,-0.02951722,0.03227727,-1.418103,3.081351,-0.2343023,0.05295853,0.02520317,-0.2780691,-0.1740472,-2.364429,1.515777
75.40022,4.822221,494,195,495,497,0.3195793,-0.02313523,0.02908875,-1.417757,3.081935,-0.2378991,0.04242933,0.02944437,-0.2598815,-0.1762656,-2.363563,1.514727
75.20023,4.833332,494,195,495,497,0.3344463,-0.011365,0.02586419,-1.417987,3.08205,-0.24206,0.04674738,0.04861577,-0.251379,-0.1788163,-2.358392,1.509015
75.00023,4.844443,494,195,495,497,0.3280094,-0.001799613,0.02900682,-1.418212,3.082438,-0.24565,0.03617702,0.07631053,-0.2395688,-0.1812196,-2.350773,1.501309
74.80023,4.855555,494,195,495,497,0.3099071,-0.007190859,0.03328924,-1.418124,3.083266,-0.2485965,0.03310892,0.1029344,-0.2203606,-0.1832537,-2.341248,1.491673
74.60023,4.866666,500,185,475,495,0.3003909,-0.02637028,0.04188227,-1.417499,3.084148,-0.2518125,0.0310136,0.1008029,-0.2139613,-0.185625,-2.336837,1.487108
74.40024,4.877777,500,185,475,495,0.3004896,-0.04979555,0.04307304,-1.416647,3.085135,-0.2553045,0.04273839,0.0922797,-0.2129775,-0.1880469,-2.333603,1.483126
74.20024,4.888888,500,185,475,495,0.3036972,-0.05086573,0.03882188,-1.416154,3.085599,-0.2588273,0.03952423,0.07309976,-0.2151081,-0.1907159,-2.333771,1.482948
74.00024,4.9,500,185,475,495,0.3121716,-0.04230152,0.03986764,-1.416076,3.086182,-0.2624801,0.03301518,0.06991771,-0.2342423,-0.1938829,-2.331116,1.480058
73.80025,4.911111,500,185,475,495,0.3078589,-0.02955152,0.03660734,-1.416182,3.086493,-0.265841,0.03082836,0.07418278,-0.2427484,-0.1968811,-2.32777,1.476491
73.60025,4.922222,455,193,537,496,0.297088,-0.00507744,0.04500503,-1.416773,3.087132,-0.2689899,0.02654725,0.0635285,-0.2459216,-0.199695,-2.327029,1.475548
73.40025,4.933333,455,193,537,496,0.3002349,0.005594308,0.04602754,-1.417273,3.087568,-0.27246,0.02019285,0.05499436,-0.2394926,-0.2021984,-2.327018,1.475539
73.20026,4.944445,455,193,537,496,0.3034291,0.00561218,0.04817463,-1.417386,3.088279,-0.2760707,0.01712762,0.04859431,-0.2203067,-0.2042629,-2.325927,1.474319
73.00026,4.955556,455,193,537,496,0.3012672,0.01305486,0.04707228,-1.417841,3.088651,-0.279422,0.01091954,0.05497405,-0.1925645,-0.2057548,-2.323014,1.471511
72.80026,4.966667,403,165,531,497,0.300172,0.02155119,0.04171914,-1.418431,3.088966,-0.2827255,0.01847988,0.06241181,-0.1766372,-0.2075013,-2.320145,1.468317
72.60027,4.977778,403,165,531,497,0.2947918,0.03325032,0.04272288,-1.419222,3.089261,-0.285901,0.02823745,0.0986207,-0.1511185,-0.2086896,-2.310599,1.458389
72.40027,4.98889,403,165,531,497,0.2936751,0.04494663,0.04480891,-1.419846,3.089749,-0.2893253,0.0239092,0.1135344,-0.159606,-0.2109325,-2.303903,1.451829
72.20027,5.000001,403,165,531,497,0.2926236,0.03749821,0.05122514,-1.420001,3.090349,-0.292495,0.01751741,0.1071427,-0.1595664,-0.2127951,-2.300158,1.448142
72.00027,5.011112,403,165,531,497,0.2947741,0.03219087,0.0533832,-1.420395,3.090923,-0.2959177,0.02406755,0.08049849,-0.1351184,-0.2137038,-2.300072,1.447642
71.80028,5.022223,406,161,504,498,0.320345,0.03332271,0.0480972,-1.420629,3.091234,-0.3001745,0.02830284,0.06665921,-0.1372866,-0.2153949,-2.298549,1.445865
71.60028,5.033335,406,161,504,498,0.3608443,0.0313468,0.04284758,-1.421004,3.091473,-0.3051786,0.04085286,0.07093547,-0.1725236,-0.2183478,-2.296112,1.442695
71.40028,5.044446,406,161,504,498,0.3597844,0.03027705,0.04180983,-1.421584,3.092074,-0.3091877,0.0268321,0.08054503,-0.1969237,-0.2212554,-2.291548,1.438415
71.20029,5.055557,406,161,504,498,0.3225821,0.01094247,0.04289915,-1.421377,3.092654,-0.3118626,0.01500107,0.09440156,-0.213884,-0.2242445,-2.286884,1.434024
71.00029,5.066669,426,158,498,495,0.3003274,-0.01472746,0.04194459,-1.42084,3.093736,-0.3147478,0.01170204,0.09972644,-0.2298506,-0.2274372,-2.283804,1.430939
70.80029,5.07778,426,158,498,495,0.2993598,-0.03815385,0.04524411,-1.420034,3.094637,-0.3181966,0.01484808,0.111454,-0.2362611,-0.2304567,-2.278523,1.425586
70.6003,5.088891,426,158,498,495,0.3111503,-0.05198723,0.03893748,-1.419195,3.095203,-0.3221743,0.01273752,0.1125106,-0.2319893,-0.2330937,-2.274873,1.422044
70.4003,5.100002,426,158,498,495,0.3335887,-0.06366596,0.02945105,-1.41815,3.095737,-0.3265659,0.01498408,0.1220933,-0.2138794,-0.2350815,-2.269232,1.416413
70.2003,5.111114,426,158,498,495,0.3410701,-0.07001527,0.03162301,-1.417384,3.096443,-0.3306778,0.03410237,0.1327499,-0.2225246,-0.238011,-2.263503,1.410005
70.00031,5.122225,434,173,508,496,0.3272728,-0.08177107,0.03593419,-1.416561,3.097568,-0.3342437,0.03615905,0.1157061,-0.2331884,-0.2408914,-2.261912,1.408047
69.80031,5.133336,434,173,508,496,0.3049729,-0.09890422,0.03810342,-1.415299,3.098516,-0.3371993,0.03404265,0.09652978,-0.231052,-0.2434246,-2.261217,1.407059
69.60031,5.144447,434,173,508,496,0.2975661,-0.1085296,0.03707375,-1.4141,3.099411,-0.3405949,0.04150134,0.08053991,-0.2321748,-0.2460228,-2.261415,1.406568
69.40031,5.155559,434,173,508,496,0.2933161,-0.1106837,0.03601071,-1.413008,3.100215,-0.3438844,0.05006601,0.08053721,-0.2258398,-0.2484868,-2.259434,1.40386
69.20032,5.16667,434,173,508,496,0.2922422,-0.1075033,0.03280835,-1.412185,3.10096,-0.347249,0.02788104,0.06880522,-0.1979927,-0.2499717,-2.25838,1.403106
69.00032,5.177781,398,178,503,499,0.2890388,-0.1053916,0.03172795,-1.411257,3.10166,-0.3504981,0.01729533,0.06241474,-0.187268,-0.2518205,-2.257168,1.402057
68.80032,5.188892,398,178,503,499,0.2879511,-0.1000527,0.03595928,-1.410504,3.102452,-0.353941,0.01401116,0.06030034,-0.2000259,-0.2544315,-2.255739,1.400635
68.60033,5.200004,398,178,503,499,0.2900612,-0.09577748,0.03700898,-1.409739,3.103218,-0.3573419,0.026673,0.05391263,-0.2192819,-0.2573445,-2.256149,1.400313
68.40033,5.211115,398,178,503,499,0.295403,-0.09682062,0.03489662,-1.40891,3.103942,-0.3609553,0.03841565,0.06669802,-0.2150875,-0.2597344,-2.253502,1.3971
68.20033,5.222226,449,195,511,500,0.3209457,-0.09138754,0.0328111,-1.408325,3.104848,-0.3652856,0.0469193,0.09120046,-0.2151287,-0.2622692,-2.248726,1.391962
68.00034,5.233337,449,195,511,500,0.337937,-0.07958987,0.03385283,-1.407943,3.105443,-0.3695733,0.04265104,0.1029192,-0.2161604,-0.264894,-2.244971,1.387967
67.80034,5.244449,449,195,511,500,0.3197387,-0.06471334,0.04335432,-1.407944,3.10641,-0.372703,0.03520288,0.1018486,-0.2161158,-0.2675417,-2.242981,1.385785
67.60034,5.25556,449,195,511,500,0.2834793,-0.05423696,0.04111248,-1.407635,3.106901,-0.3749635,0.02236453,0.06030821,-0.2245637,-0.2699902,-2.246143,1.388884
67.40034,5.266671,449,195,511,500,0.2781753,-0.05853104,0.03899192,-1.407041,3.107556,-0.3780112,0.01912557,0.04112761,-0.2309494,-0.2727706,-2.248639,1.391157
67.20035,5.277782,442,182,532,497,0.2792666,-0.06490999,0.04222057,-1.406337,3.108457,-0.3814185,0.03945903,0.04324934,-0.2172348,-0.2748941,-2.248018,1.389519
67.00035,5.288894,442,182,532,497,0.2793663,-0.08728559,0.04125655,-1.405059,3.109434,-0.3846894,0.04920898,0.06666688,-0.1917209,-0.2765203,-2.244261,1.385159
66.80035,5.300005,442,182,532,497,0.2815235,-0.09577748,0.04662728,-1.404125,3.110553,-0.3880226,0.05881276,0.06986818,-0.1864673,-0.2787573,-2.242239,1.382591
66.60036,5.311116,442,182,532,497,0.281543,-0.1010942,0.04878196,-1.403181,3.111606,-0.391326,0.05222249,0.06348926,-0.2162551,-0.2819744,-2.242474,1.382395
66.40036,5.322227,461,189,483,490,0.2836511,-0.09576276,0.04982852,-1.402494,3.112507,-0.3947348,0.0500147,0.06882349,-0.2279433,-0.2847612,-2.241093,1.380575
66.20036,5.333339,461,189,483,490,0.2963918,-0.08295724,0.04233586,-1.402086,3.112974,-0.3984792,0.04147853,0.05497542,-0.2300232,-0.2873961,-2.241958,1.381161
66.00037,5.34445,461,189,483,490,0.3187379,-0.0754445,0.03489233,-1.401517,3.11349,-0.4026561,0.02875131,0.05178554,-0.220332,-0.289312,-2.24115,1.380499
65.80037,5.355561,461,189,483,490,0.3144734,-0.07651472,0.0380816,-1.40088,3.114265,-0.4061278,0.02465349,0.06455793,-0.1957965,-0.2909402,-2.238382,1.377716
65.60037,5.366673,461,189,483,490,0.2889426,-0.08619931,0.04127617,-1.399972,3.115255,-0.4089071,0.04072992,0.0965045,-0.1809891,-0.2931155,-2.233118,1.371775
65.40038,5.377784,411,199,494,494,0.2708445,-0.09159994,0.04447646,-1.399074,3.116421,-0.4115271,0.0449158,0.09757295,-0.1927303,-0.2956716,-2.231226,1.369321
65.20038,5.388895,411,199,494,494,0.2666104,-0.09695445,0.04236253,-1.398073,3.117311,-0.4145258,0.04276264,0.09437914,-0.1959081,-0.2980359,-2.229706,1.367495
65.00038,5.400006,411,199,494,494,0.2687154,-0.09162159,0.0391578,-1.397658,3.118059,-0.4176257,0.04383437,0.08799575,-0.1937876,-0.3002384,-2.2281,1.365549
64.80038,5.411118,411,199,494,494,0.2793601,-0.08839384,0.03596629,-1.39697,3.118718,-0.4211065,0.02670248,0.08054803,-0.2053974,-0.3029383,-2.227399,1.365103
64.60039,5.422229,398,200,506,493,0.30064,-0.08615454,0.03494978,-1.39666,3.119588,-0.4249015,0.02668749,0.07735533,-0.2075258,-0.305382,-2.22633,1.363804
64.40039,5.43334,398,200,506,493,0.3346853,-0.0785208,0.04136858,-1.39631,3.120463,-0.4297809,0.04481965,0.073098,-0.2033797,-0.3074896,-2.2254,1.361972
64.20039,5.444451,398,200,506,493,0.3293613,-0.08275487,0.04989557,-1.395839,3.121547,-0.4333783,0.04260378,0.07842526,-0.215083,-0.3103552,-2.224061,1.360351
64.0004,5.455563,398,200,506,493,0.3102135,-0.0913364,0.05522634,-1.395033,3.122791,-0.4365022,0.03725328,0.06884731,-0.2171912,-0.313102,-2.223894,1.360069
63.8004,5.466674,398,200,506,493,0.2740634,-0.1053727,0.0488288,-1.393752,3.123756,-0.4386136,0.04374231,0.07416168,-0.2023154,-0.3150387,-2.222372,1.357995
63.6004,5.477785,427,167,493,501,0.2698283,-0.1117898,0.04779225,-1.39272,3.124921,-0.4417748,0.04167151,0.07203051,-0.1927213,-0.3171569,-2.221201,1.356497
63.40039,5.488896,427,167,493,501,0.2730299,-0.1117903,0.04460208,-1.391755,3.125829,-0.445035,0.0332654,0.06136896,-0.1756277,-0.3187729,-2.220942,1.356082
63.20039,5.500008,427,167,493,501,0.2762293,-0.1096742,0.0392742,-1.390841,3.126632,-0.4483815,0.02477583,0.04752932,-0.1691882,-0.3205626,-2.221119,1.356348
63.00039,5.511119,427,167,493,501,0.2954482,-0.1170767,0.03295028,-1.389584,3.127491,-0.4523166,0.02261919,0.04965214,-0.1734355,-0.322692,-2.221148,1.356141
62.80039,5.52223,427,167,493,501,0.3146877,-0.1308292,0.03517251,-1.388174,3.128639,-0.4566405,0.0289611,0.06457391,-0.1787852,-0.3249057,-2.218668,1.353441
62.60039,5.533341,406,175,492,501,0.3254209,-0.1488974,0.03420801,-1.386405,3.129909,-0.4608169,0.0438036,0.08269787,-0.188465,-0.3275129,-2.215745,1.349829
62.40039,5.544453,406,175,492,501,0.3105621,-0.1596338,0.03104483,-1.384734,3.131226,-0.4640782,0.03418696,0.09228505,-0.1926598,-0.3300131,-2.213522,1.347607
62.20039,5.555564,406,175,492,501,0.2828925,-0.1650921,0.02995591,-1.383059,3.132455,-0.4667547,0.02344738,0.0752487,-0.2053794,-0.3326315,-2.213933,1.348043
62.00039,5.566675,406,175,492,501,0.2754096,-0.1598048,0.02672972,-1.381841,3.13345,-0.4696809,0.02240092,0.05394638,-0.2032457,-0.3347029,-2.215063,1.348833
61.80039,5.577786,452,182,517,495,0.2786303,-0.1630074,0.02462291,-1.380144,3.134605,-0.4732565,0.03198741,0.03477293,-0.2033198,-0.3369128,-2.216824,1.349876
61.60039,5.588898,452,182,517,495,0.2935673,-0.1682692,0.02467358,-1.378477,3.135824,-0.4770893,0.04919069,0.05713409,-0.1789169,-0.3384185,-2.213965,1.346227
61.40039,5.600009,452,182,517,495,0.2957161,-0.1735748,0.02682909,-1.376823,3.137083,-0.4806526,0.05663188,0.0592657,-0.1811,-0.3406348,-2.213106,1.344615
61.20039,5.61112,452,182,517,495,0.3063543,-0.1681808,0.03001573,-1.375552,3.138188,-0.4847486,0.05546284,0.04330018,-0.1970756,-0.343208,-2.214603,1.345438
61.00039,5.622231,452,182,517,495,0.3126905,-0.1532575,0.02463426,-1.374517,3.138935,-0.4884914,0.0597426,0.03692405,-0.1949789,-0.3454136,-2.214815,1.344799
60.80038,5.633343,426,177,482,493,0.3147585,-0.1383392,0.0235052,-1.373608,3.139693,-0.492198,0.05449681,0.03798564,-0.1821672,-0.3472592,-2.214473,1.34409
60.60038,5.644454,426,177,482,493,0.3041191,-0.1096027,0.02010223,-1.373407,3.139187,-0.4970337,0.05233855,0.04011714,-0.1864096,-0.3494701,-2.21453,1.343606
60.40038,5.655565,426,177,482,493,0.3008711,-0.09894942,0.02324428,-1.372875,3.139891,-0.5004075,0.05770258,0.04118413,-0.1800579,-0.3514707,-2.214252,1.342619
60.20038,5.666677,426,177,482,493,0.2827293,-0.1010825,0.03493391,-1.372412,3.140898,-0.5029177,0.06421125,0.05289385,-0.1630488,-0.3529397,-2.212638,1.340179
60.00038,5.677788,442,174,491,493,0.2774586,-0.1149309,0.03283641,-1.371368,3.14158,-0.5058557,0.05775297,0.04438274,-0.1715358,-0.3551362,-2.213063,1.34025
59.80038,5.688899,442,174,491,493,0.279628,-0.1053328,0.03166901,-1.370385,3.141569,-0.510161,0.05333436,0.03480709,-0.1949482,-0.3578729,-2.214555,1.341175
59.60038,5.70001,442,174,491,493,0.2966518,-0.1042022,0.03276634,-1.369495,-3.140526,-0.51389,0.04903382,0.03161362,-0.2002491,-0.3602256,-2.215292,1.341459
59.40038,5.711122,442,174,491,493,0.3585374,-0.1231434,0.02443649,-1.367943,-3.13953,-0.5196189,0.04051174,0.02735217,-0.2001939,-0.3624424,-2.216159,1.342055
59.20038,5.722233,442,174,491,493,0.392759,-0.1357544,0.01811409,-1.366685,-3.139327,-0.5257948,0.02769643,0.01670429,-0.2064974,-0.3647098,-2.217794,1.343483
59.00038,5.733344,450,177,508,495,0.3874843,-0.147496,0.01815791,-1.365081,-3.138155,-0.5302572,0.02235325,0.01457909,-0.2085927,-0.3670464,-2.218841,1.344376
58.80038,5.744455,450,177,508,495,0.3333289,-0.178623,0.01285829,-1.362885,-3.137106,-0.5328831,0.02774223,0.03480913,-0.1990236,-0.3690502,-2.217614,1.342798
58.60038,5.755567,450,177,508,495,0.3078314,-0.1957256,0.01928869,-1.361137,-3.135497,-0.5359377,0.05118291,0.07742517,-0.1980892,-0.3715419,-2.213188,1.337454
58.40038,5.766678,450,177,508,495,0.3121423,-0.1988433,0.02775983,-1.359368,-3.134614,-0.5404987,0.06708357,0.09022523,-0.2088393,-0.3744117,-2.210911,1.334201
58.20037,5.777789,450,177,508,495,0.3334071,-0.1912408,0.03415649,-1.358272,-3.13316,-0.5451544,0.06917256,0.06892188,-0.2152536,-0.3769097,-2.212245,1.334654
58.00037,5.7889,430,184,503,487,0.397225,-0.174998,0.02994033,-1.357175,-3.132069,-0.5510208,0.07244004,0.04973549,-0.2046365,-0.3788751,-2.213666,1.335115
57.80037,5.800012,430,184,503,487,0.4482015,-0.1246714,0.03084514,-1.357442,-3.132045,-0.5583189,0.07458552,0.04333681,-0.2046431,-0.3809865,-2.214279,1.334648
57.60037,5.811123,430,184,503,487,0.4021637,-0.07479545,0.03374232,-1.358129,-3.13193,-0.5616729,0.06927407,0.02309488,-0.2024873,-0.3830276,-2.216462,1.33606
57.40037,5.822234,430,184,503,487,0.3477491,-0.05373386,0.0314225,-1.358215,-3.131703,-0.5640543,0.08726348,0.02523403,-0.2217687,-0.3857509,-2.217534,1.335453
57.20037,5.833345,429,199,541,501,0.3274722,-0.0453076,0.03028604,-1.358164,-3.131317,-0.5670972,0.08178648,0.04761717,-0.2440917,-0.3892796,-2.216592,1.333811
57.00037,5.844457,429,199,541,501,0.3465917,-0.02703838,0.04300446,-1.358811,-3.130899,-0.5724614,0.07957864,0.04121861,-0.2558033,-0.3924434,-2.218083,1.334422
56.80037,5.855568,429,199,541,501,0.350829,-0.02485081,0.05152421,-1.359078,-3.130075,-0.5766532,0.09437561,0.01885076,-0.274024,-0.3956754,-2.221562,1.336096
56.60037,5.866679,429,199,541,501,0.3476693,-0.03235084,0.04940587,-1.358521,-3.12944,-0.5804855,0.1006255,0.01139915,-0.2942923,-0.3991226,-2.224077,1.33722
56.40037,5.87779,429,199,541,501,0.3487079,-0.02387592,0.04404102,-1.358347,-3.129009,-0.5845426,0.09944813,0.007164299,-0.3092006,-0.4028926,-2.225782,1.337857
56.20037,5.888902,453,183,499,493,0.3571649,-0.008928416,0.04292368,-1.358875,-3.128826,-0.5888084,0.0834173,-0.01095319,-0.3165587,-0.4063062,-2.229851,1.341201
56.00037,5.900013,453,183,499,493,0.3645948,-0.003635113,0.03011481,-1.358812,-3.129009,-0.5926641,0.06957005,-0.03438401,-0.3090414,-0.4094514,-2.233984,1.345153
55.80037,5.911124,453,183,499,493,0.3689514,-0.0249215,0.03021601,-1.358337,-3.128266,-0.5970397,0.06538899,-0.06954521,-0.2973137,-0.4119612,-2.239987,1.350065
55.60036,5.922235,453,183,499,493,0.374327,-0.0430266,0.02711618,-1.35768,-3.127429,-0.6009519,0.07717435,-0.03438279,-0.2845846,-0.4147618,-2.239747,1.348853
55.40036,5.933347,397,159,484,495,0.3809074,-0.08454999,0.02517824,-1.356205,-3.12616,-0.6056183,0.09962389,0.01035881,-0.2729821,-0.4175735,-2.237936,1.345475
55.20036,5.944458,397,159,484,495,0.3841973,-0.1047854,0.0231424,-1.354965,-3.12501,-0.6102037,0.09642498,0.0263292,-0.2708093,-0.4204279,-2.23815,1.344958
55.00036,5.955569,397,159,484,495,0.3821084,-0.1240188,0.02110972,-1.353292,-3.123417,-0.6140743,0.08044492,0.05083352,-0.2706786,-0.4235529,-2.236887,1.343379
54.80036,5.966681,397,159,484,495,0.3821434,-0.1314805,0.02007747,-1.352052,-3.122285,-0.6185303,0.07628436,0.0764031,-0.2578671,-0.4265777,-2.234474,1.34023
54.60036,5.977792,397,159,484,495,0.3885576,-0.1367814,0.02010874,-1.350827,-3.12113,-0.6232772,0.07430948,0.07638928,-0.235482,-0.4287524,-2.233845,1.338788
54.40036,5.988903,428,182,495,500,0.4013294,-0.1346007,0.01700403,-1.350348,-3.119398,-0.6283121,0.08285461,0.05295151,-0.2323567,-0.4311493,-2.235117,1.338801
54.20036,6.000014,428,182,495,500,0.4141245,-0.1377976,0.01065156,-1.348732,-3.118219,-0.6332981,0.09135169,0.02633438,-0.2409565,-0.4340809,-2.237468,1.339294
54.00036,6.011126,428,182,495,500,0.4397628,-0.1526123,0.007564664,-1.347087,-3.116958,-0.6391528,0.1030063,0.0007732213,-0.2506372,-0.4368953,-2.240792,1.340821
53.80036,6.022237,428,182,495,500,0.4472574,-0.1579325,0.00546141,-1.345367,-3.115784,-0.6447087,0.09975672,-0.01199678,-0.2612769,-0.439934,-2.243083,1.341699
53.60036,6.033348,435,170,496,497,0.4206057,-0.1548404,0.008598618,-1.344169,-3.11463,-0.6489612,0.09218438,0.002933621,-0.2772046,-0.4435117,-2.243767,1.341559
53.40036,6.044459,435,170,496,497,0.3747668,-0.1476287,0.006347723,-1.342617,-3.11366,-0.6520228,0.07833584,0.02635258,-0.2792258,-0.4467303,-2.243924,1.341023
53.20036,6.055571,435,170,496,497,0.368282,-0.1305964,0.01156261,-1.341714,-3.113037,-0.6560037,0.08692736,0.03274119,-0.2686265,-0.4494542,-2.244116,1.34002
53.00035,6.066682,435,170,496,497,0.3755969,-0.1102696,0.02005323,-1.341906,-3.111817,-0.6601071,0.1061504,0.01780836,-0.2634409,-0.4521611,-2.246444,1.340309
52.80035,6.077793,435,170,496,497,0.3765286,-0.0942575,0.02322715,-1.342087,-3.110744,-0.6636859,0.1136615,-0.004570514,-0.2549931,-0.4547784,-2.249362,1.341562
52.60035,6.088904,401,152,506,494,0.3700828,-0.08361391,0.02743002,-1.341829,-3.109982,-0.6677951,0.1232353,-0.02907082,-0.2572017,-0.4573665,-2.253008,1.343204
52.40035,6.100016,401,152,506,494,0.3679408,-0.08362105,0.02739798,-1.341084,-3.109441,-0.6717776,0.1210437,-0.02694577,-0.2667813,-0.4605687,-2.255379,1.344043
52.20035,6.111127,401,152,506,494,0.3732602,-0.08890764,0.02853591,-1.340863,-3.108081,-0.6759571,0.1092753,-0.01202774,-0.2741511,-0.463822,-2.256402,1.344053
52.00035,6.122238,401,152,506,494,0.3882102,-0.09946863,0.02967764,-1.3403,-3.107015,-0.6807732,0.117781,-0.01202127,-0.2763505,-0.4669049,-2.258249,1.344191
51.80035,6.133349,431,157,479,499,0.4373611,-0.1312301,0.02564185,-1.338573,-3.105365,-0.6873917,0.121949,-0.02053571,-0.2902326,-0.4703228,-2.261024,1.345188
51.60035,6.144461,431,157,479,499,0.4598409,-0.1630775,0.02370825,-1.337067,-3.103478,-0.6929918,0.128332,-0.0269343,-0.2924199,-0.4735521,-2.263998,1.346158
51.40035,6.155572,431,157,479,499,0.446101,-0.1886957,0.02592978,-1.335106,-3.101352,-0.6980795,0.1196859,-0.04290324,-0.3104856,-0.4772411,-2.267865,1.348514
51.20035,6.166683,431,157,479,499,0.4078462,-0.2133785,0.02384958,-1.332938,-3.099125,-0.7016236,0.1100592,-0.04610521,-0.3168127,-0.4806718,-2.271066,1.350397
51.00035,6.177794,431,157,479,499,0.3779963,-0.2071474,0.02057232,-1.331237,-3.097529,-0.7054298,0.1091059,-0.03652444,-0.2997592,-0.4834575,-2.272586,1.350598
50.80035,6.188906,408,161,499,492,0.3745846,-0.1676996,0.03105475,-1.331223,-3.096458,-0.7094549,0.1135138,-0.01418227,-0.2784755,-0.4859827,-2.27315,1.349642
50.60035,6.200017,408,161,499,492,0.3711846,-0.1250886,0.03513527,-1.331372,-3.095681,-0.7136116,0.1051026,0.008192539,-0.2613678,-0.4886666,-2.27259,1.34824
50.40034,6.211128,408,161,499,492,0.3657251,-0.09633049,0.03925843,-1.331494,-3.09504,-0.7177044,0.1041378,0.01457587,-0.2464432,-0.4910368,-2.272963,1.347469
50.20034,6.222239,408,161,499,492,0.3634996,-0.08030088,0.04344269,-1.331844,-3.094472,-0.7215302,0.1127385,0.009244472,-0.2358625,-0.4934523,-2.2744,1.347132
50.00034,6.233351,408,161,499,492,0.3570629,-0.06968102,0.0423188,-1.33177,-3.093791,-0.7254738,0.1116659,-0.0003425479,-0.2369261,-0.4959786,-2.27617,1.347479
49.80034,6.244462,353,175,495,497,0.352723,-0.05370333,0.04438443,-1.332171,-3.093151,-0.7293498,0.0998157,-0.02056524,-0.2571155,-0.4994268,-2.279329,1.349428
49.60034,6.255573,353,175,495,497,0.3516138,-0.04411577,0.04540481,-1.332367,-3.092596,-0.7333413,0.09016223,-0.02801529,-0.2666443,-0.5024852,-2.281814,1.350877
49.40034,6.266685,353,175,495,497,0.3493598,-0.02707275,0.04744849,-1.332854,-3.092327,-0.7366133,0.09335981,-0.02481285,-0.2687955,-0.5054104,-2.283285,1.350798
49.20034,6.277796,353,175,495,497,0.3471604,-0.01428601,0.05376599,-1.333244,-3.091882,-0.7404653,0.09990965,-0.05678201,-0.2443598,-0.5071442,-2.287102,1.352936
49.00034,6.288907,428,199,499,495,0.3407358,-0.01112538,0.05056056,-1.333739,-3.091405,-0.7438395,0.09777902,-0.0738267,-0.2443553,-0.5095133,-2.290782,1.355109
48.80034,6.300018,428,199,499,495,0.337538,-0.01968806,0.05165412,-1.333474,-3.09048,-0.7472122,0.09027949,-0.08127846,-0.2475217,-0.5122276,-2.294009,1.357242
48.60034,6.31113,428,199,499,495,0.3397835,-0.04419219,0.04644653,-1.333088,-3.089434,-0.7512714,0.08176771,-0.0812819,-0.2474591,-0.5147464,-2.297109,1.359263
48.40034,6.322241,428,199,499,495,0.3398574,-0.05803604,0.04544313,-1.332816,-3.088454,-0.7554456,0.0808033,-0.06426573,-0.23465,-0.5167773,-2.299041,1.35991
48.20034,6.333352,428,199,499,495,0.3409727,-0.06869373,0.04336224,-1.332345,-3.087375,-0.7595362,0.0787732,-0.04616416,-0.2197117,-0.5187598,-2.29993,1.359852
48.00034,6.344463,384,176,517,499,0.3473723,-0.07827081,0.043424,-1.331846,-3.086046,-0.7634303,0.08958524,-0.01314563,-0.1952615,-0.520322,-2.298904,1.357742
47.80033,6.355575,384,176,517,499,0.3549141,-0.09532801,0.03925006,-1.330741,-3.084523,-0.7680216,0.1056215,0.006025523,-0.1868347,-0.5222347,-2.298552,1.355832
47.60033,6.366686,384,176,517,499,0.3550147,-0.1262141,0.0394116,-1.32977,-3.082506,-0.7719529,0.09062912,0.01987922,-0.1995032,-0.5247812,-2.298793,1.355352
47.40033,6.377797,384,176,517,499,0.3551362,-0.1592618,0.03848514,-1.327982,-3.080323,-0.7761421,0.07262247,0.04543711,-0.1833933,-0.5267173,-2.297318,1.35382
47.20033,6.388908,354,155,532,499,0.3575065,-0.2114894,0.03020105,-1.325346,-3.077499,-0.7808532,0.07591885,0.04968949,-0.1684985,-0.5283046,-2.296665,1.352323
47.00033,6.40002,354,155,532,499,0.3555492,-0.253082,0.02399415,-1.322729,-3.074594,-0.7852767,0.07485604,0.04010658,-0.1674289,-0.5301262,-2.297148,1.351924
46.80033,6.411131,354,155,532,499,0.3481379,-0.2616603,0.01869338,-1.32055,-3.072263,-0.7895213,0.06323876,0.05181615,-0.1524292,-0.5315808,-2.296068,1.350606
46.60033,6.422242,354,155,532,499,0.3502272,-0.2542048,0.01867154,-1.318936,-3.070102,-0.7939085,0.06856567,0.07098578,-0.1556454,-0.5335776,-2.294499,1.348079
46.40033,6.433353,354,155,532,499,0.3469216,-0.2307586,0.02388727,-1.317873,-3.068377,-0.7981132,0.07705204,0.07205417,-0.1610284,-0.5356618,-2.293727,1.346333
46.20033,6.444465,518,174,507,498,0.3499809,-0.2019339,0.03123479,-1.31751,-3.066943,-0.8024307,0.08340168,0.05074276,-0.1674725,-0.5375862,-2.295048,1.346396
46.00033,6.455576,518,174,507,498,0.3531102,-0.1880613,0.03650294,-1.316522,-3.065144,-0.8069266,0.08978249,0.03051025,-0.168592,-0.5394419,-2.295997,1.346101
45.80033,6.466687,518,174,507,498,0.3541366,-0.1848596,0.03649552,-1.315458,-3.063341,-0.8109938,0.09310132,-0.002532274,-0.1526569,-0.5405333,-2.298523,1.346962
45.60033,6.477798,518,174,507,498,0.3497982,-0.1689068,0.03852486,-1.314502,-3.061959,-0.8150775,0.1101847,0.002794638,-0.1474392,-0.5420177,-2.298662,1.345376
45.40033,6.48891,518,174,507,498,0.3443579,-0.1507991,0.04163597,-1.31419,-3.060731,-0.8186339,0.1016229,0.02410281,-0.1537583,-0.5439693,-2.297884,1.343772
45.20033,6.500021,517,145,533,498,0.3346504,-0.1295289,0.04366644,-1.314061,-3.059587,-0.8220901,0.07287675,0.03154752,-0.1535536,-0.5456865,-2.297955,1.343635
45.00032,6.511132,517,145,533,498,0.3292657,-0.1156901,0.04360556,-1.314012,-3.058597,-0.8258436,0.05779172,0.02730051,-0.1790227,-0.5483001,-2.298713,1.344068
44.80032,6.522243,517,145,533,498,0.3271639,-0.1210125,0.04468898,-1.313412,-3.057125,-0.8299145,0.05989402,0.02730824,-0.1822346,-0.5504701,-2.298914,1.34353
44.60032,6.533355,517,145,533,498,0.3272148,-0.1316797,0.04154119,-1.312514,-3.055526,-0.833963,0.08124714,0.03263703,-0.1749141,-0.5521841,-2.298508,1.341766
44.40032,6.544466,439,126,523,503,0.3283953,-0.1561771,0.03739035,-1.311321,-3.053707,-0.8381447,0.08442406,0.02091092,-0.1792087,-0.554256,-2.299832,1.341778
44.20032,6.555577,439,126,523,503,0.3327595,-0.1753869,0.02897068,-1.309705,-3.051572,-0.8425965,0.07695024,-0.006782144,-0.1813083,-0.5561661,-2.30216,1.343166
44.00032,6.566689,439,126,523,503,0.3350037,-0.1934821,0.02373849,-1.308403,-3.049623,-0.8472155,0.0812603,-0.01957051,-0.1738923,-0.5577661,-2.303931,1.343671
43.80032,6.5778,439,126,523,503,0.3446468,-0.2180076,0.01854539,-1.306246,-3.04687,-0.8513072,0.0780081,-0.04086877,-0.1845293,-0.5597852,-2.306702,1.345044
43.60032,6.588911,439,126,523,503,0.3457937,-0.2350715,0.01329775,-1.304253,-3.044482,-0.8558233,0.0790306,-0.04299572,-0.1909292,-0.5618998,-2.308659,1.345789
43.40032,6.600022,392,147,497,499,0.3481306,-0.272345,0.009193525,-1.301724,-3.041649,-0.8610032,0.07583079,-0.04299352,-0.1919649,-0.5637789,-2.310254,1.346336
43.20032,6.611134,392,147,497,499,0.3579202,-0.3170744,0.003020175,-1.29859,-3.038075,-0.8661633,0.07798269,-0.0259506,-0.1887737,-0.5657694,-2.310826,1.345894
43.00032,6.622245,392,147,497,499,0.3602094,-0.3490135,0.003159702,-1.295677,-3.034524,-0.8714507,0.0716709,-0.01742744,-0.1780682,-0.5674184,-2.311339,1.345579
42.80032,6.633356,392,147,497,499,0.3678407,-0.3905177,0.005490512,-1.292236,-3.030054,-0.8769544,0.0760214,-0.007843375,-0.1642486,-0.5690254,-2.311646,1.344913
42.60032,6.644467,494,153,479,491,0.3743247,-0.4032952,0.0002196729,-1.289054,-3.026473,-0.882612,0.07823072,-0.005733952,-0.1546743,-0.5704454,-2.312731,1.344698
42.40031,6.655579,494,153,479,491,0.3753309,-0.3904955,0.003364787,-1.286687,-3.023139,-0.887737,0.07724836,0.002785891,-0.1418808,-0.5717551,-2.312721,1.343908
42.20031,6.66669,494,153,479,491,0.3773619,-0.3670144,0.007521175,-1.284805,-3.020393,-0.8928301,0.08360509,0.03259967,-0.1472365,-0.5737557,-2.311917,1.342121
42.00031,6.677801,494,153,479,491,0.3826509,-0.3552431,0.01066366,-1.28271,-3.017441,-0.8982906,0.08575709,0.0432511,-0.1440466,-0.5753967,-2.311143,1.340455
41.80031,6.688912,494,153,479,491,0.3932976,-0.3562337,0.01707787,-1.280493,-3.013969,-0.9039274,0.09966952,0.02725369,-0.1356322,-0.5766367,-2.312333,1.33994
41.60031,6.700024,471,140,483,498,0.3965034,-0.3562061,0.02029262,-1.278356,-3.010362,-0.9096826,0.1059898,0.01872596,-0.1474085,-0.5786644,-2.313546,1.339549
41.40031,6.711135,471,140,483,498,0.3943007,-0.342333,0.02768362,-1.276637,-3.007203,-0.9148784,0.1026446,0.009150565,-0.1697632,-0.5810602,-2.31488,1.339596
41.20031,6.722246,471,140,483,498,0.3951995,-0.2996923,0.02857772,-1.275789,-3.005099,-0.9201232,0.1078966,0.02193478,-0.1815087,-0.5833793,-2.314879,1.33827
41.00031,6.733357,471,140,483,498,0.3918889,-0.2751806,0.03378771,-1.274742,-3.00275,-0.9250655,0.1078327,0.02620111,-0.1910939,-0.5857713,-2.315147,1.337291
40.80031,6.744469,448,131,506,499,0.3960074,-0.24315,0.04539064,-1.274406,-3.000436,-0.9304973,0.1077998,0.0208866,-0.1985406,-0.5879951,-2.315836,1.336429
40.60031,6.75558,448,131,506,499,0.395905,-0.2164905,0.04847991,-1.27406,-2.998613,-0.9355882,0.1046127,0.005978942,-0.1974562,-0.5899072,-2.317092,1.336341
40.40031,6.766691,448,131,506,499,0.3947576,-0.1983757,0.05052595,-1.273561,-2.99679,-0.9404623,0.1035476,-0.01000056,-0.1974577,-0.591903,-2.318992,1.336803
40.20031,6.777802,448,131,506,499,0.3947543,-0.1983271,0.05263157,-1.272812,-2.994973,-0.9453476,0.1120552,-0.02491762,-0.2007298,-0.5941464,-2.321267,1.337105
40.00031,6.788914,448,131,506,499,0.3873044,-0.1983789,0.04835806,-1.271848,-2.992827,-0.9500614,0.1131063,-0.02385114,-0.2028669,-0.596326,-2.322722,1.337031
39.8003,6.800025,436,147,482,495,0.382971,-0.1823495,0.05676806,-1.271586,-2.991424,-0.9547464,0.1109087,-0.005751416,-0.2124348,-0.5989918,-2.323385,1.336482
39.6003,6.811136,436,147,482,495,0.3786208,-0.1631788,0.0598699,-1.271457,-2.989892,-0.9592722,0.1012432,-0.007875741,-0.2240901,-0.6016965,-2.324738,1.336721
39.4003,6.822248,436,147,482,495,0.3741868,-0.1162995,0.06177335,-1.272016,-2.989522,-0.9639237,0.08952812,-0.01214528,-0.2229491,-0.603974,-2.326403,1.337466
39.2003,6.833359,436,147,482,495,0.374062,-0.08859505,0.06270543,-1.272391,-2.988928,-0.9682098,0.09485452,-0.01427586,-0.2229857,-0.6063128,-2.327814,1.337434
39.0003,6.84447,456,137,482,499,0.3771076,-0.05444038,0.07107662,-1.27346,-2.988669,-0.9727271,0.1065511,-0.0174641,-0.2262563,-0.6087262,-2.329174,1.33703
38.8003,6.855581,456,137,482,499,0.3791883,-0.04588651,0.07421642,-1.27391,-2.988085,-0.9770659,0.1108592,-0.02280354,-0.2198952,-0.6108328,-2.330968,1.33715
38.6003,6.866693,456,137,482,499,0.3770297,-0.04055186,0.07739151,-1.27461,-2.987203,-0.9814862,0.126888,-0.02706847,-0.2125469,-0.6128504,-2.332512,1.336561
38.4003,6.877804,456,137,482,499,0.3791723,-0.04372545,0.07954404,-1.275122,-2.986141,-0.9860743,0.1279379,-0.03558722,-0.2168196,-0.615202,-2.334584,1.33667
38.2003,6.888915,456,137,482,499,0.3685004,-0.04056071,0.0816423,-1.275773,-2.985335,-0.9900504,0.1172285,-0.0462358,-0.2252766,-0.6176877,-2.337076,1.337682
38.0003,6.900026,428,136,489,495,0.3663873,-0.04062193,0.07524678,-1.27589,-2.984309,-0.9944563,0.1171979,-0.04410544,-0.2306021,-0.6202188,-2.338884,1.337793
37.8003,6.911138,428,136,489,495,0.3663636,-0.03742236,0.0763006,-1.276507,-2.983519,-0.9986503,0.09914513,-0.04623768,-0.2219564,-0.6221741,-2.340627,1.338656
37.6003,6.922249,428,136,489,495,0.3663741,-0.04167204,0.07845573,-1.277084,-2.982502,-1.002946,0.1078302,-0.01535928,-0.1985661,-0.6239238,-2.340312,1.336927
37.4003,6.93336,428,136,489,495,0.3664403,-0.05763789,0.08171951,-1.277267,-2.981017,-1.007468,0.1164292,-0.0142962,-0.1869031,-0.6256213,-2.341153,1.336112
37.20029,6.944471,428,136,489,495,0.3697062,-0.07573533,0.08180518,-1.277287,-2.979357,-1.012002,0.1068518,-0.002583757,-0.1857661,-0.6276314,-2.34177,1.335638
37.00029,6.955583,405,142,506,500,0.3633451,-0.08426109,0.08716294,-1.277625,-2.977689,-1.016385,0.1004854,0.01020181,-0.1814617,-0.629697,-2.341704,1.334684
36.80029,6.966694,405,142,506,500,0.3581245,-0.1045311,0.08297969,-1.277506,-2.975981,-1.020854,0.08887941,0.02511285,-0.1664637,-0.6312661,-2.341048,1.333318
36.60029,6.977805,405,142,506,500,0.3517174,-0.102441,0.07975751,-1.277609,-2.974731,-1.024793,0.08252326,0.0261834,-0.1610957,-0.6329636,-2.341102,1.332586
36.40029,6.988916,405,142,506,500,0.3421568,-0.1078193,0.07763544,-1.277602,-2.973104,-1.028798,0.08885837,0.01979634,-0.1696638,-0.6350366,-2.341859,1.33205
36.20029,7.000028,410,119,485,499,0.3304407,-0.1057383,0.07655474,-1.27795,-2.971634,-1.032746,0.0856023,-0.003635198,-0.1781718,-0.6369557,-2.343727,1.332747
36.00029,7.011139,410,119,485,499,0.3293381,-0.09827406,0.07864435,-1.278252,-2.970397,-1.036714,0.08766228,-0.01428242,-0.1888443,-0.6391821,-2.34543,1.333085
35.80029,7.02225,410,119,485,499,0.3165061,-0.08979345,0.08177449,-1.278667,-2.96925,-1.04016,0.08330515,-0.02172747,-0.2047983,-0.6416754,-2.347183,1.33358
35.60029,7.033361,410,119,485,499,0.3111362,-0.07916206,0.08386497,-1.27933,-2.967955,-1.043968,0.08544759,-0.01426484,-0.2026786,-0.6438383,-2.347848,1.333128
35.40029,7.044473,410,119,485,499,0.3057397,-0.06212375,0.08696949,-1.280084,-2.967246,-1.04759,0.08659095,-0.01001535,-0.1920352,-0.6456413,-2.348709,1.33274
35.20029,7.055584,424,128,512,501,0.300347,-0.04721699,0.08904157,-1.281143,-2.966511,-1.051041,0.08556251,-0.01214845,-0.1866954,-0.6473713,-2.349732,1.332613
35.00029,7.066695,424,128,512,501,0.291751,-0.02914455,0.08893448,-1.281938,-2.966221,-1.054182,0.07601792,-0.02600865,-0.1802445,-0.6489277,-2.351711,1.333665
34.80029,7.077806,424,128,512,501,0.284287,-0.02064255,0.08779441,-1.282584,-2.966044,-1.057624,0.07922932,-0.02707,-0.1791933,-0.6507146,-2.352864,1.333495
34.60028,7.088918,424,128,512,501,0.2821647,-0.02172695,0.08566518,-1.283214,-2.965378,-1.060851,0.08562829,-0.04518048,-0.1781802,-0.6523823,-2.355202,1.334237
34.40028,7.100029,385,125,498,500,0.2757912,-0.02812871,0.08566567,-1.283744,-2.964806,-1.063761,0.08021222,-0.05583571,-0.1920017,-0.6546077,-2.357797,1.335545
34.20028,7.11114,385,125,498,500,0.2736818,-0.03135331,0.08141562,-1.284219,-2.964006,-1.066998,0.07699528,-0.05902991,-0.1951781,-0.656638,-2.359857,1.336409
34.00028,7.122252,385,125,498,500,0.2726206,-0.03452148,0.08780576,-1.284861,-2.963165,-1.070223,0.07808661,-0.04943414,-0.1919814,-0.6585497,-2.360863,1.336204
33.80028,7.133363,385,125,498,500,0.2779623,-0.03558465,0.08463452,-1.285495,-2.962184,-1.073824,0.07812154,-0.04410203,-0.1866459,-0.6602855,-2.361973,1.336205
33.60028,7.144474,385,125,498,500,0.2801467,-0.04941495,0.08682114,-1.285838,-2.960928,-1.077277,0.07710374,-0.03878647,-0.1791834,-0.6620219,-2.363283,1.336478
33.40028,7.155585,357,143,490,501,0.2845493,-0.0802969,0.08377995,-1.285932,-2.958995,-1.081085,0.07396819,-0.03026357,-0.1706345,-0.6636459,-2.36404,1.336254
33.20028,7.166697,357,143,490,501,0.2922186,-0.1239637,0.07864539,-1.28525,-2.956491,-1.085348,0.06979412,-0.02920461,-0.1578113,-0.6648001,-2.365005,1.336355
33.00028,7.177808,357,143,490,501,0.2966127,-0.1506208,0.07344103,-1.284569,-2.953803,-1.089617,0.06449595,-0.0345276,-0.1535197,-0.6662984,-2.366398,1.336854
32.80028,7.188919,357,143,490,501,0.2989183,-0.1878896,0.07362095,-1.284043,-2.950712,-1.093973,0.06340217,-0.01321925,-0.1577615,-0.6681956,-2.366463,1.336227
32.60028,7.20003,357,143,490,501,0.2999902,-0.1868883,0.05976531,-1.283303,-2.948682,-1.097737,0.05700848,0.02087096,-0.1566314,-0.6700705,-2.365344,1.335024
32.40028,7.211142,375,143,487,500,0.3052956,-0.1836494,0.06402044,-1.283141,-2.946452,-1.101911,0.06447218,0.03684995,-0.1556063,-0.6719145,-2.364668,1.333577
32.20028,7.222253,375,143,487,500,0.3244518,-0.179313,0.0640253,-1.282868,-2.944442,-1.106598,0.06237803,0.04217371,-0.1491875,-0.6733515,-2.36433,1.332742
32.00027,7.233364,375,143,487,500,0.3287188,-0.1793,0.06084448,-1.282643,-2.942311,-1.110973,0.0548782,0.0368523,-0.155535,-0.6752967,-2.36463,1.332582
31.80027,7.244475,375,143,487,500,0.3491063,-0.2153745,0.0716792,-1.28205,-2.93882,-1.11643,0.04737524,0.01874581,-0.1618794,-0.6770496,-2.365754,1.3332
31.60027,7.255587,339,138,504,502,0.3929465,-0.2461459,0.05698154,-1.28082,-2.935368,-1.122955,0.05261333,0.000641346,-0.1757738,-0.6792328,-2.367294,1.3337
31.40027,7.266698,339,138,504,502,0.5359719,-0.3084148,0.04788944,-1.278689,-2.930556,-1.133832,0.05684822,-0.001493618,-0.1789972,-0.6811311,-2.368289,1.333751
31.20027,7.277809,339,138,504,502,0.6138402,-0.3335992,0.05559617,-1.277694,-2.925885,-1.144458,0.05055191,-0.01429339,-0.1640431,-0.6822955,-2.369653,1.334521
31.00027,7.28892,339,138,504,502,0.5212629,-0.3585224,0.05448151,-1.276237,-2.921408,-1.148581,0.05795875,0.02619237,-0.1715259,-0.6846359,-2.368354,1.332679
30.80027,7.300032,339,138,504,502,0.4117287,-0.4005688,0.04807585,-1.27405,-2.916287,-1.151567,0.05574992,0.06455114,-0.1842693,-0.6873651,-2.366575,1.330613
30.60027,7.311143,308,137,494,501,0.3711814,-0.3868761,0.05328289,-1.273158,-2.912187,-1.155925,0.05374575,0.08371533,-0.1650693,-0.6889832,-2.364842,1.328734
30.40027,7.322254,308,137,494,501,0.3774865,-0.3740076,0.0660113,-1.272612,-2.908185,-1.161603,0.05602312,0.0911563,-0.1427133,-0.690212,-2.363574,1.327093
30.20027,7.333365,308,137,494,501,0.4082059,-0.3397283,0.0808222,-1.272693,-2.904774,-1.167946,0.05822549,0.06878141,-0.1320795,-0.6912927,-2.363736,1.326496
30.00027,7.344477,308,137,494,501,0.4646588,-0.340538,0.08410466,-1.272,-2.900619,-1.175676,0.06456463,0.03893686,-0.1395915,-0.6928298,-2.365361,1.326985
29.80027,7.355588,423,138,462,499,0.5390869,-0.3114012,0.09795359,-1.272299,-2.897126,-1.184841,0.08358619,0.02084027,-0.1631685,-0.6951953,-2.366571,1.326493
29.60027,7.366699,423,138,462,499,0.5143523,-0.2646029,0.1072817,-1.272864,-2.894823,-1.190404,0.09412643,0.01019743,-0.1802895,-0.697533,-2.367776,1.326084
29.40026,7.37781,423,138,462,499,0.4652625,-0.2424878,0.1060379,-1.27297,-2.891921,-1.195251,0.09187692,0.0006144345,-0.1994631,-0.7001829,-2.369284,1.326234
29.20026,7.388922,423,138,462,499,0.3990166,-0.1990642,0.1131727,-1.273718,-2.890458,-1.198255,0.08974627,0.01339799,-0.1994416,-0.7024481,-2.369436,1.325414
29.00026,7.400033,423,138,462,499,0.3859984,-0.1522209,0.1203978,-1.274926,-2.889318,-1.202494,0.09412835,0.02511412,-0.1802812,-0.7039433,-2.368825,1.323848
28.80026,7.411144,336,141,517,503,0.3890178,-0.111727,0.1255514,-1.276179,-2.888226,-1.207392,0.08567693,0.01232801,-0.1695765,-0.7054484,-2.369645,1.323737
28.60026,7.422256,336,141,517,503,0.3846668,-0.09254822,0.1297121,-1.277373,-2.887137,-1.211899,0.08146366,-0.003646985,-0.1652959,-0.7070554,-2.370896,1.323626
28.40026,7.433367,336,141,517,503,0.3813587,-0.06594887,0.12958,-1.278523,-2.886345,-1.216319,0.09523632,-0.01748729,-0.1771063,-0.7090352,-2.372517,1.3234
28.20026,7.444478,336,141,517,503,0.380207,-0.04892153,0.1273709,-1.27971,-2.885683,-1.220496,0.1100538,-0.035586,-0.1921192,-0.7111418,-2.374645,1.323395
28.00026,7.455589,381,153,499,498,0.3790735,-0.03189709,0.1294261,-1.281062,-2.884953,-1.225041,0.1078228,-0.05047947,-0.2048996,-0.7134593,-2.376628,1.323997
27.80026,7.466701,381,153,499,498,0.3747806,-0.02764908,0.1293851,-1.28221,-2.884382,-1.229055,0.1046132,-0.06539251,-0.207018,-0.71552,-2.379129,1.324795
27.60026,7.477812,381,153,499,498,0.3683907,-0.02873183,0.1315129,-1.283565,-2.883543,-1.233201,0.1067497,-0.0749855,-0.2049066,-0.7173427,-2.381523,1.325488
27.40026,7.488923,381,153,499,498,0.3663227,-0.04365996,0.1294405,-1.284531,-2.882252,-1.237496,0.1024467,-0.0856348,-0.2112765,-0.7194743,-2.38428,1.326535
27.20026,7.500034,381,153,499,498,0.3632323,-0.06712311,0.1284853,-1.2855,-2.880306,-1.242055,0.09921294,-0.07818125,-0.2165931,-0.722,-2.386375,1.327103
27.00026,7.511146,316,148,502,502,0.3570094,-0.1034052,0.1233035,-1.285883,-2.877725,-1.246653,0.09721301,-0.05049327,-0.1963324,-0.7238206,-2.386779,1.326372
26.80025,7.522257,316,148,502,502,0.3549699,-0.1225998,0.1201845,-1.286488,-2.875618,-1.251171,0.1015168,-0.03772682,-0.1899603,-0.7256118,-2.387918,1.325988
26.60025,7.533368,316,148,502,502,0.3540327,-0.1513764,0.1181723,-1.286824,-2.872776,-1.255862,0.1133424,-0.01536827,-0.1729719,-0.7270504,-2.387908,1.324481
26.40025,7.544479,316,148,502,502,0.3519722,-0.1695078,0.1171826,-1.287257,-2.869991,-1.260386,0.1240586,-0.01856965,-0.1634567,-0.72848,-2.388903,1.323538
26.20025,7.555591,316,148,502,502,0.3519713,-0.1695049,0.1182471,-1.287935,-2.867692,-1.264952,0.128342,-0.03668517,-0.1603122,-0.7300747,-2.391063,1.323622
26.00025,7.566702,334,136,505,501,0.3455031,-0.1535716,0.11603,-1.288649,-2.866021,-1.268951,0.1251745,-0.04840603,-0.156037,-0.7314324,-2.392927,1.323693
25.80025,7.577813,334,136,505,501,0.3454363,-0.1418377,0.1191661,-1.289535,-2.864375,-1.273078,0.115528,-0.04414308,-0.1644961,-0.7333807,-2.394243,1.323664
25.60025,7.588924,334,136,505,501,0.3443014,-0.1269144,0.1222945,-1.290625,-2.862978,-1.277266,0.0974323,-0.02816515,-0.1622363,-0.7350996,-2.394767,1.32345
25.40025,7.600036,334,136,505,501,0.3432336,-0.1248011,0.1222951,-1.291629,-2.861012,-1.281722,0.08689763,-0.002611563,-0.1440432,-0.7363678,-2.394354,1.322451
25.20025,7.611147,345,151,514,499,0.349667,-0.1397266,0.1159829,-1.29205,-2.858538,-1.286014,0.08911258,0.01016453,-0.1312664,-0.737555,-2.394098,1.321211
25.00025,7.622258,345,151,514,499,0.3551158,-0.172754,0.1161379,-1.292419,-2.855017,-1.290852,0.09449668,0.01335546,-0.1217029,-0.7385558,-2.394217,1.320153
24.80025,7.633369,345,151,514,499,0.3607129,-0.2292671,0.100412,-1.291896,-2.850739,-1.296249,0.1019745,0.004835457,-0.1185632,-0.7397425,-2.394843,1.319298
24.60025,7.644481,345,151,514,499,0.3618459,-0.2538139,0.09945633,-1.291885,-2.846562,-1.300955,0.09445757,-0.01006496,-0.1270433,-0.741195,-2.396014,1.319382
24.40025,7.655592,345,151,514,499,0.3650955,-0.2709019,0.09421643,-1.291858,-2.8426,-1.305842,0.0966533,-0.03456926,-0.1153604,-0.7420424,-2.397709,1.319699
24.20024,7.666703,311,156,504,501,0.3651363,-0.2804894,0.09425837,-1.291987,-2.838906,-1.310913,0.1062903,-0.04309593,-0.1079721,-0.7428387,-2.399081,1.319273
24.00024,7.677814,311,156,504,501,0.4247791,-0.2867107,0.08480357,-1.291742,-2.834882,-1.317398,0.1179173,-0.0377592,-0.122959,-0.7444989,-2.400097,1.318283
23.80024,7.688926,311,156,504,501,0.4247792,-0.2867106,0.0848036,-1.291864,-2.831446,-1.32304,0.1147071,-0.02071317,-0.1250579,-0.7459706,-2.400367,1.31729
23.60024,7.700037,311,156,504,501,0.5217158,-0.2819535,0.09664464,-1.292427,-2.828306,-1.333558,0.113715,-0.004747257,-0.114395,-0.7470492,-2.400338,1.316037
23.40024,7.711148,335,173,492,499,0.4961721,-0.2863376,0.09342605,-1.292568,-2.824732,-1.339287,0.1222087,0.0197573,-0.1186977,-0.7486694,-2.399513,1.313828
23.20024,7.72226,335,173,492,499,0.3822619,-0.3028182,0.09012488,-1.292608,-2.820554,-1.340804,0.1093342,0.0272298,-0.1313947,-0.7506247,-2.399434,1.312975
23.00024,7.733371,335,173,492,499,0.3758287,-0.2889444,0.09431317,-1.293189,-2.817883,-1.345781,0.1062005,0.016579,-0.1217962,-0.7517438,-2.399875,1.312254
22.80024,7.744482,335,173,492,499,0.3937866,-0.2525642,0.1101587,-1.294528,-2.815953,-1.352,0.1073453,0.002717018,-0.1079593,-0.7523414,-2.400731,1.311799
22.60024,7.755593,335,173,492,499,0.4042872,-0.2204868,0.1270739,-1.295908,-2.813826,-1.35755,0.1108087,-0.01754466,-0.06751703,-0.7517944,-2.401693,1.311183
22.40024,7.766705,280,191,497,500,0.4105933,-0.1991373,0.1291134,-1.296931,-2.812009,-1.36289,0.1260301,-0.01545571,-0.02287251,-0.7507797,-2.401746,1.309289
22.20024,7.777816,280,191,497,500,0.420067,-0.169291,0.1268642,-1.297901,-2.810427,-1.368429,0.1249786,-0.001607031,-0.02072678,-0.7510865,-2.40122,1.307528
22.00024,7.788927,280,191,497,500,0.4327421,-0.1415508,0.121434,-1.298974,-2.809513,-1.373807,0.09394632,0.004802346,-0.04075391,-0.7521875,-2.401176,1.307413
21.80024,7.800038,280,191,497,500,0.4391308,-0.1393961,0.1214305,-1.299915,-2.807699,-1.379435,0.07475202,0.01971756,-0.04380869,-0.752809,-2.400552,1.306607
21.60023,7.81115,280,191,497,500,0.4508912,-0.1446786,0.1182833,-1.300976,-2.805708,-1.385468,0.06722334,0.07512145,-0.05437985,-0.754302,-2.397504,1.30384
21.40023,7.822261,323,165,492,499,0.4701179,-0.1573541,0.120498,-1.302,-2.803608,-1.391722,0.0779079,0.1251739,-0.04909145,-0.7553401,-2.39407,1.300216
21.20023,7.833372,323,165,492,499,0.5277941,-0.183667,0.1248989,-1.303086,-2.800776,-1.39971,0.0800652,0.1368949,-0.04483991,-0.7562701,-2.391547,1.297389
21.00023,7.844483,323,165,492,499,0.5277483,-0.1805207,0.1238882,-1.304101,-2.798541,-1.4064,0.08226505,0.09426902,-0.03315472,-0.7561827,-2.391894,1.29686
20.80023,7.855595,323,165,492,499,0.472333,-0.1743746,0.1248406,-1.305202,-2.796293,-1.410904,0.09617662,0.06337219,-0.02368104,-0.7561998,-2.392072,1.295567
20.60023,7.866706,267,181,500,498,0.4210763,-0.1468733,0.126772,-1.306615,-2.795202,-1.414495,0.1003593,0.03462661,-0.03651206,-0.7569231,-2.392635,1.294645
20.40023,7.877817,267,181,500,498,0.4039821,-0.1320761,0.1192213,-1.307516,-2.793802,-1.419062,0.1012619,0.01121044,-0.06103265,-0.7581146,-2.393799,1.294409
20.20023,7.888928,267,181,500,498,0.3931129,-0.08413815,0.126453,-1.309227,-2.794094,-1.423118,0.09368472,0.005892172,-0.07909589,-0.7594185,-2.394403,1.293985
20.00023,7.90004,267,181,500,498,0.3823556,-0.05227149,0.1124463,-1.310201,-2.794338,-1.427268,0.08603623,0.006982416,-0.1078093,-0.7613445,-2.394785,1.293575
19.80023,7.911151,267,181,500,498,0.372728,-0.03953698,0.1112996,-1.311242,-2.793917,-1.431484,0.09136806,0.0123165,-0.1067827,-0.7626367,-2.394717,1.292372
19.60023,7.922262,272,175,498,497,0.3662909,-0.02785219,0.1091066,-1.312416,-2.793763,-1.435485,0.1042426,0.01230456,-0.09514866,-0.7633557,-2.394893,1.290802
19.40023,7.933373,272,175,498,497,0.3631305,-0.03533231,0.1070037,-1.313454,-2.792991,-1.439627,0.1096535,-0.005810589,-0.08241329,-0.7637957,-2.395827,1.290119
19.20023,7.944485,272,175,498,497,0.3631414,-0.03536639,0.09742285,-1.314283,-2.792614,-1.443681,0.1043155,-0.04203653,-0.08559278,-0.764357,-2.398286,1.290775
19.00023,7.955596,272,175,498,497,0.3556961,-0.03649913,0.09208418,-1.315039,-2.791943,-1.4476,0.1096633,-0.06121218,-0.0845779,-0.7649413,-2.400226,1.290651
18.80022,7.966707,315,173,488,498,0.3461342,-0.03976585,0.08249366,-1.315685,-2.791508,-1.45127,0.1073925,-0.0675921,-0.1058726,-0.7663294,-2.402149,1.290872
18.60022,7.977818,315,173,488,498,0.3376581,-0.05046566,0.08252586,-1.316493,-2.790419,-1.455129,0.1178619,-0.06651719,-0.132575,-0.7682559,-2.404015,1.290736
18.40022,7.98893,315,173,488,498,0.3302327,-0.05900602,0.08574735,-1.317416,-2.789389,-1.458883,0.1157384,-0.06971373,-0.1314976,-0.7694075,-2.405766,1.290767
18.20022,8.000041,315,173,488,498,0.323888,-0.06864229,0.08577331,-1.318119,-2.787992,-1.462816,0.1275738,-0.06439713,-0.1155885,-0.7699465,-2.407,1.28979
18.00022,8.011152,315,173,488,498,0.3229039,-0.09204932,0.09652737,-1.319257,-2.78604,-1.466849,0.1255204,-0.04415978,-0.103843,-0.7707918,-2.407258,1.288607
17.80022,8.022264,226,162,502,503,0.3175578,-0.08569977,0.08903994,-1.320065,-2.785453,-1.470296,0.1298452,-0.03138755,-0.09533658,-0.7715497,-2.407795,1.287367
17.60022,8.033375,226,162,502,503,0.3132563,-0.08034645,0.1007236,-1.321333,-2.784456,-1.473931,0.138416,-0.01647457,-0.08792769,-0.7723876,-2.407736,1.285577
17.40022,8.044486,226,162,502,503,0.3068665,-0.08141637,0.102849,-1.322471,-2.783624,-1.477363,0.1330407,0.001645505,-0.09533949,-0.7738006,-2.407527,1.284084
17.20022,8.055597,226,162,502,503,0.3025252,-0.06120691,0.1038173,-1.323591,-2.783212,-1.480832,0.1170183,0.008046821,-0.1016237,-0.7752084,-2.40756,1.283283
17.00022,8.066709,355,344,478,499,0.2950012,-0.04524065,0.1047997,-1.324764,-2.783215,-1.483942,0.1223093,0.006986663,-0.1080514,-0.7765021,-2.408119,1.28208
16.80022,8.07782,355,344,478,499,0.2949021,-0.02073218,0.1068285,-1.326093,-2.78349,-1.487291,0.1191064,0.009117723,-0.1090941,-0.7777341,-2.408389,1.281053
16.60022,8.088931,355,344,478,499,0.2905452,0.0005770632,0.1088577,-1.327442,-2.784025,-1.490272,0.1117883,0.01018009,-0.08773647,-0.7782342,-2.408106,1.279838
16.40022,8.100042,355,344,478,499,0.2840678,0.02395573,0.1034226,-1.328516,-2.784686,-1.493202,0.1172433,-0.009003967,-0.06753978,-0.7782289,-2.408961,1.279048
16.20021,8.111154,355,344,478,499,0.2785777,0.05807475,0.1171148,-1.330274,-2.786039,-1.495854,0.1183164,-0.03456846,-0.06650005,-0.7786263,-2.410691,1.278937
16.00021,8.122265,293,250,502,499,0.2698535,0.1028108,0.1211646,-1.331858,-2.788455,-1.497992,0.1171876,-0.06013757,-0.07503375,-0.7793069,-2.413079,1.279499
15.80021,8.133376,293,250,502,499,0.2611063,0.1528525,0.1283868,-1.333548,-2.79112,-1.500028,0.1148609,-0.0728981,-0.1048538,-0.7808314,-2.415342,1.279854
15.60021,8.144487,293,250,502,499,0.2491673,0.2028875,0.1302832,-1.335354,-2.794722,-1.501613,0.117983,-0.06757121,-0.1165941,-0.7822461,-2.416857,1.279473
15.40021,8.155599,293,250,502,499,0.2384371,0.2198857,0.1312586,-1.336998,-2.797383,-1.503342,0.1274439,-0.05371183,-0.1358193,-0.7841066,-2.417983,1.278593
15.20021,8.16671,293,250,502,499,0.2298884,0.2262411,0.1290807,-1.338507,-2.800094,-1.50503,0.1379725,-0.04732303,-0.1539966,-0.786033,-2.41957,1.277958
15.00021,8.177821,282,284,496,490,0.237388,0.2188032,0.1312597,-1.340157,-2.801963,-1.507634,0.1411481,-0.04731715,-0.1572089,-0.7875782,-2.420931,1.277261
14.80021,8.188932,282,284,496,490,0.2427958,0.2038674,0.1206762,-1.341266,-2.803864,-1.510051,0.1423208,-0.04943302,-0.1423472,-0.7890531,-2.422098,1.276334
14.60021,8.200044,282,284,496,490,0.2471234,0.1889479,0.1154066,-1.342353,-2.805532,-1.512474,0.1370744,-0.06009424,-0.131679,-0.7901013,-2.423908,1.276106
14.40022,8.211155,282,284,496,490,0.2471727,0.1793374,0.1101217,-1.343525,-2.807246,-1.514824,0.1253429,-0.06541954,-0.1337338,-0.7913072,-2.425667,1.276268
14.20022,8.222266,280,261,495,491,0.2440503,0.1622383,0.1037785,-1.344277,-2.808436,-1.516986,0.1114724,-0.07607546,-0.1379157,-0.7926564,-2.427971,1.276924
14.00022,8.233377,280,261,495,491,0.2462618,0.1472998,0.09958978,-1.345375,-2.8095,-1.519681,0.09769401,-0.07821342,-0.1271753,-0.7935187,-2.429683,1.277348
13.80022,8.244489,280,261,495,491,0.2548798,0.1239117,0.1018309,-1.346562,-2.810221,-1.522552,0.08177219,-0.07077314,-0.1185371,-0.7942862,-2.431042,1.277747
13.60022,8.2556,280,261,495,491,0.2592207,0.105813,0.1019217,-1.347773,-2.810776,-1.525475,0.07966073,-0.06225203,-0.115322,-0.7953264,-2.432135,1.27769
13.40022,8.266711,280,261,495,491,0.271173,0.05039628,0.1000149,-1.34833,-2.808941,-1.529074,0.08182582,-0.05586796,-0.1099973,-0.7961403,-2.433282,1.277531
13.20022,8.277822,249,225,498,498,0.279813,0.02273528,0.09909076,-1.349481,-2.808504,-1.532489,0.08401987,-0.05693921,-0.1004246,-0.7967651,-2.434506,1.277392
13.00022,8.288934,249,225,498,498,0.300133,0.004711885,0.0981259,-1.350403,-2.808112,-1.536459,0.08506274,-0.06546381,-0.1036235,-0.7975534,-2.436378,1.277768
12.80022,8.300045,249,225,498,498,0.3214802,-0.002673999,0.09499417,-1.351417,-2.807864,-1.540728,0.08188244,-0.06440595,-0.1003973,-0.7982154,-2.437742,1.277978
12.60022,8.311156,249,225,498,498,0.3002719,-0.02302124,0.09399258,-1.352455,-2.80688,-1.543809,0.08615831,-0.0612164,-0.09722037,-0.7988881,-2.438995,1.277872
12.40022,8.322268,248,231,497,489,0.3194034,-0.01964805,0.1153072,-1.354216,-2.806832,-1.547864,0.09038083,-0.03886263,-0.1025685,-0.8001782,-2.439733,1.277294
12.20022,8.333379,248,231,497,489,0.3268961,-0.02813097,0.1174825,-1.35552,-2.806266,-1.551882,0.08498384,-0.02394189,-0.1131767,-0.8017063,-2.440173,1.276784
12.00022,8.34449,248,231,497,489,0.3280317,-0.03883616,0.1036742,-1.356122,-2.805624,-1.555708,0.08706001,-0.01434946,-0.1206435,-0.8032126,-2.440753,1.276259
11.80022,8.355601,248,231,497,489,0.335465,-0.03556878,0.1100681,-1.357561,-2.805442,-1.559641,0.09879909,-0.004763737,-0.1175192,-0.804468,-2.44094,1.274953
