ref,t,emg1,emg2,emg1raw,emg2raw,aDotS,bDotS,gDotS,aS,bS,gS,aDotSH,bDotSH,gDotSH,aSH,bSH,gSH
90,0,44,104,497,498,-0.5961708,-0.05528738,-0.4270533,-0.8059295,3.123667,-0.01185479,-0.2619194,-0.08984223,0.09730609,-0.3994172,2.975669,2.311419
90,0.01111111,44,104,497,498,-0.5844562,-0.05528814,-0.4260578,-0.8054646,3.117441,-0.001367799,-0.258689,-0.0908902,0.1004676,-0.3993378,2.972369,2.316826
90,0.02222222,44,104,497,498,-0.5663452,-0.0532056,-0.4197232,-0.805317,3.111981,0.008574313,-0.2533196,-0.1047079,0.1196915,-0.39917,2.96522,2.325875
90,0.03333334,44,104,497,498,-0.5523905,-0.05012108,-0.408101,-0.8049213,3.106125,0.01834066,-0.238366,-0.09730905,0.1174441,-0.3988478,2.962178,2.330622
90,0.04444445,44,104,497,498,-0.5363853,-0.04376416,-0.4028099,-0.8049383,3.10051,0.02789022,-0.2159298,-0.08675742,0.1140756,-0.3986214,2.959812,2.334141
90,0.05555556,44,104,497,498,-0.5192741,-0.04277742,-0.3954958,-0.8046102,3.094628,0.03732207,-0.2106217,-0.08680065,0.1097918,-0.3984542,2.956057,2.339816
90,0.06666667,44,104,497,498,-0.5042841,-0.04286437,-0.3871066,-0.8042778,3.088935,0.04648175,-0.1977324,-0.07832721,0.1192603,-0.3982401,2.951538,2.345503
90,0.07777778,44,104,497,498,-0.4925307,-0.04504154,-0.3829677,-0.803937,3.083169,0.05563663,-0.1967035,-0.07837252,0.1107335,-0.3981527,2.948136,2.350798
90,0.08888889,44,104,497,498,-0.4839387,-0.06003577,-0.3703432,-0.8033777,3.078149,0.06446661,-0.1795237,-0.05927044,0.112695,-0.3974273,2.945645,2.354074
90,0.1,44,104,497,498,-0.4647634,-0.07608493,-0.3620038,-0.8030006,3.07438,0.07206994,-0.1731051,-0.05608603,0.1158483,-0.3968041,2.942205,2.358977
90,0.1111111,44,104,497,498,-0.4455107,-0.08684402,-0.3516105,-0.8021979,3.069168,0.0802272,-0.1698501,-0.05188724,0.1137063,-0.3963535,2.937956,2.364131
90,0.1222222,44,104,497,498,-0.4316264,-0.09327582,-0.3486412,-0.8012541,3.063071,0.08889952,-0.1538873,-0.06046338,0.1168878,-0.3958911,2.933419,2.36952
90,0.1333333,44,104,497,498,-0.4113176,-0.1008239,-0.3403647,-0.8003033,3.057971,0.09646396,-0.1378388,-0.07319124,0.1402899,-0.3953761,2.928203,2.375118
90,0.1444445,44,104,497,498,-0.3867404,-0.1052064,-0.3299893,-0.7993137,3.052681,0.1041568,-0.1453395,-0.08696008,0.1488735,-0.3951822,2.922639,2.382315
90,0.1555556,44,104,497,498,-0.3707353,-0.1169754,-0.3259711,-0.7981004,3.04759,0.1114048,-0.1463431,-0.07524765,0.1488271,-0.3944989,2.918927,2.387219
90,0.1666667,44,104,497,498,-0.351483,-0.1224017,-0.3176732,-0.7969376,3.04262,0.1183551,-0.1366578,-0.0550309,0.146565,-0.3932354,2.916563,2.390406
90,0.1777778,44,104,497,498,-0.342876,-0.1235559,-0.3081718,-0.7959267,3.037988,0.1251734,-0.1388066,-0.05504248,0.142313,-0.3926874,2.912678,2.395587
90,0.1888889,44,104,497,498,-0.3236111,-0.1183685,-0.2943518,-0.7952524,3.035258,0.130439,-0.1195652,-0.05612466,0.1539546,-0.3917691,2.907686,2.400755
90,0.2,44,104,497,498,-0.3128522,-0.1056751,-0.2847546,-0.7948391,3.031011,0.1365472,-0.10254,-0.06472836,0.1539437,-0.3911859,2.901888,2.40661
90,0.2111111,44,104,497,498,-0.2893377,-0.08977272,-0.2752099,-0.7950132,3.027515,0.1417286,-0.07052863,-0.0499663,0.14946,-0.3904727,2.898997,2.409173
90,0.2222222,44,104,497,498,-0.2807804,-0.09197525,-0.2688596,-0.794218,3.024175,0.1471546,-0.07169081,-0.05961376,0.1345905,-0.3903853,2.895641,2.413086
90,0.2333333,44,104,497,498,-0.2753405,-0.09203694,-0.2625193,-0.7934989,3.020233,0.1522098,-0.08228111,-0.05313804,0.1431276,-0.3895155,2.891307,2.418302
90,0.2444444,44,104,497,498,-0.2644949,-0.08791701,-0.2487647,-0.7926558,3.016271,0.1569678,-0.09187497,-0.0594642,0.1432138,-0.3887853,2.88696,2.423403
90,0.2555556,44,104,497,498,-0.2462766,-0.076306,-0.238179,-0.7924715,3.012806,0.1616837,-0.07916303,-0.07020035,0.1368184,-0.3885999,2.88236,2.428211
90,0.2666667,44,104,497,498,-0.2279814,-0.06260079,-0.2276157,-0.7919101,3.009,0.1656753,-0.06429923,-0.07455333,0.1282551,-0.3884545,2.878662,2.431926
90,0.2777778,44,104,497,498,-0.2140381,-0.05417206,-0.2180822,-0.7919,3.005891,0.1698713,-0.06011325,-0.08950008,0.1251124,-0.3886479,2.873675,2.4371
90,0.2888889,44,104,497,498,-0.1969521,-0.04996483,-0.2117582,-0.7921141,3.003671,0.1733697,-0.05904479,-0.09478918,0.130455,-0.3883618,2.86901,2.44202
90,0.3,44,104,497,498,-0.1850395,-0.04794293,-0.2012154,-0.7917227,3.000479,0.1762363,-0.05999729,-0.07240638,0.1346185,-0.3875341,2.864947,2.446472
90,0.3111111,44,104,497,498,-0.1742876,-0.05444251,-0.1896478,-0.7912779,2.997752,0.1798129,-0.05447845,-0.04463271,0.1536281,-0.3859416,2.861399,2.450258
90,0.3222222,44,104,497,498,-0.164535,-0.06202325,-0.1791666,-0.7902909,2.994719,0.1826385,-0.05118477,-0.02862138,0.159936,-0.384593,2.85764,2.454206
90,0.3333333,44,104,497,498,-0.1569611,-0.06960323,-0.1654485,-0.7896134,2.992416,0.1858247,-0.04357538,-0.008335896,0.1757862,-0.382807,2.853486,2.458362
90,0.3444445,44,104,497,498,-0.1430227,-0.08246436,-0.1518002,-0.7893417,2.990917,0.1883334,-0.03515151,-0.02119265,0.1672845,-0.3822254,2.849399,2.462386
90,0.3555556,44,104,497,498,-0.1290848,-0.08895791,-0.1413265,-0.7884336,2.988788,0.1909178,-0.02976628,-0.01796822,0.1778992,-0.3809449,2.844499,2.467157
90,0.3666667,44,104,497,498,-0.1139805,-0.1018615,-0.1288299,-0.7871814,2.986045,0.1926105,-0.03094327,-0.02869861,0.1598429,-0.3805588,2.840987,2.470691
90,0.3777778,44,104,497,498,-0.1085861,-0.1104604,-0.1204279,-0.7859724,2.98409,0.1950595,-0.03309248,-0.02552948,0.1523797,-0.3797833,2.837473,2.474386
90,0.3888889,44,104,497,498,-0.09891165,-0.1190711,-0.1110409,-0.7847313,2.98148,0.1976811,-0.0106509,-0.00327412,0.1489886,-0.3783457,2.834678,2.476634
90,0.4,44,104,497,498,-0.09025246,-0.1244609,-0.1025597,-0.7835558,2.981369,0.1977024,-0.0129089,-0.005527886,0.1213107,-0.3781023,2.833252,2.478161
90,0.4111111,44,104,497,498,-0.07952983,-0.1202715,-0.09516205,-0.7825278,2.979861,0.1993632,0.001919225,0.01764748,0.07961166,-0.3774754,2.834466,2.476804
90,0.4222222,44,104,497,498,-0.07307395,-0.1139407,-0.08657942,-0.7817336,2.979815,0.2003049,0.01148087,0.0282097,0.06567954,-0.3764847,2.834723,2.476345
90,0.4333333,44,104,497,498,-0.06549876,-0.09913217,-0.0748031,-0.7811638,2.978905,0.2014703,0.01564253,0.03657088,0.03579116,-0.3762461,2.836592,2.474424
90,0.4444444,44,104,497,498,-0.05360375,-0.06731766,-0.05761222,-0.7814924,2.978337,0.2021813,0.01559484,0.03015583,0.03050597,-0.375877,2.836067,2.474785
90,0.4555556,44,104,497,498,-0.04494038,-0.03867107,-0.04466306,-0.7818391,2.978201,0.2025334,0.02941466,0.0003771055,0.0529611,-0.3756804,2.832369,2.477512
90,0.4666667,44,104,497,498,-0.03628527,-0.02488517,-0.03930934,-0.7817289,2.977425,0.2022383,0.01442256,-0.02721493,0.05956606,-0.3756911,2.828822,2.480913
90,0.4777778,44,104,497,498,-0.02982891,-0.01642266,-0.03290294,-0.7818354,2.977169,0.2025835,0.001612369,-0.0335526,0.05965177,-0.3757108,2.826491,2.4834
90,0.4888889,44,104,497,498,-0.02651231,-0.01114555,-0.02760782,-0.7818562,2.975931,0.2027097,-0.01329768,-0.0249902,0.05116785,-0.3751163,2.825925,2.484383
90,0.5,44,104,497,498,-0.01788424,-0.006955568,-0.02235593,-0.7816543,2.975004,0.2025702,-0.01109115,-0.003709108,0.04785983,-0.3744298,2.825897,2.484488
90,0.5111111,44,104,497,498,-0.00825444,-0.001673418,-0.01813473,-0.7817592,2.974909,0.2024775,-0.002692143,-0.01551844,0.03400862,-0.3749379,2.826062,2.484258
90,0.5222223,44,104,497,498,-0.006033382,0.001469459,-0.01175924,-0.7819281,2.974481,0.2023693,-0.0005006734,-0.0006070808,0.03499198,-0.3744101,2.825788,2.48457
90,0.5333334,44,104,497,498,-0.002809307,0.001439552,-0.008591928,-0.7819515,2.974483,0.2023145,-0.00673902,0.01548921,0.05091779,-0.3731179,2.825129,2.48522
90,0.5444446,44,104,497,498,-0.001649198,-0.002893792,0.0008938076,-0.7820319,2.973701,0.2026676,-0.0141809,0.007029776,0.06166952,-0.3725555,2.821772,2.488572
90,0.5555557,44,104,497,498,0.002642162,-0.01145585,0.005043734,-0.7816767,2.973827,0.2024301,-0.01211899,-0.01000695,0.06386334,-0.3726114,2.819438,2.490929
90,0.5666668,44,104,497,498,0.005840539,-0.01576635,0.004937211,-0.7808282,2.97275,0.2029584,-0.007954225,-0.02603655,0.058607,-0.3728564,2.816755,2.493463
90,0.577778,44,104,497,498,0.004793199,-0.01684909,0.007067916,-0.7805869,2.972879,0.2028381,-0.002683092,-0.03037336,0.04901759,-0.3731589,2.815188,2.494754
90,0.5888891,44,104,497,498,0.005916506,-0.02222283,0.009120975,-0.7798194,2.97246,0.2024157,-0.01017361,-0.01551101,0.03084677,-0.3731461,2.816758,2.493874
90,0.6000003,44,104,497,498,0.008058755,-0.02861714,0.01007685,-0.7795413,2.971822,0.2026149,-0.01761743,-0.00804298,0.02658157,-0.3729374,2.81658,2.494453
90,0.6111114,44,104,497,498,0.008001298,-0.04135442,0.0046409,-0.7787978,2.971486,0.2027709,-0.01328811,0.001569161,0.03291675,-0.3721954,2.815917,2.495101
90,0.6222225,44,104,497,498,0.007964723,-0.05519599,0.000215373,-0.7775503,2.970026,0.2035688,-0.01431472,0.003733361,0.03932131,-0.371617,2.814128,2.496905
90,0.6333337,44,104,497,498,0.01007222,-0.06050549,-0.001979596,-0.7767791,2.969673,0.2036514,-0.01218052,0.009032229,0.03394548,-0.3713331,2.814621,2.496486
90,0.6444448,44,104,497,498,0.01013017,-0.0594233,-0.001974055,-0.7764228,2.969509,0.2028423,-0.007922299,0.008995093,0.03181322,-0.3710369,2.813408,2.497511
90,0.655556,44,104,497,498,0.01332077,-0.05409014,-0.003021571,-0.7759866,2.969299,0.2027624,-0.0005083326,0.001493706,0.02754427,-0.3710646,2.813252,2.497375
90,0.6666671,44,104,497,498,0.01335376,-0.0487717,-0.002998164,-0.775545,2.968662,0.2026847,0.003720548,-0.004912538,0.02755754,-0.3710039,2.812313,2.498204
90,0.6777782,44,104,497,498,0.01125368,-0.0424147,-0.0008195974,-0.7750459,2.968059,0.2029632,0.004826086,0.002551466,0.03072656,-0.3706992,2.811717,2.498632
90,0.6888894,44,104,497,498,0.01127512,-0.03707515,-0.003971875,-0.7745324,2.967691,0.2024636,0.002644233,-0.001743112,0.02223803,-0.3705256,2.810821,2.49957
90,0.7000005,44,104,497,498,0.01554548,-0.03708719,-0.002944047,-0.7741282,2.967576,0.2022484,0.0004838179,-0.006014835,0.01908221,-0.3705783,2.809845,2.500518
90,0.7111117,44,104,497,498,0.01660992,-0.03284026,-0.004007988,-0.7736201,2.966801,0.2025126,0.003638684,-0.009234417,0.01481541,-0.3706726,2.81007,2.500337
90,0.7222228,44,104,497,498,0.01876471,-0.02753583,-0.00399454,-0.7732078,2.966285,0.2023299,0.004679356,-0.01879795,0.02018797,-0.3707477,2.808385,2.501949
90,0.7333339,44,104,497,498,0.02086423,-0.01897848,-0.008200692,-0.7732728,2.966002,0.2022511,0.003552789,-0.02416374,0.009560609,-0.3711312,2.808422,2.501813
90,0.7444451,44,104,497,498,0.0219211,0.002333693,-0.01122232,-0.7736148,2.965829,0.2020567,0.006737691,-0.01570987,-0.002195975,-0.3711147,2.808884,2.501155
90,0.7555562,44,104,497,498,0.01978383,0.01833234,-0.01319648,-0.7742805,2.965743,0.2019534,0.0004741708,0.01204171,-0.000171626,-0.3701698,2.810668,2.499624
90,0.7666674,44,104,497,498,0.01876911,0.03642104,-0.01092084,-0.7750853,2.965509,0.2016727,-0.004897754,0.002467645,-0.001174045,-0.3705165,2.810449,2.500039
90,0.7777785,44,104,497,498,0.01769705,0.04280362,-0.01300435,-0.7753165,2.964913,0.2018101,0.006822008,-0.01136768,0.01269496,-0.3706694,2.808209,2.501706
90,0.7888896,44,104,497,498,0.01986722,0.04596126,-0.00873462,-0.7759013,2.965134,0.201368,0.005844945,0.0004014466,0.02116612,-0.3700143,2.807855,2.501981
90,0.8000008,44,104,497,498,0.01668572,0.04699904,-0.007649776,-0.7761618,2.964725,0.2014841,0.004663109,-0.01666265,0.01380193,-0.3703594,2.807167,2.502812
90,0.8111119,44,104,497,498,0.01879532,0.04382026,-0.009826366,-0.776597,2.964613,0.2013067,0.007872491,-0.01347352,0.01590461,-0.3703552,2.806387,2.503512
90,0.8222231,44,104,497,498,0.01879549,0.04382616,-0.01195133,-0.7769219,2.964569,0.2008684,0.004683028,-0.009217759,0.01271295,-0.3702401,2.805833,2.504015
90,0.8333342,44,104,497,498,0.017707,0.03745367,-0.0141275,-0.777202,2.964354,0.2008386,-0.0006557076,0.001402869,-0.001173297,-0.370165,2.807834,2.502298
90,0.8444453,44,104,497,498,0.01343436,0.03320106,-0.01626622,-0.777341,2.963879,0.2010053,0.0003214478,-0.0008001202,-0.01714488,-0.370442,2.809194,2.501132
90,0.8555565,44,104,497,498,0.01132426,0.02253653,-0.01314729,-0.7775328,2.96374,0.2010228,-0.005033068,-0.005043619,-0.01921058,-0.370507,2.809003,2.501523
90,0.8666676,44,104,497,498,0.01026309,0.01507122,-0.01213691,-0.7775365,2.963563,0.201049,0.004652204,0.005621136,-0.008646918,-0.3700691,2.808983,2.501146
90,0.8777788,44,104,497,498,0.009178147,0.01079857,-0.01324012,-0.7773336,2.963006,0.2014681,-0.003946049,-0.001854687,-0.01921112,-0.3703807,2.809192,2.501162
90,0.8888899,44,104,497,498,0.004941347,0.00544743,-0.01005299,-0.7772702,2.96297,0.2015406,-0.005053354,-0.01037466,-0.01810401,-0.3709517,2.808947,2.50166
90,0.900001,44,104,497,498,0.008112955,0.001189331,-0.0133296,-0.7769783,2.96219,0.2018213,-0.0007712487,-0.006136534,-0.01813041,-0.3709389,2.808946,2.501498
90,0.9111122,44,104,497,498,0.003886233,-0.003105736,-0.0090681,-0.776851,2.962151,0.2019123,-0.009246517,0.006687973,-0.02028912,-0.370606,2.810638,2.500206
90,0.9222233,44,104,497,498,-0.0004011053,-0.007360118,-0.01120221,-0.7765389,2.961702,0.2023923,-0.01352551,0.002456879,-0.01814348,-0.3709666,2.811624,2.499671
90,0.9333345,44,104,497,498,-0.002502976,-0.006321028,-0.007978794,-0.7765096,2.961668,0.2024972,-0.005049029,-0.009292752,-0.01705761,-0.3714098,2.811338,2.499771
90,0.9444456,44,104,497,498,-0.004613021,-0.0009952779,-0.006866558,-0.7768089,2.961338,0.2027321,-0.0007478502,-0.009254931,-0.007491303,-0.371267,2.811148,2.499861
90,0.9555568,44,104,497,498,-0.006718115,0.005368597,-0.005749783,-0.7767871,2.960814,0.2030517,-0.006060515,-0.004975996,-0.008554475,-0.3712921,2.811515,2.499718
90,0.9666679,44,104,497,498,-0.004572557,0.01388023,-0.004630003,-0.7771695,2.960892,0.2029893,-0.01042218,-0.02307829,-0.01164697,-0.3720287,2.811044,2.500552
90,0.977779,44,104,497,498,-0.003489528,0.0266738,-0.003444794,-0.7780063,2.961545,0.2025355,0.0002730694,-0.01566233,-0.00958797,-0.3720473,2.810695,2.500575
90,0.9888902,44,104,497,498,-0.002419226,0.03412995,-0.003390039,-0.778597,2.961648,0.2024695,-0.003966279,-0.01032643,-0.01068244,-0.3723105,2.811729,2.499716
90,1.000001,44,104,497,498,-0.005585685,0.03621459,-0.0001544745,-0.7786886,2.961655,0.2025877,-0.006039946,0.005647302,-0.01287631,-0.3720159,2.812731,2.498983
90,1.011112,44,104,497,498,-0.008792128,0.03409505,-0.001210061,-0.7790135,2.961668,0.2027614,-0.009249055,0.005635267,-0.01820738,-0.372352,2.81411,2.497749
90,1.022224,44,104,497,498,-0.008803317,0.02770199,-0.002335445,-0.7790215,2.96151,0.2029371,-0.007159164,0.0002671392,-0.02352398,-0.3728596,2.814773,2.497086
90,1.033335,44,104,497,498,-0.007719468,0.0276831,-0.0002143108,-0.7793102,2.961713,0.2028615,-0.008224394,-0.006088658,-0.0170964,-0.3730727,2.814375,2.497573
90,1.044446,44,104,497,498,-0.002374001,0.02554723,0.002951961,-0.7797592,2.962745,0.202095,-0.007147865,-0.0113832,-0.008553078,-0.3732522,2.813488,2.498489
90,1.055557,44,104,497,498,-0.001346476,0.02238995,-0.001352078,-0.7800153,2.962499,0.2022298,-0.004994263,-0.006066093,-0.008588377,-0.3732383,2.813729,2.49825
90,1.066668,44,104,497,498,-0.003483196,0.01493459,-0.001396199,-0.7799808,2.962475,0.2023624,-0.01137998,0.003495347,-0.01607522,-0.3735318,2.815024,2.497397
90,1.077779,44,104,497,498,-0.006674405,0.005325708,-0.0003956549,-0.7796394,2.962162,0.2027108,-0.007140742,0.006630941,-0.02461636,-0.3735968,2.815907,2.496542
90,1.08889,44,104,497,498,-0.009878296,-0.007455598,-0.0004772516,-0.7792143,2.962008,0.2030165,-0.003996446,-0.001925757,-0.02778814,-0.3741187,2.816283,2.496164
90,1.100002,44,104,497,498,-0.006713392,-0.01486846,-0.002655105,-0.779161,2.962798,0.2025526,-0.001954306,-0.01474632,-0.03307686,-0.3749363,2.816961,2.495641
90,1.111113,44,104,497,498,-0.002425835,-0.01702869,0.0004851393,-0.7789011,2.962826,0.2024556,-0.00409558,-0.01686733,-0.03411596,-0.3752229,2.817365,2.49533
90,1.122224,44,104,497,498,0.001807607,-0.01487405,-0.001667863,-0.7789677,2.962622,0.2026234,-0.009389447,-0.013631,-0.02983023,-0.3752586,2.817188,2.495752
90,1.133335,44,104,497,498,0.004998069,-0.008475127,-0.002706228,-0.7790497,2.962568,0.2025366,-0.00828339,-0.01254515,-0.024529,-0.3755569,2.817769,2.495064
90,1.144446,44,104,497,498,0.007114415,-0.004202634,-0.004818727,-0.7790385,2.9624,0.2025057,-0.006085497,-0.004002435,-0.01711015,-0.3753406,2.817549,2.495304
90,1.155557,44,104,497,498,0.008191533,4.871469E-05,-0.003726342,-0.77916,2.962447,0.2023534,-0.004997287,-0.005041162,-0.01071785,-0.3753555,2.817293,2.495567
90,1.166668,44,104,497,498,0.01030841,0.007526871,-0.005813778,-0.7795019,2.962307,0.2022804,-0.002862953,-0.006110565,-0.01070745,-0.375331,2.817083,2.495611
90,1.17778,44,104,497,498,0.01028928,0.01710975,-0.007879659,-0.7796681,2.961812,0.202616,-0.00394664,-0.007186811,-0.01389348,-0.3755734,2.81743,2.495362
90,1.188891,44,104,497,498,0.01244465,0.027743,-0.005676731,-0.7802449,2.961982,0.2022996,-0.003920053,-0.00610659,-0.01068234,-0.375421,2.816839,2.495855
90,1.200002,44,104,497,498,0.01143807,0.03621161,0.001899194,-0.7807744,2.963231,0.2014639,0.003527869,-0.01461645,-0.002146503,-0.3755334,2.815657,2.496841
90,1.211113,44,104,497,498,0.0124669,0.03731276,-0.00236184,-0.7812356,2.963159,0.2013547,0.00145568,-0.01348086,0.01062979,-0.3754109,2.814796,2.497689
90,1.222224,44,104,497,498,0.01353861,0.03730455,-0.002377781,-0.7815515,2.96307,0.2011549,0.0003222115,-0.02309959,0.003210552,-0.376032,2.814824,2.497627
90,1.233335,44,104,497,498,0.01988125,0.03308581,-0.007796008,-0.7818269,2.962821,0.2009248,0.001419676,-0.02200773,0.009592406,-0.3760426,2.813846,2.498492
90,1.244446,44,104,497,498,0.01987534,0.02454881,-0.007880013,-0.781691,2.962415,0.2010101,-0.002860957,-0.02412299,0.009623327,-0.3762317,2.812995,2.499578
90,1.255558,44,104,497,498,0.0198583,0.01712104,-0.007904449,-0.7820064,2.963202,0.2004258,-0.001790997,-0.02094224,0.007472509,-0.3763462,2.8127,2.499847
90,1.266669,44,104,497,498,0.02094024,0.0139065,-0.00581061,-0.7820756,2.963191,0.2001706,0.003462976,-0.0284597,-0.001046142,-0.3769268,2.812802,2.499619
90,1.27778,44,104,497,498,0.02308086,0.008555849,-0.004815616,-0.7818551,2.962947,0.1999725,-0.0008601435,-0.02638472,-0.01596436,-0.3775739,2.814009,2.49872
90,1.288891,44,104,497,498,0.02307605,3.378838E-05,-0.004888415,-0.7816277,2.962812,0.1998021,-0.0008794442,-0.0189943,-0.0287862,-0.3780235,2.815303,2.497481
90,1.300002,44,104,497,498,0.02945687,-0.004249113,-0.003902479,-0.7813289,2.962924,0.1994532,-0.002997437,-0.01261067,-0.03200657,-0.3783036,2.816298,2.496662
90,1.311113,44,104,497,498,0.03372412,-0.009586599,-0.002919745,-0.7810961,2.962834,0.1990223,0.001353534,-0.006178478,-0.02034117,-0.3781566,2.81643,2.496236
90,1.322224,44,104,497,498,0.03369675,-0.005308257,-0.005033834,-0.7812692,2.962317,0.1991965,0.004575938,-0.006177474,-0.01715461,-0.3782791,2.816374,2.495968
90,1.333336,44,104,497,498,0.03697289,0.005269786,0.00355117,-0.7815228,2.962795,0.1983474,0.01420039,0.0001826771,-0.01509641,-0.3782275,2.816824,2.495137
90,1.344447,44,104,497,498,0.04661958,0.02116446,0.01212397,-0.7819137,2.96333,0.1975522,0.02059281,0.007589363,-0.02154055,-0.3780426,2.818032,2.493705
90,1.355558,44,104,497,498,0.04345756,0.02646427,0.01537819,-0.7822657,2.963459,0.1970398,0.02379318,0.00652054,-0.01941846,-0.378097,2.818412,2.493
90,1.366669,44,104,497,498,0.04451657,0.03179913,0.01434916,-0.7827196,2.963787,0.1962862,0.02378015,0.00225715,-0.02045256,-0.3782168,2.818493,2.492533
90,1.37778,44,104,497,498,0.04449003,0.03502256,0.01118977,-0.7831377,2.964123,0.1955655,0.01514269,-0.01267428,-0.03100302,-0.3790914,2.819086,2.492109
90,1.388891,44,104,497,498,0.04121984,0.04252394,0.009176468,-0.7839223,2.964924,0.1954126,0.02149052,-0.01806311,-0.03633069,-0.3797652,2.819485,2.491315
90,1.400002,44,104,497,498,0.03802446,0.05209642,0.009301703,-0.7844085,2.965555,0.1946904,0.02467886,-0.01595269,-0.03849051,-0.3801332,2.820639,2.489999
90,1.411114,44,104,497,498,0.03697654,0.04994823,0.01142323,-0.7848591,2.965946,0.1940331,0.02365451,-0.008488847,-0.03639755,-0.380367,2.821548,2.488955
90,1.422225,44,104,497,498,0.03800561,0.05420941,0.01037027,-0.785453,2.965966,0.1939644,0.0226515,-0.0009757858,-0.02790394,-0.3801231,2.822206,2.488218
90,1.433336,44,104,497,498,0.04015943,0.0456592,0.01347492,-0.785666,2.966377,0.1931719,0.02058662,0.003341639,-0.01833622,-0.3800618,2.822534,2.48766
90,1.444447,44,104,497,498,0.04443888,0.04456136,0.01664476,-0.7859372,2.967232,0.1920629,0.02170678,0.006575361,-0.009826532,-0.3797977,2.822369,2.487476
90,1.455558,44,104,497,498,0.0465498,0.03601966,0.0176055,-0.7859446,2.967259,0.1918302,0.02386479,0.005537231,-0.002373504,-0.3796443,2.821954,2.487528
90,1.466669,44,104,497,498,0.04546305,0.02110806,0.01643497,-0.7855659,2.967604,0.1911713,0.0281765,0.01194227,0.002889357,-0.3793827,2.822653,2.486462
90,1.47778,44,104,497,498,0.04540639,0.007276326,0.01311105,-0.7851707,2.967352,0.1911814,0.0196407,0.01514426,-0.003481437,-0.3793007,2.82355,2.485651
90,1.488891,44,104,497,498,0.04003945,-0.004418682,0.009870571,-0.7847121,2.967426,0.1909199,0.01847748,0.005519206,-0.01408274,-0.3796709,2.824436,2.484802
90,1.500003,44,104,497,498,0.03574912,-0.02252107,0.007614174,-0.7838706,2.967047,0.190913,0.01739758,0.000206165,-0.01296599,-0.379648,2.823867,2.485094
90,1.511114,44,104,497,498,0.03146549,-0.03102321,0.005448045,-0.7833113,2.966884,0.1907953,0.0163416,-0.005084042,-0.005480056,-0.3797737,2.82315,2.485601
90,1.522225,44,104,497,498,0.02293291,-0.03635266,0.005481564,-0.7827052,2.966917,0.1908432,0.01955766,-0.00295683,-0.002304355,-0.3797311,2.8229,2.485558
90,1.533336,44,104,497,498,0.02293023,-0.04167895,0.005436288,-0.7820793,2.966836,0.1906376,0.01849731,0.001293326,-0.005516539,-0.3797124,2.823412,2.484904
90,1.544447,44,104,497,498,0.02820732,-0.04277388,0.006441817,-0.7813438,2.966689,0.191085,0.01423287,0.004485173,-0.009766976,-0.3797087,2.823875,2.48443
90,1.555558,44,104,497,498,0.0314306,-0.04280244,0.009609957,-0.7808372,2.966815,0.1905641,0.007891757,0.008810763,-0.002303712,-0.3794333,2.823834,2.484564
90,1.566669,44,104,497,498,0.03352212,-0.03744526,0.005386228,-0.7804676,2.966833,0.190187,0.004766189,0.005732916,0.0190275,-0.3789998,2.822185,2.486211
90,1.577781,44,104,497,498,0.02493102,-0.03422704,0.003345028,-0.7802359,2.966492,0.1911681,0.001630174,0.01005499,0.0286077,-0.3784533,2.82131,2.487096
90,1.588892,44,104,497,498,0.01852277,-0.03101038,0.001296715,-0.7799866,2.96634,0.191248,-0.005833007,0.01645353,0.02223355,-0.377934,2.821424,2.487351
90,1.600003,44,104,497,498,0.009984119,-0.02568131,0.000352696,-0.7796745,2.966311,0.1914989,-0.006982667,0.011076,0.01054206,-0.3781231,2.822036,2.487068
90,1.611114,44,104,497,498,0.00467941,-0.01930552,0.002583212,-0.7796276,2.966439,0.1914967,0.002535569,0.01731021,-0.0119034,-0.3783489,2.824051,2.484924
90,1.622225,44,104,497,498,0.005711443,-0.002254086,-0.0004910473,-0.7798263,2.966065,0.1918451,-0.003897283,0.02579575,-0.02789757,-0.3782227,2.826722,2.482804
90,1.633336,44,104,497,498,0.006783794,0.01159381,-0.0003825652,-0.780311,2.966197,0.1916549,-0.006050733,0.02471903,-0.03214436,-0.3783063,2.828167,2.481587
90,1.644447,44,104,497,498,0.004671182,0.0254142,0.00296613,-0.7808026,2.966831,0.191469,-0.003899575,0.02154609,-0.02467484,-0.3782131,2.828128,2.481575
90,1.655559,44,104,497,498,0.002540644,0.03076062,0.003024054,-0.7815424,2.96695,0.1914429,-0.004910719,0.0141792,-0.00544777,-0.377959,2.826529,2.483087
90,1.66667,44,104,497,498,0.003641941,0.02965869,0.00726673,-0.781796,2.967288,0.1911447,-0.002760445,0.006780624,0.008428951,-0.3777577,2.825338,2.484267
90,1.677781,44,104,497,498,0.001489537,0.02643981,0.008292878,-0.7818109,2.966841,0.1919234,0.0003894744,-0.007045998,0.01381557,-0.3777806,2.82394,2.485589
90,1.688892,44,104,497,498,-0.0017267,0.02219826,0.006153703,-0.781936,2.966875,0.1920102,-0.002802622,-0.001737764,0.006334786,-0.3777907,2.824978,2.484557
90,1.700003,44,104,497,498,-0.004913585,0.01578639,0.007182007,-0.7817677,2.966751,0.1921806,-0.007145607,-0.003936161,-0.01067309,-0.3781854,2.825835,2.483974
90,1.711114,44,104,497,498,-0.00491413,0.01472114,0.007172968,-0.7818748,2.966896,0.1921284,-0.008224157,0.000295246,-0.01707724,-0.3783111,2.826552,2.483481
90,1.722225,44,104,497,498,-0.008077156,0.007229544,0.01139799,-0.7817246,2.967184,0.1921023,-0.006008689,0.01311958,-0.008635259,-0.3777843,2.827501,2.482696
90,1.733337,44,104,497,498,-0.01128702,-0.001296697,0.01243559,-0.7815057,2.967703,0.1922195,-0.00702348,0.01636177,-0.0001242142,-0.3774317,2.827488,2.482816
90,1.744448,44,104,497,498,-0.01453458,-0.01083099,0.007059766,-0.7812255,2.967572,0.1925679,-0.009129584,0.01746924,0.007326701,-0.3772304,2.82749,2.483153
90,1.755559,44,104,497,498,-0.01347101,-0.02576158,0.007999879,-0.7804005,2.967683,0.1926424,-0.01230593,0.01643091,0.01161918,-0.3769481,2.826679,2.484047
90,1.76667,44,104,497,498,-0.01240541,-0.02789834,0.007968711,-0.779969,2.967637,0.1927692,-0.01445951,0.01112057,0.01165052,-0.3768421,2.826718,2.484224
90,1.777781,44,104,497,498,-0.01026492,-0.02681848,0.009009017,-0.7800724,2.967511,0.1929231,-0.01765798,0.009033915,0.01593191,-0.3765598,2.826487,2.484887
90,1.788892,44,104,497,498,-0.01345762,-0.02470334,0.01011676,-0.7797294,2.967544,0.1932534,-0.01337459,0.01221395,0.01483247,-0.3762024,2.826808,2.484414
90,1.800003,44,104,497,498,-0.01559444,-0.02045421,0.00909864,-0.7793145,2.967359,0.1935857,-0.01761822,0.01967814,0.01162925,-0.3757241,2.827233,2.48435
90,1.811115,44,104,497,498,-0.01666925,-0.02258537,0.008021447,-0.7789416,2.967293,0.1937711,-0.02083213,0.0217915,0.005240783,-0.3755441,2.827998,2.483958
90,1.822226,44,104,497,498,-0.02091721,-0.01833128,0.01024466,-0.7788212,2.96791,0.1938265,-0.0165927,0.01966152,0.005220846,-0.3752825,2.828839,2.483415
90,1.833337,44,104,497,498,-0.02199796,-0.01298645,0.008168489,-0.7788063,2.967953,0.1940672,-0.01978499,0.02182573,0.00629005,-0.3748117,2.829437,2.483292
90,1.844448,44,104,497,498,-0.02092057,-0.005548479,0.009290802,-0.7787898,2.968216,0.1940795,-0.01554073,0.01861671,0.005219121,-0.3745789,2.829923,2.482889
90,1.855559,44,104,497,498,-0.01664957,0.0008467901,0.01142723,-0.7792377,2.968357,0.1942147,-0.0145165,0.01644952,-0.001172343,-0.3746642,2.830626,2.482424
90,1.86667,44,104,497,498,-0.0198357,0.001904398,0.01252881,-0.7792473,2.968601,0.1943479,-0.01770761,0.01965751,-0.001180828,-0.3744884,2.831303,2.482236
90,1.877781,44,104,497,498,-0.01770316,-0.0002185386,0.01036515,-0.7790076,2.968684,0.1941285,-0.0177434,0.0143482,-9.247521E-05,-0.3743419,2.831667,2.482348
90,1.888893,44,104,497,498,-0.01877698,0.0008562133,0.009318064,-0.7790236,2.968787,0.1943021,-0.0134642,0.01223015,0.006291444,-0.3741432,2.83131,2.482719
90,1.900004,44,104,497,498,-0.02089145,-0.003421945,0.01143064,-0.7788543,2.969015,0.1944182,-0.01560744,0.0101068,0.006306146,-0.3741113,2.831381,2.482936
90,1.911115,44,104,497,498,-0.01663939,-0.0001828857,0.01034969,-0.7794513,2.969194,0.194398,-0.01243472,0.007946427,0.003107161,-0.3741539,2.831553,2.482834
90,1.922226,44,104,497,498,-0.01556476,0.006216684,0.01146881,-0.7798801,2.969714,0.1942009,-0.009252057,0.007944316,0.003093086,-0.373927,2.831851,2.482762
90,1.933337,44,104,497,498,-0.01447034,0.01044076,0.01468759,-0.7799366,2.970031,0.1941327,-0.01135938,0.01116002,0.00521699,-0.3736852,2.831982,2.482819
90,1.944448,44,104,497,498,-0.01015526,0.005105061,0.01780591,-0.7800468,2.970525,0.193362,-0.01030935,0.005842388,0.00845602,-0.373494,2.830705,2.484185
90,1.955559,44,104,497,498,-0.01123712,0.008319343,0.01571163,-0.7802076,2.970735,0.1933743,-0.007098734,0.006912364,0.012697,-0.3732788,2.830387,2.484586
90,1.966671,44,104,497,498,-0.01125771,-0.005502937,0.01453717,-0.7799488,2.971005,0.1933695,-0.008143259,0.01542169,0.008402387,-0.3729129,2.830984,2.48412
90,1.977782,44,104,497,498,-0.01550644,-0.01723698,0.01660489,-0.7794178,2.971163,0.193533,-0.01241483,0.01648881,0.004171421,-0.3725954,2.831105,2.484226
90,1.988893,44,104,497,498,-0.01121205,-0.02365612,0.01863143,-0.7788777,2.971094,0.1933274,-0.009218015,0.01009738,0.007380006,-0.3726359,2.830695,2.484397
90,2.000004,44,104,497,498,-0.005855195,-0.03325382,0.01956444,-0.7782891,2.971141,0.1928475,-0.006036295,0.006895304,0.009498874,-0.3726945,2.830756,2.48445
90,2.011115,44,104,497,498,-0.00586313,-0.03111427,0.01851727,-0.7779642,2.971303,0.1927948,-0.001705127,0.01861537,0.01368389,-0.3721278,2.831067,2.484053
90,2.022226,44,104,497,498,0.000575725,-0.03328471,0.02165309,-0.7773144,2.971829,0.1919303,-0.005916361,0.02187212,0.0211453,-0.3715312,2.830813,2.484427
90,2.033337,44,104,497,498,0.004875369,-0.02906154,0.0259136,-0.7770406,2.97235,0.1913774,-0.005912529,0.01445705,0.02970425,-0.3712148,2.829552,2.485671
90,2.044448,44,104,497,498,0.006018788,-0.01739508,0.03238625,-0.7771142,2.972973,0.1905865,-0.001680486,-0.002565677,0.04043091,-0.3712329,2.826615,2.488293
90,2.055559,44,104,497,498,0.009271335,-0.0131895,0.03878628,-0.7769634,2.973819,0.1897811,-0.0006674891,-0.01958861,0.04583679,-0.3713901,2.823966,2.490742
90,2.06667,44,104,497,498,0.00398849,-0.02067233,0.04303893,-0.7764974,2.974727,0.1890908,0.01313232,-0.02181048,0.03938272,-0.3715728,2.823408,2.490902
90,2.077781,44,104,497,498,0.006115057,-0.02812142,0.04403918,-0.7761154,2.975688,0.1883947,0.0120453,-0.01017111,0.02333517,-0.3716995,2.824406,2.489937
90,2.088892,44,104,497,498,0.01456631,-0.04191042,0.03639262,-0.7752627,2.975736,0.1879723,0.007799681,0.01318258,0.001928167,-0.3713933,2.827169,2.48739
90,2.100003,44,104,497,498,0.01771402,-0.04182661,0.02891439,-0.7751194,2.976059,0.1872437,0.01308737,0.0152258,-0.01088602,-0.3715163,2.828217,2.486035
90,2.111114,44,104,497,498,0.02088305,-0.0407357,0.0257004,-0.7746502,2.976218,0.1867994,0.007812105,0.02060731,-0.004497846,-0.3711653,2.828631,2.485703
90,2.122225,44,104,497,498,0.02520736,-0.03224409,0.0299875,-0.7745889,2.976681,0.1857539,0.01109036,0.02917083,0.006094573,-0.3705059,2.828988,2.485187
90,2.133336,44,104,497,498,0.02305026,-0.02048749,0.02583004,-0.7746768,2.976658,0.1855307,0.01641139,0.0227817,0.0114297,-0.370263,2.828475,2.48534
90,2.144447,44,104,497,498,0.0187945,-0.009833099,0.02595655,-0.7747673,2.977119,0.1850865,0.02163784,0.01839299,-0.008816991,-0.3707173,2.830146,2.483317
90,2.155558,44,104,497,498,0.02093993,0.001874838,0.0271026,-0.7750118,2.977669,0.1843962,0.01834241,0.01617572,-0.02903302,-0.3711807,2.832166,2.481356
90,2.166669,44,104,497,498,0.023088,0.01890907,0.02829367,-0.7755924,2.978335,0.1836111,0.01936645,0.008699421,-0.03219778,-0.3714854,2.832966,2.480282
90,2.17778,44,104,497,498,0.02838036,0.04238757,0.02312012,-0.7766625,2.978808,0.1828116,0.01931406,0.0001883004,-0.0321599,-0.3717768,2.833758,2.479536
90,2.188891,44,104,497,498,0.02941867,0.06159782,0.01901223,-0.7777964,2.979258,0.1821309,0.01504903,-0.002972692,-0.02893134,-0.3720106,2.834105,2.479186
90,2.200002,44,104,497,498,0.02726935,0.06377038,0.01370921,-0.7784127,2.979197,0.1815701,0.0108585,0.001392684,-0.01401884,-0.3715919,2.834048,2.479408
90,2.211113,44,104,497,498,0.01977615,0.06380953,0.009512141,-0.7791083,2.979361,0.1814337,0.006648107,0.002534981,-0.00335838,-0.3713672,2.83393,2.479518
90,2.222224,44,104,497,498,0.0208307,0.05423173,0.008352725,-0.7794486,2.979463,0.1810348,0.01091382,0.0003958102,-0.0001578913,-0.3713272,2.833187,2.479967
90,2.233335,44,104,497,498,0.01973825,0.05212248,0.005149267,-0.7799083,2.979546,0.1807434,0.0108342,-0.009216922,-0.007565294,-0.3716644,2.833424,2.479666
90,2.244446,44,104,497,498,0.01862435,0.04577642,-0.000221733,-0.780279,2.979461,0.180622,0.006574847,-0.0060098,-0.009694734,-0.3717352,2.833955,2.479263
90,2.255557,44,104,497,498,0.01962648,0.03305954,-0.006738062,-0.7805821,2.979081,0.1806864,0.00765514,0.0003663134,-0.01291781,-0.3716069,2.834684,2.478466
90,2.266668,44,104,497,498,0.01856411,0.02026786,-0.005771754,-0.7804819,2.979012,0.1805565,0.0002628791,0.004714747,-0.003328306,-0.3713714,2.83492,2.478338
90,2.277779,44,104,497,498,0.01849217,0.001133643,-0.01232843,-0.7798939,2.978312,0.1809618,0.0110024,0.004734904,0.01369135,-0.3709922,2.832629,2.479893
90,2.28889,44,104,497,498,0.01420729,-0.01056444,-0.01452143,-0.7795233,2.977903,0.1811946,0.01100927,0.004747823,0.01688452,-0.3708649,2.832181,2.480293
90,2.300001,44,104,497,498,0.01628045,-0.01370228,-0.02096177,-0.7794897,2.977255,0.1814337,0.005657888,0.004737194,0.01158162,-0.3709059,2.832082,2.48051
90,2.311112,44,104,497,498,0.01412753,-0.0158319,-0.02097258,-0.7793735,2.976694,0.1820239,0.01204254,0.008945899,0.007268794,-0.3708409,2.83257,2.479891
90,2.322223,44,104,497,498,0.01306072,-0.01902724,-0.02099047,-0.7791328,2.976292,0.182198,0.007828738,0.01429386,0.01045829,-0.3706247,2.832271,2.480049
90,2.333334,44,104,497,498,0.01516017,-0.02219256,-0.02528686,-0.7788036,2.975833,0.182205,0.00466002,0.01221705,0.01900114,-0.3703434,2.831551,2.480742
90,2.344445,44,104,497,498,0.01303016,-0.02112644,-0.02525966,-0.7786551,2.975395,0.1824367,0.006795209,0.007983006,0.02753698,-0.3700755,2.830137,2.482098
90,2.355556,44,104,497,498,0.008753117,-0.01899801,-0.02521761,-0.7785234,2.974711,0.1831967,0.007855335,0.003732903,0.03074931,-0.3698651,2.829067,2.482973
90,2.366668,44,104,497,498,0.01088466,-0.01686836,-0.02521782,-0.7784414,2.974253,0.1833464,0.005659607,0.001539816,0.01692193,-0.3700452,2.829288,2.48269
90,2.377779,44,104,497,498,0.004437447,-0.01789706,-0.02833217,-0.77823,2.974312,0.1838348,0.002496006,0.00688602,0.01903727,-0.3697943,2.829067,2.482957
90,2.38889,44,104,497,498,0.003325338,-0.02104745,-0.03367616,-0.7780095,2.973506,0.1844069,0.001459952,0.01010071,0.02009678,-0.3693123,2.828842,2.483023
90,2.400001,44,104,497,498,0.003329328,-0.0199931,-0.03259009,-0.7778071,2.973217,0.184654,0.00249284,0.005824045,0.01798879,-0.3692281,2.828234,2.483579
90,2.411112,44,104,497,498,-0.0009265505,-0.01896369,-0.0304171,-0.7773991,2.972639,0.1854018,0.003598187,0.01010071,0.02329161,-0.3688915,2.82751,2.484201
90,2.422223,44,104,497,498,-0.0009244792,-0.01683171,-0.0303969,-0.7773362,2.972177,0.1857326,0.0025342,0.007985044,0.02649443,-0.3687413,2.82684,2.484872
90,2.433334,44,104,497,498,-0.003059526,-0.009413695,-0.0292651,-0.777087,2.971373,0.1866444,0.006734827,-0.002684144,0.02546275,-0.3687615,2.825912,2.485681
90,2.444445,44,104,497,498,-0.003036498,-0.005189544,-0.02603742,-0.7770353,2.970993,0.1870221,0.007806248,-0.001628586,0.02439852,-0.3685165,2.825097,2.486231
90,2.455556,44,104,497,498,-0.006215077,-0.007340277,-0.02281314,-0.7769794,2.971105,0.1872325,0.007786327,0.001543843,0.01691855,-0.3683546,2.825853,2.485497
90,2.466667,44,104,497,498,-0.007315063,-0.004108142,-0.02703803,-0.7771013,2.970538,0.1877443,0.003517256,0.00261594,0.01266539,-0.3682363,2.826254,2.485124
90,2.477778,44,104,497,498,-0.00621458,-0.006275014,-0.02280416,-0.7770007,2.970307,0.1879478,0.00346551,-0.002736128,0.007369188,-0.3683317,2.826002,2.485401
90,2.488889,44,104,497,498,-0.008371565,-0.005185349,-0.02489305,-0.7770742,2.970124,0.1883377,0.003462991,-0.005912889,0.01164592,-0.3683093,2.825177,2.486214
90,2.5,44,104,497,498,-0.007261815,-0.004160373,-0.01957742,-0.7771919,2.969791,0.1886402,0.005616442,-0.004844811,0.01589486,-0.3682316,2.824253,2.486964
90,2.511111,44,104,497,498,-0.008326573,-0.003094694,-0.01955938,-0.7772212,2.969478,0.188995,0.003477517,-0.008019356,0.01698582,-0.36814,2.823633,2.487553
90,2.522222,44,104,497,498,-0.005130131,-0.007372692,-0.01854364,-0.7769304,2.969394,0.1891079,0.00451965,-0.009117609,0.01272777,-0.3682885,2.823103,2.487976
90,2.533333,44,104,497,498,-0.007281895,-0.008431397,-0.01852262,-0.7769091,2.969289,0.1896091,-0.000779938,0.00154464,0.00950345,-0.3680078,2.823558,2.487781
90,2.544444,44,104,497,498,-0.006252296,-0.007330672,-0.02278358,-0.7769186,2.968771,0.1900213,-0.005001129,0.007939266,0.008430639,-0.3678347,2.823371,2.487909
90,2.555555,44,104,497,498,-0.005130329,-0.01059368,-0.01539234,-0.7767344,2.968145,0.1905689,-0.007162851,0.0004911721,0.008491545,-0.3678188,2.822334,2.488968
90,2.566666,44,104,497,498,0.0001910045,-0.01060472,-0.01544038,-0.7766854,2.967871,0.1908176,-0.001883583,-0.01548524,0.01387726,-0.3679253,2.821354,2.489811
90,2.577777,44,104,497,498,0.002313655,-0.01273116,-0.01546782,-0.7764201,2.967661,0.1909055,-0.003005991,-0.02507037,0.01286575,-0.3683626,2.819497,2.491659
90,2.588888,44,104,497,498,0.004443668,-0.01379727,-0.01549487,-0.7762752,2.967372,0.1910083,-0.001868511,-0.01226615,0.01811729,-0.3680435,2.819383,2.491883
90,2.599999,44,104,497,498,0.006554852,-0.01591269,-0.01763795,-0.7759982,2.967407,0.1908751,-0.003965137,0.0005003815,0.01273674,-0.36775,2.819994,2.491424
90,2.61111,44,104,497,498,0.006573917,-0.0138001,-0.01548958,-0.7759301,2.967214,0.190954,-0.00612674,-0.002703127,0.008497914,-0.3678576,2.820023,2.491503
90,2.622221,44,104,497,498,0.004491808,-0.01383816,-0.01015033,-0.775871,2.967125,0.1910083,0.0002565214,-0.0006131863,0.005272303,-0.3677266,2.820063,2.491321
90,2.633332,44,104,497,498,0.005611258,-0.0138924,-0.003768044,-0.7756974,2.967276,0.1908341,0.008752847,-0.009125659,0.01166048,-0.3677069,2.819415,2.491817
90,2.644443,44,104,497,498,0.004536105,-0.01601544,-0.004849012,-0.7754624,2.966898,0.1910957,0.01082772,-0.01874607,0.006366647,-0.3681346,2.819049,2.491843
90,2.655554,44,104,497,498,0.0119483,-0.0149083,-0.01022935,-0.7753708,2.966515,0.191044,0.008641144,-0.02409489,1.671724E-05,-0.3685091,2.818461,2.492422
90,2.666665,44,104,497,498,0.01513275,-0.01275118,-0.01022464,-0.7756808,2.966697,0.1908347,0.005484441,-0.01555492,-1.566857E-05,-0.3684191,2.818785,2.492129
90,2.677776,44,104,497,498,0.01404784,0.003254987,-0.01327704,-0.7761831,2.966499,0.1908421,0.004468268,0.00147436,-0.004361704,-0.3681597,2.820217,2.490905
90,2.688887,44,104,497,498,0.01087451,0.01282567,-0.011039,-0.7765879,2.96652,0.1908,0.007696819,0.006786817,-0.003347172,-0.3681298,2.820741,2.490156
90,2.699998,44,104,497,498,0.01301794,0.02560509,-0.009889496,-0.7772627,2.966498,0.190628,0.01512232,-0.004949478,0.002000098,-0.3684856,2.819637,2.490848
90,2.711109,44,104,497,498,0.01192905,0.03308917,-0.01301351,-0.7778651,2.966327,0.1906477,0.01508647,-0.01453375,0.003107215,-0.3688808,2.818912,2.491349
90,2.72222,44,104,497,498,0.01301369,0.04371326,-0.00975519,-0.7786295,2.966121,0.1908011,0.010816,-0.01558515,0.00206555,-0.3690587,2.818591,2.491635
90,2.733331,44,104,497,498,0.01622821,0.04900274,-0.006568772,-0.7791941,2.965743,0.1909561,0.00869434,-0.008133238,-0.001158394,-0.368965,2.819115,2.491267
90,2.744442,44,104,497,498,0.01516531,0.05432945,-0.006515113,-0.7799333,2.965832,0.1907628,0.01186713,-0.008173913,-0.006498516,-0.3691727,2.81943,2.490757
90,2.755553,44,104,497,498,0.01621317,0.05645845,-0.007571619,-0.7804527,2.965809,0.1907026,0.00651678,-0.006064335,-0.01393293,-0.3694476,2.819711,2.490561
90,2.766664,44,104,497,498,0.01833373,0.05433606,-0.008672682,-0.7810125,2.965783,0.190456,0.00544645,-0.007122735,-0.01178827,-0.3696212,2.819323,2.491042
90,2.777775,44,104,497,498,0.01722283,0.04905223,-0.01297125,-0.7815403,2.965492,0.1906035,0.006552716,-0.009192983,0.001009849,-0.3694241,2.818054,2.492178
90,2.788886,44,104,497,498,0.01405727,0.03623459,-0.008790515,-0.7816048,2.965539,0.1904922,0.004472862,-0.009127704,0.01060519,-0.3692047,2.817337,2.492706
90,2.799997,44,104,497,498,0.01507682,0.01922209,-0.01211469,-0.7814407,2.965687,0.1903521,0.005549252,-0.007003288,0.01059786,-0.3691003,2.816807,2.493069
90,2.811108,44,104,497,498,0.01189602,-0.002108661,-0.009073794,-0.7811818,2.965581,0.1903766,0.004465682,-0.005956396,0.006335577,-0.3692031,2.816842,2.493073
90,2.822219,44,104,497,498,0.01079184,-0.01594822,-0.01132136,-0.7803988,2.9648,0.1910919,0.004444649,-0.00280713,-0.002193694,-0.3692824,2.817114,2.492753
90,2.83333,44,104,497,498,0.009714395,-0.02872642,-0.01035619,-0.7800782,2.964548,0.1913945,0.001216938,-0.003873423,-0.007501857,-0.3693506,2.817734,2.492311
90,2.844441,44,104,497,498,0.01076876,-0.03297893,-0.0114661,-0.7796521,2.964198,0.1914962,0.001216938,-0.003873424,-0.007501858,-0.3694353,2.817845,2.492193
90,2.855552,44,104,497,498,0.008597789,-0.03403421,-0.01250103,-0.7792633,2.964264,0.1918445,0.001299028,0.000436858,0.004201775,-0.3691376,2.816746,2.493015
90,2.866663,44,104,497,498,0.007543884,-0.02871643,-0.01138225,-0.779112,2.964086,0.1919202,0.001309375,-0.0006121281,0.008468574,-0.3691061,2.816102,2.493657
90,2.877774,44,104,497,498,0.007523699,-0.02125754,-0.01130094,-0.7790678,2.964287,0.1920267,0.003454211,0.0004646285,0.01272129,-0.3688265,2.815405,2.494315
90,2.888885,44,104,497,498,0.009664938,-0.008482087,-0.01015024,-0.7793347,2.964166,0.1920208,-0.0008219229,-0.001652658,0.01274865,-0.3688989,2.814867,2.495025
90,2.899997,44,104,497,498,0.005426368,0.002154229,-0.007894962,-0.7796463,2.964216,0.1920555,0.001276275,-0.001680557,0.007413975,-0.3688451,2.815161,2.494815
90,2.911108,44,104,497,498,0.001177941,0.01066894,-0.006722714,-0.7799738,2.964256,0.1921316,0.004424984,-0.001753313,-0.00218127,-0.3690907,2.815236,2.494684
90,2.922219,44,104,497,498,0.000133317,0.01704306,-0.004529891,-0.7803387,2.964367,0.192081,0.002321244,0.001464626,-0.003260052,-0.3689064,2.816182,2.493587
90,2.93333,44,104,497,498,0.0001105741,0.02555817,-0.004445374,-0.7806428,2.964642,0.1922664,-0.001909496,0.002590949,0.003141724,-0.3686316,2.816144,2.493785
90,2.944441,44,104,497,498,0.002264898,0.02233236,-0.001299339,-0.7807515,2.964665,0.1921977,-0.0008415645,-0.005894517,0.01276581,-0.3687216,2.814667,2.495146
90,2.955552,44,104,497,498,0.001160625,0.01704675,-0.004495673,-0.7809299,2.965247,0.1919431,0.0002483465,-0.003745235,0.01807956,-0.3685575,2.813825,2.496025
90,2.966663,44,104,497,498,0.0001098812,0.01063316,-0.002413903,-0.7808095,2.965185,0.1920224,0.0003067087,0.01220895,0.01480051,-0.368182,2.814519,2.495365
90,2.977774,44,104,497,498,-0.001003366,-0.008525332,-0.004696082,-0.7802087,2.964835,0.1926232,-0.007206804,0.01429795,-0.001165496,-0.3683296,2.816247,2.493998
90,2.988885,44,104,497,498,-0.0009968132,-0.02559189,-0.002711847,-0.7794316,2.964574,0.1928715,-0.005112529,0.007887868,-0.002208777,-0.3684883,2.816139,2.494139
90,2.999996,44,104,497,498,0.003283892,-0.03734592,0.00142482,-0.7787408,2.964749,0.1927681,-0.000839964,0.007879869,-9.33446E-05,-0.368336,2.816049,2.49407
90,3.011107,44,104,497,498,0.003272004,-0.04266951,0.00140385,-0.7781506,2.96509,0.1926392,0.001302291,0.005764316,0.005233316,-0.3682204,2.815623,2.494442
90,3.022218,44,104,497,498,0.001186553,-0.041648,0.006756713,-0.777676,2.965298,0.1925497,0.008786007,-0.0005974881,0.01801626,-0.3680243,2.814061,2.495598
90,3.033329,44,104,497,498,0.003258668,-0.0501259,0.002425617,-0.7770369,2.965334,0.1927042,0.005553517,0.002572563,0.008428581,-0.3679413,2.814781,2.495128
90,3.04444,44,104,497,498,2.674013E-05,-0.0511544,-0.001817403,-0.7764787,2.964987,0.1930408,0.002347277,0.007867616,0.0009576394,-0.3679876,2.815427,2.494611
90,3.055551,44,104,497,498,-0.004249696,-0.05434965,-0.001808002,-0.775782,2.964792,0.1935564,-0.006198396,0.01103797,-0.01072917,-0.3680888,2.816396,2.493833
90,3.066662,44,104,497,498,-0.005294349,-0.04797551,0.0003847644,-0.7754273,2.964797,0.1936587,-0.009423603,0.007831665,-0.01389842,-0.3683631,2.816791,2.493665
90,3.077773,44,104,497,498,-0.005272083,-0.03202654,0.003725508,-0.7754006,2.965227,0.1935793,-0.01153744,0.001503176,-0.002135692,-0.3683423,2.81557,2.495062
90,3.088884,44,104,497,498,-0.006345042,-0.008572634,0.001799753,-0.7759301,2.965332,0.1936022,-0.007241885,-0.00377937,0.01171847,-0.368264,2.814098,2.496404
90,3.099995,44,104,497,498,-0.007398279,0.01058729,0.001944418,-0.7763413,2.964944,0.1939282,-0.007218377,0.000483443,0.01061828,-0.3681607,2.81476,2.495741
90,3.111106,44,104,497,498,-0.008460049,0.01697787,0.002002485,-0.7766449,2.964981,0.1940166,-0.01146034,0.01324217,0.002052444,-0.3678997,2.816085,2.494778
90,3.122217,44,104,497,498,-0.01058407,0.03187688,0.00214635,-0.7771227,2.965181,0.1940454,-0.007246176,0.009973397,-0.007538667,-0.3681815,2.816702,2.494045
90,3.133328,44,104,497,498,-0.01485658,0.03615513,6.540678E-05,-0.7776393,2.964821,0.1945093,-0.007316124,0.00460748,-0.0181795,-0.3685149,2.818395,2.492554
90,3.144439,44,104,497,498,-0.01591953,0.04148181,0.0001188051,-0.7782268,2.965021,0.1945839,-0.007357538,-0.002870871,-0.02027962,-0.3690428,2.818629,2.49241
90,3.15555,44,104,497,498,-0.0127597,0.04259035,-0.004150308,-0.7788191,2.965167,0.1945386,-0.004150874,-0.006047281,-0.01387866,-0.3690518,2.81812,2.492873
90,3.166661,44,104,497,498,-0.01273434,0.03936788,-0.0009813197,-0.7791248,2.96542,0.1944981,-0.009375459,-0.002723388,0.007434751,-0.3686337,2.81672,2.494498
90,3.177772,44,104,497,498,-0.01163192,0.02975449,0.002107013,-0.7792265,2.965216,0.1945407,-0.009339071,0.001568108,0.01381072,-0.3683088,2.816097,2.495332
90,3.188883,44,104,497,498,-0.01378386,0.01271517,0.0009142444,-0.7788702,2.965013,0.1949658,-0.008250561,0.0005278625,0.02020141,-0.3681495,2.815162,2.496251
90,3.199994,44,104,497,498,-0.01061257,-4.682411E-05,-0.001360202,-0.7786497,2.964601,0.1953088,-0.006163143,-0.00375346,0.01595683,-0.3680957,2.814886,2.496599
90,3.211105,44,104,497,498,-0.01167308,-0.009642661,-0.0003660806,-0.7782736,2.964533,0.1955202,-0.002980445,0.00258011,0.007390677,-0.3680616,2.815491,2.496028
90,3.222216,44,104,497,498,-0.01059022,-0.02137103,0.0005907556,-0.7777315,2.964375,0.1955192,-0.0007038042,0.02816278,0.01470794,-0.3672233,2.816135,2.495416
90,3.233327,44,104,497,498,-0.009510823,-0.02991128,0.002641165,-0.7771402,2.964331,0.195623,-0.008280743,0.003697352,0.01272746,-0.3675711,2.815335,2.496454
90,3.244438,44,104,497,498,-0.006327324,-0.03627809,-0.0006415187,-0.7766556,2.963905,0.1956449,-0.006114978,0.001609173,0.02338279,-0.3673122,2.813965,2.497782
90,3.255549,44,104,497,498,-0.007388394,-0.03839035,-0.001712572,-0.776329,2.963815,0.1956379,-0.003933741,0.01120784,0.02545286,-0.3666901,2.814258,2.497489
90,3.26666,44,104,497,498,-0.00311891,-0.03946604,-0.0006918699,-0.7758651,2.963722,0.195631,-0.005007653,0.01649556,0.01797158,-0.3665383,2.814682,2.497194
90,3.277771,44,104,497,498,-0.003108125,-0.03306644,0.0004236622,-0.7759221,2.96375,0.1956726,-0.002890609,0.02071729,0.01154904,-0.3662976,2.815429,2.49655
90,3.288882,44,104,497,498,-0.002019063,-0.01923623,0.002660708,-0.7760653,2.963927,0.1955405,-0.0007882193,0.01537109,0.01050066,-0.3662651,2.815127,2.496778
90,3.299993,44,104,497,498,0.001191678,-0.006444087,0.003803235,-0.7765293,2.964114,0.1953136,-0.001877695,0.005799492,0.01482641,-0.3662715,2.813496,2.49837
90,3.311104,44,104,497,498,0.000118888,-0.003239034,0.002773576,-0.776581,2.964124,0.1953402,0.001303902,-0.004821835,0.02443869,-0.366387,2.81212,2.499655
90,3.322215,44,104,497,498,-0.002003076,0.01168359,0.002905702,-0.7772393,2.964159,0.1953663,-0.0008174861,-0.002689248,0.02230377,-0.3662315,2.812023,2.499678
90,3.333326,44,104,497,498,0.0001128409,0.01915742,0.0008196184,-0.7776542,2.96422,0.1952773,-0.0008254936,0.002576558,0.01269811,-0.3662459,2.812009,2.499588
90,3.344437,44,104,497,498,0.0001567956,0.02445737,0.002987754,-0.7778918,2.964272,0.19488,0.0001840849,-0.0006731822,0.003117597,-0.366517,2.812422,2.499156
90,3.355548,44,104,497,498,0.0001884326,0.02549432,0.005120666,-0.7780148,2.96434,0.194627,-0.0008510929,0.01209133,-0.001208019,-0.3662864,2.81371,2.498137
90,3.366659,44,104,497,498,-0.00192472,0.02441205,0.007260052,-0.7782342,2.964595,0.1945098,-0.001944319,0.008880346,-0.004385323,-0.3664153,2.813924,2.497981
90,3.37777,44,104,497,498,0.00124485,0.02336938,0.004022039,-0.7784377,2.964411,0.194529,-0.000860631,0.002536782,0.004167061,-0.3662305,2.813212,2.498477
90,3.388881,44,104,497,498,0.001220175,0.007408257,0.001758343,-0.7780851,2.964278,0.1946196,-0.0008494183,-0.001692547,0.01164434,-0.3662198,2.812149,2.499506
90,3.399992,44,104,497,498,0.003360932,-0.003265859,0.003792233,-0.7777134,2.964521,0.1943932,-0.001949385,-0.001709029,0.005251826,-0.3662539,2.812789,2.499043
90,3.411103,44,104,497,498,0.003377378,-0.006479414,0.005896028,-0.7775338,2.964641,0.1942701,-0.0008828528,0.005702686,-0.001177907,-0.3662177,2.813302,2.498609
90,3.422215,44,104,497,498,0.003386917,-0.01074914,0.005876946,-0.7771583,2.964955,0.1938488,0.002290203,0.00778183,-0.008659225,-0.3662912,2.814243,2.497614
90,3.433326,44,104,497,498,0.00660143,-0.01074221,0.006922096,-0.7772755,2.965289,0.1933082,0.001195251,0.008806748,-0.01718454,-0.3665117,2.815452,2.496454
90,3.444437,44,104,497,498,0.01092527,-0.009740674,0.0143519,-0.7771338,2.965745,0.1927521,0.002295491,0.007781187,-0.008672809,-0.3664345,2.815486,2.496339
90,3.455548,44,104,497,498,0.01198259,-0.007601652,0.01329554,-0.777096,2.965892,0.1924912,0.003507337,0.01853843,0.01257046,-0.3656131,2.815042,2.496574
90,3.466659,44,104,497,498,0.01732854,-0.003360307,0.01541696,-0.7771509,2.966235,0.1918999,0.004524596,0.004695875,0.01582979,-0.36584,2.813796,2.497671
90,3.47777,44,104,497,498,0.02158866,-0.005492362,0.01536356,-0.7769789,2.966446,0.1913918,0.009850973,0.003610886,0.01688042,-0.3657159,2.813179,2.497985
90,3.488881,44,104,497,498,0.01945585,-0.01081789,0.01533698,-0.7766801,2.966628,0.1911122,0.009840446,0.01737453,-0.0002339119,-0.3655577,2.815133,2.496016
90,3.499992,44,104,497,498,0.01412099,-0.01291904,0.01430858,-0.7766625,2.967003,0.1908533,0.003409911,0.02373189,-0.01728294,-0.3653532,2.817854,2.493527
90,3.511103,44,104,497,498,0.01517375,-0.01077248,0.01219479,-0.7765506,2.967246,0.1904032,0.002271724,0.01941479,-0.03003554,-0.3656222,2.819265,2.492183
90,3.522214,44,104,497,498,0.01410599,-0.01077574,0.01220101,-0.7763392,2.967344,0.1902701,0.008643745,0.0119449,-0.02683011,-0.3658251,2.819591,2.491593
90,3.533325,44,104,497,498,0.01625681,-0.006507111,0.01330572,-0.7765272,2.968109,0.189339,0.004426385,0.003500872,-0.0139779,-0.3658326,2.818487,2.492321
90,3.544436,44,104,497,498,0.01731954,-0.004382094,0.01331184,-0.7764366,2.968273,0.1890685,0.00877645,0.004626916,0.004100529,-0.3656147,2.817522,2.492944
90,3.555547,44,104,497,498,0.0183843,-0.0001125969,0.0133518,-0.7766039,2.968802,0.1884879,0.006688835,0.008921888,0.007293182,-0.3651902,2.817534,2.492769
90,3.566658,44,104,497,498,0.01729013,0.00310554,0.01018925,-0.7766545,2.968821,0.1883585,0.005572363,0.006744012,-0.002281608,-0.3654352,2.818176,2.492143
90,3.577769,44,104,497,498,0.01514552,0.00633719,0.00810645,-0.7770369,2.969058,0.1880533,0.005542465,0.005629442,-0.0118512,-0.3655519,2.818714,2.491328
90,3.58888,44,104,497,498,0.009798502,0.007415991,0.006014982,-0.7770614,2.968788,0.1883196,0.01191202,0.01088087,-0.02148628,-0.3655551,2.820004,2.489881
90,3.599991,44,104,497,498,0.006598709,0.01167231,0.006074293,-0.7772127,2.968873,0.1883531,0.009784592,0.01195555,-0.0214828,-0.3656003,2.820865,2.489043
90,3.611102,44,104,497,498,0.008748018,0.01594314,0.007138804,-0.7778007,2.968821,0.1881071,0.01403944,0.005583882,-0.0150848,-0.3656595,2.821074,2.488646
90,3.622213,44,104,497,498,0.01300398,0.02127498,0.006080143,-0.7781363,2.968922,0.1877789,0.01616018,-0.0007919725,-0.01079768,-0.3657324,2.820719,2.488762
90,3.633324,44,104,497,498,0.009803725,0.02873846,0.005116197,-0.7785251,2.969342,0.1874327,0.009845259,0.004620185,-0.0001396015,-0.365325,2.820498,2.488924
90,3.644435,44,104,497,498,0.0130058,0.02020579,0.006081011,-0.7785043,2.969428,0.1871084,0.006694796,0.01104932,0.004106943,-0.3649617,2.820576,2.488865
90,3.655546,44,104,497,498,0.01515632,0.0159367,0.00602597,-0.778451,2.969453,0.1865576,0.00774459,0.001488823,0.01054187,-0.3649969,2.819541,2.489707
90,3.666657,44,104,497,498,0.01197245,0.002071703,0.008067816,-0.7780468,2.969548,0.1864618,0.007796926,0.004727403,0.01798676,-0.3645399,2.818939,2.490088
90,3.677768,44,104,497,498,0.01840541,-0.007569007,0.014346,-0.7776515,2.970346,0.1856218,0.003618151,0.01225244,0.02754923,-0.3639929,2.818566,2.490421
90,3.688879,44,104,497,498,0.02171683,-0.007694718,0.02816595,-0.7773341,2.971206,0.1847216,0.005778594,0.006968588,0.03928123,-0.3636866,2.81675,2.491955
90,3.69999,44,104,497,498,0.02708669,-0.009871488,0.03342985,-0.777087,2.971876,0.1837959,0.005797232,-0.00256101,0.05423095,-0.3636259,2.813903,2.494605
90,3.711101,44,104,497,498,0.03348579,-0.01307842,0.03441508,-0.7768025,2.972431,0.1828713,0.01215839,-0.007931676,0.05104243,-0.3634043,2.812246,2.495763
90,3.722212,44,104,497,498,0.03033035,-0.01842441,0.03759032,-0.7764568,2.972995,0.1819994,0.01001248,0.0005346183,0.03822484,-0.3631854,2.812374,2.495561
90,3.733323,44,104,497,498,0.02498466,-0.03226694,0.03645824,-0.7756078,2.973377,0.1816734,0.01209699,0.008962416,0.02218506,-0.3631657,2.813506,2.494537
90,3.744434,44,104,497,498,0.01964493,-0.04290878,0.03534883,-0.7747908,2.97368,0.1813858,0.007685648,0.01304569,-0.0172336,-0.3636781,2.816693,2.491582
90,3.755545,44,104,497,498,0.02067561,-0.04925579,0.03102993,-0.7741905,2.97396,0.180868,0.009760916,0.01615564,-0.03110901,-0.3639843,2.81852,2.489821
90,3.766656,44,104,497,498,0.01533996,-0.05031029,0.03000032,-0.773562,2.974231,0.1806555,0.008647818,0.0161126,-0.04068823,-0.3642224,2.820177,2.488279
90,3.777767,44,104,497,498,0.01959439,-0.0396418,0.02685947,-0.7732435,2.974555,0.1798774,0.01183488,0.01396979,-0.03856253,-0.3644834,2.820952,2.487473
90,3.788878,44,104,497,498,0.01751054,-0.03328475,0.03117278,-0.7729921,2.97476,0.17948,0.01183936,0.01397478,-0.0364325,-0.3646358,2.821807,2.486606
90,3.799989,44,104,497,498,0.01432014,-0.0205005,0.03130589,-0.7730374,2.975295,0.1790203,0.009730168,0.01400938,-0.0310934,-0.364607,2.822421,2.486022
90,3.8111,44,104,497,498,0.01540951,-0.007714376,0.03354095,-0.7734496,2.976165,0.1781825,0.01186483,0.009762407,-0.02681044,-0.3646373,2.822594,2.485613
90,3.822211,44,104,497,498,0.01863112,0.01144144,0.03580429,-0.7740137,2.976967,0.1773111,0.01716144,0.004410412,-0.02680351,-0.3648733,2.82291,2.485073
90,3.833322,44,104,497,498,0.02076974,0.04127344,0.034961,-0.7751327,2.977614,0.1765122,0.01926523,0.002267001,-0.02892725,-0.365039,2.823743,2.484136
90,3.844433,44,104,497,498,0.01865434,0.05617895,0.03616814,-0.7760733,2.978498,0.1757463,0.01606591,0.007581916,-0.0342638,-0.3651279,2.825198,2.482742
90,3.855544,44,104,497,498,0.01546359,0.06258302,0.03411894,-0.776761,2.97912,0.1749771,0.01714212,0.006521655,-0.03212765,-0.3652616,2.825734,2.48192
90,3.866655,44,104,497,498,0.01543358,0.06261016,0.03092382,-0.7773469,2.979693,0.1743801,0.01397775,0.01294021,-0.03001023,-0.3651236,2.826711,2.481008
90,3.877766,44,104,497,498,0.01865177,0.05514812,0.03295515,-0.7778752,2.980242,0.1735763,0.01928683,0.00442992,-0.02360112,-0.365292,2.826819,2.480649
90,3.888877,44,104,497,498,0.02079822,0.04765726,0.03499629,-0.7779781,2.9807,0.1729537,0.01714917,0.001254864,-0.0214454,-0.3654672,2.827059,2.480302
90,3.899988,44,104,497,498,0.02395065,0.03490568,0.03060116,-0.7779722,2.980967,0.1724546,0.01719591,0.00237323,-0.01184596,-0.3651689,2.826482,2.480636
90,3.911099,44,104,497,498,0.02503006,0.009319448,0.03356554,-0.777512,2.981293,0.171956,0.01089747,0.01627065,-0.007632715,-0.3648099,2.827568,2.479484
90,3.92221,44,104,497,498,0.0270876,-0.01618546,0.02587845,-0.776696,2.981252,0.1716375,0.009840426,0.02476937,-0.01299606,-0.3646256,2.828952,2.478193
90,3.933321,44,104,497,498,0.0292002,-0.03322498,0.02465243,-0.7758555,2.981399,0.1711837,0.006634789,0.02158398,-0.0140349,-0.3646347,2.829809,2.477268
90,3.944432,44,104,497,498,0.0345447,-0.04494677,0.02663918,-0.7752611,2.981755,0.170355,0.01094525,0.02056222,-0.001264496,-0.3642922,2.829466,2.47736
90,3.955544,44,104,497,498,0.03780414,-0.04181417,0.03409562,-0.774786,2.982481,0.1693467,0.01946546,0.01947613,0.0018981,-0.364085,2.829715,2.476847
90,3.966655,44,104,497,498,0.03886515,-0.03434809,0.03308396,-0.7746374,2.982966,0.168536,0.02052095,0.01945895,-0.0002370896,-0.3639833,2.83024,2.476105
90,3.977766,44,104,497,498,0.0399593,-0.03439814,0.03627215,-0.7738342,2.983507,0.1676385,0.02052964,0.02689554,-0.006665431,-0.3636046,2.831883,2.474302
90,3.988877,44,104,497,498,0.0442216,-0.02694323,0.03738753,-0.7737181,2.984633,0.1663821,0.02264191,0.02473653,-0.008799005,-0.3636498,2.832547,2.473375
90,3.999988,44,104,497,498,0.04523575,-0.02156411,0.03103161,-0.7735849,2.984879,0.1656651,0.02898534,0.01936137,-0.01412991,-0.3637527,2.833568,2.471922
90,4.011099,44,104,497,498,0.04631354,-0.01733716,0.03318805,-0.7732019,2.985395,0.1648561,0.02892358,0.01717857,-0.02476915,-0.3639769,2.835003,2.470343
89.8,4.02221,44,104,497,498,0.04421584,-0.002449371,0.03652553,-0.7734741,2.986169,0.1638723,0.02575897,0.02677668,-0.02800402,-0.3636903,2.837298,2.46799
89.60001,4.033321,44,104,497,498,0.05170687,0.01136051,0.03977828,-0.7736664,2.987036,0.1624779,0.02687385,0.02788027,-0.01949711,-0.3634714,2.83805,2.466831
89.40001,4.044433,44,104,497,498,0.05177269,0.01982063,0.04730574,-0.7739742,2.988134,0.1611228,0.03436032,0.01833932,-0.002438778,-0.3633127,2.837085,2.467173
89.20001,4.055544,44,104,497,498,0.05714154,0.03148208,0.05267868,-0.7743524,2.989104,0.1597636,0.03540582,0.01406221,-0.003491841,-0.363432,2.837288,2.46651
89.00002,4.066655,44,104,497,498,0.06033162,0.03467973,0.05268836,-0.7747104,2.990175,0.1583537,0.03533303,0.01184623,-0.01946506,-0.3638613,2.838883,2.464549
88.80002,4.077766,44,104,497,498,0.05924681,0.0304368,0.05053134,-0.774868,2.990948,0.1571925,0.02884013,0.0159984,-0.04715583,-0.3644248,2.842092,2.461387
88.60002,4.088878,44,104,497,498,0.05816286,0.02405457,0.0494269,-0.7748467,2.991788,0.1560873,0.02878874,0.01806593,-0.0599484,-0.3648158,2.844666,2.458744
88.40002,4.099989,44,104,497,498,0.06136707,0.02297934,0.05045661,-0.7749777,2.992646,0.1547068,0.03514802,0.01801021,-0.06851125,-0.3652014,2.84787,2.455101
88.20003,4.1111,44,104,497,498,0.06459193,0.02827358,0.05366223,-0.7753101,2.993564,0.153258,0.0372609,0.01160856,-0.06742442,-0.3657596,2.84914,2.453369
88.00003,4.122211,44,104,497,498,0.06887656,0.0389091,0.05584653,-0.7759759,2.994694,0.1515408,0.0394074,0.01268802,-0.063174,-0.3659178,2.850671,2.451566
87.80003,4.133323,44,104,497,498,0.06884509,0.04530736,0.05483422,-0.776525,2.995636,0.150475,0.03409075,0.01059796,-0.05887739,-0.3662432,2.851777,2.450284
87.60004,4.144434,44,104,497,498,0.06780821,0.04634928,0.05804802,-0.7769725,2.99679,0.1489043,0.03308218,0.0149162,-0.04930278,-0.3661468,2.85298,2.448878
87.40004,4.155545,44,104,497,498,0.06135794,0.04318155,0.05381786,-0.7771285,2.99763,0.1481064,0.03415493,0.0149308,-0.04930096,-0.3660914,2.854766,2.446684
87.20004,4.166656,44,104,497,498,0.05919027,0.04108564,0.04955672,-0.7774406,2.998322,0.1470299,0.03197882,0.01172195,-0.05459881,-0.3664712,2.856388,2.444991
87.00005,4.177768,44,104,497,498,0.05384953,0.03255618,0.04951987,-0.7774001,2.998895,0.1463029,0.02663354,0.01490802,-0.0620422,-0.3667583,2.85861,2.442785
86.80005,4.188879,44,104,497,498,0.05171121,0.03363203,0.04848129,-0.777748,2.999701,0.1451987,0.02023045,0.01387731,-0.06200846,-0.3670198,2.860413,2.441133
86.60005,4.19999,44,104,497,498,0.05384424,0.03787741,0.04850131,-0.7780244,3.00055,0.1439119,0.0224879,0.01930464,-0.03860722,-0.3666837,2.860567,2.440644
86.40005,4.211102,44,104,497,498,0.05493856,0.03782373,0.05381237,-0.7782092,3.00152,0.1428008,0.02255866,0.02680398,-0.03012229,-0.3663657,2.861691,2.439342
86.20006,4.222213,44,104,497,498,0.06245469,0.03136746,0.06115372,-0.778262,3.002772,0.1409888,0.02590303,0.03016579,0.005012915,-0.3652627,2.860009,2.440835
86.00006,4.233324,44,104,497,498,0.07103064,0.01955636,0.07056616,-0.7778848,3.004027,0.1393835,0.03346273,0.0408419,0.01559271,-0.3642869,2.860116,2.440061
85.80006,4.244435,44,104,497,498,0.08391361,0.004531852,0.0831186,-0.7773682,3.005733,0.1369057,0.04304511,0.05248301,0.005916428,-0.3635199,2.862172,2.437662
85.60007,4.255547,44,104,497,498,0.09359344,-0.01158212,0.09566814,-0.7763706,3.007059,0.1348129,0.05263338,0.06092021,-0.003768075,-0.3630986,2.864889,2.434258
85.40007,4.266658,44,104,497,498,0.1033103,-0.0191753,0.1115048,-0.7757549,3.00932,0.1318025,0.05902819,0.0693793,-0.01022718,-0.3625446,2.867052,2.431554
85.20007,4.277769,44,104,497,498,0.1205116,-0.02786593,0.13154,-0.7750731,3.012232,0.1280245,0.07188603,0.08212344,-0.005021736,-0.3616605,2.869003,2.428706
85.00008,4.28888,44,104,497,498,0.138781,-0.04510435,0.1547014,-0.7739833,3.015834,0.1238444,0.07932776,0.07571167,-0.0007649362,-0.3612093,2.869832,2.426944
84.80008,4.299992,44,104,497,498,0.1484588,-0.05484046,0.1705292,-0.7726629,3.019022,0.1202151,0.09321844,0.07355574,0.007705532,-0.3605041,2.870468,2.424761
84.60008,4.311103,44,104,497,498,0.1668117,-0.06893714,0.2022519,-0.7714645,3.024,0.1145511,0.1081105,0.06817035,0.00873936,-0.3598666,2.871257,2.422482
84.40009,4.322214,44,104,497,498,0.1862074,-0.06595551,0.2298291,-0.770771,3.028955,0.1085877,0.1292695,0.04141231,0.001329809,-0.360021,2.871294,2.420412
84.20009,4.333325,44,104,497,498,0.2141294,-0.05127119,0.2574496,-0.7703412,3.034647,0.101574,0.1513842,0.009252846,-0.01885101,-0.3610405,2.871485,2.418355
84.00009,4.344437,44,104,497,498,0.2290992,-0.03427611,0.2649365,-0.7703646,3.039449,0.0953614,0.1555556,0.008068845,-0.03804049,-0.3615901,2.873566,2.414593
83.80009,4.355548,44,104,497,498,0.257964,-0.02800273,0.2785854,-0.7700024,3.044026,0.08863373,0.1532982,0.03016944,-0.09246226,-0.3625169,2.880171,2.406666
83.6001,4.366659,44,104,497,498,0.270826,-0.02700876,0.2891535,-0.7697068,3.049299,0.0816621,0.1457097,0.05018806,-0.1436643,-0.3637484,2.888407,2.397572
83.4001,4.37777,44,104,497,498,0.278311,-0.02494147,0.2922942,-0.7687763,3.053693,0.07524229,0.1498364,0.05435845,-0.1692123,-0.3637782,2.894352,2.390806
83.2001,4.388882,44,104,497,498,0.2890199,-0.01330691,0.3040504,-0.7688897,3.059548,0.06821101,0.1614391,0.04887468,-0.1894763,-0.3653804,2.900491,2.38299
83.00011,4.399993,44,104,497,498,0.2986767,0.004736889,0.3115786,-0.7692008,3.064858,0.06080796,0.162364,0.03926304,-0.2032733,-0.3664206,2.906946,2.375649
82.80011,4.411104,44,104,497,498,0.3147396,0.03980832,0.3234888,-0.7706437,3.071229,0.05269011,0.1634061,0.03396271,-0.2011044,-0.3673697,2.91181,2.369405
82.60011,4.422215,44,104,497,498,0.3297139,0.077055,0.3300768,-0.7725703,3.077053,0.04459623,0.1655223,0.03075726,-0.2010978,-0.3687493,2.916725,2.36293
82.40012,4.433327,44,104,497,498,0.3403837,0.1100426,0.3356189,-0.7745852,3.083153,0.03670529,0.1644523,0.03715929,-0.2011264,-0.3698278,2.922474,2.356275
82.20012,4.444438,44,104,497,498,0.3499928,0.1356057,0.3368147,-0.7766859,3.088617,0.02866946,0.1645436,0.05419575,-0.1969702,-0.3710124,2.928451,2.348948
82.00012,4.455549,44,104,497,498,0.3531272,0.1537761,0.3381125,-0.7794561,3.096122,0.02024109,0.1518954,0.07137316,-0.185268,-0.3710625,2.93437,2.341995
81.80013,4.46666,44,104,497,498,0.3605689,0.1900228,0.3362361,-0.7826626,3.101726,0.0122335,0.1518642,0.06814738,-0.1852848,-0.3727057,2.939671,2.335619
81.60013,4.477772,44,104,497,498,0.3646867,0.2188894,0.3194434,-0.7854131,3.106862,0.004587029,0.1614627,0.06281558,-0.1799767,-0.3736069,2.944613,2.328774
81.40013,4.488883,44,104,497,498,0.3677799,0.2264543,0.3077697,-0.7882658,3.111382,-0.002646117,0.1571479,0.05961764,-0.1842155,-0.3749097,2.950079,2.322306
81.20013,4.499994,44,104,497,498,0.3537758,0.2116705,0.2917569,-0.790096,3.114933,-0.00835913,0.1338361,0.08848035,-0.1853211,-0.3752341,2.957466,2.314603
81.00014,4.511106,44,104,497,498,0.3409344,0.1946497,0.2853072,-0.7914382,3.118725,-0.01447481,0.1286179,0.1087853,-0.1779378,-0.375258,2.964148,2.307231
80.80014,4.522217,44,104,497,498,0.3312859,0.1510333,0.2796983,-0.7922127,3.122929,-0.02085628,0.1413646,0.105506,-0.1801212,-0.3763558,2.969996,2.300076
80.60014,4.533328,44,104,497,498,0.3312514,0.1233249,0.2805279,-0.7930244,3.127163,-0.0271195,0.1530601,0.09909703,-0.1748113,-0.3769827,2.975179,2.29346
80.40015,4.544439,44,104,497,498,0.3323449,0.08493928,0.2855276,-0.793197,3.131847,-0.0341838,0.1743866,0.09372918,-0.1631634,-0.3775963,2.97967,2.286847
80.20015,4.555551,44,104,497,498,0.3323251,0.05830968,0.2863697,-0.7934574,3.136253,-0.04069683,0.1820219,0.09177198,-0.1226885,-0.3769673,2.981887,2.282536
80.00015,4.566662,44,104,497,498,0.3312244,0.01679268,0.2839049,-0.7927389,3.140703,-0.04746126,0.1758416,0.09626925,-0.08111872,-0.3759718,2.98378,2.278912
79.80016,4.577773,44,104,497,498,0.3343551,-0.02151229,0.2771716,-0.7916342,-3.138304,-0.05428481,0.1557004,0.101771,-0.06401191,-0.3753374,2.986843,2.274832
79.60016,4.588884,44,104,497,498,0.3385653,-0.04597778,0.2715657,-0.7906494,-3.134856,-0.06053685,0.1439991,0.1039461,-0.06186769,-0.3755334,2.990785,2.269871
79.40016,4.599996,44,104,497,498,0.341698,-0.05656033,0.2639935,-0.7900171,-3.130949,-0.06720753,0.1428962,0.1070886,-0.07359692,-0.3755845,2.99545,2.263972
79.20016,4.611107,44,104,497,498,0.3426968,-0.05755845,0.2608389,-0.7900965,-3.126,-0.07402576,0.1491879,0.1058899,-0.09491998,-0.3760506,3.000523,2.257417
79.00017,4.622218,44,104,497,498,0.3351902,-0.05110704,0.254563,-0.789942,-3.122131,-0.08029537,0.1438357,0.1154109,-0.109872,-0.3765944,3.006348,2.250583
78.80017,4.633329,44,104,497,498,0.3309292,-0.05108841,0.2535361,-0.7896965,-3.117977,-0.08688989,0.13742,0.1175256,-0.1205111,-0.3769587,3.01223,2.243577
78.60017,4.644441,44,104,497,498,0.3277646,-0.04046009,0.2568468,-0.7897742,-3.113847,-0.09338214,0.1331011,0.1174736,-0.1343435,-0.377649,3.018133,2.236683
78.40018,4.655552,44,104,497,498,0.32776,-0.02552681,0.2548519,-0.7901993,-3.10971,-0.1000741,0.1404887,0.1036002,-0.1343158,-0.3782845,3.022793,2.230671
78.20018,4.666663,44,104,497,498,0.3288648,0.01066494,0.2583405,-0.7916284,-3.105732,-0.1065147,0.1489986,0.09508,-0.1247253,-0.3787132,3.026341,2.225744
78.00018,4.677774,44,104,497,498,0.3299607,0.04686619,0.2628623,-0.7935634,-3.102253,-0.1123183,0.1511337,0.08977582,-0.1183166,-0.379117,3.030099,2.220485
77.80019,4.688886,44,104,497,498,0.3278576,0.07988197,0.264198,-0.7955938,-3.098759,-0.1184233,0.1447924,0.08985403,-0.1076334,-0.3792597,3.033662,2.215734
77.60019,4.699997,44,104,497,498,0.3289386,0.09585978,0.2653916,-0.7974607,-3.09477,-0.124882,0.1395386,0.09314258,-0.09804092,-0.3790983,3.038183,2.209923
77.40019,4.711108,44,104,497,498,0.324683,0.1246319,0.2645987,-0.7999268,-3.091127,-0.1309274,0.1373621,0.09205398,-0.1022885,-0.3796443,3.041987,2.205212
77.2002,4.722219,44,104,497,498,0.3139878,0.1491894,0.2584979,-0.8026049,-3.087797,-0.1364231,0.1383397,0.08770764,-0.116129,-0.3806413,3.046368,2.199677
77.0002,4.733331,44,104,497,498,0.3107591,0.1630987,0.254384,-0.8053495,-3.084334,-0.1421542,0.1277249,0.09838989,-0.1193105,-0.3807905,3.051063,2.194144
76.8002,4.744442,44,104,497,498,0.3011004,0.1589114,0.2459054,-0.8073645,-3.081226,-0.147407,0.1181598,0.1122373,-0.1278622,-0.3812395,3.057241,2.187378
76.6002,4.755553,44,104,497,498,0.2882369,0.1419734,0.2351932,-0.8089586,-3.078552,-0.1522764,0.1043283,0.1324631,-0.1481365,-0.3816683,3.065401,2.17871
76.40021,4.766665,44,104,497,498,0.281793,0.1217797,0.2297528,-0.8101357,-3.075412,-0.1574029,0.09689314,0.1367574,-0.1481248,-0.3820885,3.071443,2.172173
76.20021,4.777776,44,104,497,498,0.2700018,0.08137332,0.220971,-0.8102902,-3.072663,-0.1621247,0.09153966,0.1346188,-0.1565982,-0.3827218,3.077604,2.165318
76.00021,4.788887,44,104,497,498,0.2603253,0.05163004,0.2112035,-0.8105384,-3.069966,-0.1666697,0.09780608,0.1132611,-0.1629092,-0.3838963,3.082159,2.159811
75.80022,4.799998,44,104,497,498,0.2581519,0.03142601,0.2067929,-0.8106822,-3.066975,-0.1715342,0.1083971,0.1057247,-0.1693109,-0.3850814,3.087307,2.153534
75.60022,4.81111,44,104,497,498,0.2528205,0.001593128,0.2076555,-0.8104574,-3.06362,-0.1765175,0.1063423,0.1121821,-0.1576135,-0.3854691,3.092559,2.147605
75.40022,4.822221,44,104,497,498,0.2528566,-0.009085642,0.2107464,-0.8105981,-3.06027,-0.181634,0.1043065,0.1197169,-0.1437925,-0.3856513,3.097753,2.14169
75.20023,4.833332,44,104,497,498,0.2506901,-0.02078547,0.2085534,-0.8104271,-3.05705,-0.1865827,0.1023366,0.1283682,-0.1182558,-0.385287,3.102102,2.136498
75.00023,4.844443,44,104,497,498,0.2453831,-0.03785156,0.2105491,-0.8099701,-3.05424,-0.1912033,0.100319,0.1210838,-0.08518598,-0.3846973,3.104759,2.132975
74.80023,4.855555,44,104,497,498,0.2442651,-0.05379295,0.2061624,-0.809413,-3.051095,-0.1958766,0.09289648,0.1147992,-0.07127222,-0.3844816,3.108037,2.129048
74.60023,4.866666,44,104,497,498,0.2357568,-0.06339514,0.208284,-0.808933,-3.047597,-0.2006681,0.08972605,0.1137848,-0.06593958,-0.3844539,3.112331,2.124034
74.40024,4.877777,44,104,497,498,0.2293759,-0.06660131,0.2093676,-0.8085901,-3.044322,-0.2053526,0.0832634,0.1105547,-0.07867882,-0.3848758,3.116589,2.119328
74.20024,4.888888,44,104,497,498,0.2315513,-0.05811656,0.2147461,-0.8087738,-3.040832,-0.2103562,0.07896119,0.1020521,-0.07969955,-0.3853253,3.120413,2.114959
74.00024,4.9,44,104,497,498,0.2358253,-0.04747409,0.2158641,-0.8090652,-3.037476,-0.2153986,0.08953054,0.09024727,-0.08608602,-0.3860593,3.123403,2.110942
73.80025,4.911111,44,104,497,498,0.2358701,-0.02512591,0.2202888,-0.8100143,-3.034473,-0.2200671,0.09164842,0.08068153,-0.08177061,-0.3861541,3.126031,2.107266
73.60025,4.922222,44,104,497,498,0.2348779,-0.01454315,0.2289102,-0.8107376,-3.030717,-0.2252086,0.0863466,0.08603415,-0.08071022,-0.3863767,3.129683,2.103111
73.40025,4.933333,44,104,497,498,0.2359678,-0.001781411,0.2311218,-0.8115206,-3.02756,-0.2300321,0.08954036,0.09132535,-0.08713591,-0.3866372,3.134058,2.097942
73.20026,4.944445,44,104,497,498,0.2327825,0.004606728,0.2322688,-0.8123968,-3.024097,-0.2349015,0.09162309,0.09444041,-0.0999513,-0.3874606,3.138449,2.092886
73.00026,4.955556,44,104,497,498,0.2274834,0.0195026,0.2356163,-0.8136607,-3.020982,-0.2392951,0.09267119,0.09441376,-0.1052732,-0.3879618,-3.140652,2.087959
72.80026,4.966667,44,104,497,498,0.228553,0.03761495,0.2357734,-0.8152362,-3.017501,-0.2442486,0.09905356,0.09860794,-0.1106563,-0.3887129,-3.136337,2.082754
72.60027,4.977778,44,104,497,498,0.2274482,0.04937701,0.2305524,-0.8166834,-3.014562,-0.2487664,0.1001124,0.103909,-0.114948,-0.3892631,-3.131618,2.077375
72.40027,4.98889,44,104,497,498,0.2285125,0.05790881,0.2306143,-0.8182413,-3.011449,-0.2533763,0.08305441,0.1082069,-0.1202252,-0.3900785,-3.127054,2.07289
72.20027,5.000001,44,104,497,498,0.2295381,0.05581244,0.2263304,-0.81942,-3.008368,-0.258039,0.08300415,0.09118643,-0.1158869,-0.3908828,-3.124125,2.069153
72.00027,5.011112,44,104,497,498,0.2263163,0.05263945,0.2231228,-0.8204027,-3.005556,-0.2623821,0.09036811,0.08255929,-0.1307913,-0.3921574,-3.120171,2.064111
71.80028,5.022223,44,104,497,498,0.2220519,0.04411867,0.2230881,-0.8212885,-3.002351,-0.2669095,0.0945341,0.0813698,-0.1499883,-0.3938197,-3.11564,2.05883
71.60028,5.033335,44,104,497,498,0.215609,0.03668688,0.2198869,-0.8221061,-2.999305,-0.2709319,0.09241696,0.08883692,-0.1532118,-0.3947188,-3.110313,2.053022
71.40028,5.044446,44,104,497,498,0.2167094,0.03665155,0.224139,-0.823206,-2.996028,-0.2755967,0.09031838,0.09100124,-0.1468268,-0.3955945,-3.106171,2.048363
71.20029,5.055557,44,104,497,498,0.215619,0.03563241,0.218799,-0.8241962,-2.993438,-0.2799419,0.08828995,0.09217988,-0.1255032,-0.3957026,-3.103063,2.044543
71.00029,5.066669,44,104,497,498,0.2156056,0.03034067,0.2155434,-0.8251107,-2.990458,-0.2843734,0.08205465,0.09867425,-0.1020817,-0.3959923,-3.099477,2.040562
70.80029,5.07778,44,104,497,498,0.215591,0.02820822,0.2155449,-0.8260465,-2.987447,-0.2888076,0.07569265,0.09667583,-0.0881789,-0.3957159,-3.096659,2.037216
70.6003,5.088891,44,104,497,498,0.2144986,0.02504304,0.2123299,-0.826944,-2.984655,-0.2930809,0.06935905,0.1063237,-0.08181205,-0.3958384,-3.092371,2.032819
70.4003,5.100002,44,104,497,498,0.2134249,0.02611738,0.2112822,-0.827908,-2.981769,-0.2973744,0.07359114,0.1052108,-0.08716106,-0.3964882,-3.088341,2.028158
70.2003,5.111114,44,104,497,498,0.2166739,0.03032209,0.2187529,-0.8291864,-2.978436,-0.3019748,0.07467158,0.1062754,-0.08609144,-0.3966555,-3.084676,2.023854
70.00031,5.122225,44,104,497,498,0.2188652,0.03345712,0.2262195,-0.8304375,-2.975097,-0.306695,0.08003652,0.106288,-0.07653701,-0.3968467,-3.081436,2.019894
69.80031,5.133336,44,104,497,498,0.2199105,0.03773558,0.2240985,-0.83162,-2.972492,-0.3108223,0.08962986,0.09670766,-0.06481849,-0.3969687,-3.079289,2.016708
69.60031,5.144447,44,104,497,498,0.2220292,0.03774577,0.2230187,-0.8328019,-2.969481,-0.3153332,0.08958919,0.09030136,-0.06586052,-0.3974683,-3.076704,2.013443
69.40031,5.155559,44,104,497,498,0.2188027,0.03563894,0.2209003,-0.8339135,-2.966527,-0.3195069,0.08214308,0.09987709,-0.07544057,-0.3976206,-3.072431,2.008664
69.20032,5.16667,44,104,497,498,0.2177228,0.02606884,0.2197521,-0.8347263,-2.963684,-0.3237392,0.08102573,0.1040802,-0.08932604,-0.3984845,-3.067624,2.003462
69.00032,5.177781,44,104,497,498,0.2145362,0.02712636,0.2208525,-0.8358246,-2.960652,-0.3280636,0.08210051,0.108326,-0.09148242,-0.3989138,-3.063419,1.998638
68.80032,5.188892,44,104,497,498,0.2167035,0.03136584,0.2251316,-0.8372845,-2.957566,-0.3325633,0.0884833,0.1030057,-0.08615822,-0.3991812,-3.059954,1.994394
68.60033,5.200004,44,104,497,498,0.2188432,0.03242174,0.2261879,-0.8384963,-2.95452,-0.3370869,0.08531877,0.1051754,-0.0787091,-0.399505,-3.056577,1.990585
68.40033,5.211115,44,104,497,498,0.2273865,0.03134806,0.2271762,-0.8396974,-2.951409,-0.3421043,0.08423429,0.1009374,-0.07868412,-0.3998119,-3.052647,1.986037
68.20033,5.222226,44,104,497,498,0.2305969,0.02919723,0.2292634,-0.8408191,-2.948234,-0.3468347,0.08104925,0.107325,-0.07977968,-0.4003338,-3.048719,1.981784
68.00034,5.233337,44,104,497,498,0.2305672,0.01963718,0.225991,-0.8416324,-2.945146,-0.3514403,0.07999302,0.1190211,-0.08835997,-0.400769,-3.043036,1.975721
67.80034,5.244449,44,104,497,498,0.2283771,0.007970631,0.2195216,-0.8421586,-2.942201,-0.3558292,0.07786545,0.1349404,-0.1022806,-0.4014289,-3.037028,1.969441
67.60034,5.25556,44,104,497,498,0.2251149,0.0005742172,0.2098912,-0.8424761,-2.939562,-0.3602016,0.07577476,0.1583588,-0.1130071,-0.4014034,-3.029719,1.962095
67.40034,5.266671,44,104,497,498,0.2261063,0.00917117,0.1992958,-0.8433762,-2.937225,-0.3644808,0.07469591,0.1679365,-0.1215393,-0.4015514,-3.02297,1.955272
67.20035,5.277782,44,104,497,498,0.2303357,0.01879201,0.1950778,-0.8445528,-2.934844,-0.3687487,0.08012164,0.1807431,-0.1120383,-0.4015743,-3.016367,1.948131
67.00035,5.288894,44,104,497,498,0.2345863,0.03480373,0.1908986,-0.8459744,-2.932903,-0.3729762,0.08120553,0.181839,-0.1056534,-0.4017267,-3.010662,1.942152
66.80035,5.300005,44,104,497,498,0.2345723,0.04440852,0.1888464,-0.8474312,-2.930735,-0.3770195,0.08006899,0.1658537,-0.104518,-0.402491,-3.006545,1.937616
66.60036,5.311116,44,104,497,498,0.2388123,0.06360284,0.1846838,-0.8490285,-2.929226,-0.3808523,0.08952609,0.1423752,-0.1055123,-0.4032409,-3.002934,1.933346
66.40036,5.322227,44,104,497,498,0.2420133,0.07958151,0.184792,-0.8510643,-2.927187,-0.384986,0.09154642,0.1231617,-0.1107546,-0.4042332,-2.999679,1.929307
66.20036,5.333339,44,104,497,498,0.2377635,0.09341985,0.1849292,-0.8529386,-2.92546,-0.3886915,0.1041847,0.09752022,-0.1160181,-0.4054428,-2.997142,1.925604
66.00037,5.34445,44,104,497,498,0.2270671,0.09452865,0.1797042,-0.8545956,-2.923646,-0.3921404,0.1041888,0.09857715,-0.116018,-0.4062109,-2.993613,1.921221
65.80037,5.355561,44,104,497,498,0.2238285,0.07965073,0.1753476,-0.8557733,-2.921635,-0.3958544,0.09889841,0.09545919,-0.1063883,-0.406678,-2.990135,1.916996
65.60037,5.366673,44,104,497,498,0.2163321,0.07116731,0.1700093,-0.8568828,-2.919814,-0.3993815,0.09360681,0.09233265,-0.0956902,-0.4070801,-2.987475,1.913641
65.40038,5.377784,44,104,497,498,0.2141736,0.06799829,0.1668053,-0.858161,-2.917973,-0.402916,0.09473033,0.08708971,-0.07755929,-0.4071504,-2.985239,1.910521
65.20038,5.388895,44,104,497,498,0.2173717,0.05947768,0.1656461,-0.8592444,-2.915867,-0.4070301,0.09902609,0.08498958,-0.06797839,-0.4073412,-2.982646,1.906899
65.00038,5.400006,44,104,497,498,0.2237361,0.08081563,0.1615058,-0.8612519,-2.914631,-0.4104693,0.1001143,0.08713248,-0.06479718,-0.4075904,-2.979672,1.903058
64.80038,5.411118,44,104,497,498,0.2269641,0.08292948,0.1636234,-0.8629297,-2.912931,-0.41435,0.09587187,0.08503384,-0.06050151,-0.4078349,-2.977379,1.899916
64.60039,5.422229,44,104,497,498,0.2301598,0.08292842,0.1635967,-0.864526,-2.911245,-0.418104,0.0980151,0.08079658,-0.05197477,-0.408033,-2.975435,1.897109
64.40039,5.43334,44,104,497,498,0.2291191,0.07437806,0.1667273,-0.8657708,-2.909256,-0.4219076,0.09271828,0.07660973,-0.04233285,-0.4078764,-2.973479,1.894353
64.20039,5.444451,44,104,497,498,0.2227275,0.05200097,0.1676635,-0.8664765,-2.906975,-0.4256669,0.08955505,0.07878059,-0.03700308,-0.4078423,-2.971023,1.891209
64.0004,5.455563,44,104,497,498,0.2216912,0.02640938,0.1706319,-0.866811,-2.904839,-0.4296307,0.0875267,0.09372944,-0.03173745,-0.4076069,-2.967296,1.886698
63.8004,5.466674,44,104,497,498,0.2185229,0.006135776,0.1747546,-0.8672121,-2.902132,-0.4336905,0.08437466,0.1001574,-0.02856688,-0.4075435,-2.963813,1.882621
63.6004,5.477785,44,104,497,498,0.2216791,-0.0130099,0.1703053,-0.8673425,-2.899767,-0.4378088,0.08858933,0.09902838,-0.03816838,-0.4078674,-2.960683,1.878629
63.40039,5.488896,44,104,497,498,0.2217066,-0.02369323,0.1733963,-0.8675934,-2.897362,-0.4418871,0.08534764,0.092613,-0.04449315,-0.4080101,-2.958613,1.875739
63.20039,5.500008,44,104,497,498,0.2302531,-0.02798306,0.1764881,-0.8681276,-2.894678,-0.4464459,0.08637023,0.0883214,-0.04980356,-0.4084256,-2.956017,1.872379
63.00039,5.511119,44,104,497,498,0.2345117,-0.03333222,0.1774693,-0.8683849,-2.892087,-0.4506995,0.08632386,0.08826666,-0.06258035,-0.4090296,-2.952677,1.868185
62.80039,5.52223,44,104,497,498,0.237722,-0.03441582,0.1795678,-0.8689218,-2.889381,-0.455155,0.07884941,0.08827639,-0.06575105,-0.4096608,-2.949942,1.86506
62.60039,5.533341,44,104,497,498,0.2399078,-0.03767572,0.1859195,-0.8693421,-2.886306,-0.4599109,0.08210027,0.08938348,-0.05509866,-0.4093689,-2.947328,1.861605
62.40039,5.544453,44,104,497,498,0.2399504,-0.03878652,0.191236,-0.8698918,-2.88338,-0.464434,0.08642892,0.09898522,-0.04877436,-0.4093875,-2.943838,1.857347
62.20039,5.555564,44,104,497,498,0.2410398,-0.03455912,0.1944515,-0.8705575,-2.880668,-0.4688239,0.08648545,0.1096482,-0.04669532,-0.4094088,-2.939885,1.852765
62.00039,5.566675,44,104,497,498,0.2432037,-0.03139548,0.1965907,-0.871153,-2.877771,-0.4736352,0.08440636,0.120328,-0.04460046,-0.4093156,-2.93558,1.84802
61.80039,5.577786,44,104,497,498,0.2464223,-0.01969605,0.1987896,-0.8722843,-2.875194,-0.4781051,0.07902732,0.1213555,-0.05736512,-0.4098946,-2.931501,1.843554
61.60039,5.588898,44,104,497,498,0.2464359,-0.01437382,0.1999059,-0.8733512,-2.872449,-0.4826521,0.07582555,0.1213672,-0.05735399,-0.4101976,-2.927964,1.83962
61.40039,5.600009,44,104,497,498,0.2485885,-0.009063138,0.2020627,-0.8744543,-2.869823,-0.4871571,0.0758126,0.118171,-0.05627919,-0.4105252,-2.924661,1.835815
61.20039,5.61112,44,104,497,498,0.2453767,-0.01117033,0.1988695,-0.8752165,-2.867334,-0.4915519,0.07146139,0.1032562,-0.06364567,-0.4111218,-2.921699,1.832266
61.00039,5.622231,44,104,497,498,0.2453819,-0.00904773,0.1999556,-0.8762471,-2.864675,-0.495904,0.06497106,0.08303303,-0.06459258,-0.4118568,-2.92038,1.830589
60.80038,5.633343,44,104,497,498,0.2443275,0.001586771,0.201115,-0.8774711,-2.862223,-0.5001358,0.07346393,0.0744938,-0.06352651,-0.4122893,-2.917943,1.827231
60.60038,5.644454,44,104,497,498,0.2464876,0.007951203,0.2043451,-0.8788293,-2.859693,-0.5045529,0.08093036,0.07764976,-0.0635839,-0.4128667,-2.915305,1.823771
60.40038,5.655565,44,104,497,498,0.2422616,0.0143097,0.2076239,-0.8801193,-2.857192,-0.5087884,0.07345074,0.08827282,-0.07850652,-0.4136336,-2.911227,1.819455
60.20038,5.666677,44,104,497,498,0.2454672,0.01643041,0.2086797,-0.8814754,-2.854677,-0.5132055,0.06807941,0.08506279,-0.08379766,-0.4145295,-2.908928,1.816856
60.00038,5.677788,44,104,497,498,0.2476642,0.01316715,0.2160855,-0.8826728,-2.851853,-0.517873,0.06589355,0.07546903,-0.08587906,-0.4154819,-2.907043,1.814519
59.80038,5.688899,44,104,497,498,0.2497901,0.00995942,0.2160392,-0.8837721,-2.84919,-0.5223418,0.06482584,0.06804416,-0.07943739,-0.415908,-2.905372,1.812261
59.60038,5.70001,44,104,497,498,0.2476368,0.004651317,0.2138865,-0.8848864,-2.846498,-0.5267072,0.0648687,0.07021065,-0.07199079,-0.4162925,-2.903003,1.809364
59.40038,5.711122,44,104,497,498,0.2487079,0.002511634,0.2149195,-0.886063,-2.843895,-0.5310908,0.064917,0.06602435,-0.05705446,-0.4163607,-2.901321,1.807118
59.20038,5.722233,44,104,497,498,0.2487605,0.0003292002,0.2212936,-0.8873551,-2.840927,-0.5357332,0.07137226,0.0703028,-0.04645596,-0.4164577,-2.899157,1.8042
59.00038,5.733344,44,104,497,498,0.2423466,-0.00603412,0.2180905,-0.8882921,-2.838323,-0.53999,0.06713805,0.07353205,-0.04324931,-0.4165876,-2.896821,1.801441
58.80038,5.744455,44,104,497,498,0.244486,-0.01030617,0.2191003,-0.8893232,-2.83548,-0.5445728,0.06606996,0.07883723,-0.04859173,-0.4169743,-2.894044,1.798235
58.60038,5.755567,44,104,497,498,0.246608,-0.01989398,0.2190061,-0.8902,-2.83247,-0.5492061,0.05960247,0.07136238,-0.05811457,-0.4176934,-2.892154,1.796044
58.40038,5.766678,44,104,497,498,0.2508754,-0.01778091,0.2200503,-0.8912998,-2.82967,-0.5538155,0.05525486,0.06492846,-0.06978078,-0.4185989,-2.890433,1.794044
58.20037,5.777789,44,104,497,498,0.2593637,-0.01348843,0.2157525,-0.8924636,-2.827155,-0.5584921,0.04344699,0.05428132,-0.07926445,-0.4196492,-2.889057,1.792622
58.00037,5.7889,44,104,497,498,0.2700014,-0.004936162,0.210386,-0.8935859,-2.825103,-0.5634359,0.02739445,0.03626668,-0.07591091,-0.420356,-2.888394,1.792224
57.80037,5.800012,44,104,497,498,0.2742286,-0.0006421208,0.2061239,-0.8948519,-2.822822,-0.5680331,0.006158048,0.03112693,-0.05555593,-0.4204971,-2.887915,1.792231
57.60037,5.811123,44,104,497,498,0.2763416,0.002564931,0.2039934,-0.896028,-2.820542,-0.5725642,-0.0001860857,0.03227641,-0.04593126,-0.4204498,-2.886523,1.791077
57.40037,5.822234,44,104,497,498,0.2752441,-0.004852468,0.199683,-0.8970422,-2.818106,-0.5772204,-0.01291065,0.04299859,-0.04273019,-0.4206798,-2.884587,1.789806
57.20037,5.833345,44,104,497,498,0.2762878,-0.01335764,0.1974744,-0.8979034,-2.815566,-0.5819209,-0.01611439,0.05466956,-0.05555702,-0.4214799,-2.881834,1.787557
57.00037,5.844457,44,104,497,498,0.2720395,-0.02294437,0.1974307,-0.8987167,-2.812872,-0.5867551,-0.01615884,0.04507472,-0.05657745,-0.4221201,-2.880994,1.78693
56.80037,5.855568,44,104,497,498,0.2698938,-0.03678332,0.1962711,-0.8992861,-2.810049,-0.5914769,-0.01298351,0.04080383,-0.05657155,-0.4225915,-2.879808,1.785896
56.60037,5.866679,44,104,497,498,0.2698866,-0.06023292,0.1971744,-0.8996755,-2.806426,-0.5966828,-0.01617073,0.03975318,-0.05443378,-0.4232514,-2.878736,1.785148
56.40037,5.87779,44,104,497,498,0.2709432,-0.07940803,0.1970098,-0.899782,-2.803143,-0.6017764,-0.01820634,0.04834606,-0.04168197,-0.4232125,-2.876828,1.783662
56.20037,5.888902,44,104,497,498,0.2762301,-0.103871,0.1925091,-0.8995908,-2.799746,-0.6072204,-0.01484215,0.06228333,-0.01831864,-0.422519,-2.874849,1.781902
56.00037,5.900013,44,104,497,498,0.2730112,-0.1155704,0.1903104,-0.8994507,-2.796417,-0.6122389,-0.01047173,0.07086338,-0.002399651,-0.4219054,-2.872611,1.779853
55.80037,5.911124,44,104,497,498,0.267619,-0.1357564,0.1838043,-0.8989229,-2.79292,-0.6171743,-0.002871871,0.08157916,0.01882491,-0.420886,-2.87042,1.777667
55.60036,5.922235,44,104,497,498,0.266558,-0.1464173,0.1847921,-0.8985506,-2.789315,-0.6223381,0.008770898,0.0719071,0.01242299,-0.4208689,-2.86916,1.776168
55.40036,5.933347,44,104,497,498,0.2740267,-0.1400544,0.186917,-0.8987151,-2.785933,-0.6276165,0.01817482,0.05152621,-0.009891453,-0.4215731,-2.868533,1.775051
55.20036,5.944458,44,104,497,498,0.2708296,-0.1368676,0.1880459,-0.8988222,-2.782513,-0.6325008,0.02637056,0.02146312,-0.05345281,-0.4233041,-2.868774,1.774764
55.00036,5.955569,44,104,497,498,0.2740903,-0.1316031,0.1955189,-0.8991774,-2.779071,-0.6377813,0.03365599,0.01170518,-0.08220258,-0.4250394,-2.868317,1.773753
54.80036,5.966681,44,104,497,498,0.2741516,-0.1306028,0.2040571,-0.8996131,-2.775346,-0.6430027,0.03683334,0.01063718,-0.08327346,-0.425734,-2.867068,1.772251
54.60036,5.977792,44,104,497,498,0.2806339,-0.1243059,0.2157877,-0.9003572,-2.771476,-0.6485569,0.03479794,0.01710942,-0.06838074,-0.4260312,-2.865993,1.77094
54.40036,5.988903,44,104,497,498,0.2850267,-0.115897,0.2307374,-0.9014044,-2.767714,-0.6542039,0.04239682,0.007686079,-0.02789041,-0.4253473,-2.866618,1.770831
54.20036,6.000014,44,104,497,498,0.2904558,-0.1031897,0.2425348,-0.9028776,-2.763922,-0.6598322,0.04892197,0.01416145,-0.004513651,-0.4246975,-2.866127,1.769668
54.00036,6.011126,44,104,497,498,0.2883739,-0.09047407,0.2501294,-0.9041997,-2.76021,-0.66506,0.05428574,0.02058065,0.003974512,-0.4240908,-2.865002,1.768327
53.80036,6.022237,44,104,497,498,0.2969712,-0.06711518,0.2598714,-0.906344,-2.756562,-0.670675,0.05428815,0.0354165,-0.01101207,-0.424526,-2.863144,1.765991
53.60036,6.033348,44,104,497,498,0.3002465,-0.04907592,0.2685128,-0.9082934,-2.753309,-0.6760983,0.0541676,0.03953071,-0.04192537,-0.4256546,-2.861254,1.76365
53.40036,6.044459,44,104,497,498,0.3035923,-0.03095978,0.2792354,-0.9105508,-2.750065,-0.6816893,0.04875394,0.04264294,-0.06322277,-0.4267625,-2.859697,1.761901
53.20036,6.055571,44,104,497,498,0.3047189,-0.02260803,0.2899736,-0.9125556,-2.746915,-0.6871472,0.04658936,0.04579743,-0.07388124,-0.427733,-2.85782,1.759756
53.00035,6.066682,44,104,497,498,0.2994104,-0.02581611,0.293211,-0.9146275,-2.743178,-0.6925359,0.05509047,0.04363399,-0.07496935,-0.4283471,-2.856129,1.7575
52.80035,6.077793,44,104,497,498,0.2993999,-0.0290033,0.29212,-0.9163762,-2.739738,-0.6979804,0.06043138,0.04256564,-0.07072701,-0.4289431,-2.854754,1.755445
52.60035,6.088904,44,104,497,498,0.2972685,-0.03325382,0.2921057,-0.9181839,-2.736265,-0.703344,0.06049531,0.05747833,-0.07079095,-0.4294464,-2.852081,1.752366
52.40035,6.100016,44,104,497,498,0.291897,-0.03107934,0.2879172,-0.9201189,-2.732997,-0.7082975,0.05841623,0.06708528,-0.06869666,-0.42997,-2.849436,1.749362
52.20035,6.111127,44,104,497,498,0.2823002,-0.02784021,0.2848347,-0.9221802,-2.729859,-0.7133352,0.05530872,0.08627547,-0.06557605,-0.4303679,-2.846233,1.746074
52.00035,6.122238,44,104,497,498,0.2791131,-0.02890991,0.2859204,-0.9240578,-2.726547,-0.7183611,0.0478448,0.08948383,-0.06875882,-0.4311104,-2.843504,1.743378
51.80035,6.133349,44,104,497,498,0.2737659,-0.02567917,0.2838713,-0.9261824,-2.723483,-0.7230467,0.03926636,0.07779643,-0.06973142,-0.4318358,-2.841924,1.741815
51.60035,6.144461,44,104,497,498,0.2694393,-0.02132881,0.2754286,-0.9282336,-2.720752,-0.7276092,0.04452654,0.06391312,-0.07181855,-0.4325938,-2.840789,1.740074
51.40035,6.155572,44,104,497,498,0.2587502,-0.02342112,0.2712394,-0.9299455,-2.717751,-0.7320178,0.04668965,0.07136069,-0.07186376,-0.4332297,-2.838121,1.737072
51.20035,6.166683,44,104,497,498,0.2491434,-0.02764092,0.2680913,-0.9317181,-2.714743,-0.7364466,0.04252823,0.09693497,-0.07409149,-0.4337629,-2.833606,1.732641
51.00035,6.177794,44,104,497,498,0.2416478,-0.03506075,0.2638327,-0.933186,-2.711649,-0.7407662,0.0361487,0.09379324,-0.06765986,-0.4342481,-2.831292,1.730348
50.80035,6.188906,44,104,497,498,0.2330845,-0.0403192,0.2585496,-0.9349496,-2.708628,-0.745038,0.03399971,0.08106399,-0.06011595,-0.4343999,-2.829566,1.72838
50.60035,6.200017,44,104,497,498,0.2288159,-0.03711335,0.2575455,-0.936621,-2.705741,-0.7491834,0.03822596,0.07146277,-0.05796213,-0.4349757,-2.828208,1.726647
50.40034,6.211128,44,104,497,498,0.2223756,-0.02320752,0.2513126,-0.9385192,-2.703618,-0.752694,0.04990369,0.06183157,-0.05690474,-0.4355131,-2.826863,1.72458
50.20034,6.222239,44,104,497,498,0.2127745,-0.002945717,0.2494287,-0.9407579,-2.70154,-0.755942,0.05513448,0.06172188,-0.07504813,-0.436833,-2.824737,1.722131
50.00034,6.233351,44,104,497,498,0.2042249,0.005613875,0.2453076,-0.9427979,-2.699452,-0.7593051,0.04654413,0.06804958,-0.09634592,-0.4383041,-2.821944,1.719297
49.80034,6.244462,44,104,497,498,0.1978505,0.01094466,0.2453931,-0.9448155,-2.697317,-0.7627954,0.04758538,0.06801958,-0.1016771,-0.4394541,-2.819757,1.716753
49.60034,6.255573,44,104,497,498,0.1957191,0.008814912,0.2453938,-0.9467314,-2.694933,-0.7663075,0.05191113,0.06807099,-0.08891448,-0.4399212,-2.817567,1.713966
49.40034,6.266685,44,104,497,498,0.1925066,-0.008199763,0.2442184,-0.9483474,-2.692247,-0.769915,0.04985894,0.06922344,-0.07080192,-0.4401513,-2.815795,1.711972
49.20034,6.277796,44,104,497,498,0.1871312,-0.01987722,0.2399147,-0.9498526,-2.689563,-0.773293,0.05207,0.07141718,-0.05484419,-0.4402727,-2.813881,1.709613
49.00034,6.288907,44,104,497,498,0.182837,-0.03474835,0.23557,-0.9511421,-2.68674,-0.7770007,0.05212823,0.07359861,-0.0431286,-0.4402727,-2.812027,1.707413
48.80034,6.300018,44,104,497,498,0.1785284,-0.04749595,0.2312444,-0.9522836,-2.683903,-0.7804404,0.05742615,0.0661254,-0.04098963,-0.4406578,-2.810725,1.705544
48.60034,6.31113,44,104,497,498,0.1763795,-0.05810128,0.2279841,-0.9536189,-2.681183,-0.784082,0.05957128,0.07036436,-0.04527793,-0.4411047,-2.808273,1.702389
48.40034,6.322241,44,104,497,498,0.1752901,-0.0666035,0.2257979,-0.9547507,-2.678235,-0.7876693,0.05954606,0.07245734,-0.05274698,-0.4418173,-2.806039,1.699741
48.20034,6.333352,44,104,497,498,0.1699937,-0.07083762,0.2268438,-0.9559577,-2.675901,-0.7909759,0.06698851,0.07136121,-0.0538343,-0.4421918,-2.803935,1.69692
48.00034,6.344463,44,104,497,498,0.1721238,-0.07723331,0.227848,-0.9571838,-2.672754,-0.7946532,0.06594822,0.07138045,-0.04954913,-0.4422861,-2.802211,1.694608
47.80033,6.355575,44,104,497,498,0.1721556,-0.08257113,0.2288548,-0.9581079,-2.669755,-0.7986085,0.06811758,0.06823079,-0.03782545,-0.4423159,-2.800576,1.692324
47.60033,6.366686,44,104,497,498,0.1742858,-0.08253533,0.2298725,-0.95944,-2.667586,-0.8016291,0.06386876,0.06507561,-0.03139117,-0.4423228,-2.799348,1.690663
47.40033,6.377797,44,104,497,498,0.1806814,-0.08148168,0.2308941,-0.9606975,-2.664586,-0.8054576,0.06606848,0.07255992,-0.02291802,-0.4423015,-2.79709,1.687861
47.20033,6.388908,44,104,497,498,0.1817548,-0.07608491,0.2287666,-0.962223,-2.662794,-0.8086971,0.0649676,0.0757185,-0.03038055,-0.4426605,-2.795077,1.685584
47.00033,6.40002,44,104,497,498,0.1807193,-0.07077344,0.2298753,-0.963513,-2.660033,-0.8124633,0.06278951,0.07249669,-0.03781272,-0.4432017,-2.793244,1.683302
46.80033,6.411131,44,104,497,498,0.1828645,-0.05480354,0.2310491,-0.9652739,-2.657637,-0.8159041,0.06489457,0.06925891,-0.04313127,-0.4437306,-2.7918,1.681049
46.60033,6.422242,44,104,497,498,0.181835,-0.0495135,0.2353743,-0.9670369,-2.654773,-0.8195159,0.06703733,0.0713809,-0.0420923,-0.4441758,-2.789856,1.678543
46.40033,6.433353,44,104,497,498,0.1807937,-0.03248582,0.2376487,-0.969063,-2.65264,-0.8227005,0.05743911,0.07989466,-0.05274267,-0.4449162,-2.787084,1.675654
46.20033,6.444465,44,104,497,498,0.1807946,-0.01863293,0.2377679,-0.9712005,-2.650494,-0.8258825,0.06065192,0.08519313,-0.05278822,-0.4454733,-2.784871,1.672979
46.00033,6.455576,44,104,497,498,0.1818536,-0.0111679,0.2367526,-0.9731798,-2.648444,-0.8290948,0.05636655,0.08730693,-0.06023621,-0.4462499,-2.782277,1.670105
45.80033,6.466687,44,104,497,498,0.1829217,-0.009041972,0.2367459,-0.9749076,-2.646354,-0.8323162,0.05959351,0.08201697,-0.0495716,-0.446431,-2.780491,1.667659
45.60033,6.477798,44,104,497,498,0.1807866,-0.006909762,0.2357189,-0.9767852,-2.644061,-0.8356104,0.06172233,0.0809454,-0.04745093,-0.446928,-2.778604,1.665319
45.40033,6.48891,44,104,497,498,0.1818425,-0.007966895,0.2346363,-0.9786419,-2.641889,-0.8388515,0.06168652,0.07772665,-0.05169738,-0.4475565,-2.776817,1.6631
45.20033,6.500021,44,104,497,498,0.1871678,-0.01223743,0.2356275,-0.9804912,-2.63947,-0.8423051,0.06483719,0.07236286,-0.0559504,-0.4482782,-2.775207,1.660893
45.00032,6.511132,44,104,497,498,0.1978106,-0.01649643,0.2344459,-0.9822654,-2.637001,-0.8461992,0.06053389,0.07657766,-0.06873374,-0.4492689,-2.772921,1.658319
44.80032,6.522243,44,104,497,498,0.205179,-0.007911198,0.2248679,-0.9840007,-2.635207,-0.8494744,0.05617943,0.07544075,-0.08682466,-0.4506734,-2.77095,1.656155
44.60032,6.533355,44,104,497,498,0.2030216,-0.007885234,0.2216901,-0.9857382,-2.633255,-0.8527479,0.05191127,0.09135743,-0.1039263,-0.4521216,-2.767339,1.65246
44.40032,6.544466,44,104,497,498,0.2008804,-0.002547564,0.2206988,-0.9877899,-2.631283,-0.8559416,0.04985614,0.1031093,-0.09545816,-0.4529099,-2.764451,1.649546
44.20032,6.555577,44,104,497,498,0.1933873,-0.00357696,0.2164923,-0.9894608,-2.629449,-0.8589046,0.05096927,0.1042157,-0.08588058,-0.453523,-2.761623,1.646397
44.00032,6.566689,44,104,497,498,0.1923243,-0.008919852,0.2164594,-0.9909868,-2.627119,-0.8623667,0.04891213,0.1043057,-0.06777249,-0.4538884,-2.759157,1.64382
43.80032,6.5778,44,104,497,498,0.1880911,-0.006811442,0.2197095,-0.992934,-2.625129,-0.8654496,0.05534964,0.09690212,-0.04965956,-0.4540083,-2.757309,1.641414
43.60032,6.588911,44,104,497,498,0.191341,-0.0004503056,0.2250489,-0.9950108,-2.623443,-0.8686507,0.07025374,0.091517,-0.04650532,-0.4544098,-2.755495,1.638652
43.40032,6.600022,44,104,497,498,0.1923619,0.002797388,0.218663,-0.9967104,-2.621967,-0.8716883,0.06805752,0.08827685,-0.05713641,-0.4553324,-2.753424,1.636163
43.20032,6.611134,44,104,497,498,0.1923566,0.01345844,0.2176819,-0.998825,-2.620564,-0.87458,0.06687053,0.07648519,-0.07199071,-0.4565372,-2.752147,1.634409
43.00032,6.622245,44,104,497,498,0.1891053,0.02522906,0.2114137,-1.000953,-2.619419,-0.8771297,0.06248292,0.06470717,-0.08682726,-0.4578001,-2.751159,1.633074
42.80032,6.633356,44,104,497,498,0.1891265,0.001762647,0.2133494,-1.002173,-2.616948,-0.8807095,0.05817472,0.05831381,-0.09103848,-0.4588808,-2.749945,1.631478
42.60032,6.644467,44,104,497,498,0.1955028,-0.004634278,0.2121747,-1.003676,-2.614889,-0.8841253,0.06671399,0.05087356,-0.07612959,-0.4592802,-2.749557,1.630384
42.40031,6.655579,44,104,497,498,0.2062142,-0.01641418,0.2194488,-1.0054,-2.612452,-0.8880364,0.066743,0.04984403,-0.06866753,-0.4598198,-2.748293,1.628489
42.20031,6.66669,44,104,497,498,0.2126312,-0.02497126,0.2225219,-1.007022,-2.610071,-0.891826,0.06361291,0.05735361,-0.06016873,-0.4602832,-2.746368,1.626248
42.00031,6.677801,44,104,497,498,0.2158682,-0.03566696,0.2277368,-1.008669,-2.607428,-0.8957297,0.05935182,0.05737224,-0.06014958,-0.4609293,-2.744828,1.624327
41.80031,6.688912,44,104,497,498,0.2233538,-0.05273789,0.2307309,-1.010026,-2.604535,-0.9000414,0.05512793,0.05742812,-0.05053898,-0.4611647,-2.743659,1.622875
41.60031,6.700024,44,104,497,498,0.2222969,-0.05593985,0.2317837,-1.011657,-2.601938,-0.9038454,0.06261873,0.05637377,-0.04098256,-0.4613639,-2.74237,1.620871
41.40031,6.711135,44,104,497,498,0.2255636,-0.07732423,0.2401107,-1.012995,-2.598438,-0.9083883,0.06264279,0.05534091,-0.03458579,-0.4615498,-2.741022,1.618956
41.20031,6.722246,44,104,497,498,0.2405913,-0.1051482,0.2546785,-1.014315,-2.59432,-0.9135958,0.06583387,0.04684127,-0.02710252,-0.4616366,-2.740396,1.617611
41.00031,6.733357,44,104,497,498,0.2534449,-0.1094805,0.2630586,-1.015978,-2.590854,-0.9185514,0.07327341,0.03087495,-0.01639989,-0.4614875,-2.740902,1.617037
40.80031,6.744469,44,104,497,498,0.262039,-0.1042119,0.2704789,-1.017905,-2.587816,-0.9233243,0.07217255,0.01918603,-0.009942098,-0.4614044,-2.74123,1.61677
40.60031,6.75558,44,104,497,498,0.2802764,-0.09900872,0.2852811,-1.020187,-2.584372,-0.9287764,0.06148904,0.002234139,-0.000224676,-0.4611556,-2.742252,1.617305
40.40031,6.766691,44,104,497,498,0.2996858,-0.09068842,0.3107463,-1.022948,-2.580815,-0.9345853,0.06152265,-0.01364841,0.02222731,-0.4602795,-2.743953,1.618122
40.20031,6.777802,44,104,497,498,0.3211478,-0.08018467,0.328759,-1.02596,-2.577383,-0.9405598,0.04660695,-0.06129921,0.06939259,-0.4584429,-2.748756,1.622381
40.00031,6.788914,44,104,497,498,0.35356,-0.03904849,0.3799263,-1.030653,-2.574334,-0.9469343,0.03925641,-0.06963798,0.1014319,-0.4564679,-2.751312,1.624439
39.8003,6.800025,44,104,497,498,0.3740626,-0.006269492,0.4109123,-1.035348,-2.571436,-0.952846,0.04365379,0.04393658,0.02096236,-0.458289,-2.742912,1.616318
39.6003,6.811136,44,104,497,498,0.3795548,0.004230507,0.4301252,-1.039851,-2.568199,-0.9588408,0.05527342,0.04908196,-0.004678976,-0.4591481,-2.741257,1.613971
39.4003,6.822248,44,104,497,498,0.383965,0.004109949,0.4460572,-1.044154,-2.564794,-0.9650412,0.07431951,-0.01476145,0.02856404,-0.4579012,-2.746338,1.617184
39.2003,6.833359,44,104,497,498,0.3755133,-0.001281302,0.4546093,-1.048416,-2.561193,-0.9707829,0.08706972,-0.04772856,0.05209409,-0.4567215,-2.750105,1.619151
39.0003,6.84447,44,104,497,498,0.372373,0.005057216,0.4610707,-1.052807,-2.558046,-0.9763889,0.09560186,-0.0371466,0.04560893,-0.4565377,-2.750113,1.618039
38.8003,6.855581,44,104,497,498,0.3798746,0.003947921,0.4663252,-1.057282,-2.554645,-0.9825125,0.08698353,-0.008583054,-0.003494544,-0.4578576,-2.74832,1.615688
38.6003,6.866693,44,104,497,498,0.3915561,0.02102182,0.4599504,-1.061462,-2.552105,-0.9885516,0.09758493,0.01358396,-0.03666752,-0.4589899,-2.746574,1.612777
38.4003,6.877804,44,104,497,498,0.4043515,0.04764424,0.4611236,-1.066496,-2.550044,-0.9942672,0.09234076,0.06035528,-0.06244012,-0.4601985,-2.74237,1.608173
38.2003,6.888915,44,104,497,498,0.4106915,0.0540907,0.45365,-1.070837,-2.54784,-1.000128,0.07962128,0.0869841,-0.0742228,-0.4611247,-2.738652,1.60431
38.0003,6.900026,44,104,497,498,0.4138195,0.04243447,0.4460753,-1.074997,-2.54507,-1.006115,0.06054069,0.1126205,-0.07639729,-0.4620654,-2.734416,1.600483
37.8003,6.911138,44,104,497,498,0.4039989,0.04798182,0.4185028,-1.078695,-2.543409,-1.011105,0.05310272,0.1200987,-0.07959238,-0.4628968,-2.730862,1.596885
37.6003,6.922249,44,104,497,498,0.3975745,0.01711656,0.4140368,-1.08196,-2.54002,-1.017064,0.05322045,0.1265918,-0.05832168,-0.4629341,-2.727465,1.593349
37.4003,6.93336,44,104,497,498,0.3965493,-0.00315818,0.4181398,-1.085664,-2.536702,-1.02309,0.05644304,0.1191747,-0.04657495,-0.462981,-2.725152,1.590454
37.20029,6.944471,44,104,497,498,0.4040647,-0.01813261,0.4254152,-1.089551,-2.533235,-1.029401,0.05641758,0.1265706,-0.05726682,-0.4639743,-2.72181,1.586989
37.00029,6.955583,44,104,497,498,0.4104758,-0.0373195,0.4273327,-1.093211,-2.529641,-1.035894,0.06269553,0.117938,-0.07429841,-0.465251,-2.719366,1.583946
36.80029,6.966694,44,104,497,498,0.3997066,-0.03506808,0.4136028,-1.096835,-2.527013,-1.041238,0.06791924,0.1093201,-0.08812137,-0.4664585,-2.717354,1.581334
36.60029,6.977805,44,104,497,498,0.3857208,-0.03919983,0.3977087,-1.100024,-2.524255,-1.046403,0.0794725,0.09106644,-0.1072606,-0.4681875,-2.716237,1.579092
36.40029,6.988916,44,104,497,498,0.3760838,-0.04659765,0.3913304,-1.10329,-2.521385,-1.051669,0.08359876,0.06971508,-0.1124965,-0.4694748,-2.715853,1.578064
36.20029,7.000028,44,104,497,498,0.3578159,-0.05923345,0.3732752,-1.10596,-2.518373,-1.056505,0.09632972,0.03779653,-0.09216083,-0.4699638,-2.716879,1.577629
36.00029,7.011139,44,104,497,498,0.3513062,-0.05913518,0.3594789,-1.108734,-2.51567,-1.061444,0.09847267,0.02615085,-0.07719243,-0.4702882,-2.716658,1.576345
35.80029,7.02225,44,104,497,498,0.3512102,-0.05478349,0.3477876,-1.111514,-2.513227,-1.066471,0.1006484,0.01665096,-0.05691777,-0.4703723,-2.716813,1.575398
35.60029,7.033361,44,104,497,498,0.3489683,-0.03443383,0.3341171,-1.114533,-2.511552,-1.071042,0.09969239,0.0241982,-0.03988401,-0.4700543,-2.715617,1.573236
35.40029,7.044473,44,104,497,498,0.3403766,-0.01943919,0.3225785,-1.117386,-2.509887,-1.075614,0.1029018,0.0305656,-0.04312373,-0.4706578,-2.714342,1.570874
35.20029,7.055584,44,104,497,498,0.3146611,0.02439437,0.3039669,-1.120565,-2.509753,-1.078503,0.1039987,0.04119831,-0.0463759,-0.4712602,-2.712687,1.568192
35.00029,7.066695,44,104,497,498,0.3007269,0.04578437,0.293596,-1.123628,-2.509057,-1.08179,0.1094172,0.06035562,-0.04542699,-0.4717854,-2.710176,1.564525
34.80029,7.077806,44,104,497,498,0.2793313,0.07570952,0.2822952,-1.126895,-2.509171,-1.084279,0.1030868,0.06257701,-0.0326278,-0.4718599,-2.708503,1.562115
34.60028,7.088918,44,104,497,498,0.2685895,0.09071635,0.2707843,-1.129906,-2.509001,-1.087186,0.1042133,0.05735007,-0.01129799,-0.4713784,-2.707449,1.560153
34.40028,7.100029,44,104,497,498,0.257841,0.1035945,0.2592584,-1.132883,-2.509167,-1.08967,0.1020922,0.04146447,0.006893825,-0.470881,-2.707425,1.559091
34.20028,7.11114,44,104,497,498,0.240702,0.1175342,0.2477896,-1.135725,-2.50938,-1.091844,0.1096291,0.03939843,0.02603768,-0.4702487,-2.706397,1.556732
34.00028,7.122252,44,104,497,498,0.2332065,0.1207804,0.2425445,-1.138664,-2.509542,-1.094291,0.1126916,0.01591486,0.01868669,-0.4701774,-2.707174,1.556091
33.80028,7.133363,44,104,497,498,0.2267494,0.1155144,0.2351007,-1.141331,-2.509445,-1.096694,0.1189041,0.001910225,-0.007906696,-0.4708884,-2.707983,1.555352
33.60028,7.144474,44,104,497,498,0.2224352,0.1027827,0.2286496,-1.143892,-2.50897,-1.099364,0.118833,0.003947124,-0.02602479,-0.4715899,-2.707783,1.553863
33.40028,7.155585,44,104,497,498,0.2031323,0.07306914,0.2147314,-1.145744,-2.507985,-1.10157,0.1176175,-0.01105466,-0.04512271,-0.4726344,-2.708898,1.553577
33.20028,7.166697,44,104,497,498,0.1956895,0.06345094,0.2179169,-1.148153,-2.507156,-1.103771,0.1050616,0.02742162,-0.03033912,-0.4724964,-2.706285,1.550429
33.00028,7.177808,44,104,497,498,0.1871412,0.06667418,0.2148192,-1.150561,-2.506812,-1.105759,0.09645066,0.09628404,-0.1169245,-0.4758797,-2.700216,1.544201
32.80028,7.188919,44,104,497,498,0.187103,0.06775505,0.2116348,-1.152915,-2.506337,-1.107948,0.084518,0.06001037,-0.1358659,-0.4778968,-2.701514,1.544308
32.60028,7.20003,44,104,497,498,0.1891858,0.06140484,0.2062402,-1.155074,-2.50579,-1.110351,0.09309921,-0.009945527,-0.05460361,-0.4761913,-2.706022,1.547078
32.40028,7.211142,44,104,497,498,0.179489,0.04338427,0.1944692,-1.156753,-2.504731,-1.112535,0.09017809,-0.008583874,0.006115964,-0.47448,-2.706234,1.546302
32.20028,7.222253,44,104,497,498,0.1699121,0.03272256,0.1965992,-1.158882,-2.503831,-1.11449,0.08284003,0.005366296,0.01993035,-0.4740219,-2.705028,1.544569
32.00027,7.233364,44,104,497,498,0.1560005,0.03385011,0.1892693,-1.160774,-2.503323,-1.116089,0.07428762,0.0265663,-0.008901305,-0.4750973,-2.703178,1.542281
31.80027,7.244475,44,104,497,498,0.1517582,0.037027,0.1914508,-1.162819,-2.502768,-1.117908,0.07314886,0.03073794,-0.02810899,-0.4761444,-2.702435,1.54087
31.60027,7.255587,44,104,497,498,0.1484907,0.04029066,0.1829815,-1.164686,-2.502446,-1.119582,0.06989083,0.03068474,-0.04194326,-0.4770243,-2.701687,1.539526
31.40027,7.266698,44,104,497,498,0.1463321,0.04031941,0.1787454,-1.166643,-2.501859,-1.121552,0.06883584,0.02645926,-0.03552612,-0.4772518,-2.701317,1.538457
31.20027,7.277809,44,104,497,498,0.1452112,0.03717407,0.172338,-1.168352,-2.501353,-1.123341,0.06997237,0.02228694,-0.0152708,-0.4767612,-2.701234,1.537594
31.00027,7.28892,44,104,497,498,0.1356034,0.04359847,0.1692748,-1.170295,-2.501208,-1.124706,0.06464323,0.01593749,-0.009897849,-0.4768683,-2.701408,1.537207
30.80027,7.300032,44,104,497,498,0.1398218,0.0521613,0.1639792,-1.172168,-2.501214,-1.12637,0.05392609,0.01061346,-0.01834599,-0.477296,-2.70155,1.537048
30.60027,7.311143,44,104,497,498,0.1440202,0.05968225,0.1576104,-1.174068,-2.501487,-1.127818,0.05168461,0.01580422,-0.04819011,-0.4786425,-2.700972,1.53602
30.40027,7.322254,44,104,497,498,0.1375866,0.05546283,0.1533656,-1.175704,-2.501302,-1.129139,0.05266349,0.01994789,-0.06952208,-0.4799219,-2.700621,1.535189
30.20027,7.333365,44,104,497,498,0.1300629,0.04593585,0.1458976,-1.177086,-2.500886,-1.130559,0.05478022,0.01674278,-0.06951602,-0.4807144,-2.70043,1.534356
30.00027,7.344477,44,104,497,498,0.1279249,0.03954872,0.1448001,-1.17864,-2.500382,-1.132177,0.05163189,0.01892867,-0.06098993,-0.4811831,-2.699903,1.533398
29.80027,7.355588,44,104,497,498,0.127942,0.03633621,0.1469055,-1.180304,-2.499922,-1.133761,0.0538189,0.02216505,-0.04930408,-0.4814628,-2.699444,1.532496
29.60027,7.366699,44,104,497,498,0.1311327,0.02994082,0.1468237,-1.18179,-2.499327,-1.135504,0.05698521,0.00833486,-0.04286515,-0.4818921,-2.700032,1.532288
29.40026,7.37781,44,104,497,498,0.134241,0.01297081,0.1370759,-1.182825,-2.49846,-1.137423,0.05271398,0.01152327,-0.04818807,-0.4825723,-2.699635,1.531464
29.20026,7.388922,44,104,497,498,0.1310438,-0.0008936059,0.1380708,-1.184128,-2.49717,-1.139206,0.04724395,-0.0087495,-0.05872137,-0.4835667,-2.701247,1.532657
29.00026,7.400033,44,104,497,498,0.1179341,0.001540428,0.09984846,-1.184192,-2.497432,-1.140059,0.04949509,0.01469804,-0.0545845,-0.4840732,-2.69955,1.530525
28.80026,7.411144,44,104,497,498,0.1383485,-0.05937684,0.122639,-1.185087,-2.494228,-1.143196,0.03255161,0.06895578,-0.08460175,-0.4857345,-2.695124,1.526701
28.60026,7.422256,44,104,497,498,0.1512551,-0.09997471,0.1371233,-1.185963,-2.491404,-1.146401,0.0312454,0.07822189,-0.1496111,-0.4890208,-2.693395,1.524695
28.40026,7.433367,44,104,497,498,0.1650869,-0.1511109,0.136605,-1.186129,-2.487731,-1.149989,0.03750947,-0.0205489,-0.08204198,-0.488272,-2.699261,1.529397
28.20026,7.444478,44,104,497,498,0.171474,-0.176685,0.1374267,-1.186635,-2.484553,-1.153115,0.05047531,-0.034185,-0.02770548,-0.4870293,-2.70061,1.529691
28.00026,7.455589,44,104,497,498,0.1757178,-0.202244,0.1361251,-1.186787,-2.480988,-1.156513,0.0401385,-0.005168319,0.01481219,-0.4856945,-2.698986,1.528078
27.80026,7.466701,44,104,497,498,0.1799825,-0.2043926,0.1371345,-1.187238,-2.478034,-1.159652,0.03379682,0.0108193,0.01155912,-0.4860184,-2.697763,1.526916
27.60026,7.477812,44,104,497,498,0.1789271,-0.2022701,0.1382255,-1.187792,-2.475191,-1.162678,0.03375674,0.0213785,-0.007667975,-0.4866416,-2.696681,1.525589
27.40026,7.488923,44,104,497,498,0.191731,-0.1863263,0.1414431,-1.188678,-2.472724,-1.16586,0.03054553,0.03196967,-0.02369395,-0.4875151,-2.695496,1.524119
27.20026,7.500034,44,104,497,498,0.1981414,-0.1842141,0.1435357,-1.189412,-2.470054,-1.169239,0.02416102,0.03305772,-0.02261637,-0.4878394,-2.695045,1.523638
27.00026,7.511146,44,104,497,498,0.2023476,-0.1831128,0.1381879,-1.189868,-2.467319,-1.172483,0.02089763,0.006492011,-0.01181826,-0.4876828,-2.696372,1.52465
26.80025,7.522257,44,104,497,498,0.2076626,-0.1724497,0.1361018,-1.190629,-2.464958,-1.175828,0.03168954,0.02568846,0.002947854,-0.4873585,-2.694656,1.522637
26.60025,7.533368,44,104,497,498,0.2151243,-0.157538,0.136155,-1.191513,-2.462964,-1.179156,0.02527513,0.01826986,0.00514377,-0.4871849,-2.694605,1.522453
26.40025,7.544479,44,104,497,498,0.2180782,-0.1392239,0.1085691,-1.191386,-2.461555,-1.182003,0.02310105,0.01718615,-0.001241447,-0.4875641,-2.694237,1.522095
26.20025,7.555591,44,104,497,498,0.2213335,-0.1787062,0.1167556,-1.191602,-2.45791,-1.18589,0.02951882,0.0330903,-0.01093639,-0.4880323,-2.69264,1.520208
26.00025,7.566702,44,104,497,498,0.2267245,-0.1947511,0.1261785,-1.192311,-2.454698,-1.189574,0.02946838,0.02878856,-0.01730525,-0.4883193,-2.692456,1.519748
25.80025,7.577813,44,104,497,498,0.2256871,-0.2203505,0.1302489,-1.192586,-2.450918,-1.19347,0.0304958,0.02556189,-0.02262061,-0.4887284,-2.692121,1.51908
25.60025,7.588924,44,104,497,498,0.2246114,-0.2320813,0.1312394,-1.192921,-2.447433,-1.196974,0.0315825,0.03405938,-0.02480537,-0.4891779,-2.691287,1.518054
25.40025,7.600036,44,104,497,498,0.2235242,-0.2437822,0.1290266,-1.193087,-2.443848,-1.200746,0.03157182,0.0404091,-0.03335912,-0.4898251,-2.689995,1.516564
25.20025,7.611147,44,104,497,498,0.2246556,-0.2651766,0.1373829,-1.193416,-2.43931,-1.205009,0.03365727,0.04248004,-0.04403604,-0.4907029,-2.688912,1.515296
25.00025,7.622258,44,104,497,498,0.231133,-0.2791265,0.1478665,-1.193817,-2.434889,-1.209413,0.03369121,0.04888117,-0.04193455,-0.4910784,-2.68749,1.513712
24.80025,7.633369,44,104,497,498,0.2396928,-0.274901,0.1520882,-1.194443,-2.431278,-1.213601,0.02725634,0.04886176,-0.05149335,-0.4919274,-2.686334,1.512571
24.60025,7.644481,44,104,497,498,0.2407555,-0.2589429,0.1522034,-1.195031,-2.427922,-1.217445,0.03472621,0.05838479,-0.05690565,-0.4928403,-2.684764,1.510698
24.40025,7.655592,44,104,497,498,0.242932,-0.2302147,0.1566706,-1.196173,-2.425456,-1.221121,0.04116217,0.06052756,-0.04841546,-0.4931008,-2.683276,1.508794
24.20024,7.666703,44,104,497,498,0.2515488,-0.1919681,0.1675454,-1.197634,-2.423337,-1.224806,0.03900212,0.03611967,-0.03124012,-0.4929559,-2.683795,1.508875
24.00024,7.677814,44,104,497,498,0.2548413,-0.1483681,0.1774462,-1.199571,-2.422046,-1.228193,0.04764614,0.02561378,0.006059023,-0.491814,-2.683679,1.507972
23.80024,7.688926,44,104,497,498,0.2570516,-0.1175458,0.1851363,-1.201539,-2.42046,-1.231769,0.05826224,0.01810552,0.004982857,-0.4917879,-2.683648,1.507031
23.60024,7.700037,44,104,497,498,0.259207,-0.07281362,0.1865323,-1.203722,-2.420191,-1.234822,0.06030088,0.02223635,-0.01954911,-0.4927285,-2.682998,1.50572
23.40024,7.711148,44,104,497,498,0.2537233,-0.03538622,0.167696,-1.205099,-2.420214,-1.237356,0.06255903,0.0721976,-0.04216307,-0.4938688,-2.677979,1.500387
23.20024,7.72226,44,104,497,498,0.2473917,-0.01945513,0.1742662,-1.207201,-2.419734,-1.240039,0.06577896,0.0806943,-0.04540932,-0.4943732,-2.675679,1.497535
23.00024,7.733371,44,104,497,498,0.2517072,-0.00886651,0.1817827,-1.209495,-2.418838,-1.243136,0.07302928,0.05498998,-0.06662138,-0.4957096,-2.676101,1.496893
22.80024,7.744482,44,104,497,498,0.2559646,-0.014202,0.1817074,-1.211246,-2.41771,-1.246486,0.07814877,0.02715944,-0.08356534,-0.4971765,-2.678161,1.497901
22.60024,7.755593,44,104,497,498,0.2547973,-0.02156731,0.1699408,-1.212551,-2.416743,-1.249619,0.08875188,0.007974863,-0.07606114,-0.4978236,-2.679361,1.497721
22.40024,7.766705,44,104,497,498,0.2676381,-0.03123765,0.179345,-1.214447,-2.415287,-1.253153,0.08773144,0.02501457,-0.08039387,-0.498744,-2.677346,1.495156
22.20024,7.777816,44,104,497,498,0.2719956,-0.05050498,0.1908709,-1.216321,-2.413454,-1.25698,0.09940862,0.01113603,-0.07611653,-0.4994652,-2.677998,1.494311
22.00024,7.788927,44,104,497,498,0.2762437,-0.07928513,0.1916788,-1.217845,-2.41102,-1.260839,0.1078144,-0.00493288,-0.0867209,-0.5005561,-2.679209,1.493969
21.80024,7.800038,44,104,497,498,0.2719302,-0.1016068,0.18728,-1.21924,-2.408833,-1.26439,0.1142926,0.02269948,-0.09434411,-0.5018924,-2.677348,1.49087
21.60023,7.81115,44,104,497,498,0.2687962,-0.1229777,0.1945931,-1.220801,-2.406035,-1.268295,0.1132018,0.03963962,-0.1167874,-0.5038503,-2.675495,1.488055
21.40023,7.822261,44,104,497,498,0.2816066,-0.1453819,0.1985649,-1.222313,-2.403201,-1.272712,0.10145,0.01632287,-0.1070081,-0.5043526,-2.67612,1.487488
21.20023,7.833372,44,104,497,498,0.2912226,-0.1677973,0.2025683,-1.223768,-2.399897,-1.277372,0.1015304,0.02065261,-0.09318075,-0.5050147,-2.675573,1.485872
21.00023,7.844483,44,104,497,498,0.2954677,-0.1795126,0.2013692,-1.225134,-2.396933,-1.281705,0.1046605,0.003607824,-0.09096752,-0.5057859,-2.676278,1.48525
20.80023,7.855595,44,104,497,498,0.3029209,-0.1891023,0.2012315,-1.226564,-2.393822,-1.28635,0.1037377,0.03981598,-0.09433839,-0.5070078,-2.673504,1.481667
20.60023,7.866706,44,104,497,498,0.3082321,-0.185904,0.1990867,-1.2281,-2.391043,-1.290884,0.1089571,0.02800159,-0.1005975,-0.5069066,-2.674485,1.481671
20.40023,7.877817,44,104,497,498,0.3135516,-0.1720532,0.1991514,-1.229883,-2.388893,-1.295043,0.1055841,0.005553082,-0.1185795,-0.5086702,-2.675909,1.481821
20.20023,7.888928,44,104,497,498,0.3220842,-0.1518149,0.1992322,-1.231646,-2.387087,-1.299445,0.1121269,0.0258168,-0.1123727,-0.5106015,-2.674323,1.478533
20.00023,7.90004,44,104,497,498,0.3189207,-0.1273272,0.2015747,-1.233599,-2.385657,-1.303434,0.1238598,0.0194218,-0.1028051,-0.5114771,-2.674401,1.476887
19.80023,7.911151,44,104,497,498,0.3231947,-0.08900128,0.2029015,-1.235751,-2.384932,-1.307227,0.1302743,0.009891495,-0.08574869,-0.5120097,-2.675076,1.476022
19.60023,7.922262,44,104,497,498,0.324288,-0.04535361,0.2053629,-1.238097,-2.384701,-1.310852,0.1334404,0.008792996,-0.08896238,-0.5132337,-2.675143,1.474711
19.40023,7.933373,44,104,497,498,0.3328362,-0.002754103,0.2066871,-1.240666,-2.385173,-1.314613,0.1429445,-0.007243693,-0.09212119,-0.5142766,-2.676431,1.473979
19.20023,7.944485,44,104,497,498,0.3349591,0.02068985,0.2058036,-1.24321,-2.385214,-1.318296,0.1416945,-0.03288476,-0.1047701,-0.5156615,-2.679315,1.475236
19.00023,7.955596,44,104,497,498,0.3360128,0.05799851,0.2028873,-1.24574,-2.386388,-1.321673,0.1513885,-0.01160519,-0.1017229,-0.5167363,-2.678583,1.47264
18.80022,7.966707,44,104,497,498,0.3402271,0.08572458,0.1977426,-1.248097,-2.387337,-1.325071,0.1588628,-0.005275741,-0.1060402,-0.5178943,-2.678622,1.470584
18.60022,7.977818,44,104,497,498,0.3358997,0.1092382,0.1894348,-1.250369,-2.388793,-1.328134,0.1577837,-0.009526923,-0.104949,-0.5190235,-2.679385,1.469538
18.40022,7.98893,44,104,497,498,0.3390926,0.1294866,0.1874384,-1.252831,-2.390146,-1.331653,0.1621203,0.002192214,-0.09865225,-0.520199,-2.679375,1.46771
18.20022,8.000041,44,104,497,498,0.3422135,0.1306275,0.1789004,-1.254959,-2.391232,-1.335129,0.1621209,-0.003107741,-0.09329937,-0.5210671,-2.679914,1.466377
18.00022,8.011152,44,104,497,498,0.3400405,0.1189434,0.174574,-1.257055,-2.391804,-1.338668,0.1654271,0.00759618,-0.07841717,-0.521122,-2.679484,1.464181
17.80022,8.022264,44,104,497,498,0.3442599,0.1072623,0.1691224,-1.258957,-2.392253,-1.34257,0.1717831,0.00856784,-0.08910452,-0.522436,-2.679897,1.462391
17.60022,8.033375,44,104,497,498,0.3453055,0.1030172,0.1669501,-1.260946,-2.392873,-1.34624,0.175773,-0.02143791,-0.1209321,-0.5245149,-2.682343,1.462448
17.40022,8.044486,44,104,497,498,0.3431894,0.09659539,0.1701081,-1.262987,-2.393341,-1.349723,0.1886636,-0.005486548,-0.1199904,-0.5257144,-2.681373,1.458747
17.20022,8.055597,44,104,497,498,0.3324318,0.08283718,0.1583781,-1.264511,-2.393547,-1.353061,0.2024334,-0.02047667,-0.1231721,-0.5270668,-2.682834,1.457394
17.00022,8.066709,44,104,497,498,0.3291756,0.07649764,0.1519637,-1.266143,-2.393951,-1.356454,0.2067618,-0.01301903,-0.1125357,-0.5274721,-2.683733,1.456027
16.80022,8.07782,44,104,497,498,0.316341,0.07122675,0.1456327,-1.267638,-2.394325,-1.359576,0.2068551,-0.00761199,-0.09658359,-0.5281277,-2.683774,1.453766
16.60022,8.088931,44,104,497,498,0.3162342,0.07133022,0.1317817,-1.26889,-2.394862,-1.363088,0.2026535,-0.002234221,-0.092344,-0.5293235,-2.683452,1.451136
16.40022,8.100042,44,104,497,498,0.3098376,0.07774094,0.1308106,-1.270433,-2.395733,-1.366128,0.1994857,-0.01066124,-0.07631763,-0.5298593,-2.684347,1.449849
16.20021,8.111154,44,104,497,498,0.306595,0.09269688,0.1245612,-1.27192,-2.396868,-1.369139,0.1994722,-0.02021644,-0.06987749,-0.5303946,-2.685445,1.44857
16.00021,8.122265,44,104,497,498,0.3033403,0.1065967,0.1183098,-1.273441,-2.398166,-1.371918,0.2005112,-0.03192803,-0.06871396,-0.5305816,-2.686693,1.447122
15.80021,8.133376,44,104,497,498,0.3001854,0.118283,0.1226877,-1.275238,-2.399533,-1.374755,0.1983483,-0.03619605,-0.07187879,-0.5313938,-2.687949,1.446058
15.60021,8.144487,44,104,497,498,0.292662,0.1225716,0.1153209,-1.276403,-2.400401,-1.3775,0.198335,-0.03836739,-0.0729031,-0.5318077,-2.690079,1.445767
15.40021,8.155599,44,104,497,498,0.2809784,0.1310546,0.1186968,-1.278248,-2.401569,-1.380024,0.1983395,-0.04048169,-0.06969638,-0.5324436,-2.691188,1.444502
15.20021,8.16671,44,104,497,498,0.2767076,0.1331958,0.1176728,-1.279668,-2.40291,-1.382585,0.1951225,-0.05003241,-0.06327435,-0.5332922,-2.69312,1.44415
15.00021,8.177821,44,104,497,498,0.2693131,0.1395327,0.1252462,-1.281594,-2.40433,-1.384958,0.1887897,-0.04889375,-0.05255857,-0.5330333,-2.694407,1.443235
14.80021,8.188932,44,104,497,498,0.2651092,0.144934,0.1221065,-1.283157,-2.406588,-1.388318,0.1887847,-0.06055722,-0.04184564,-0.5331047,-2.696347,1.44283
14.60021,8.200044,44,104,497,498,0.2609033,0.1555403,0.1296867,-1.285201,-2.408424,-1.390453,0.1888441,-0.06688577,-0.03220762,-0.5329891,-2.69794,1.441421
14.40022,8.211155,44,104,497,498,0.2610131,0.1768028,0.1383509,-1.287227,-2.411044,-1.392979,0.1729483,-0.04658133,-0.03330886,-0.533371,-2.698072,1.440021
14.20022,8.222266,44,104,497,498,0.2600505,0.1991263,0.1460061,-1.289742,-2.413639,-1.395577,0.1643244,-0.05512773,-0.04388789,-0.5341055,-2.700052,1.440375
14.00022,8.233377,44,104,497,498,0.2654362,0.2097253,0.152436,-1.29201,-2.415913,-1.398048,0.1589102,-0.07110542,-0.04804395,-0.5345913,-2.702522,1.440872
13.80022,8.244489,44,104,497,498,0.2644035,0.2065086,0.1556071,-1.294083,-2.417868,-1.400488,0.1472768,-0.05827308,-0.05017227,-0.5349193,-2.702997,1.439354
13.60022,8.2556,44,104,497,498,0.2644383,0.2011628,0.159807,-1.296097,-2.419836,-1.402894,0.1493754,-0.05832085,-0.05763827,-0.5356736,-2.704482,1.438929
13.40022,8.266711,44,104,497,498,0.2591823,0.2106841,0.1684532,-1.298674,-2.422111,-1.404907,0.1451129,-0.04880491,-0.07474874,-0.5374334,-2.705474,1.437821
13.20022,8.277822,44,104,497,498,0.2806372,0.2414436,0.1855567,-1.301795,-2.425445,-1.407662,0.1323627,-0.02542445,-0.09398971,-0.5389972,-2.705565,1.436585
13.00022,8.288934,44,104,497,498,0.2966766,0.2360417,0.1928142,-1.304163,-2.427508,-1.410722,0.1249109,-0.01584846,-0.1025298,-0.5403442,-2.705717,1.43555
12.80022,8.300045,44,104,497,498,0.297727,0.2190022,0.1916105,-1.306489,-2.429136,-1.413601,0.1302256,-0.01482965,-0.1036264,-0.5415053,-2.706842,1.435068
12.60022,8.311156,44,104,497,498,0.2881833,0.1997613,0.1979252,-1.308896,-2.430205,-1.416177,0.1388765,-0.004115239,-0.08454303,-0.5419496,-2.706379,1.432905
12.40022,8.322268,44,104,497,498,0.28394,0.1858722,0.2031619,-1.311296,-2.4316,-1.418509,0.1409665,-0.01266088,-0.0866482,-0.5430495,-2.707507,1.432195
12.20022,8.333379,44,104,497,498,0.2861263,0.1890178,0.2095599,-1.314108,-2.433455,-1.421277,0.1429501,-0.02238418,-0.1111089,-0.5448455,-2.708932,1.431767
12.00022,8.34449,44,104,497,498,0.2968124,0.1985229,0.2159378,-1.316966,-2.435228,-1.424072,0.1406807,-0.01298445,-0.1430826,-0.5468556,-2.709993,1.431821
11.80022,8.355601,44,104,497,498,0.3276308,0.1943135,0.208192,-1.319456,-2.437101,-1.427898,0.1340742,-0.0142746,-0.1920524,-0.5501377,-2.711293,1.431602
11.60022,8.366713,44,104,497,498,0.3360611,0.1868941,0.1984533,-1.321344,-2.438344,-1.431354,0.1264615,-0.02078332,-0.2196712,-0.5529931,-2.713064,1.432072
11.40022,8.377824,44,104,497,498,0.3360222,0.1794751,0.1962695,-1.32377,-2.44006,-1.434424,0.1147945,0.0270524,-0.2486525,-0.556867,-2.711305,1.429973
11.20022,8.388935,44,104,497,498,0.3412697,0.1677644,0.1897472,-1.325853,-2.440858,-1.437849,0.1138502,0.04945521,-0.2434368,-0.5595824,-2.709898,1.42754
11.00022,8.400046,44,104,497,498,0.3412038,0.1475755,0.1821558,-1.328051,-2.441655,-1.441609,0.1097459,0.05073911,-0.2029522,-0.5609251,-2.709561,1.426406
10.80022,8.411158,44,104,497,498,0.3444035,0.1358476,0.1831042,-1.330241,-2.442618,-1.445304,0.1130557,0.04132316,-0.1666973,-0.561829,-2.709416,1.424934
10.60022,8.422269,44,104,497,498,0.3507947,0.124093,0.1861535,-1.332439,-2.443311,-1.448865,0.1301689,0.01803778,-0.1240405,-0.5620911,-2.71024,1.423884
10.40022,8.43338,44,104,497,498,0.356126,0.114495,0.1871001,-1.334651,-2.444074,-1.452795,0.139681,-0.008587331,-0.1143576,-0.5629411,-2.712065,1.423648
10.20022,8.444491,44,104,497,498,0.3604136,0.0995206,0.1901186,-1.336573,-2.444171,-1.45693,0.1353517,-0.002291873,-0.1367316,-0.5650173,-2.712098,1.42232
10.00022,8.455603,44,104,497,498,0.3604263,0.09951286,0.193325,-1.339056,-2.445176,-1.460555,0.13853,0.006150842,-0.1495723,-0.5670557,-2.712111,1.420694
9.80022,8.466714,44,104,497,498,0.3668122,0.09625132,0.1975122,-1.341349,-2.445607,-1.464111,0.1320512,0.0007986873,-0.1633832,-0.5694286,-2.712673,1.419907
9.60022,8.477825,44,104,497,498,0.3677944,0.08995028,0.1878665,-1.343266,-2.44643,-1.468062,0.1235239,-0.009766281,-0.153717,-0.5710126,-2.713852,1.419746
