ref,t,emg1,emg2,emg1raw,emg2raw,aDotS,bDotS,gDotS,aS,bS,gS,aDotSH,bDotSH,gDotSH,aSH,bSH,gSH
90,0,564,392,504,491,-0.6655352,-0.09002146,-0.3687073,-0.7563148,3.073425,-0.01859419,-0.3397847,-0.1637701,0.2836258,-0.3394385,2.463044,2.865788
90,0.01111111,536,468,512,488,-0.631672,-0.08520357,-0.3601361,-0.7556533,3.068333,-0.008514659,-0.3441665,-0.1628209,0.2687208,-0.3406471,2.454144,2.878291
90,0.02222222,536,468,512,488,-0.5995048,-0.0666987,-0.3418691,-0.75613,3.061359,0.002347843,-0.2984075,-0.1410464,0.2885906,-0.3405229,2.442111,2.891512
90,0.03333334,536,468,512,488,-0.5775668,-0.05729662,-0.3289522,-0.7557923,3.056526,0.01170193,-0.3037959,-0.1464871,0.2758373,-0.3417075,2.433116,2.903703
90,0.04444445,536,468,512,488,-0.5552083,-0.05545845,-0.304562,-0.7562126,3.051128,0.02129037,-0.2824542,-0.1623437,0.2555032,-0.3431249,2.426389,2.912338
90,0.05555556,536,468,512,488,-0.5341383,-0.02915466,-0.2859532,-0.7566818,3.047215,0.02949078,-0.2792415,-0.1740912,0.2416831,-0.3448399,2.418293,2.922981
90,0.06666667,575,511,504,486,-0.5222297,0.009536996,-0.2692496,-0.7576517,3.042285,0.03845072,-0.2580668,-0.1643428,0.2371902,-0.3458722,2.411501,2.931638
90,0.07777778,575,511,504,486,-0.5124803,0.02788058,-0.2561229,-0.7582659,3.038448,0.04662396,-0.2392382,-0.1451585,0.2039926,-0.3468384,2.405869,2.939038
90,0.08888889,575,511,504,486,-0.4989759,0.03561388,-0.2357536,-0.7589753,3.035508,0.05390824,-0.2168977,-0.1481921,0.2027784,-0.3484677,2.398419,2.94842
90,0.1,575,511,504,486,-0.4738517,0.04617104,-0.2196682,-0.7596124,3.032077,0.06052886,-0.2011606,-0.1450004,0.1611125,-0.3495037,2.396524,2.951587
90,0.1111111,575,511,504,486,-0.4551064,0.05540328,-0.2067407,-0.7605817,3.029304,0.06711539,-0.1778543,-0.1545186,0.1269266,-0.351288,2.393849,2.955571
90,0.1222222,552,578,496,484,-0.4352465,0.06363855,-0.1949146,-0.7615703,3.026562,0.07352402,-0.1714796,-0.1566231,0.117295,-0.3527112,2.390437,2.960229
90,0.1333333,552,578,496,484,-0.4265383,0.06066352,-0.1843482,-0.7623224,3.024077,0.07983731,-0.1908662,-0.1558608,0.084387,-0.3544433,2.388941,2.964384
90,0.1444445,552,578,496,484,-0.4154869,0.05362774,-0.1803201,-0.7622947,3.020772,0.08650266,-0.1651566,-0.1212589,0.1491179,-0.3538223,2.378316,2.975093
90,0.1555556,552,578,496,484,-0.3960977,0.05023439,-0.174055,-0.7629147,3.018288,0.09218799,-0.1642381,-0.1042145,0.1437204,-0.3541328,2.373973,2.980544
90,0.1666667,503,633,509,483,-0.3738368,0.05329822,-0.1633986,-0.7637323,3.016168,0.09727462,-0.165328,-0.1074534,0.1320428,-0.3551022,2.369928,2.98599
90,0.1777778,503,633,509,483,-0.3590381,0.05608761,-0.1580542,-0.7645872,3.013964,0.1024475,-0.1475148,-0.0978649,0.09673406,-0.3559773,2.36897,2.988059
90,0.1888889,503,633,509,483,-0.3402236,0.06429915,-0.1483417,-0.7655928,3.012584,0.1064455,-0.1316427,-0.08922812,0.08915809,-0.356479,2.365912,2.991851
90,0.2,503,633,509,483,-0.3202166,0.07033172,-0.1333428,-0.7663289,3.011467,0.1098985,-0.1220763,-0.06988088,0.1071209,-0.3562713,2.361438,2.996758
90,0.2111111,503,633,509,483,-0.3025283,0.05908979,-0.1133862,-0.7667773,3.010459,0.1135215,-0.09963395,-0.0674859,0.118718,-0.3564268,2.355685,3.002481
90,0.2222222,468,640,510,486,-0.2898659,0.0414027,-0.1031447,-0.7671837,3.009276,0.1175317,-0.1039481,-0.062212,0.114462,-0.3567427,2.352321,3.006679
90,0.2333333,468,640,510,486,-0.2673429,0.01889417,-0.09518091,-0.7664428,3.007522,0.1212329,-0.1027362,-0.08137882,0.1092315,-0.3577003,2.348308,3.011441
90,0.2444444,468,640,510,486,-0.2564255,0.01403458,-0.09104905,-0.7665493,3.006272,0.1248612,-0.1005678,-0.08347835,0.1081638,-0.3582681,2.344817,3.015441
90,0.2555556,468,640,510,486,-0.2370802,0.01161777,-0.08049851,-0.766681,3.005419,0.1275841,-0.08667344,-0.08974284,0.1070429,-0.359025,2.341254,3.019496
90,0.2666667,544,633,501,482,-0.2126225,0.01366748,-0.06987894,-0.7660838,3.004517,0.1298515,-0.07608361,-0.0725435,0.1164864,-0.3589387,2.33714,3.023574
90,0.2777778,544,633,501,482,-0.1945487,0.0153374,-0.05391027,-0.766324,3.004281,0.1317295,-0.06348894,-0.06720962,0.09401274,-0.3595566,2.335347,3.025734
90,0.2888889,544,633,501,482,-0.1841792,0.02114367,-0.05061907,-0.766788,3.003681,0.133965,-0.06773793,-0.05330131,0.1142296,-0.3594703,2.329907,3.031628
90,0.3,544,633,501,482,-0.1673589,0.005797662,-0.0403356,-0.7664642,3.003424,0.1355426,-0.04552475,-0.04035268,0.1044323,-0.359302,2.327734,3.033369
90,0.3111111,544,633,501,482,-0.1536278,-0.01177455,-0.03328748,-0.7658889,3.00302,0.1372087,-0.0436163,-0.02869781,0.08519378,-0.3592173,2.326558,3.0349
90,0.3222222,453,623,504,487,-0.1433134,-0.02523655,-0.02720829,-0.7652562,3.002662,0.1388141,-0.04257108,-0.03298366,0.07453407,-0.3594964,2.32565,3.036101
90,0.3333333,453,623,504,487,-0.1274838,-0.06181177,-0.02269833,-0.764267,3.002292,0.1395624,-0.03941312,-0.0383364,0.06175857,-0.3600194,2.324252,3.037801
90,0.3444445,453,623,504,487,-0.113708,-0.08035579,-0.01992853,-0.7629408,3.001806,0.1408226,-0.03527061,-0.03838147,0.04362429,-0.3604668,2.323775,3.038564
90,0.3555556,453,623,504,487,-0.09678797,-0.09773658,-0.01394567,-0.7613951,3.001507,0.1416589,-0.03117232,-0.02772491,0.03179981,-0.3602484,2.325154,3.037474
90,0.3666667,388,599,505,486,-0.08617976,-0.09620141,-0.008583203,-0.760766,3.002057,0.1417867,-0.007070303,0.01615042,0.02826609,-0.3587874,2.324612,3.037444
90,0.3777778,388,599,505,486,-0.08761386,-0.08896912,-0.0009682067,-0.7599676,3.002184,0.1427087,-0.01560814,0.01713752,0.02725044,-0.358543,2.323904,3.038521
90,0.3888889,388,599,505,486,-0.07750444,-0.07800099,0.009892575,-0.759402,3.002667,0.1429723,0.01011045,0.01426624,0.04626822,-0.3582122,2.320994,3.040307
90,0.4,388,599,505,486,-0.06304203,-0.06882504,0.01537668,-0.7588438,3.003019,0.1430474,0.007946271,0.007797617,0.03352339,-0.3583123,2.321142,3.040301
90,0.4111111,388,599,505,486,-0.05357326,-0.06624169,0.01753795,-0.7581359,3.003247,0.1432259,0.006896061,-0.003990961,0.01973136,-0.3587177,2.321486,3.039894
90,0.4222222,370,599,499,486,-0.04243831,-0.05495227,0.01670751,-0.7580518,3.003943,0.1430469,0.0004852572,-0.01691573,-0.002560908,-0.3591539,2.32397,3.037583
90,0.4333333,370,599,499,486,-0.03476494,-0.03852749,0.0159688,-0.7580826,3.00417,0.1430884,0.005662018,-0.01054451,-0.01753649,-0.3591981,2.325755,3.035715
90,0.4444444,370,599,499,486,-0.03446959,-0.003339697,0.01777602,-0.7589663,3.004708,0.1430943,0.01416142,-0.002981849,-0.01122232,-0.3588801,2.325103,3.035919
90,0.4555556,370,599,499,486,-0.03412141,0.03080696,0.0184956,-0.7601988,3.005302,0.143024,0.02061598,-0.00395439,-0.002736247,-0.3589387,2.324472,3.036092
90,0.4666667,370,599,499,486,-0.03018135,0.05758547,0.02331253,-0.7614638,3.006144,0.1426219,0.03487813,-0.04318859,0.00693344,-0.360371,2.324081,3.035605
90,0.4777778,426,565,503,485,-0.02161607,0.07729868,0.02050957,-0.7628279,3.00662,0.1423033,0.01843999,0.003500231,-0.00168723,-0.3589813,2.324865,3.03511
90,0.4888889,426,565,503,485,-0.01655973,0.08294269,0.01851202,-0.7636737,3.007611,0.1413984,0.009845436,0.007664029,-0.006975244,-0.3589483,2.325641,3.034594
90,0.5,426,565,503,485,-0.01263796,0.08954692,0.01864111,-0.7648066,3.008149,0.1410202,0.008796062,-0.00411834,-0.02184241,-0.3593052,2.328027,3.032177
90,0.5111111,426,565,503,485,-0.006477296,0.0941352,0.0187218,-0.7659464,3.008685,0.1405403,0.01091462,0.0001807911,-0.01761364,-0.3591923,2.328189,3.031848
90,0.5222223,384,556,496,487,-0.004615143,0.09956259,0.01884781,-0.767017,3.009609,0.1397286,0.01410337,0.006636186,-0.009131311,-0.3589366,2.327564,3.032315
90,0.5333334,384,556,496,487,-0.002162196,0.09335969,0.01551391,-0.7678857,3.009915,0.1394639,0.02051712,0.009924445,-0.000662019,-0.3586942,2.326986,3.032537
90,0.5444446,384,556,496,487,-0.003508709,0.07833542,0.01626599,-0.7683102,3.010305,0.1392876,0.01737689,0.001372026,-0.001675823,-0.3589174,2.327334,3.032252
90,0.5555557,384,556,496,487,-0.006586496,0.05579425,0.01475046,-0.7681994,3.010889,0.1388359,0.01314025,-0.004011768,-0.005874639,-0.3591688,2.327457,3.032034
90,0.5666668,384,556,496,487,-0.006716507,0.03774724,0.01010772,-0.7681494,3.010839,0.1389344,0.008840269,-0.001930329,-0.009050071,-0.3591145,2.327916,3.031639
90,0.577778,406,532,508,493,-0.003702253,0.02086329,0.00867791,-0.7679289,3.010894,0.1388753,0.0152288,-0.00293285,-0.01122302,-0.3589403,2.328822,3.03043
90,0.5888891,406,532,508,493,-0.001071804,0.01149254,0.004214059,-0.7678975,3.010937,0.1385888,0.01847144,-0.003939448,-0.004846956,-0.3589648,2.328393,3.030588
90,0.6000003,406,532,508,493,0.003794643,1.525636E-05,0.003958748,-0.7675875,3.010972,0.138405,0.01951677,0.007823898,0.0046755,-0.3585733,2.327859,3.030564
90,0.6111114,406,532,508,493,0.006430729,-0.0095135,0.006947107,-0.7672392,3.011104,0.1381627,0.01317742,0.003522226,0.007935337,-0.358649,2.327199,3.031299
90,0.6222225,387,516,495,485,0.005808504,-0.01805545,0.005702701,-0.7668226,3.011061,0.1381744,0.01109291,-0.002884444,0.007980411,-0.3588045,2.326779,3.031754
90,0.6333337,387,516,495,485,0.005019618,-0.02340658,0.004526161,-0.7664141,3.011015,0.138184,0.007902641,-0.006136574,0.003768292,-0.3590916,2.326307,3.032125
90,0.6444448,387,516,495,485,0.008205555,-0.02319477,0.00239119,-0.7661696,3.010918,0.138078,0.007803647,-0.0083488,-0.01433035,-0.3593265,2.327964,3.030547
90,0.655556,387,516,495,485,0.01621914,-0.01320002,0.003646877,-0.7663044,3.011072,0.1375821,0.0002198704,-0.003141331,-0.02816788,-0.3591891,2.33041,3.028332
90,0.6666671,387,516,495,485,0.01550256,0.0005818568,0.00607106,-0.7666559,3.011306,0.1372263,0.001272256,7.470511E-05,-0.02605594,-0.3591182,2.330932,3.027799
90,0.6777782,373,496,502,491,0.01405316,0.02928312,0.008838662,-0.7680077,3.012404,0.1357062,0.005522495,0.01297403,-0.00908767,-0.3585403,2.329688,3.028929
90,0.6888894,373,496,502,491,0.009012111,0.04401893,0.005966768,-0.7688461,3.01257,0.1355986,0.008670461,0.01725172,-0.01125479,-0.3582793,2.330266,3.028159
90,0.7000005,373,496,502,491,0.0075185,0.0523359,0.01036866,-0.7689041,3.012077,0.135834,0.01091634,0.001287749,-0.01440597,-0.3585776,2.331441,3.026936
90,0.7111117,373,496,502,491,0.004780032,0.06392442,0.01062086,-0.7699252,3.012487,0.13554,0.01200846,-0.001907662,-0.01441615,-0.3588119,2.332447,3.025845
90,0.7222228,342,454,495,491,0.002724595,0.06260107,0.01805833,-0.770631,3.013225,0.1350356,0.01199754,-0.006202146,-0.0218541,-0.3590772,2.333639,3.024588
90,0.7333339,342,454,495,491,0.006197825,0.05745483,0.01685664,-0.7708759,3.013075,0.1348731,0.007748846,-0.01158088,-0.02819403,-0.3592029,2.33497,3.023273
90,0.7444451,342,454,495,491,0.009769663,0.05024381,0.01349824,-0.7712477,3.013235,0.1345536,0.006715428,-0.0137109,-0.02604721,-0.3594447,2.335553,3.022688
90,0.7555562,342,454,495,491,0.008288793,0.03839603,0.01536245,-0.7715172,3.013188,0.1341045,0.0002647545,-0.003080763,-0.0218083,-0.3590314,2.33661,3.021835
90,0.7666674,342,454,495,491,0.007818611,0.02677605,0.008724517,-0.7715183,3.013081,0.1341083,-0.001942595,0.001134374,-0.02820163,-0.3589675,2.337871,3.020708
90,0.7777785,331,424,502,491,0.007152202,0.01926102,0.008542326,-0.7714123,3.0127,0.1341732,0.0002032602,0.002239071,-0.02503384,-0.3588642,2.338828,3.019707
90,0.7888896,331,424,502,491,0.00715496,0.01923849,0.009607383,-0.7716142,3.012948,0.1339048,0.0002419697,0.0001244764,-0.02182665,-0.3589185,2.339158,3.019389
90,0.8000008,331,424,502,491,0.003984386,0.01905879,0.01065343,-0.7720062,3.012729,0.133826,0.004495379,0.0001609256,-0.02291697,-0.3588716,2.339885,3.018582
90,0.8111119,331,424,502,491,0.002978751,0.01791715,0.01169739,-0.7721564,3.012993,0.1336124,0.004550066,-0.004078158,-0.01865195,-0.359049,2.340705,3.017907
90,0.8222231,331,424,502,491,0.00280858,0.02116329,0.009630034,-0.7726294,3.013059,0.1335048,0.00345769,-0.004106443,-0.02290618,-0.359139,2.341694,3.01696
90,0.8333342,302,399,503,494,0.002804328,0.02219465,0.01177498,-0.773047,3.013215,0.1326771,-0.00402048,-0.004175961,-0.02604896,-0.3590953,2.342637,3.016348
90,0.8444453,302,399,503,494,-0.0005008038,0.02417803,0.01075995,-0.7733639,3.013396,0.1326158,-0.007183319,-0.003107925,-0.0185742,-0.3591555,2.342601,3.016621
90,0.8555565,302,399,503,494,0.001920357,0.03918991,0.01320268,-0.7741159,3.013834,0.1322025,-0.009271159,-0.006304319,-0.01534988,-0.3592753,2.34285,3.016604
90,0.8666676,302,399,503,494,-0.0004817173,0.04437448,0.01438419,-0.7746811,3.014197,0.1319927,-0.008219676,-0.003089876,-0.01324044,-0.3592594,2.343203,3.016332
90,0.8777788,295,367,507,493,-0.003506999,0.04101724,0.01432089,-0.7750129,3.0145,0.1318931,-0.01144676,0.003287723,-0.008985831,-0.359155,2.343188,3.016607
90,0.8888899,295,367,507,493,-0.00748256,0.03545476,0.01527889,-0.7752206,3.014826,0.1318318,-0.01358619,0.004334372,-0.008974571,-0.359107,2.343431,3.016594
90,0.900001,295,367,507,493,-0.005736317,0.02276534,0.01391592,-0.7750267,3.014435,0.1318211,-0.01675101,-0.002104418,-0.0142664,-0.3593398,2.344874,3.015364
90,0.9111122,295,367,507,493,-0.007700507,0.01948612,0.012786,-0.775162,3.014635,0.1318233,-0.01355175,-0.004224031,-0.01640861,-0.3595667,2.345472,3.014882
90,0.9222233,295,367,507,493,-0.01169689,0.01501554,0.01269456,-0.7753346,3.014712,0.1314558,-0.01361447,-0.001060434,-0.02281867,-0.3595971,2.346832,3.013674
90,0.9333345,311,330,502,493,-0.01416852,0.001022277,0.0124045,-0.7749745,3.014875,0.1315484,-0.01358261,0.006471852,-0.008997096,-0.3590964,2.346019,3.014493
90,0.9444456,311,330,502,493,-0.01461772,-0.01077804,0.01428676,-0.7745304,3.015115,0.1315442,-0.01353278,0.005435463,-0.002600757,-0.3590569,2.345629,3.014999
90,0.9555568,311,330,502,493,-0.01689387,-0.02805872,0.02139421,-0.7746305,3.015904,0.1310574,-0.01358227,0.006463157,-0.01005016,-0.3590261,2.346188,3.014512
90,0.9666679,311,330,502,493,-0.01186354,-0.04272776,0.02107049,-0.773742,3.016059,0.130938,-0.01252098,0.00325584,-0.01430091,-0.3591433,2.34677,3.014145
90,0.977779,310,324,519,497,-0.01321442,-0.05772136,0.01967401,-0.7725777,3.015763,0.1312491,-0.01366179,0.006411336,-0.02176692,-0.3590005,2.348203,3.013002
90,0.9888902,310,324,519,497,-0.01698355,-0.06747061,0.01842622,-0.7718735,3.016161,0.1313588,-0.01483357,0.0159718,-0.02500045,-0.3586777,2.349406,3.012132
90,1.000001,310,324,519,497,-0.01974909,-0.0749902,0.01507695,-0.7711923,3.016129,0.1309524,-0.0105844,0.02028311,-0.02079206,-0.3584529,2.350076,3.011544
90,1.011112,310,324,519,497,-0.0302401,-0.09895361,0.01246511,-0.769481,3.015902,0.1317391,-0.009545387,0.02349465,-0.01974415,-0.3581291,2.350612,3.011204
90,1.022224,310,324,519,497,-0.03397532,-0.1086797,0.01013633,-0.7683859,3.015755,0.131859,-0.01796918,0.01919816,-0.01114261,-0.3580375,2.350149,3.01199
90,1.033335,348,312,505,494,-0.03343616,-0.119203,0.004584218,-0.766804,3.015342,0.1325008,-0.0221827,0.01384026,-0.01107962,-0.357964,2.350172,3.012305
90,1.044446,348,312,505,494,-0.03024458,-0.119037,0.004579507,-0.765515,3.015161,0.1328678,-0.01892165,-1.166016E-05,-0.01849242,-0.3583033,2.351069,3.011625
90,1.055557,348,312,505,494,-0.0275616,-0.1092082,0.0005187355,-0.7646015,3.014804,0.1333573,-0.01993677,-0.003205342,-0.01526235,-0.3584551,2.350755,3.012135
90,1.066668,348,312,505,494,-0.03060524,-0.09116433,-0.002312998,-0.7642564,3.014099,0.1337914,-0.02420202,0.006402768,-0.00249345,-0.3580689,2.349906,3.013334
90,1.077779,331,278,504,493,-0.03623123,-0.06488538,0.0025208,-0.7641738,3.014298,0.1342068,-0.02525619,0.009615991,0.002813471,-0.3578447,2.350053,3.013443
90,1.08889,331,278,504,493,-0.03397086,-0.04670563,0.006096968,-0.7641227,3.01454,0.1343464,-0.02741243,0.01279279,0.003877165,-0.3577174,2.349973,3.013949
90,1.100002,331,278,504,493,-0.03341926,-0.01579406,0.008859734,-0.7647501,3.014413,0.1344715,-0.02846485,0.01493998,0.008153158,-0.3573509,2.348814,3.015326
90,1.111113,331,278,504,493,-0.02989915,0.01956501,0.01063959,-0.7659587,3.014289,0.1345152,-0.02745613,0.0213417,0.009185977,-0.3569621,2.348419,3.016115
90,1.122224,331,278,504,493,-0.0328431,0.0556955,0.01034838,-0.7674735,3.014736,0.1346425,-0.01679309,0.01286845,-0.001498433,-0.3569754,2.349361,3.015054
90,1.133335,316,269,499,493,-0.03478105,0.07259567,0.01389141,-0.7687417,3.014944,0.1349136,-0.009261476,0.001203858,-0.005752626,-0.3571613,2.349672,3.014652
90,1.144446,316,269,499,493,-0.03426687,0.0832635,0.01518682,-0.7698624,3.015458,0.1348321,-0.006035681,0.0001748228,-0.002575953,-0.3572183,2.34962,3.014689
90,1.155557,316,269,499,493,-0.03601054,0.07573129,0.01396117,-0.771399,3.016156,0.1352577,-0.009225232,0.003368172,0.002751759,-0.3570575,2.349327,3.015264
90,1.166668,316,269,499,493,-0.02924649,0.06866266,0.01166239,-0.7719061,3.016339,0.1352449,-0.01034936,0.005460685,-0.003642528,-0.3569744,2.350107,3.014675
90,1.17778,320,262,503,495,-0.0250032,0.04859697,0.01229091,-0.7717324,3.016522,0.1352587,-0.01353594,0.003294566,-0.004689016,-0.3571139,2.350796,3.01432
90,1.188891,320,262,503,495,-0.0159888,0.01923769,0.0105739,-0.7712643,3.016395,0.1349051,-0.01462478,0.002210086,-0.006807229,-0.3571464,2.351107,3.014503
90,1.200002,320,262,503,495,-0.01209504,-0.0146878,0.00984376,-0.7700424,3.016276,0.1350191,-0.007242666,0.01186711,-0.004765796,-0.3567709,2.351159,3.014379
90,1.211113,320,262,503,495,-0.009734668,-0.03908866,0.009297721,-0.7690698,3.015759,0.1350217,0.00237798,0.01302768,-0.0005616541,-0.3566377,2.350479,3.014504
90,1.222224,320,262,503,495,-0.00420215,-0.06339904,0.01196374,-0.7675321,3.015826,0.134822,-0.002942364,0.009776595,-0.002640072,-0.3566479,2.350529,3.014788
90,1.233335,291,236,505,494,0.003154844,-0.08119899,0.01368771,-0.7661073,3.015622,0.1342446,-0.00721813,0.01295334,-0.0005009654,-0.3563043,2.350703,3.014882
90,1.244446,291,236,505,494,0.005453579,-0.08432471,0.01574639,-0.7650266,3.015742,0.1340273,-0.01155455,0.01822258,-0.004757843,-0.3559858,2.351317,3.014607
90,1.255558,291,236,505,494,0.009241901,-0.07456305,0.01805174,-0.7647645,3.015587,0.1335735,-0.01054116,0.02782457,-0.0005341321,-0.3555458,2.35063,3.015272
90,1.266669,291,236,505,494,0.01575461,-0.05611781,0.01949199,-0.7646554,3.015945,0.1329588,-0.004133236,0.02253434,-0.004813248,-0.3554883,2.351229,3.014563
90,1.27778,356,234,514,495,0.01667795,-0.03267555,0.0231841,-0.7649339,3.016536,0.1323266,0.00447551,0.01623671,-0.0005761385,-0.3554659,2.350828,3.014535
90,1.288891,356,234,514,495,0.02043728,-0.02288222,0.02338226,-0.7649387,3.01693,0.1317072,0.005586484,0.01199167,-0.0005651359,-0.3553317,2.350989,3.014175
90,1.300002,356,234,514,495,0.02354346,-0.0003932239,0.0270484,-0.7655848,3.017657,0.1308294,0.007729352,0.01416772,0.004740222,-0.3550153,2.350407,3.014615
90,1.311113,356,234,514,495,0.02313651,0.007840596,0.03146647,-0.7631038,3.017481,0.1303894,0.00781736,0.006711503,0.006908913,-0.3552854,2.349698,3.015032
90,1.322224,356,234,514,495,0.02465441,0.01967353,0.03064825,-0.7636678,3.01805,0.1296555,0.01003999,-0.006068607,0.004821236,-0.355866,2.349492,3.015091
90,1.333336,356,213,499,494,0.02640663,0.02702936,0.0350402,-0.762462,3.018113,0.1292038,0.008944669,-0.008236025,-0.003689187,-0.3558899,2.350637,3.013869
90,1.344447,356,213,499,494,0.0243708,0.02397697,0.02755666,-0.7637365,3.019149,0.1290195,0.01420737,-0.002872491,-0.005878501,-0.3557477,2.351228,3.013039
90,1.355558,356,213,499,494,0.0228458,0.01221163,0.02518016,-0.7634969,3.019429,0.1286365,0.007816061,-0.002933854,-0.007972191,-0.3557525,2.351809,3.012426
90,1.366669,356,213,499,494,0.01789791,0.004402814,0.02503022,-0.7620507,3.01965,0.1286578,0.008795778,0.005588015,-0.009081482,-0.3554952,2.352256,3.011977
90,1.37778,303,193,502,497,0.01967803,-0.009346305,0.02366879,-0.7614644,3.019855,0.1282184,0.00760685,0.01085495,-0.0218876,-0.3551677,2.354377,3.009898
90,1.388891,303,193,502,497,0.02225026,-0.01873616,0.01924534,-0.7605588,3.020686,0.1279052,0.01181436,0.009768305,-0.03363124,-0.3552726,2.356619,3.007351
90,1.400002,303,193,502,497,0.02118111,-0.0187465,0.0171167,-0.7603288,3.02083,0.1275846,0.01383244,0.01828052,-0.03900952,-0.3549472,2.358402,3.005567
90,1.411114,303,193,502,497,0.02550325,-0.01969132,0.01813744,-0.7589236,3.020627,0.1271915,0.01380887,0.02147998,-0.03902531,-0.3546106,2.359836,3.00403
90,1.422225,303,193,502,497,0.02926268,-0.009919547,0.01940041,-0.7591122,3.021048,0.1264304,0.009608082,0.02041325,-0.03047106,-0.3544763,2.359992,3.003969
90,1.433336,328,181,508,498,0.02422115,0.004839399,0.01546289,-0.7596022,3.021235,0.1261742,0.006427268,0.0214658,-0.02619945,-0.3542888,2.360796,3.003281
90,1.444447,328,181,508,498,0.02274972,0.01426792,0.01885635,-0.7596315,3.021531,0.1245315,0.008611873,0.0140166,-0.02724455,-0.3544662,2.361698,3.002325
90,1.455558,328,181,508,498,0.01861096,0.03222803,0.01711501,-0.760496,3.021895,0.1241843,0.01081293,0.006591282,-0.0261716,-0.3545461,2.362972,3.000942
90,1.466669,328,181,508,498,0.01888899,0.04832299,0.01316829,-0.7613951,3.021618,0.1233203,0.01400526,0.003396468,-0.03151153,-0.3546782,2.364726,2.998996
90,1.47778,354,190,505,498,0.01653959,0.05246652,0.0132616,-0.7620662,3.021946,0.1229656,0.0108416,0.002319695,-0.0272236,-0.3547597,2.365176,2.99864
90,1.488891,354,190,505,498,0.01357539,0.06835482,0.01147354,-0.7633344,3.022263,0.1226615,0.005558202,0.001237586,-0.02079109,-0.3547773,2.365154,2.998848
90,1.500003,354,190,505,498,0.0133742,0.07258803,0.01048914,-0.7635863,3.022267,0.1221448,0.008737928,0.005541038,-0.01656787,-0.354651,2.365317,2.998611
90,1.511114,354,190,505,498,0.01224718,0.07366364,0.007317985,-0.7644071,3.022388,0.1219557,0.007763049,0.001305191,-0.009073163,-0.3547458,2.364526,2.999198
90,1.522225,354,190,505,498,0.008483034,0.06393668,0.003925002,-0.7648151,3.02239,0.1219834,0.006725833,-0.0008243537,-0.006924774,-0.3548236,2.36447,2.999269
90,1.533336,282,183,505,497,0.006692916,0.03615588,-0.0009227083,-0.7636151,3.021889,0.1227302,0.00667046,0.001274401,-0.01225527,-0.3548939,2.365189,2.998578
90,1.544447,282,183,505,497,0.008547625,0.02135677,-0.006604526,-0.7624662,3.020584,0.1231334,0.004574395,-0.00300734,-0.01327869,-0.3550212,2.365254,2.998462
90,1.555558,282,183,505,497,0.01049442,0.004439497,-0.009097254,-0.7620263,3.020271,0.1231946,0.007794941,-0.001890795,-0.007977616,-0.3549765,2.365062,2.998451
90,1.566669,282,183,505,497,0.01049442,0.004439497,-0.009097254,-0.7620263,3.020271,0.1231946,0.007794941,-0.001890795,-0.007977616,-0.3549765,2.365062,2.998451
90,1.577781,287,173,509,497,0.005773017,-0.00742555,-0.01466409,-0.7615607,3.019512,0.1237012,0.009850253,0.01094483,-0.0005830843,-0.3544081,2.364636,2.998815
90,1.588892,287,173,509,497,0.007000833,-0.01053836,-0.01579824,-0.7614308,3.019198,0.123805,0.00774752,0.007738686,0.0005129762,-0.3543315,2.364472,2.999043
90,1.600003,287,173,509,497,0.007000833,-0.01053836,-0.01579824,-0.7614308,3.019198,0.123805,0.00774752,0.007738686,0.0005129762,-0.3543315,2.364472,2.999043
90,1.611114,287,173,509,497,0.004868065,-0.0106045,-0.01792563,-0.7613418,3.018839,0.1240612,0.009874151,0.008827027,0.001562107,-0.3542095,2.364288,2.99906
90,1.622225,287,173,509,497,0.003859841,-0.01065179,-0.01363753,-0.7625206,3.019475,0.1229241,0.004559173,0.01201337,0.005836586,-0.3537115,2.364186,2.999099
90,1.633336,287,173,509,497,0.001671661,-0.009654538,-0.01574254,-0.7624881,3.019141,0.1232138,0.00678388,0.0003108578,0.005885661,-0.3540268,2.363471,2.999717
90,1.644447,285,158,497,490,0.0004967013,-0.007582917,-0.01569621,-0.7624678,3.018896,0.1234104,0.0110584,0.0003566528,0.007988883,-0.3540002,2.363047,2.999877
90,1.655559,285,158,497,490,0.001558078,-0.0075049,-0.01676256,-0.7624039,3.018545,0.123617,0.01851216,-0.002797399,0.001556859,-0.3540321,2.363756,2.998669
90,1.66667,285,158,497,490,0.001418695,-0.004252525,-0.01882105,-0.7627038,3.018284,0.1233225,0.01739213,0.002510898,0.0004738644,-0.35394,2.363986,2.998324
90,1.677781,285,158,497,490,-0.001266971,0.006294802,-0.01965837,-0.7630904,3.018012,0.1236058,0.01952178,0.003599124,0.000464722,-0.3537695,2.363586,2.998318
90,1.688892,275,152,495,495,0.002379816,0.01819446,-0.01835082,-0.7636545,3.017877,0.1235701,0.01632096,0.001422804,-0.002701407,-0.353916,2.363909,2.997953
90,1.700003,275,152,495,495,0.006215032,0.02691229,-0.01710134,-0.7643017,3.017951,0.1230285,0.01835923,0.01102702,-0.003813892,-0.3534718,2.363913,2.997752
90,1.711114,275,152,495,495,0.008649096,0.02157138,-0.009738284,-0.7646362,3.018605,0.1222402,0.01296205,0.02272573,0.0004314883,-0.3527857,2.363668,2.997992
90,1.722225,275,152,495,495,0.01319204,0.01638594,-0.005595836,-0.7646889,3.018688,0.1219131,0.01833655,0.01423454,-0.002759608,-0.3528752,2.363949,2.997439
90,1.733337,275,152,495,495,0.01773993,0.01115567,0.0006767232,-0.764658,3.018933,0.1214359,0.02160406,0.002512716,-0.008052306,-0.3532827,2.364398,2.996595
90,1.744448,278,165,508,499,0.01785184,0.00892799,0.005970863,-0.7648343,3.019532,0.1209794,0.02161138,0.0003729146,-0.009108145,-0.3534201,2.364682,2.99616
90,1.755559,278,165,508,499,0.02329205,0.006988927,0.01017952,-0.7648172,3.019839,0.1203296,0.0194483,0.007846175,-0.003805989,-0.3529647,2.364712,2.996013
90,1.76667,278,165,508,499,0.02441143,0.005980891,0.01015569,-0.7648742,3.020004,0.119887,0.01192341,0.01309385,-0.006977451,-0.3527005,2.365313,2.995564
90,1.777781,278,165,508,499,0.03040294,0.01384712,0.007126487,-0.7655006,3.020419,0.1190252,0.009785285,0.01308038,-0.005900691,-0.3525908,2.365533,2.995488
90,1.788892,278,165,508,499,0.03449915,0.01719297,0.01038402,-0.7657339,3.020757,0.1182944,0.006614404,0.00771247,-0.009051872,-0.352692,2.366041,2.99503
90,1.800003,329,176,496,495,0.03367354,0.03307983,0.01391711,-0.7664444,3.021222,0.1175999,0.004532527,-0.001923098,-0.01538546,-0.3530579,2.366983,2.994061
90,1.811115,329,176,496,495,0.02871115,0.04669466,0.01424334,-0.7672951,3.022179,0.1164947,0.008757208,-0.001916909,-0.02074141,-0.3532055,2.368102,2.992831
90,1.822226,329,176,496,495,0.02821129,0.05626716,0.01444607,-0.7681164,3.022551,0.1159301,0.01511232,0.0002523251,-0.02292439,-0.3532614,2.368986,2.99173
90,1.833337,329,176,496,495,0.02234391,0.06761173,0.01897809,-0.7692626,3.023564,0.1143556,0.01621291,-0.00292876,-0.02292651,-0.353361,2.370086,2.990376
90,1.844448,322,164,493,498,0.01746782,0.07917892,0.01497099,-0.7704632,3.023842,0.1141058,0.01834114,-0.006122038,-0.02718504,-0.3535064,2.371149,2.989156
90,1.855559,322,164,493,498,0.01850796,0.08030319,0.01499918,-0.7714006,3.024371,0.1130246,0.01942001,-0.007177155,-0.02612427,-0.3536944,2.371913,2.988233
90,1.86667,322,164,493,498,0.01845995,0.0812995,0.01821689,-0.7723236,3.024967,0.1123753,0.01727971,-0.007200507,-0.02717568,-0.3538462,2.372835,2.987269
90,1.877781,322,164,493,498,0.01667763,0.07494595,0.01169684,-0.7730587,3.02508,0.1117942,0.0172867,-0.008262271,-0.02610701,-0.3540066,2.373602,2.986478
90,1.888893,322,164,493,498,0.0172326,0.06430984,0.01147139,-0.7734693,3.025346,0.1114,0.01943186,-0.007165914,-0.02186565,-0.3541679,2.37397,2.985925
90,1.900004,321,176,517,500,0.01727364,0.04308045,0.006771514,-0.7734795,3.025487,0.111024,0.01728747,-0.002914246,-0.01973728,-0.3541109,2.374339,2.985325
90,1.911115,321,176,517,500,0.0194203,0.02193528,0.005291631,-0.7738757,3.026383,0.1104786,0.01726753,-0.00187354,-0.02293153,-0.3542755,2.375028,2.984365
90,1.922226,321,176,517,500,0.01728537,0.001537667,0.005932128,-0.7733399,3.026403,0.1103241,0.01728968,-0.001859412,-0.01867086,-0.3543954,2.375272,2.984022
90,1.933337,321,176,517,500,0.0183289,-0.01861048,0.002303361,-0.772624,3.026088,0.1103571,0.01301486,0.001313427,-0.01653934,-0.354267,2.376166,2.983163
90,1.944448,333,165,497,498,0.01910802,-0.03352351,0.00305263,-0.7718821,3.026058,0.1101393,0.007729725,0.001298798,-0.0101128,-0.3542058,2.375861,2.983501
90,1.955559,333,165,497,498,0.01825853,-0.03776609,-0.0002314225,-0.7713745,3.025857,0.1100945,0.0131241,-0.001820825,-0.003728999,-0.3542441,2.375041,2.983967
90,1.966671,333,165,497,498,0.01870733,-0.04631989,0.001718245,-0.7706373,3.025841,0.109882,0.0130632,0.004565782,-0.004823195,-0.3540108,2.375391,2.983505
90,1.977782,333,165,497,498,0.01670087,-0.04845516,-0.002594019,-0.7703481,3.025405,0.1097606,0.01201264,0.004564784,-0.003754466,-0.3539043,2.375674,2.983039
90,1.988893,333,165,497,498,0.01552358,-0.04636097,-0.003612582,-0.7698996,3.02524,0.1097366,0.01310588,0.00352075,-0.000560259,-0.3539234,2.375422,2.983122
90,2.000004,284,168,503,497,0.01379208,-0.03358655,-0.006542454,-0.7699039,3.024875,0.1098048,0.01097493,0.00458154,0.0005168011,-0.3536923,2.375325,2.983132
90,2.011115,284,168,503,497,0.0142989,-0.02287246,-0.007383213,-0.769971,3.024708,0.109751,0.01102478,0.003545698,0.006913229,-0.3536476,2.374564,2.983727
90,2.022226,284,168,503,497,0.01314208,-0.0006039608,-0.003714145,-0.7705537,3.024884,0.1095118,0.01638599,0.001483703,0.01008355,-0.3535091,2.374099,2.983868
90,2.033337,284,168,503,497,0.01282719,0.005773891,-0.002515527,-0.771008,3.024942,0.1091124,0.01854984,-0.004890034,0.007967461,-0.3535996,2.373975,2.983829
90,2.044448,324,158,500,499,0.01788455,0.01123449,0.003980808,-0.7712829,3.025326,0.1084791,0.01422563,-0.002820798,0.001593847,-0.3535581,2.374356,2.98347
90,2.055559,324,158,500,499,0.01861473,0.01762448,0.00623742,-0.771571,3.025341,0.1083417,0.01421606,-0.003888166,-0.0005337457,-0.3535208,2.374609,2.983148
90,2.06667,324,158,500,499,0.01861728,0.017602,0.007302473,-0.7717527,3.025538,0.1079891,0.01742199,0.00257759,0.01006823,-0.35332,2.37357,2.983882
90,2.077781,324,158,500,499,0.01643001,0.01861799,0.006281711,-0.7725574,3.026081,0.107499,0.01630936,0.005741274,0.00686181,-0.3532715,2.373742,2.983559
90,2.088892,324,158,500,499,0.01861313,0.01766529,0.006256357,-0.7727391,3.026203,0.1071475,0.01735154,0.006805519,0.004719992,-0.3531725,2.373776,2.983321
90,2.100003,268,150,496,498,0.01588747,0.02936327,0.002240744,-0.7736989,3.026084,0.1068157,0.01518981,0.002487253,-0.005898525,-0.3532001,2.374774,2.982272
90,2.111114,268,150,496,498,0.01673856,0.03374179,0.0001981147,-0.7745208,3.026115,0.1064013,0.01730959,-0.001789432,-0.01334395,-0.3533621,2.375468,2.981367
90,2.122225,268,150,496,498,0.01472937,0.0314362,0.003350913,-0.7748036,3.026325,0.1061312,0.01519501,-0.00715391,-0.01757761,-0.353655,2.376651,2.980166
90,2.133336,268,150,496,498,0.01158251,0.03025377,0.001194455,-0.7751673,3.026158,0.1062841,0.01201878,-0.005024145,-0.01329775,-0.3535362,2.376442,2.980137
90,2.144447,268,150,496,498,0.01080335,0.02481278,0.004278054,-0.7752818,3.026352,0.1060417,0.007696326,0.004539467,-0.01011825,-0.3532917,2.376645,2.979983
90,2.155558,299,174,506,497,0.01095284,0.02166999,0.002076415,-0.7755018,3.026237,0.1061611,0.003452984,0.002382777,-0.009021686,-0.3532726,2.377111,2.979723
90,2.166669,299,174,506,497,0.008988716,0.01839077,0.0009463909,-0.7756137,3.026238,0.1061243,0.007737694,-0.002924617,-0.01222121,-0.3535229,2.377686,2.978981
90,2.17778,299,174,506,497,0.005841836,0.01715443,0.001994122,-0.7760292,3.026378,0.106233,0.007734883,0.00135422,-0.009051049,-0.3533706,2.378073,2.978343
90,2.188891,299,174,506,497,0.003548145,0.02028982,-6.86188E-05,-0.7765074,3.026289,0.1062175,0.004525874,0.004532025,-0.006914612,-0.3532476,2.378172,2.978289
90,2.200002,322,171,497,497,0.003434805,0.02243955,-0.001088478,-0.7768047,3.02627,0.1061904,0.001389292,-0.00187457,-0.005807524,-0.3533834,2.378648,2.977956
90,2.211113,322,171,497,497,0.001198912,0.02446865,-0.002120266,-0.7770273,3.025932,0.1064018,0.003622669,-0.01249062,-0.003633825,-0.3536241,2.378152,2.978313
90,2.222224,322,171,497,497,-8.901581E-05,0.02869019,-0.003093508,-0.7774486,3.0259,0.1064593,0.0004090006,-0.01038696,-0.00362295,-0.3536779,2.378255,2.978299
90,2.233335,322,171,497,497,-0.004846867,0.01774395,-0.002253812,-0.7772127,3.025724,0.1066591,-0.007171203,0.004461981,-0.002579882,-0.3532763,2.378536,2.978407
90,2.244446,322,171,497,497,-0.004232646,0.005999167,-0.0003722995,-0.7770044,3.025746,0.1066553,-0.004055846,0.01407868,-0.002642656,-0.3527953,2.378788,2.978131
90,2.255557,303,168,494,495,-0.007082694,-0.0005060916,-0.00158252,-0.7771908,3.025384,0.1068774,0.005595508,0.005626511,-0.005862187,-0.3529637,2.379149,2.977293
90,2.266668,303,168,494,495,-0.009662703,-0.01239458,-0.0007618498,-0.7767317,3.025344,0.1070793,0.009817798,0.0002711909,-0.01864937,-0.353271,2.380661,2.975698
90,2.277779,303,168,494,495,-0.007090379,-0.0207805,-0.0009543493,-0.7764958,3.025091,0.1072274,0.008758744,-0.002955423,-0.02288807,-0.3534611,2.381575,2.974695
90,2.28889,303,168,494,495,-0.006821444,-0.02603106,-0.004262582,-0.7760504,3.024844,0.1074783,0.006656982,0.004548743,-0.007995008,-0.3532193,2.380628,2.975601
90,2.300001,260,151,502,499,-0.0100395,-0.02518594,-0.001053168,-0.7760856,3.024709,0.1074692,0.002408603,0.01416362,0.005840274,-0.3527224,2.379314,2.976863
90,2.311112,260,151,502,499,-0.005889086,-0.02288545,0.001106804,-0.775863,3.02456,0.1075289,0.005595234,0.01739684,0.00899935,-0.3524747,2.379014,2.977047
90,2.322223,260,151,502,499,-0.005841605,-0.02388154,-0.002110985,-0.7755913,3.024355,0.1077206,0.004435675,0.02804832,0.008961512,-0.3517599,2.379065,2.977053
90,2.333334,260,151,502,499,-0.008745644,-0.02942959,0.0009672078,-0.7752132,3.024269,0.1079177,-0.001891293,0.01839859,0.006919895,-0.3518174,2.37887,2.977463
90,2.344445,260,151,502,499,-0.007365525,-0.03562085,-0.005560291,-0.7746885,3.023869,0.108265,-0.003952006,0.003425015,-0.001521093,-0.3522733,2.379478,2.977022
90,2.355556,270,162,497,494,-0.00915581,-0.04211111,-0.005703884,-0.7741479,3.023474,0.1086037,0.000349607,0.001345664,0.0006043095,-0.3521743,2.378853,2.977355
90,2.366668,270,162,497,494,-0.01016959,-0.04318506,-0.007855155,-0.7736797,3.023203,0.108927,-0.003869565,0.0002580592,0.00489785,-0.3522611,2.378362,2.977896
90,2.377779,270,162,497,494,-0.009302298,-0.03982258,-0.01204963,-0.7737607,3.022862,0.1095316,-0.005975291,-0.001885363,0.005986591,-0.3523282,2.378055,2.978316
90,2.38889,270,162,497,494,-0.01265192,-0.03686539,-0.008782202,-0.7734214,3.022815,0.1098085,-0.01025045,0.0002212869,0.008129871,-0.3522153,2.377918,2.978808
90,2.400001,294,171,496,499,-0.01012733,-0.02388538,-0.01065425,-0.7736382,3.022421,0.1100812,-0.008162641,0.004495194,0.00703134,-0.3520544,2.377904,2.97886
90,2.411112,294,171,496,499,-0.007768304,-0.007742466,-0.01138437,-0.7740238,3.022253,0.1102155,-0.007131063,0.005545357,0.003824807,-0.352121,2.377992,2.978881
90,2.422223,294,171,496,499,-0.00759176,0.009332782,-0.01211128,-0.7743295,3.0216,0.1107534,-0.01027941,0.001265018,0.005995779,-0.352244,2.377493,2.979609
90,2.433334,294,171,496,499,-0.01043341,0.02300405,-0.009684084,-0.7749543,3.021641,0.1109228,-0.0071226,0.001278352,0.001716047,-0.3521455,2.377738,2.979531
90,2.444445,294,171,496,499,-0.01182656,0.02930787,-0.008481802,-0.775479,3.021627,0.1110789,-0.007030302,-0.009372886,0.002829404,-0.3525919,2.377396,2.97999
90,2.455556,285,162,499,497,-0.01204265,0.03356399,-0.008393683,-0.7759492,3.021502,0.1112434,-0.006039491,0.0002490878,0.004895123,-0.3521146,2.377931,2.97965
90,2.466667,285,162,499,497,-0.01088406,0.03162727,-0.01483076,-0.7763077,3.021105,0.1116291,-0.001812328,-0.002942525,-0.00256855,-0.3522291,2.378338,2.979377
90,2.477778,285,162,499,497,-0.01299672,0.0314309,-0.0105713,-0.7767312,3.021107,0.1117484,-0.002873319,-0.005091834,-0.00468243,-0.3523591,2.378585,2.979195
90,2.488889,285,162,499,497,-0.008720715,0.0316508,-0.01057412,-0.7770742,3.021037,0.1114868,-0.005005283,-0.002956386,-0.0004192912,-0.3522733,2.378327,2.97972
90,2.5,285,162,499,497,-0.008275542,0.02311932,-0.009690161,-0.7771221,3.020916,0.1116653,-0.01137618,-0.002995162,0.002817792,-0.3522904,2.377945,2.98036
90,2.511111,286,166,510,503,-0.004687319,0.0158213,-0.008791061,-0.7771913,3.020771,0.1116355,-0.009190719,-0.007218017,0.006015526,-0.3523783,2.377753,2.980589
90,2.522222,286,166,510,503,0.000455766,-0.0009977119,-0.008094206,-0.7767327,3.0206,0.1116195,-0.004988771,-0.001865294,0.003833679,-0.3522718,2.377783,2.98052
90,2.533333,286,166,510,503,0.0001083091,-0.01485758,-0.009452101,-0.776214,3.020329,0.111816,-0.003967494,0.002405402,0.003808132,-0.3521034,2.377679,2.980761
90,2.544444,286,166,510,503,0.008357469,-0.02942924,-0.006603616,-0.7755844,3.019792,0.1116147,-0.003960864,0.0002624961,0.002750592,-0.3522606,2.377667,2.980892
90,2.555555,323,164,491,495,0.009529285,-0.03147859,-0.007715442,-0.7752009,3.019563,0.1116445,-0.006075753,-0.001874461,0.003840882,-0.3522702,2.377436,2.981386
90,2.566666,323,164,491,495,0.01048519,-0.02931853,-0.006606597,-0.7749618,3.019475,0.1115822,-0.009302631,0.001296904,0.004913304,-0.3521743,2.377191,2.98196
90,2.577777,323,164,491,495,0.006285066,-0.03060356,-0.00662327,-0.7745868,3.019308,0.1117494,-0.01253581,0.00981683,0.01022117,-0.3518206,2.376638,2.982697
90,2.588888,323,164,491,495,0.007306943,-0.02959725,-0.001276849,-0.774271,3.019437,0.1115508,-0.009326988,0.006638668,0.01021319,-0.351973,2.376351,2.983181
90,2.599999,323,164,491,495,0.002892137,-0.02669339,0.001985497,-0.774142,3.019428,0.1116887,-0.000814551,0.004559861,0.005906796,-0.3519868,2.376516,2.982819
90,2.61111,314,168,493,496,0.001543751,-0.02136303,-0.001094941,-0.7740883,3.019269,0.1118229,-0.001871764,-0.0007996003,0.001679143,-0.3522265,2.376585,2.982929
90,2.622221,314,168,493,496,0.004564071,-0.01796105,-0.003161607,-0.7740009,3.019138,0.1117867,0.000248496,-0.0007891696,0.0005995681,-0.3522846,2.376668,2.982853
90,2.633332,314,168,493,496,0.005343107,-0.0125723,-0.00412186,-0.7739146,3.018847,0.1119992,-0.001905415,0.0002500352,-0.002589073,-0.3521562,2.377109,2.982435
90,2.644443,314,168,493,496,0.001645837,-0.003098114,-0.007108672,-0.7741495,3.018635,0.1122331,-0.002988984,-0.002982625,-0.008951101,-0.3522872,2.377464,2.982221
90,2.655554,300,162,494,496,0.002246683,0.005435473,-0.005873546,-0.7743461,3.018435,0.1126661,-0.00185626,-0.009355294,-0.00679815,-0.3525647,2.377404,2.982281
90,2.666665,300,162,494,496,0.004675386,0.02046639,-0.004501796,-0.7749053,3.018389,0.112444,-0.006066048,-0.009357756,-0.0003831773,-0.3525865,2.377084,2.982637
90,2.677776,300,162,494,496,0.004133217,0.03101238,-1.499441E-05,-0.7755008,3.018671,0.1122107,-0.006045988,-0.01255844,-0.001433782,-0.3527953,2.377172,2.982617
90,2.688887,300,162,494,496,0.005294435,0.02878579,0.006319358,-0.7754438,3.01877,0.1124834,-0.002863673,-0.01040422,-0.0004028827,-0.3529663,2.377193,2.982568
90,2.699998,300,162,494,496,0.005786693,0.01925832,0.003985308,-0.7754363,3.018752,0.1124333,-0.0007600943,-0.007190611,-0.0004313267,-0.3529359,2.377162,2.982524
90,2.711109,287,159,512,501,0.006110394,0.01294425,0.0006541829,-0.7754251,3.018636,0.112444,0.0002723665,-0.001855191,0.001678727,-0.3529189,2.376576,2.983072
90,2.72222,287,159,512,501,0.003323004,0.005355665,0.0004955115,-0.7756201,3.01855,0.112289,0.0003061064,-0.005045989,0.002758658,-0.353051,2.376321,2.983303
90,2.733331,287,159,512,501,0.003870454,-0.005235417,-0.001861267,-0.7753404,3.018408,0.1123332,0.002483766,-0.01035286,0.003841869,-0.3533035,2.375726,2.983851
90,2.744442,287,159,512,501,0.008231067,-0.00709623,-0.004042781,-0.7752233,3.018246,0.1122442,-0.0007390319,-0.008256294,0.002795568,-0.3533322,2.375338,2.984334
90,2.755553,287,159,512,501,0.007606784,-0.01563796,-0.005287653,-0.7748275,3.018073,0.1123076,0.0034228,0.0002816347,-0.001532168,-0.3531277,2.375815,2.983735
90,2.766664,330,177,507,499,0.01011633,-0.02301129,-0.003327816,-0.7745565,3.017881,0.1124253,0.005530227,0.008858845,0.004799555,-0.3527149,2.375722,2.983613
90,2.777775,330,177,507,499,0.00905247,-0.02306661,-0.003326291,-0.7742869,3.017778,0.1124339,0.007644887,0.009937003,0.003715611,-0.3525695,2.375746,2.983449
90,2.788886,330,177,507,499,0.009247655,-0.02625053,-0.003397622,-0.7739987,3.017595,0.1120307,0.009830234,0.00142445,0.00268269,-0.352839,2.375332,2.98381
90,2.799997,330,177,507,499,0.007111831,-0.02629348,-0.00658973,-0.7737351,3.017311,0.1122166,0.01412705,-0.002800806,0.002674703,-0.3529834,2.375155,2.983689
90,2.811108,295,173,497,498,0.005603075,-0.01781727,-0.007471876,-0.7737804,3.017179,0.1122906,0.01098931,-0.009212963,0.003797372,-0.3531842,2.374566,2.984248
90,2.822219,295,173,497,498,0.002980591,-0.008377891,-0.006199713,-0.7739274,3.01714,0.1123289,0.009908254,-0.008161601,0.002734106,-0.3532363,2.374557,2.984179
90,2.83333,295,173,497,498,0.008695065,0.004745039,-0.008076536,-0.7740616,3.016789,0.1123321,0.0120055,-0.009237574,-0.00366339,-0.3533381,2.375083,2.983501
90,2.844441,295,173,497,498,0.008126251,0.01539902,-0.00891804,-0.7744217,3.016615,0.1125857,0.01617471,0.0003778003,-0.004800202,-0.3531522,2.37543,2.982942
90,2.855552,295,173,497,498,0.005448585,0.02590203,-0.00762306,-0.774973,3.016652,0.1125718,0.01614131,0.006783375,-0.0005595866,-0.3529434,2.374769,2.983497
90,2.866663,303,180,517,504,0.00321956,0.02794084,-0.007567198,-0.7756201,3.016785,0.1123593,0.01297711,0.004634711,0.002664387,-0.3530675,2.374485,2.983792
90,2.877774,303,180,517,504,0.003385335,0.02474997,-0.007635267,-0.7758193,3.016699,0.112387,0.01830966,0.001468807,-0.0005511846,-0.3531447,2.374697,2.983248
90,2.888885,303,180,517,504,-0.0006323811,0.01932904,-0.0130599,-0.7759812,3.016498,0.1130011,0.02256514,-0.009210698,-0.01545172,-0.3535432,2.376534,2.981159
90,2.899997,303,180,517,504,0.003951885,0.01319112,-0.01426732,-0.7759684,3.016237,0.1130389,0.0204505,-0.01028887,-0.01436777,-0.3537045,2.376831,2.980688
90,2.911108,339,187,501,497,0.005118089,0.01118694,-0.01750942,-0.7760627,3.015864,0.1132206,0.01935403,-0.002817778,-0.01013515,-0.353475,2.376879,2.980412
90,2.922219,339,187,501,497,0.009442158,0.0103042,-0.01539841,-0.7762353,3.015952,0.1128222,0.01616992,-0.001764469,-0.006923563,-0.3534718,2.376859,2.980346
90,2.93333,339,187,501,497,0.01594128,0.008463588,-0.01332298,-0.7763013,3.015823,0.1125628,0.01299036,0.000366007,-0.0005209118,-0.3534356,2.376385,2.980826
90,2.944441,339,187,501,497,0.02009983,0.01069911,-0.007958516,-0.776492,3.015961,0.1121265,0.007711029,0.001419518,0.00803119,-0.353443,2.375394,2.981785
90,2.955552,339,187,501,497,0.02045329,0.004208339,-0.00276188,-0.7764265,3.016253,0.1115737,0.004511834,0.002461109,0.006972962,-0.3532917,2.375721,2.981348
90,2.966663,303,174,509,497,0.02734184,-0.005100297,0.0002195761,-0.776116,3.016323,0.1110261,0.003496617,-0.006090434,0.002751485,-0.3536502,2.376053,2.980935
90,2.977774,303,174,509,497,0.02876166,-0.01249819,0.002218472,-0.7762837,3.017046,0.1107071,0.001361387,-0.007183467,0.0006396649,-0.3537583,2.376143,2.980874
90,2.988885,303,174,509,497,0.03531601,-0.01540254,0.004271081,-0.7760403,3.017143,0.1100866,0.0003058203,-0.008253072,0.001724428,-0.3538297,2.375609,2.981475
90,2.999996,303,174,509,497,0.04249231,-0.009742629,0.006503807,-0.7760611,3.017328,0.1092919,0.003555318,-0.01461776,0.00173315,-0.3541525,2.375402,2.981545
90,3.011107,333,199,496,496,0.0411441,-0.004546562,0.00875788,-0.7758656,3.017694,0.1088301,0.009882189,-0.006036049,0.001650387,-0.3539224,2.375527,2.981067
90,3.022218,333,199,496,496,0.04338502,-0.00658587,0.009774338,-0.7757245,3.017872,0.108152,0.008754215,0.001411758,0.001622963,-0.3537099,2.375563,2.980963
90,3.033329,333,199,496,496,0.04363424,-0.01092968,0.01393824,-0.7754971,3.0181,0.1072508,0.006518778,0.008822409,-0.005854615,-0.3533802,2.376523,2.979972
90,3.04444,333,199,496,496,0.04502939,-0.01725615,0.01380027,-0.7750986,3.018261,0.1065866,0.008673463,0.001359754,-0.01221922,-0.3535176,2.377018,2.979307
90,3.055551,333,199,496,496,0.050007,-0.01055299,0.01179297,-0.7750565,3.0182,0.105948,0.009791903,-0.008238401,-0.01644303,-0.3539096,2.377698,2.978523
90,3.066662,308,190,494,496,0.05055144,8.86824E-05,0.01413399,-0.7753799,3.018295,0.1049621,0.01403363,-0.007147911,-0.01860613,-0.3539794,2.378382,2.977567
90,3.077773,308,190,494,496,0.0500546,0.009661294,0.01433863,-0.7757027,3.018574,0.1042159,0.01611665,-0.003949203,-0.02183043,-0.3540204,2.379374,2.976404
90,3.088884,308,190,494,496,0.04664735,0.01376216,0.01336572,-0.7757895,3.018667,0.1036183,0.01503074,-0.0007603485,-0.02078254,-0.3540374,2.380308,2.975402
90,3.099995,308,190,494,496,0.04306383,0.02108706,0.0113996,-0.7762443,3.018837,0.1031037,0.01603536,0.005635105,-0.02188415,-0.3538771,2.381196,2.97435
90,3.111106,308,190,494,496,0.03954108,0.02730307,0.01154084,-0.7767013,3.019119,0.1025546,0.01710774,0.003497887,-0.02400656,-0.3540406,2.38188,2.973454
90,3.122217,295,178,505,494,0.03472613,0.0377901,0.008558314,-0.7774801,3.018818,0.1024742,0.01819775,0.001381282,-0.02293838,-0.3541487,2.382567,2.972564
90,3.133328,295,178,505,494,0.03433423,0.04528073,0.006587474,-0.7781608,3.018945,0.1020017,0.02252364,-0.002816912,-0.01763121,-0.3542878,2.383058,2.971786
90,3.144439,295,178,505,494,0.03422107,0.04743061,0.00556793,-0.7787253,3.019079,0.1015288,0.02252782,-0.004957339,-0.01975191,-0.3544454,2.383799,2.970836
90,3.15555,295,178,505,494,0.02783231,0.04714448,0.003447507,-0.7792399,3.019164,0.1013258,0.02147209,-0.006022552,-0.01974679,-0.354455,2.384753,2.969704
90,3.166661,327,185,505,498,0.03097151,0.04835117,0.004530468,-0.779797,3.019358,0.1007554,0.02255573,-0.006008003,-0.01867839,-0.3545237,2.38485,2.96918
90,3.177772,327,185,505,498,0.02682642,0.04600299,0.004491426,-0.7802263,3.019486,0.1005109,0.01936268,-0.00388938,-0.01547171,-0.3545285,2.38505,2.968858
90,3.188883,327,185,505,498,0.02509906,0.0375067,-0.001000829,-0.7805842,3.01955,0.1006148,0.01823417,-0.001794819,-0.02293569,-0.3544795,2.386574,2.96722
90,3.199994,327,185,505,498,0.02218056,0.03204556,-0.002174851,-0.7807962,3.019486,0.1005002,0.01508381,-0.003932212,-0.01864411,-0.3545914,2.386823,2.966904
90,3.211105,327,185,505,498,0.01750161,0.01809572,-0.008843505,-0.7809118,3.019308,0.1014606,0.01620729,-0.007085575,-0.01330025,-0.3545818,2.386365,2.967163
90,3.222216,314,184,498,496,0.01474304,0.009489021,-0.01221594,-0.7807813,3.018979,0.1016113,0.01409052,-0.001737691,-0.003725251,-0.3545088,2.385904,2.967545
90,3.233327,314,184,498,496,0.01361127,-0.009789303,-0.01155745,-0.7801033,3.018724,0.1016608,0.0141126,-0.00172315,-0.000513908,-0.3544646,2.385034,2.968195
90,3.244438,314,184,498,496,0.01141757,-0.02911849,-0.01088789,-0.7793459,3.018677,0.101582,0.01628604,-0.005981204,-0.0004973134,-0.3548369,2.384542,2.968305
90,3.255549,314,184,498,496,0.0150589,-0.03752983,-0.007879863,-0.7787136,3.018587,0.101353,0.01304172,0.001455791,0.001604128,-0.3546793,2.385134,2.96768
90,3.26666,268,177,497,498,0.02089727,-0.04687076,-0.007031534,-0.777733,3.018271,0.1008955,0.01512088,0.003569085,-0.003732616,-0.3547597,2.385272,2.967315
90,3.277771,268,177,497,498,0.02267533,-0.06062,-0.008394386,-0.7766976,3.017949,0.1008433,0.009793326,0.0110247,0.005850624,-0.354357,2.384445,2.968143
90,3.288882,268,177,497,498,0.01874381,-0.06721227,-0.008539182,-0.7760196,3.01741,0.101215,0.01081633,0.01850649,0.009001745,-0.3539501,2.384217,2.968197
90,3.299993,268,177,497,498,0.01745369,-0.06296763,-0.01057649,-0.7754507,3.017088,0.1012821,0.009766914,0.0174373,0.01007883,-0.3537748,2.383907,2.96841
90,3.311104,268,177,497,498,0.0148349,-0.05441698,-0.01461017,-0.7759637,3.01762,0.1013663,0.01399233,0.01530895,0.002609085,-0.3536752,2.384325,2.967807
90,3.322215,290,172,495,497,0.0150193,-0.03736647,-0.01318205,-0.7760201,3.017498,0.1012779,0.01185986,0.01421626,0.001561358,-0.3536129,2.384422,2.967704
90,3.333326,290,172,495,497,0.009885062,-0.02057864,-0.0128305,-0.7761484,3.016935,0.1016465,0.01407872,0.01000899,0.009028453,-0.3535527,2.383407,2.968369
90,3.344437,290,172,495,497,0.005648657,-0.0005580103,-0.01132732,-0.776679,3.016861,0.1017423,0.01836121,0.008991528,0.01114163,-0.3533887,2.382758,2.968686
90,3.355548,290,172,495,497,0.005083768,0.009189181,-0.01747311,-0.7774966,3.017272,0.102169,0.01624266,0.006838718,0.009025547,-0.3533035,2.383093,2.968124
90,3.366659,308,170,491,497,0.0002740864,0.01962736,-0.01830361,-0.7780148,3.017025,0.1024838,0.01197862,0.006803775,0.006923269,-0.3530691,2.383104,2.967947
90,3.37777,308,170,491,497,-0.002082679,0.02383953,-0.02140429,-0.7783754,3.016624,0.1028545,0.009861276,0.003580233,0.004821305,-0.3531384,2.383131,2.967887
90,3.388881,308,170,491,497,-0.001131922,0.02604464,-0.02242539,-0.778752,3.01628,0.1030792,0.003514063,0.002485972,0.01019209,-0.3530872,2.382462,2.968616
90,3.399992,308,170,491,497,-0.005715389,0.03218297,-0.02121697,-0.7792675,3.016109,0.1033759,0.009951621,0.002572868,0.01760707,-0.3530073,2.381381,2.969369
90,3.411103,308,170,491,497,-0.007779501,0.03094092,-0.01804132,-0.7795957,3.016008,0.1035773,0.00995016,0.004719014,0.0207989,-0.3528582,2.380317,2.970328
90,3.422215,313,173,497,497,-0.007396355,0.02351823,-0.01926595,-0.7796819,3.015668,0.1038952,0.008845439,0.004683922,0.01548094,-0.352815,2.3802,2.970446
90,3.433326,313,173,497,497,-0.009904664,0.01068014,-0.02377677,-0.7794758,3.015475,0.1037078,0.007770638,0.00252458,0.01123664,-0.3528406,2.380118,2.970461
90,3.444437,313,173,497,497,-0.006440252,0.005550234,-0.02496081,-0.7794502,3.01504,0.1040028,0.008812019,0.002517775,0.008029897,-0.3528273,2.380249,2.970241
90,3.455548,313,173,497,497,-0.005082806,0.0002558399,-0.02294383,-0.7795898,3.01484,0.1039853,0.00131538,0.008856788,0.01017924,-0.352537,2.379914,2.970756
90,3.466659,313,173,497,497,-0.008171775,-0.002037786,-0.023005,-0.7796106,3.014045,0.1048156,0.00136225,0.003539372,0.01233583,-0.352635,2.379277,2.971508
90,3.47777,288,164,499,498,-0.01113722,-0.006503163,-0.02096114,-0.7794332,3.013767,0.1052098,0.004591689,0.0003753775,0.01339515,-0.3526787,2.378746,2.971877
90,3.488881,288,164,499,498,-0.008791896,-0.01062465,-0.0221208,-0.7792388,3.013332,0.1055528,0.005667474,-0.00497618,0.008083419,-0.3530212,2.378898,2.971634
90,3.499992,288,164,499,498,-0.006545871,-0.012737,-0.01793308,-0.7790183,3.012707,0.1060769,0.009953192,-0.007066023,0.009130894,-0.3531559,2.378405,2.971868
90,3.511103,288,164,499,498,-0.007546058,-0.01392388,-0.01475907,-0.7788399,3.012579,0.1062985,0.005609769,0.0003528735,0.005930811,-0.3527463,2.378658,2.971707
90,3.522214,306,161,487,497,-0.007488096,-0.01501021,-0.01371683,-0.7786571,3.012391,0.1065222,0.004505019,0.004598593,0.005916927,-0.352659,2.378517,2.971888
90,3.533325,306,161,487,497,-0.008407049,-0.01728166,-0.009507638,-0.7784953,3.012223,0.1064242,0.003468822,0.004619292,0.01018511,-0.3524497,2.377933,2.972405
90,3.544436,306,161,487,497,-0.003867479,-0.02244729,-0.006433314,-0.7780984,3.012192,0.1063507,0.001360194,0.005691354,0.01446721,-0.3522243,2.376759,2.973504
90,3.555547,306,161,487,497,0.0004928876,-0.02443905,-0.002222194,-0.777854,3.012321,0.1063656,0.003521698,0.0003729956,0.01234748,-0.3523352,2.37642,2.973742
90,3.566658,306,161,487,497,0.0006910246,-0.02867698,-0.003389712,-0.7773698,3.011881,0.1069589,0.003482009,-0.002864133,0.002776807,-0.3524225,2.376954,2.973267
90,3.577769,282,164,492,498,0.0008012112,-0.03080424,-0.003435351,-0.7769602,3.011792,0.107001,0.008780725,-0.002839449,-0.001518789,-0.3525056,2.377317,2.972676
90,3.58888,282,164,492,498,0.005317833,-0.03592899,-0.0024992,-0.776386,3.011554,0.1072641,0.004505099,-0.0007496881,-0.001501999,-0.3525125,2.377326,2.972715
90,3.599991,282,164,492,498,0.008506577,-0.03574087,-0.003569305,-0.7759945,3.011399,0.1072066,0.001291577,0.0002840518,-0.002552308,-0.3525029,2.377548,2.972626
90,3.611102,282,164,492,498,0.008564528,-0.0368272,-0.002527071,-0.7755492,3.0113,0.1071715,0.002377802,0.003525534,0.004889774,-0.3523085,2.376689,2.973379
90,3.622213,318,168,504,499,0.007733122,-0.02081354,-0.005374298,-0.7756339,3.01124,0.1071011,-0.0008553984,0.004550282,0.001713575,-0.3522137,2.376769,2.973518
90,3.633324,318,168,504,499,0.006231415,-0.01238237,-0.004125022,-0.7757373,3.011242,0.1070617,-0.001882786,-0.0007898607,0.000679889,-0.3523586,2.376769,2.973579
90,3.644435,318,168,504,499,0.006593447,0.00138642,0.001495182,-0.7761309,3.011557,0.1067326,-0.0008227222,-0.0007885173,0.0006719506,-0.3524928,2.37671,2.973693
90,3.655546,318,168,504,499,0.003792705,0.01405438,0.001770174,-0.7768238,3.011654,0.1068764,-0.0008005053,0.001371989,0.005984648,-0.3523128,2.376422,2.973889
90,3.666657,318,168,504,499,0.004407702,0.0225859,0.002999734,-0.7771658,3.011446,0.1071209,-0.001906293,0.005618661,0.004900196,-0.3521524,2.376693,2.97365
90,3.677768,292,164,489,495,0.004344005,0.02371765,-0.0001725922,-0.7774587,3.011395,0.1071065,-0.001900119,0.002407933,0.001719219,-0.3521967,2.376781,2.973597
90,3.688879,292,164,489,495,0.005129611,0.02911362,-0.001125208,-0.7779242,3.011432,0.1070037,0.002339289,-0.0007742976,-0.003622836,-0.3523154,2.377345,2.973117
90,3.69999,292,164,489,495,0.002824064,0.03220401,-0.001055395,-0.7784883,3.011449,0.1072087,0.001267174,-0.0007882017,-0.00468118,-0.3523463,2.377562,2.97293
90,3.711101,292,164,489,495,0.001925422,0.028958,-0.001122177,-0.7787248,3.011469,0.1072077,-0.0008680467,-0.001879369,-0.00679573,-0.3523692,2.377961,2.972631
90,3.722212,299,187,492,495,0.0003977753,0.01719326,-0.003499972,-0.7786375,3.011299,0.1073707,-0.001897633,-0.0007949481,0.000660012,-0.3524417,2.377443,2.973223
90,3.733323,299,187,492,495,0.001123535,0.003438735,-0.0059131,-0.7787173,3.011429,0.1070234,-0.00505721,-0.001868234,0.004946551,-0.35248,2.377,2.973791
90,3.744434,299,187,492,495,0.0006740633,-0.008384421,-0.00296737,-0.7783088,3.01144,0.1070218,-0.00612311,0.0002606027,0.008136613,-0.3525077,2.376609,2.974303
90,3.755545,299,187,492,495,0.005543955,-0.01993906,-3.893068E-05,-0.7777107,3.011291,0.1069254,-0.005044804,0.001337285,0.01025406,-0.3525178,2.376183,2.974598
90,3.766656,299,187,492,495,0.01019643,-0.02725487,0.004054601,-0.7771993,3.011434,0.1065856,-0.001705152,-0.01352854,0.01456101,-0.3530446,2.375293,2.975471
90,3.777767,289,169,507,499,0.01654766,-0.02604229,0.01258759,-0.7769154,3.011935,0.1058852,-0.001633612,-0.02205052,0.01460058,-0.3534974,2.374658,2.976105
90,3.788878,289,169,507,499,0.02109579,-0.03127626,0.01885689,-0.7764158,3.01238,0.1052226,-0.003825872,-0.01889418,0.0103502,-0.3535863,2.374143,2.976807
90,3.799989,289,169,507,499,0.0205275,-0.04090403,0.01865309,-0.775684,3.012558,0.1048758,-0.007102758,-0.01254943,0.00608026,-0.3535613,2.374284,2.976841
90,3.8111,289,169,507,499,0.02216804,-0.05146518,0.01735209,-0.7748328,3.012503,0.1042297,-0.009394153,0.003388415,0.001766288,-0.3531304,2.37445,2.976853
90,3.822211,289,169,507,499,0.02244623,-0.05680604,0.01830294,-0.7740281,3.012729,0.1038026,-0.002039536,0.01194401,-0.002585625,-0.3529274,2.375001,2.976218
90,3.833322,293,166,498,498,0.02440204,-0.05343051,0.01624177,-0.7739626,3.012973,0.1033237,0.004294403,0.01196204,-0.01008918,-0.3528912,2.376178,2.975023
90,3.844433,293,166,498,498,0.0262516,-0.04797944,0.01528747,-0.773562,3.013125,0.1028779,0.009627607,0.007726571,-0.01436435,-0.3529541,2.37693,2.974082
90,3.855544,293,166,498,498,0.02896991,-0.03924959,0.01226497,-0.7731918,3.013048,0.1029093,0.0116544,0.01194982,-0.02399662,-0.3530015,2.378866,2.972192
90,3.866655,293,166,498,498,0.03578861,-0.02742689,0.01675612,-0.770633,3.013007,0.1028832,0.01053561,0.01511993,-0.02720652,-0.3528529,2.380248,2.970905
90,3.877766,283,163,493,497,0.03924125,-0.01143379,0.0256123,-0.7708573,3.013787,0.1018025,0.01797236,0.01838299,-0.02620466,-0.3526116,2.381158,2.969635
90,3.888877,283,163,493,497,0.04691456,0.003679026,0.03549183,-0.7709441,3.014437,0.1020284,0.02109716,0.02157503,-0.03263185,-0.352414,2.382758,2.967863
90,3.899988,283,163,493,497,0.04951477,0.01543073,0.04106312,-0.7713548,3.015336,0.1007692,0.02534511,0.0248164,-0.03054394,-0.352112,2.383731,2.966551
90,3.911099,283,163,493,497,0.0555782,0.02092579,0.04434871,-0.7703566,3.015702,0.1005141,0.02736402,0.03439362,-0.03486756,-0.3517019,2.38555,2.964529
90,3.92221,283,163,493,497,0.05940164,0.02958717,0.04771979,-0.7708488,3.016666,0.09905734,0.03055484,0.0311992,-0.03913588,-0.3516155,2.38725,2.962589
90,3.933321,303,156,497,496,0.06659745,0.03404151,0.05206145,-0.7697638,3.017525,0.09812737,0.0294727,0.02903307,-0.04445242,-0.3515399,2.38946,2.960224
90,3.944432,303,156,497,496,0.07450806,0.04613711,0.05442935,-0.7705542,3.018638,0.09627913,0.03156359,0.03009417,-0.04873266,-0.351337,2.391506,2.95794
90,3.955544,303,156,497,496,0.07958779,0.05043603,0.0630388,-0.7703375,3.020061,0.09485327,0.03366261,0.03222001,-0.05194546,-0.3511532,2.393265,2.955773
90,3.966655,303,156,497,496,0.08155578,0.05369184,0.06523406,-0.7709543,3.021276,0.09302794,0.03893436,0.03650936,-0.05519126,-0.3507687,2.395288,2.953273
90,3.977766,315,159,496,494,0.09545331,0.05295859,0.07903747,-0.7699977,3.022997,0.0906817,0.03994729,0.0386237,-0.06053442,-0.3504358,2.397861,2.950369
90,3.988877,315,159,496,494,0.1044585,0.04358303,0.08843369,-0.7694283,3.025225,0.08806221,0.04529458,0.03653373,-0.06055497,-0.3503106,2.399746,2.947929
90,3.999988,315,159,496,494,0.1154027,0.03856713,0.1000198,-0.7695917,3.027315,0.08495963,0.05166404,0.03657103,-0.06379199,-0.35008,2.402263,2.94483
90,4.011099,315,159,496,494,0.1277838,0.02513188,0.108256,-0.7687593,3.02979,0.08228742,0.05794811,0.04190584,-0.07450026,-0.3496038,2.405372,2.941022
89.8,4.02221,315,159,496,494,0.1327443,0.01133271,0.1143528,-0.7675715,3.031836,0.07961573,0.06206797,0.04719756,-0.0894664,-0.3492331,2.409781,2.936075
89.60001,4.033321,284,163,500,497,0.1440551,-0.000969802,0.118325,-0.7671124,3.033832,0.07625962,0.06308176,0.05038562,-0.09374605,-0.3488192,2.413335,2.931969
89.40001,4.044433,284,163,500,497,0.1498426,-0.009328929,0.1245322,-0.7668673,3.036162,0.07263239,0.0609123,0.05248456,-0.09693784,-0.3484294,2.416973,2.927948
89.20001,4.055544,284,163,500,497,0.1577387,-0.01751972,0.1275348,-0.766347,3.038267,0.06916069,0.05965967,0.06733389,-0.1087201,-0.3476618,2.422043,2.922386
89.00002,4.066655,284,163,500,497,0.1599959,-0.01956967,0.1296536,-0.7660929,3.041181,0.06502481,0.05853299,0.06942351,-0.1161783,-0.3471526,2.426695,2.917325
88.80002,4.077766,297,160,495,496,0.1672937,-0.01612837,0.1361016,-0.7658969,3.043588,0.06123992,0.06808777,0.06840835,-0.1226272,-0.346791,2.43155,2.911764
88.60002,4.088878,297,160,495,496,0.1692767,-0.01284249,0.1372745,-0.7657909,3.046683,0.05680256,0.07558615,0.05990914,-0.1290212,-0.3468655,2.436028,2.906348
88.40002,4.099989,297,160,495,496,0.1667186,-0.004534349,0.1417196,-0.7658916,3.049096,0.05328399,0.07984227,0.05886944,-0.1311744,-0.3466168,2.440786,2.900858
88.20003,4.1111,297,160,495,496,0.1693548,0.006290101,0.140898,-0.7661297,3.051733,0.04946449,0.07442103,0.06519166,-0.1375644,-0.3460671,2.446406,2.894928
88.00003,4.122211,297,160,495,496,0.1722381,0.01290061,0.1378667,-0.7662175,3.054491,0.04503192,0.07232332,0.06198035,-0.1364706,-0.3458924,2.451042,2.889838
87.80003,4.133323,278,151,495,497,0.178078,0.02380004,0.1412802,-0.7667012,3.056936,0.04114318,0.06911597,0.06622392,-0.1332734,-0.3455313,2.455625,2.884781
87.60004,4.144434,278,151,495,497,0.1816774,0.03663857,0.1479687,-0.7671496,3.060196,0.03683791,0.06060836,0.06724145,-0.1300313,-0.3450232,2.460336,2.879856
87.40004,4.155545,278,151,495,497,0.1905382,0.05093969,0.1493159,-0.7680413,3.062673,0.03268604,0.0628406,0.06090286,-0.1225587,-0.3448431,2.464029,2.875616
87.20004,4.166656,278,151,495,497,0.1870097,0.05817876,0.1516208,-0.7688684,3.065464,0.02807291,0.06823456,0.05456185,-0.1214833,-0.3447015,2.467703,2.871156
87.00005,4.177768,278,151,495,497,0.1796097,0.05679677,0.1484133,-0.7694325,3.067718,0.02466194,0.06720504,0.05029196,-0.1214566,-0.3446407,2.471932,2.866463
86.80005,4.188879,313,151,499,494,0.1705781,0.02556607,0.1403132,-0.7694038,3.07196,0.01764078,0.05762537,0.0513005,-0.1192718,-0.3440634,2.480508,2.85729
86.60005,4.19999,313,151,499,494,0.1743246,0.01515414,0.1379555,-0.7694794,3.074166,0.01386442,0.05016429,0.0501719,-0.1213589,-0.3438732,2.485438,2.852301
86.40005,4.211102,313,151,499,494,0.1757638,0.007854449,0.1335347,-0.7693521,3.076133,0.01044811,0.05019114,0.05019351,-0.1170969,-0.3436559,2.489245,2.848164
86.20006,4.222213,313,151,499,494,0.1757638,0.007854449,0.1335347,-0.7693521,3.076133,0.01044811,0.05019114,0.05019351,-0.1170969,-0.3436559,2.489245,2.848164
86.00006,4.233324,288,143,498,498,0.1949761,0.008319326,0.15693,-0.7691353,3.081678,0.001604288,0.05663233,0.05563348,-0.1043807,-0.3429289,2.496355,2.83988
85.80006,4.244435,288,143,498,498,0.2065946,0.01079289,0.1686653,-0.7691651,3.084625,-0.003059439,0.06929854,0.06851032,-0.1055861,-0.3423297,2.500571,2.834844
85.60007,4.255547,288,143,498,498,0.2136982,0.01826257,0.1858549,-0.7695726,3.088216,-0.008190818,0.09041163,0.08248113,-0.1175069,-0.3416037,2.506356,2.82785
85.40007,4.266658,288,143,498,498,0.2213925,0.01416811,0.1964041,-0.7696392,3.091799,-0.0134431,0.1019742,0.09427015,-0.1272072,-0.3405299,2.512043,2.820986
85.20007,4.277769,251,150,507,497,0.2244342,0.01720967,0.2113599,-0.7699412,3.095186,-0.01808393,0.1242745,0.0944099,-0.1380066,-0.3401219,2.518174,2.813269
85.00008,4.28888,251,150,507,497,0.235554,0.029313,0.2211792,-0.7706746,3.09906,-0.02380813,0.1317784,0.07628059,-0.1550122,-0.3405118,2.524508,2.805614
84.80008,4.299992,251,150,507,497,0.235554,0.029313,0.2211792,-0.7706746,3.09906,-0.02380813,0.1317784,0.07628059,-0.1550122,-0.3405118,2.524508,2.805614
84.60008,4.311103,251,150,507,497,0.252371,0.03419955,0.2340456,-0.7719098,3.107143,-0.03532523,0.1357907,0.08477396,-0.1763956,-0.3397911,2.538305,2.789319
84.40009,4.322214,302,179,503,498,0.2579234,0.03009064,0.2403388,-0.7723125,3.11121,-0.04119324,0.1273054,0.08144134,-0.1816318,-0.3399808,2.545228,2.781663
84.20009,4.333325,302,179,503,498,0.2677461,0.02619242,0.2476977,-0.7728754,3.115536,-0.0476333,0.1293155,0.09316382,-0.1859492,-0.3393373,2.552386,2.773316
84.00009,4.344437,302,179,503,498,0.2764541,0.02317182,0.2603986,-0.7732041,3.120135,-0.05422356,0.14194,0.1113746,-0.1871814,-0.3384926,2.560202,2.764017
83.80009,4.355548,302,179,503,498,0.2838249,0.02544625,0.2721423,-0.7738811,3.124703,-0.06089105,0.1428783,0.123078,-0.191491,-0.337798,2.567729,2.755361
83.6001,4.366659,302,179,503,498,0.2838249,0.02544625,0.2721423,-0.7738811,3.124703,-0.06089105,0.1428783,0.123078,-0.191491,-0.337798,2.567729,2.755361
83.4001,4.37777,302,179,503,498,0.2890969,0.02671807,0.2753529,-0.7743987,3.129167,-0.06743976,0.1439359,0.1198661,-0.1968094,-0.3375413,2.575618,2.746287
83.2001,4.388882,370,162,484,499,0.2966186,0.02583973,0.2849067,-0.775438,3.138486,-0.08081735,0.1387652,0.1071022,-0.1871233,-0.3369788,2.588945,2.730867
83.00011,4.399993,370,162,484,499,0.2943417,0.02795788,0.2839032,-0.7770742,-3.14015,-0.08669814,0.1237309,0.1036857,-0.2083248,-0.3371647,2.598607,2.720888
82.80011,4.411104,370,162,484,499,0.2887907,0.03196986,0.2819003,-0.7776595,-3.135273,-0.09321543,0.1215263,0.1068471,-0.2157703,-0.3368009,2.607156,2.711466
82.60011,4.422215,370,162,484,499,0.2896299,0.03632623,0.279859,-0.778492,-3.131026,-0.09949357,0.1193498,0.1164414,-0.2104744,-0.3363157,2.615147,2.702659
82.40012,4.433327,500,161,492,499,0.2900729,0.04819058,0.2769214,-0.7802125,-3.126796,-0.1056439,0.120442,0.118615,-0.201969,-0.33601,2.622278,2.694693
82.20012,4.444438,500,161,492,499,0.2879899,0.04710684,0.2726413,-0.7810231,-3.122748,-0.1116445,0.1162203,0.1196795,-0.1944894,-0.3356297,2.629478,2.686699
82.00012,4.455549,500,161,492,499,0.2826441,0.04695788,0.2683958,-0.7823408,-3.118627,-0.1173069,0.1152183,0.1143528,-0.1912619,-0.3356089,2.636453,2.678897
81.80013,4.46666,500,161,492,499,0.2792266,0.05109181,0.2663607,-0.7833784,-3.114609,-0.1232149,0.107805,0.1132501,-0.1858822,-0.335349,2.643334,2.671414
81.60013,4.477772,525,141,488,499,0.2769705,0.0530832,0.2675177,-0.7843419,-3.10968,-0.1295095,0.1045506,0.1185234,-0.1869682,-0.3353229,2.651376,2.662841
81.40013,4.488883,525,141,488,499,0.2676562,0.0474034,0.2610268,-0.7850536,-3.105927,-0.1348848,0.1045305,0.1217216,-0.183792,-0.3351162,2.658619,2.655026
81.20013,4.499994,525,141,488,499,0.2553776,0.03726248,0.2566003,-0.7856176,-3.101733,-0.1404168,0.10346,0.1238687,-0.1805967,-0.3346113,2.665915,2.647084
81.00014,4.511106,525,141,488,499,0.2500374,0.03839175,0.2469158,-0.788415,-3.100738,-0.1441644,0.1034889,0.1196027,-0.1816422,-0.3345282,2.673186,2.639062
80.80014,4.522217,525,141,488,499,0.2420206,0.02839969,0.2456588,-0.7888464,-3.096991,-0.1492606,0.1067103,0.1175014,-0.1795228,-0.3344717,2.680032,2.631392
80.60014,4.533328,525,141,488,499,0.2420206,0.02839969,0.2456588,-0.7888464,-3.096991,-0.1492606,0.1067103,0.1175014,-0.1795228,-0.3344717,2.680032,2.631392
80.40015,4.544439,484,141,477,497,0.2458281,0.01687233,0.2464529,-0.7901391,-3.089677,-0.1600192,0.1078876,0.1058051,-0.1752219,-0.3346262,2.693092,2.61683
80.20015,4.555551,484,141,477,497,0.2407569,0.01352589,0.2421069,-0.79114,-3.086508,-0.1659773,0.1068697,0.100465,-0.173063,-0.3349127,2.699358,2.609921
80.00015,4.566662,484,141,477,497,0.2407569,0.01352589,0.2421069,-0.79114,-3.086508,-0.1659773,0.1068697,0.100465,-0.173063,-0.3349127,2.699358,2.609921
79.80016,4.577773,484,141,477,497,0.2345476,0.009935841,0.2452435,-0.7916411,-3.082582,-0.171205,0.1079398,0.1015492,-0.1709445,-0.3347647,2.70595,2.602384
79.60016,4.588884,494,142,491,497,0.2283301,0.006448586,0.243051,-0.7921743,-3.078948,-0.1762523,0.106898,0.09619163,-0.1730528,-0.3351982,2.712644,2.595019
79.40016,4.599996,494,142,491,497,0.2210948,0.001891498,0.2397766,-0.792536,-3.075356,-0.1809772,0.1090638,0.09945054,-0.1634943,-0.3349878,2.718568,2.58814
79.20016,4.611107,494,142,491,497,0.211789,-0.003805868,0.23435,-0.7928976,-3.071935,-0.1855685,0.1122344,0.09732872,-0.1667186,-0.3352137,2.725678,2.580358
79.00017,4.622218,494,142,491,497,0.208857,-0.009154564,0.2278512,-0.7930915,-3.068625,-0.1901412,0.1047459,0.09938648,-0.1688102,-0.33526,2.732563,2.572897
78.80017,4.633329,494,142,491,497,0.1994961,-0.01471112,0.2160831,-0.7933216,-3.064841,-0.1944108,0.09628061,0.09722298,-0.1623426,-0.3351242,2.738238,2.566756
78.60017,4.644441,434,150,490,496,0.1952338,-0.01596984,0.2150255,-0.7936348,-3.061085,-0.1982872,0.09531069,0.08978832,-0.1548413,-0.3353063,2.743251,2.561183
78.40018,4.655552,434,150,490,496,0.1884896,-0.009671871,0.2034548,-0.7940971,-3.058461,-0.2020306,0.09328759,0.08448949,-0.145215,-0.3353932,2.74804,2.555683
78.20018,4.666663,434,150,490,496,0.1844131,-0.01410193,0.2012371,-0.794242,-3.055418,-0.2055795,0.09017318,0.08558974,-0.1334734,-0.3350917,2.752616,2.550259
78.00018,4.677774,434,150,490,496,0.1757811,-0.01232662,0.1970342,-0.7945866,-3.052531,-0.209342,0.08603172,0.09207119,-0.1068438,-0.3343008,2.755718,2.546468
77.80019,4.688886,431,156,492,497,0.1737379,-0.01445116,0.1917154,-0.7948705,-3.048817,-0.2137096,0.07757699,0.08669715,-0.1014298,-0.3341692,2.75944,2.542475
77.60019,4.699997,431,156,492,497,0.1599362,-0.01600794,0.1810617,-0.7950202,-3.046429,-0.2167525,0.07239652,0.06853819,-0.1023757,-0.3346102,2.76279,2.538669
77.40019,4.711108,431,156,492,497,0.1554411,-0.01285439,0.1715611,-0.7950516,-3.043919,-0.2194413,0.07141647,0.05679434,-0.1033768,-0.3351439,2.765952,2.534994
77.2002,4.722219,431,156,492,497,0.1446682,-0.01106938,0.1620373,-0.7954127,-3.041721,-0.2222786,0.07035245,0.05249922,-0.1086762,-0.3355412,2.770141,2.530295
77.0002,4.733331,431,156,492,497,0.1424693,-0.009981116,0.1556726,-0.7956641,-3.039577,-0.2253098,0.0734944,0.05462377,-0.1150906,-0.3357799,2.774697,2.525016
76.8002,4.744442,439,159,490,499,0.141118,-0.005712084,0.1515196,-0.7958053,-3.037088,-0.2278127,0.07549718,0.06635657,-0.119399,-0.3354001,2.779767,2.519331
76.6002,4.755553,439,159,490,499,0.1378107,-0.003705496,0.1494392,-0.7961653,-3.034909,-0.2307613,0.07440131,0.08240147,-0.1034873,-0.334737,2.783905,2.514626
76.40021,4.766665,439,159,490,499,0.1300561,0.0002323464,0.1474421,-0.7969318,-3.032331,-0.2327672,0.06796975,0.0951911,-0.09178877,-0.3339774,2.78826,2.510055
76.20021,4.777776,439,159,490,499,0.1286532,0.006626477,0.1443844,-0.7974942,-3.030343,-0.2355396,0.06467443,0.1036662,-0.09606847,-0.3335418,2.793654,2.504341
76.00021,4.788887,439,159,490,499,0.1298223,0.004599592,0.1422075,-0.7978351,-3.028275,-0.2384541,0.06252939,0.0982903,-0.1045481,-0.3335572,2.798843,2.498833
75.80022,4.799998,383,153,489,499,0.1254763,0.005517054,0.1390605,-0.7983273,-3.025912,-0.2409889,0.06682463,0.08763365,-0.1130487,-0.3339135,2.803795,2.493296
75.60022,4.81111,383,153,489,499,0.1279411,-0.001894332,0.1431911,-0.7987086,-3.022984,-0.2436792,0.06898576,0.08338965,-0.1130392,-0.333987,2.808109,2.488465
75.40022,4.822221,383,153,489,499,0.1327012,-0.01131357,0.1461769,-0.7987949,-3.020539,-0.2469933,0.07330959,0.0759687,-0.1130326,-0.3342805,2.812263,2.483595
75.20023,4.833332,383,153,489,499,0.1308285,-0.01676384,0.1460758,-0.7986021,-3.018009,-0.2498839,0.07448754,0.06962301,-0.1034326,-0.3342214,2.815728,2.479398
75.00023,4.844443,396,153,484,496,0.1237571,-0.004875061,0.12078,-0.7988993,-3.016979,-0.2515292,0.06589258,0.07700749,-0.1055234,-0.3341527,2.820291,2.47465
74.80023,4.855555,396,153,484,496,0.138581,-0.04313429,0.1497697,-0.7980221,-3.013061,-0.2561886,0.05523899,0.08120395,-0.100147,-0.3339694,2.824533,2.470313
74.60023,4.866666,396,153,484,496,0.1514063,-0.04363607,0.1539983,-0.7979225,-3.010254,-0.2601216,0.05519443,0.08439589,-0.1022834,-0.333791,2.829111,2.465402
74.40024,4.877777,396,153,484,496,0.1531629,-0.0362156,0.1605445,-0.7982095,-3.007538,-0.263752,0.06153234,0.08333951,-0.1119078,-0.3340078,2.834446,2.459534
74.20024,4.888888,396,153,484,496,0.1527256,-0.02879707,0.1607199,-0.7982197,-3.004744,-0.266624,0.06258125,0.08440791,-0.1129708,-0.3339934,2.838821,2.454684
74.00024,4.9,365,159,488,496,0.1567277,-0.02346113,0.1704134,-0.7986745,-3.001806,-0.2705223,0.06473542,0.08658612,-0.106603,-0.3338613,2.84318,2.449776
73.80025,4.911111,365,159,488,496,0.1604326,-0.0137284,0.1738401,-0.7990575,-2.99876,-0.273871,0.06896038,0.08876201,-0.1077004,-0.3336419,2.848244,2.444248
73.60025,4.922222,365,159,488,496,0.1635406,-0.01152019,0.1770575,-0.7996631,-2.996066,-0.2777129,0.06578265,0.08660465,-0.1076696,-0.3337207,2.852779,2.439324
73.40025,4.933333,365,159,488,496,0.1687192,-0.009238914,0.1824232,-0.8000509,-2.993137,-0.2811568,0.06253465,0.08761558,-0.1119204,-0.3339274,2.857884,2.434097
73.20026,4.944445,373,162,497,501,0.1718179,-0.007950821,0.1803533,-0.8008615,-2.98983,-0.2849881,0.06041035,0.0844176,-0.1140098,-0.3337724,2.862934,2.428778
73.00026,4.955556,373,162,497,501,0.1738452,-0.005803401,0.1846562,-0.8014805,-2.986944,-0.2889807,0.06032968,0.08650358,-0.1236069,-0.3340808,2.868722,2.422638
72.80026,4.966667,373,162,497,501,0.1720092,0.009015923,0.1860516,-0.8026634,-2.984117,-0.2927549,0.05919986,0.0939586,-0.1225571,-0.3338763,2.873981,2.417144
72.60027,4.977778,373,162,497,501,0.1747252,0.01758833,0.192645,-0.8041926,-2.980869,-0.2962841,0.05909103,0.1035261,-0.126862,-0.3338379,2.880384,2.410422
72.40027,4.98889,373,162,497,501,0.1772123,0.03048925,0.1939862,-0.8053783,-2.978095,-0.299612,0.06019441,0.1046164,-0.1204788,-0.3338571,2.884941,2.405367
72.20027,5.000001,308,146,487,497,0.1768313,0.03788959,0.1962746,-0.8066236,-2.975388,-0.3034448,0.05815067,0.0993019,-0.1140488,-0.3338778,2.889376,2.400586
72.00027,5.011112,308,146,487,497,0.1787488,0.04115329,0.1984567,-0.8077596,-2.97292,-0.3064563,0.05822767,0.08650355,-0.1171795,-0.3343524,2.893527,2.396137
71.80028,5.022223,308,146,487,497,0.1869951,0.04679366,0.2038966,-0.8090619,-2.969779,-0.3109645,0.06034539,0.08222593,-0.1246308,-0.3348382,2.898736,2.390489
71.60028,5.033335,308,146,487,497,0.1850148,0.04352693,0.2027783,-0.810328,-2.966883,-0.3147345,0.06463537,0.07264523,-0.1310086,-0.3355375,2.903767,2.385068
71.40028,5.044446,285,146,491,497,0.1852425,0.0381523,0.2047982,-0.811128,-2.963848,-0.3181497,0.06569633,0.07370431,-0.1310167,-0.3360089,2.908195,2.380097
71.20029,5.055557,285,146,491,497,0.185252,0.03806219,0.2090585,-0.812287,-2.960848,-0.3222696,0.05924688,0.08218244,-0.1288833,-0.3361298,2.913609,2.374493
71.00029,5.066669,285,146,491,497,0.1862769,0.03908157,0.2133196,-0.813347,-2.958177,-0.3262969,0.06135494,0.08539819,-0.127846,-0.3364047,2.918656,2.369027
70.80029,5.07778,285,146,491,497,0.1893056,0.04241537,0.2144489,-0.8146296,-2.955299,-0.3304418,0.06346741,0.0875466,-0.1278698,-0.3366555,2.923894,2.363328
70.6003,5.088891,285,146,491,497,0.1902665,0.04455828,0.2166255,-0.8160245,-2.952352,-0.3346379,0.06250079,0.07690863,-0.1246234,-0.3371226,2.928212,2.358723
70.4003,5.100002,271,143,496,498,0.1920061,0.05213653,0.2157163,-0.8175644,-2.94961,-0.3387179,0.07206586,0.0812602,-0.1225756,-0.3373384,2.933231,2.352934
70.2003,5.111114,271,143,496,498,0.1858527,0.08377766,0.2165773,-0.8188869,-2.946634,-0.3422386,0.08051372,0.09304688,-0.1205634,-0.337325,2.938951,2.346437
70.00031,5.122225,271,143,496,498,0.1842285,0.05711591,0.2126404,-0.8203053,-2.944304,-0.3455862,0.08361341,0.09730789,-0.1291192,-0.3376611,2.945153,2.339465
69.80031,5.133336,271,143,496,498,0.2001691,0.03728523,0.2302964,-0.8210307,-2.94027,-0.3504283,0.07936171,0.09512215,-0.1311971,-0.3380574,2.94969,2.334399
69.60031,5.144447,271,143,496,498,0.2037864,0.02881419,0.2354351,-0.821893,-2.936836,-0.3547512,0.0782862,0.09938639,-0.1280067,-0.3381527,2.954728,2.328762
69.40031,5.155559,246,141,494,499,0.2010284,0.02020737,0.2320623,-0.8227543,-2.933676,-0.3590452,0.07190378,0.09826745,-0.1279598,-0.3384835,2.959978,2.323174
69.20032,5.16667,246,141,494,499,0.2024733,0.01285096,0.2308414,-0.823753,-2.930425,-0.3634922,0.06981133,0.09293109,-0.1279083,-0.3387168,2.964689,2.318095
69.00032,5.177781,246,141,494,499,0.2067886,0.01196276,0.2329441,-0.8248097,-2.927106,-0.3681634,0.0666725,0.08865799,-0.124672,-0.3390816,2.969316,2.313078
68.80032,5.188892,246,141,494,499,0.2058063,0.009678576,0.237167,-0.8257163,-2.923517,-0.3723094,0.06883444,0.09085482,-0.114037,-0.3390279,2.973449,2.308599
68.60033,5.200004,246,135,493,498,0.2035778,0.0116054,0.2414749,-0.8269445,-2.920074,-0.376857,0.07516873,0.1026559,-0.1077411,-0.3388111,2.978758,2.302567
68.40033,5.211115,246,135,493,498,0.2047544,0.01046966,0.2433695,-0.826152,-2.919916,-0.3797156,0.07839359,0.1048541,-0.1003202,-0.3387227,2.983719,2.296956
68.20033,5.222226,246,135,493,498,0.2059931,0.007243667,0.2475605,-0.8272183,-2.916284,-0.3845136,0.07630608,0.1005801,-0.09922139,-0.3388723,2.988183,2.291949
68.00034,5.233337,246,135,493,498,0.2060063,0.006140269,0.2464636,-0.8274367,-2.912828,-0.3886926,0.07527931,0.08880596,-0.1087698,-0.3397799,2.993093,2.286502
67.80034,5.244449,246,135,493,498,0.2080597,0.007476557,0.2390326,-0.8285632,-2.909803,-0.3930821,0.07214046,0.08346545,-0.1076573,-0.3400756,2.997355,2.281688
67.60034,5.25556,294,143,495,498,0.2099001,0.01179378,0.2401897,-0.8294479,-2.90642,-0.3968201,0.07430182,0.08564837,-0.1002242,-0.3401379,3.001464,2.276948
67.40034,5.266671,294,143,495,498,0.2045203,0.01263075,0.2380953,-0.8306708,-2.903133,-0.4011551,0.07313342,0.09629604,-0.09918813,-0.3399339,3.006346,2.271822
67.20035,5.277782,294,143,495,498,0.1962638,0.02733618,0.2288341,-0.8321286,-2.900675,-0.4045027,0.07199222,0.09944839,-0.1066525,-0.3402311,3.011795,2.265907
67.00035,5.288894,294,143,495,498,0.1860615,0.03854628,0.2291104,-0.8339322,-2.8976,-0.4080964,0.07416134,0.09306875,-0.1077034,-0.3406844,3.01607,2.26113
66.80035,5.300005,254,136,512,503,0.1562033,0.0989939,0.1739849,-0.8368574,-2.898583,-0.4083398,0.08585876,0.09422867,-0.1088366,-0.3408015,3.020548,2.25571
66.60036,5.311116,254,136,512,503,0.1616411,0.09752913,0.2059185,-0.8391322,-2.895042,-0.4125567,0.09437378,0.09964994,-0.1046682,-0.3409384,3.025923,2.249219
66.40036,5.322227,254,136,512,503,0.1784024,0.08303452,0.225816,-0.8407706,-2.891626,-0.4171368,0.0996955,0.09005079,-0.1174423,-0.3417017,3.030715,2.243518
66.20036,5.333339,254,136,512,503,0.1913221,0.0803732,0.2321408,-0.8427078,-2.888306,-0.4215635,0.09877647,0.07192768,-0.118418,-0.342532,3.034078,2.239273
66.00037,5.34445,254,136,512,503,0.1884485,0.07389985,0.2277749,-0.8442471,-2.885249,-0.4255518,0.09136911,0.06763349,-0.1151612,-0.3429917,3.038491,2.234391
65.80037,5.355561,239,135,501,499,0.1856715,0.06547419,0.2158813,-0.8455669,-2.883021,-0.4290118,0.08181608,0.06436177,-0.1140181,-0.3435691,3.042231,2.230207
65.60037,5.366673,239,135,501,499,0.186319,0.05281952,0.2113592,-0.8470194,-2.880363,-0.4328127,0.07751248,0.06859011,-0.1140079,-0.3439739,3.046693,2.22532
65.40038,5.377784,239,135,501,499,0.1813779,0.04516657,0.208011,-0.8482562,-2.877829,-0.4363818,0.07425158,0.07709002,-0.1129603,-0.3443009,3.051501,2.220053
65.20038,5.388895,239,135,501,499,0.1835612,0.04414649,0.211208,-0.8499202,-2.874751,-0.4404432,0.0783757,0.09309704,-0.1120027,-0.3445465,3.056876,2.214124
65.00038,5.400006,264,137,501,501,0.1816558,0.03975923,0.2121846,-0.8512321,-2.872065,-0.4441812,0.08471861,0.09848832,-0.1099398,-0.3447728,3.061797,2.208611
64.80038,5.411118,264,137,501,501,0.1834912,0.02491608,0.2129361,-0.8523905,-2.869172,-0.4481557,0.08039743,0.1080543,-0.1067595,-0.3447739,3.067206,2.20274
64.60039,5.422229,264,137,501,501,0.1787152,0.01407218,0.2095198,-0.8532278,-2.866423,-0.4518234,0.07508138,0.1058835,-0.1088511,-0.345127,3.072654,2.196823
64.40039,5.43334,264,137,501,501,0.181199,-0.01343471,0.2036146,-0.8532294,-2.863031,-0.4561958,0.06981243,0.09409136,-0.1151541,-0.3458397,3.076925,2.192161
64.20039,5.444451,264,137,501,501,0.1823432,-0.03565324,0.1978154,-0.8533892,-2.860037,-0.4602326,0.06454485,0.0855252,-0.1161445,-0.3464208,3.081113,2.187709
64.0004,5.455563,226,136,501,500,0.1862983,-0.05031119,0.1942993,-0.8534883,-2.857022,-0.4643903,0.06141038,0.07911158,-0.115029,-0.3470402,3.08488,2.183552
63.8004,5.466674,226,136,501,500,0.187627,-0.05555501,0.1931189,-0.8538339,-2.854102,-0.4683115,0.06031785,0.08551995,-0.1097352,-0.3473598,3.089742,2.17844
63.6004,5.477785,226,136,501,500,0.190107,-0.06186171,0.1929208,-0.8533636,-2.851804,-0.4722632,0.0602646,0.09512676,-0.1055177,-0.3474791,3.094685,2.173133
63.40039,5.488896,226,136,501,500,0.1899441,-0.05867404,0.1940643,-0.8541461,-2.848833,-0.4762984,0.06025572,0.1004819,-0.09913583,-0.3473705,3.098897,2.168574
63.20039,5.500008,226,136,501,500,0.1888798,-0.05875546,0.1951364,-0.8545823,-2.845727,-0.480373,0.0623256,0.1111897,-0.09388327,-0.3473178,3.104769,2.162366
63.00039,5.511119,238,137,498,499,0.1868535,-0.06098518,0.195095,-0.8550404,-2.842748,-0.4842367,0.06455261,0.09734483,-0.09703048,-0.3478578,3.108528,2.15805
62.80039,5.52223,238,137,498,499,0.1818178,-0.04628265,0.1943547,-0.8560486,-2.84022,-0.4876605,0.06460556,0.08451959,-0.1044345,-0.3487958,3.111984,2.154176
62.60039,5.533341,238,137,498,499,0.1832118,-0.03216459,0.1861268,-0.8569019,-2.838047,-0.4911444,0.06778353,0.07704078,-0.1161424,-0.3497844,3.116278,2.149341
62.40039,5.544453,238,137,498,499,0.1844004,-0.01394697,0.1854547,-0.8581951,-2.835631,-0.4948159,0.07095445,0.07491181,-0.1214786,-0.3505583,3.120531,2.144563
62.20039,5.555564,215,134,498,499,0.1870991,-0.004231692,0.1867204,-0.8593632,-2.833329,-0.4984569,0.0709061,0.07809292,-0.1246888,-0.3512816,3.125156,2.139449
62.00039,5.566675,215,134,498,499,0.1871956,0.01488661,0.1903004,-0.8606815,-2.831392,-0.5019787,0.07522218,0.0749409,-0.1215032,-0.3519362,3.128633,2.135166
61.80039,5.577786,215,134,498,499,0.1893459,0.03521635,0.1928637,-0.8625504,-2.829338,-0.5054674,0.08165389,0.07609451,-0.1140938,-0.3523506,3.132376,2.130564
61.60039,5.588898,215,134,498,499,0.186773,0.04353287,0.1973103,-0.8643641,-2.827144,-0.5086989,0.08271101,0.07824934,-0.1109171,-0.3528683,3.136424,2.12596
61.40039,5.600009,215,134,498,499,0.1903168,0.05754865,0.1997338,-0.8664909,-2.825217,-0.5121514,0.07735628,0.07604145,-0.1161985,-0.35372,3.140236,2.121833
61.20039,5.61112,220,152,508,503,0.1888748,0.06487131,0.2030888,-0.8684366,-2.823132,-0.5155608,0.07733905,0.07388659,-0.1215152,-0.3545903,-3.138866,2.117144
61.00039,5.622231,220,152,508,503,0.1932487,0.06289656,0.2062374,-0.8701639,-2.820795,-0.5193569,0.07498628,0.08549486,-0.1396563,-0.3556737,-3.133388,2.111262
60.80038,5.633343,220,152,508,503,0.1964961,0.0619859,0.2072808,-0.872042,-2.818593,-0.5230044,0.07055812,0.09927286,-0.1471473,-0.356495,-3.12706,2.104666
60.60038,5.644454,220,152,508,503,0.2009644,0.05789623,0.2103841,-0.8738577,-2.816231,-0.5266699,0.08244876,0.08341625,-0.1386363,-0.3574687,-3.124415,2.101259
60.40038,5.655565,220,156,510,499,0.1793782,0.123241,0.1457523,-0.8765613,-2.818044,-0.5269634,0.08786976,0.07816942,-0.1311909,-0.358193,-3.120835,2.096797
60.20038,5.666677,220,156,510,499,0.1830942,0.07252616,0.1819635,-0.877601,-2.814429,-0.531144,0.08359399,0.08241491,-0.1269269,-0.3588812,-3.116294,2.091841
60.00038,5.677788,220,156,510,499,0.2029206,0.04015111,0.1972177,-0.8785385,-2.811206,-0.5360086,0.06957425,0.09075103,-0.1417866,-0.3599678,-3.11063,2.086155
59.80038,5.688899,220,156,510,499,0.2164936,0.02542882,0.2203213,-0.8800997,-2.807505,-0.5410233,0.07256811,0.1045661,-0.1546224,-0.3606858,-3.104515,2.079548
59.60038,5.70001,220,156,510,499,0.2176633,0.02340549,0.2181447,-0.8815473,-2.805145,-0.5449387,0.08221363,0.09611569,-0.1567784,-0.3618591,-3.099974,2.074107
59.40038,5.711122,223,162,493,499,0.2144254,0.02421843,0.2224292,-0.8831905,-2.802586,-0.5488306,0.08977352,0.09408795,-0.1461563,-0.3624935,-3.096449,2.069367
59.20038,5.722233,223,162,493,499,0.217457,0.02749165,0.226747,-0.8849311,-2.800108,-0.5528206,0.09738093,0.0942287,-0.1248865,-0.3626336,-3.093677,2.065394
59.00038,5.733344,223,162,493,499,0.219649,0.02644795,0.2309823,-0.8865733,-2.797362,-0.5570492,0.1006168,0.08679677,-0.1280703,-0.3635534,-3.089347,2.060167
58.80038,5.744455,223,162,493,499,0.2188593,0.02109242,0.2308641,-0.8881189,-2.794854,-0.5610008,0.09518427,0.08989727,-0.1386842,-0.3645132,-3.084592,2.054935
58.60038,5.755567,188,158,499,500,0.2236102,0.01174002,0.2306558,-0.8893903,-2.791982,-0.5654429,0.09408766,0.08772386,-0.1461243,-0.3657277,-3.079949,2.049576
58.40038,5.766678,188,158,499,500,0.2196231,0.006258773,0.228399,-0.890674,-2.78964,-0.5691596,0.08978335,0.08872829,-0.1514263,-0.3668552,-3.075154,2.044219
58.20037,5.777789,188,158,499,500,0.2218082,0.005282797,0.229439,-0.8921004,-2.786878,-0.5734143,0.09409571,0.08451645,-0.1492965,-0.3677639,-3.071197,2.039315
58.00037,5.7889,188,158,499,500,0.221752,0.006318033,0.2326493,-0.8939779,-2.784491,-0.5771981,0.08226509,0.09612773,-0.1514138,-0.3688595,-3.065331,2.033237
57.80037,5.800012,188,158,499,500,0.2205264,0.009423733,0.2348288,-0.8956296,-2.782138,-0.5810538,0.08881304,0.0909299,-0.1343873,-0.3694135,-3.061885,2.028888
57.60037,5.811123,205,165,503,500,0.2201373,0.01694323,0.2317915,-0.8973649,-2.779828,-0.5849431,0.08884563,0.08774216,-0.1333148,-0.3703941,-3.057827,2.024123
57.40037,5.822234,205,165,503,500,0.2198732,0.02220391,0.2351003,-0.8992792,-2.77726,-0.5890257,0.09641267,0.0814456,-0.1248159,-0.3711871,-3.05475,2.019997
57.20037,5.833345,205,165,503,500,0.2153471,0.02725668,0.237348,-0.9011461,-2.774728,-0.5928665,0.09633514,0.08889267,-0.1269798,-0.3719887,-3.05006,2.014569
57.00037,5.844457,205,165,503,500,0.2164276,0.02728221,0.2383899,-0.9026529,-2.772353,-0.5969449,0.1058007,0.09213817,-0.1398426,-0.373143,-3.044111,2.007721
56.80037,5.855568,205,165,503,500,0.2164897,0.02615112,0.2415625,-0.9044377,-2.769648,-0.60102,0.1121728,0.09110785,-0.1441417,-0.3742924,-3.039698,2.002177
56.60037,5.866679,236,169,492,500,0.2151191,0.03235382,0.2470103,-0.9062748,-2.767073,-0.6051096,0.1195812,0.09756772,-0.1431684,-0.3753161,-3.034631,1.995952
56.40037,5.87779,236,169,492,500,0.2200109,0.04102151,0.2525117,-0.9084628,-2.76446,-0.609295,0.1238279,0.1018725,-0.14002,-0.376213,-3.030132,1.990292
56.20037,5.888902,236,169,492,500,0.2175545,0.04727872,0.2537117,-0.9107223,-2.762116,-0.6130661,0.1249525,0.1051392,-0.1283343,-0.3768117,-3.025403,1.98435
56.00037,5.900013,236,169,492,500,0.2182202,0.05477325,0.2570345,-0.9134898,-2.760571,-0.6161005,0.1239769,0.1041305,-0.1144594,-0.3769758,-3.021834,1.979858
55.80037,5.911124,199,170,492,499,0.2213413,0.05593481,0.2602448,-0.9156848,-2.758018,-0.6199019,0.1240061,0.09986468,-0.1155057,-0.3777801,-3.017961,1.974872
55.60036,5.922235,199,170,492,499,0.2258088,0.05186289,0.2622707,-0.9177264,-2.75549,-0.6238614,0.1271634,0.1030823,-0.1155439,-0.3785662,-3.013671,1.969548
55.40036,5.933347,199,170,492,499,0.2230923,0.08371675,0.2629481,-0.9208673,-2.753764,-0.6273198,0.137835,0.1042571,-0.111359,-0.3791404,-3.009525,1.963881
55.20036,5.944458,199,170,492,499,0.222618,0.07145522,0.2371253,-0.9224972,-2.752532,-0.6302631,0.1529288,0.08950517,-0.1028833,-0.3799223,-3.006955,1.95946
55.00036,5.955569,199,170,492,499,0.2475604,0.06444751,0.2763469,-0.9253904,-2.748747,-0.6359719,0.154128,0.08423586,-0.09007609,-0.3802051,-3.004703,1.955632
54.80036,5.966681,195,175,493,500,0.2580366,0.06982198,0.2976741,-0.9274538,-2.746139,-0.6414671,0.1541654,0.08318986,-0.0858103,-0.3806541,-3.001605,1.951045
54.60036,5.977792,195,175,493,500,0.2599624,0.07408406,0.303079,-0.9303242,-2.743522,-0.6460136,0.1563205,0.08430156,-0.07943366,-0.3809279,-2.998426,1.946408
54.40036,5.988903,195,175,493,500,0.261176,0.07284746,0.3115143,-0.9322667,-2.740968,-0.6513826,0.1593888,0.101386,-0.07633579,-0.3810691,-2.993668,1.940195
54.20036,6.000014,195,175,493,500,0.2559749,0.0703783,0.3146723,-0.9350193,-2.737967,-0.6558705,0.1708878,0.1163288,-0.09140339,-0.3818824,-2.988037,1.932662
54.00036,6.011126,211,181,489,498,0.2559167,0.0725213,0.3125639,-0.9373768,-2.735322,-0.6610296,0.1792865,0.1098893,-0.1180636,-0.3834046,-2.983521,1.926255
53.80036,6.022237,211,181,489,498,0.2548948,0.07151417,0.3072187,-0.9399893,-2.732716,-0.665386,0.1779919,0.1065252,-0.1563989,-0.3856092,-2.977742,1.918958
53.60036,6.033348,211,181,489,498,0.2552356,0.06537887,0.2943007,-0.9420938,-2.730197,-0.6702633,0.1704319,0.1085348,-0.1691415,-0.3872838,-2.97265,1.91255
53.40036,6.044459,211,181,489,498,0.2554148,0.06225993,0.2910597,-0.9448139,-2.727373,-0.6750863,0.1673123,0.1074865,-0.1605757,-0.3880513,-2.968528,1.906811
53.20036,6.055571,211,181,489,498,0.2602631,0.05089255,0.2854809,-0.946905,-2.724662,-0.6796957,0.159766,0.1191365,-0.1595099,-0.3891699,-2.963362,1.900407
53.00035,6.066682,212,182,490,499,0.2649534,0.04276027,0.2789498,-0.9495628,-2.721651,-0.6847051,0.1512344,0.1244232,-0.1552093,-0.3901041,-2.957863,1.893745
52.80035,6.077793,212,182,490,499,0.2631242,0.03648145,0.2692464,-0.9517211,-2.719171,-0.6888916,0.1428581,0.1190879,-0.1402103,-0.3907832,-2.954166,1.888963
52.60035,6.088904,212,182,490,499,0.2651998,0.03767838,0.2682289,-0.9542218,-2.716387,-0.6936054,0.1418726,0.1137907,-0.131649,-0.3914905,-2.950598,1.884406
52.40035,6.100016,212,182,490,499,0.2602357,0.03014561,0.2595728,-0.9562192,-2.713876,-0.6976885,0.1471865,0.1073967,-0.1412362,-0.3928993,-2.9468,1.879137
52.20035,6.111127,212,182,490,499,0.2507496,0.02759737,0.2553057,-0.9582298,-2.711053,-0.7017371,0.1492227,0.1009227,-0.1635925,-0.3948776,-2.942505,1.873463
52.00035,6.122238,221,195,494,500,0.2506991,0.02864204,0.2563939,-0.9603886,-2.70863,-0.7059464,0.1470491,0.08802643,-0.1859007,-0.3971801,-2.938563,1.868292
51.80035,6.133349,221,195,494,500,0.2495614,0.02969403,0.2542936,-0.9624968,-2.706242,-0.7098709,0.1406282,0.08473805,-0.1943657,-0.3992015,-2.934635,1.863267
51.60035,6.144461,221,195,494,500,0.2470513,0.03697743,0.2566179,-0.9650784,-2.703559,-0.7141325,0.1300077,0.08465077,-0.1889698,-0.400859,-2.931457,1.859231
51.40035,6.155572,221,195,494,500,0.2477322,0.04445548,0.2578398,-0.9675195,-2.701447,-0.7181256,0.1291882,0.06551974,-0.1760963,-0.4023951,-2.929842,1.856341
51.20035,6.166683,231,217,490,502,0.2453948,0.04851054,0.2622195,-0.9702263,-2.698854,-0.722285,0.1250508,0.0548614,-0.1685576,-0.4038332,-2.928052,1.853622
51.00035,6.177794,231,217,490,502,0.2375597,0.05559273,0.2613215,-0.972742,-2.696933,-0.725778,0.12951,0.04109158,-0.1578552,-0.405054,-2.927001,1.850995
50.80035,6.188906,231,217,490,502,0.2392876,0.06321841,0.2582922,-0.9753561,-2.695041,-0.7294771,0.1433581,0.04229125,-0.1558286,-0.4065901,-2.924351,1.846656
50.60035,6.200017,231,217,490,502,0.2358709,0.06735256,0.2562562,-0.9778669,-2.693238,-0.7330122,0.1432425,0.0486294,-0.1654411,-0.4084357,-2.921455,1.842403
50.40034,6.211128,231,217,490,502,0.2345195,0.07267483,0.2531982,-0.980496,-2.691195,-0.7367017,0.1473542,0.05178042,-0.1846672,-0.4108523,-2.917763,1.837193
50.20034,6.222239,216,232,489,503,0.2353168,0.07798098,0.2565073,-0.983254,-2.689373,-0.7403843,0.1494287,0.0506776,-0.1942565,-0.4129551,-2.915482,1.833435
50.00034,6.233351,216,232,489,503,0.2378429,0.0909036,0.2567888,-0.9862388,-2.687747,-0.7439775,0.1409816,0.0485132,-0.185668,-0.4146009,-2.913195,1.830014
49.80034,6.244462,216,232,489,503,0.2430677,0.09328686,0.2578832,-0.9890922,-2.686078,-0.7477725,0.1336516,0.04853615,-0.1653661,-0.4156225,-2.911349,1.82713
49.60034,6.255573,216,232,489,503,0.241381,0.104951,0.2570975,-0.9921409,-2.684556,-0.7512234,0.1327229,0.04754831,-0.1461796,-0.4165647,-2.909476,1.823969
49.40034,6.266685,232,242,497,500,0.2411444,0.1092408,0.2550735,-0.9950081,-2.682926,-0.7546498,0.1296801,0.05083099,-0.1184786,-0.4170734,-2.90796,1.821271
49.20034,6.277796,232,242,497,500,0.2445036,0.1061928,0.256067,-0.9977831,-2.681329,-0.7583298,0.1275144,0.0582889,-0.1142366,-0.4179693,-2.905229,1.817424
49.00034,6.288907,232,242,497,500,0.2461715,0.0945522,0.2558243,-1.000338,-2.679434,-0.7621008,0.1306445,0.06470111,-0.1164065,-0.4189935,-2.902259,1.813147
48.80034,6.300018,232,242,497,500,0.2458285,0.08064826,0.256599,-1.002728,-2.677376,-0.7659565,0.1380069,0.06042534,-0.1366775,-0.4208194,-2.899307,1.808668
48.60034,6.31113,232,242,497,500,0.2556199,0.07691339,0.2554352,-1.005261,-2.675596,-0.769987,0.1412266,0.04761201,-0.1494253,-0.422706,-2.897713,1.805565
48.40034,6.322241,350,253,492,501,0.2556781,0.07582767,0.2564822,-1.007911,-2.673764,-0.7738166,0.1370488,0.02407502,-0.166331,-0.4248445,-2.89679,1.803369
48.20034,6.333352,350,253,492,501,0.2570712,0.06943245,0.2595468,-1.010444,-2.671711,-0.7777165,0.1434714,0.01879348,-0.1684806,-0.4266959,-2.895531,1.80048
48.00034,6.344463,350,253,492,501,0.2539248,0.06823781,0.2574008,-1.01286,-2.669821,-0.7814018,0.1423463,0.01983179,-0.1738234,-0.4288137,-2.893341,1.797094
47.80033,6.355575,350,253,492,501,0.2531939,0.06177841,0.2583315,-1.015276,-2.667821,-0.7852362,0.1391163,0.02299561,-0.1748814,-0.4306582,-2.891499,1.79396
47.60033,6.366686,335,256,491,501,0.2503265,0.05523803,0.2571417,-1.017521,-2.665652,-0.7890611,0.1305295,0.03252979,-0.1716859,-0.432459,-2.888876,1.790405
47.40033,6.377797,335,256,491,501,0.2472953,0.05192683,0.2549474,-1.019794,-2.663746,-0.7927293,0.1208954,0.04527041,-0.1620901,-0.4337869,-2.886284,1.787003
47.20033,6.388908,335,256,491,501,0.2341231,0.05785972,0.1943557,-1.020511,-2.664398,-0.7946298,0.123037,0.05280751,-0.1504259,-0.4350061,-2.883469,1.783031
47.00033,6.40002,335,256,491,501,0.2461102,0.03318623,0.23003,-1.022845,-2.661301,-0.7992977,0.1295161,0.05507664,-0.1334337,-0.4358157,-2.88125,1.779466
46.80033,6.411131,335,256,491,501,0.2551957,0.02273455,0.2415065,-1.024963,-2.658661,-0.8037617,0.1315222,0.05930732,-0.1451882,-0.4375947,-2.878469,1.775563
46.60033,6.422242,324,252,493,500,0.2522061,0.01847989,0.233964,-1.026801,-2.656946,-0.8073389,0.1303432,0.06138355,-0.1558533,-0.4395558,-2.875616,1.771907
46.40033,6.433353,324,252,493,500,0.2466643,0.02248788,0.2319337,-1.028724,-2.655103,-0.8108718,0.1304201,0.05072154,-0.1579367,-0.4412693,-2.874086,1.769068
46.20033,6.444465,324,252,493,500,0.2409004,0.03072724,0.2310592,-1.03086,-2.653352,-0.814261,0.1294325,0.03900325,-0.157874,-0.4428182,-2.872866,1.766897
46.00033,6.455576,324,252,493,500,0.2376011,0.03266667,0.2321732,-1.033057,-2.651619,-0.817689,0.1230867,0.03362247,-0.1578074,-0.444488,-2.87156,1.764521
45.80033,6.466687,324,252,493,500,0.2377934,0.04956637,0.2399814,-1.035595,-2.650123,-0.821027,0.1252635,0.02724417,-0.1599165,-0.4461658,-2.870337,1.761884
45.60033,6.477798,368,237,491,501,0.242484,0.06231973,0.2540892,-1.038619,-2.648525,-0.8246585,0.1264331,0.01768152,-0.1566821,-0.4477626,-2.869747,1.759889
45.40033,6.48891,368,237,491,501,0.2503887,0.07508934,0.2745911,-1.041957,-2.64661,-0.8287187,0.1201487,0.01233581,-0.1481043,-0.4493259,-2.869146,1.758123
45.20033,6.500021,368,237,491,501,0.2552366,0.08471173,0.2854404,-1.045284,-2.644897,-0.8325308,0.1223453,0.02312824,-0.1236767,-0.4501312,-2.867152,1.754991
45.00032,6.511132,368,237,491,501,0.2654754,0.09335309,0.3047771,-1.048855,-2.642883,-0.8367444,0.1319021,0.04354444,-0.1025249,-0.4505355,-2.864661,1.751037
44.80032,6.522243,372,223,490,501,0.267897,0.08795038,0.3142481,-1.052227,-2.640755,-0.8407983,0.1468376,0.06405365,-0.07289346,-0.4504732,-2.861521,1.746253
44.60032,6.533355,372,223,490,501,0.2681839,0.08255422,0.3173361,-1.055379,-2.63853,-0.8449332,0.1502208,0.05563466,-0.0558335,-0.4505562,-2.860479,1.743561
44.40032,6.544466,372,223,490,501,0.2706929,0.07522905,0.3161017,-1.058186,-2.636456,-0.8489667,0.1503281,0.04284047,-0.05470881,-0.4511693,-2.860526,1.742115
44.20032,6.555577,372,223,490,501,0.2722476,0.06575653,0.3137666,-1.061038,-2.634291,-0.8530856,0.1480923,0.04168102,-0.07173393,-0.4523145,-2.859056,1.739213
44.00032,6.566689,372,223,490,501,0.2736878,0.05849865,0.3072063,-1.06363,-2.632323,-0.8571756,0.1488408,0.03935494,-0.1196728,-0.4548642,-2.856866,1.735759
43.80032,6.5778,406,200,488,500,0.2781093,0.05554957,0.3060614,-1.066446,-2.630329,-0.8613835,0.151755,0.04240595,-0.1569947,-0.4574997,-2.854846,1.732225
43.60032,6.588911,406,200,488,500,0.2874117,0.06129919,0.3082904,-1.069437,-2.62832,-0.8657894,0.1472383,0.05720624,-0.1762157,-0.4597926,-2.851449,1.727642
43.40032,6.600022,406,200,488,500,0.2944387,0.07004029,0.3159108,-1.072917,-2.626551,-0.8701527,0.1387277,0.06570491,-0.1655555,-0.4613074,-2.848721,1.723676
43.20032,6.611134,406,200,488,500,0.297599,0.07108104,0.3244464,-1.076281,-2.624433,-0.8745981,0.1302943,0.0721184,-0.1442207,-0.4622534,-2.846227,1.720174
43.00032,6.622245,411,195,491,501,0.2938436,0.06129411,0.3242406,-1.079264,-2.622282,-0.8787819,0.1218248,0.07637687,-0.1303382,-0.4632792,-2.843526,1.71665
42.80032,6.633356,411,195,491,501,0.2910351,0.05370599,0.3230208,-1.082236,-2.620048,-0.8829668,0.1262286,0.0690086,-0.1186165,-0.4641938,-2.841954,1.713742
42.60032,6.644467,411,195,491,501,0.2922564,0.05064187,0.3197561,-1.085221,-2.618043,-0.8871975,0.1262032,0.06578651,-0.1271224,-0.4657613,-2.839751,1.710274
42.40031,6.655579,411,195,491,501,0.2922564,0.05064187,0.3197561,-1.088337,-2.616007,-0.8913941,0.1304094,0.06043074,-0.1420416,-0.46765,-2.837965,1.707097
42.20031,6.66669,411,195,491,501,0.2922564,0.05064189,0.3197561,-1.09145,-2.613996,-0.8955635,0.1303674,0.04969937,-0.1601119,-0.4699366,-2.836641,1.704644
42.00031,6.677801,460,181,489,499,0.3016723,-0.008154728,0.2971717,-1.090659,-2.60958,-0.9014145,0.1197632,0.03358133,-0.1717016,-0.4722988,-2.835898,1.703069
41.80031,6.688912,460,181,489,499,0.3071723,-0.01117024,0.3013534,-1.09361,-2.60696,-0.9062103,0.1113671,0.02287567,-0.1673383,-0.474088,-2.835459,1.701567
41.60031,6.700024,460,181,489,499,0.3065813,0.0004885402,0.3037201,-1.095955,-2.605887,-0.9108607,0.108233,0.02504571,-0.1556171,-0.4754936,-2.833745,1.698859
41.40031,6.711135,460,181,489,499,0.3001863,0.02078022,0.2871145,-1.09806,-2.604446,-0.9148613,0.1126425,0.03053549,-0.1269072,-0.4761183,-2.832565,1.696444
41.20031,6.722246,487,158,484,499,0.3033116,0.02266546,0.3063255,-1.101169,-2.602073,-0.9193115,0.115826,0.03590766,-0.1226825,-0.4772049,-2.831105,1.693688
41.00031,6.733357,487,158,484,499,0.2960892,0.03896985,0.3248012,-1.104997,-2.600046,-0.9233015,0.1263597,0.05627885,-0.1154008,-0.478324,-2.827932,1.689123
40.80031,6.744469,487,158,484,499,0.2914111,0.04718828,0.3281825,-1.108371,-2.597903,-0.9278948,0.1411633,0.06705624,-0.116612,-0.4795352,-2.825497,1.685181
40.60031,6.75558,487,158,484,499,0.2914111,0.04718832,0.3281825,-1.111629,-2.595925,-0.9320334,0.1475344,0.06602344,-0.1209148,-0.4809589,-2.823728,1.681831
40.40031,6.766691,487,158,484,499,0.2914112,0.04718833,0.3281825,-1.114848,-2.593993,-0.9361001,0.1560443,0.06074324,-0.1294759,-0.4825882,-2.821918,1.678268
40.20031,6.777802,522,140,485,498,0.2914111,0.04718833,0.3281825,-1.118098,-2.592065,-0.9401832,0.1625752,0.03946701,-0.134757,-0.4842884,-2.821834,1.676333
40.00031,6.788914,522,140,485,498,0.2718989,0.176016,0.2936606,-1.124437,-2.598804,-0.9391158,0.157473,0.01814479,-0.1293077,-0.48567,-2.822146,1.674909
39.8003,6.800025,522,140,485,498,0.2718989,0.176016,0.2936606,-1.128252,-2.598422,-0.9423217,0.1542934,0.01812875,-0.1271496,-0.486918,-2.821345,1.672547
39.6003,6.811136,522,140,485,498,0.2718989,0.1760161,0.2936606,-1.132015,-2.598059,-0.945476,0.1509762,0.03087848,-0.1271763,-0.4881388,-2.819729,1.669709
39.4003,6.822248,522,140,485,498,0.2718989,0.1760161,0.2936606,-1.13581,-2.597708,-0.9486494,0.1517726,0.05214991,-0.1368523,-0.489652,-2.816982,1.665857
39.2003,6.833359,559,140,485,497,0.2445444,0.2297159,0.260763,-1.139974,-2.602567,-0.9474989,0.163464,0.05866069,-0.1326989,-0.4909543,-2.814943,1.661946
39.0003,6.84447,559,140,485,497,0.2322721,0.2189372,0.2360556,-1.142562,-2.603235,-0.9494271,0.1687339,0.06511508,-0.1316883,-0.4921442,-2.812699,1.658057
38.8003,6.855581,559,140,485,497,0.2281338,0.1955588,0.2217115,-1.143489,-2.600847,-0.9543006,0.1697952,0.06726411,-0.1295742,-0.4934534,-2.810742,1.654422
38.6003,6.866693,559,140,485,497,0.226083,0.1732385,0.2127198,-1.146313,-2.600373,-0.9571694,0.1593191,0.05017443,-0.1219505,-0.4943104,-2.810162,1.65275
38.4003,6.877804,566,141,478,497,0.228011,0.1564298,0.2049015,-1.148307,-2.600238,-0.9602022,0.1511272,0.01604062,-0.1153605,-0.4955871,-2.811529,1.652599
38.2003,6.888915,566,141,478,497,0.232213,0.1163006,0.1955182,-1.149888,-2.599035,-0.9635104,0.1449149,-0.00317286,-0.1131037,-0.4968154,-2.812229,1.651736
38.0003,6.900026,566,141,478,497,0.2355515,0.07206269,0.1764623,-1.150923,-2.597338,-0.967455,0.138553,-0.007496521,-0.1130544,-0.4982636,-2.812466,1.650661
37.8003,6.911138,566,141,478,497,0.2370732,0.04246129,0.167308,-1.152082,-2.596047,-0.9706471,0.1258459,-0.01290676,-0.1086903,-0.4994705,-2.812598,1.649709
37.6003,6.922249,566,141,478,497,0.2399635,0.02774749,0.16379,-1.153247,-2.595144,-0.9735771,0.1131969,-0.01937509,-0.1000559,-0.5004554,-2.81334,1.649099
37.4003,6.93336,611,150,484,497,0.2421112,0.006687669,0.1558806,-1.154204,-2.593764,-0.9768901,0.10251,-0.004492447,-0.08619928,-0.5010375,-2.812589,1.647573
37.20029,6.944471,611,150,484,497,0.24478,-0.003726095,0.1503262,-1.15535,-2.592561,-0.9803767,0.1014269,0.005139187,-0.07664157,-0.5015499,-2.811532,1.645501
37.00029,6.955583,611,150,484,497,0.2454233,-0.01635331,0.1436671,-1.15641,-2.591319,-0.9833967,0.09920527,0.02327204,-0.06711784,-0.5019696,-2.809871,1.643007
36.80029,6.966694,611,150,484,497,0.248936,-0.02247993,0.1392631,-1.157263,-2.590358,-0.98642,0.099121,0.03500816,-0.06396689,-0.502514,-2.808261,1.64055
36.60029,6.977805,627,163,482,495,0.251609,-0.03293898,0.1358395,-1.158089,-2.588653,-0.990298,0.09591569,0.04032513,-0.05863813,-0.5029625,-2.807183,1.638639
36.40029,6.988916,627,163,482,495,0.2562416,-0.04010237,0.1324808,-1.158838,-2.587164,-0.9938704,0.0926793,0.04777633,-0.05439344,-0.5034839,-2.805553,1.636336
36.20029,7.000028,627,163,482,495,0.2574078,-0.04213527,0.130296,-1.159373,-2.585912,-0.9970268,0.09696035,0.05210047,-0.04697621,-0.5036709,-2.804285,1.63395
36.00029,7.011139,627,163,482,495,0.2654406,-0.03227957,0.1379447,-1.160789,-2.584836,-1.000627,0.1002315,0.05003446,-0.03847518,-0.5039707,-2.803266,1.631876
35.80029,7.02225,627,163,482,495,0.2681357,-0.02249456,0.1360092,-1.161882,-2.584114,-1.00401,0.1045185,0.04687397,-0.0406166,-0.5044315,-2.802107,1.629373
35.60029,7.033361,636,176,489,495,0.2678103,-0.0161578,0.138275,-1.163231,-2.583172,-1.007356,0.1150194,0.05865056,-0.04819659,-0.505126,-2.799951,1.625906
35.40029,7.044473,636,176,489,495,0.2672687,-0.005619954,0.1427683,-1.164862,-2.582024,-1.010871,0.1233738,0.06395324,-0.06745546,-0.5064501,-2.798374,1.622846
35.20029,7.055584,636,176,489,495,0.273104,0.005324345,0.1440519,-1.166456,-2.581404,-1.014315,0.1212223,0.05963666,-0.07594466,-0.507524,-2.797164,1.620508
35.00029,7.066695,636,176,489,495,0.273104,0.00532433,0.1440519,-1.167845,-2.580544,-1.017681,0.1086189,0.03286438,-0.08320108,-0.5087101,-2.797869,1.620286
34.80029,7.077806,655,189,480,495,0.2731039,0.005324338,0.1440519,-1.169238,-2.579688,-1.021049,0.09727424,-0.002344728,-0.07231447,-0.5092432,-2.799682,1.621084
34.60028,7.088918,655,189,480,495,0.2970848,0.01608534,0.1474152,-1.170949,-2.579206,-1.025608,0.08798946,-0.02793428,-0.05935019,-0.5095165,-2.80164,1.622122
34.40028,7.100029,655,189,480,495,0.3046375,0.01440576,0.1441648,-1.172113,-2.577069,-1.030108,0.06796466,-0.04296526,-0.04638167,-0.5099741,-2.803165,1.623229
34.20028,7.11114,655,189,480,495,0.3055852,0.01610738,0.1164961,-1.172793,-2.576807,-1.033825,0.06149521,-0.03985703,-0.05380877,-0.5107815,-2.803883,1.623347
34.00028,7.122252,655,189,480,495,0.3252551,-0.03356691,0.1420393,-1.174104,-2.573623,-1.039338,0.05702315,-0.02181427,-0.06344637,-0.511744,-2.802903,1.621797
33.80028,7.133363,636,195,484,496,0.3307499,-0.07743967,0.1613434,-1.175074,-2.570588,-1.044334,0.0727099,0.002769232,-0.07643363,-0.5127181,-2.801475,1.619238
33.60028,7.144474,636,195,484,496,0.3318766,-0.09896132,0.1726026,-1.17587,-2.568148,-1.048855,0.08214459,0.01346532,-0.08613825,-0.5139847,-2.800445,1.617126
33.40028,7.155585,636,195,484,496,0.3442872,-0.1115477,0.1925551,-1.177417,-2.565125,-1.054314,0.1012166,0.01356356,-0.1011833,-0.51549,-2.799968,1.615129
33.20028,7.166697,636,195,484,496,0.3499787,-0.1180665,0.2115808,-1.180113,-2.559942,-1.063949,0.1044932,-0.001349539,-0.1086143,-0.518199,-2.800296,1.612985
33.00028,7.177808,636,195,484,496,0.3499787,-0.1180665,0.2115808,-1.180113,-2.559942,-1.063949,0.1044932,-0.001349539,-0.1086143,-0.518199,-2.800296,1.612985
32.80028,7.188919,660,193,489,496,0.357293,-0.1147833,0.2254853,-1.182048,-2.557292,-1.069146,0.08652852,-0.01319493,-0.102049,-0.5191848,-2.801122,1.61318
32.60028,7.20003,660,193,489,496,0.3603295,-0.1115005,0.2287398,-1.183554,-2.554804,-1.074271,0.07288506,-0.02176172,-0.08486858,-0.5196227,-2.801959,1.613222
32.40028,7.211142,660,193,489,496,0.3611256,-0.1061949,0.2320469,-1.185419,-2.552449,-1.079196,0.06550455,-0.01213654,-0.06142318,-0.5196536,-2.801719,1.612483
32.20028,7.222253,660,193,489,496,0.3698476,-0.1099885,0.2308784,-1.186742,-2.549903,-1.084024,0.06127565,-0.003585763,-0.04651075,-0.5197085,-2.801285,1.61143
32.00027,7.233364,663,197,483,495,0.3639571,-0.1198691,0.2296173,-1.188188,-2.547073,-1.088969,0.05922838,0.006089568,-0.02203629,-0.5192136,-2.800619,1.610265
31.80027,7.244475,663,197,483,495,0.3708392,-0.1502261,0.2183157,-1.190517,-2.540682,-1.099609,0.06456015,0.01364457,-0.0103765,-0.5190506,-2.799626,1.607956
31.60027,7.255587,663,197,483,495,0.3708392,-0.1502261,0.2183157,-1.190517,-2.540682,-1.099609,0.06456015,0.01364457,-0.0103765,-0.5190506,-2.799626,1.607956
31.40027,7.266698,663,197,483,495,0.3704926,-0.1635926,0.243609,-1.192575,-2.536803,-1.105169,0.06876636,0.01149831,-0.02318809,-0.519775,-2.799376,1.606638
31.20027,7.277809,663,197,483,495,0.3759445,-0.1656415,0.2531481,-1.194521,-2.533472,-1.110759,0.07620601,0.005117171,-0.03599902,-0.5205686,-2.799521,1.605517
31.00027,7.28892,655,195,484,495,0.3727146,-0.1648436,0.2574221,-1.197703,-2.52704,-1.121477,0.08149,0.02012528,-0.02436834,-0.5207641,-2.798014,1.602237
30.80027,7.300032,655,195,484,495,0.3727146,-0.1648436,0.2574221,-1.197703,-2.52704,-1.121477,0.08149,0.02012528,-0.02436834,-0.5207641,-2.798014,1.602237
30.60027,7.311143,655,195,484,495,0.3632554,-0.1472385,0.2588962,-1.201661,-2.52122,-1.131217,0.08267139,0.044841,0.02452577,-0.5190538,-2.795303,1.598091
30.40027,7.322254,655,195,484,495,0.3632554,-0.1472385,0.2588962,-1.201661,-2.52122,-1.131217,0.08267139,0.044841,0.02452577,-0.5190538,-2.795303,1.598091
30.20027,7.333365,629,197,487,496,0.3585097,-0.1379311,0.2612352,-1.203812,-2.518601,-1.136024,0.08592172,0.06204134,0.05425873,-0.5175284,-2.793005,1.595042
30.00027,7.344477,629,197,487,496,0.3495412,-0.1087636,0.2714437,-1.206142,-2.516461,-1.140122,0.08688302,0.08018287,0.06163113,-0.5166565,-2.790491,1.591861
29.80027,7.355588,629,197,487,496,0.3493172,-0.08347113,0.2858348,-1.209301,-2.514574,-1.144711,0.09646551,0.07490283,0.04985946,-0.5166511,-2.788867,1.588712
29.60027,7.366699,629,197,487,496,0.3315572,-0.02905802,0.2913011,-1.215317,-2.511533,-1.15256,0.1155511,0.01609972,-0.03632856,-0.5193345,-2.790381,1.587149
29.40026,7.37781,629,197,487,496,0.3315572,-0.02905802,0.2913011,-1.215317,-2.511533,-1.15256,0.1155511,0.01609972,-0.03632856,-0.5193345,-2.790381,1.587149
29.20026,7.388922,624,195,485,496,0.3149415,0.00330239,0.2845661,-1.218413,-2.511182,-1.155711,0.1208452,0.005404413,-0.05655883,-0.5206187,-2.790786,1.585969
29.00026,7.400033,624,195,485,496,0.300949,0.04653955,0.273773,-1.221123,-2.51162,-1.158053,0.1185841,-0.007549509,-0.09270837,-0.5225686,-2.791368,1.585196
28.80026,7.411144,624,195,485,496,0.285235,0.08211531,0.2681773,-1.224471,-2.51198,-1.160728,0.117418,-0.007623076,-0.1076148,-0.5242001,-2.791546,1.584075
28.60026,7.422256,591,200,487,495,0.2556263,0.1385001,0.253469,-1.231026,-2.513515,-1.165204,0.1311347,0.02881707,-0.08018549,-0.5256867,-2.789283,1.579138
28.40026,7.433367,591,200,487,495,0.2556263,0.1385001,0.253469,-1.231026,-2.513515,-1.165204,0.1311347,0.02881707,-0.08018549,-0.5256867,-2.789283,1.579138
28.20026,7.444478,591,200,487,495,0.2223465,0.1627374,0.2359294,-1.23668,-2.515265,-1.168604,0.1395694,0.05668435,-0.05692496,-0.5265496,-2.785681,1.572963
28.00026,7.455589,591,200,487,495,0.2060081,0.1482202,0.2260737,-1.239183,-2.515282,-1.170302,0.1449192,0.05567399,-0.05482618,-0.5270859,-2.784471,1.570155
27.80026,7.466701,591,200,487,495,0.2060081,0.1482202,0.2260737,-1.239183,-2.515282,-1.170302,0.1449192,0.05567399,-0.05482618,-0.5270859,-2.784471,1.570155
27.60026,7.477812,564,201,488,496,0.1984288,0.1086708,0.2103342,-1.243675,-2.514883,-1.174615,0.1197507,8.568168E-06,-0.06614026,-0.5289608,-2.786639,1.5698
27.40026,7.488923,564,201,488,496,0.1958882,0.07469215,0.1957628,-1.245094,-2.513936,-1.176779,0.109303,-0.02458812,-0.06702942,-0.5297225,-2.78832,1.570264
27.20026,7.500034,564,201,488,496,0.1958882,0.07469215,0.1957628,-1.245094,-2.513936,-1.176779,0.109303,-0.02458812,-0.06702942,-0.5297225,-2.78832,1.570264
27.00026,7.511146,564,201,488,496,0.1949693,0.05061612,0.1718118,-1.246291,-2.513307,-1.179125,0.09993828,-0.05559003,-0.07322437,-0.530711,-2.791225,1.571908
26.80025,7.522257,564,201,488,496,0.1955827,-0.04408686,0.1612809,-1.24859,-2.509183,-1.185014,0.07662847,-0.0782109,-0.08363443,-0.5329998,-2.795664,1.574437
26.60025,7.533368,564,201,488,496,0.1955827,-0.04408686,0.1612809,-1.24859,-2.509183,-1.185014,0.07662847,-0.0782109,-0.08363443,-0.5329998,-2.795664,1.574437
26.40025,7.544479,532,174,487,497,0.1957244,-0.06752707,0.159726,-1.24983,-2.507113,-1.187885,0.06573763,-0.05489165,-0.09004846,-0.5341044,-2.795395,1.573627
26.20025,7.555591,532,174,487,497,0.1950302,-0.1374277,0.1337293,-1.25036,-2.501832,-1.193743,0.04622214,-0.01456944,-0.08688289,-0.5359079,-2.794372,1.57232
26.00025,7.566702,532,174,487,497,0.1950302,-0.1374277,0.1337293,-1.25036,-2.501832,-1.193743,0.04622214,-0.01456944,-0.08688289,-0.5359079,-2.794372,1.57232
25.80025,7.577813,532,174,487,497,0.1961662,-0.1596061,0.125796,-1.250601,-2.499075,-1.196834,0.04642905,-0.01872493,-0.06129067,-0.5358493,-2.795231,1.572548
25.60025,7.588924,508,144,487,497,0.190311,-0.1704314,0.1181246,-1.251461,-2.493875,-1.202606,0.05758049,-0.04402122,-0.01970947,-0.5354562,-2.798097,1.573552
25.40025,7.600036,508,144,487,497,0.190311,-0.1704314,0.1181246,-1.251461,-2.493875,-1.202606,0.05758049,-0.04402122,-0.01970947,-0.5354562,-2.798097,1.573552
25.20025,7.611147,508,144,487,497,0.1918499,-0.1587573,0.1247624,-1.25241,-2.491828,-1.205403,0.06196963,-0.05889819,-0.01967527,-0.5356687,-2.800136,1.574502
25.00025,7.622258,508,144,487,497,0.1891567,-0.1270443,0.1318516,-1.254704,-2.488369,-1.210748,0.05547444,-0.06758391,-0.04410111,-0.5372885,-2.803587,1.57657
24.80025,7.633369,493,129,492,502,0.1799668,-0.09345501,0.1357804,-1.256122,-2.487648,-1.212773,0.0541219,-0.04849528,-0.06228168,-0.538456,-2.803536,1.575974
24.60025,7.644481,493,129,492,502,0.1799668,-0.09345501,0.1357804,-1.256122,-2.487648,-1.212773,0.0541219,-0.04849528,-0.06228168,-0.538456,-2.803536,1.575974
24.40025,7.655592,493,129,492,502,0.1698264,-0.04168863,0.1347827,-1.259067,-2.486479,-1.216822,0.0557011,0.00366427,-0.07634963,-0.540186,-2.801041,1.57271
24.20024,7.666703,493,129,492,502,0.1766174,-0.02856307,0.1361111,-1.260571,-2.486033,-1.219145,0.06309272,0.01439533,-0.07218264,-0.5408198,-2.800476,1.571364
24.00024,7.677814,493,129,492,502,0.1766174,-0.02856307,0.1361111,-1.260571,-2.486033,-1.219145,0.06309272,0.01439533,-0.07218264,-0.5408198,-2.800476,1.571364
23.80024,7.688926,510,126,487,499,0.161075,-0.01724739,0.118292,-1.262718,-2.484722,-1.222754,0.07588504,0.0059295,-0.0818028,-0.5425754,-2.801025,1.569878
23.60024,7.700037,510,126,487,499,0.1685429,0.003339819,0.1208292,-1.263887,-2.484627,-1.224761,0.08455928,-0.01425092,-0.08497101,-0.5436193,-2.802365,1.569833
23.40024,7.711148,510,126,487,499,0.1720409,0.0183547,0.1253991,-1.265434,-2.484583,-1.226821,0.09426583,-0.03444049,-0.09134914,-0.5448796,-2.804196,1.570303
23.20024,7.72226,510,126,487,499,0.1720409,0.0183547,0.1253991,-1.265434,-2.484583,-1.226821,0.09426583,-0.03444049,-0.09134914,-0.5448796,-2.804196,1.570303
23.00024,7.733371,509,122,488,499,0.1754949,0.03433568,0.134269,-1.268971,-2.484206,-1.23098,0.09862921,-0.05576216,-0.1019423,-0.5473995,-2.807527,1.571004
22.80024,7.744482,509,122,488,499,0.1780336,0.02675121,0.145823,-1.270806,-2.483574,-1.233206,0.09759764,-0.0664604,-0.1104119,-0.5488743,-2.809523,1.571652
22.60024,7.755593,509,122,488,499,0.1848695,0.01838426,0.154157,-1.272556,-2.482795,-1.235543,0.08892018,-0.05485502,-0.1178647,-0.5504254,-2.810234,1.571596
22.40024,7.766705,509,122,488,499,0.1933835,0.01877892,0.1562783,-1.274324,-2.482422,-1.237972,0.08882872,-0.03885461,-0.1115395,-0.551505,-2.810405,1.570739
22.20024,7.777816,509,122,488,499,0.1933835,0.01877892,0.1562783,-1.274324,-2.482422,-1.237972,0.08882872,-0.03885461,-0.1115395,-0.551505,-2.810405,1.570739
22.00024,7.788927,494,125,490,500,0.2128392,-0.006178875,0.1727506,-1.278061,-2.480443,-1.243912,0.09159927,0.01658776,-0.1075399,-0.5538198,-2.807766,1.566108
21.80024,7.800038,494,125,490,500,0.2216035,-0.03132184,0.1721969,-1.279529,-2.478822,-1.24708,0.09124303,0.04956464,-0.1183326,-0.5554283,-2.805052,1.562775
21.60023,7.81115,494,125,490,500,0.2326072,-0.05850922,0.1726681,-1.281048,-2.476846,-1.250458,0.08574664,0.06333246,-0.1268703,-0.5569692,-2.803265,1.560355
21.40023,7.822261,494,125,490,500,0.2370846,-0.06256667,0.1736372,-1.282648,-2.475417,-1.25362,0.08683071,0.05692717,-0.1321767,-0.5585917,-2.802423,1.558657
21.20023,7.833372,494,125,490,500,0.2370846,-0.06256667,0.1736372,-1.282648,-2.475417,-1.25362,0.08683071,0.05692717,-0.1321767,-0.5585917,-2.802423,1.558657
21.00023,7.844483,501,131,488,498,0.2562639,-0.06189018,0.1874471,-1.286197,-2.472448,-1.260534,0.09456882,0.0357637,-0.1151039,-0.5609363,-2.80184,1.556218
20.80023,7.855595,501,131,488,498,0.2690532,-0.0614988,0.2002121,-1.288423,-2.47104,-1.264125,0.1053292,0.02948919,-0.1087732,-0.5622008,-2.801586,1.554418
20.60023,7.866706,501,131,488,498,0.2688179,-0.05711582,0.193918,-1.290183,-2.469757,-1.267449,0.1202594,0.02427068,-0.1131224,-0.5637203,-2.801405,1.552565
20.40023,7.877817,501,131,488,498,0.2725393,-0.04639547,0.2005304,-1.292431,-2.468723,-1.270851,0.1190226,0.0391475,-0.11957,-0.5652112,-2.799992,1.550071
20.20023,7.888928,501,131,488,498,0.2725393,-0.04639547,0.2005304,-1.292431,-2.468723,-1.270851,0.1190226,0.0391475,-0.11957,-0.5652112,-2.799992,1.550071
20.00023,7.90004,499,132,486,498,0.2742387,-0.0378901,0.2060416,-1.296841,-2.466537,-1.277528,0.1274875,0.05418414,-0.1068963,-0.5672256,-2.797451,1.545253
19.80023,7.911151,499,132,486,498,0.2758416,-0.04843163,0.2036899,-1.298769,-2.464939,-1.281018,0.1391338,0.06708652,-0.09957504,-0.5681998,-2.795901,1.542294
19.60023,7.922262,499,132,486,498,0.2761498,-0.05465233,0.1961029,-1.300507,-2.463598,-1.284391,0.1432724,0.07882692,-0.10285,-0.5694478,-2.793758,1.538792
19.40023,7.933373,488,132,489,499,0.2815128,-0.05540791,0.1939478,-1.30234,-2.462194,-1.287942,0.1431372,0.09159331,-0.1071567,-0.5707069,-2.791343,1.535174
19.20023,7.944485,488,132,489,499,0.2815128,-0.05540791,0.1939478,-1.30234,-2.462194,-1.287942,0.1431372,0.09159331,-0.1071567,-0.5707069,-2.791343,1.535174
19.00023,7.955596,488,132,489,499,0.2945052,-0.05910999,0.1980924,-1.306122,-2.459367,-1.295453,0.1452563,0.09696206,-0.1007905,-0.5727799,-2.787466,1.528779
18.80022,7.966707,488,132,489,499,0.311118,-0.09145549,0.2037702,-1.308013,-2.456716,-1.300117,0.153917,0.09712203,-0.08166976,-0.5731597,-2.785441,1.524956
18.60022,7.977818,488,132,489,499,0.3142568,-0.1317285,0.1986457,-1.309348,-2.453692,-1.304496,0.1401938,0.09601161,-0.06452651,-0.5734553,-2.783525,1.522153
18.40022,7.98893,488,132,489,499,0.3142568,-0.1317285,0.1986457,-1.309348,-2.453692,-1.304496,0.1401938,0.09601161,-0.06452651,-0.5734553,-2.783525,1.522153
18.20022,8.000041,479,134,489,500,0.323869,-0.1526369,0.2013692,-1.310866,-2.450901,-1.308955,0.1264993,0.08634578,-0.05480388,-0.573908,-2.782301,1.520023
18.00022,8.011152,479,134,489,500,0.3399014,-0.1945978,0.2057794,-1.314052,-2.444274,-1.318462,0.1253793,0.08630311,-0.06009426,-0.575034,-2.779322,1.515053
17.80022,8.022264,479,134,489,500,0.3463702,-0.2166395,0.204231,-1.315485,-2.440695,-1.323416,0.1327097,0.1002106,-0.0612694,-0.575841,-2.776635,1.511132
17.60022,8.033375,448,142,488,498,0.346323,-0.2156764,0.2085107,-1.317194,-2.437643,-1.327997,0.1358266,0.1108966,-0.06027201,-0.5765547,-2.773962,1.507195
17.40022,8.044486,448,142,488,498,0.3462892,-0.1943851,0.2100306,-1.319094,-2.435323,-1.332381,0.1336903,0.1119471,-0.06025118,-0.5771757,-2.771659,1.503801
17.20022,8.055597,448,142,488,498,0.3438518,-0.1678264,0.2095346,-1.321075,-2.433559,-1.336574,0.1220568,0.1065462,-0.05482951,-0.5778218,-2.769846,1.501238
17.00022,8.066709,448,142,488,498,0.3382496,-0.1212134,0.2116028,-1.323362,-2.432796,-1.340364,0.1210312,0.1087204,-0.04522429,-0.577899,-2.767255,1.497821
16.80022,8.07782,448,142,488,498,0.3362863,-0.06258617,0.2096566,-1.32574,-2.433009,-1.343913,0.1157817,0.102297,-0.04196503,-0.578331,-2.765574,1.495271
16.60022,8.088931,436,136,490,498,0.3325694,-0.03183047,0.2092529,-1.328058,-2.432678,-1.347668,0.1179867,0.08950817,-0.04617659,-0.5789041,-2.764616,1.493209
16.40022,8.100042,436,136,490,498,0.3325694,-0.03183047,0.2092529,-1.328058,-2.432678,-1.347668,0.1179867,0.08950817,-0.04617659,-0.5789041,-2.764616,1.493209
16.20021,8.111154,436,136,490,498,0.3185109,0.03371236,0.2032238,-1.332815,-2.433631,-1.35423,0.1404478,0.06725137,-0.06221814,-0.5807332,-2.763174,1.488319
16.00021,8.122265,436,136,490,498,0.3127752,0.08267891,0.1946889,-1.335225,-2.435354,-1.357203,0.1425315,0.05866808,-0.08029982,-0.5820845,-2.762629,1.486182
15.80021,8.133376,436,136,490,498,0.3051605,0.1059455,0.1856015,-1.337224,-2.436642,-1.360056,0.1382687,0.05434483,-0.08771181,-0.5832983,-2.761794,1.483895
15.60021,8.144487,430,136,491,499,0.2990952,0.1408061,0.1874185,-1.339835,-2.438723,-1.362678,0.1350933,0.05218765,-0.0876776,-0.5842538,-2.760955,1.481762
15.40021,8.155599,430,136,491,499,0.2923306,0.1683669,0.1784362,-1.342084,-2.440596,-1.365347,0.1341938,0.04478773,-0.07165668,-0.5845958,-2.760458,1.479958
15.20021,8.16671,430,136,491,499,0.2819866,0.1827866,0.1776992,-1.344439,-2.442533,-1.367772,0.1375687,0.03423654,-0.05885612,-0.5850326,-2.759845,1.477812
15.00021,8.177821,430,136,491,499,0.2831476,0.1807342,0.1755224,-1.346606,-2.44381,-1.370572,0.1366671,0.02362074,-0.04815104,-0.5852733,-2.759942,1.476395
14.80021,8.188932,425,137,489,499,0.2777171,0.1825437,0.1766468,-1.348981,-2.445181,-1.373193,0.1387998,0.0247221,-0.04603755,-0.5857937,-2.759194,1.474217
14.60021,8.200044,425,137,489,499,0.2791253,0.1965488,0.1737443,-1.351296,-2.447409,-1.375837,0.1301052,0.04168008,-0.04925412,-0.5866272,-2.757576,1.471718
14.40022,8.211155,425,137,489,499,0.279492,0.1891711,0.1693187,-1.353201,-2.4487,-1.378562,0.1248065,0.03844014,-0.04919969,-0.5871311,-2.757035,1.47003
14.20022,8.222266,425,137,489,499,0.2759273,0.1753292,0.1594407,-1.354948,-2.450056,-1.38122,0.1195833,0.02882013,-0.04593148,-0.5876036,-2.757047,1.468853
14.00022,8.233377,425,137,489,499,0.268636,0.171831,0.1551026,-1.356637,-2.451472,-1.383702,0.1227204,0.02561292,-0.0576518,-0.5885096,-2.756513,1.46705
13.80022,8.244489,417,134,490,499,0.2662278,0.1566598,0.1601089,-1.358683,-2.45241,-1.386443,0.1226977,0.01916517,-0.06934354,-0.5896137,-2.756762,1.465881
13.60022,8.2556,417,134,490,499,0.2859725,0.1459972,0.156634,-1.36041,-2.453293,-1.38993,0.1356387,-0.02025975,-0.09696303,-0.5913507,-2.759317,1.466061
13.40022,8.266711,417,134,490,499,0.2859725,0.1459972,0.156634,-1.36041,-2.453293,-1.38993,0.1356387,-0.02025975,-0.09696303,-0.5913507,-2.759317,1.466061
13.20022,8.277822,417,134,490,499,0.3085064,0.1226833,0.1528872,-1.363902,-2.454808,-1.396915,0.1091974,-0.06108099,-0.1221738,-0.594172,-2.763851,1.467717
13.00022,8.288934,401,124,489,498,0.3118433,0.1198378,0.144295,-1.365471,-2.455844,-1.400253,0.08469738,-0.06557579,-0.1273164,-0.5956618,-2.765595,1.468866
12.80022,8.300045,401,124,489,498,0.3118433,0.1198378,0.144295,-1.365471,-2.455844,-1.400253,0.08469738,-0.06557579,-0.1273164,-0.5956618,-2.765595,1.468866
12.60022,8.311156,401,124,489,498,0.3106789,0.03876644,0.1393892,-1.368419,-2.454348,-1.407431,0.08773318,-0.005674168,-0.07646713,-0.5965715,-2.763954,1.465379
12.40022,8.322268,401,124,489,498,0.3020869,-0.02235614,0.1327836,-1.369441,-2.452331,-1.411055,0.09518361,0.00936906,-0.05846687,-0.5968106,-2.763581,1.463831
12.20022,8.333379,401,124,489,498,0.3054158,-0.04566435,0.1322878,-1.370749,-2.450822,-1.414828,0.1121168,0.02658212,-0.05332914,-0.5973438,-2.762332,1.4611
12.00022,8.34449,400,116,489,497,0.3086415,-0.08723005,0.1377837,-1.371988,-2.448474,-1.419,0.119467,0.03728363,-0.05556155,-0.5982248,-2.761445,1.458855
11.80022,8.355601,400,116,489,497,0.3144379,-0.1168776,0.1403342,-1.373207,-2.44603,-1.423169,0.1171342,0.04035503,-0.07898608,-0.5996848,-2.76097,1.457494
11.60022,8.366713,400,116,489,497,0.3168288,-0.1219706,0.1348925,-1.3743,-2.444381,-1.427091,0.1055135,0.02745813,-0.0820435,-0.6005402,-2.761307,1.456756
11.40022,8.377824,400,116,489,497,0.3132727,-0.1359127,0.1292676,-1.375146,-2.442219,-1.43093,0.08434484,0.008082785,-0.0860782,-0.601558,-2.762309,1.457193
11.20022,8.388935,395,117,490,497,0.3063754,-0.1257933,0.1338136,-1.376988,-2.439572,-1.435286,0.06309018,0.004738197,-0.08273096,-0.602504,-2.762005,1.456743
11.00022,8.400046,395,117,490,497,0.2958523,-0.1080228,0.1256897,-1.378047,-2.43865,-1.438467,0.0621462,0.001592644,-0.06886177,-0.6028784,-2.762213,1.456257
10.80022,8.411158,395,117,490,497,0.2898055,-0.07335027,0.1339135,-1.379797,-2.437844,-1.441777,0.06452119,-0.007857226,-0.04648085,-0.6030606,-2.762245,1.455282
10.60022,8.422269,395,117,490,497,0.2826262,-0.0374367,0.1336262,-1.38134,-2.438228,-1.444658,0.07530355,-0.01624897,-0.03799749,-0.603256,-2.76292,1.454746
10.40022,8.43338,395,117,490,497,0.2675284,0.05029829,0.1365752,-1.383288,-2.441074,-1.447772,0.09232365,-0.01504648,-0.04024866,-0.6037216,-2.763241,1.453524
10.20022,8.444491,390,122,490,499,0.2599687,0.09373779,0.1311438,-1.385036,-2.442597,-1.450438,0.1008342,-0.01712793,-0.04883317,-0.6047336,-2.763534,1.452051
10.00022,8.455603,390,122,490,499,0.2526984,0.1530681,0.1345464,-1.387105,-2.445961,-1.453049,0.1145943,-0.03205919,-0.08082241,-0.6063986,-2.765189,1.451766
