ref,t,emg1,emg2,emg1raw,emg2raw,aDotS,bDotS,gDotS,aS,bS,gS,aDotSH,bDotSH,gDotSH,aSH,bSH,gSH
90,0,986,419,506,487,-0.6479949,-0.03357576,-0.316008,-0.7878382,3.08616,-0.0380374,-0.3586979,-0.1649324,0.2439551,-0.3298181,2.60244,2.749265
90,0.01111111,986,419,506,487,-0.6354366,-0.02800524,-0.3041602,-0.7876054,3.081956,-0.02844576,-0.3432292,-0.2394285,0.2377749,-0.3339018,2.590209,2.764374
90,0.02222222,985,513,522,492,-0.6143466,-0.02208331,-0.2965404,-0.7874845,3.077677,-0.01932443,-0.3062656,-0.1740226,0.2648599,-0.332044,2.578477,2.777431
90,0.03333334,985,513,522,492,-0.5787037,-0.007185996,-0.2812469,-0.7883665,3.073833,-0.01094985,-0.3012722,-0.1463472,0.2519052,-0.3321132,2.571514,2.787264
90,0.04444445,985,513,522,492,-0.5635981,-0.01309432,-0.2728673,-0.7885152,3.068458,-0.001421595,-0.2947543,-0.1440744,0.2656881,-0.3323156,2.560785,2.800112
90,0.05555556,985,513,522,492,-0.5410994,-0.01242609,-0.2632313,-0.7884922,3.065185,0.004126834,-0.3021307,-0.1676447,0.2509506,-0.3339252,2.551106,2.81282
90,0.06666667,986,483,505,492,-0.5283419,-0.01195279,-0.2589747,-0.7891538,3.060272,0.01313631,-0.2949353,-0.1484482,0.2358884,-0.3339753,2.544789,2.821605
90,0.07777778,986,483,505,492,-0.5079104,-0.01893298,-0.2462256,-0.7887447,3.056973,0.02046266,-0.2545392,-0.1245968,0.2514206,-0.3335524,2.534328,2.833142
90,0.08888889,986,483,505,492,-0.5079104,-0.01893298,-0.2462256,-0.7887447,3.056973,0.02046266,-0.2545392,-0.1245968,0.2514206,-0.3335524,2.534328,2.833142
90,0.1,986,483,505,492,-0.4825547,-0.04722232,-0.2231377,-0.7870456,3.050611,0.03508236,-0.2463663,-0.1097454,0.2214476,-0.3342736,2.521807,2.85007
90,0.1111111,986,483,505,492,-0.4657621,-0.0724549,-0.2117852,-0.7851622,3.047315,0.0420087,-0.2294097,-0.1000277,0.2202115,-0.3343817,2.513046,2.860404
90,0.1222222,870,430,520,498,-0.4576874,-0.0903877,-0.2088757,-0.7834263,3.043763,0.0491545,-0.2338215,-0.1087211,0.1915308,-0.3353958,2.508405,2.867457
90,0.1333333,870,430,520,498,-0.4497007,-0.107332,-0.1984586,-0.7818732,3.040977,0.05580388,-0.1985981,-0.1105398,0.19338,-0.3359711,2.501594,2.874504
90,0.1444445,870,430,520,498,-0.4206642,-0.116073,-0.1910159,-0.7804974,3.038357,0.06145138,-0.1891716,-0.1020153,0.1804915,-0.3364233,2.495565,2.881934
90,0.1555556,870,430,520,498,-0.4003614,-0.1176944,-0.182494,-0.7788894,3.035089,0.06744189,-0.1879819,-0.1179829,0.1773788,-0.3374395,2.488667,2.890436
90,0.1666667,728,390,511,496,-0.3823521,-0.1150459,-0.1770597,-0.7778289,3.032406,0.07310324,-0.1721622,-0.105094,0.171871,-0.3378241,2.48235,2.897946
90,0.1777778,728,390,511,496,-0.3823521,-0.1150459,-0.1770597,-0.7778289,3.032406,0.07310324,-0.1721622,-0.105094,0.171871,-0.3378241,2.48235,2.897946
90,0.1888889,728,390,511,496,-0.3697608,-0.1093311,-0.1747938,-0.7769256,3.02963,0.07881359,-0.1851059,-0.09244606,0.1644623,-0.3379338,2.47717,2.905162
90,0.2,728,390,511,496,-0.3520394,-0.09715709,-0.1692687,-0.7757176,3.026312,0.084427,-0.1787503,-0.09132996,0.1601214,-0.3383535,2.472747,2.91104
90,0.2111111,728,390,511,496,-0.3343108,-0.08597445,-0.1647669,-0.7752334,3.023788,0.08942042,-0.177778,-0.0827979,0.1579396,-0.3385123,2.467503,2.91795
90,0.2222222,728,390,511,496,-0.3200016,-0.06856053,-0.1569845,-0.775113,3.021577,0.09416831,-0.1821406,-0.07860465,0.1494085,-0.3388899,2.463852,2.92348
90,0.2333333,647,372,500,490,-0.2953237,-0.04239143,-0.1448217,-0.7747855,3.018975,0.09854868,-0.1450055,-0.06766418,0.1437264,-0.3390779,2.459315,2.928542
90,0.2444444,647,372,500,490,-0.2718689,-0.01199253,-0.13039,-0.7754726,3.017982,0.1015293,-0.1279668,-0.06430925,0.1467706,-0.3393453,2.453764,2.934766
90,0.2555556,647,372,500,490,-0.2575545,0.004242241,-0.1151671,-0.7760228,3.01676,0.1049115,-0.1234796,-0.07060865,0.1616789,-0.3394508,2.447419,2.941621
90,0.2666667,647,372,500,490,-0.2469936,0.006677926,-0.1118856,-0.776239,3.015204,0.1085606,-0.1126698,-0.08108002,0.1744154,-0.3404036,2.44008,2.949754
90,0.2777778,594,380,514,491,-0.2278703,0.005938999,-0.09158124,-0.7763125,3.014597,0.1109915,-0.1010627,-0.08106141,0.1594161,-0.3410902,2.435229,2.955066
90,0.2888889,594,380,514,491,-0.2116888,7.610023E-05,-0.09052493,-0.7763637,3.013516,0.1137063,-0.08965687,-0.08864127,0.1146187,-0.3422396,2.434407,2.956745
90,0.3,594,380,514,491,-0.1943768,-0.007904649,-0.08845246,-0.7761725,3.012158,0.116378,-0.07271948,-0.08856255,0.1016982,-0.3430727,2.431544,2.959851
90,0.3111111,594,380,514,491,-0.1740765,-0.01046547,-0.08412073,-0.7764537,3.011541,0.1185448,-0.06424499,-0.08745647,0.09308261,-0.3436692,2.429462,2.961942
90,0.3222222,594,380,514,491,-0.1590916,-0.01206398,-0.08622006,-0.7764009,3.010098,0.1210034,-0.06106203,-0.07993504,0.09942017,-0.3440357,2.425176,2.966631
90,0.3333333,545,386,492,488,-0.1507049,-0.008685041,-0.07974353,-0.7764819,3.009081,0.1231829,-0.0610678,-0.07137156,0.1057576,-0.3442391,2.421621,2.970471
90,0.3444445,545,386,492,488,-0.1358681,-0.006087823,-0.07857765,-0.7763652,3.007921,0.1251366,-0.06020054,-0.06293683,0.08972614,-0.3448804,2.419678,2.972909
90,0.3555556,545,386,492,488,-0.1295552,-0.003761953,-0.07745244,-0.7764713,3.006745,0.1272576,-0.05386321,-0.05649158,0.08964353,-0.3451579,2.416664,2.976231
90,0.3666667,545,386,492,488,-0.1274537,-0.003806688,-0.06998722,-0.7765037,3.005879,0.1292544,-0.02946752,-0.04457556,0.08511814,-0.3450162,2.414497,2.977544
90,0.3777778,490,437,497,490,-0.1231673,-0.00476218,-0.06785516,-0.776517,3.004871,0.1312379,-0.02202613,-0.04987569,0.07762671,-0.3455846,2.412218,2.97974
90,0.3888889,490,437,497,490,-0.1186621,-0.01210486,-0.06474535,-0.7764798,3.004118,0.1328379,-0.0229902,-0.06267441,0.07448597,-0.3464112,2.410392,2.981567
90,0.4,490,437,497,490,-0.1078176,-0.01820311,-0.06053758,-0.776206,3.003268,0.1343469,-0.02831254,-0.06057118,0.07771842,-0.3468197,2.407212,2.985079
90,0.4111111,490,437,497,490,-0.1000207,-0.02864973,-0.05747418,-0.7757159,3.002321,0.1359586,-0.02720881,-0.05518466,0.08726129,-0.3470376,2.403944,2.98833
90,0.4222222,490,437,497,490,-0.09217995,-0.04020348,-0.0512019,-0.7751514,3.002212,0.1366564,-0.02517937,-0.04773419,0.08293696,-0.347338,2.401794,2.99062
90,0.4333333,453,489,495,486,-0.08762883,-0.049758,-0.04387472,-0.7743982,3.001622,0.1379374,-0.01880416,-0.03912698,0.08921769,-0.3474083,2.399154,2.99307
90,0.4444444,453,489,495,486,-0.0765518,-0.06458718,-0.02595025,-0.7732531,3.001686,0.1384482,-0.01033893,-0.0273243,0.09335823,-0.3473263,2.39553,2.996276
90,0.4555556,453,489,495,486,-0.06115614,-0.08023967,-0.0144148,-0.7719386,3.001623,0.1387507,-0.0008765347,-0.0166118,0.08896821,-0.3471031,2.392989,2.998448
90,0.4666667,453,489,495,486,-0.04557367,-0.09996887,-0.01466159,-0.7703897,3.00104,0.1392929,0.004421204,-0.02194657,0.07827622,-0.3474658,2.391951,2.9991
90,0.4777778,411,507,501,486,-0.03130523,-0.1122816,-0.01479841,-0.7688674,3.000505,0.1396737,0.001148181,-0.02202031,0.06871489,-0.3476357,2.390318,3.000714
90,0.4888889,411,507,501,486,-0.02255516,-0.1183509,-0.01698656,-0.7675491,2.999779,0.1401813,-0.01608304,-0.03727467,0.02952337,-0.3486035,2.391541,3.000189
90,0.5,411,507,501,486,-0.005669765,-0.1123435,-0.02428707,-0.7664929,2.99889,0.1404658,0.003969046,-0.02650959,0.01759258,-0.3486706,2.391648,2.999501
90,0.5111111,411,507,501,486,-0.003925107,-0.1005605,-0.02410143,-0.7657393,2.998317,0.1408088,0.01139537,-0.02218027,0.01644499,-0.3485476,2.391128,2.999489
90,0.5222223,411,507,501,486,0.007786136,-0.06817989,-0.02462075,-0.7658148,2.997905,0.1407497,0.01571718,-0.0242452,0.0206746,-0.3487452,2.390355,2.99987
90,0.5333334,395,497,488,488,0.01327519,-0.04138507,-0.02205405,-0.7660748,2.997706,0.1406165,0.01773358,-0.01894272,0.01210957,-0.3488272,2.390622,2.999379
90,0.5444446,395,497,488,488,0.02040353,0.0003826097,-0.01925284,-0.7670484,2.997652,0.1401723,0.02413129,-0.01995333,0.0109827,-0.3489822,2.390881,2.998627
90,0.5555557,395,497,488,488,0.02225085,0.03976305,-0.01117761,-0.7684892,2.998088,0.1395629,0.02948445,-0.0231042,0.01095485,-0.3492805,2.390349,2.998678
90,0.5666668,395,497,488,488,0.02638116,0.07497774,-0.004225766,-0.7701228,2.998562,0.13874,0.03797149,-0.02627094,0.001306899,-0.3496214,2.391184,2.997043
90,0.577778,395,497,488,488,0.03146646,0.1134333,0.001716739,-0.772297,2.99923,0.1377824,0.05169807,-0.02087044,-0.007351164,-0.3498046,2.391972,2.995485
90,0.5888891,381,460,478,488,0.03398974,0.1349127,-0.002189391,-0.774411,2.99971,0.1366297,0.05698971,-0.02192604,-0.01272316,-0.3502515,2.39286,2.993914
90,0.6000003,381,460,478,488,0.03728656,0.1637985,-0.001729294,-0.7769687,3.000204,0.135785,0.05912099,-0.02404898,-0.01486069,-0.3506004,2.393374,2.992725
90,0.6111114,381,460,478,488,0.04023795,0.1714252,-0.004780449,-0.7791951,3.000793,0.1349115,0.05910306,-0.02085003,-0.0138085,-0.3507884,2.393532,2.991928
90,0.6222225,381,460,478,488,0.04313801,0.1799989,-0.001437688,-0.781339,3.001364,0.1339314,0.05799741,-0.01338681,-0.01063882,-0.3507335,2.393595,2.991296
90,0.6333337,409,431,491,493,0.04667604,0.1694103,0.001608193,-0.7829235,3.001781,0.1330297,0.05909586,-0.0101456,-0.003206138,-0.3507378,2.393054,2.991122
90,0.6444448,409,431,491,493,0.04630885,0.1491682,-0.000850169,-0.7839707,3.0016,0.1324944,0.05793814,-0.009143155,-0.01492634,-0.3508843,2.394729,2.988781
90,0.655556,409,431,491,493,0.05227752,0.1302,-0.002186606,-0.7849295,3.001699,0.131704,0.05366252,-0.01561223,-0.02338291,-0.3513077,2.395914,2.987197
90,0.6666671,409,431,491,493,0.05231281,0.09714615,-0.001633178,-0.785143,3.001738,0.1310845,0.04729402,-0.01565344,-0.02227455,-0.3514222,2.396769,2.985837
90,0.6777782,409,431,491,493,0.05416194,0.07376799,0.0001620222,-0.7858951,3.002308,0.1298802,0.05047725,-0.005997624,-0.01382468,-0.3512321,2.396648,2.985314
90,0.6888894,355,393,496,493,0.05120448,0.0341705,0.003799031,-0.7851793,3.002372,0.1293348,0.04310943,-0.003864676,-0.002049353,-0.3510621,2.395644,2.985804
90,0.7000005,355,393,496,493,0.05061339,-0.01285742,0.01052636,-0.7837859,3.002512,0.1287084,0.04521143,0.002560381,0.001098383,-0.35084,2.395455,2.985418
90,0.7111117,355,393,496,493,0.04924921,-0.06734931,0.01500414,-0.7816282,3.002511,0.1276922,0.03028815,0.007783396,0.004391119,-0.3504646,2.39522,2.985583
90,0.7222228,355,393,496,493,0.04743138,-0.1090239,0.01754775,-0.7793357,3.002457,0.1272288,0.02810984,0.0120299,0.00332576,-0.3501215,2.395258,2.985329
90,0.7333339,390,337,508,496,0.04820261,-0.1325028,0.02144638,-0.7774854,3.002488,0.1265737,0.02476835,0.0108439,-0.01581766,-0.3501407,2.39727,2.983246
90,0.7444451,390,337,508,496,0.0498288,-0.1495334,0.02331979,-0.7753953,3.002563,0.1259292,0.02572972,0.007572629,-0.03285535,-0.3503143,2.399676,2.980578
90,0.7555562,390,337,508,496,0.05080171,-0.1474513,0.02868295,-0.7737617,3.002958,0.1250663,0.01598885,0.005257124,-0.05407233,-0.3505151,2.403078,2.977506
90,0.7666674,390,337,508,496,0.05116953,-0.1272957,0.03537839,-0.77286,3.003391,0.1241102,0.00958195,0.0009318441,-0.05930968,-0.3504635,2.404629,2.976228
90,0.7777785,390,337,508,496,0.04362182,-0.0935249,0.04119959,-0.7725724,3.004205,0.1232223,0.002113333,0.009427402,-0.05183357,-0.3501929,2.405874,2.975234
90,0.7888896,411,318,502,499,0.04050698,-0.06378301,0.04270963,-0.7728307,3.004872,0.122123,-0.002188259,0.01686691,-0.04864782,-0.3498126,2.407688,2.973732
90,0.8000008,411,318,502,499,0.03646715,-0.007530458,0.04995805,-0.7741756,3.006184,0.1208926,-0.001085257,0.008333053,-0.05287631,-0.3500709,2.409615,2.971914
90,0.8111119,411,318,502,499,0.03448972,0.05088662,0.05936936,-0.7759615,3.007554,0.1193517,0.0150456,-0.01819979,-0.06246573,-0.3510499,2.41203,2.968984
90,0.8222231,411,318,502,499,0.03330689,0.08598466,0.06203909,-0.7777725,3.008942,0.1180206,0.01825914,-0.02244578,-0.06567827,-0.3514265,2.414652,2.966163
90,0.8333342,409,288,493,491,0.02954378,0.1348734,0.06384382,-0.780483,3.010369,0.1166608,0.02243443,-0.0235326,-0.07742544,-0.3519256,2.417899,2.96274
90,0.8444453,409,288,493,491,0.02408795,0.1698079,0.0675566,-0.78302,3.011931,0.1155956,0.02235003,-0.01288035,-0.07641903,-0.3520113,2.420495,2.960132
90,0.8555565,409,288,493,491,0.020237,0.1887976,0.07209791,-0.7855356,3.013649,0.1142496,0.01707467,-0.01075291,-0.06786413,-0.3521359,2.421897,2.958747
90,0.8666676,409,288,493,491,0.01493214,0.1886382,0.07101592,-0.7874478,3.015137,0.1129819,0.01498075,-0.01181778,-0.06357592,-0.3524704,2.423377,2.95737
90,0.8777788,409,288,493,491,0.01198292,0.1810631,0.07195245,-0.7891676,3.01657,0.1119247,0.02030771,-0.01391385,-0.06573933,-0.3528257,2.42553,2.954982
90,0.8888899,394,268,498,491,0.01077841,0.1533131,0.07151727,-0.7900177,3.017811,0.1109729,0.02675985,-0.01917767,-0.06470595,-0.3532806,2.427582,2.952485
90,0.900001,394,268,498,491,0.01074101,0.1235277,0.06786662,-0.7906249,3.018984,0.1097622,0.03209541,-0.02126851,-0.06580411,-0.35372,2.429564,2.950111
90,0.9111122,394,268,498,491,0.01279747,0.09373854,0.06847766,-0.7908241,3.020106,0.1087598,0.02465263,-0.02132667,-0.06467927,-0.3541062,2.431488,2.948184
90,0.9222233,394,268,498,491,0.01568612,0.07150303,0.06494742,-0.7909423,3.021005,0.1078735,0.0203937,-0.0170753,-0.05933174,-0.3542558,2.432646,2.947061
90,0.9333345,394,268,498,491,0.01321121,0.0193212,0.05667079,-0.7900065,3.021476,0.1073179,0.01512434,-0.008519916,-0.04335098,-0.3541216,2.432855,2.946831
90,0.9444456,391,258,503,496,0.007593291,-0.003302846,0.05840933,-0.7891628,3.021947,0.1065882,0.007647514,-0.005374618,-0.04224955,-0.3541589,2.434644,2.945303
90,0.9555568,391,258,503,496,0.005419359,-0.03311822,0.05154534,-0.7879601,3.022316,0.1063203,0.003405094,-0.008611479,-0.04326484,-0.3544156,2.43593,2.944196
90,0.9666679,391,258,503,496,0.003858231,-0.04911687,0.04807561,-0.7869481,3.022442,0.1058702,0.002381593,-0.003243178,-0.03368232,-0.354292,2.435911,2.944085
90,0.977779,391,258,503,496,0.004056543,-0.05435704,0.04266782,-0.7861843,3.022792,0.1055645,0.004465707,-3.72706E-05,-0.03584351,-0.3542574,2.437177,2.942818
90,0.9888902,333,250,502,497,0.001796901,-0.04901012,0.03633947,-0.7857763,3.022897,0.1052172,0.002352623,-0.003249574,-0.03580984,-0.3544369,2.438251,2.941982
90,1.000001,333,250,502,497,-0.002761215,-0.03948811,0.0311426,-0.7855505,3.023148,0.105189,0.0002080519,0.002081962,-0.03155456,-0.3542739,2.43887,2.941504
90,1.011112,333,250,502,497,-0.01282052,-0.02482059,0.02600439,-0.7856602,3.023387,0.1054175,-0.007176088,0.002064512,-0.02190593,-0.3542361,2.438767,2.941967
90,1.022224,333,250,502,497,-0.01659252,-0.006778391,0.02199899,-0.7857912,3.023464,0.105475,-0.008264607,0.007413098,-0.01873454,-0.3538393,2.439844,2.941153
90,1.033335,333,250,502,497,-0.01816172,0.009213757,0.01904817,-0.7864426,3.023821,0.1052258,-0.006125147,0.006365792,-0.01874666,-0.3538116,2.440418,2.940633
90,1.044446,381,226,503,499,-0.02258586,0.01444443,0.01591608,-0.7867468,3.024015,0.1054713,-0.005011469,0.00532673,-0.01341812,-0.3538782,2.440132,2.94098
90,1.055557,381,226,503,499,-0.02771521,0.009010414,0.0115501,-0.7866914,3.024057,0.1058702,-0.01032943,0.006357584,-0.01124962,-0.353786,2.44041,2.940977
90,1.066668,381,226,503,499,-0.03156666,-0.002775598,0.00709034,-0.7863628,3.02395,0.1063869,-0.01349203,0.0106414,-0.00269984,-0.3533509,2.439143,2.942415
90,1.077779,381,226,503,499,-0.03510239,-0.02415936,0.003548061,-0.7855313,3.023761,0.107009,-0.01556406,0.009591475,0.003716935,-0.3531927,2.4385,2.943293
90,1.08889,342,203,509,497,-0.03692694,-0.03266414,-0.001918318,-0.7849571,3.023446,0.1076844,-0.02081479,0.005316027,0.009116188,-0.3531037,2.437497,2.944657
90,1.100002,342,203,509,497,-0.04071288,-0.04780943,0.004224289,-0.7839835,3.023608,0.1081169,-0.02283986,0.00108939,0.01767125,-0.352953,2.436563,2.94585
90,1.111113,342,203,509,497,-0.03706689,-0.0615944,0.008265717,-0.7832469,3.023404,0.1084397,-0.02276742,-0.008503044,0.01665234,-0.3532428,2.435948,2.946679
90,1.122224,342,203,509,497,-0.03549599,-0.07649621,0.01016554,-0.7820889,3.02329,0.1086293,-0.02596513,-0.01065241,0.0145668,-0.3530963,2.435405,2.947603
90,1.133335,342,203,509,497,-0.0358774,-0.09672552,0.007718741,-0.7804825,3.023066,0.1092013,-0.03767611,-0.005393434,0.02102748,-0.3529264,2.434292,2.949383
90,1.144446,430,224,490,494,-0.03060155,-0.1263844,0.006204706,-0.7781762,3.022583,0.1094735,-0.04192375,-0.007557392,0.02000756,-0.3529232,2.433749,2.950411
90,1.155557,430,224,490,494,-0.02877426,-0.1486388,0.001604188,-0.7759397,3.022111,0.1100711,-0.04084869,-0.01075461,0.01788387,-0.3530995,2.433221,2.951334
90,1.166668,430,224,490,494,-0.0246211,-0.1441909,-0.001514585,-0.774231,3.021744,0.1102943,-0.03133423,-0.01178793,0.007152034,-0.3532289,2.433948,2.950727
90,1.17778,430,224,490,494,-0.02342562,-0.1186821,-0.001105477,-0.7706038,3.021105,0.1123822,-0.02817544,-0.008576076,0.006052089,-0.3533738,2.433197,2.952053
90,1.188891,408,206,509,497,-0.02006077,-0.0919421,0.0003879364,-0.7703705,3.021121,0.1124978,-0.02813945,-0.01283706,0.00607271,-0.3536374,2.432876,2.952677
90,1.200002,408,206,509,497,-0.02259688,-0.04844195,0.00106175,-0.7694059,3.021173,0.1130091,-0.02284834,-0.004242398,0.01131072,-0.3533711,2.432457,2.95325
90,1.211113,408,206,509,497,-0.02575168,-0.01760743,-0.0006038137,-0.7701846,3.021214,0.113374,-0.02513506,0.00741813,0.004879126,-0.3530973,2.433044,2.953142
90,1.222224,408,206,509,497,-0.03012634,0.0174003,0.0009867745,-0.7714954,3.021499,0.1136536,-0.0251672,0.008469308,0.001661695,-0.3530185,2.434083,2.952416
90,1.233335,408,206,509,497,-0.03012634,0.0174003,0.0009867745,-0.7714954,3.021499,0.1136536,-0.0251672,0.008469308,0.001661695,-0.3530185,2.434083,2.952416
90,1.244446,377,205,512,498,-0.03966614,0.07889486,-0.001295203,-0.7739865,3.02177,0.1149857,-0.01226934,-0.01169174,-0.005808517,-0.3537652,2.434868,2.951556
90,1.255558,377,205,512,498,-0.04254079,0.1011961,-0.002026964,-0.7756819,3.021947,0.1154049,-0.007997653,-0.01486823,-0.009029609,-0.3540689,2.435606,2.95072
90,1.266669,377,205,512,498,-0.04490681,0.1063965,-0.002995815,-0.7758688,3.022501,0.1163919,-0.007981757,-0.01164637,-0.00371882,-0.3540801,2.435251,2.95115
90,1.27778,377,205,512,498,-0.04693475,0.1030143,-0.001987141,-0.7754294,3.022562,0.1169101,-0.01428702,-0.01809028,-0.001509314,-0.3545674,2.43499,2.951522
90,1.288891,346,197,507,498,-0.04442048,0.09134255,-2.641417E-05,-0.776084,3.02276,0.1171876,-0.01639908,-0.02130914,-0.002541842,-0.3549131,2.434982,2.951782
90,1.300002,346,197,507,498,-0.04897584,0.0666096,0.0006550066,-0.7752904,3.023048,0.1183429,-0.01638816,-0.01700637,0.002774752,-0.3546462,2.434114,2.952724
90,1.311113,346,197,507,498,-0.04403216,0.04654219,-0.0006997176,-0.7751881,3.022949,0.118744,-0.01956745,-0.01595012,0.005995286,-0.3547187,2.433485,2.953631
90,1.322224,346,197,507,498,-0.04207195,0.01996366,-0.00110149,-0.7745623,3.022795,0.1192585,-0.01420988,-0.02336996,0.001725012,-0.3550766,2.433781,2.953318
90,1.333336,346,197,507,498,-0.04207195,0.01996366,-0.00110149,-0.7745623,3.022795,0.1192585,-0.01420988,-0.02336996,0.001725012,-0.3550766,2.433781,2.953318
90,1.344447,392,223,490,495,-0.03068079,-0.03284481,-0.006111449,-0.7729394,3.022529,0.119781,-0.01958666,-0.0138026,0.004918482,-0.3550026,2.433283,2.954318
90,1.355558,392,223,490,495,-0.02914618,-0.04663207,-0.007383103,-0.7719822,3.022183,0.1203019,-0.02173721,-0.01062301,0.004924657,-0.3549994,2.432969,2.954817
90,1.366669,392,223,490,495,-0.01954114,-0.04742417,-0.004160064,-0.7714666,3.022161,0.120222,-0.02068173,-0.007407861,0.007031023,-0.3549615,2.432597,2.955357
90,1.37778,392,223,490,495,-0.01558188,-0.03881386,-0.0008150414,-0.7712802,3.022264,0.1202018,-0.01959876,-0.00524028,0.01127427,-0.3548018,2.43187,2.95621
90,1.388891,373,216,508,499,-0.01185606,-0.02268591,-0.001616857,-0.7716365,3.022272,0.1202252,-0.01759006,-0.001013907,0.0005838117,-0.3547373,2.432882,2.955399
90,1.400002,373,216,508,499,-0.007986967,-0.01081624,-0.002483707,-0.7719098,3.022249,0.1202146,-0.005848054,0.001228555,0.004738302,-0.3547517,2.432441,2.955403
90,1.411114,373,216,508,499,-0.007190269,-0.003394152,0.001895617,-0.7721574,3.022546,0.1200761,-0.006913281,0.001219633,0.004746926,-0.3547288,2.432298,2.955652
90,1.422225,373,216,508,499,-0.004756982,0.01903624,0.004381971,-0.7731236,3.022907,0.1197911,-0.0005642835,0.002334486,0.00150766,-0.3544321,2.431976,2.955866
90,1.433336,373,216,508,499,-0.0009811241,0.03295299,0.008873448,-0.7738976,3.023399,0.1193432,0.0005192827,-0.003009595,-0.001679863,-0.3548449,2.432569,2.955308
90,1.444447,347,225,510,496,0.001877498,0.04373165,0.008059966,-0.7745884,3.025179,0.1177352,0.0004944494,-0.005184731,-0.008067505,-0.355271,2.433407,2.954363
90,1.455558,347,225,510,496,0.004924014,0.04808073,0.009204702,-0.7752302,3.025461,0.1173639,0.0005644597,-0.01048647,-0.004838615,-0.3553722,2.432793,2.954949
90,1.466669,347,225,510,496,0.006068092,0.0460115,0.008113684,-0.7757565,3.025658,0.1170885,0.006950975,-0.008303571,-0.002786012,-0.355573,2.433276,2.954273
90,1.47778,347,225,510,496,0.002042785,0.04059796,0.005886937,-0.7762721,3.025838,0.1164078,0.00268897,-0.006199099,-0.001690969,-0.3554745,2.433129,2.954378
90,1.488891,347,225,510,496,0.002342155,0.03213057,0.002561535,-0.7763759,3.025729,0.1164457,0.003754555,-0.007260702,-0.002759659,-0.3555959,2.433266,2.954168
90,1.500003,387,240,495,495,0.005740101,0.02693078,0.002489835,-0.7767972,3.025771,0.1159029,0.004836448,-0.009383354,-0.002755897,-0.3557882,2.433133,2.954248
90,1.511114,387,240,495,495,0.006867753,0.02480456,0.004592532,-0.7770295,3.025985,0.1156419,0.003787291,-0.006170233,0.002563423,-0.3557142,2.432548,2.954782
90,1.522225,387,240,495,495,0.007002311,0.02051349,0.006657891,-0.7771221,3.026191,0.1154182,0.005890026,-0.005093548,0.00148243,-0.3557205,2.432407,2.954963
90,1.533336,387,240,495,495,0.007002311,0.02051349,0.006657891,-0.7771221,3.026191,0.1154182,0.005890026,-0.005093548,0.00148243,-0.3557205,2.432407,2.954963
90,1.544447,447,233,485,492,0.005713462,-0.005015581,0.003089618,-0.7769772,3.026785,0.1153458,0.003796851,-0.01260595,-0.002723291,-0.356527,2.432405,2.954755
90,1.555558,447,233,485,492,0.005684996,-0.003982943,0.005234339,-0.7770305,3.026909,0.1149719,0.0006077671,-0.009409098,0.00154417,-0.3564034,2.432233,2.955028
90,1.566669,447,233,485,492,0.006758313,-0.003914452,0.003108877,-0.7769954,3.026871,0.1148968,-0.0005800212,-0.00199808,-0.005940274,-0.3562692,2.4332,2.954173
90,1.577781,447,233,485,492,0.003541404,-0.002907902,-8.49684E-05,-0.7769805,3.026738,0.1150464,-0.002690759,0.004404755,0.001504519,-0.3561302,2.432512,2.954705
90,1.588892,447,233,485,492,0.003541404,-0.002907902,-8.49684E-05,-0.7769805,3.026738,0.1150464,-0.002690759,0.004404755,0.001504519,-0.3561302,2.432512,2.954705
90,1.600003,447,233,485,492,0.001498928,-0.005094932,-0.0001316639,-0.7770816,3.026687,0.1148973,-0.003763893,0.006541449,0.00257334,-0.355793,2.432225,2.95501
90,1.611114,383,215,499,495,0.002479157,-0.002979261,0.003101152,-0.7771013,3.026869,0.1147274,0.002658902,0.0001988548,-0.0006417444,-0.3558271,2.432504,2.954479
90,1.622225,383,215,499,495,0.002134259,0.007715646,6.807252E-05,-0.7775232,3.026822,0.1147423,0.008020246,-0.00936811,-0.005959061,-0.3561786,2.432703,2.9541
90,1.633336,383,215,499,495,0.004974823,0.01848489,-0.000820138,-0.7780361,3.026868,0.1145724,0.01116393,-0.007219018,-0.01025995,-0.3560375,2.433629,2.95303
90,1.644447,383,215,499,495,0.002650848,0.02372867,0.001408736,-0.7786891,3.027632,0.114167,0.01217556,0.00131001,-0.007131807,-0.3560891,2.43432,2.952344
90,1.655559,366,217,501,497,-0.0003685877,0.01828228,0.002378174,-0.7787376,3.02769,0.1142102,0.00896994,0.005560175,-0.003930984,-0.3559134,2.434318,2.952348
90,1.66667,366,217,501,497,0.0008894652,0.01299302,0.003370249,-0.778923,3.027878,0.1137527,0.01004345,0.004511712,-0.001808772,-0.355957,2.434438,2.952364
90,1.677781,366,217,501,497,3.083679E-05,0.006537099,0.005398314,-0.7787951,3.028028,0.1136749,0.01114997,0.00348682,0.002457374,-0.3557216,2.433805,2.952855
90,1.688892,366,217,501,497,0.008671889,0.002529272,0.009657882,-0.7790577,3.028871,0.1127742,0.0165014,0.002464909,0.003481962,-0.3558186,2.433704,2.952503
90,1.700003,366,217,501,497,0.0120792,-0.003734743,0.009561532,-0.7791035,3.028742,0.1126698,0.01760674,-0.01140972,-0.00604166,-0.3562031,2.434259,2.951749
90,1.711114,383,229,498,496,0.01241396,-0.01326673,0.00621991,-0.7787264,3.028642,0.112599,0.01118312,-0.01363599,-0.0123714,-0.3566442,2.434939,2.951123
90,1.722225,383,229,498,496,0.01294205,-0.0281007,0.001719245,-0.7781757,3.028158,0.1126357,0.006931117,-0.01152028,-0.00914727,-0.3566111,2.434799,2.951283
90,1.733337,383,229,498,496,0.01030579,-0.04409438,-0.00386471,-0.7773139,3.027753,0.1128839,-0.009115961,6.713718E-05,-0.004822608,-0.3565653,2.43503,2.951695
90,1.744448,383,229,498,496,0.01167128,-0.05247416,-0.007172727,-0.7772979,3.027773,0.1126693,-0.0122891,-0.006369314,-0.007959323,-0.3568987,2.435289,2.951714
90,1.755559,391,221,508,498,0.01398367,-0.05770928,-0.00830945,-0.7765272,3.027466,0.1126618,-0.005844893,-0.01056646,-0.005859756,-0.3571166,2.435162,2.951708
90,1.76667,391,221,508,498,0.02364907,-0.05943444,-0.01149359,-0.7763727,3.027129,0.112371,0.0005506761,-0.01050712,-0.004848555,-0.3572098,2.43521,2.951546
90,1.777781,391,221,508,498,0.0244193,-0.05091497,-0.009228488,-0.7760771,3.027011,0.112158,0.004825423,-0.01153859,-0.003812815,-0.3574719,2.4352,2.95147
90,1.788892,391,221,508,498,0.02175212,-0.03507091,-0.004734545,-0.7763003,3.027125,0.1117052,0.006919206,0.0002238979,0.002504319,-0.35718,2.434755,2.951621
90,1.800003,391,221,508,498,0.01781667,-0.01161451,-0.01399392,-0.7767679,3.026238,0.112134,0.005711108,0.01725834,0.002430198,-0.3565163,2.435014,2.951365
90,1.811115,367,206,498,494,0.01740665,3.018975E-05,-0.009554501,-0.7770992,3.026339,0.1118938,0.007781932,0.02366209,0.0002486752,-0.3560508,2.435588,2.950544
90,1.822226,367,206,498,494,0.01735494,0.03306897,-0.009056114,-0.7783461,3.026201,0.1119252,0.01421228,0.01840578,-0.0008348208,-0.3556961,2.435522,2.950225
90,1.833337,367,206,498,494,0.01380366,0.04360776,-0.008908021,-0.7791152,3.026195,0.1118687,0.01958404,0.00991237,-0.004032052,-0.3558068,2.435845,2.94955
90,1.844448,367,206,498,494,0.01558465,0.05431526,-0.007694232,-0.7801107,3.02579,0.1117707,0.02179497,0.001435438,-0.001863276,-0.3557142,2.43515,2.950048
90,1.855559,341,197,488,494,0.01316112,0.06272775,-0.005443404,-0.7810029,3.025963,0.1115753,0.02718286,-0.003835861,0.0002501314,-0.3558969,2.434868,2.94983
90,1.86667,341,197,488,494,0.01122612,0.05735498,-0.006601983,-0.7815403,3.025837,0.1114197,0.02512236,-0.009168979,0.001355395,-0.3560258,2.434851,2.949393
90,1.877781,341,197,488,494,0.01144032,0.05096753,-0.006699582,-0.7819238,3.025818,0.1113042,0.01984768,-0.009181745,0.007789989,-0.356071,2.434047,2.950081
90,1.888893,341,197,488,494,0.0115741,0.04664205,-0.001464028,-0.7825757,3.025582,0.1111465,0.01771354,-0.006019076,0.009911714,-0.3563959,2.433782,2.950098
90,1.900004,341,197,488,494,0.01592723,0.04354156,0.001701765,-0.7829449,3.025772,0.1107044,0.01880889,-0.009204002,0.01098661,-0.3565919,2.433172,2.950492
90,1.911115,312,183,484,491,0.02018514,0.04366241,0.003852245,-0.7835963,3.026027,0.1100695,0.02096868,-0.004881283,0.01945416,-0.3564641,2.432623,2.950761
90,1.922226,312,183,484,491,0.01895652,0.04780298,0.009238351,-0.7842115,3.026495,0.1095561,0.02304773,0.004761813,0.02364849,-0.3558399,2.432009,2.951099
90,1.933337,312,183,484,491,0.02192372,0.05424803,0.01254581,-0.7849689,3.026946,0.1089206,0.02731722,0.004802577,0.02467923,-0.3557237,2.43123,2.951416
90,1.944448,312,183,484,491,0.0246514,0.066982,0.02234185,-0.7859995,3.027854,0.1079257,0.02738408,0.004839092,0.03213738,-0.3556013,2.429671,2.9525
90,1.955559,283,186,496,497,0.02499984,0.08709676,0.03224223,-0.7874179,3.028936,0.1068918,0.03689357,0.008088697,0.02565798,-0.3552939,2.429219,2.952245
90,1.966671,283,186,496,497,0.02937414,0.1148717,0.03801496,-0.7893194,3.030031,0.1056732,0.04519387,0.009093165,-0.001049289,-0.3553094,2.431551,2.949329
90,1.977782,283,186,496,497,0.02748613,0.1381089,0.04795459,-0.7913359,3.031423,0.1044188,0.04935808,0.006926075,-0.01491864,-0.3553839,2.432718,2.947627
90,1.988893,283,186,496,497,0.02591495,0.1540482,0.04924138,-0.793606,3.032104,0.1031938,0.04618953,0.001568597,-0.01593575,-0.355532,2.433226,2.946872
90,2.000004,283,186,496,497,0.02895778,0.1583805,0.05145112,-0.7954026,3.033267,0.1020007,0.03882647,-0.01556832,-0.02218404,-0.3562223,2.434084,2.945801
90,2.011115,328,219,490,494,0.03642756,0.1586955,0.04722393,-0.7971416,3.034126,0.1008044,0.02499004,-0.02531312,-0.03054689,-0.3569019,2.435447,2.94462
90,2.022226,328,219,490,494,0.04002072,0.1471282,0.04492544,-0.7983992,3.034811,0.09982966,0.01532234,-0.01580188,-0.02943877,-0.3568013,2.435782,2.944488
90,2.033337,328,219,490,494,0.03834513,0.1343805,0.03832971,-0.7995694,3.035358,0.09904296,0.008879133,-0.01481629,-0.03471844,-0.3570426,2.437196,2.943236
90,2.044448,328,219,490,494,0.04083902,0.1237628,0.03921229,-0.8003273,3.035526,0.09828929,0.005701303,-0.01590458,-0.03361818,-0.3573632,2.437905,2.942565
90,2.055559,374,227,502,499,0.03320332,0.09802655,0.03239268,-0.8006991,3.035818,0.09792124,0.006789889,-0.01695556,-0.0314915,-0.3577206,2.438507,2.941939
90,2.06667,374,227,502,499,0.02672247,0.06906655,0.02978971,-0.8007166,3.036227,0.09747382,0.01001991,-0.01689798,-0.02618998,-0.3578703,2.438878,2.941538
90,2.077781,374,227,502,499,0.02307883,0.05085915,0.02736374,-0.8007694,3.036571,0.09705304,0.007898029,-0.0136918,-0.0219246,-0.3578447,2.43913,2.941272
90,2.088892,374,227,502,499,0.02622945,0.02118723,0.02372275,-0.8005212,3.036777,0.09636702,0.01224323,-0.01897061,-0.01873277,-0.3582788,2.439171,2.940801
90,2.100003,374,227,502,499,0.0204595,0.004071019,0.01381863,-0.8000173,3.035973,0.09673027,0.01653407,-0.01998998,-0.01556638,-0.3586186,2.439276,2.94049
90,2.111114,371,230,494,497,0.01573209,-0.01304167,0.007143486,-0.7994293,3.035749,0.09682561,0.01662087,-0.02315162,-0.008095983,-0.3589579,2.438797,2.940756
90,2.122225,371,230,494,497,0.008771453,-0.02700206,0.001591865,-0.7994618,3.036016,0.09660457,0.01556726,-0.02315507,-0.005957307,-0.3593009,2.43875,2.940745
90,2.133336,371,230,494,497,0.007977532,-0.03440757,-0.003852624,-0.7989078,3.035657,0.09679419,0.01562283,-0.01990805,0.004681312,-0.3594026,2.437724,2.941574
90,2.144447,371,230,494,497,0.0006693788,-0.0378254,-0.006080929,-0.7983731,3.035132,0.09692575,0.01564701,-0.02311708,0.003636875,-0.3598495,2.437306,2.941704
90,2.155558,371,230,494,497,-0.003604027,-0.03682108,-0.01140948,-0.798005,3.034709,0.09737529,0.01678254,-0.02841856,0.006850136,-0.3602767,2.436586,2.942161
90,2.166669,296,214,496,495,-0.002542213,-0.03566258,-0.01460042,-0.7978527,3.034013,0.09753561,0.01044269,-0.025218,0.01859808,-0.3603609,2.435297,2.943689
90,2.17778,296,214,496,495,-0.006870169,-0.03246336,-0.02415702,-0.7976503,3.033249,0.09826319,0.00402629,-0.0188556,0.02395327,-0.3603342,2.433841,2.945391
90,2.188891,296,214,496,495,-0.00794993,-0.0313431,-0.02948477,-0.7975129,3.032329,0.09902325,0.002986515,-0.01777802,0.02821767,-0.3604067,2.432522,2.946621
90,2.200002,296,214,496,495,-0.01119016,-0.02922212,-0.0358574,-0.7972758,3.031506,0.09977692,0.004040469,-0.01669132,0.02820468,-0.3603289,2.431713,2.947319
90,2.211113,234,201,497,494,-0.011404,-0.02283466,-0.03575975,-0.7972439,3.030941,0.1002957,0.008362131,-0.01875986,0.03350684,-0.3604865,2.430166,2.948566
90,2.222224,234,201,497,494,-0.009617354,-0.01099475,-0.03985316,-0.7974383,3.02972,0.1007106,0.0104932,-0.01872917,0.03348579,-0.3604322,2.429285,2.949219
90,2.233335,234,201,497,494,-0.01098182,-0.001367031,-0.04503728,-0.7977803,3.028854,0.101468,0.008423518,-0.0208509,0.03883976,-0.3606192,2.427481,2.950882
90,2.244446,234,201,497,494,-0.01115439,0.00396191,-0.04497578,-0.7981041,3.027807,0.1022478,0.005297397,-0.02188601,0.04739533,-0.3605371,2.425253,2.953135
90,2.255557,234,201,497,494,-0.009008273,0.004098719,-0.04922697,-0.7982244,3.026907,0.1029109,0.006414242,-0.02827094,0.04741906,-0.3609664,2.42354,2.954642
90,2.266668,292,212,501,498,-0.009889275,-0.001172688,-0.05356741,-0.7984061,3.026078,0.1037695,0.00209746,-0.02618803,0.04425027,-0.3610666,2.422274,2.956098
90,2.277779,292,212,501,498,-0.01082461,-0.004294664,-0.06001753,-0.7984881,3.024833,0.1048034,0.004235783,-0.02402255,0.04741969,-0.3611363,2.42046,2.957685
90,2.28889,292,212,501,498,-0.006588941,-0.003038537,-0.06317782,-0.7985632,3.023742,0.1055315,0.01166903,-0.0282437,0.04099011,-0.361375,2.419447,2.958415
90,2.300001,292,212,501,498,-0.008797957,-0.001013372,-0.0610244,-0.7986836,3.022912,0.1062852,0.01276385,-0.02500116,0.04842201,-0.3614139,2.417351,2.960296
90,2.311112,311,225,491,489,-0.01197949,-0.001070797,-0.06423406,-0.7987512,3.021798,0.1072748,0.01167344,-0.02716705,0.04311487,-0.3616999,2.416249,2.96123
90,2.322223,311,225,491,489,-0.005623788,0.0001714043,-0.06313694,-0.7985947,3.0206,0.1078873,0.01273389,-0.02824256,0.04205574,-0.3621462,2.414404,2.962862
90,2.333334,311,225,491,489,-0.00442908,-0.004100628,-0.06000188,-0.7985174,3.019755,0.1085142,0.01906242,-0.02287498,0.03984739,-0.3621857,2.413177,2.963651
90,2.344445,311,225,491,489,-0.00339517,-0.001905892,-0.0621108,-0.7986239,3.018404,0.1090011,0.01584839,-0.02078783,0.03773125,-0.3623758,2.41206,2.964381
90,2.355556,311,225,491,489,-0.003415992,-0.001988064,-0.05678499,-0.798633,3.017714,0.1095033,0.01798054,-0.01647436,0.04302169,-0.3622187,2.41023,2.965913
90,2.366668,322,225,492,495,0.001167558,-0.0114106,-0.05797789,-0.798315,3.01671,0.1100557,0.01800201,-0.01753449,0.04409193,-0.3623529,2.408662,2.967123
90,2.377779,322,225,492,495,-0.0006094463,-0.0210179,-0.06028591,-0.7981142,3.015201,0.1108131,0.02328538,-0.01858659,0.03766288,-0.3625633,2.407829,2.967502
90,2.38889,322,225,492,495,0.0007840823,-0.03053067,-0.06255811,-0.7975875,3.01409,0.1115321,0.01895538,-0.01758762,0.03130013,-0.3627023,2.407304,2.968029
90,2.400001,322,225,492,495,0.003035819,-0.03368601,-0.06048634,-0.7972903,3.012787,0.111996,0.01357798,-0.01017548,0.03342884,-0.362747,2.406304,2.969042
90,2.411112,322,225,492,495,0.005148632,-0.03368067,-0.05621631,-0.7969584,3.012007,0.1124461,0.01679024,-0.0079972,0.03765344,-0.3626693,2.40479,2.970182
90,2.422223,296,203,491,498,0.006318592,-0.03689861,-0.05201573,-0.79665,3.010953,0.1128626,0.01780034,-0.001583975,0.03868255,-0.3623348,2.403508,2.971298
90,2.433334,296,203,491,498,0.01371515,-0.03566751,-0.04664083,-0.7963305,3.010359,0.1129543,0.01990842,0.004843438,0.04289523,-0.3620685,2.401941,2.972553
90,2.444445,296,203,491,498,0.01584509,-0.03562311,-0.04450166,-0.796078,3.009672,0.11308,0.02415356,0.0005981401,0.03755575,-0.362028,2.401102,2.973075
90,2.455556,296,203,491,498,0.01675498,-0.0313786,-0.04123631,-0.7958878,3.009108,0.1132563,0.02520742,-0.007958772,0.02801509,-0.3622575,2.400297,2.973613
90,2.466667,293,187,500,497,0.01895586,-0.03346677,-0.03913205,-0.795532,3.008446,0.1133266,0.02634364,-0.01325884,0.03015866,-0.3623827,2.399281,2.974105
90,2.477778,293,187,500,497,0.01561524,-0.02933152,-0.03801573,-0.7953514,3.007847,0.1136504,0.01881722,-0.007997902,0.02805634,-0.3621792,2.398844,2.974639
90,2.488889,293,187,500,497,0.01444055,-0.02506739,-0.04008407,-0.7953643,3.007167,0.1136445,0.01449523,-0.004858833,0.02381421,-0.3621191,2.398481,2.974931
90,2.5,293,187,500,497,0.01392572,-0.0102291,-0.03559519,-0.7956673,3.006814,0.1137601,0.01445908,-0.003789593,0.02168311,-0.3619225,2.397809,2.975546
90,2.511111,293,187,500,497,0.01141304,0.001443088,-0.03755555,-0.796037,3.006201,0.1141452,0.01871232,-0.006971104,0.01740326,-0.3620578,2.397485,2.975525
90,2.522222,340,181,483,498,0.01212851,0.01094467,-0.02994803,-0.7964221,3.006097,0.1140738,0.02076848,-0.005919386,0.0109952,-0.3620685,2.397377,2.975547
90,2.533333,340,181,483,498,0.0097639,0.01943737,-0.03410077,-0.7966474,3.005161,0.114166,0.02175541,-0.002746655,0.004579348,-0.3620322,2.39784,2.974839
90,2.544444,340,181,483,498,0.008686852,0.0193525,-0.03090995,-0.7968684,3.004848,0.1143125,0.01962224,-0.001686616,0.005658333,-0.3619066,2.397501,2.975053
90,2.555555,340,181,483,498,0.01084771,0.01834251,-0.02985176,-0.7970974,3.004445,0.1144206,0.02168008,0.004707234,0.003477461,-0.3617617,2.397724,2.97458
90,2.566666,300,179,488,496,0.008424014,0.02674535,-0.02762023,-0.7974884,3.003748,0.1148962,0.02482612,0.006844467,0.0002569426,-0.3616722,2.397583,2.97444
90,2.577777,300,179,488,496,0.009262882,0.03311896,-0.02432224,-0.7980466,3.003568,0.1148984,0.03116757,0.004725359,-0.008305263,-0.3617121,2.39854,2.973001
90,2.588888,300,179,488,496,0.008657649,0.05115037,-0.02086803,-0.7988684,3.00313,0.1149612,0.03002531,0.008956559,-0.01257688,-0.3615369,2.399281,2.972105
90,2.599999,300,179,488,496,0.009630606,0.0532328,-0.01550496,-0.7995124,3.003178,0.1147982,0.02680478,0.01319762,-0.01149589,-0.3612487,2.399214,2.971931
90,2.61111,300,179,488,496,0.009807263,0.0478344,-0.01026164,-0.7999752,3.003225,0.1143769,0.02792341,0.006814998,-0.01147302,-0.3613308,2.399565,2.971256
90,2.622221,292,170,508,502,0.01657451,0.03628778,-0.007217555,-0.8000967,3.003233,0.1140057,0.02694587,-0.001705471,-0.009289829,-0.3615934,2.399484,2.971058
90,2.633332,292,170,508,502,0.01793067,0.02662693,9.649852E-05,-0.8001265,3.003516,0.1135859,0.0258952,0.001507141,-0.003970474,-0.3614868,2.399365,2.970929
90,2.644443,292,170,508,502,0.02250148,0.0171549,0.002098714,-0.8000588,3.00361,0.1131481,0.02370202,0.00253523,-0.008229358,-0.3614389,2.400381,2.97006
90,2.655554,292,170,508,502,0.02066496,0.008600146,-0.0001713578,-0.7999166,3.003493,0.1130533,0.02369725,0.002527848,-0.008230876,-0.361539,2.400668,2.969611
90,2.666665,348,196,494,497,0.02352515,-0.01375076,0.003756218,-0.7991555,3.00354,0.1126693,0.02047044,0.0003443956,-0.01246743,-0.3617254,2.401696,2.968707
90,2.677776,348,196,494,497,0.02586646,-0.01892088,-0.001652717,-0.7989388,3.003031,0.1125047,0.01724671,0.004583023,-0.01139804,-0.3615955,2.402066,2.968281
90,2.688887,348,196,494,497,0.02378086,-0.02002357,-0.003808659,-0.7986676,3.002856,0.1124206,0.01402579,0.004545051,-0.01349519,-0.3615859,2.402421,2.96799
90,2.699998,348,196,494,497,0.02179703,-0.02324005,-0.006000718,-0.7985595,3.002622,0.1119337,0.01405905,-0.004005712,-0.01771639,-0.3620434,2.403198,2.967149
90,2.711109,348,196,494,497,0.0214878,-0.01482219,0.0005207611,-0.7985941,3.002913,0.1115012,0.01090044,0.00134178,-0.008124994,-0.3618618,2.402598,2.967611
90,2.72222,325,186,485,499,0.01914085,-0.008522193,0.001674518,-0.7986479,3.002991,0.1112935,0.01303412,0.001366996,-0.007083116,-0.3618368,2.402956,2.967141
90,2.733331,325,186,485,499,0.01707032,-0.01077175,0.004828084,-0.798453,3.003163,0.1110389,0.01302466,0.004573394,-0.004968387,-0.3617058,2.403009,2.966951
90,2.744442,325,186,485,499,0.01370624,-0.00562369,0.008074778,-0.7982304,3.003041,0.1107481,0.01096812,0.0003116373,0.0003917434,-0.3619609,2.402681,2.967254
90,2.755553,325,186,485,499,0.01139897,-0.000371817,0.008147052,-0.7983486,3.003188,0.1105633,0.003520299,-0.005099969,-0.003784132,-0.3622512,2.40301,2.967115
90,2.766664,325,186,485,499,0.00704164,0.002712792,0.006047088,-0.7984785,3.003227,0.1105814,0.003452891,0.001277587,-0.004880711,-0.3622016,2.403272,2.966905
90,2.777775,316,190,503,498,0.006627018,0.0155371,0.003047346,-0.7990357,3.003263,0.1104946,0.002294904,0.006576092,-0.009158325,-0.3619827,2.403939,2.966469
90,2.788886,316,190,503,498,0.005419876,0.01973466,0.004154227,-0.7992434,3.002992,0.1105862,0.0002395562,0.002320528,-0.003799737,-0.362118,2.403847,2.966663
90,2.799997,316,190,503,498,0.003228959,0.02179995,0.004164408,-0.799661,3.002826,0.1105862,0.00242998,-0.00191093,-0.0006070059,-0.3623273,2.403828,2.966608
90,2.811108,316,190,503,498,0.002053479,0.02494173,0.005273885,-0.8000029,3.003008,0.1104679,0.001398896,-0.0008279231,0.004722639,-0.3622767,2.403321,2.967106
90,2.822219,303,193,504,497,-0.003188668,0.0226098,0.007342352,-0.8002799,3.003122,0.1103358,-0.0007734229,0.004476428,0.004705378,-0.3621366,2.403618,2.966849
90,2.83333,303,193,504,497,-0.005357711,0.02358691,0.008414573,-0.8005579,3.003338,0.110306,0.00462379,-0.004001332,0.004704131,-0.3624051,2.403347,2.966891
90,2.844441,303,193,504,497,-0.00343211,0.02999671,0.01062973,-0.8008562,3.003177,0.1101345,0.005669111,-0.001852207,0.005749118,-0.3623236,2.40321,2.967106
90,2.855552,303,193,504,497,-0.005778989,0.03629671,0.01178355,-0.8014107,3.003483,0.1100402,0.005675687,0.0002923878,0.008933838,-0.3622485,2.402715,2.967526
90,2.866663,303,193,504,497,-0.006906629,0.03833754,0.01392297,-0.801604,3.003417,0.1099427,0.0003667586,0.001337403,0.01217189,-0.3620546,2.402056,2.968274
90,2.877774,248,175,495,495,-0.00556442,0.03103624,0.006357234,-0.801751,3.00322,0.1100855,-0.002852282,0.005578817,0.01323965,-0.3618538,2.401756,2.968583
90,2.888885,248,175,495,495,-0.007196065,0.01504644,0.006141691,-0.802102,3.004155,0.1100727,0.0003347863,0.005600047,0.01214845,-0.3617755,2.401457,2.968772
90,2.899997,248,175,495,495,-0.008811165,0.0001371908,0.001643337,-0.8017073,3.003967,0.1103577,0.001442758,0.00563905,0.01747209,-0.3615699,2.400343,2.96978
90,2.911108,248,175,495,495,-0.009280108,-0.01690228,-0.0007739509,-0.8010874,3.003373,0.1106192,0.001530525,-0.0007311543,0.02176457,-0.3616871,2.399263,2.970774
90,2.922219,278,168,501,500,-0.005951907,-0.02108704,0.001304918,-0.8007146,3.003407,0.110575,0.005794881,0.0003863061,0.0249203,-0.36158,2.398213,2.971751
90,2.93333,278,168,501,500,-0.003621364,-0.02745294,0.004411679,-0.8002298,3.003513,0.1104839,0.004667424,0.007834185,0.0248922,-0.3612509,2.397568,2.972343
90,2.944441,278,168,501,500,0.0018197,-0.03050812,0.006505955,-0.7997989,3.003424,0.1101063,-0.0007155109,0.006701464,0.01854098,-0.3610927,2.397863,2.972449
90,2.955552,278,168,501,500,0.007233594,-0.03359029,0.01074067,-0.7993132,3.003662,0.1097281,0.001432515,0.002446049,0.01641314,-0.3611662,2.397477,2.97276
90,2.966663,278,168,501,500,0.01163055,-0.03772311,0.01175897,-0.798771,3.003793,0.1093952,-0.0006813314,-0.001830294,0.01432838,-0.3610543,2.396901,2.973386
90,2.977774,306,184,510,504,0.0166014,-0.02694646,0.01513445,-0.7988455,3.004007,0.1086969,0.0004640075,-0.01355085,0.01224657,-0.361547,2.39648,2.973748
90,2.988885,306,184,510,504,0.01727089,-0.01521709,0.01638393,-0.7989616,3.004313,0.1082847,-0.004867857,-0.0135881,0.01122885,-0.3614826,2.396008,2.974314
90,2.999996,306,184,510,504,0.01510263,-0.01426345,0.018502,-0.7986937,3.004208,0.1082133,-0.007131335,-0.002980155,0.00586751,-0.3612338,2.39634,2.974158
90,3.011107,306,184,510,504,0.0175182,-0.02271018,0.01837751,-0.7983933,3.004324,0.1078713,-0.01573064,0.0108346,0.01119488,-0.3605425,2.395907,2.975055
90,3.022218,282,192,488,493,0.02292189,-0.02470843,0.02047511,-0.7976854,3.004165,0.107295,-0.01901581,0.01610815,0.005875482,-0.3602618,2.395986,2.975275
90,3.033329,282,192,488,493,0.02691963,-0.01716388,0.02380335,-0.7976801,3.004658,0.1065211,-0.01695372,0.01394201,-0.004783803,-0.3602282,2.397042,2.974422
90,3.04444,282,192,488,493,0.03855816,-0.01469798,0.02706666,-0.7975028,3.004832,0.1055059,-0.006349565,0.01399548,-0.01232349,-0.3600865,2.397856,2.973266
90,3.055551,282,192,488,493,0.04360123,-0.005987418,0.02615521,-0.7976412,3.005214,0.1046143,2.439274E-05,0.0108243,-0.01768606,-0.3601297,2.398824,2.972221
90,3.066662,282,192,488,493,0.04140424,-0.005013382,0.03043535,-0.798209,3.006159,0.1038276,-2.220366E-05,0.01509016,-0.01877748,-0.3597414,2.399832,2.971325
90,3.077773,282,187,509,504,0.03525855,-0.01160182,0.02922764,-0.797841,3.006163,0.1032129,-0.006527647,0.01389674,-0.03363457,-0.3597568,2.402103,2.969495
90,3.088884,282,187,509,504,0.03410741,-0.008361133,0.02394627,-0.7977946,3.006353,0.1027144,-0.00442524,0.01069411,-0.03896546,-0.3598101,2.403891,2.967967
90,3.099995,282,187,509,504,0.03609407,-0.004094076,0.02828347,-0.797875,3.007019,0.1015538,0.0008562244,0.008578571,-0.04645153,-0.3597595,2.405792,2.966078
90,3.111106,282,187,509,504,0.03666103,0.0108455,0.02851691,-0.7983512,3.007546,0.1007628,0.005064592,0.01179364,-0.04969778,-0.3596727,2.407646,2.964178
90,3.122217,282,187,509,504,0.03901717,0.0353548,0.03423244,-0.7993116,3.008383,0.09968531,0.007229075,0.01076459,-0.04652391,-0.3596216,2.409267,2.962552
90,3.133328,306,184,491,497,0.04278644,0.05034702,0.03659791,-0.7999353,3.008874,0.09853163,0.007254954,0.01078064,-0.04332816,-0.3595784,2.410443,2.961378
90,3.144439,306,184,491,497,0.0388692,0.07148264,0.04010662,-0.801277,3.009827,0.09754946,0.009365179,0.006507241,-0.04971927,-0.3597414,2.412626,2.959222
90,3.15555,306,184,491,497,0.03645827,0.07992066,0.04022815,-0.8021223,3.010564,0.09666049,0.0103959,0.006494692,-0.05398891,-0.3598011,2.414663,2.957163
90,3.166661,306,184,491,497,0.03102815,0.08293698,0.04025432,-0.8030767,3.011327,0.09592866,0.01572375,0.006537531,-0.0540311,-0.3598314,2.416195,2.95541
90,3.177772,329,183,501,499,0.03114729,0.07973027,0.04126888,-0.8038677,3.012068,0.09480747,0.01789762,0.001228632,-0.05402002,-0.3600839,2.417722,2.953756
90,3.188883,329,183,501,499,0.02804851,0.07759367,0.03483145,-0.8046672,3.012444,0.09430999,0.01687529,0.002317155,-0.04762514,-0.3601174,2.418798,2.952576
90,3.199994,329,183,501,499,0.02414609,0.06794994,0.0293375,-0.8051274,3.012736,0.0936916,0.01691149,0.001279183,-0.04334916,-0.3600881,2.419566,2.951771
90,3.211105,329,183,501,499,0.02774737,0.05641204,0.02491067,-0.8054523,3.013043,0.09307162,0.01378611,-0.004057501,-0.04010097,-0.3603481,2.420438,2.950893
90,3.222216,329,183,501,499,0.02960335,0.03193558,0.0288203,-0.8057128,3.014097,0.09211448,0.01590831,0.002383552,-0.03375429,-0.3601494,2.420968,2.950249
90,3.233327,310,180,515,501,0.02905252,0.01706201,0.02432607,-0.805504,3.01427,0.09167932,0.01487762,0.002396153,-0.02948461,-0.3601638,2.421523,2.949593
90,3.244438,310,180,515,501,0.03083229,-0.004177557,0.02293833,-0.8048403,3.014485,0.09110994,0.01075906,-0.006109036,-0.01982223,-0.3603992,2.421392,2.949806
90,3.255549,310,180,515,501,0.03144586,-0.02226723,0.02266411,-0.8042682,3.014846,0.09035254,0.0087342,-0.01462724,-0.01550155,-0.3607901,2.421354,2.949806
90,3.26666,310,180,515,501,0.03176181,-0.03186493,0.02358203,-0.8036344,3.015175,0.08976024,0.009945085,-0.02094909,-0.003754801,-0.3610858,2.420142,2.950842
90,3.277771,280,178,489,496,0.02486527,-0.04806837,0.02223105,-0.8027881,3.015218,0.08934373,0.004736865,-0.02626608,0.006963996,-0.3614442,2.419079,2.95212
90,3.288882,280,178,489,496,0.02084726,-0.05569535,0.02422856,-0.8019481,3.015556,0.08897408,0.009012638,-0.01551395,0.01965937,-0.3612424,2.417537,2.953346
90,3.299993,280,178,489,496,0.01818796,-0.07058443,0.01651654,-0.8008999,3.015126,0.08898047,0.006840839,-0.0080606,0.02284085,-0.3610725,2.41652,2.95435
90,3.311104,280,178,489,496,0.0122068,-0.0824416,0.01204845,-0.7996525,3.014961,0.08912428,0.01640052,-0.001573545,0.02592674,-0.3608557,2.415514,2.954832
90,3.322215,280,178,489,496,0.005803183,-0.08133259,-0.001791452,-0.7994927,3.014746,0.0898492,0.01956127,-0.002645278,0.02057103,-0.3610298,2.415626,2.954458
90,3.333326,281,182,491,495,0.004612371,-0.07704372,-0.005991188,-0.7987683,3.014404,0.09006065,0.02381468,-0.007968336,0.01417122,-0.3612818,2.415548,2.954151
90,3.344437,281,182,491,495,0.002166837,-0.06636631,-0.01221973,-0.7984274,3.014118,0.09006811,0.03131943,-0.01322701,0.01520401,-0.3615342,2.414738,2.954448
90,3.355548,281,182,491,495,0.003834113,-0.05245586,-0.01199776,-0.7982362,3.013933,0.09010965,0.03129282,-0.01217241,0.01306474,-0.3616455,2.414558,2.954289
90,3.366659,281,182,491,495,0.01514649,-0.0392122,-0.01708351,-0.7981004,3.013369,0.08993655,0.03127116,-0.01647069,0.006688726,-0.3620466,2.414857,2.953732
90,3.37777,281,182,491,495,0.02096997,-0.02194956,-0.01785927,-0.79829,3.0131,0.08974747,0.02805732,-0.0132889,0.008833788,-0.3620322,2.414192,2.95427
90,3.388881,366,199,494,502,0.01752707,-0.01460395,-0.01775827,-0.7983262,3.012831,0.08983162,0.02155907,0.001582308,0.01094238,-0.3615704,2.413877,2.954494
90,3.399992,366,199,494,502,0.01267519,0.003356224,-0.01856351,-0.7986096,3.012557,0.08993282,0.02253632,0.01438843,0.01300618,-0.3609894,2.413397,2.954636
90,3.411103,366,199,494,502,0.003798166,0.01370164,-0.01737098,-0.7990533,3.012406,0.09023003,0.02460579,0.01650979,0.00765198,-0.3607656,2.413585,2.954122
90,3.422215,366,199,494,502,0.002393886,0.02333813,-0.02040973,-0.8001185,3.012392,0.09070833,0.02781706,0.0111777,0.003396944,-0.3609707,2.413522,2.953699
90,3.433326,340,198,487,495,0.002401892,0.02337118,-0.02254006,-0.8003992,3.011977,0.09097625,0.02463094,0.006874125,0.0002484391,-0.361017,2.413724,2.953317
90,3.444437,340,198,487,495,0.006538533,0.02785403,-0.02778212,-0.8008525,3.011414,0.09118557,0.02145625,-0.0006306991,-0.003952225,-0.3612642,2.414132,2.952888
90,3.455548,340,198,487,495,0.01045642,0.03760403,-0.02867946,-0.8016791,3.011106,0.09154936,0.0172825,-0.003824171,0.003555177,-0.3613547,2.413409,2.953482
90,3.466659,340,198,487,495,0.01137095,0.04186475,-0.02647903,-0.8022591,3.01083,0.09158611,0.01728293,-0.0006060582,0.006742436,-0.3611097,2.412721,2.953901
90,3.47777,340,198,487,495,0.01033533,0.04074822,-0.02543245,-0.8026794,3.010625,0.09167506,0.01084373,0.005747395,0.007835605,-0.3607049,2.412335,2.954372
90,3.488881,371,198,503,503,0.008379631,0.03533785,-0.02445834,-0.8029473,3.0103,0.09185402,0.002314357,0.000318364,0.001540164,-0.3608599,2.412637,2.954282
90,3.499992,371,198,503,503,0.006587196,0.02573447,-0.02780432,-0.8030049,3.009859,0.09206388,0.001242062,0.001377592,0.002614978,-0.3608413,2.412221,2.954762
90,3.511103,371,198,503,503,0.004817175,0.01503428,-0.02904247,-0.8029122,3.009326,0.09243512,0.002377811,-0.00499432,0.004768576,-0.3610677,2.411768,2.955118
90,3.522214,371,198,503,503,-0.001233108,0.005232982,-0.0302758,-0.8024376,3.008874,0.09266841,-0.001946008,0.002415159,0.00370697,-0.3609095,2.411545,2.955348
90,3.533325,291,184,497,497,-0.0002292432,0.007401902,-0.0313134,-0.8024882,3.00813,0.09306256,-0.002993714,0.001346453,0.004786205,-0.360886,2.411309,2.955627
90,3.544436,291,184,497,497,-0.002232472,0.003006473,-0.02712744,-0.8024269,3.007848,0.09334379,0.0002726235,-0.002868109,0.009053303,-0.3609782,2.41018,2.956555
90,3.555547,291,184,497,497,-0.004642127,0.01146872,-0.02807045,-0.8028147,3.00748,0.09368894,0.009879103,-0.01348414,0.0005060351,-0.3614362,2.410618,2.955754
90,3.566658,291,184,497,497,-0.00252071,0.01150656,-0.02593105,-0.8029494,3.00716,0.09386205,0.02053169,-0.02088046,-0.005932401,-0.361849,2.410982,2.95504
90,3.577769,291,184,497,497,-0.001456797,0.01153283,-0.02486457,-0.8032233,3.006752,0.09407457,0.01941411,-0.01556932,-0.00701257,-0.3618815,2.411113,2.954737
90,3.58888,238,167,501,495,-0.004433719,0.005055517,-0.02604178,-0.8031433,3.0063,0.09450973,0.01402279,0.0004011616,0.001467267,-0.3615097,2.410889,2.954972
90,3.599991,238,167,501,495,-0.00518056,-0.004602401,-0.0240814,-0.802771,3.005607,0.09496087,0.009723377,0.01211869,0.008904027,-0.3610783,2.410172,2.955669
90,3.611102,238,167,501,495,-0.00172215,-0.01309538,-0.01887326,-0.8024057,3.005453,0.09498697,0.007575192,0.01423154,0.008910821,-0.3608535,2.410006,2.955802
90,3.622213,238,167,501,495,0.003875914,-0.02144898,-0.01792215,-0.8020467,3.005061,0.09516114,0.02147386,0.01222289,0.0120009,-0.3609041,2.40948,2.955553
90,3.633324,244,190,496,497,0.006246049,-0.02886321,-0.01589767,-0.8015369,3.004822,0.09519469,0.02470521,0.006917756,0.01093606,-0.3609409,2.409158,2.955481
90,3.644435,244,190,496,497,0.008816589,-0.0415545,-0.01716114,-0.8007411,3.004187,0.09533424,0.01946024,0.0004888978,0.01420954,-0.3611822,2.408271,2.95622
90,3.655546,244,190,496,497,0.009219348,-0.05321518,-0.02053717,-0.7998783,3.003614,0.09563731,0.0141238,0.003652656,0.01636826,-0.3609878,2.40765,2.956779
90,3.666657,244,190,496,497,0.0104776,-0.05843639,-0.02487536,-0.7991326,3.002983,0.09594943,0.01411505,0.004720394,0.01636122,-0.3608455,2.407301,2.956943
90,3.677768,244,190,496,497,0.009332944,-0.05639093,-0.02272222,-0.7984136,3.002553,0.09617846,0.007670918,0.006788363,0.01213835,-0.3605707,2.407576,2.956787
90,3.688879,269,198,493,497,0.0122269,-0.0478342,-0.01831659,-0.7981265,3.00238,0.09608205,0.006614134,0.007855536,0.01427224,-0.3604173,2.406977,2.957276
90,3.69999,269,198,493,497,0.01640697,-0.04563796,-0.01293351,-0.7977867,3.002455,0.09555635,0.00982952,0.005758431,0.01425013,-0.360314,2.406888,2.957126
90,3.711101,269,198,493,497,0.01645816,-0.04784995,-0.00764056,-0.7972279,3.002458,0.09538857,0.01300684,0.01112726,0.01739325,-0.3600232,2.406297,2.957456
90,3.722212,269,198,493,497,0.022845,-0.04768963,-0.004416652,-0.7966388,3.002383,0.09486606,0.01193765,0.01004097,0.0152784,-0.3599252,2.405935,2.957629
90,3.733323,269,198,493,497,0.02711571,-0.04749806,-0.007594047,-0.7961509,3.002076,0.09467591,0.01302143,0.003636785,0.01104055,-0.3600557,2.405839,2.957528
90,3.744434,275,203,491,496,0.02905707,-0.04214018,-0.005368041,-0.7957701,3.00212,0.09431638,0.01730994,-0.004876811,0.00572196,-0.3603582,2.40593,2.957136
90,3.755545,275,203,491,496,0.02983677,-0.03362072,-0.003110133,-0.795629,3.001971,0.09396378,0.02148755,0.002602911,0.002446583,-0.3601041,2.406509,2.956177
90,3.766656,275,203,491,496,0.03038413,-0.01876404,0.002450287,-0.7957988,3.002223,0.09343168,0.02147571,0.01009053,0.00880056,-0.3597313,2.405792,2.956667
90,3.777767,275,203,491,496,0.03241815,-0.01668628,0.009942677,-0.7955251,3.002463,0.09281968,0.02245462,0.02074395,0.00873596,-0.3593243,2.405852,2.956314
90,3.788878,304,213,492,495,0.03320253,-0.00811761,0.009013519,-0.7956524,3.002577,0.09235736,0.02242217,0.02072232,0.004471721,-0.3590815,2.406291,2.955631
90,3.799989,304,213,492,495,0.04045761,-0.002569998,0.01018735,-0.7956406,3.002642,0.0918993,0.02457275,0.01540531,0.00128893,-0.3590005,2.40635,2.95523
90,3.8111,304,213,492,495,0.0434109,0.005021615,0.00818566,-0.7958969,3.002728,0.09127079,0.02662587,0.01216262,-0.01149553,-0.3590527,2.407595,2.953703
90,3.822211,304,213,492,495,0.04321339,0.0102909,0.01146097,-0.7960455,3.003004,0.09074242,0.03082232,0.01216141,-0.01898136,-0.3589073,2.408546,2.952431
90,3.833322,304,213,492,495,0.04721899,0.01784858,0.01372979,-0.7963421,3.003454,0.08975811,0.0275473,0.01958092,-0.02112293,-0.358559,2.409643,2.951185
90,3.844433,344,208,496,491,0.04515537,0.01563836,0.01475112,-0.7965472,3.003696,0.08916423,0.0243794,0.01742023,-0.02108869,-0.3585254,2.410362,2.950181
90,3.855544,344,208,496,491,0.04435844,0.007009659,0.01994249,-0.7964593,3.004208,0.0882806,0.0243347,0.02488772,-0.01899536,-0.3580812,2.411057,2.949283
90,3.866655,344,208,496,491,0.04758807,0.006051498,0.01993958,-0.7964929,3.0045,0.08745927,0.01695593,0.02164993,-0.01359386,-0.3580588,2.411183,2.949054
90,3.877766,344,208,496,491,0.04748732,0.009212588,0.0221246,-0.796675,3.005029,0.08638229,0.01906037,0.01844437,-0.01999316,-0.3579746,2.412667,2.947412
90,3.888877,339,213,491,496,0.04934818,0.01665254,0.02757466,-0.7969962,3.005695,0.0853149,0.0212349,0.01420639,-0.01892407,-0.3579725,2.413211,2.946631
90,3.899988,339,213,491,496,0.05037013,0.01768433,0.03184938,-0.7971693,3.006209,0.08423366,0.02225249,0.0109794,-0.02743096,-0.3579741,2.414438,2.945283
90,3.911099,339,213,491,496,0.04907639,0.02396987,0.03620435,-0.7975736,3.006944,0.08321473,0.01695235,0.01095148,-0.02419169,-0.3579033,2.415011,2.944706
90,3.92221,339,213,491,496,0.04922439,0.01971156,0.03613412,-0.7976397,3.007383,0.0822741,0.0127222,0.01307616,-0.01883517,-0.3576673,2.415075,2.944541
90,3.933321,339,213,491,496,0.04815246,0.01962269,0.03931792,-0.7977701,3.007931,0.0813111,0.01170047,0.01202364,-0.01456016,-0.3575997,2.41528,2.944267
90,3.944432,401,221,490,494,0.04704489,0.0206202,0.04146022,-0.7980199,3.008697,0.08025809,0.01384125,0.0141951,-0.01137609,-0.3572727,2.414956,2.944322
90,3.955544,401,221,490,494,0.04687035,0.02591259,0.04366915,-0.7984519,3.009444,0.07906872,0.01802446,0.01311131,-0.02205806,-0.3572513,2.416498,2.942566
90,3.966655,401,221,490,494,0.04139285,0.02994368,0.046908,-0.798845,3.010337,0.07812703,0.02660576,0.003570333,-0.02634293,-0.3575981,2.41766,2.940744
90,3.977766,401,221,490,494,0.03083277,0.02752624,0.04256937,-0.7990612,3.010842,0.07768974,0.02758718,0.004593752,-0.03487524,-0.3577025,2.419157,2.939103
90,3.988877,423,222,495,498,0.02690965,0.01786961,0.03814245,-0.7989931,3.011263,0.07720078,0.01903921,0.005577754,-0.03694142,-0.3577073,2.420516,2.93784
90,3.999988,423,222,495,498,0.02416585,0.005041629,0.03474201,-0.7987267,3.011786,0.07642207,0.009437973,0.006563999,-0.03580768,-0.3577621,2.421667,2.937099
90,4.011099,423,222,495,498,0.02019139,-0.003616881,0.03459219,-0.7984402,3.012264,0.07596507,0.0009770039,0.005460606,-0.02934122,-0.3577616,2.422201,2.936796
89.8,4.02221,423,222,495,498,0.01957207,-0.01757022,0.03969176,-0.7979832,3.012868,0.07528757,-0.002215527,0.008646837,-0.02506358,-0.3576732,2.422501,2.936664
89.60001,4.033321,423,222,495,498,0.02322781,-0.03133508,0.0416137,-0.7973456,3.013348,0.07446678,0.001057621,0.01191604,-0.01338094,-0.3575858,2.421859,2.93703
89.40001,4.044433,385,206,492,497,0.0248177,-0.04730151,0.04350123,-0.7963619,3.013991,0.0736886,0.004284441,0.01303365,-0.008085569,-0.3574303,2.421778,2.937012
89.20001,4.055544,385,206,492,497,0.03287012,-0.06523894,0.04857357,-0.7951006,3.014708,0.07239271,0.002131754,0.01408157,-0.009134658,-0.3571885,2.422195,2.93674
89.00002,4.066655,385,206,492,497,0.03440864,-0.07899307,0.04516828,-0.7938132,3.015199,0.07162252,0.005215336,0.02902974,-0.009241219,-0.3564034,2.423264,2.935427
88.80002,4.077766,385,206,492,497,0.02912656,-0.08027181,0.04726096,-0.792847,3.015935,0.07072557,0.00510346,0.03859266,-0.01354239,-0.3558218,2.424002,2.934659
88.60002,4.088878,385,206,492,497,0.02891726,-0.07386772,0.04629473,-0.7921327,3.01659,0.06993834,0.00930318,0.04180209,-0.01785414,-0.3553323,2.425224,2.933314
88.40002,4.099989,341,199,490,497,0.03180018,-0.06537604,0.05496519,-0.7915714,3.017781,0.06859078,0.01893731,0.03227668,-0.02214479,-0.3552657,2.42623,2.931913
88.20003,4.1111,341,199,490,497,0.03340043,-0.05053407,0.06372629,-0.7913445,3.019068,0.06726027,0.02961669,0.02595711,-0.02539566,-0.3552295,2.427339,2.930267
88.00003,4.122211,341,199,490,497,0.03734348,-0.04304393,0.07240845,-0.7913578,3.021072,0.06587063,0.04552686,0.03568507,-0.0234446,-0.3546436,2.428351,2.928504
87.80003,4.133323,341,199,490,497,0.04364877,-0.04196601,0.08523383,-0.7908587,3.022876,0.06394516,0.05189828,0.03573131,-0.02562305,-0.3542297,2.429421,2.926818
87.60004,4.144434,388,203,491,494,0.05133069,-0.04925284,0.09047571,-0.7900267,3.024432,0.0620703,0.05397268,0.03358003,-0.03522611,-0.3539608,2.431879,2.923825
87.40004,4.155545,388,203,491,494,0.05809803,-0.0608002,0.09351682,-0.7889609,3.025913,0.06019809,0.05920989,0.03785569,-0.04168156,-0.353524,2.433952,2.921121
87.20004,4.166656,388,203,491,494,0.06579574,-0.0680205,0.09449808,-0.7879196,3.02729,0.05829979,0.05708398,0.03677094,-0.04272572,-0.3532209,2.435656,2.918867
87.00005,4.177768,388,203,491,494,0.07097705,-0.06358481,0.09458649,-0.7872885,3.028706,0.05639883,0.05278372,0.03670271,-0.04801002,-0.3530489,2.437463,2.916678
86.80005,4.188879,388,203,491,494,0.08053567,-0.06336527,0.1010179,-0.7865188,3.030485,0.05397269,0.04850453,0.04200985,-0.04480603,-0.3525455,2.439051,2.914795
86.60005,4.19999,367,206,493,495,0.08779033,-0.05790742,0.1085915,-0.7860341,3.032512,0.05130686,0.05166479,0.0473533,-0.04486294,-0.3521572,2.440944,2.912216
86.40005,4.211102,367,206,493,495,0.1013076,-0.04909589,0.1194334,-0.7856783,3.034819,0.04814196,0.05039776,0.06220948,-0.05451587,-0.3512891,2.444097,2.908729
86.20006,4.222213,367,206,493,495,0.1199608,-0.03799308,0.130345,-0.7851686,3.037463,0.04614992,0.05241678,0.07394255,-0.0556496,-0.3503058,2.446448,2.90598
86.00006,4.233324,367,206,493,495,0.1333159,-0.02500618,0.1465787,-0.7851691,3.040425,0.04221324,0.05456433,0.07504158,-0.05247656,-0.3495857,2.448443,2.90344
85.80006,4.244435,380,219,503,495,0.1456661,-0.01537737,0.1627903,-0.7830892,3.043979,0.03835964,0.07049582,0.07941532,-0.05370108,-0.3490078,2.450997,2.899858
85.60007,4.255547,380,219,503,495,0.1539527,-0.01002395,0.1724788,-0.7814258,3.046506,0.0348187,0.07893015,0.08585077,-0.05806326,-0.3481492,2.453962,2.895968
85.40007,4.266658,380,219,503,495,0.166056,0.008217711,0.1909212,-0.7819217,3.05026,0.02998506,0.08637644,0.08697779,-0.0581366,-0.3473502,2.456746,2.892233
85.20007,4.277769,380,219,503,495,0.1781432,0.02652275,0.2040451,-0.7822365,3.054034,0.02553173,0.0926512,0.0901772,-0.0688474,-0.3464762,2.460189,2.887847
85.00008,4.28888,380,219,503,495,0.1889447,0.05223086,0.2194025,-0.7834551,3.058128,0.02024588,0.1134949,0.09970331,-0.1159403,-0.3458259,2.468485,2.878203
84.80008,4.299992,347,222,497,493,0.20821,0.07712732,0.2369688,-0.7846871,3.063594,0.01469106,0.1175574,0.1071089,-0.1330512,-0.3449784,2.474689,2.870963
84.60008,4.311103,347,222,497,493,0.2247259,0.09016508,0.2543017,-0.7852544,3.068479,0.008728777,0.1184919,0.1113194,-0.1447989,-0.3442274,2.48134,2.863368
84.40009,4.322214,347,222,497,493,0.2436115,0.09692664,0.2715263,-0.7864879,3.073386,0.002081527,0.1290418,0.1124051,-0.157681,-0.3436159,2.488213,2.85507
84.20009,4.333325,347,222,497,493,0.254283,0.09381281,0.2875295,-0.7869892,3.07888,-0.004590224,0.1352362,0.1241172,-0.169514,-0.3426215,2.496058,2.846086
84.00009,4.344437,316,231,494,494,0.2630166,0.08651239,0.2959733,-0.787795,3.083788,-0.01119433,0.1362816,0.1316183,-0.1642289,-0.3414306,2.502104,2.838875
83.80009,4.355548,316,231,494,494,0.2758503,0.08354606,0.308762,-0.7887079,3.089122,-0.01837102,0.1425225,0.1305044,-0.1845047,-0.340769,2.510164,2.829549
83.6001,4.366659,316,231,494,494,0.2864649,0.08378483,0.3152165,-0.7894291,3.09458,-0.02559724,0.147764,0.1197914,-0.2057913,-0.3405874,2.518919,2.819536
83.4001,4.37777,316,231,494,494,0.2908495,0.0796009,0.3194317,-0.7903261,3.099726,-0.0325417,0.1487085,0.1100941,-0.2302519,-0.3405815,2.528692,2.80865
83.2001,4.388882,316,231,494,494,0.291977,0.07747419,0.3215339,-0.7912816,3.104761,-0.0393514,0.1369493,0.1014053,-0.2439619,-0.3407376,2.538247,2.798404
83.00011,4.399993,300,217,499,493,0.294387,0.06897318,0.3246206,-0.7918856,3.11012,-0.04657869,0.1295612,0.09925248,-0.239627,-0.340327,2.546452,2.789182
82.80011,4.411104,300,217,499,493,0.2948043,0.05731234,0.3212525,-0.7923895,3.115106,-0.05357481,0.1189564,0.1024166,-0.2299632,-0.3398684,2.554024,2.781017
82.60011,4.422215,300,217,499,493,0.2938504,0.05409963,0.3201334,-0.7931059,3.120021,-0.06026787,0.1146262,0.1055661,-0.2341963,-0.3395152,2.562823,2.771636
82.40012,4.433327,300,217,499,493,0.2980589,0.05537928,0.3180891,-0.7944897,3.125766,-0.06740567,0.1209118,0.1205511,-0.2311294,-0.3387163,2.571669,2.761862
82.20012,4.444438,300,217,499,493,0.293599,0.06167433,0.3149733,-0.7955789,3.130461,-0.07383774,0.1177138,0.1215767,-0.233249,-0.3384984,2.580965,2.751539
82.00012,4.455549,305,233,496,498,0.2890027,0.06488039,0.3055391,-0.7962766,3.136785,-0.07772648,0.1166604,0.117298,-0.235347,-0.3384175,2.589622,2.742188
81.80013,4.46666,305,233,496,498,0.2845603,0.07124137,0.2981619,-0.7974889,3.141086,-0.08379157,0.1039972,0.1151274,-0.2224429,-0.3381117,2.596679,2.734739
81.60013,4.477772,305,233,496,498,0.2822873,0.07546499,0.2950566,-0.7984631,-3.137143,-0.09020819,0.09872588,0.1151164,-0.2159958,-0.337741,2.603872,2.726985
81.40013,4.488883,305,233,496,498,0.2684456,0.07629311,0.2801138,-0.799474,-3.133183,-0.09526394,0.08289223,0.106522,-0.2041043,-0.3376611,2.610373,2.720661
81.20013,4.499994,275,239,487,493,0.2630848,0.07837293,0.2705615,-0.8003576,-3.128958,-0.1010174,0.08185709,0.1086747,-0.1966513,-0.3374129,2.617402,2.713252
81.00014,4.511106,275,239,487,493,0.2486628,0.06421349,0.2596712,-0.8010932,-3.124601,-0.1062047,0.08202927,0.1002175,-0.1838272,-0.3372856,2.623322,2.706771
80.80014,4.522217,275,239,487,493,0.2316229,0.03404928,0.2431542,-0.8009862,-3.121375,-0.1106128,0.07775587,0.101246,-0.1838011,-0.3371535,2.630501,2.699278
80.60014,4.533328,275,239,487,493,0.2192025,-0.006575832,0.2327754,-0.8023279,-3.120156,-0.1136579,0.07252153,0.1023225,-0.1709728,-0.3368574,2.63596,2.693522
80.40015,4.544439,275,239,487,493,0.2116473,-0.03439052,0.2227265,-0.8014938,-3.116951,-0.1180281,0.06936295,0.1012439,-0.1666971,-0.3368036,2.642538,2.686711
80.20015,4.555551,254,241,499,495,0.2033576,-0.07174852,0.2082691,-0.8001989,-3.113842,-0.1221832,0.06419106,0.08951188,-0.1591416,-0.3370262,2.647702,2.681318
80.00015,4.566662,254,241,499,495,0.2030877,-0.09515534,0.2047099,-0.7987592,-3.110521,-0.1267505,0.07081237,0.08007206,-0.1399733,-0.3369863,2.651415,2.676943
79.80016,4.577773,254,241,499,495,0.1997632,-0.1228983,0.2042207,-0.7980812,-3.107972,-0.1306249,0.07300672,0.07476277,-0.1367787,-0.3372664,2.656414,2.671456
79.60016,4.588884,254,241,499,495,0.1980815,-0.1357426,0.2029661,-0.7963443,-3.104241,-0.1356508,0.08902088,0.08456976,-0.1220338,-0.3364196,2.660446,2.666307
79.40016,4.599996,305,247,496,494,0.1952659,-0.1464065,0.1984985,-0.7951432,-3.101609,-0.1395954,0.09648918,0.08998968,-0.1157322,-0.3359551,2.665173,2.660542
79.20016,4.611107,305,247,496,494,0.1901369,-0.1518411,0.1941327,-0.7936167,-3.098432,-0.1437841,0.09001723,0.09309694,-0.1210264,-0.3358065,2.670767,2.654637
79.00017,4.622218,305,247,496,494,0.1857015,-0.1465509,0.1920803,-0.7935629,-3.095114,-0.1478086,0.09004331,0.09097508,-0.1199544,-0.3355668,2.675803,2.648882
78.80017,4.633329,305,247,496,494,0.1786122,-0.1232728,0.1892258,-0.7935511,-3.091952,-0.1528415,0.09217808,0.09097882,-0.118914,-0.3355477,2.680611,2.643343
78.60017,4.644441,305,247,496,494,0.1766983,-0.09774198,0.1885464,-0.7934883,-3.089005,-0.1568016,0.1060142,0.0889248,-0.1232858,-0.3355088,2.685675,2.637205
78.40018,4.655552,291,237,491,492,0.1766648,-0.06466767,0.1880089,-0.7942526,-3.085832,-0.1609662,0.1059793,0.0835446,-0.1338781,-0.33566,2.69047,2.631221
78.20018,4.666663,291,237,491,492,0.1785477,-0.02515538,0.1875595,-0.7952918,-3.083168,-0.1648577,0.1102425,0.06966134,-0.1476919,-0.3362955,2.696446,2.624235
78.00018,4.677774,291,237,491,492,0.1841438,-0.0004333239,0.1858359,-0.7961094,-3.080415,-0.1692423,0.1092161,0.06430166,-0.1487188,-0.3368015,2.70121,2.61856
77.80019,4.688886,291,237,491,492,0.1849498,0.03899427,0.1885774,-0.7979965,-3.077782,-0.1731225,0.1049813,0.06428266,-0.1454881,-0.3369543,2.706276,2.612735
77.60019,4.699997,279,238,498,495,0.187023,0.07319319,0.1880419,-0.8000813,-3.075419,-0.1770517,0.09102988,0.07160177,-0.1496725,-0.3369628,2.712424,2.606386
77.40019,4.711108,279,238,498,495,0.1861253,0.09983265,0.1884663,-0.802502,-3.072684,-0.1808686,0.08783977,0.07478058,-0.1464601,-0.3370481,2.71756,2.600564
77.2002,4.722219,279,238,498,495,0.1825215,0.1113801,0.1918198,-0.8042592,-3.070149,-0.1844628,0.09002462,0.07589541,-0.1401043,-0.3371024,2.722912,2.594307
77.0002,4.733331,279,238,498,495,0.1808501,0.1294598,0.1920912,-0.8067487,-3.067752,-0.1880394,0.09644289,0.07489491,-0.1380188,-0.3371695,2.727911,2.58832
76.8002,4.744442,279,238,498,495,0.1815147,0.1412271,0.1912148,-0.8090454,-3.065346,-0.191558,0.1059434,0.07599598,-0.1455666,-0.3375221,2.734123,2.581268
76.6002,4.755553,246,231,495,494,0.1862688,0.1583661,0.1957679,-0.8115743,-3.062636,-0.1959069,0.1059621,0.070659,-0.1476831,-0.3379487,2.739882,2.574787
76.40021,4.766665,246,231,495,494,0.1878441,0.1743238,0.2013469,-0.8143404,-3.060056,-0.1997978,0.1092543,0.06539191,-0.141291,-0.3382199,2.744398,2.569233
76.20021,4.777776,246,231,495,494,0.1852415,0.1880544,0.20368,-0.8170877,-3.057578,-0.203441,0.1093486,0.06329615,-0.132751,-0.3383946,2.748236,2.564341
76.00021,4.788887,246,231,495,494,0.1827483,0.1985965,0.2059634,-0.8200586,-3.055135,-0.2070832,0.11465,0.05582908,-0.1434096,-0.3390827,2.753677,2.557773
75.80022,4.799998,246,231,495,494,0.1906781,0.1815808,0.2206717,-0.8221194,-3.051372,-0.2115359,0.1147486,0.05052906,-0.1359231,-0.3395663,2.75736,2.553128
75.60022,4.81111,253,222,496,495,0.1941126,0.1742024,0.2227025,-0.8243799,-3.048482,-0.2157629,0.1254017,0.05382749,-0.1328239,-0.3396883,2.761688,2.547337
75.40022,4.822221,253,222,496,495,0.1963142,0.1709466,0.2311842,-0.8267635,-3.04532,-0.2201353,0.1212129,0.04099366,-0.1348548,-0.3405373,2.765626,2.542635
75.20023,4.833332,253,222,496,495,0.1966456,0.1602222,0.2363506,-0.828854,-3.042127,-0.2244161,0.1201556,0.04422027,-0.1295424,-0.340679,2.770196,2.53715
75.00023,4.844443,253,222,496,495,0.194916,0.1462901,0.2371942,-0.8305595,-3.039068,-0.227761,0.1179616,0.06022483,-0.1210835,-0.3403818,2.774767,2.531572
74.80023,4.855555,237,202,486,495,0.1987974,0.1240108,0.237948,-0.8317617,-3.035532,-0.2317078,0.1116022,0.0580463,-0.1199502,-0.3406444,2.778825,2.526624
74.60023,4.866666,237,202,486,495,0.1994983,0.1038824,0.2312478,-0.8329313,-3.032555,-0.2359619,0.1011467,0.04416123,-0.1091491,-0.3412234,2.781507,2.523339
74.40024,4.877777,237,202,486,495,0.1991127,0.0826405,0.2256361,-0.8340238,-3.028808,-0.2399913,0.1001809,0.03457657,-0.1069472,-0.3416564,2.784074,2.519776
74.20024,4.888888,237,202,486,495,0.1994769,0.07202756,0.2233429,-0.8351274,-3.025804,-0.244231,0.09908937,0.03562207,-0.1090743,-0.3420569,2.787893,2.515095
74.00024,4.9,237,202,486,495,0.1976566,0.06237295,0.2232055,-0.8362097,-3.022392,-0.2485518,0.09583535,0.03876275,-0.1133165,-0.3424234,2.791857,2.510363
73.80025,4.911111,227,178,491,498,0.1946338,0.05591559,0.2199127,-0.8370486,-3.019199,-0.2520405,0.09569994,0.0397357,-0.1292965,-0.3432229,2.796742,2.504663
73.60025,4.922222,227,178,491,498,0.1958223,0.05282321,0.2156079,-0.8381101,-3.016417,-0.2561082,0.09354322,0.04077241,-0.1314149,-0.3437683,2.801222,2.499439
73.40025,4.933333,227,178,491,498,0.1898506,0.04099306,0.2090099,-0.8387695,-3.01364,-0.2599293,0.09034433,0.05253421,-0.1186617,-0.3435307,2.80503,2.495049
73.20026,4.944445,227,178,491,498,0.1877532,0.03887245,0.203633,-0.8395647,-3.011177,-0.2627288,0.08073413,0.06850791,-0.1048179,-0.3429832,2.809185,2.490544
73.00026,4.955556,254,175,493,493,0.1845852,0.03781469,0.1950649,-0.8401346,-3.009025,-0.2655097,0.07438693,0.06525507,-0.1015688,-0.3435004,2.812779,2.486625
72.80026,4.966667,254,175,493,493,0.185512,0.04212501,0.19407,-0.8412628,-3.006484,-0.2693031,0.07235384,0.05566108,-0.09937228,-0.3438668,2.815873,2.482967
72.60027,4.977778,254,175,493,493,0.1872417,0.05286964,0.1910841,-0.8424505,-3.003438,-0.2727279,0.08201326,0.04187143,-0.1036431,-0.3445385,2.819011,2.478926
72.40027,4.98889,254,175,493,493,0.1869389,0.06251686,0.1869706,-0.8439019,-3.001243,-0.2762763,0.08627586,0.03119976,-0.1142767,-0.3454413,2.822761,2.474319
72.20027,5.000001,254,175,493,493,0.1702941,0.08581204,0.16062,-0.8458136,-3.000576,-0.2781437,0.09048097,0.0311911,-0.1207195,-0.3463814,2.82719,2.469116
72.00027,5.011112,235,188,495,494,0.1806309,0.06019267,0.1847947,-0.8464985,-2.99661,-0.283085,0.09144896,0.03970551,-0.1239671,-0.346767,2.831798,2.463739
71.80028,5.022223,235,188,495,494,0.1860697,0.05501195,0.1868618,-0.8474914,-2.994072,-0.2862403,0.08501064,0.04605067,-0.1218137,-0.3470067,2.835756,2.45944
71.60028,5.033335,235,188,495,494,0.1833854,0.04003382,0.1844838,-0.8480448,-2.991683,-0.2898425,0.08295743,0.04286198,-0.1164388,-0.3473396,2.838507,2.455907
71.40028,5.044446,235,188,495,494,0.1857533,0.0315685,0.1854198,-0.8486594,-2.989256,-0.2929323,0.08184969,0.04713055,-0.1164451,-0.3474067,2.842841,2.451014
71.20029,5.055557,211,204,496,494,0.1900319,0.03061601,0.1875607,-0.8496682,-2.986533,-0.2968945,0.07968082,0.04818758,-0.1185652,-0.3476661,2.847581,2.445867
71.00029,5.066669,211,204,496,494,0.1986168,0.02755764,0.1971374,-0.8506019,-2.983495,-0.3013729,0.08713609,0.05574451,-0.1112075,-0.3477162,2.851477,2.441051
70.80029,5.07778,211,204,496,494,0.2050191,0.0244533,0.2056753,-0.8517513,-2.979764,-0.3054417,0.09244029,0.06004488,-0.109139,-0.3479889,2.854993,2.43665
70.6003,5.088891,211,204,496,494,0.2105342,0.01816082,0.2109277,-0.852554,-2.976639,-0.309992,0.1020368,0.05584723,-0.112392,-0.3484432,2.858972,2.431487
70.4003,5.100002,211,204,496,494,0.2163751,0.00235088,0.211762,-0.8528417,-2.973695,-0.3142876,0.1040843,0.06866623,-0.1103404,-0.3483202,2.863724,2.425727
70.2003,5.111114,182,225,497,495,0.2172291,-0.02324767,0.2134857,-0.8525093,-2.970438,-0.3189854,0.09660329,0.07716454,-0.1039271,-0.3480389,2.868046,2.420853
70.00031,5.122225,182,225,497,495,0.2176189,-0.03596573,0.210097,-0.8526046,-2.967296,-0.3227325,0.0880421,0.0824223,-0.1028254,-0.3480826,2.872649,2.415844
69.80031,5.133336,182,225,497,495,0.2234791,-0.05174497,0.2088143,-0.8523325,-2.963913,-0.3276136,0.07844347,0.07806081,-0.1080449,-0.3483159,2.876979,2.411209
69.60031,5.144447,182,225,497,495,0.2307752,-0.04834626,0.212095,-0.8527879,-2.960682,-0.3319502,0.0783183,0.08013687,-0.1208501,-0.3487351,2.883169,2.404567
69.40031,5.155559,182,225,497,495,0.2367853,-0.03864942,0.2186743,-0.8535303,-2.957187,-0.3365762,0.08042237,0.08549046,-0.1198403,-0.348865,2.888504,2.398447
69.20032,5.16667,172,238,497,495,0.2386478,-0.03119256,0.2230596,-0.8542313,-2.953838,-0.3414907,0.08673459,0.08870674,-0.1263006,-0.3491426,2.894031,2.392124
69.00032,5.177781,172,238,497,495,0.241339,-0.01621481,0.2254325,-0.855288,-2.950759,-0.3463143,0.07927468,0.0865146,-0.128343,-0.3495106,2.898759,2.386994
68.80032,5.188892,172,238,497,495,0.2396291,0.002895486,0.2267878,-0.8566691,-2.947867,-0.3508086,0.07388154,0.09605539,-0.1262284,-0.3494531,2.904305,2.381211
68.60033,5.200004,172,238,497,495,0.2390146,0.02102555,0.2249482,-0.8581291,-2.944892,-0.3551618,0.06535451,0.1002599,-0.1229748,-0.3493668,2.909186,2.376061
68.40033,5.211115,226,235,498,495,0.2438637,0.03824374,0.2228373,-0.8584279,-2.946538,-0.3576663,0.05788076,0.09697336,-0.1282191,-0.3497204,2.914317,2.370754
68.20033,5.222226,226,235,498,495,0.2529406,0.05235039,0.2262898,-0.8601174,-2.943772,-0.3621031,0.062188,0.09169342,-0.1260988,-0.3500294,2.919013,2.365741
68.00034,5.233337,226,235,498,495,0.2566113,0.06945989,0.2308356,-0.8622394,-2.940938,-0.3668888,0.06537634,0.09171861,-0.1271873,-0.3502579,2.924145,2.360093
67.80034,5.244449,226,235,498,495,0.2602242,0.08645216,0.2428403,-0.8645995,-2.937828,-0.3714785,0.07288936,0.09824902,-0.1134398,-0.349982,2.929004,2.354582
67.60034,5.25556,226,235,498,495,0.2608812,0.0979902,0.2535318,-0.8658954,-2.936938,-0.3751249,0.07829592,0.1015667,-0.09964972,-0.349533,2.933119,2.349782
67.40034,5.266671,242,229,491,493,0.2595025,0.137132,0.2701145,-0.8693991,-2.93396,-0.3799202,0.0953293,0.1145681,-0.08814191,-0.3487953,2.938442,2.343199
67.20035,5.277782,242,229,491,493,0.2359256,0.1513253,0.1956133,-0.8711072,-2.935662,-0.3808448,0.09202433,0.1251802,-0.0903025,-0.3485156,2.944179,2.336961
67.00035,5.288894,242,229,491,493,0.2439754,0.1286391,0.2325838,-0.8732638,-2.93164,-0.3863368,0.0898757,0.1294342,-0.08817583,-0.3481092,2.94942,2.331094
66.80035,5.300005,242,229,491,493,0.276144,0.08551051,0.2650663,-0.8744149,-2.926939,-0.3929622,0.08975083,0.1368516,-0.09565606,-0.3477193,2.955022,2.324856
66.60036,5.311116,228,234,500,495,0.2873062,0.06981997,0.2680967,-0.8758072,-2.922856,-0.3990747,0.09500679,0.1357822,-0.1052673,-0.3476096,2.960867,2.318195
66.40036,5.322227,228,234,500,495,0.2855741,0.05809724,0.2647232,-0.8774689,-2.919611,-0.4041443,0.1089994,0.1252945,-0.09893791,-0.3474014,2.965556,2.312185
66.20036,5.333339,228,234,500,495,0.287032,0.04643708,0.2634882,-0.8788197,-2.916178,-0.4095484,0.1120758,0.1263045,-0.1128169,-0.3477311,2.971469,2.305271
66.00037,5.34445,228,234,500,495,0.2937961,0.002964861,0.2628417,-0.8790184,-2.912126,-0.4153935,0.1068202,0.1102575,-0.1190928,-0.3483223,2.976756,2.299422
65.80037,5.355561,228,234,500,495,0.2943025,-0.01195284,0.2626268,-0.8796448,-2.908061,-0.4214165,0.1047114,0.1112949,-0.1180089,-0.3484735,2.981424,2.293674
65.60037,5.366673,252,228,490,492,0.3003465,-0.06496421,0.254373,-0.8782535,-2.903634,-0.4274879,0.09823193,0.1154703,-0.124369,-0.3486595,2.987537,2.28704
65.40038,5.377784,252,228,490,492,0.3100245,-0.06773915,0.2469293,-0.8785833,-2.899866,-0.4330854,0.09612907,0.1079828,-0.1275128,-0.3491553,2.99281,2.281143
65.20038,5.388895,252,228,490,492,0.3162169,-0.06107273,0.2427966,-0.8792202,-2.89657,-0.4388719,0.09505461,0.1111804,-0.1253896,-0.3493226,2.998289,2.274951
65.00038,5.400006,252,228,490,492,0.3145499,-0.04302454,0.243087,-0.8803185,-2.893039,-0.4445753,0.09919305,0.1218459,-0.1297395,-0.3494478,3.004897,2.26752
64.80038,5.411118,216,220,505,497,0.3120343,-0.03136846,0.2421929,-0.8814493,-2.88991,-0.4499666,0.09814616,0.1100681,-0.139262,-0.3502866,3.01032,2.261361
64.60039,5.422229,216,220,505,497,0.2937209,-0.02436213,0.2326458,-0.8824448,-2.887028,-0.4544855,0.09065072,0.105697,-0.1477061,-0.3511463,3.016004,2.255296
64.40039,5.43334,216,220,505,497,0.287954,-0.01059494,0.226461,-0.8838164,-2.884196,-0.4592611,0.08847491,0.1013474,-0.158323,-0.3522414,3.021685,2.248973
64.20039,5.444451,216,220,505,497,0.2792546,-0.004312567,0.2158738,-0.8850169,-2.881807,-0.4634688,0.09279557,0.09179018,-0.1604423,-0.3530984,3.026858,2.243002
64.0004,5.455563,216,220,505,497,0.2752492,0.0201557,0.2109287,-0.8869323,-2.879474,-0.4677139,0.09179908,0.0886137,-0.1561383,-0.3535618,3.031582,2.23749
63.8004,5.466674,232,223,498,495,0.2723289,0.04466965,0.2049061,-0.8889019,-2.877698,-0.4717763,0.09076744,0.09719175,-0.1433892,-0.3537903,3.036819,2.231606
63.6004,5.477785,232,223,498,495,0.2664872,0.06055136,0.2008897,-0.8911927,-2.875652,-0.4758435,0.08859237,0.1099962,-0.1349101,-0.3538915,3.042259,2.225665
63.40039,5.488896,232,223,498,495,0.2532533,0.07398197,0.1999791,-0.8932573,-2.873874,-0.479377,0.08862732,0.1100178,-0.1306491,-0.3542281,3.047391,2.219865
63.20039,5.500008,232,223,498,495,0.2414192,0.07793908,0.1946825,-0.8951731,-2.871855,-0.4830207,0.08107772,0.1141787,-0.1380876,-0.3550622,3.053916,2.212979
63.00039,5.511119,232,223,498,495,0.2297339,0.07764851,0.1882373,-0.896828,-2.87021,-0.48629,0.08440524,0.1003657,-0.1359062,-0.3556684,3.058256,2.207914
62.80039,5.52223,237,203,490,496,0.2183588,0.06892313,0.1763593,-0.8981628,-2.86829,-0.4897127,0.09515537,0.07589724,-0.1475845,-0.3570154,3.061793,2.203415
62.60039,5.533341,237,203,490,496,0.2153265,0.06460275,0.172041,-0.8994342,-2.866122,-0.4935072,0.09632121,0.06953843,-0.1422248,-0.3577611,3.065422,2.198887
62.40039,5.544453,237,203,490,496,0.1850043,0.1224385,0.08971252,-0.9017133,-2.868991,-0.4929879,0.1040113,0.05155519,-0.1294113,-0.3585025,3.06742,2.195994
62.20039,5.555564,237,203,490,496,0.1766527,0.08241293,0.1093181,-0.9022529,-2.866423,-0.4963477,0.1019336,0.05156642,-0.1230035,-0.3591795,3.070827,2.19172
62.00039,5.566675,204,184,501,495,0.1962062,0.03456186,0.1438125,-0.9026151,-2.862883,-0.5012639,0.09453833,0.05154215,-0.1154852,-0.3597297,3.0739,2.187999
61.80039,5.577786,204,184,501,495,0.2030437,0.01851405,0.1627856,-0.9039562,-2.85991,-0.5055388,0.1006992,0.07286081,-0.1220327,-0.3602128,3.079397,2.181556
61.60039,5.588898,204,184,501,495,0.192694,0.01089007,0.1509041,-0.9045342,-2.858351,-0.5083581,0.1114223,0.06763966,-0.1188982,-0.3608631,3.08293,2.176723
61.40039,5.600009,204,184,501,495,0.1875899,0.00431056,0.1507549,-0.9049634,-2.856807,-0.5113301,0.1113868,0.06976831,-0.1199778,-0.3615651,3.087045,2.171764
61.20039,5.61112,204,184,501,495,0.1835062,-0.001178172,0.1517182,-0.9055994,-2.854754,-0.5145866,0.1082261,0.06976332,-0.1156904,-0.3620898,3.090692,2.167242
61.00039,5.622231,258,186,496,496,0.184501,0.0009908401,0.1517557,-0.9065517,-2.852984,-0.5177867,0.1137464,0.05173308,-0.1081808,-0.3628094,3.092057,2.164827
60.80038,5.633343,258,186,496,496,0.1869228,-0.007420347,0.1495052,-0.907087,-2.851005,-0.521122,0.119106,0.04858799,-0.1071408,-0.3635023,3.094824,2.160792
60.60038,5.644454,258,186,496,496,0.1859827,-0.01177141,0.1537026,-0.907934,-2.848787,-0.5245548,0.1200831,0.05927995,-0.1050566,-0.3635502,3.099041,2.155702
60.40038,5.655565,258,186,496,496,0.1885334,-0.02328318,0.1460872,-0.9083909,-2.846756,-0.5279434,0.1114787,0.06772056,-0.1060972,-0.3640903,3.103191,2.150868
60.20038,5.666677,247,190,499,496,0.1869191,-0.03819177,0.1415864,-0.9084191,-2.844615,-0.5312634,0.1114368,0.07091887,-0.1061066,-0.364518,3.106928,2.146369
60.00038,5.677788,247,190,499,496,0.1849391,-0.04247581,0.1393954,-0.9089566,-2.842487,-0.5345476,0.1082222,0.07193556,-0.1071588,-0.3653175,3.110303,2.14211
59.80038,5.688899,247,190,499,496,0.1870462,-0.04129047,0.1362263,-0.9093225,-2.840651,-0.5377913,0.1059762,0.08041266,-0.1125101,-0.3658826,3.11507,2.136518
59.60038,5.70001,247,190,499,496,0.186647,-0.02841534,0.1311005,-0.910278,-2.83935,-0.5406872,0.1125982,0.06346755,-0.1007564,-0.3664712,3.116263,2.134126
59.40038,5.711122,247,190,499,496,0.1925152,-0.01218405,0.1281815,-0.9112757,-2.838135,-0.5437557,0.1126072,0.0624023,-0.100751,-0.3670656,3.119504,2.129851
59.20038,5.722233,221,202,499,495,0.1927675,0.01229668,0.1306789,-0.9125918,-2.837184,-0.5466378,0.1137658,0.05496006,-0.0975346,-0.3678401,3.12189,2.126276
59.00038,5.733344,221,202,499,495,0.1942261,0.03261016,0.1299391,-0.9141215,-2.836198,-0.5494367,0.1126509,0.05599566,-0.1018006,-0.3686411,3.125453,2.121789
58.80038,5.744455,221,202,499,495,0.1926291,0.04852945,0.1312455,-0.9156981,-2.835224,-0.5522001,0.1051758,0.05272029,-0.1070474,-0.3694332,3.128872,2.117653
58.60038,5.755567,221,202,499,495,0.1955236,0.05707019,0.1356604,-0.9171096,-2.833798,-0.5553543,0.1051749,0.05379275,-0.1049254,-0.3700878,3.131855,2.113814
58.40038,5.766678,223,201,498,493,0.1933588,0.05806382,0.135667,-0.9184816,-2.832638,-0.5581384,0.10624,0.05487231,-0.1038744,-0.3707275,3.134966,2.109689
58.20037,5.777789,223,201,498,493,0.1931286,0.06437846,0.1400402,-0.9201354,-2.831167,-0.5611861,0.1041323,0.05807298,-0.09746832,-0.3710795,3.137402,2.106373
58.00037,5.7889,223,201,498,493,0.195147,0.06762649,0.1411646,-0.921687,-2.830019,-0.5641102,0.1031027,0.05487375,-0.09637818,-0.3716931,3.140087,2.102749
57.80037,5.800012,223,201,498,493,0.1982376,0.07088617,0.1433598,-0.9232705,-2.82882,-0.5672837,0.09673553,0.04839866,-0.09948392,-0.3725544,-3.141038,2.099991
57.60037,5.811123,223,201,498,493,0.1993997,0.06889217,0.1369409,-0.9245787,-2.827906,-0.5700763,0.09678916,0.03878197,-0.1036875,-0.3734966,-3.13925,2.097147
57.40037,5.822234,244,209,500,493,0.1929103,0.107445,0.1108473,-0.9264056,-2.829136,-0.5713152,0.09574211,0.03986302,-0.09941909,-0.3740388,-3.136705,2.093839
57.20037,5.833345,244,209,500,493,0.1919911,0.07119312,0.1092024,-0.9265596,-2.82795,-0.5740476,0.09351046,0.05156686,-0.09946176,-0.3745496,-3.132917,2.08937
57.00037,5.844457,244,209,500,493,0.2068192,0.03822003,0.1364504,-0.9273776,-2.825293,-0.5783433,0.08911687,0.06644174,-0.0984451,-0.3750562,-3.12889,2.08501
56.80037,5.855568,244,209,500,493,0.2083977,0.02220589,0.1415402,-0.9283657,-2.823516,-0.5817856,0.09115756,0.0760527,-0.09850828,-0.3754088,-3.124767,2.080197
56.60037,5.866679,244,209,500,493,0.2078482,0.006135311,0.145549,-0.9290448,-2.821482,-0.5853186,0.09124629,0.07075363,-0.09315521,-0.3758951,-3.121967,2.076552
56.40037,5.87779,233,212,493,495,0.2061258,-0.006811111,0.1517313,-0.9297537,-2.819372,-0.5889122,0.09022088,0.0675649,-0.09099679,-0.3763526,-3.11912,2.07302
56.20037,5.888902,233,212,493,495,0.2075548,-0.01858574,0.157946,-0.9303982,-2.817022,-0.5926567,0.09138915,0.0601196,-0.087756,-0.3768128,-3.117581,2.07036
56.00037,5.900013,233,212,493,495,0.2067976,-0.02821298,0.1588546,-0.9310235,-2.814945,-0.596049,0.09252621,0.04840358,-0.09090221,-0.3776096,-3.115297,2.067183
55.80037,5.911124,233,212,493,495,0.2088759,-0.02718218,0.1642232,-0.9318374,-2.812337,-0.6000959,0.09682795,0.04417026,-0.09090579,-0.3782349,-3.113476,2.064225
55.60036,5.922235,225,202,499,495,0.2076983,-0.02403248,0.1653398,-0.9329176,-2.810276,-0.6035682,0.09144512,0.0440977,-0.09618135,-0.3789806,-3.110866,2.061116
55.40036,5.933347,225,202,499,495,0.2054901,-0.02205821,0.1696211,-0.9336734,-2.807988,-0.6072748,0.08284724,0.05251461,-0.09827131,-0.379615,-3.108448,2.058055
55.20036,5.944458,225,202,499,495,0.2008713,-0.01060645,0.1761292,-0.9345618,-2.806445,-0.6111183,0.08065851,0.06211092,-0.09510261,-0.3799266,-3.104731,2.053783
55.00036,5.955569,225,202,499,495,0.1952071,-0.0002495404,0.1815873,-0.9356446,-2.804333,-0.6149553,0.0891746,0.06644226,-0.09200078,-0.3804896,-3.102029,2.050021
54.80036,5.966681,225,202,499,495,0.1948488,0.00918206,0.191322,-0.9372926,-2.802186,-0.6183721,0.1019572,0.06869205,-0.08892706,-0.3809828,-3.099001,2.045829
54.60036,5.977792,229,199,497,495,0.1904366,0.01429784,0.1956396,-0.9388437,-2.800207,-0.6221378,0.1039789,0.07398234,-0.09642408,-0.3817476,-3.095737,2.041663
54.40036,5.988903,229,199,497,495,0.1888182,0.030148,0.2012075,-0.940881,-2.798399,-0.6252431,0.113494,0.07935275,-0.1007854,-0.3824054,-3.092367,2.036943
54.20036,6.000014,229,199,497,495,0.1894033,0.04386047,0.2110156,-0.9429369,-2.796286,-0.6289167,0.113408,0.07716909,-0.1124811,-0.3832316,-3.08862,2.03229
54.00036,6.011126,229,199,497,495,0.1869371,0.05440367,0.2133089,-0.9451522,-2.794424,-0.6324257,0.1220091,0.07621082,-0.104025,-0.3837583,-3.085781,2.02808
53.80036,6.022237,186,196,498,495,0.1867866,0.05862874,0.2155052,-0.9472278,-2.792542,-0.6356177,0.1199217,0.07194926,-0.1018592,-0.3843953,-3.082644,2.024034
53.60036,6.033348,186,196,498,495,0.1869461,0.05435115,0.2164979,-0.9490159,-2.79057,-0.6391533,0.112477,0.06331564,-0.1070815,-0.385525,-3.080551,2.021308
53.40036,6.044459,186,196,498,495,0.1818086,0.0488846,0.2142608,-0.9507352,-2.78857,-0.6421888,0.104009,0.05578229,-0.1080386,-0.3864604,-3.078113,2.018104
53.20036,6.055571,186,196,498,495,0.1820105,0.04245674,0.217373,-0.9527224,-2.78621,-0.6456392,0.09971362,0.05574036,-0.1112021,-0.3873403,-3.074743,2.014076
53.00035,6.066682,186,196,498,495,0.1864734,0.03617755,0.2194239,-0.9544274,-2.783957,-0.649129,0.09658822,0.05468661,-0.1037135,-0.3879538,-3.072345,2.010879
52.80035,6.077793,214,181,501,496,0.1853897,0.03613281,0.2205046,-0.95651,-2.781651,-0.6523333,0.09116705,0.06316154,-0.1058453,-0.3886404,-3.06838,2.00641
52.60035,6.088904,214,181,501,496,0.1876436,0.03187874,0.224709,-0.9582895,-2.779297,-0.6558327,0.0954374,0.05463102,-0.1132977,-0.3898783,-3.065981,2.003039
52.40035,6.100016,214,181,501,496,0.1865881,0.03066124,0.2321532,-0.9602922,-2.776714,-0.6594269,0.1007011,0.06,-0.115495,-0.3906665,-3.062394,1.998445
52.20035,6.111127,214,181,501,496,0.1888818,0.02535922,0.235276,-0.9620574,-2.77421,-0.6630323,0.1176909,0.06652561,-0.1156628,-0.3914309,-3.059123,1.993633
52.00035,6.122238,174,189,499,495,0.1910794,0.02097445,0.2480275,-0.9642918,-2.77104,-0.6667543,0.1238869,0.07824713,-0.1264221,-0.3923864,-3.054457,1.987928
51.80035,6.133349,174,189,499,495,0.194144,0.02418039,0.2544949,-0.9665986,-2.768382,-0.6705504,0.1227457,0.09103805,-0.1232743,-0.3929377,-3.050114,1.982533
51.60035,6.144461,174,189,499,495,0.2013761,0.02958457,0.2652632,-0.9689938,-2.765665,-0.6745095,0.1173654,0.09952633,-0.1211427,-0.3935934,-3.045585,1.977165
51.40035,6.155572,174,189,499,495,0.2043281,0.03484059,0.2760074,-0.9713092,-2.762901,-0.6781047,0.1141533,0.1059206,-0.1158356,-0.3942853,-3.041049,1.971861
51.20035,6.166683,174,189,499,495,0.2117635,0.03500126,0.2813576,-0.9735606,-2.760203,-0.6822012,0.1153779,0.08996384,-0.1136201,-0.3949931,-3.038377,1.96796
51.00035,6.177794,173,196,495,495,0.211765,0.03388723,0.2845355,-0.9758285,-2.757462,-0.6858018,0.1164447,0.08034547,-0.123179,-0.3963295,-3.0348,1.963337
50.80035,6.188906,173,196,495,495,0.2185544,0.02242287,0.2822546,-0.9777055,-2.754524,-0.6900709,0.1142638,0.07386821,-0.1359078,-0.397741,-3.031574,1.95915
50.60035,6.200017,173,196,495,495,0.220709,0.02143406,0.2811939,-0.979826,-2.751561,-0.6940539,0.1142657,0.06852703,-0.1412163,-0.3991109,-3.027905,1.954449
50.40034,6.211128,173,196,495,495,0.2230027,0.01613195,0.2843167,-0.9819272,-2.7486,-0.6982377,0.1162571,0.08024265,-0.1455495,-0.4002135,-3.023426,1.949037
50.20034,6.222239,173,196,495,495,0.2229134,0.01824862,0.2864984,-0.9845829,-2.745723,-0.7021701,0.1182743,0.1026886,-0.1360969,-0.4007876,-3.017795,1.942521
50.00034,6.233351,173,212,501,495,0.2229718,0.01611821,0.2875429,-0.9870548,-2.742898,-0.7061169,0.1224851,0.1166295,-0.1265978,-0.4010518,-3.012874,1.936697
49.80034,6.244462,173,212,501,495,0.2162997,0.02442241,0.2876455,-0.9894496,-2.740341,-0.7097569,0.118214,0.1240829,-0.1202085,-0.4015749,-3.008053,1.931054
49.60034,6.255573,173,212,501,495,0.2023781,0.03574374,0.21745,-0.9907124,-2.741074,-0.7109697,0.1182394,0.1262259,-0.1170193,-0.4022374,-3.003726,1.925547
49.40034,6.266685,173,212,501,495,0.2138181,0.005524874,0.2660335,-0.9929079,-2.73652,-0.7161464,0.1130383,0.1144798,-0.1137207,-0.4030029,-3.000447,1.921426
49.20034,6.277796,187,227,508,496,0.22656,0.004645258,0.2820782,-0.9956206,-2.73316,-0.7208123,0.1119073,0.09943612,-0.1370705,-0.4047946,-2.997011,1.917008
49.00034,6.288907,187,227,508,496,0.2232637,0.008947965,0.2725438,-0.9976026,-2.730906,-0.7244203,0.1192373,0.08763741,-0.1647658,-0.4069406,-2.993384,1.912136
48.80034,6.300018,187,227,508,496,0.2240938,0.01651035,0.2684232,-1.000037,-2.728501,-0.7281945,0.1190196,0.08858591,-0.1903472,-0.4092661,-2.988086,1.9059
48.60034,6.31113,187,227,508,496,0.2259683,0.02413038,0.2653427,-1.002651,-2.72681,-0.7313594,0.1115828,0.08318885,-0.1934457,-0.4109652,-2.984263,1.901331
48.40034,6.322241,187,227,508,496,0.2248768,0.02519273,0.2632239,-1.004798,-2.724551,-0.7350559,0.1161772,0.06844148,-0.166785,-0.4120107,-2.982529,1.898534
48.20034,6.333352,183,230,496,495,0.2302962,0.02224692,0.2621238,-1.007272,-2.722697,-0.7384578,0.1183744,0.07063536,-0.1561559,-0.4131266,-2.979589,1.894518
48.00034,6.344463,183,230,496,495,0.2318095,0.008393109,0.2651104,-1.0091,-2.719813,-0.7426028,0.1140861,0.07593665,-0.1540168,-0.4143836,-2.976026,1.8901
47.80033,6.355575,183,230,496,495,0.2374448,-0.0009693876,0.2649631,-1.011019,-2.717724,-0.7463046,0.1130357,0.07486914,-0.1539991,-0.4157344,-2.972672,1.885736
47.60033,6.366686,183,230,496,495,0.2364522,-0.003161263,0.2670687,-1.013212,-2.714936,-0.7505209,0.112016,0.06632209,-0.1571434,-0.4173221,-2.97012,1.882207
47.40033,6.377797,173,214,501,495,0.2418354,-0.005137421,0.2713104,-1.015552,-2.712636,-0.7545529,0.1141321,0.0663261,-0.1571633,-0.4188327,-2.967556,1.878722
47.20033,6.388908,173,214,501,495,0.2419534,-0.009405509,0.2744235,-1.017712,-2.710325,-0.7582531,0.1162894,0.06314825,-0.1571649,-0.4203182,-2.964823,1.874868
47.00033,6.40002,173,214,501,495,0.2428621,-0.005150106,0.2766318,-1.019919,-2.707599,-0.7623618,0.1173588,0.06315431,-0.1561125,-0.4218138,-2.962111,1.871158
46.80033,6.411131,173,214,501,495,0.2470386,-0.002923366,0.2798758,-1.022128,-2.704998,-0.7665473,0.1226423,0.06745541,-0.1561829,-0.4233041,-2.958919,1.866817
46.60033,6.422242,173,214,501,495,0.2460653,-0.00505944,0.2787814,-1.02438,-2.70232,-0.7708573,0.1290402,0.06538115,-0.1572936,-0.4248109,-2.95594,1.862519
46.40033,6.433353,185,201,498,495,0.2545438,-0.003632341,0.2766878,-1.026725,-2.700401,-0.7746917,0.1257496,0.06635785,-0.1668579,-0.4266363,-2.953145,1.858788
46.20033,6.444465,185,201,498,495,0.2619573,-0.002327275,0.2777902,-1.028829,-2.69797,-0.7789714,0.1150543,0.06195872,-0.1763355,-0.4285713,-2.950339,1.855237
46.00033,6.455576,185,201,498,495,0.2660294,0.003104702,0.2800217,-1.031197,-2.695502,-0.7833022,0.1095206,0.07356397,-0.1901975,-0.4305857,-2.946099,1.850228
45.80033,6.466687,185,201,498,495,0.2670432,0.005330324,0.2758023,-1.033365,-2.693086,-0.7875713,0.09982539,0.08840777,-0.1880625,-0.4321671,-2.941633,1.845323
45.60033,6.477798,185,201,498,495,0.2715425,-0.002018273,0.2778401,-1.03545,-2.690246,-0.792137,0.1068053,0.1074617,-0.2233705,-0.4349352,-2.935741,1.838949
45.40033,6.48891,198,199,497,495,0.2725469,0.0001783967,0.2757454,-1.037606,-2.687852,-0.7964386,0.111244,0.09689924,-0.2126998,-0.4367265,-2.932667,1.834812
45.20033,6.500021,198,199,497,495,0.2714244,0.001135018,0.2800168,-1.039897,-2.685231,-0.8006618,0.1210432,0.1014042,-0.1819029,-0.4373422,-2.92917,1.830111
45.00032,6.511132,198,199,497,495,0.2732618,0.009692952,0.2822829,-1.042418,-2.683008,-0.8048733,0.1254806,0.1036927,-0.1574572,-0.4381768,-2.925641,1.825501
44.80032,6.522243,198,199,497,495,0.2800502,0.02902841,0.2868773,-1.045389,-2.680935,-0.8091519,0.1234862,0.08770467,-0.1573653,-0.4398477,-2.92304,1.821793
44.60032,6.533355,190,188,499,495,0.2790724,0.058905,0.283071,-1.048606,-2.679801,-0.8127728,0.1077898,0.05562648,-0.1560055,-0.4415564,-2.922315,1.82031
44.40032,6.544466,190,188,499,495,0.2710254,0.07679188,0.2801283,-1.051689,-2.678304,-0.8162594,0.0982562,0.05236635,-0.1527143,-0.4429913,-2.920308,1.817673
44.20032,6.555577,190,188,499,495,0.2677315,0.07989382,0.279097,-1.054564,-2.676675,-0.8200033,0.08325954,0.06074496,-0.1547673,-0.4445535,-2.917286,1.814345
44.00032,6.566689,190,188,499,495,0.2605879,0.0724154,0.2640414,-1.056731,-2.675014,-0.8235293,0.08095181,0.06811354,-0.1686352,-0.446512,-2.913844,1.810402
43.80032,6.5778,190,188,499,495,0.2601975,0.05332784,0.2562793,-1.058638,-2.673029,-0.827441,0.09239177,0.08303016,-0.1869086,-0.4486042,-2.909713,1.805347
43.60032,6.588911,181,187,495,497,0.2598568,0.03326809,0.2431865,-1.060323,-2.671088,-0.8312088,0.1040014,0.09484099,-0.1881297,-0.4503523,-2.9055,1.800084
43.40032,6.600022,181,187,495,497,0.2576173,0.04240789,0.1975028,-1.061501,-2.670756,-0.8340344,0.1232899,0.08330917,-0.1850499,-0.4522676,-2.902884,1.795961
43.20032,6.611134,181,187,495,497,0.2608365,0.008193649,0.2108281,-1.062823,-2.668022,-0.8384361,0.1340834,0.06313454,-0.1882328,-0.4543673,-2.901758,1.793231
43.00032,6.622245,181,187,495,497,0.2689881,-0.0141187,0.2243665,-1.064649,-2.66517,-0.8431382,0.1266952,0.04599448,-0.1966111,-0.4567162,-2.90013,1.790648
42.80032,6.633356,163,187,498,495,0.2676155,-0.03772726,0.2314392,-1.065888,-2.662328,-0.8474753,0.1236994,0.02038562,-0.1985836,-0.4589756,-2.900079,1.789313
42.60032,6.644467,163,187,498,495,0.2670888,-0.05493266,0.2396843,-1.067248,-2.6594,-0.8518515,0.1216518,0.01293683,-0.1964014,-0.4610587,-2.898751,1.786769
42.40031,6.655579,163,187,498,495,0.2686758,-0.07092587,0.2426264,-1.068372,-2.656364,-0.856357,0.1132252,0.01935223,-0.1771708,-0.4621106,-2.897301,1.784591
42.20031,6.66669,163,187,498,495,0.2713064,-0.08574405,0.2413461,-1.069534,-2.653162,-0.860976,0.114509,0.02699016,-0.1431288,-0.4626688,-2.895885,1.782034
42.00031,6.677801,163,187,498,495,0.2739423,-0.1005811,0.2411218,-1.070518,-2.649916,-0.8657825,0.1200025,0.03893359,-0.1102211,-0.463038,-2.893637,1.778602
41.80031,6.688912,150,177,499,496,0.2755448,-0.1164958,0.2398105,-1.071377,-2.646555,-0.8704856,0.1243056,0.04863201,-0.09539083,-0.4635019,-2.89157,1.775241
41.60031,6.700024,150,177,499,496,0.2756322,-0.1185883,0.2376443,-1.072546,-2.643541,-0.8751041,0.1231988,0.05825825,-0.08903974,-0.464189,-2.888672,1.771477
41.40031,6.711135,150,177,499,496,0.2775418,-0.1109697,0.2313752,-1.073678,-2.64088,-0.8795201,0.1081744,0.06127751,-0.09852296,-0.4654433,-2.886485,1.768811
41.20031,6.722246,150,177,499,496,0.276951,-0.09284097,0.2295246,-1.075279,-2.638495,-0.8837934,0.1039417,0.0505411,-0.1069642,-0.4669134,-2.88547,1.766765
41.00031,6.733357,159,168,494,496,0.2795961,-0.07563353,0.2255398,-1.076883,-2.636409,-0.8879917,0.1071736,0.04309934,-0.1091005,-0.4682785,-2.884228,1.764479
40.80031,6.744469,159,168,494,496,0.2775988,-0.04683065,0.2195792,-1.07872,-2.634937,-0.8917558,0.1166268,0.04952765,-0.1187942,-0.4695947,-2.881928,1.76088
40.60031,6.75558,159,168,494,496,0.2787988,-0.01909715,0.2210794,-1.08103,-2.633677,-0.8954719,0.113404,0.04627788,-0.1262177,-0.4711766,-2.879987,1.757863
40.40031,6.766691,159,168,494,496,0.2782164,0.02987248,0.223965,-1.084069,-2.633352,-0.8986587,0.1090171,0.05901417,-0.1283761,-0.472465,-2.877232,1.754312
40.20031,6.777802,159,168,494,496,0.2731787,0.08513155,0.2237324,-1.087326,-2.633581,-0.9014918,0.1109941,0.08035864,-0.1263702,-0.4735036,-2.873294,1.749377
40.00031,6.788914,142,170,497,497,0.2733357,0.1118747,0.2188628,-1.090095,-2.633489,-0.9045379,0.1045749,0.08778279,-0.1220928,-0.4745103,-2.870277,1.745721
39.8003,6.800025,142,170,497,497,0.2676932,0.1234663,0.214705,-1.09298,-2.633522,-0.9076186,0.107852,0.0889326,-0.1104165,-0.4753748,-2.867759,1.742277
39.6003,6.811136,142,170,497,497,0.2697191,0.1279213,0.206251,-1.095415,-2.633457,-0.9107212,0.1207828,0.07413797,-0.1072525,-0.4764097,-2.86663,1.739659
39.4003,6.822248,142,170,497,497,0.2654155,0.1300045,0.199865,-1.097818,-2.633379,-0.9136091,0.1283056,0.04961477,-0.1242375,-0.4782451,-2.866188,1.737629
39.2003,6.833359,213,170,495,495,0.2666674,0.1247305,0.1987194,-1.100256,-2.633,-0.9168352,0.1240447,0.02710582,-0.1485925,-0.4805083,-2.865275,1.73539
39.0003,6.84447,213,170,495,495,0.271517,0.1078996,0.1942051,-1.102178,-2.632292,-0.9203928,0.1229693,0.01103172,-0.1666085,-0.4827624,-2.864963,1.7337
38.8003,6.855581,213,170,495,495,0.2720079,0.09295698,0.1961072,-1.104276,-2.631276,-0.9238799,0.1218979,-0.006104648,-0.1846224,-0.4852759,-2.865018,1.732429
38.6003,6.866693,213,170,495,495,0.2781294,0.06854561,0.2021477,-1.106261,-2.629643,-0.9279603,0.1199139,-0.01352896,-0.1749708,-0.486845,-2.865185,1.731233
38.4003,6.877804,213,170,495,495,0.2871647,0.0515719,0.2168331,-1.108637,-2.627982,-0.9322497,0.1168003,-0.002793163,-0.1547638,-0.4880466,-2.863916,1.728816
38.2003,6.888915,186,151,502,497,0.2943312,0.02717056,0.2239323,-1.110375,-2.625835,-0.9365017,0.1168542,0.007946521,-0.1367122,-0.4890826,-2.862865,1.726665
38.0003,6.900026,186,151,502,497,0.3025342,0.003853772,0.2331777,-1.1122,-2.623656,-0.9410887,0.1201237,0.03586408,-0.1006675,-0.4891731,-2.859931,1.722506
37.8003,6.911138,186,151,502,497,0.3059427,-0.002449452,0.2341563,-1.114124,-2.621727,-0.9454771,0.1213262,0.06057572,-0.05924522,-0.4884419,-2.857454,1.718936
37.6003,6.922249,186,151,502,497,0.3028285,-0.003449713,0.2224056,-1.115735,-2.620307,-0.9493147,0.136326,0.06076249,-0.0497965,-0.4888999,-2.855583,1.715289
37.4003,6.93336,186,151,502,497,0.312499,-0.0088175,0.2457941,-1.118281,-2.617952,-0.954136,0.151156,0.0619144,-0.05844924,-0.4897282,-2.853766,1.711643
37.20029,6.944471,180,130,495,498,0.3139966,0.008054403,0.2609679,-1.121222,-2.616348,-0.9582922,0.1487052,0.07562631,-0.08193931,-0.4912307,-2.850735,1.707525
37.00029,6.955583,180,130,495,498,0.3249085,0.03177321,0.266689,-1.124005,-2.61536,-0.9626129,0.1453832,0.0701673,-0.1031939,-0.4928595,-2.848918,1.704359
36.80029,6.966694,180,130,495,498,0.3307904,0.04685721,0.2690771,-1.127051,-2.614268,-0.9669272,0.1431927,0.06582645,-0.114869,-0.4942955,-2.847295,1.701379
36.60029,6.977805,180,130,495,498,0.3357056,0.05862128,0.2767216,-1.130062,-2.613109,-0.9713891,0.143355,0.04987039,-0.1105262,-0.4952862,-2.84664,1.69932
36.40029,6.988916,187,125,504,499,0.3426609,0.07256686,0.2854829,-1.133375,-2.612005,-0.9758136,0.1509331,0.05000311,-0.09567569,-0.4959157,-2.845405,1.696386
36.20029,7.000028,187,125,504,499,0.3410792,0.08854681,0.282534,-1.136727,-2.61134,-0.9798899,0.1563413,0.04687664,-0.08932476,-0.4968606,-2.844367,1.693578
36.00029,7.011139,187,125,504,499,0.3492836,0.09725522,0.2880265,-1.140107,-2.610404,-0.9842585,0.1562752,0.05219093,-0.09254068,-0.4977693,-2.842474,1.690107
35.80029,7.02225,187,125,504,499,0.3542566,0.1080639,0.2892763,-1.143681,-2.60989,-0.9886788,0.1487172,0.05527383,-0.1020855,-0.4991563,-2.840719,1.687074
35.60029,7.033361,187,125,504,499,0.3604357,0.1146807,0.2883379,-1.14716,-2.609374,-0.9931135,0.1529497,0.05315955,-0.1063718,-0.5003515,-2.8393,1.684187
35.40029,7.044473,182,127,496,499,0.3667004,0.1180212,0.2926762,-1.150765,-2.608659,-0.9976963,0.1592495,0.06279461,-0.107533,-0.5014002,-2.837083,1.680317
35.20029,7.055584,182,127,496,499,0.376182,0.1215319,0.292744,-1.153995,-2.608164,-1.00235,0.1474003,0.07226156,-0.1117415,-0.5025944,-2.834632,1.677074
35.00029,7.066695,182,127,496,499,0.3772752,0.1216488,0.2874039,-1.157041,-2.607751,-1.006832,0.1444082,0.06484775,-0.09568775,-0.503029,-2.83372,1.674683
34.80029,7.077806,182,127,496,499,0.3767769,0.106922,0.2722403,-1.159278,-2.606885,-1.011524,0.1477029,0.07242295,-0.07658547,-0.5034413,-2.8317,1.671107
34.60028,7.088918,165,127,499,498,0.3749099,0.06746607,0.2684149,-1.161371,-2.605066,-1.016375,0.1508915,0.08635293,-0.06389751,-0.503697,-2.829074,1.667011
34.40028,7.100029,165,127,499,498,0.3748742,0.03651179,0.2711355,-1.163994,-2.603007,-1.021579,0.1636587,0.08966811,-0.06082547,-0.504228,-2.826846,1.663096
34.20028,7.11114,165,127,499,498,0.3761082,-0.001956205,0.2790578,-1.166023,-2.600243,-1.02665,0.1582825,0.08744401,-0.06928913,-0.5050983,-2.824965,1.659813
34.00028,7.122252,165,127,499,498,0.3724736,-0.02014266,0.2755681,-1.168326,-2.597989,-1.031722,0.1476365,0.0734375,-0.08084785,-0.5062355,-2.824108,1.657941
33.80028,7.133363,165,127,499,498,0.3739968,-0.03395668,0.2753476,-1.170277,-2.595618,-1.036778,0.143393,0.06483929,-0.08821598,-0.5072278,-2.823023,1.655417
33.60028,7.144474,170,135,497,498,0.3794968,-0.03913573,0.2774196,-1.172736,-2.593354,-1.042151,0.1499333,0.05320872,-0.08289711,-0.5080763,-2.822066,1.652615
33.40028,7.155585,170,135,497,498,0.3804503,-0.03591518,0.27748,-1.17526,-2.591244,-1.047136,0.1564499,0.0394287,-0.08182283,-0.5089865,-2.821562,1.65027
33.20028,7.166697,170,135,497,498,0.3687518,-0.03623843,0.2731644,-1.177527,-2.589309,-1.051585,0.1605709,0.04580469,-0.0925395,-0.5101967,-2.819944,1.646906
33.00028,7.177808,170,135,497,498,0.3598257,-0.02372136,0.2711996,-1.18019,-2.587632,-1.056138,0.1518793,0.04778166,-0.1105936,-0.511892,-2.818239,1.643991
32.80028,7.188919,162,138,499,499,0.3564227,-0.01742363,0.2702186,-1.182783,-2.586061,-1.060586,0.140159,0.04018749,-0.1189736,-0.5132641,-2.817421,1.641931
32.60028,7.20003,162,138,499,499,0.3574276,-0.0152055,0.2659948,-1.185016,-2.584288,-1.065255,0.1337817,0.04228514,-0.1146745,-0.51438,-2.816234,1.639588
32.40028,7.211142,162,138,499,499,0.3535905,-0.02690931,0.2562156,-1.186985,-2.582228,-1.069732,0.1357523,0.05933736,-0.1158457,-0.515695,-2.8139,1.63609
32.20028,7.222253,162,138,499,499,0.3493611,-0.02574532,0.2402383,-1.188785,-2.580735,-1.074124,0.1367755,0.07325447,-0.1073991,-0.5165803,-2.810939,1.631857
32.00027,7.233364,162,138,499,499,0.3417343,-0.0194275,0.2285576,-1.190203,-2.579771,-1.077916,0.1390522,0.06907713,-0.09355215,-0.5172839,-2.809641,1.629191
31.80027,7.244475,194,131,502,499,0.3363678,-0.01738888,0.2232408,-1.192249,-2.57851,-1.082088,0.1477177,0.05427039,-0.08927231,-0.5178629,-2.80892,1.626926
31.60027,7.255587,194,131,502,499,0.3296931,-0.007888096,0.2148389,-1.194233,-2.577632,-1.085865,0.1498765,0.04467237,-0.09563817,-0.519163,-2.808192,1.624554
31.40027,7.266698,194,131,502,499,0.3149665,0.01945205,0.2066889,-1.196504,-2.577208,-1.089285,0.1519511,0.0318328,-0.1136763,-0.5205106,-2.807656,1.622538
31.20027,7.277809,194,131,502,499,0.3110996,0.03956211,0.2069793,-1.198792,-2.576884,-1.092793,0.1541121,0.01156119,-0.1284906,-0.5219838,-2.807608,1.620998
31.00027,7.28892,194,131,502,499,0.3027569,0.06713109,0.1977651,-1.200783,-2.577329,-1.095696,0.1478002,0.005133942,-0.1252068,-0.5232654,-2.807677,1.61958
30.80027,7.300032,172,123,499,498,0.2815668,0.09637285,0.1906862,-1.20335,-2.577921,-1.098102,0.1499648,0.005180731,-0.123107,-0.5246726,-2.806876,1.616945
30.60027,7.311143,172,123,499,498,0.26797,0.1215897,0.1846323,-1.20591,-2.578731,-1.100582,0.1531462,0.009484887,-0.1210131,-0.5258305,-2.806224,1.614516
30.40027,7.322254,172,123,499,498,0.258712,0.1448766,0.1753695,-1.208445,-2.579973,-1.102853,0.1498714,0.01905096,-0.121039,-0.5272558,-2.805019,1.611842
30.20027,7.333365,172,123,499,498,0.2562566,0.1555674,0.1680681,-1.210883,-2.581097,-1.105277,0.1498489,0.02546485,-0.1168126,-0.5284814,-2.803974,1.609318
30.00027,7.344477,190,118,499,498,0.2466549,0.1575303,0.1574139,-1.212943,-2.581796,-1.107718,0.1478514,0.02017178,-0.1061178,-0.5293704,-2.803829,1.607638
29.80027,7.355588,190,118,499,498,0.2424086,0.1585763,0.1488972,-1.215077,-2.582618,-1.110294,0.1458613,0.003120914,-0.1071035,-0.5308921,-2.804195,1.60631
29.60027,7.366699,190,118,499,498,0.232878,0.1572577,0.1445844,-1.217277,-2.583455,-1.112388,0.1480478,-0.01395838,-0.1176954,-0.5325481,-2.805269,1.605558
29.40026,7.37781,190,118,499,498,0.2296163,0.159265,0.1456676,-1.219583,-2.584464,-1.114645,0.1480056,-0.0225375,-0.1325756,-0.5344943,-2.805595,1.604048
29.20026,7.388922,190,118,499,498,0.2291167,0.1433701,0.1379579,-1.221244,-2.584943,-1.117079,0.1523896,-0.03849076,-0.1346599,-0.5360208,-2.807121,1.60351
29.00026,7.400033,147,118,501,498,0.2250273,0.1378868,0.1389209,-1.223229,-2.585517,-1.119226,0.1545677,-0.03951481,-0.1314805,-0.5374328,-2.807775,1.602133
28.80026,7.411144,147,118,501,498,0.2249185,0.1091096,0.1373897,-1.22443,-2.585169,-1.121723,0.1534608,-0.01920925,-0.1155922,-0.5383074,-2.807126,1.599918
28.60026,7.422256,147,118,501,498,0.2225943,0.08230185,0.1422905,-1.226067,-2.584573,-1.124435,0.1523563,-0.001046553,-0.1018267,-0.5391692,-2.806308,1.597553
28.40026,7.433367,147,118,501,498,0.2178767,0.06286065,0.1472787,-1.227366,-2.583858,-1.126778,0.1523439,0.00748679,-0.0954689,-0.5400038,-2.806203,1.595684
28.20026,7.444478,163,139,494,499,0.2205695,0.04704646,0.1417119,-1.228662,-2.583397,-1.129651,0.1458415,0.01379153,-0.1018335,-0.5412646,-2.805679,1.593825
28.00026,7.455589,163,139,494,499,0.2308166,0.02828147,0.1361301,-1.229821,-2.582656,-1.132854,0.1362123,0.01582715,-0.1038919,-0.5424438,-2.8053,1.592309
27.80026,7.466701,163,139,494,499,0.2325462,0.009260647,0.1283798,-1.230689,-2.581665,-1.135761,0.1265222,0.01674163,-0.1165835,-0.5438713,-2.805036,1.590773
27.60026,7.477812,163,139,494,499,0.2298462,-0.002163755,0.102622,-1.230938,-2.581125,-1.138528,0.1253853,0.02097282,-0.120856,-0.5453206,-2.804357,1.588823
27.40026,7.488923,163,139,494,499,0.2342217,-0.03955469,0.1169743,-1.231879,-2.579017,-1.141893,0.1295163,0.02734782,-0.1315745,-0.5470229,-2.803456,1.586304
27.20026,7.500034,187,172,497,500,0.2356289,-0.05023951,0.121077,-1.23286,-2.577488,-1.145156,0.1272866,0.03583609,-0.1347934,-0.5485904,-2.802231,1.583888
27.00026,7.511146,187,172,497,500,0.2255443,-0.06764273,0.121833,-1.233625,-2.575729,-1.147967,0.130276,0.06465402,-0.1328414,-0.5501707,-2.798908,1.579203
26.80025,7.522257,187,172,497,500,0.2291666,-0.08031637,0.1216517,-1.234331,-2.573981,-1.151228,0.1342852,0.1009429,-0.1255921,-0.5513212,-2.795062,1.574391
26.60025,7.533368,187,172,497,500,0.2167643,-0.09126213,0.1129091,-1.234618,-2.572189,-1.153692,0.137537,0.1085002,-0.1118061,-0.5522192,-2.792374,1.570413
26.40025,7.544479,187,172,497,500,0.2125873,-0.09353642,0.1128603,-1.235337,-2.570544,-1.156681,0.1419307,0.1096843,-0.09374274,-0.5528344,-2.790219,1.566991
26.20025,7.555591,186,203,497,501,0.2086241,-0.1021058,0.106304,-1.235417,-2.568732,-1.159317,0.1411124,0.09482738,-0.08088532,-0.5534805,-2.789015,1.564235
26.00025,7.566702,186,203,497,501,0.204102,-0.09247465,0.09365861,-1.235799,-2.56758,-1.161953,0.1394854,0.0458404,-0.07103959,-0.5539455,-2.790905,1.564309
25.80025,7.577813,186,203,497,501,0.2090265,-0.0806048,0.09385243,-1.236301,-2.566425,-1.164673,0.1451305,0.005390748,-0.07408597,-0.5548249,-2.792769,1.564149
25.60025,7.588924,186,203,497,501,0.2068719,-0.0807462,0.09811354,-1.237125,-2.564936,-1.167269,0.1515429,-0.0106037,-0.08791595,-0.5562523,-2.793618,1.56303
25.40025,7.600036,195,228,491,502,0.2053831,-0.0680455,0.1004384,-1.23806,-2.563963,-1.16997,0.16203,-0.02131572,-0.1188459,-0.5584175,-2.794721,1.561891
25.20025,7.611147,195,228,491,502,0.2049885,-0.05756541,0.1112543,-1.239356,-2.562986,-1.172534,0.1682112,-0.01924282,-0.1423453,-0.5605602,-2.794827,1.559937
25.00025,7.622258,195,228,491,502,0.2090549,-0.05217952,0.1166733,-1.240416,-2.56208,-1.175314,0.1690574,-9.441376E-05,-0.1488384,-0.562377,-2.794035,1.557425
24.80025,7.633369,195,228,491,502,0.2111959,-0.05327458,0.1230599,-1.241608,-2.5608,-1.178158,0.1668593,0.01482956,-0.1435583,-0.5637177,-2.792984,1.554546
24.60025,7.644481,195,228,491,502,0.2187842,-0.05852793,0.1347231,-1.242914,-2.559398,-1.181263,0.1604755,0.0372583,-0.1191111,-0.5643643,-2.791282,1.551579
24.40025,7.655592,214,242,495,500,0.2221429,-0.06379466,0.1378503,-1.244084,-2.557931,-1.184299,0.1552167,0.05117808,-0.09675947,-0.5647926,-2.789388,1.548388
24.20024,7.666703,214,242,495,500,0.2406491,-0.07608242,0.1441269,-1.245317,-2.55592,-1.188235,0.1520289,0.07684913,-0.07023229,-0.5650594,-2.786479,1.544226
24.00024,7.677814,214,242,495,500,0.2431625,-0.08776561,0.1460873,-1.246356,-2.553872,-1.191705,0.1498995,0.08004169,-0.06597129,-0.5657343,-2.784894,1.541383
23.80024,7.688926,214,242,495,500,0.2636569,-0.09689189,0.1598747,-1.247899,-2.551732,-1.19586,0.1499856,0.06723797,-0.07017746,-0.5667601,-2.784236,1.53898
23.60024,7.700037,242,240,494,501,0.2723388,-0.1031705,0.1694057,-1.249337,-2.54938,-1.199678,0.1468032,0.05009098,-0.08498298,-0.5680709,-2.784193,1.537536
23.40024,7.711148,242,240,494,501,0.2890503,-0.09425523,0.1802633,-1.251182,-2.547716,-1.203848,0.1424192,0.0414236,-0.1083514,-0.569999,-2.783684,1.535638
23.20024,7.72226,242,240,494,501,0.2995003,-0.08868199,0.1867871,-1.253022,-2.546016,-1.20803,0.1445076,0.03285252,-0.1221766,-0.571704,-2.783536,1.533867
23.00024,7.733371,242,240,494,501,0.308292,-0.06616892,0.1967637,-1.255252,-2.544862,-1.21187,0.1454807,0.03495309,-0.1317854,-0.5733972,-2.78258,1.531312
22.80024,7.744482,242,240,494,501,0.3138413,-0.04156387,0.2024916,-1.257439,-2.544062,-1.215631,0.1496919,0.04031688,-0.131841,-0.5748076,-2.781547,1.528745
22.60024,7.755593,238,230,501,501,0.3217529,-0.02322969,0.2060016,-1.259761,-2.543446,-1.219706,0.1465079,0.04991674,-0.1212016,-0.5758271,-2.780511,1.526294
22.40024,7.766705,238,230,501,501,0.3266399,-0.01035805,0.210486,-1.262083,-2.542544,-1.223785,0.1486248,0.06277041,-0.1085059,-0.5768668,-2.778951,1.523418
22.20024,7.777816,238,230,501,501,0.3313638,0.007911493,0.2107902,-1.264495,-2.542222,-1.227729,0.1485451,0.0766304,-0.1032464,-0.5779454,-2.777173,1.52038
22.00024,7.788927,238,230,501,501,0.3384711,0.01886214,0.2067195,-1.266569,-2.541898,-1.231583,0.1494673,0.09369661,-0.1033437,-0.5792983,-2.774314,1.516252
21.80024,7.800038,202,213,496,500,0.3426968,0.02008622,0.2056884,-1.268777,-2.541374,-1.235636,0.1494458,0.1001042,-0.100184,-0.580486,-2.772154,1.512682
21.60023,7.81115,202,213,496,500,0.3461455,0.01277174,0.20345,-1.270778,-2.540571,-1.239769,0.1493743,0.1032741,-0.1055256,-0.5818788,-2.770014,1.509224
21.40023,7.822261,202,213,496,500,0.3452014,0.009554394,0.2023311,-1.272903,-2.539749,-1.243955,0.1514757,0.1022046,-0.1087354,-0.583252,-2.76833,1.506255
21.20023,7.833372,202,213,496,500,0.3508422,0.0001650024,0.201136,-1.274816,-2.538797,-1.248236,0.1483373,0.09150454,-0.1129188,-0.5846938,-2.767252,1.503804
21.00023,7.844483,202,213,496,500,0.3587688,-0.013401,0.1998905,-1.276816,-2.537737,-1.252893,0.1474942,0.07342955,-0.1042931,-0.5855162,-2.766648,1.501721
20.80023,7.855595,154,187,499,499,0.3626389,-0.03352703,0.1995952,-1.27868,-2.536036,-1.257585,0.1445902,0.05001321,-0.09350294,-0.586288,-2.766943,1.500389
20.60023,7.866706,154,187,499,499,0.3566103,-0.0455802,0.2068365,-1.280666,-2.534308,-1.261881,0.1415222,0.04042213,-0.08809347,-0.5870183,-2.766706,1.498689
20.40023,7.877817,154,187,499,499,0.3609744,-0.04864218,0.2078701,-1.282751,-2.533087,-1.266415,0.1490436,0.03194901,-0.08918372,-0.5881091,-2.766792,1.496897
20.20023,7.888928,154,187,499,499,0.3621212,-0.05188202,0.2131511,-1.28492,-2.531642,-1.27081,0.1532505,0.0330192,-0.09560415,-0.5892052,-2.766257,1.494548
20.00023,7.90004,154,187,499,499,0.3632738,-0.05510504,0.2163058,-1.287063,-2.530028,-1.275253,0.155299,0.03513339,-0.1020248,-0.590564,-2.765764,1.492561
19.80023,7.911151,143,157,496,499,0.3623109,-0.0583507,0.2173169,-1.289198,-2.528569,-1.279688,0.1595511,0.03516439,-0.1031256,-0.5917789,-2.76526,1.490272
19.60023,7.922262,143,157,496,499,0.3556251,-0.05008803,0.2195539,-1.291464,-2.527401,-1.283673,0.1552607,0.03832538,-0.1031056,-0.5929565,-2.764523,1.48811
19.40023,7.933373,143,157,496,499,0.3564698,-0.04369863,0.2217877,-1.293781,-2.526326,-1.287964,0.157304,0.03829184,-0.1127192,-0.5945246,-2.763972,1.485904
19.20023,7.944485,143,157,496,499,0.3606758,-0.04139169,0.2197096,-1.296017,-2.525249,-1.292568,0.1531191,0.03509113,-0.1073395,-0.5956591,-2.763588,1.483963
19.00023,7.955596,150,133,496,498,0.3542087,-0.03950709,0.2218451,-1.298358,-2.524115,-1.296667,0.1499185,0.04362558,-0.09882627,-0.5965443,-2.762492,1.481518
18.80022,7.966707,150,133,496,498,0.3539954,-0.03311703,0.2219441,-1.300686,-2.523247,-1.300805,0.1500188,0.04261681,-0.09030324,-0.5974211,-2.761521,1.478705
18.60022,7.977818,150,133,496,498,0.3527577,-0.02780045,0.2198902,-1.302907,-2.522388,-1.304843,0.1522504,0.03519234,-0.08602644,-0.5983351,-2.761501,1.476903
18.40022,7.98893,150,133,496,498,0.3433933,-0.03443575,0.215497,-1.305027,-2.521196,-1.308627,0.159658,0.03416638,-0.09354883,-0.5997306,-2.760839,1.474313
18.20022,8.000041,150,133,496,498,0.3379622,-0.03023672,0.2080807,-1.306994,-2.520433,-1.312515,0.1647524,0.05120569,-0.1032573,-0.6011809,-2.759352,1.471202
18.00022,8.011152,134,123,500,497,0.3261358,-0.02623779,0.1995836,-1.308971,-2.519616,-1.315975,0.1665459,0.06281231,-0.1331616,-0.6036087,-2.757683,1.467755
17.80022,8.022264,134,123,500,497,0.3229905,-0.02735129,0.1952887,-1.310824,-2.518636,-1.319721,0.1653341,0.0595011,-0.1544221,-0.6056113,-2.757277,1.465625
17.60022,8.033375,134,123,500,497,0.3089634,-0.02132274,0.1889367,-1.312693,-2.518103,-1.322929,0.1662588,0.06478581,-0.1651064,-0.6077296,-2.756099,1.462869
17.40022,8.044486,134,123,500,497,0.3088726,-0.01805069,0.1836731,-1.314636,-2.51739,-1.326519,0.1725615,0.07227679,-0.1694507,-0.6097451,-2.754737,1.459514
17.20022,8.055597,157,127,503,496,0.2980787,-0.01299938,0.1783789,-1.316365,-2.516847,-1.329839,0.1705774,0.06913239,-0.1545025,-0.6111268,-2.753886,1.457036
17.00022,8.066709,157,127,503,496,0.2916583,-0.01213647,0.1773038,-1.318207,-2.51618,-1.333075,0.1654892,0.06601109,-0.1299337,-0.6119246,-2.75291,1.454414
16.80022,8.07782,157,127,503,496,0.2836884,0.003614346,0.1753835,-1.320083,-2.51617,-1.336076,0.1625007,0.05540025,-0.1149439,-0.6128775,-2.752592,1.452518
16.60022,8.088931,157,127,503,496,0.2803878,0.006714231,0.1743546,-1.321967,-2.515823,-1.339103,0.1543902,0.03843933,-0.08496627,-0.6130389,-2.75242,1.450606
16.40022,8.100042,157,127,503,496,0.2739916,0.007645598,0.1690165,-1.323648,-2.51543,-1.342186,0.1493797,0.0150203,-0.07096376,-0.6134554,-2.75335,1.449799
16.20021,8.111154,232,138,504,496,0.2717474,0.0107598,0.1690504,-1.325419,-2.515125,-1.345036,0.132663,-0.01598975,-0.06641228,-0.6139939,-2.755026,1.449738
16.00021,8.122265,232,138,504,496,0.2651887,0.01706152,0.1605975,-1.326959,-2.515047,-1.347974,0.1147129,-0.03533332,-0.06723936,-0.6147364,-2.756873,1.450402
15.80021,8.133376,232,138,504,496,0.2648897,0.02671413,0.1554193,-1.328545,-2.515141,-1.35083,0.09987678,-0.05682674,-0.07979796,-0.6157862,-2.759248,1.451655
15.60021,8.144487,232,138,504,496,0.2652552,0.04923738,0.1472439,-1.330119,-2.515997,-1.3537,0.08261301,-0.07852295,-0.1285532,-0.6182523,-2.762486,1.453808
15.40021,8.155599,280,146,503,496,0.2658575,0.06309557,0.148528,-1.331995,-2.516735,-1.356499,0.07271875,-0.07771054,-0.164694,-0.6209336,-2.764365,1.454802
15.20021,8.16671,280,146,503,496,0.2645258,0.07159144,0.1465271,-1.333712,-2.517154,-1.359391,0.06800355,-0.04160692,-0.1808124,-0.6233799,-2.763813,1.453852
15.00021,8.177821,280,146,503,496,0.2631235,0.1117943,0.1631215,-1.338195,-2.519755,-1.364531,0.113776,-0.0123331,-0.1557731,-0.6264319,-2.763832,1.450259
14.80021,8.188932,280,146,503,496,0.2631235,0.1117943,0.1631215,-1.338195,-2.519755,-1.364531,0.113776,-0.0123331,-0.1557731,-0.6264319,-2.763832,1.450259
14.60021,8.200044,303,164,503,495,0.2608947,0.1456701,0.1732092,-1.342676,-2.522853,-1.369564,0.1276779,-0.04216939,-0.1813142,-0.6308102,-2.76756,1.450078
14.40022,8.211155,303,164,503,495,0.2644149,0.1681659,0.1735737,-1.345022,-2.524947,-1.372144,0.1246125,-0.07317381,-0.1971243,-0.6332821,-2.771073,1.451659
14.20022,8.222266,303,164,503,495,0.2638041,0.1874135,0.1685447,-1.347216,-2.527234,-1.374623,0.1152391,-0.1020344,-0.2011721,-0.6354031,-2.774703,1.453539
14.00022,8.233377,303,164,503,495,0.2635145,0.1970602,0.1644253,-1.349315,-2.529312,-1.377213,0.1122098,-0.09768149,-0.1766707,-0.6366494,-2.776432,1.45374
13.80022,8.244489,303,164,503,495,0.2635145,0.1970602,0.1644253,-1.349315,-2.529312,-1.377213,0.1122098,-0.09768149,-0.1766707,-0.6366494,-2.776432,1.45374
13.60022,8.2556,303,164,503,495,0.2655623,0.2003876,0.1602197,-1.351332,-2.531272,-1.379932,0.1197538,-0.09221075,-0.1597121,-0.6378878,-2.778114,1.453677
13.40022,8.266711,344,182,509,496,0.275649,0.2177478,0.161593,-1.355804,-2.535702,-1.385365,0.1429062,-0.06007576,-0.160042,-0.6410943,-2.780468,1.452071
13.20022,8.277822,344,182,509,496,0.275649,0.2177478,0.161593,-1.355804,-2.535702,-1.385365,0.1429062,-0.06007576,-0.160042,-0.6410943,-2.780468,1.452071
13.00022,8.288934,344,182,509,496,0.2731668,0.2294807,0.1553791,-1.360044,-2.54032,-1.390544,0.1519983,-0.02175979,-0.1805415,-0.6455539,-2.781241,1.449138
12.80022,8.300045,344,182,509,496,0.2731668,0.2294807,0.1553791,-1.360044,-2.54032,-1.390544,0.1519983,-0.02175979,-0.1805415,-0.6455539,-2.781241,1.449138
12.60022,8.311156,317,200,503,495,0.2719755,0.2367918,0.1566252,-1.36502,-2.543908,-1.397589,0.1355858,0.02923214,-0.1806436,-0.6496739,-2.779034,1.4447
12.40022,8.322268,317,200,503,495,0.2686882,0.2399302,0.1534653,-1.367079,-2.54637,-1.399953,0.1356137,0.03887042,-0.1689585,-0.6511019,-2.778356,1.442505
12.20022,8.333379,317,200,503,495,0.2686882,0.2399303,0.1534653,-1.369209,-2.548758,-1.402456,0.1326349,0.03468831,-0.1465436,-0.6520728,-2.778158,1.441008
12.00022,8.34449,317,200,503,495,0.26555,0.2387959,0.1512812,-1.37096,-2.551152,-1.404886,0.1352997,-0.0003097653,-0.1176266,-0.6523429,-2.780014,1.440941
11.80022,8.355601,317,200,503,495,0.26555,0.2387959,0.1512812,-1.37096,-2.551152,-1.404886,0.1352997,-0.0003097653,-0.1176266,-0.6523429,-2.780014,1.440941
11.60022,8.366713,308,214,505,495,0.2730758,0.2060659,0.1465123,-1.373452,-2.554896,-1.41204,0.1477202,-0.05440067,-0.08764214,-0.6532478,-2.784369,1.44096
11.40022,8.377824,308,214,505,495,0.2712386,0.1975221,0.1431789,-1.375475,-2.556008,-1.414772,0.1403477,-0.07369691,-0.09813223,-0.6543568,-2.786925,1.441565
11.20022,8.388935,308,214,505,495,0.2738035,0.1848806,0.1387245,-1.376851,-2.557388,-1.417536,0.1286538,-0.08877411,-0.1107484,-0.6557432,-2.789536,1.442507
11.00022,8.400046,308,214,505,495,0.2738035,0.1848806,0.1387245,-1.376851,-2.557388,-1.417536,0.1286538,-0.08877411,-0.1107484,-0.6557432,-2.789536,1.442507
10.80022,8.411158,304,221,507,498,0.2788985,0.09683693,0.1213785,-1.378697,-2.557334,-1.423478,0.1026402,-0.05607048,-0.1298656,-0.6589438,-2.791331,1.442424
10.60022,8.422269,304,221,507,498,0.2775324,0.04258701,0.1109377,-1.379463,-2.556132,-1.426749,0.09382991,-0.0274131,-0.1352492,-0.660497,-2.791122,1.441414
10.40022,8.43338,304,221,507,498,0.2867039,-0.009387495,0.1133594,-1.380601,-2.554521,-1.430941,0.09688401,-0.004992872,-0.130046,-0.6617497,-2.790611,1.439795
10.20022,8.444491,304,221,507,498,0.2950931,-0.03793595,0.116142,-1.381792,-2.553094,-1.434732,0.09913404,0.004732117,-0.1056102,-0.6623665,-2.790298,1.43836
10.00022,8.455603,290,225,503,493,0.3091008,-0.0759951,0.1251875,-1.383059,-2.551014,-1.439064,0.09398673,0.0005032718,-0.0885015,-0.6628752,-2.79079,1.437832
9.80022,8.466714,290,225,503,493,0.3146582,-0.08334247,0.1293527,-1.384335,-2.549619,-1.443084,0.09624836,0.0005987138,-0.07254034,-0.6632262,-2.790874,1.436756
9.60022,8.477825,290,225,503,493,0.3146488,-0.08339895,0.1325448,-1.385661,-2.548384,-1.446901,0.08125991,0.01113076,-0.07140473,-0.6641322,-2.790356,1.43575
