ref,t,emg1,emg2,emg1raw,emg2raw,aDotS,bDotS,gDotS,aS,bS,gS,aDotSH,bDotSH,gDotSH,aSH,bSH,gSH
90,0,685,213,476,486,0.3521097,1.44541,0.8637249,-1.317677,3.045072,-0.1935969,-0.3961035,-1.17221,0.1210115,-0.3275028,2.960681,2.799871
90,0.01111111,685,213,476,486,0.3785613,1.399195,0.8309367,-1.324007,3.046265,-0.1779844,-0.400739,-1.158982,0.1079655,-0.3217349,2.929792,2.835998
90,0.02222222,685,213,476,486,0.3868411,1.352257,0.7922034,-1.329319,3.047073,-0.1623356,-0.4031458,-1.112672,0.1053479,-0.3166456,2.902592,2.868439
90,0.03333334,685,213,476,486,0.3831477,1.330557,0.7568175,-1.334699,3.048288,-0.1471455,-0.3612927,-1.085297,0.1417121,-0.3107536,2.872879,2.901152
90,0.04444445,685,213,476,486,0.3352993,1.263607,0.7019514,-1.337965,3.049667,-0.1339783,-0.3448929,-1.059081,0.08917597,-0.3080734,2.842972,2.935558
90,0.05555556,744,190,461,503,0.3121897,1.235154,0.6669602,-1.341655,3.051032,-0.1197703,-0.3547774,-1.069056,0.08172187,-0.304182,2.809461,2.974722
90,0.06666667,744,190,461,503,0.2870528,1.203058,0.6339048,-1.345241,3.052618,-0.1066585,-0.3202651,-0.996495,0.1395677,-0.299155,2.783385,3.003754
90,0.07777778,744,190,461,503,0.243733,1.170793,0.6143727,-1.348192,3.054787,-0.09381358,-0.3089107,-0.9648222,0.0914956,-0.2974357,2.754888,3.036626
90,0.08888889,744,190,461,503,0.163311,1.121385,0.5846896,-1.349128,3.057402,-0.08215372,-0.300331,-0.924162,0.04815689,-0.296575,2.728398,3.067788
90,0.1,704,183,497,493,0.1242896,1.071918,0.5549105,-1.350621,3.059786,-0.0712076,-0.2729424,-0.8935861,0.0166969,-0.2959784,2.700508,3.099649
90,0.1111111,704,183,497,493,0.07535845,0.970023,0.5053012,-1.35094,3.061922,-0.06309988,-0.2522355,-0.8601849,0.0119305,-0.2951762,2.674686,3.129081
90,0.1222222,704,183,497,493,0.03884679,0.9125639,0.4650968,-1.351653,3.063697,-0.05459107,-0.2018905,-0.815641,-0.03151602,-0.2962894,2.650861,-3.127544
90,0.1333333,704,183,497,493,0.007634044,0.8618017,0.4199363,-1.351963,3.064924,-0.04636563,-0.2054719,-0.7770721,-0.1088882,-0.298591,2.628649,-3.100963
90,0.1444445,704,183,497,493,-0.0378015,0.8151904,0.3836509,-1.35049,3.066182,-0.03736309,-0.2079501,-0.7170092,-0.2086987,-0.302835,2.612593,-3.079977
90,0.1555556,595,185,505,501,-0.09495157,0.7869051,0.3572053,-1.348188,3.067613,-0.02830834,-0.1418294,-0.5494158,-0.553185,-0.3175681,2.616471,-3.078871
90,0.1666667,595,185,505,501,-0.1786347,0.7300768,0.3204499,-1.344602,3.069533,-0.02158758,-0.06384826,-0.7661714,-0.3133996,-0.3165183,2.570606,-3.032423
90,0.1777778,595,185,505,501,-0.2319965,0.6451901,0.2778563,-1.340964,3.070969,-0.01593263,-0.09838796,-0.6964158,-0.01346236,-0.3074209,2.545428,-3.006761
90,0.1888889,595,185,505,501,-0.2596827,0.5698496,0.2420362,-1.338143,3.072473,-0.01128275,-0.1092044,-0.6006062,-0.02483961,-0.3080873,2.535461,-2.994256
90,0.2,630,235,561,500,-0.2852725,0.5118308,0.2066056,-1.33457,3.073565,-0.006589193,-0.1249188,-0.5426666,0.02121979,-0.3078406,2.524165,-2.980174
90,0.2111111,630,235,561,500,-0.3041169,0.4802195,0.19041,-1.33125,3.075098,-0.00195476,-0.1385752,-0.477709,0.02368751,-0.3075152,2.51508,-2.968582
90,0.2222222,630,235,561,500,-0.3124708,0.4350176,0.1645759,-1.328042,3.076266,0.001903095,-0.1589144,-0.407539,0.01004367,-0.3077139,2.508889,-2.9595
90,0.2333333,630,235,561,500,-0.3063175,0.3838843,0.1445343,-1.325188,3.077461,0.005052549,-0.1448591,-0.3837571,0.002129868,-0.3082172,2.498203,-2.94673
90,0.2444444,630,235,561,500,-0.2641815,0.322136,0.1201491,-1.323608,3.078138,0.007040865,-0.1172102,-0.3609413,0.01045603,-0.3084367,2.488419,-2.935762
90,0.2555556,760,226,542,499,-0.2304981,0.285809,0.1114386,-1.322189,3.079132,0.0095714,-0.0981179,-0.3474549,0.03531213,-0.3079051,2.477123,-2.923333
90,0.2666667,760,226,542,499,-0.1769625,0.2530891,0.1125883,-1.322037,3.080023,0.01148941,-0.04666644,-0.2772025,0.04396062,-0.307438,2.469695,-2.9163
90,0.2777778,760,226,542,499,-0.1129283,0.2296559,0.1199698,-1.322611,3.080868,0.01382766,-0.01585791,-0.2406963,0.007123254,-0.3091152,2.467259,-2.914067
90,0.2888889,760,226,542,499,-0.0321659,0.2020812,0.1365466,-1.324785,3.08198,0.01537869,-0.03678641,-0.1711691,-0.008072644,-0.3093475,2.468691,-2.914454
90,0.3,760,226,542,499,0.0714064,0.173402,0.150558,-1.328057,3.082688,0.01696008,-0.03919467,-0.1427458,-0.04600803,-0.3106439,2.467614,-2.912339
90,0.3111111,784,222,465,496,0.1680244,0.1533902,0.1620815,-1.332505,3.083448,0.01810523,-0.05344093,-0.1360567,-0.071222,-0.3120559,2.465385,-2.9086
90,0.3222222,784,222,465,496,0.2253265,0.1461362,0.163009,-1.336796,3.084031,0.01952843,-0.05196647,-0.1316958,-0.05438848,-0.3123313,2.462152,-2.904496
90,0.3333333,784,222,465,496,0.2704474,0.1349071,0.1635751,-1.340353,3.084454,0.02139797,-0.03473273,-0.1040902,-0.004590202,-0.3113613,2.459236,-2.901979
90,0.3444445,784,222,465,496,0.2800893,0.1052805,0.1623246,-1.344013,3.085392,0.02177187,-0.03370128,-0.07989524,0.004244231,-0.3110295,2.458565,-2.901018
90,0.3555556,784,222,465,496,0.281361,0.07633978,0.1549243,-1.347402,3.086288,0.02164458,-0.03887614,-0.06833312,-0.009061269,-0.3116511,2.458291,-2.899949
90,0.3666667,784,222,465,496,0.2736714,0.03868172,0.1392925,-1.35041,3.086929,0.02095961,-0.03396051,-0.04621996,-0.01357326,-0.3119371,2.45927,-2.900587
90,0.3777778,784,222,465,496,0.2632147,0.02584966,0.1244029,-1.352795,3.087149,0.02108158,-0.02490226,-0.04488041,0.01149427,-0.3113385,2.456819,-2.898182
90,0.3888889,784,222,465,496,0.2466988,0.02424799,0.1064195,-1.35461,3.086749,0.02207281,-0.008629764,-0.02412743,0.04239077,-0.3101752,2.456134,-2.898202
90,0.4,784,222,465,496,0.2220891,0.02622595,0.09498665,-1.356592,3.087042,0.02239186,-0.003345497,0.01292565,0.02474941,-0.3102551,2.459417,-2.901823
90,0.4111111,589,237,479,500,0.1973245,0.02015216,0.07973801,-1.358351,3.087685,0.02207281,-0.01322344,0.02899615,-0.007165397,-0.3108857,2.463223,-2.90511
90,0.4222222,589,237,479,500,0.1748353,0.01893988,0.06845611,-1.359787,3.087842,0.02224166,-0.02304281,0.03359,-0.03905448,-0.3119121,2.46696,-2.90819
90,0.4333333,589,237,479,500,0.1412621,0.004560236,0.04875678,-1.360702,3.087925,0.02154977,-0.01887145,0.02552369,-0.03257077,-0.3119909,2.467862,-2.90905
90,0.4444444,589,237,479,500,0.1118145,-0.009515688,0.03469533,-1.361156,3.087933,0.02108638,-0.01317262,0.01236278,-0.01363637,-0.3117172,2.466813,-2.908054
90,0.4555556,587,229,547,497,0.09140529,-0.01286744,0.02375141,-1.361942,3.088113,0.02070714,-0.009758417,0.01326915,0.00575456,-0.3111169,2.467169,-2.908558
90,0.4666667,587,229,547,497,0.05682742,-0.01358046,0.01247824,-1.361575,3.088024,0.02051859,-0.008366549,0.007079706,0.03127935,-0.3101752,2.465905,-2.907485
90,0.4777778,587,229,547,497,0.02161127,-0.02034543,0.004296027,-1.361274,3.088392,0.01992577,0.003142284,0.01932881,0.04151887,-0.309462,2.466781,-2.909052
90,0.4888889,587,229,547,497,0.004868768,-0.02276867,0.001133698,-1.360842,3.08846,0.01960406,-0.001665307,0.01823058,0.01307333,-0.3100346,2.468531,-2.910505
90,0.5,587,229,547,497,-0.01011754,-0.02818548,-0.01446204,-1.360443,3.088515,0.01875611,-0.002112629,0.01545184,0.009700992,-0.3100479,2.469247,-2.911211
90,0.5111111,616,238,490,505,-0.01335359,-0.02428536,-0.02440833,-1.360302,3.088391,0.01841842,0.0004459405,0.007956542,0.01690681,-0.3096846,2.468507,-2.910644
90,0.5222223,616,238,490,505,-0.01484345,-0.01662358,-0.04213283,-1.359909,3.087498,0.01845784,0.003953481,-0.008955006,0.0418753,-0.3088628,2.465556,-2.907956
90,0.5333334,616,238,490,505,-0.02001983,-0.01538181,-0.03859728,-1.359543,3.087515,0.01815583,0.01084854,0.003270436,0.04666286,-0.3082636,2.465962,-2.908962
90,0.5444446,616,238,490,505,-0.01246184,-0.0180084,-0.02852156,-1.359566,3.087466,0.01790283,0.019845,0.02466955,0.03113295,-0.3082481,2.46797,-2.911624
90,0.5555557,593,245,484,493,-0.002950776,-0.01981373,-0.02227068,-1.359962,3.087667,0.01743465,0.01613446,0.03307838,0.001815913,-0.3088532,2.470689,-2.914215
90,0.5666668,593,245,484,493,0.01890328,-0.02070258,-0.01755337,-1.360732,3.087514,0.01717313,0.02532727,0.03677681,-0.04415715,-0.310573,2.473516,-2.917212
90,0.577778,593,245,484,493,0.04819875,-0.01720474,-0.01701574,-1.362207,3.087315,0.0168136,0.02940151,0.02294639,-0.03763758,-0.3109683,2.47314,-2.917182
90,0.5888891,593,245,484,493,0.05932317,-0.01319283,-0.01822648,-1.363101,3.08689,0.01678324,0.0246788,0.01273627,-0.02993251,-0.3110689,2.472946,-2.917049
90,0.6000003,593,245,484,493,0.08408521,-0.006827854,-0.01715565,-1.364804,3.086603,0.01669482,0.003250006,-0.001312601,-0.01958111,-0.3109837,2.472578,-2.916131
90,0.6111114,576,244,503,503,0.09269232,0.001388121,-0.007091364,-1.366253,3.086535,0.01671826,9.394507E-05,-0.003902894,0.01362162,-0.31005,2.471509,-2.915167
90,0.6222225,576,244,503,503,0.09625731,0.004123163,-0.00365462,-1.367392,3.086328,0.01683011,0.006866836,0.006522112,0.01186389,-0.3099696,2.472158,-2.916152
90,0.6333337,576,244,503,503,0.09433258,0.01105581,0.004946232,-1.368635,3.086367,0.01697872,0.01039796,0.01820509,-0.0234834,-0.3111328,2.474623,-2.918648
90,0.6444448,576,244,503,503,0.09593664,0.01170294,0.00752746,-1.369767,3.086256,0.01713265,0.01319807,0.02696747,-0.05024036,-0.3122301,2.477228,-2.921252
90,0.655556,576,244,503,503,0.09823135,0.00952353,0.001912253,-1.370985,3.08589,0.01694729,0.01379644,0.01605097,-0.05879104,-0.3130098,2.477793,-2.921728
90,0.6666671,559,243,492,493,0.1018096,0.006501424,-0.004679097,-1.372155,3.085414,0.01692386,0.01594466,0.009548519,-0.05166232,-0.3134871,2.47775,-2.921788
90,0.6777782,559,243,492,493,0.1032282,0.007905467,-0.006440626,-1.37331,3.085195,0.01688338,0.01427785,0.003973182,-0.02026582,-0.3129465,2.476515,-2.92082
90,0.6888894,559,243,492,493,0.1027317,0.01395092,-0.004401175,-1.37452,3.085009,0.01708737,0.01294254,-0.008593639,-0.002990786,-0.3126503,2.474836,-2.919249
90,0.7000005,559,243,492,493,0.08627672,0.02723063,-0.004257547,-1.375108,3.084784,0.01766954,0.007763682,-0.00186332,-0.007555908,-0.312914,2.475357,-2.919839
90,0.7111117,484,227,541,497,0.06902173,0.0352667,-0.0052814,-1.375623,3.084599,0.01805623,0.006828305,-0.002672585,-0.0121541,-0.3131872,2.475415,-2.919862
90,0.7222228,484,227,541,497,0.05483,0.03114596,-0.01012575,-1.375859,3.084277,0.01831616,0.009377783,0.0003381465,-0.03785091,-0.3145065,2.476435,-2.920815
90,0.7333339,484,227,541,497,0.04629275,0.02200355,-0.015837,-1.376278,3.083984,0.01809139,0.012901,-0.007172206,-0.03476506,-0.3149161,2.475614,-2.920079
90,0.7444451,484,227,541,497,0.03183982,0.01873999,-0.01944152,-1.37631,3.083717,0.01812974,0.01331846,-0.01404357,-0.02476221,-0.3147771,2.473707,-2.918303
90,0.7555562,484,227,541,497,0.02384289,0.02114163,-0.0228685,-1.376415,3.083384,0.0184067,0.0135719,-0.00301137,0.004796959,-0.3138882,2.473372,-2.918497
90,0.7666674,445,217,497,498,0.001800513,0.01975271,-0.02660134,-1.375755,3.083077,0.01859739,0.00825537,0.008880816,0.006740168,-0.3136266,2.474614,-2.919805
90,0.7777785,445,217,497,498,-0.007564355,0.01968256,-0.0285747,-1.375497,3.082756,0.01880618,0.007788033,0.002314073,0.0001015274,-0.3139297,2.473648,-2.918675
90,0.7888896,445,217,497,498,-0.003513733,0.0208457,-0.02197844,-1.375757,3.082686,0.01884666,0.02051294,0.002107223,0.006428731,-0.3138754,2.472933,-2.918568
90,0.8000008,445,217,497,498,0.01071682,0.02044908,-0.02239013,-1.376102,3.082468,0.01894946,0.02835838,0.002732137,0.01705352,-0.3137241,2.472469,-2.919028
90,0.8111119,503,227,516,496,0.02662414,0.01769842,-0.01517438,-1.376831,3.082363,0.01898727,0.02719369,0.007652823,0.01346559,-0.3136245,2.472494,-2.919299
90,0.8222231,503,227,516,496,0.04379535,0.01514937,-0.008800384,-1.377803,3.082247,0.01907409,0.02343804,0.002870778,0.002745563,-0.3139382,2.472383,-2.919252
90,0.8333342,503,227,516,496,0.04664746,0.006204979,-0.006562747,-1.378341,3.082176,0.01874865,0.0265147,-0.005456381,-0.0008550533,-0.3143297,2.470974,-2.917905
90,0.8444453,503,227,516,496,0.05016579,0.002210948,-0.007701801,-1.378948,3.081966,0.01867622,0.03503705,-0.02007025,0.003443995,-0.3144842,2.468258,-2.915696
90,0.8555565,503,227,516,496,0.04437385,0.001472346,-0.01125344,-1.379278,3.08173,0.0185079,0.03250635,-0.02027469,-0.0004406397,-0.3146439,2.467804,-2.915367
90,0.8666676,523,203,518,497,0.03153482,-0.0001641233,-0.0174985,-1.379217,3.081397,0.01846636,0.01224913,-0.02926591,0.0112054,-0.3142583,2.466084,-2.913297
90,0.8777788,523,203,518,497,0.02278484,0.0003219247,-0.02251474,-1.37931,3.081079,0.01846529,0.00937693,-0.03044936,0.01052499,-0.314334,2.46475,-2.911914
90,0.8888899,523,203,518,497,0.00642052,-0.0007697828,-0.03270066,-1.378784,3.080488,0.01843866,-0.005796135,-0.01410904,0.02653123,-0.3133827,2.465103,-2.912053
90,0.900001,523,203,518,497,-0.005338371,0.001061279,-0.03367487,-1.378485,3.080314,0.01846316,-0.00514175,-0.003633012,0.02552284,-0.3130482,2.465654,-2.912682
90,0.9111122,480,200,504,494,-0.00816698,-0.007222386,-0.03024706,-1.378351,3.080168,0.01806688,0.01097536,0.005727305,0.01066722,-0.313429,2.466351,-2.91393
90,0.9222233,480,200,504,494,0.01020334,-0.009449776,-0.01913958,-1.378986,3.080169,0.01791402,0.01321529,0.004829538,-0.007401533,-0.3140943,2.466776,-2.914262
90,0.9333345,480,200,504,494,0.0415231,-0.004863109,-0.01302991,-1.380353,3.079837,0.01806902,0.01413639,0.007607852,-0.006100593,-0.3140538,2.467189,-2.914956
90,0.9444456,480,200,504,494,0.07702486,-0.0002597757,-0.006187716,-1.382096,3.079604,0.01818406,0.01161462,-0.0002994053,-0.00664927,-0.3142093,2.466622,-2.914382
90,0.9555568,480,200,504,494,0.09455498,0.005082606,-0.001817636,-1.383565,3.079322,0.01838593,0.007578876,-0.005784368,9.098666E-05,-0.3140309,2.465884,-2.913848
90,0.9666679,484,194,477,495,0.1083803,0.004279098,-0.0004578792,-1.385152,3.079055,0.01841309,-0.001212651,-0.005269722,0.01661281,-0.3133614,2.465504,-2.913385
90,0.977779,484,194,477,495,0.1066416,0.005803284,0.002656655,-1.386216,3.078993,0.01842428,0.001990116,-0.008014403,0.02286668,-0.3128543,2.464419,-2.912442
90,0.9888902,484,194,477,495,0.09262608,0.006219955,-0.003394281,-1.386769,3.078657,0.01851163,0.007204927,-0.006337874,0.007671954,-0.3132735,2.464264,-2.912446
90,1.000001,484,194,477,495,0.06191935,0.01106027,-0.007497368,-1.386615,3.078478,0.01864266,0.007394117,-0.002428902,2.830639E-05,-0.3135664,2.464376,-2.912647
90,1.011112,484,194,477,495,0.03750888,0.01036015,-0.01574115,-1.38649,3.078157,0.01867408,0.007230114,0.0005168822,-0.004407959,-0.31373,2.464981,-2.913351
90,1.022224,469,184,484,491,0.02849904,0.0006851405,-0.02471685,-1.38643,3.077674,0.01841949,0.01520994,0.007860906,0.004004644,-0.3135393,2.465243,-2.914111
90,1.033335,469,184,484,491,0.02513333,-0.004064254,-0.02952243,-1.386678,3.07721,0.01818406,0.01511635,0.005341465,0.01384526,-0.3132,2.464636,-2.913773
90,1.044446,469,184,484,491,0.01804953,-0.004826488,-0.02664507,-1.386719,3.077052,0.01812547,0.01991289,-0.004861569,0.03144068,-0.3126279,2.46235,-2.912045
90,1.055557,469,184,484,491,0.01519036,-0.006605633,-0.02311488,-1.386861,3.076869,0.01805943,0.01771959,0.00245819,0.03306244,-0.3122407,2.462536,-2.912458
90,1.066668,489,185,481,494,-0.002140179,-0.007097743,-0.01780267,-1.386478,3.077007,0.01787194,0.008034143,0.008180337,0.02418286,-0.3121465,2.463503,-2.913306
90,1.077779,489,185,481,494,-0.005833005,-0.01413308,-0.01536165,-1.386304,3.076915,0.01750602,0.003647378,0.002427483,0.01771341,-0.3121305,2.4632,-2.912876
90,1.08889,489,185,481,494,-0.005044607,-0.0179443,-0.02468625,-1.386299,3.07647,0.01717632,0.0001052222,-0.003071366,0.02238492,-0.3117901,2.462381,-2.912039
90,1.100002,489,185,481,494,-0.01864477,-0.01712552,-0.03275322,-1.385678,3.076024,0.01701227,-0.003850276,-0.003108211,0.049898,-0.3104969,2.461145,-2.911018
90,1.111113,489,185,481,494,-0.02117573,-0.01644368,-0.03092868,-1.385426,3.075989,0.01683011,-0.005090579,0.006158491,0.04407914,-0.3101081,2.461728,-2.911576
90,1.122224,521,206,494,492,-0.03174101,-0.01863312,-0.02682236,-1.384748,3.075976,0.01655048,-0.005435452,0.01121354,0.02646399,-0.3101832,2.462781,-2.912598
90,1.133335,521,206,494,492,-0.0298669,-0.01865065,-0.01984384,-1.384523,3.076159,0.01633583,-0.003464973,0.008363293,0.01272383,-0.3103222,2.463047,-2.912746
90,1.144446,521,206,494,492,-0.01926305,-0.01733814,-0.01861319,-1.384533,3.076056,0.01619522,-0.007498153,-0.005227202,0.01843397,-0.3100713,2.461839,-2.911389
90,1.155557,521,206,494,492,-0.01521172,-0.01415693,-0.0172508,-1.384414,3.075927,0.01610946,-0.007865028,-0.01151281,0.02604739,-0.3096351,2.460726,-2.910273
90,1.166668,486,216,509,500,-0.01474111,-0.01032364,-0.01426963,-1.384294,3.075907,0.01598855,-0.007854249,-0.002976465,0.03146183,-0.30912,2.461035,-2.910691
90,1.17778,486,216,509,500,-0.01082599,-0.009295251,-0.00670217,-1.384234,3.076002,0.01581918,-0.01089574,0.003704772,0.01758341,-0.3092047,2.462193,-2.911682
90,1.188891,486,216,509,500,-0.01259243,-0.01214256,-0.003148808,-1.384122,3.07618,0.01550759,-0.01151063,0.01157301,0.006446336,-0.3093144,2.463665,-2.913011
90,1.200002,486,216,509,500,0.008457509,-0.01076303,0.0001419166,-1.384681,3.076103,0.0153691,-0.00226715,0.009054802,-0.008883884,-0.309846,2.464139,-2.913514
90,1.211113,486,216,509,500,0.01887228,-0.009649328,0.002372571,-1.385245,3.076089,0.01512782,0.003418114,0.002306409,-0.006414108,-0.3098151,2.463575,-2.913209
90,1.222224,434,203,519,504,0.03635875,-0.007749347,0.00169755,-1.386123,3.075942,0.01509213,0.002728591,-0.0004695929,-0.008745241,-0.310001,2.46343,-2.913031
90,1.233335,434,203,519,504,0.04062309,-0.004255719,0.007526993,-1.386742,3.076039,0.01500638,-0.007533555,0.004329925,-0.01337039,-0.3101874,2.464491,-2.91378
90,1.244446,434,203,519,504,0.04417459,-0.003725052,0.01158585,-1.387398,3.076249,0.01491956,-0.0146504,0.01029161,-0.0183678,-0.3102993,2.466438,-2.915302
90,1.255558,434,203,519,504,0.04878065,-0.00876763,0.0104311,-1.388123,3.076159,0.01460264,-0.01444374,0.01308114,-0.01397187,-0.3103424,2.467219,-2.915981
90,1.266669,467,223,501,495,0.05716412,-0.008712482,0.01199666,-1.389073,3.076256,0.01443913,-0.007323125,0.007117555,-0.008975356,-0.3103637,2.466614,-2.915493
90,1.27778,467,223,501,495,0.06496004,-0.004965941,0.01079647,-1.389995,3.076238,0.01456003,-0.003925826,0.008280906,-0.01038208,-0.3105715,2.467364,-2.916403
90,1.288891,467,223,501,495,0.06851696,0.006434301,0.01449824,-1.39096,3.076252,0.01488387,-0.003722766,0.005620463,-0.02675189,-0.3113757,2.468085,-2.916946
90,1.300002,467,223,501,495,0.065953,0.01359751,0.0163086,-1.391656,3.076303,0.01523062,-0.01332126,0.008986156,-0.03672029,-0.3118444,2.469703,-2.918048
90,1.311113,467,223,501,495,0.05826589,0.007767542,0.01711134,-1.392297,3.076505,0.0151683,-0.01706088,0.01693458,-0.03439903,-0.3120756,2.471384,-2.919539
90,1.322224,420,205,506,498,0.05216321,-0.001908304,0.01536939,-1.39274,3.076607,0.014886,-0.01033168,0.005810191,-0.03382732,-0.3124623,2.471102,-2.919191
90,1.333336,420,205,506,498,0.04617272,-0.009312328,0.01295058,-1.393149,3.076731,0.01453021,-0.006257982,8.633826E-05,-0.02625345,-0.3126429,2.47062,-2.918738
90,1.344447,420,205,506,498,0.04854452,-0.00579614,0.01176685,-1.393835,3.076771,0.01450144,0.0001036962,0.0007352775,-0.0094117,-0.3123835,2.470079,-2.918473
90,1.355558,420,205,506,498,0.04346493,-0.004597814,0.009920489,-1.394217,3.076836,0.01461436,0.002110037,0.004881112,-0.01006135,-0.3125885,2.470944,-2.919425
90,1.366669,420,205,506,498,0.03906416,-0.00251754,0.01603273,-1.39461,3.077209,0.01458081,-0.004394351,0.005633028,-0.02366839,-0.3130887,2.472018,-2.92013
90,1.37778,359,209,484,493,0.03770394,0.01132328,0.01700949,-1.395077,3.077313,0.01507722,-0.007133141,0.0131384,-0.0298607,-0.3134738,2.473927,-2.921864
90,1.388891,359,209,484,493,0.03328943,0.0121734,0.01741886,-1.395372,3.077415,0.01520026,-0.005580185,0.01687456,-0.03280663,-0.3138157,2.475179,-2.923051
90,1.400002,359,209,484,493,0.03309154,0.01075638,0.01273309,-1.395751,3.07729,0.01525033,-0.007706044,0.01370799,-0.03330594,-0.3141412,2.475736,-2.92335
90,1.411114,359,209,484,493,0.03351583,0.004626208,0.01067699,-1.396077,3.077362,0.01517096,-0.006923097,0.007800736,-0.02650464,-0.314212,2.475584,-2.923094
90,1.422225,359,209,484,493,0.04177037,0.001162027,0.007198172,-1.396742,3.077262,0.01508308,-0.01096484,0.001890438,-0.02415525,-0.3143633,2.475636,-2.922859
90,1.433336,385,221,501,493,0.03747628,0.00428614,0.006912366,-1.397178,3.077259,0.01521943,-0.007569761,-0.004371535,-0.007952605,-0.3141353,2.474691,-2.921852
90,1.444447,385,221,501,493,0.03072548,0.008308392,0.01401667,-1.397453,3.077585,0.01536537,-0.003951806,-0.004753275,-0.002696888,-0.3140591,2.474334,-2.921561
90,1.455558,385,221,501,493,0.0277449,0.009509916,0.01255264,-1.397796,3.077534,0.01545273,-0.0008513629,-0.0115561,-0.01396247,-0.3145966,2.473938,-2.920938
90,1.466669,385,221,501,493,0.02201823,0.0122861,0.01415265,-1.397976,3.077681,0.01559387,-0.003440952,-0.005469853,-0.02339398,-0.3150008,2.474868,-2.921633
90,1.47778,412,267,516,497,0.01848749,0.01377389,0.003875208,-1.398112,3.077406,0.01572543,-0.001649034,0.0005000234,-0.01642561,-0.3149832,2.475441,-2.922261
90,1.488891,412,267,516,497,0.01740404,0.01481629,0.003841606,-1.39831,3.077401,0.01588043,0.0003419118,-0.003046465,-0.01372978,-0.3150493,2.475318,-2.922173
90,1.500003,412,267,516,497,0.0190971,0.01322721,0.0005884715,-1.398546,3.077206,0.01596618,-0.001477975,-0.006357666,-0.005387559,-0.3150344,2.474827,-2.921569
90,1.511114,412,267,516,497,0.01154289,0.01405267,0.0004380064,-1.398609,3.077196,0.01606312,0.002884885,-0.01444818,9.806082E-05,-0.3150046,2.47362,-2.920372
90,1.522225,412,267,516,497,0.005434079,0.01649652,0.004106444,-1.398546,3.077324,0.01629002,0.005892023,-0.0122878,-0.001382758,-0.3150685,2.47314,-2.920066
90,1.533336,412,222,495,495,-0.003209306,0.0183726,0.003923116,-1.398358,3.077344,0.01652758,0.0004321244,-0.007810846,-0.01586796,-0.3154599,2.474006,-2.920555
90,1.544447,412,222,495,495,-0.004274508,0.01709186,-0.001962684,-1.398337,3.077214,0.0166341,0.002098547,-0.01275159,-0.01433809,-0.3156368,2.473326,-2.919841
90,1.555558,412,222,495,495,-0.004481068,0.02108362,-0.006851182,-1.398256,3.076867,0.01702559,0.007033174,-0.007555619,-0.004419345,-0.3155175,2.473191,-2.919977
90,1.566669,412,222,495,495,0.0006274413,0.02299984,-0.01109245,-1.398377,3.076551,0.01730469,0.01377101,-0.004789475,-0.002812674,-0.3156117,2.472883,-2.920014
90,1.577781,515,241,500,492,0.00323658,0.01604036,-0.007358178,-1.398523,3.07652,0.01730682,0.01356649,-0.007161058,-0.002851019,-0.3157923,2.4725,-2.91952
90,1.588892,515,241,500,492,0.007982148,0.01346514,-0.003612077,-1.39881,3.076598,0.01731641,0.008927736,-0.004108304,0.01134716,-0.3152373,2.472177,-2.919293
90,1.600003,515,241,500,492,0.01085717,0.01000052,-0.001457955,-1.398983,3.076553,0.01741068,0.004664327,-0.004284909,0.01470547,-0.3149667,2.471596,-2.918655
90,1.611114,515,241,500,492,0.006446622,0.01085898,-0.001040243,-1.399033,3.076438,0.01764557,0.006111111,-0.01117708,0.0205622,-0.3148469,2.470147,-2.917292
90,1.622225,515,241,500,492,0.003971044,0.0105107,0.0006414221,-1.399015,3.076461,0.01773079,0.00754313,-0.01457008,0.01544771,-0.3149167,2.469302,-2.916522
90,1.633336,482,204,481,503,0.005525909,-5.911198E-05,-0.007357619,-1.399076,3.076181,0.01749697,0.001850847,-0.0197453,0.008647321,-0.3150157,2.468467,-2.915366
90,1.644447,482,204,481,503,-0.007402544,0.002617582,-0.01369087,-1.39887,3.076044,0.01763119,-0.001051153,-0.01630938,0.01997774,-0.3145076,2.467763,-2.91469
90,1.655559,482,204,481,503,-0.01099386,0.004372095,-0.01187959,-1.398392,3.075932,0.01778566,-0.001318421,-0.01433958,0.01770939,-0.3144203,2.467538,-2.914559
90,1.66667,482,204,481,503,-0.01704318,0.00344466,-0.01424643,-1.398083,3.075813,0.01775796,0.0009356812,-0.007546455,-0.003701095,-0.3150115,2.46851,-2.915452
90,1.677781,441,194,478,495,-0.02011007,0.001327192,-0.01516058,-1.397667,3.075785,0.01777926,0.008250717,-0.007591956,-0.009618334,-0.3153406,2.46822,-2.915343
90,1.688892,441,194,478,495,-0.01246091,-0.0003414787,-0.009617908,-1.397813,3.07588,0.0176722,0.008010668,-0.001847176,-0.008617077,-0.3154003,2.468714,-2.91593
90,1.700003,441,194,478,495,-0.003195288,-0.001490293,-0.006987117,-1.398002,3.075886,0.01770416,-0.001222561,7.530418E-05,0.01216606,-0.3145891,2.468496,-2.915682
90,1.711114,441,194,478,495,0.008052949,0.0005265065,-0.003476438,-1.39835,3.075963,0.01777447,-0.006880745,0.001763104,0.02833194,-0.3138077,2.468045,-2.915225
90,1.722225,441,194,478,495,0.01833488,0.0004314806,-0.0005044674,-1.398854,3.075951,0.01776754,-0.00400717,-0.001252452,0.02136927,-0.3137747,2.467683,-2.914878
90,1.733337,393,217,503,494,0.02280964,-0.0002010807,0.004594293,-1.399204,3.076059,0.01771908,0.000823763,0.001835603,0.01044992,-0.314049,2.46805,-2.915389
90,1.744448,393,217,503,494,0.03052483,-0.005246284,0.004084921,-1.399791,3.076057,0.01751028,0.004354881,0.01083532,-0.005190732,-0.3144863,2.469529,-2.916957
90,1.755559,393,217,503,494,0.0285756,-0.004039807,0.002823716,-1.39996,3.07602,0.01755023,0.005175494,0.0003217799,-0.01039933,-0.3146892,2.469065,-2.916368
90,1.76667,393,217,503,494,0.02342319,-0.008518536,-0.004325159,-1.400068,3.07582,0.01729244,0.009232298,-0.007616617,-0.01376001,-0.3150631,2.468236,-2.915612
90,1.777781,393,217,503,494,0.01320524,-0.005102363,-0.007827501,-1.399789,3.075705,0.01732653,-0.001509364,-0.009437955,0.009969713,-0.31427,2.467066,-2.914347
90,1.788892,468,219,489,495,0.008265151,-0.00812519,-0.01031058,-1.399745,3.075665,0.01718644,-0.00102207,-0.004830285,0.0199089,-0.3137811,2.466908,-2.914292
90,1.800003,468,219,489,495,0.001260357,-0.009885087,-0.007491494,-1.399573,3.075691,0.01703571,-0.004867341,0.00086297,0.01129365,-0.3138472,2.467519,-2.914758
90,1.811115,468,219,489,495,-0.001574874,-0.007467871,-0.009814399,-1.399541,3.075508,0.01705968,-0.004778411,0.003794952,0.005821633,-0.3139047,2.467826,-2.915113
90,1.822226,468,219,489,495,0.0004784055,-0.01182673,-0.009047227,-1.399591,3.07545,0.01681626,0.0008898287,-0.002089343,0.0170588,-0.3135638,2.466689,-2.914224
90,1.833337,471,222,465,496,0.002894993,-0.01352548,-0.004491332,-1.399612,3.075602,0.01659948,0.004124296,0.006641783,0.02324502,-0.3130956,2.467196,-2.915144
90,1.844448,471,222,465,496,0.002403766,-0.01613075,-0.001716739,-1.399638,3.075694,0.01634435,0.003553024,0.01253224,0.0154107,-0.3130727,2.468065,-2.916097
90,1.855559,471,222,465,496,0.01052224,-0.01413719,0.001179878,-1.399992,3.075735,0.01623037,-0.002892112,0.01620526,-0.003663879,-0.3135276,2.46963,-2.917346
90,1.86667,471,222,465,496,0.01097485,-0.01590898,-0.001220675,-1.400163,3.075722,0.01594701,-0.003044972,0.0176095,-0.000423748,-0.3133928,2.47027,-2.918019
90,1.877781,471,222,465,496,0.01920403,-0.01706921,0.001169259,-1.400518,3.075741,0.01573502,-0.01110422,0.01965836,0.005306424,-0.3130066,2.471335,-2.918875
90,1.888893,516,195,510,497,0.02935401,-0.01838583,0.004960245,-1.401165,3.075851,0.0154458,-0.02018594,0.01642367,0.01959977,-0.3122471,2.471492,-2.918746
90,1.900004,516,195,510,497,0.04321727,-0.01684642,0.01204143,-1.401923,3.075989,0.015245,-0.01733305,0.02040563,0.02572822,-0.3117635,2.472189,-2.919622
90,1.911115,516,195,510,497,0.04979821,-0.01640396,0.01763274,-1.402712,3.076312,0.0150426,-0.01530481,0.009435306,0.01094098,-0.3121337,2.472075,-2.919276
90,1.922226,516,195,510,497,0.0485384,-0.01552097,0.01861479,-1.403204,3.076443,0.01489719,-0.008298411,0.005595321,0.002774655,-0.3123457,2.471999,-2.919236
90,1.933337,554,189,481,497,0.04674121,-0.01309883,0.0164733,-1.403649,3.07653,0.01478694,-0.005638398,0.0160219,-0.00651258,-0.3124383,2.473803,-2.920959
90,1.944448,554,189,481,497,0.03980558,-0.0138725,0.01292048,-1.403896,3.076569,0.01459732,-0.006649824,0.01535959,-0.02099667,-0.3129784,2.475005,-2.921936
90,1.955559,554,189,481,497,0.03402289,-0.01779822,0.009068805,-1.404081,3.076599,0.01423832,-0.006721321,0.01200931,-0.01990027,-0.3130647,2.475663,-2.922448
90,1.966671,554,189,481,497,0.02433527,-0.0193185,0.002739974,-1.404136,3.076564,0.01392407,-0.009290966,0.007175856,-0.0007614113,-0.3125012,2.47514,-2.921883
90,1.977782,554,189,481,497,0.01727752,-0.02235452,-8.243159E-05,-1.404106,3.076553,0.0136732,-0.008890308,0.008840188,0.01466395,-0.3118024,2.475377,-2.922236
90,1.988893,529,193,500,505,0.01156485,-0.02499102,0.001774678,-1.404165,3.076721,0.01335682,-0.01215736,0.01677641,0.01493025,-0.311519,2.476469,-2.923244
90,2.000004,529,193,500,505,0.01240375,-0.02613782,0.009390183,-1.404365,3.077049,0.01303564,-0.01000071,0.01490894,-0.0009777234,-0.3118626,2.477382,-2.924015
90,2.011115,529,193,500,505,0.005777121,-0.02552927,0.003947794,-1.404197,3.077,0.01273524,-0.004739626,0.01503976,-0.00848252,-0.3121054,2.477956,-2.924694
90,2.022226,529,193,500,505,0.008855654,-0.02340324,0.004819767,-1.40439,3.077065,0.01253923,-0.002400005,0.01441328,-0.01230157,-0.3123195,2.478593,-2.925331
90,2.033337,469,189,489,499,0.0145794,-0.02076762,0.002941672,-1.404782,3.076961,0.01232404,-0.006707026,0.01860486,-0.01117289,-0.3122801,2.479861,-2.926457
90,2.044448,469,189,489,499,0.02048942,-0.02000777,0.006262041,-1.405229,3.077096,0.01205453,-0.01495969,0.02249011,0.002160899,-0.3117352,2.48094,-2.927341
90,2.055559,469,189,489,499,0.03225061,-0.02080999,0.007044872,-1.405856,3.07718,0.01184254,-0.009858455,0.01392723,0.000153014,-0.311772,2.48045,-2.926811
90,2.06667,469,189,489,499,0.03939536,-0.01987388,0.009483645,-1.40651,3.077288,0.01161671,-0.00831956,0.009545842,-0.003834913,-0.3118919,2.480619,-2.926899
90,2.077781,469,189,489,499,0.05186932,-0.01557449,0.01224538,-1.40749,3.077308,0.01157463,-0.01018419,0.007928133,-0.01304879,-0.3123046,2.481102,-2.927093
90,2.088892,448,199,508,497,0.05198582,-0.007881738,0.01127011,-1.408086,3.077309,0.01160712,-0.01090147,0.007528281,-0.01431458,-0.3123638,2.481549,-2.927311
90,2.100003,448,199,508,497,0.04408072,-0.001940507,0.01305116,-1.408406,3.077426,0.01172217,-0.009049054,0.002984941,-0.009456353,-0.312344,2.48128,-2.926991
90,2.111114,448,199,508,497,0.03786372,0.006764686,0.01116963,-1.40877,3.077293,0.01199701,-0.0009511057,0.007082396,-0.01082033,-0.3124959,2.481961,-2.927976
90,2.122225,448,199,508,497,0.03135195,0.002186001,0.01153531,-1.40894,3.077422,0.01189155,-0.00329721,0.01360275,-0.016909,-0.3127313,2.483365,-2.929263
90,2.133336,448,199,508,497,0.02385423,-0.008972162,0.005230657,-1.409057,3.077314,0.01136957,-0.001246567,0.00920832,-0.02297056,-0.313192,2.483943,-2.929639
90,2.144447,475,197,489,494,0.03110952,-0.01119324,0.007168069,-1.40964,3.077394,0.01113787,0.004460515,0.008449215,-0.006235015,-0.3128948,2.483597,-2.929607
90,2.155558,475,197,489,494,0.03519445,-0.007039742,0.001922553,-1.410053,3.07705,0.01123534,0.004053643,0.007892763,0.001347083,-0.3126194,2.483652,-2.929867
90,2.166669,475,197,489,494,0.03642552,-0.001449368,0.0007917513,-1.410475,3.076814,0.01132962,0.001361748,0.0009803019,-0.0003588081,-0.3126871,2.483268,-2.929251
90,2.17778,475,197,489,494,0.02858762,-0.003036222,0.002517875,-1.410598,3.076905,0.01125186,-0.003126779,0.008276902,-0.01354929,-0.313069,2.48466,-2.930416
90,2.188891,436,188,500,497,0.02184006,-0.0002444142,0.004017863,-1.410702,3.076976,0.0112966,-0.003580372,0.01180211,-0.02245376,-0.3134157,2.485749,-2.931372
90,2.200002,436,188,500,497,0.008355064,-0.0001755022,0.0007008757,-1.41046,3.076848,0.01130885,-0.003063107,0.01990511,-0.02347499,-0.3135723,2.487169,-2.9328
90,2.211113,436,188,500,497,0.004321189,-0.005466767,-0.0008028073,-1.410409,3.076671,0.01114107,-0.002277937,0.009651736,-0.01445444,-0.3135931,2.486873,-2.932456
90,2.222224,436,188,500,497,0.01310395,-0.006140759,-0.001641848,-1.410788,3.076581,0.01104573,-0.0004870162,0.001593578,0.001381216,-0.3132213,2.485808,-2.931508
90,2.233335,436,188,500,497,0.01829037,-0.00399467,-0.0004571232,-1.411144,3.076525,0.01115012,0.006212198,-0.003375586,0.006326618,-0.3131185,2.485184,-2.931071
90,2.244446,355,217,549,502,0.02676408,-0.006045446,0.0006079765,-1.411673,3.076499,0.01101909,0.006604157,-0.0006915797,-0.01442169,-0.3138141,2.486029,-2.931811
90,2.255557,355,217,549,502,0.03145125,0.001037654,0.004634298,-1.412186,3.076455,0.01118048,0.006839372,-0.0005411152,-0.02532595,-0.3143164,2.486454,-2.932187
90,2.266668,355,217,549,502,0.03358858,-1.749257E-06,0.004808866,-1.412627,3.076445,0.01115119,0.009143907,-0.002710638,-0.02145969,-0.3144597,2.486228,-2.932083
90,2.277779,355,217,549,502,0.0362021,0.0004842,0.002010518,-1.413077,3.076192,0.01112083,0.005644023,-0.005006379,-0.008041992,-0.3141177,2.485538,-2.931445
90,2.28889,465,204,454,488,0.04460832,0.005854959,-0.003455922,-1.413653,3.075881,0.01142709,0.008140954,-0.002585356,0.006804953,-0.3136996,2.485123,-2.931298
90,2.300001,465,204,454,488,0.04386819,0.007327197,0.0009923643,-1.414133,3.075931,0.01153841,0.003567977,0.009720575,0.01000911,-0.3133827,2.486299,-2.932593
90,2.311112,465,204,454,488,0.0334698,0.01494537,-0.001717662,-1.414231,3.075838,0.0119512,-0.0008088034,0.01618912,-0.01193384,-0.3139878,2.488059,-2.934096
90,2.322223,465,204,454,488,0.02898303,0.00707067,-0.0003693248,-1.414428,3.075868,0.0118239,0.008006539,0.01453009,-0.01634086,-0.3143223,2.488298,-2.934621
90,2.333334,465,204,454,488,0.03063369,0.004381632,-0.003794139,-1.41478,3.075662,0.01176585,0.02394307,0.004541481,-0.01676138,-0.3147697,2.486784,-2.933697
90,2.344445,413,198,502,502,0.03584586,0.005338903,-0.009368813,-1.415276,3.07532,0.01184681,0.02387246,-0.00888478,-0.01341663,-0.3150014,2.485267,-2.932309
90,2.355556,413,198,502,502,0.03714134,0.008799853,-0.01084367,-1.415805,3.075067,0.01194002,0.01400542,-0.01884301,0.005055505,-0.314449,2.483424,-2.930397
90,2.366668,413,198,502,502,0.03415612,0.008924951,-0.01239865,-1.416147,3.074962,0.01203216,0.01244206,-0.01446538,0.009031815,-0.314294,2.483114,-2.930233
90,2.377779,413,198,502,502,0.02379359,0.01019474,-0.008420985,-1.416156,3.074939,0.01216638,0.008117351,-0.0102807,0.01014511,-0.3141539,2.483103,-2.930284
90,2.38889,413,198,502,502,0.01137901,0.00921095,-0.01164776,-1.416006,3.074789,0.01225587,0.009891395,-0.01228019,0.00619569,-0.3144085,2.482634,-2.929943
90,2.400001,379,198,506,500,-0.003671845,0.008806533,-0.01195106,-1.415555,3.074709,0.01236186,0.01282814,-0.009554837,-0.0007774921,-0.3146562,2.482474,-2.929956
90,2.411112,379,198,506,500,-0.0104462,0.01254215,-0.01685644,-1.415269,3.074455,0.01265108,0.01447615,-0.01449597,0.0007466674,-0.3147143,2.481473,-2.929103
90,2.422223,379,198,506,500,-0.02236917,0.01321375,-0.01652248,-1.414671,3.074339,0.01280874,0.01782886,-0.01488146,0.007039195,-0.3146173,2.480166,-2.928051
90,2.433334,379,198,506,500,-0.02951224,0.01226921,-0.01892052,-1.414246,3.074307,0.01289556,0.01387676,-0.00972887,0.004945769,-0.3147047,2.480307,-2.928239
90,2.444445,327,196,490,492,-0.03265459,0.01225225,-0.01945514,-1.413777,3.074142,0.01303671,0.01093209,-0.004601212,-0.001280177,-0.3148655,2.48081,-2.928758
90,2.455556,327,196,490,492,-0.02350377,0.01095101,-0.01597481,-1.413768,3.073936,0.01312992,0.01438278,-0.0117012,0.006175364,-0.314742,2.479388,-2.927469
90,2.466667,327,196,490,492,-0.01699269,0.01009503,-0.01612782,-1.413744,3.073739,0.01321407,0.0124549,-0.01026109,0.01665297,-0.3143515,2.478603,-2.926872
90,2.477778,327,196,490,492,-0.002388602,0.008054425,-0.006397772,-1.414219,3.073842,0.01323591,0.008854613,-0.009611156,0.02563216,-0.3138828,2.478178,-2.926483
90,2.488889,327,196,490,492,0.002400153,0.01199193,-0.00284501,-1.41441,3.073891,0.01345962,0.008703628,-0.002735648,0.0145968,-0.3139899,2.478638,-2.927019
90,2.5,450,188,489,498,6.873906E-05,0.01393398,-0.001845921,-1.414413,3.07393,0.01372646,0.01011094,-0.0002364656,-0.0004158169,-0.3143734,2.479383,-2.92785
90,2.511111,450,188,489,498,2.84519E-05,0.009561501,-0.001409686,-1.414436,3.073951,0.01366575,0.01073175,0.002693035,-0.007951861,-0.3146152,2.479806,-2.928302
90,2.522222,450,188,489,498,0.002738606,0.006877203,-0.00463842,-1.414547,3.073792,0.0136716,0.01846102,-0.004241945,-0.003840461,-0.3147548,2.478592,-2.927475
90,2.533333,450,188,489,498,0.00644016,0.006305855,-0.007394451,-1.414771,3.073578,0.01372593,0.01479307,-0.008912211,0.00954042,-0.3142743,2.477242,-2.92633
90,2.544444,504,194,482,497,0.01027353,0.007075625,-0.004471098,-1.415035,3.073609,0.01380157,0.008418776,-0.01615432,0.01899101,-0.3139047,2.475823,-2.924896
90,2.555555,504,194,482,497,0.008536034,0.006459752,-0.0004803623,-1.414992,3.073724,0.01396082,0.008845538,-0.007905941,0.008082352,-0.3141955,2.476026,-2.925172
90,2.566666,504,194,482,497,0.006510003,0.009759638,-0.001415698,-1.415005,3.073664,0.01412913,0.01051904,-0.009340492,-0.00136653,-0.3145412,2.475834,-2.925024
90,2.577777,504,194,482,497,0.004675288,0.006737105,-0.003256728,-1.415007,3.073532,0.01412115,0.01279214,-0.007426948,-0.01397885,-0.3151761,2.475872,-2.925342
90,2.588888,504,194,482,497,0.0006248538,0.001442935,-0.004693761,-1.414825,3.0736,0.01404551,0.004287415,-0.008176568,-0.01165269,-0.3152139,2.475846,-2.925111
90,2.599999,424,169,513,498,0.004491735,0.00102452,-0.008485451,-1.414945,3.073381,0.01405084,0.005590796,-0.01381327,0.007320413,-0.314832,2.474362,-2.923985
90,2.61111,424,169,513,498,0.003638957,0.0001174761,-0.009838324,-1.414906,3.073402,0.01404338,0.007220532,-0.006447406,0.01752826,-0.314473,2.474053,-2.924103
90,2.622221,424,169,513,498,0.007699719,-0.0009239304,-0.00169142,-1.415118,3.07357,0.01399385,0.004390786,-0.002309047,0.01243595,-0.3144362,2.474288,-2.924353
90,2.633332,424,169,513,498,0.01033537,-0.001365059,0.001952215,-1.41525,3.073758,0.01395496,0.006245342,0.002549286,-0.003581844,-0.3149135,2.475063,-2.925168
90,2.644443,501,172,502,494,0.01877221,-0.007789421,0.003465653,-1.415748,3.073857,0.01366415,0.006863217,0.005476214,-0.01112089,-0.3152352,2.475691,-2.925823
90,2.655554,501,172,502,494,0.02314151,-0.007605616,0.003109149,-1.416026,3.073857,0.0136258,0.005333528,-0.0002225186,-0.004881078,-0.3151675,2.475106,-2.925237
90,2.666665,501,172,502,494,0.02870547,-0.006205611,0.002029379,-1.416469,3.073789,0.01368652,0.004835526,-0.009872783,0.003823578,-0.3149641,2.473252,-2.923447
90,2.677776,501,172,502,494,0.03257618,-0.001208656,-0.002072596,-1.416911,3.073569,0.01380157,0.001852898,-0.004060786,0.01621871,-0.3143904,2.473298,-2.923563
90,2.688887,501,172,502,494,0.0289896,0.0016267,-6.468315E-05,-1.417086,3.073552,0.01386016,-0.00564015,0.002866509,0.01108017,-0.3142812,2.474201,-2.924252
90,2.699998,451,181,535,500,0.01320616,-0.003901426,-0.002330891,-1.41681,3.073517,0.01368385,-0.0009204969,0.01701753,-0.003210265,-0.3145875,2.476178,-2.926359
90,2.711109,451,181,535,500,0.008264383,-0.002429455,0.001446934,-1.416812,3.073617,0.01370409,-0.0005690213,0.01421648,-0.009685965,-0.3148645,2.4766,-2.926872
90,2.72222,451,181,535,500,0.0007855054,-0.01016087,0.001277166,-1.416564,3.073641,0.01341807,-0.001836301,0.004585874,0.002124768,-0.3146392,2.475729,-2.92597
90,2.733331,451,181,535,500,-0.0005141138,-0.008353138,-0.004121926,-1.41642,3.073424,0.01344577,0.0001210319,0.00171333,0.0234376,-0.3139175,2.474911,-2.925239
90,2.744442,451,181,535,500,-0.002585412,-0.009420566,-0.004616064,-1.416329,3.073388,0.01330089,-0.008402145,0.001392563,0.0301492,-0.3133411,2.474769,-2.924953
90,2.755553,440,180,500,502,0.002840365,-0.009236113,-0.004806501,-1.416548,3.073267,0.01315229,-0.01101594,-0.001754696,0.0317324,-0.3130093,2.47414,-2.92421
90,2.766664,440,180,500,502,0.004275959,-0.009834266,-0.0003026065,-1.416714,3.073403,0.01303511,-0.01112301,0.004283872,0.01194341,-0.3133124,2.47527,-2.925155
90,2.777775,440,180,500,502,-0.001285257,-0.01123,0.0007734559,-1.416553,3.073502,0.01288118,-0.007488924,-0.00491737,-0.002464033,-0.3137678,2.47459,-2.924216
90,2.788886,440,180,500,502,-0.01273043,-0.01552338,-0.001713684,-1.416036,3.073561,0.01262125,0.00019556,-0.007523173,-0.0005979498,-0.3138109,2.473637,-2.923458
90,2.799997,408,196,544,506,-0.01843018,-0.01283975,-0.006615192,-1.415616,3.073385,0.01255521,-0.001726673,-0.004115268,0.006588669,-0.3135372,2.473644,-2.923479
90,2.811108,408,196,544,506,-0.0243671,-0.01362482,-0.00988959,-1.415173,3.073285,0.01235334,-0.008813534,0.004054906,0.01250979,-0.313094,2.47405,-2.923697
90,2.822219,408,196,544,506,-0.02812907,-0.01637354,-0.006561327,-1.414769,3.073417,0.01209128,-0.01385938,0.006299594,0.02005214,-0.3125965,2.474291,-2.923811
90,2.83333,408,196,544,506,-0.02174107,-0.01288949,0.0004526579,-1.414726,3.073671,0.0120311,-0.01869874,0.004765883,0.02328642,-0.3122317,2.474367,-2.923663
90,2.844441,408,196,544,506,-0.01488704,-0.01330977,0.004771982,-1.414599,3.073823,0.01183722,-0.01231871,0.008492608,0.0247932,-0.3118881,2.474559,-2.924011
90,2.855552,505,193,521,508,-0.005486472,-0.01114031,0.006620421,-1.414887,3.073902,0.01174614,-0.004310234,0.004621302,0.01249533,-0.3121465,2.474247,-2.923864
90,2.866663,505,193,521,508,-0.001405269,-0.006899615,0.007918992,-1.41502,3.074023,0.01172377,-0.0001001633,0.006477408,-0.008418132,-0.3127883,2.475188,-2.924754
90,2.877774,505,193,521,508,-0.001206922,-0.007801454,0.006715199,-1.414973,3.073984,0.0115464,-0.002873312,0.00824481,-0.01457898,-0.3130354,2.476043,-2.925469
90,2.888885,505,193,521,508,0.005410043,-0.006394116,0.005813543,-1.415261,3.074017,0.01147343,-0.007586504,0.009911634,-0.002570515,-0.3126359,2.476133,-2.925447
90,2.899997,485,220,483,498,0.007713514,-0.007275914,0.004959027,-1.415392,3.07403,0.01139141,-0.004891329,0.006747311,0.001384444,-0.3125252,2.475985,-2.925347
90,2.911108,485,220,483,498,0.01702898,-0.001938685,0.00725056,-1.415923,3.074082,0.0115187,-0.004148005,0.008693226,-0.005023118,-0.3126956,2.476623,-2.926013
90,2.922219,485,220,483,498,0.01962323,-0.0002733348,0.01118053,-1.416232,3.074252,0.01153841,-0.002862206,0.008249034,-0.01457738,-0.3130365,2.477479,-2.926787
90,2.93333,485,220,483,498,0.02218995,0.001255124,0.008537328,-1.416421,3.074154,0.01149101,-0.002186989,0.004869445,-0.01658394,-0.3132165,2.477397,-2.926697
90,2.944441,485,220,483,498,0.02064252,0.0007845787,0.0114861,-1.416674,3.074355,0.01147023,-0.004573608,0.003684518,-0.01934931,-0.313461,2.477959,-2.92706
90,2.955552,364,223,479,491,0.0210476,0.004407863,0.008809464,-1.416907,3.074284,0.01155013,-0.007065549,0.001781718,-0.005694491,-0.3132538,2.477622,-2.92673
90,2.966663,364,223,479,491,0.01562371,0.0042188,0.009007924,-1.416958,3.074399,0.0115741,-0.004753287,-0.0003885333,-0.00183551,-0.3132011,2.477455,-2.926567
90,2.977774,364,223,479,491,0.01440865,0.00405776,0.009871631,-1.417129,3.074446,0.01157942,-0.009239232,0.005201494,0.002530679,-0.3129252,2.478304,-2.927253
90,2.988885,364,223,479,491,0.01289229,0.002536637,0.01267272,-1.417271,3.07464,0.01156877,-0.006142821,0.01070982,-4.251301E-05,-0.3129252,2.479086,-2.92811
90,2.999996,364,214,489,498,0.01798834,-0.003005432,0.01482816,-1.41764,3.074765,0.01135519,-0.002548045,0.01201802,-0.01233431,-0.3133172,2.479968,-2.928988
90,3.011107,364,214,489,498,0.01773483,-0.001191765,0.009602875,-1.417861,3.074705,0.01135039,0.001789476,0.005614377,-0.02440874,-0.3139846,2.480441,-2.929489
90,3.022218,364,214,489,498,0.02536983,-0.002947356,0.01598507,-1.418457,3.075034,0.0113163,-0.0004670671,-0.0004847911,-0.01943948,-0.3141097,2.480077,-2.929005
90,3.033329,364,214,489,498,0.02869509,-0.002765494,0.01543268,-1.418861,3.0751,0.01133974,-0.008419256,-0.007536321,-0.01365287,-0.3140192,2.479557,-2.928203
90,3.04444,364,214,489,498,0.02117453,0.002459688,0.01501755,-1.418901,3.075226,0.01151711,-0.01475273,-0.005260848,-0.000946241,-0.3135936,2.479562,-2.927964
90,3.055551,408,230,479,502,0.004373923,0.006711901,0.01190297,-1.418445,3.075201,0.01167477,-0.01916777,-0.000515664,-0.005331706,-0.3136394,2.480117,-2.928121
90,3.066662,408,230,479,502,-0.01427175,0.009137968,0.01366991,-1.417841,3.075497,0.01180686,-0.02415278,-0.001345927,-0.01750846,-0.3140826,2.480843,-2.928293
90,3.077773,408,230,479,502,-0.02404053,0.006514473,0.007364157,-1.417337,3.075462,0.01183828,-0.01853111,-0.003486749,-0.002976132,-0.3138993,2.480185,-2.927619
90,3.088884,408,230,479,502,-0.0289661,0.006779741,0.004434771,-1.416972,3.075546,0.01186864,-0.00871767,-0.004895877,0.002701346,-0.3137694,2.479638,-2.927288
90,3.099995,338,239,487,496,-0.02414268,0.004235639,0.008095769,-1.416904,3.075671,0.01172856,-0.006209509,0.003160649,-0.006612972,-0.3140554,2.480551,-2.92838
90,3.111106,338,239,487,496,-0.01190741,0.006120224,0.01251234,-1.417252,3.075952,0.01177863,-0.009008281,0.001157549,-0.01605766,-0.3144171,2.481412,-2.928931
90,3.122217,338,239,487,496,0.001305198,0.004699729,0.01766235,-1.417634,3.076063,0.01176372,-0.01168983,0.0003948929,-0.01341688,-0.3144171,2.481661,-2.928994
90,3.133328,338,239,487,496,0.01692921,0.004659835,0.02121656,-1.418222,3.076335,0.01176798,-0.01288149,-0.01596727,-0.0004316866,-0.3140964,2.47951,-2.92653
90,3.144439,338,239,487,496,0.02160644,0.006207746,0.0189038,-1.418603,3.076409,0.01188462,-0.01051259,-0.01828474,0.01331568,-0.3136415,2.478249,-2.925301
90,3.15555,404,188,508,496,0.0178571,0.007691883,0.0152592,-1.418632,3.076461,0.01200233,-0.01158282,-0.02581786,0.01092189,-0.3136415,2.476861,-2.923503
90,3.166661,404,188,508,496,0.005922093,0.00836132,0.01565483,-1.418428,3.076721,0.01206838,-0.02176958,-0.01152585,0.009478766,-0.3133763,2.47795,-2.924172
90,3.177772,404,188,508,496,-0.006977631,0.01129232,0.01512587,-1.417936,3.076887,0.01237571,-0.02082387,0.004417688,-0.006856273,-0.3137566,2.480305,-2.926279
90,3.188883,404,188,508,496,-0.01620006,0.009414988,0.01883177,-1.417542,3.077277,0.01243909,-0.01304799,0.01259461,-0.02367462,-0.3142717,2.481318,-2.927122
90,3.199994,404,188,508,496,-0.01536656,0.0048919,0.02048273,-1.417335,3.077581,0.01233097,-0.006996083,0.00878534,-0.02766612,-0.3147217,2.481909,-2.927791
90,3.211105,431,188,492,498,-0.001722083,0.004843328,0.01611266,-1.417556,3.077571,0.01238849,-0.0091789,-0.009787305,-0.02149731,-0.3149561,2.480372,-2.925804
90,3.222216,431,188,492,498,0.0008802444,0.005316923,0.01332563,-1.417626,3.077629,0.0124359,-0.01441724,-0.01006675,-0.004121669,-0.3144916,2.479946,-2.925192
90,3.233327,431,188,492,498,0.006170999,0.004303,0.01401495,-1.41783,3.077738,0.0124833,-0.01925624,-0.01134602,0.01336616,-0.3138589,2.478964,-2.923926
90,3.244438,431,188,492,498,0.01304306,0.003901271,0.01831402,-1.418222,3.078034,0.01250567,-0.02038023,-0.01033215,0.01638415,-0.3135254,2.478643,-2.923388
90,3.255549,390,189,491,498,0.01277378,0.001485543,0.02009298,-1.418328,3.07827,0.01240927,-0.01881301,-0.007012936,0.009069823,-0.3135515,2.47894,-2.923513
90,3.26666,390,189,491,498,0.01080418,0.00268144,0.018865,-1.418409,3.078423,0.01248969,-0.0150218,0.002126066,-0.01749152,-0.3144032,2.48091,-2.925183
90,3.277771,390,189,491,498,0.003006668,0.004295666,0.01351339,-1.418147,3.078525,0.01274056,-0.00664974,0.00777257,-0.02756777,-0.3149241,2.482014,-2.926275
90,3.288882,390,189,491,498,-0.000245314,0.0008098707,0.007036689,-1.41809,3.078462,0.01270275,-0.004225022,0.006576979,-0.02586737,-0.314995,2.482062,-2.926157
90,3.299993,390,189,491,498,-0.00793935,0.0004571769,0.00793664,-1.417879,3.078612,0.01272618,-0.008994415,0.004464007,-0.01714189,-0.3148597,2.482085,-2.925998
90,3.311104,396,198,462,499,-0.007556612,-0.0001450665,0.01226771,-1.417819,3.07884,0.01272299,-0.008901488,-1.638476E-05,-0.005025929,-0.3145161,2.481875,-2.925646
90,3.322215,396,198,462,499,0.00329921,0.0002313321,0.01187443,-1.418171,3.078916,0.0127118,-0.002352177,-0.003830966,-0.01109283,-0.3148698,2.481905,-2.925708
90,3.333326,396,198,462,499,0.01444643,0.003170196,0.01624739,-1.418593,3.079084,0.01276347,-0.00796325,0.008223372,-0.0180113,-0.3150253,2.483729,-2.927207
90,3.344437,396,198,462,499,0.0231025,0.001270519,0.0162438,-1.419131,3.079247,0.01266706,-0.006492276,0.01252517,-0.0264592,-0.3154365,2.484937,-2.928297
90,3.355548,427,201,513,498,0.02961848,0.0004143137,0.01604384,-1.419652,3.079339,0.01266173,-0.002339961,0.01366697,-0.03093856,-0.315812,2.485679,-2.928906
90,3.366659,427,201,513,498,0.03676239,0.001207892,0.01181632,-1.420244,3.079304,0.01264309,9.89805E-05,0.01051789,-0.02593779,-0.3159596,2.485824,-2.929085
90,3.37777,427,201,513,498,0.03294406,-0.0006293645,0.008763447,-1.420502,3.079284,0.01259036,0.003099493,0.006942554,-0.02737359,-0.3162301,2.486074,-2.929387
90,3.388881,427,201,513,498,0.02761045,-0.003977097,0.008527802,-1.420627,3.079359,0.01247158,-0.0007425589,0.003406393,-0.02500534,-0.316408,2.486346,-2.929483
90,3.399992,427,201,513,498,0.02694836,-0.0003651073,0.005675086,-1.420774,3.079286,0.01264256,-0.003697871,-0.005058045,-0.01799602,-0.3163713,2.485446,-2.928489
90,3.411103,422,225,514,505,0.02227973,0.002305748,0.0009691101,-1.420891,3.079163,0.01272938,0.002022964,-0.0001632399,-0.02541059,-0.316898,2.48633,-2.929572
90,3.422215,422,225,514,505,0.01779979,-0.0001258104,0.002096896,-1.420939,3.079231,0.01271819,0.001641188,-0.0009913691,-0.03208546,-0.3174083,2.48679,-2.929883
90,3.433326,422,225,514,505,0.01831878,-0.000734719,-0.001179563,-1.421139,3.07911,0.01269369,-0.002172028,0.00316622,-0.03305521,-0.317688,2.487708,-2.930664
90,3.444437,422,225,514,505,0.01120049,-0.003789552,-0.003815805,-1.421024,3.079047,0.01272725,-0.004817694,0.01373058,-0.02060572,-0.3174797,2.488976,-2.931954
90,3.455548,422,225,514,505,0.01084422,-0.00303272,-0.001586675,-1.421158,3.079074,0.01271979,-0.006200198,0.01852705,-0.01328646,-0.3172182,2.489942,-2.932933
90,3.466659,431,210,504,501,0.01862488,-0.005858273,-0.002960183,-1.421627,3.079004,0.01250194,-0.005702043,0.01263491,-0.005448434,-0.3171202,2.48992,-2.932892
90,3.47777,431,210,504,501,0.02691112,-0.007008336,-0.0007598577,-1.422164,3.079014,0.01239169,0.003539404,0.0195267,-0.006494896,-0.3172155,2.490954,-2.934225
90,3.488881,431,210,504,501,0.03452804,-0.009981255,-0.001113593,-1.422738,3.078927,0.01217437,8.825306E-05,0.01711254,-0.01722334,-0.3176911,2.492076,-2.935209
90,3.499992,431,210,504,501,0.03315413,-0.01028599,0.000793118,-1.42304,3.078933,0.01201885,0.003013277,0.01017815,-0.01755453,-0.3179378,2.491987,-2.935153
90,3.511103,403,226,500,495,0.03068672,-0.01496233,0.002999272,-1.423334,3.079018,0.01171578,0.003003788,0.01003637,-0.007679984,-0.3177897,2.492349,-2.93558
90,3.522214,403,226,500,495,0.03116534,-0.01452306,-0.0001415517,-1.423685,3.078899,0.01155705,0.000245532,0.00968385,-0.000679455,-0.3175899,2.492583,-2.935815
90,3.533325,403,226,500,495,0.02716991,-0.0165135,-0.002131393,-1.423874,3.078832,0.01133548,-0.007155098,0.01589582,0.009523236,-0.317068,2.493496,-2.936697
90,3.544436,403,226,500,495,0.0230848,-0.0153382,-0.003682632,-1.423943,3.078712,0.01120552,-0.004450137,0.01862687,0.003593008,-0.3171654,2.494411,-2.937677
90,3.555547,403,226,500,495,0.01615874,-0.01701288,-0.0006189907,-1.423936,3.078835,0.01115225,-0.004171316,0.02239839,0.005840433,-0.3169311,2.495411,-2.938786
90,3.566658,375,194,508,499,0.01497799,-0.01821948,0.0001148379,-1.424127,3.078896,0.01095092,0.001290878,0.02351784,-0.003782291,-0.3172123,2.496448,-2.939956
90,3.577769,375,194,508,499,0.008666096,-0.0182529,-0.0008579127,-1.42414,3.07876,0.01086463,0.001930658,0.02252595,-0.004717705,-0.3173018,2.497468,-2.94097
90,3.58888,375,194,508,499,0.006432725,-0.01946742,-0.0002823174,-1.424201,3.078831,0.01066063,0.005078603,0.02550836,0.001547289,-0.317069,2.498378,-2.942164
90,3.599991,375,194,508,499,0.0004648641,-0.02025799,-0.003481621,-1.424137,3.078663,0.01055358,0.002816143,0.02137184,0.003199801,-0.316971,2.49869,-2.942505
90,3.611102,403,216,490,496,0.0007398967,-0.02432352,-0.005104308,-1.42422,3.078685,0.0102308,-0.003795322,0.01945492,0.009239391,-0.3166573,2.499241,-2.942933
90,3.622213,403,216,490,496,-0.00612984,-0.02498052,-0.00951147,-1.423963,3.078525,0.009911753,-0.003549673,0.01929031,0.01808771,-0.3162216,2.499498,-2.943361
90,3.633324,403,216,490,496,-0.009281332,-0.02498507,-0.009992165,-1.423887,3.078449,0.009848902,0.004400223,0.02691009,0.006858982,-0.316489,2.500909,-2.945078
90,3.644435,403,216,490,496,-0.01582506,-0.0284806,-0.009320576,-1.423544,3.078498,0.009467005,0.004244108,0.0365847,0.001281079,-0.316522,2.502961,-2.947296
90,3.655546,403,216,490,496,-0.01643013,-0.03555103,-0.005012321,-1.423399,3.078543,0.00892958,0.009942193,0.03376202,-0.002755296,-0.3166925,2.503773,-2.948376
90,3.666657,365,215,486,505,-0.01342467,-0.03900108,-0.01051816,-1.423285,3.078366,0.008368718,0.007968698,0.03715597,0.004425641,-0.3163617,2.504881,-2.949664
90,3.677768,365,215,486,505,-0.004576799,-0.04285379,-0.01194116,-1.423403,3.078263,0.007858456,0.005952179,0.03481427,0.01162587,-0.315926,2.505558,-2.950512
90,3.688879,365,215,486,505,0.01021797,-0.04485941,-0.01003491,-1.423839,3.078217,0.007400392,0.002957519,0.0364302,0.01635757,-0.3155388,2.506669,-2.951759
90,3.69999,365,215,486,505,0.01153864,-0.04891271,-0.01154534,-1.423988,3.078153,0.006761233,-0.005417906,0.04105053,0.01421667,-0.3152602,2.508763,-2.953674
90,3.711101,383,230,502,497,0.01059289,-0.05312859,-0.01234482,-1.424009,3.078092,0.006027799,-0.003022246,0.03787031,0.01923513,-0.3149348,2.509283,-2.954414
90,3.722212,383,230,502,497,0.0008926354,-0.05664869,-0.01216564,-1.423747,3.07809,0.005275189,0.002697174,0.05183448,0.01183594,-0.3148714,2.511959,-2.957451
90,3.733323,383,230,502,497,-0.002816632,-0.06373337,-0.01599826,-1.423582,3.077941,0.004313788,0.0009077452,0.05007356,0.01249693,-0.3145577,2.513484,-2.959031
90,3.744434,383,230,502,497,-0.003313437,-0.07289535,-0.01968757,-1.423484,3.077818,0.003247459,0.004064012,0.04566379,0.002333878,-0.3147718,2.514535,-2.960224
90,3.755545,383,230,502,497,-0.003920086,-0.07241539,-0.02302731,-1.423444,3.077558,0.002457565,-0.0009392872,0.0530581,0.01532058,-0.314049,2.516613,-2.962409
90,3.766656,353,207,501,503,0.004291534,-0.07040332,-0.02049311,-1.423721,3.077479,0.001710282,0.003408551,0.05438723,0.02412705,-0.3135648,2.518066,-2.964272
90,3.777767,353,207,501,503,0.009667363,-0.05835601,-0.01357203,-1.423965,3.077584,0.001233576,-0.001358435,0.0714611,0.03054151,-0.3128319,2.521553,-2.968014
90,3.788878,353,207,501,503,0.0123245,-0.05669761,-0.00971277,-1.424138,3.077668,0.0006189186,-0.003480278,0.07564321,0.02338959,-0.3125901,2.524472,-2.971033
90,3.799989,353,207,501,503,0.01197366,-0.07117917,-0.006621649,-1.424302,3.077785,-0.0007046724,-0.008546367,0.0840433,0.01215197,-0.3125166,2.528339,-2.974798
90,3.8111,353,207,501,503,0.007901862,-0.08731494,-0.007629357,-1.424201,3.077929,-0.002208826,-0.01040158,0.0923902,0.0116411,-0.3121246,2.531954,-2.978427
90,3.822211,340,201,501,498,0.0136086,-0.092215,-0.009865612,-1.424532,3.077927,-0.003372627,-0.00802096,0.09155424,0.01777514,-0.3116649,2.534713,-2.981462
90,3.833322,340,201,501,498,0.01701861,-0.09720115,-0.01900218,-1.424698,3.077622,-0.004596083,-0.004994772,0.08732939,0.02190021,-0.3110982,2.536926,-2.983904
90,3.844433,340,201,501,498,0.01539505,-0.09784389,-0.01508857,-1.424791,3.077723,-0.005708219,-0.002902158,0.08945256,0.02465178,-0.3106487,2.53995,-2.98725
90,3.855544,340,201,501,498,0.01722281,-0.09814522,-0.01282816,-1.425014,3.077763,-0.006831541,0.01001862,0.1002343,0.018122,-0.3105656,2.543623,-2.99175
90,3.866655,314,162,484,497,0.01395553,-0.1047949,-0.01229942,-1.425083,3.077816,-0.008236624,0.01526845,0.1114735,-0.01353995,-0.3114024,2.548764,-2.997214
90,3.877766,314,162,484,497,0.002466343,-0.1090545,-0.0146742,-1.424751,3.077791,-0.009559151,0.003021769,0.1177342,-0.02012057,-0.3114876,2.553509,-3.001879
90,3.888877,314,162,484,497,-0.004099995,-0.1134884,-0.02187092,-1.424471,3.077601,-0.01095305,0.003512591,0.112145,-0.008928824,-0.3111089,2.556514,-3.005199
90,3.899988,314,162,484,497,-0.01353694,-0.1240464,-0.03159241,-1.424006,3.077386,-0.01268304,0.001841456,0.1080752,0.0259375,-0.3098529,2.558665,-3.007909
90,3.911099,314,162,484,497,-0.01919014,-0.1256043,-0.02951615,-1.423627,3.077553,-0.01417175,-0.001183063,0.110208,0.04829953,-0.3085938,2.561638,-3.011385
90,3.92221,312,181,488,495,-0.02322887,-0.1234845,-0.02333474,-1.423256,3.077745,-0.01550918,-0.008458167,0.1173787,0.04413182,-0.3079962,2.56636,-3.01621
90,3.933321,312,181,488,495,-0.02625856,-0.1192807,-0.01664015,-1.4229,3.078007,-0.01672678,-0.009524867,0.123253,0.02728732,-0.3079094,2.571172,-3.02105
90,3.944432,312,181,488,495,-0.02311762,-0.1225676,-0.0158966,-1.422706,3.07813,-0.01820111,-0.01183876,0.1314188,0.003446031,-0.3082385,2.576871,-3.026694
90,3.955544,312,181,488,495,-0.02084621,-0.1277801,-0.01670903,-1.422481,3.078332,-0.01978942,-0.01241677,0.1339672,-0.01440778,-0.3085682,2.582281,-3.032123
90,3.966655,342,185,498,497,-0.01550753,-0.1435934,-0.02453608,-1.422365,3.078203,-0.02184644,-0.00921461,0.1338017,-0.003574174,-0.3081544,2.586899,-3.037081
90,3.977766,342,185,498,497,-0.016225,-0.150713,-0.02727048,-1.42206,3.078278,-0.02374954,-0.008772761,0.1349987,0.01977362,-0.3072207,2.591063,-3.041739
90,3.988877,342,185,498,497,-0.01963244,-0.1554402,-0.02556987,-1.42172,3.078426,-0.02564305,-0.01104866,0.1371111,0.03905389,-0.3061351,2.59577,-3.046812
90,3.999988,342,185,498,497,-0.02764821,-0.1684885,-0.02058369,-1.421144,3.078744,-0.02788489,-0.02424958,0.143746,0.04974031,-0.3049479,2.601437,-3.052465
90,4.011099,342,185,498,497,-0.03442371,-0.1824133,-0.01675246,-1.420574,3.07923,-0.03018959,-0.03150135,0.1565379,0.05653422,-0.3038837,2.608179,-3.059319
89.8,4.02221,347,151,483,499,-0.03031227,-0.1892266,-0.01469946,-1.420358,3.079527,-0.03248524,-0.02351315,0.1549922,0.07318529,-0.3026017,2.612636,-3.064367
89.60001,4.033321,347,151,483,499,-0.03226173,-0.213226,-0.01465632,-1.419863,3.080038,-0.03546585,-0.005699322,0.1577588,0.07823311,-0.301627,2.617402,-3.070111
89.40001,4.044433,347,151,483,499,-0.02747874,-0.2332304,-0.01759261,-1.419629,3.080393,-0.03855618,0.01643179,0.1907008,0.06795407,-0.3012355,2.625978,-3.080114
89.20001,4.055544,347,151,483,499,-0.02806802,-0.2423922,-0.02131977,-1.419091,3.080724,-0.04150803,0.01513252,0.187569,0.02777889,-0.3019449,2.632757,-3.087137
89.00002,4.066655,347,151,483,499,-0.04265562,-0.2522593,-0.03448986,-1.418163,3.080736,-0.04469583,0.001971588,0.1855322,0.01624315,-0.3018922,2.639459,-3.093758
88.80002,4.077766,280,165,514,503,-0.059993,-0.2600003,-0.04213497,-1.416979,3.080827,-0.04784262,0.00345093,0.1905667,0.01891695,-0.3014624,2.646852,-3.101652
88.60002,4.088878,280,165,514,503,-0.08238159,-0.2683404,-0.05274465,-1.415448,3.080926,-0.05114761,0.006826431,0.2077043,0.01326735,-0.3013995,2.655772,-3.111217
88.40002,4.099989,280,165,514,503,-0.09468065,-0.2709612,-0.05781081,-1.413984,3.081042,-0.05426989,0.0004808158,0.2212439,0.001376629,-0.3016163,2.665078,-3.120561
88.20003,4.1111,280,165,514,503,-0.1080559,-0.2627105,-0.05279825,-1.412586,3.081466,-0.05705982,-0.002544597,0.2324319,-0.01067659,-0.3019721,2.674551,-3.130204
88.00003,4.122211,401,174,480,495,-0.1029443,-0.2665852,-0.04967884,-1.411649,3.081904,-0.06025562,0.005957931,0.2326258,0.00194484,-0.3016232,2.682532,-3.138948
87.80003,4.133323,401,174,480,495,-0.08089423,-0.2793291,-0.04363266,-1.411451,3.082399,-0.06375128,0.008220673,0.2345785,0.006000981,-0.3015258,2.690582,3.135558
87.60004,4.144434,401,174,480,495,-0.05529034,-0.2843952,-0.04217699,-1.411573,3.082818,-0.0672038,0.004900083,0.2295408,0.01280588,-0.3011833,2.698224,3.127514
87.40004,4.155545,401,174,480,495,-0.01543477,-0.277343,-0.03432054,-1.412495,3.083193,-0.07007682,-0.003273174,0.2129723,-0.006460533,-0.3017111,2.704834,3.121135
87.20004,4.166656,401,174,480,495,0.01934108,-0.2595705,-0.03100329,-1.413695,3.08338,-0.07259138,-0.0184536,0.2133354,-0.001215778,-0.3014815,2.713021,3.113174
87.00005,4.177768,375,178,494,495,0.04091579,-0.2434015,-0.02267299,-1.414628,3.083749,-0.07490566,-0.02087235,0.2187271,0.01808801,-0.3007934,2.721378,3.104548
86.80005,4.188879,375,178,494,495,0.05029479,-0.244932,-0.01965475,-1.414484,3.083689,-0.07675337,-0.01830524,0.2297953,0.02331932,-0.3004919,2.730699,3.094863
86.60005,4.19999,375,178,494,495,0.05639529,-0.2413943,-0.01572832,-1.415226,3.084113,-0.07941919,-0.01820534,0.2336062,0.01770488,-0.3004877,2.739657,3.085613
86.40005,4.211102,375,178,494,495,0.0541954,-0.2474868,-0.01369985,-1.414944,3.084473,-0.08162429,-0.008023262,0.2333673,0.009766772,-0.3008317,2.747535,3.077199
86.20006,4.222213,343,171,500,497,0.05615911,-0.2524554,-0.01101993,-1.414137,3.084354,-0.08299901,-0.0004845262,0.2313675,0.01558128,-0.300672,2.755439,3.068731
86.00006,4.233324,343,171,500,497,0.05367753,-0.2531945,-0.00442141,-1.414845,3.085002,-0.08587842,0.01531406,0.2478906,0.01853087,-0.3008216,2.765246,3.057907
85.80006,4.244435,343,171,500,497,0.0532569,-0.2538804,0.002408711,-1.414607,3.085386,-0.08782572,0.02055284,0.2484102,0.01132352,-0.3012792,2.774272,3.04825
85.60007,4.255547,343,171,500,497,0.05341554,-0.2551578,0.00238198,-1.415247,3.086196,-0.09093203,0.01479135,0.2486748,-0.01533609,-0.3023987,2.783285,3.039217
85.40007,4.266658,343,171,500,497,0.05172449,-0.253836,-0.003644512,-1.415613,3.086748,-0.09368788,0.005441353,0.2416973,-0.01402091,-0.3025473,2.791827,3.030682
85.20007,4.277769,438,184,499,502,0.03742132,-0.2518902,-0.01354048,-1.415616,3.087036,-0.09647674,-0.002018645,0.2439635,-0.001999162,-0.3025479,2.801249,3.02108
85.00008,4.28888,438,184,499,502,0.01643535,-0.2619263,-0.01600651,-1.414525,3.087179,-0.09891513,-0.006111085,0.2640332,0.02690618,-0.3019519,2.812793,3.009047
84.80008,4.299992,438,184,499,502,0.001926124,-0.2706169,-0.0189194,-1.414144,3.087815,-0.1022079,-0.003169358,0.2635518,0.02788295,-0.3020941,2.822305,2.999115
84.60008,4.311103,438,184,499,502,-0.01398972,-0.2835675,-0.01433165,-1.41296,3.088623,-0.1050873,-0.0002300441,0.2702431,0.0232026,-0.302387,2.832492,2.988616
84.40009,4.322214,470,175,481,499,-0.01268855,-0.294123,-0.01263458,-1.412461,3.089097,-0.108094,0.006214619,0.289045,0.009531558,-0.3033032,2.844486,2.97614
84.20009,4.333325,470,175,481,499,-0.001671791,-0.3003374,-0.0137318,-1.41276,3.090017,-0.1116866,0.01328367,0.2824348,-0.01966295,-0.3049314,2.853562,2.966829
84.00009,4.344437,470,175,481,499,0.001995027,-0.3054682,-0.01940756,-1.412335,3.090279,-0.1146613,0.01305059,0.2811188,-0.01868462,-0.3056755,2.863252,2.956779
83.80009,4.355548,470,175,481,499,-0.002889693,-0.3116478,-0.02246801,-1.412305,3.09101,-0.1183274,0.01260909,0.2894044,-0.007614546,-0.3060041,2.874164,2.945375
83.6001,4.366659,470,175,481,499,-0.006878793,-0.3159939,-0.02397257,-1.411422,3.091391,-0.1213097,0.01073733,0.2904367,-0.0004406422,-0.3064303,2.884372,2.934769
83.4001,4.37777,456,201,494,498,-0.002178192,-0.3262187,-0.02354312,-1.411733,3.092258,-0.1252799,0.007931978,0.2994736,0.0006265119,-0.307137,2.895714,2.923138
83.2001,4.388882,456,201,494,498,0.004513234,-0.3296622,-0.02332514,-1.41206,3.093207,-0.1290983,0.008806676,0.302801,0.001966789,-0.3078321,2.906142,2.91234
83.00011,4.399993,456,201,494,498,0.01658845,-0.3373047,-0.02326255,-1.411858,3.093806,-0.1324166,0.01038092,0.3200567,-0.01366956,-0.309373,2.918352,2.899891
82.80011,4.411104,456,201,494,498,0.03183067,-0.3369332,-0.02733481,-1.412768,3.09437,-0.1361919,0.01991937,0.3273699,-0.01244741,-0.310531,2.929596,2.887948
82.60011,4.422215,456,201,494,498,0.04907101,-0.3344199,-0.0308326,-1.413699,3.094808,-0.1398191,0.0193589,0.3211492,-0.01618499,-0.3116389,2.939711,2.877512
82.40012,4.433327,446,166,493,507,0.0590412,-0.3380866,-0.03324777,-1.414674,3.095651,-0.1439929,0.01518884,0.3201992,-0.02602112,-0.3130125,2.950058,2.867097
82.20012,4.444438,446,166,493,507,0.06537709,-0.3332182,-0.02724584,-1.414842,3.096274,-0.1468344,0.01053253,0.3187792,-0.02807518,-0.3142077,2.960823,2.856239
82.00012,4.455549,446,166,493,507,0.05599794,-0.3322313,-0.02156863,-1.4154,3.097285,-0.1506566,0.01353756,0.3235817,-0.01445676,-0.3151036,2.972136,2.844431
81.80013,4.46666,446,166,493,507,0.05308402,-0.3315214,-0.02150003,-1.416103,3.098374,-0.154556,0.02116755,0.3217596,-0.02409098,-0.3161998,2.97954,2.836323
81.60013,4.477772,436,190,491,498,0.04602581,-0.3339831,-0.02248481,-1.416606,3.099344,-0.1585838,0.02576008,0.3275079,-0.02702068,-0.3174744,2.989085,2.82625
81.40013,4.488883,436,190,491,498,0.03341603,-0.3313002,-0.03288383,-1.416858,3.100359,-0.162619,0.02677509,0.3192105,-0.03361362,-0.3191213,2.998504,2.816626
81.20013,4.499994,436,190,491,498,0.02302405,-0.3318391,-0.03646204,-1.416878,3.101104,-0.1664076,0.02704474,0.3145149,-0.03477375,-0.3205146,3.00733,2.80748
81.00014,4.511106,436,190,491,498,0.01143637,-0.3277281,-0.03725641,-1.416879,3.101926,-0.1702138,0.02246985,0.3114426,-0.007908382,-0.3210222,3.017862,2.796534
80.80014,4.522217,436,190,491,498,-0.005368739,-0.3241918,-0.03363277,-1.416541,3.102525,-0.1741047,0.01454026,0.3104532,0.0001059696,-0.3218574,3.027706,2.786512
80.60014,4.533328,394,186,504,496,-0.01795712,-0.3208764,-0.0322237,-1.416086,3.10364,-0.1777021,0.01144964,0.3085587,-0.0002718195,-0.3232603,3.037571,2.776531
80.40015,4.544439,394,186,504,496,-0.03381145,-0.3156949,-0.03346764,-1.415658,3.104337,-0.181798,0.01988736,0.2918659,-0.006947383,-0.3246084,3.044979,2.76872
80.20015,4.555551,394,186,504,496,-0.03923684,-0.309677,-0.03897641,-1.415298,3.105053,-0.1851904,0.03009188,0.2768207,-0.01047833,-0.3259645,3.051959,2.761197
80.00015,4.566662,394,186,504,496,-0.04017678,-0.308212,-0.0440976,-1.415235,3.105541,-0.1893273,0.03083532,0.26669,-0.01359686,-0.3272226,3.059659,2.75323
79.80016,4.577773,348,154,489,503,-0.03932995,-0.3002314,-0.04793556,-1.41481,3.106097,-0.1925396,0.01925828,0.2491672,-0.004589565,-0.3278735,3.06632,2.746514
79.60016,4.588884,348,154,489,503,-0.04312602,-0.3040216,-0.04810028,-1.414384,3.106743,-0.1966047,0.009985924,0.2517151,0.006208979,-0.3286879,3.074855,2.737987
79.40016,4.599996,348,154,489,503,-0.04312825,-0.2959484,-0.04608003,-1.414371,3.107162,-0.2002122,0.001979649,0.2697543,0.01839818,-0.3294708,3.085287,2.727485
79.20016,4.611107,348,154,489,503,-0.04097709,-0.2897728,-0.04475151,-1.414246,3.107862,-0.2034144,0.007223696,0.2666365,0.01247869,-0.330657,3.092827,2.719556
79.00017,4.622218,348,154,489,503,-0.02821079,-0.2798868,-0.04030759,-1.414421,3.10841,-0.2066869,0.006066144,0.2647524,0.007098757,-0.3318757,3.100824,2.711514
78.80017,4.633329,356,166,499,494,-0.01445964,-0.2743961,-0.04203773,-1.414896,3.109051,-0.2097415,0.008068591,0.2629551,-0.002712838,-0.3333633,3.108434,2.703911
78.60017,4.644441,356,166,499,494,-0.01011667,-0.2701209,-0.04157502,-1.415128,3.109519,-0.2132761,0.01537719,0.2576198,-0.01229387,-0.3348739,3.115111,2.697005
78.40018,4.655552,356,166,499,494,-0.01326892,-0.2684177,-0.04386225,-1.415114,3.110056,-0.2166284,0.01556878,0.2543327,0.0006449372,-0.3358129,3.123148,2.688777
78.20018,4.666663,356,166,499,494,-0.02145943,-0.2685309,-0.04188573,-1.414684,3.110868,-0.2196591,0.01487225,0.2527185,0.009607732,-0.3367599,3.131127,2.680566
78.00018,4.677774,388,164,484,493,-0.03119469,-0.2644323,-0.04498122,-1.414459,3.11151,-0.2230946,0.01251057,0.2398626,0.01575182,-0.3374476,3.137374,2.674157
77.80019,4.688886,388,164,484,493,-0.0333543,-0.2642311,-0.04903654,-1.414017,3.112102,-0.2261583,0.01432312,0.2274387,0.02036915,-0.3381139,-3.139588,2.667578
77.60019,4.699997,388,164,484,493,-0.03001672,-0.2645451,-0.05134899,-1.414274,3.112628,-0.229605,0.01037705,0.2144512,0.02698482,-0.3385352,-3.13384,2.661641
77.40019,4.711108,388,164,484,493,-0.02659534,-0.2595447,-0.04678149,-1.414338,3.113469,-0.232323,0.01424189,0.2177866,0.02390236,-0.3395962,-3.127128,2.654634
77.2002,4.722219,388,164,484,493,-0.04026558,-0.255741,-0.04370945,-1.413554,3.114293,-0.2353031,0.01613426,0.2201625,0.01276967,-0.3410061,-3.12071,2.648115
77.0002,4.733331,410,167,484,500,-0.04266763,-0.248687,-0.04471039,-1.413381,3.114871,-0.2382581,0.01597308,0.2184578,-0.005207881,-0.3426498,-3.115372,2.642904
76.8002,4.744442,410,167,484,500,-0.04069203,-0.2421678,-0.04399741,-1.412943,3.115666,-0.2408499,0.02597678,0.2153596,-0.003866389,-0.343878,-3.109692,2.636746
76.6002,4.755553,410,167,484,500,-0.02811773,-0.2375187,-0.04617001,-1.413043,3.116399,-0.2436063,0.0328622,0.2096786,-0.002744287,-0.3449465,-3.104511,2.631078
76.40021,4.766665,410,167,484,500,-0.01445016,-0.2322005,-0.04701985,-1.413236,3.116849,-0.246149,0.02864602,0.2101093,0.00930699,-0.3459041,-3.098223,2.62439
76.20021,4.777776,410,167,484,500,0.003921196,-0.2267312,-0.04238888,-1.414051,3.117494,-0.2486514,0.02970861,0.2087461,0.006204352,-0.3470914,-3.092632,2.61852
76.00021,4.788887,369,146,487,498,0.01804249,-0.2240352,-0.03971365,-1.414807,3.1181,-0.2509997,0.02662438,0.2103758,0.005673684,-0.3481902,-3.086954,2.612709
75.80022,4.799998,369,146,487,498,0.03082077,-0.2186052,-0.03818984,-1.415417,3.11864,-0.2535111,0.03158039,0.2129459,-0.006361067,-0.3498435,-3.081505,2.607033
75.60022,4.81111,369,146,487,498,0.03393775,-0.215909,-0.03903309,-1.416033,3.119116,-0.2558211,0.02770129,0.2083917,-0.01549469,-0.3512741,-3.076505,2.602137
75.40022,4.822221,369,146,487,498,0.02510256,-0.2112345,-0.03999494,-1.416072,3.119631,-0.2581168,0.03095989,0.2093893,-0.01878188,-0.3527261,-3.071423,2.596764
75.20023,4.833332,314,154,497,499,0.01596057,-0.2072427,-0.04462451,-1.416173,3.119987,-0.2602777,0.0335471,0.197448,-0.02190475,-0.3539948,-3.067371,2.592381
75.00023,4.844443,314,154,497,499,0.001120284,-0.2102734,-0.04706282,-1.41591,3.120665,-0.2629456,0.03010459,0.182186,-0.01961005,-0.3550468,-3.063589,2.588561
74.80023,4.855555,314,154,497,499,-0.008534089,-0.2100133,-0.04856528,-1.415786,3.121233,-0.2652807,0.03249398,0.1807052,-0.01359322,-0.356218,-3.058849,2.583458
74.60023,4.866666,314,154,497,499,-0.02510256,-0.211065,-0.04515892,-1.415065,3.121966,-0.2677137,0.03791055,0.1825308,-0.009699553,-0.3574447,-3.05425,2.578417
74.40024,4.877777,314,154,497,499,-0.03190137,-0.2147992,-0.04289001,-1.414925,3.122956,-0.2702789,0.04835348,0.2033693,-0.001511082,-0.3589254,-3.047794,2.571182
74.20024,4.888888,286,152,489,495,-0.02629563,-0.2157106,-0.04337203,-1.414792,3.123687,-0.2727966,0.05984989,0.2051111,-0.01603983,-0.3608759,-3.043762,2.566682
74.00024,4.9,286,152,489,495,-0.02204138,-0.2141471,-0.05441499,-1.414824,3.123892,-0.2753959,0.05081573,0.2002031,-0.02438981,-0.3624663,-3.039567,2.562477
73.80025,4.911111,286,152,489,495,-0.01770544,-0.210279,-0.05252939,-1.414861,3.124382,-0.2776612,0.04467684,0.1945309,-0.008172974,-0.3631406,-3.034665,2.557216
73.60025,4.922222,286,152,489,495,-0.02207385,-0.2105778,-0.05499988,-1.414422,3.125067,-0.2801757,0.04302748,0.1898834,0.015283,-0.3636158,-3.029417,2.55135
73.40025,4.933333,371,159,479,493,-0.02647369,-0.2099155,-0.05694633,-1.414149,3.125466,-0.2825284,0.04148637,0.196901,0.01282261,-0.3649601,-3.023941,2.545759
73.20026,4.944445,371,159,479,493,-0.03266285,-0.2112792,-0.05726651,-1.413622,3.126012,-0.2850051,0.04656088,0.2016536,0.003147304,-0.3664393,-3.019577,2.540963
73.00026,4.955556,371,159,479,493,-0.0393974,-0.2118099,-0.06180597,-1.41321,3.12638,-0.2874094,0.06447287,0.2149782,-0.004749954,-0.3684228,-3.014419,2.53491
72.80026,4.966667,371,159,479,493,-0.03963751,-0.2207806,-0.06314833,-1.412665,3.127136,-0.2902558,0.06832413,0.2111924,-0.01223613,-0.3700351,-3.01072,2.530532
72.60027,4.977778,371,159,479,493,-0.04297124,-0.2243294,-0.06854293,-1.412244,3.127643,-0.2929605,0.0741984,0.2036095,-0.01594523,-0.3716297,-3.007221,2.526453
72.40027,4.98889,445,145,548,499,-0.04551454,-0.224428,-0.07362238,-1.411766,3.127974,-0.2955837,0.07837534,0.1926175,-0.02038954,-0.3729991,-3.004462,2.523052
72.20027,5.000001,445,145,548,499,-0.05833858,-0.2244605,-0.07475663,-1.410741,3.128518,-0.2983055,0.07406622,0.2005343,-0.02206954,-0.3747686,-2.999822,2.518031
72.00027,5.011112,445,145,548,499,-0.07209225,-0.2317489,-0.08053511,-1.409671,3.12905,-0.3012595,0.0684782,0.2156587,-0.01390709,-0.3764602,-2.993882,2.511739
71.80028,5.022223,445,145,548,499,-0.06620643,-0.2452737,-0.08913312,-1.408971,3.129571,-0.3046262,0.06767957,0.208351,0.003125913,-0.3773843,-2.989455,2.50652
71.60028,5.033335,400,145,542,499,-0.06295124,-0.2622036,-0.09581023,-1.407159,3.12942,-0.3070417,0.08266586,0.2272484,0.02896544,-0.3787622,-2.982626,2.49822
71.40028,5.044446,400,145,542,499,-0.04850742,-0.2749202,-0.09601907,-1.407034,3.130079,-0.3106433,0.09434642,0.2446047,0.02848538,-0.381085,-2.976091,2.490492
71.20029,5.055557,400,145,542,499,-0.04424059,-0.2798545,-0.1027636,-1.406734,3.130493,-0.3141966,0.1051303,0.2404928,0.002965949,-0.3836885,-2.972182,2.485873
71.00029,5.066669,400,145,542,499,-0.05133393,-0.2796982,-0.1015625,-1.40488,3.13071,-0.3166653,0.1065319,0.2411439,-0.01109681,-0.3860582,-2.96801,2.481007
70.80029,5.07778,400,145,542,499,-0.07916249,-0.2834167,-0.1060605,-1.402869,3.131324,-0.3197775,0.1026497,0.231313,-0.007874839,-0.3875768,-2.963797,2.475968
70.6003,5.088891,390,154,505,492,-0.11308,-0.2915859,-0.1118804,-1.400894,3.132142,-0.3235427,0.1028197,0.2214895,0.005206406,-0.3889717,-2.959614,2.470746
70.4003,5.100002,390,154,505,492,-0.1341106,-0.3160889,-0.1159173,-1.397962,3.132831,-0.3270479,0.09788753,0.2225754,0.06158107,-0.3892583,-2.951792,2.46149
70.2003,5.111114,390,154,505,492,-0.1308917,-0.3317893,-0.1254778,-1.396672,3.133733,-0.3315513,0.103162,0.2291339,0.06552037,-0.3908551,-2.946608,2.454941
70.00031,5.122225,390,154,505,492,-0.1135107,-0.3514032,-0.1378613,-1.395197,3.134094,-0.3358358,0.1092982,0.2429267,0.05457998,-0.3929979,-2.941031,2.448237
69.80031,5.133336,390,154,505,492,-0.1018839,-0.3563599,-0.1483254,-1.394504,3.134683,-0.3403988,0.1121669,0.2685168,0.03328495,-0.3959519,-2.934971,2.441568
69.60031,5.144447,352,140,496,499,-0.1101606,-0.3465899,-0.1494105,-1.392525,3.135093,-0.3438397,0.1151186,0.2824664,0.03893027,-0.398166,-2.928181,2.433661
69.40031,5.155559,352,140,496,499,-0.1262127,-0.3489077,-0.1473109,-1.390127,3.135926,-0.3476751,0.1375411,0.2996327,0.04132296,-0.4006779,-2.921917,2.425453
69.20032,5.16667,352,140,496,499,-0.1306169,-0.3487127,-0.1445014,-1.388527,3.1369,-0.3518814,0.1417878,0.3061014,0.03584099,-0.4033565,-2.915839,2.418125
69.00032,5.177781,352,140,496,499,-0.1085234,-0.3581421,-0.1464468,-1.387589,3.137802,-0.3563981,0.1519001,0.300914,0.02997415,-0.4057204,-2.911706,2.412432
68.80032,5.188892,367,138,496,499,-0.0611867,-0.3609604,-0.1469569,-1.388245,3.138452,-0.3608722,0.1709386,0.3147479,0.01059873,-0.4093678,-2.906391,2.40557
68.60033,5.200004,367,138,496,499,-0.01315552,-0.3575778,-0.1596549,-1.388773,3.138422,-0.3651141,0.1866765,0.3103685,-0.02190201,-0.4128773,-2.903842,2.401511
68.40033,5.211115,367,138,496,499,0.01316974,-0.3484596,-0.1668463,-1.38948,3.138575,-0.3694007,0.1861759,0.3030106,-0.03805596,-0.4162334,-2.900331,2.396875
68.20033,5.222226,367,138,496,499,0.02123505,-0.3375978,-0.1638187,-1.38936,3.138851,-0.3730412,0.1724231,0.3152515,-0.03681649,-0.4195278,-2.894663,2.390409
68.00034,5.233337,367,138,496,499,0.003728032,-0.3187388,-0.1573259,-1.389097,3.13946,-0.376783,0.1585032,0.303917,-0.01443453,-0.4213834,-2.890099,2.384631
67.80034,5.244449,391,136,494,498,-0.004779279,-0.3093178,-0.1431452,-1.388848,3.140229,-0.380227,0.1526181,0.3072504,0.01820187,-0.4234575,-2.883493,2.376665
67.60034,5.25556,391,136,494,498,0.006096125,-0.3057575,-0.1423263,-1.389418,3.141011,-0.3841823,0.1524465,0.3065479,0.01672189,-0.4263742,-2.878534,2.370546
67.40034,5.266671,391,136,494,498,0.02359971,-0.3098945,-0.1547171,-1.390022,3.141124,-0.3883091,0.1496639,0.2957105,0.008096784,-0.4294022,-2.874271,2.365303
67.20035,5.277782,391,136,494,498,0.04406065,-0.3211423,-0.1754868,-1.390729,3.141158,-0.3929702,0.1645189,0.2871277,-0.008064687,-0.4326241,-2.871851,2.361528
67.00035,5.288894,391,136,494,498,0.04686657,-0.3262066,-0.1853285,-1.391274,3.141257,-0.3975327,0.1728279,0.2849149,-0.01256528,-0.4357267,-2.868237,2.35663
66.80035,5.300005,391,136,494,498,0.03357029,-0.3156011,-0.1792139,-1.391003,-3.14157,-0.4012026,0.1870044,0.2886247,-0.02008766,-0.439102,-2.865004,2.351897
66.60036,5.311116,391,136,494,498,0.01293069,-0.3083659,-0.17431,-1.390739,-3.141197,-0.40494,0.1904086,0.3159745,-0.02745984,-0.4428698,-2.860284,2.345996
66.40036,5.322227,391,136,494,498,-0.01835898,-0.3043158,-0.1711698,-1.389452,-3.140515,-0.4086653,0.1781306,0.3049227,-0.02975494,-0.4458472,-2.856721,2.341614
66.20036,5.333339,391,136,494,498,-0.0137651,-0.3028477,-0.1770254,-1.389252,-3.140306,-0.4125279,0.167493,0.2927074,-0.02162892,-0.4483251,-2.852988,2.337043
66.00037,5.34445,391,136,494,498,-0.01451677,-0.3008591,-0.1877326,-1.388929,-3.140334,-0.4165919,0.1593373,0.2833109,-0.01731095,-0.4508215,-2.849871,2.332725
65.80037,5.355561,391,136,494,498,-0.01940891,-0.2973514,-0.1895132,-1.38861,-3.140228,-0.4205147,0.1579338,0.2697959,-0.02074003,-0.4535688,-2.846998,2.329024
65.60037,5.366673,391,136,494,498,-0.03307572,-0.298723,-0.1960431,-1.387995,-3.139865,-0.4247603,0.1587227,0.2641884,-0.01829048,-0.4563177,-2.843929,2.324969
65.40038,5.377784,391,136,494,498,-0.04950145,-0.3053607,-0.1933928,-1.387099,-3.139142,-0.4290949,0.1459702,0.2485692,-0.004540011,-0.4582512,-2.840788,2.321069
65.20038,5.388895,391,136,494,498,-0.06014007,-0.3069436,-0.1902253,-1.386248,-3.138654,-0.433145,0.1407531,0.24489,0.02771319,-0.4598901,-2.83618,2.315127
65.00038,5.400006,358,139,494,496,-0.05989796,-0.3087478,-0.1879221,-1.385503,-3.13801,-0.437208,0.1502743,0.2525614,0.04150225,-0.4623493,-2.831812,2.30907
64.80038,5.411118,358,139,494,496,-0.0604192,-0.3096691,-0.1887615,-1.384884,-3.137572,-0.4413231,0.1531384,0.2535043,0.03540359,-0.4649948,-2.828501,2.30454
64.60039,5.422229,358,139,494,496,-0.05626616,-0.3056046,-0.1888963,-1.384393,-3.136901,-0.4454648,0.1612263,0.2507144,0.01506813,-0.4676713,-2.826444,2.30128
64.40039,5.43334,358,139,494,496,-0.04433641,-0.2922852,-0.1901918,-1.384275,-3.136898,-0.449157,0.1688944,0.2501374,-0.004568502,-0.4705667,-2.824897,2.298513
64.20039,5.444451,342,142,512,499,-0.03230363,-0.2823238,-0.1939982,-1.384101,-3.136746,-0.4528279,0.170851,0.2378317,-0.004057601,-0.4730477,-2.822682,2.29503
64.0004,5.455563,342,142,512,499,-0.02203551,-0.2788475,-0.1909705,-1.384234,-3.136375,-0.4567406,0.1767101,0.2493799,0.003970981,-0.4759474,-2.819226,2.290248
63.8004,5.466674,342,142,512,499,-0.001172662,-0.2771907,-0.1972038,-1.384713,-3.136602,-0.4605676,0.1724003,0.2434193,0.01092076,-0.4783458,-2.816343,2.286174
63.6004,5.477785,342,142,512,499,0.006688535,-0.2726048,-0.194012,-1.38489,-3.136348,-0.4643919,0.1651302,0.243863,0.01459867,-0.4805354,-2.813573,2.282343
63.40039,5.488896,342,142,512,499,0.01025802,-0.2699715,-0.1920303,-1.385015,-3.136203,-0.4680021,0.1658636,0.2389355,0.01313275,-0.4831986,-2.811131,2.278713
63.20039,5.500008,342,142,512,499,0.01269674,-0.2650637,-0.187851,-1.385247,-3.13587,-0.4716325,0.1715166,0.2352945,-0.005045176,-0.4861702,-2.80949,2.276054
63.00039,5.511119,342,142,512,499,0.007931322,-0.2615376,-0.1875627,-1.385277,-3.13576,-0.4752219,0.170066,0.2295675,-0.01761162,-0.4889308,-2.807832,2.27353
62.80039,5.52223,342,142,512,499,0.008484364,-0.252968,-0.1881695,-1.385309,-3.135784,-0.4786031,0.1659061,0.2095968,-0.01355452,-0.4906773,-2.806948,2.271245
62.60039,5.533341,342,142,512,499,0.01086405,-0.2466698,-0.1926125,-1.38554,-3.135942,-0.4821078,0.1623747,0.2065091,0.000501588,-0.492754,-2.804094,2.267249
62.40039,5.544453,335,130,527,495,0.005648941,-0.2409111,-0.1916291,-1.385401,-3.135863,-0.485433,0.1687982,0.2212562,-0.002471432,-0.4953847,-2.802012,2.263691
62.20039,5.555564,335,130,527,495,-0.00234288,-0.2377867,-0.1858116,-1.385283,-3.135624,-0.4888184,0.1703486,0.2245987,-0.01841755,-0.498311,-2.80059,2.261408
62.00039,5.566675,335,130,527,495,-0.008507282,-0.238202,-0.1806096,-1.38494,-3.135322,-0.4921,0.1697553,0.2248809,-0.02321817,-0.5011233,-2.798799,2.258725
61.80039,5.577786,335,130,527,495,-0.02225581,-0.2364553,-0.1820102,-1.384486,-3.135056,-0.4957533,0.1754902,0.221173,-0.02907429,-0.5038168,-2.797177,2.25603
61.60039,5.588898,335,130,527,495,-0.02014536,-0.2361975,-0.1839307,-1.384219,-3.134958,-0.4990945,0.1622159,0.2047563,-0.009277634,-0.505558,-2.795526,2.253188
61.40039,5.600009,370,142,474,499,-0.008478791,-0.2283281,-0.1894517,-1.384504,-3.135214,-0.502368,0.1560378,0.1972267,0.0105699,-0.5072134,-2.792974,2.249375
61.20039,5.61112,370,142,474,499,-0.006884873,-0.2249779,-0.1900533,-1.384494,-3.135234,-0.5056235,0.1625806,0.2108552,0.007742271,-0.5100108,-2.790429,2.245775
61.00039,5.622231,370,142,474,499,-0.004051924,-0.2244362,-0.1788938,-1.384524,-3.134803,-0.5087362,0.1480309,0.2136845,0.0130609,-0.5122441,-2.787255,2.241806
60.80038,5.633343,370,142,474,499,0.001632601,-0.2203768,-0.1850759,-1.384642,-3.135022,-0.511997,0.1456636,0.2076623,0.006511204,-0.5145238,-2.785601,2.239433
60.60038,5.644454,370,142,474,499,0.0007537007,-0.2296289,-0.1907108,-1.384549,-3.134798,-0.5156359,0.1452996,0.2045567,0.01089598,-0.5160876,-2.784246,2.236723
60.40038,5.655565,396,145,510,504,-0.01031187,-0.2609096,-0.2253551,-1.384231,-3.134808,-0.5206256,0.1405379,0.1869199,0.01453592,-0.5173025,-2.78376,2.23492
60.20038,5.666677,396,145,510,504,-0.006106883,-0.2888657,-0.2547046,-1.384065,-3.134892,-0.5259615,0.1368523,0.1793644,0.02411459,-0.5189787,-2.781806,2.231877
60.00038,5.677788,396,145,510,504,-0.007901549,-0.3183252,-0.269708,-1.383961,-3.134376,-0.5315691,0.1470391,0.1848333,0.04286064,-0.5208051,-2.779171,2.22783
59.80038,5.688899,396,145,510,504,-0.02468148,-0.2903479,-0.2363967,-1.383194,-3.133826,-0.5345939,0.1637109,0.2035105,0.04041326,-0.5236691,-2.776684,2.223853
59.60038,5.70001,395,150,490,494,-0.04310426,-0.2444693,-0.1752197,-1.382363,-3.13277,-0.5358509,0.1799194,0.2233863,0.01600535,-0.5270774,-2.775199,2.221283
59.40038,5.711122,395,150,490,494,-0.03780276,-0.2518757,-0.1780184,-1.382226,-3.132258,-0.5397221,0.1954827,0.2226792,-0.01029542,-0.5306652,-2.774746,2.219872
59.20038,5.722233,395,150,490,494,-0.02366969,-0.2499515,-0.1938715,-1.382208,-3.132284,-0.5435948,0.210518,0.2078351,-0.03823479,-0.5341412,-2.77545,2.21941
59.00038,5.733344,395,150,490,494,-0.0215781,-0.248721,-0.1952531,-1.382023,-3.132029,-0.5472146,0.2019273,0.1812159,-0.03266655,-0.5362024,-2.775422,2.218339
58.80038,5.744455,395,150,490,494,-0.0112851,-0.2459927,-0.2072448,-1.381992,-3.132164,-0.5509601,0.1977098,0.1788072,-0.01427938,-0.5385737,-2.773888,2.215342
58.60038,5.755567,380,154,499,497,-0.004992396,-0.253661,-0.2112234,-1.382204,-3.131906,-0.5549048,0.1973903,0.1927184,0.000956893,-0.5413136,-2.771533,2.211534
58.40038,5.766678,380,154,499,497,-0.000837177,-0.2595116,-0.2173284,-1.382235,-3.131752,-0.5590028,0.1886481,0.2031029,0.01086551,-0.5440412,-2.768972,2.20793
58.20037,5.777789,380,154,499,497,-0.002375603,-0.2662636,-0.2071998,-1.382218,-3.130888,-0.5628766,0.1846817,0.2180825,0.007933289,-0.5469845,-2.766798,2.204915
58.00037,5.7889,380,154,499,497,-0.01055464,-0.2727889,-0.1962899,-1.381986,-3.130052,-0.5666733,0.1805525,0.2266021,0.004803866,-0.5498932,-2.764576,2.201832
57.80037,5.800012,362,151,499,498,-0.01726168,-0.2709835,-0.2004051,-1.381597,-3.129582,-0.5705615,0.1755179,0.2262796,-0.002866045,-0.5528557,-2.76307,2.199701
57.60037,5.811123,362,151,499,498,-0.02131546,-0.2770423,-0.2038209,-1.381398,-3.128984,-0.5745914,0.1768539,0.2127154,-0.002824962,-0.5553532,-2.762317,2.19777
57.40037,5.822234,362,151,499,498,-0.02897891,-0.2802088,-0.2089794,-1.380942,-3.128235,-0.5788439,0.1832458,0.1903552,0.016018,-0.5573655,-2.761286,2.195063
57.20037,5.833345,362,151,499,498,-0.03576213,-0.2854584,-0.2134653,-1.380378,-3.127561,-0.5830086,0.1919853,0.1930233,0.01895043,-0.5601741,-2.759827,2.192152
57.00037,5.844457,362,151,499,498,-0.04205036,-0.296027,-0.2186667,-1.379768,-3.126604,-0.5875242,0.1991513,0.196928,0.009760261,-0.5631899,-2.758762,2.189852
56.80037,5.855568,339,129,516,498,-0.04925382,-0.3068866,-0.2237057,-1.379131,-3.125725,-0.5921022,0.1952782,0.2063928,0.004933998,-0.566073,-2.757018,2.187135
56.60037,5.866679,339,129,516,498,-0.06656423,-0.3194975,-0.226259,-1.378038,-3.12444,-0.5969566,0.1820138,0.2221568,0.002735391,-0.5689875,-2.754468,2.184027
56.40037,5.87779,339,129,516,498,-0.08123982,-0.3252472,-0.2235729,-1.376872,-3.123231,-0.6015053,0.1728258,0.2302594,0.006368473,-0.5718217,-2.75199,2.180887
56.20037,5.888902,339,129,516,498,-0.09008861,-0.3251475,-0.2218679,-1.375614,-3.122052,-0.6058356,0.1584818,0.2267007,0.02477205,-0.5738415,-2.749072,2.177094
56.00037,5.900013,360,129,509,498,-0.07653296,-0.3196123,-0.2284136,-1.375286,-3.121304,-0.6102793,0.1482771,0.2249178,0.04666357,-0.5757504,-2.745894,2.172851
55.80037,5.911124,360,129,509,498,-0.06059355,-0.3000248,-0.2288944,-1.375048,-3.121061,-0.6141601,0.1493779,0.2372997,0.06931617,-0.5780647,-2.741864,2.167562
55.60036,5.922235,360,129,509,498,-0.05665284,-0.2849613,-0.2109666,-1.374599,-3.120076,-0.6175599,0.15709,0.2412681,0.06311926,-0.5808567,-2.739316,2.163912
55.40036,5.933347,360,129,509,498,-0.06177312,-0.2854929,-0.2083033,-1.373781,-3.119115,-0.6216063,0.1691563,0.240173,0.0475366,-0.5838161,-2.737632,2.161152
55.20036,5.944458,360,129,509,498,-0.08163878,-0.3060108,-0.2099728,-1.372579,-3.11738,-0.6263158,0.1608973,0.2480697,0.04872967,-0.5865042,-2.73449,2.157289
55.00036,5.955569,397,118,545,499,-0.0951992,-0.3202088,-0.2231078,-1.371333,-3.116109,-0.631264,0.151165,0.245765,0.05309758,-0.5887669,-2.731665,2.153755
54.80036,5.966681,397,118,545,499,-0.1165405,-0.3480486,-0.2462256,-1.36946,-3.114475,-0.6370777,0.1372712,0.2495356,0.077357,-0.5906838,-2.727466,2.148639
54.60036,5.977792,397,118,545,499,-0.1246427,-0.3439994,-0.2368843,-1.368122,-3.11293,-0.6415854,0.1346685,0.2523133,0.1054458,-0.5925502,-2.723324,2.143149
54.40036,5.988903,397,118,545,499,-0.1433407,-0.3230339,-0.2118588,-1.366237,-3.111356,-0.6450964,0.1384061,0.2512157,0.1073739,-0.5948394,-2.719943,2.138595
54.20036,6.000014,397,118,545,499,-0.1501148,-0.3048596,-0.1978385,-1.364536,-3.109941,-0.6486555,0.1245728,0.2613328,0.1157897,-0.597248,-2.715266,2.13349
54.00036,6.011126,366,123,505,496,-0.1529025,-0.3052493,-0.1999836,-1.362932,-3.108498,-0.6528622,0.117826,0.2747661,0.1299866,-0.5994472,-2.71014,2.127506
53.80036,6.022237,366,123,505,496,-0.1609727,-0.324284,-0.2105791,-1.361038,-3.106578,-0.6577763,0.1101798,0.2778379,0.1481928,-0.6013119,-2.704933,2.121318
53.60036,6.033348,366,123,505,496,-0.1748015,-0.3582662,-0.2400627,-1.358859,-3.104535,-0.6638749,0.1039576,0.2795346,0.1543831,-0.6032758,-2.69997,2.11555
53.40036,6.044459,366,123,505,496,-0.1863753,-0.3775772,-0.2623478,-1.35664,-3.102523,-0.6699017,0.08674234,0.2875344,0.1751095,-0.6049141,-2.693859,2.108736
53.20036,6.055571,391,135,498,503,-0.1907486,-0.3718361,-0.2590219,-1.354593,-3.100783,-0.6748093,0.08631411,0.2837698,0.1719468,-0.6069285,-2.689042,2.103272
53.00035,6.066682,391,135,498,503,-0.1945864,-0.3471054,-0.2406445,-1.35245,-3.09909,-0.6787295,0.08954048,0.2944414,0.1811921,-0.6090452,-2.683296,2.096682
52.80035,6.077793,391,135,498,503,-0.1809646,-0.335781,-0.2306963,-1.351071,-3.097395,-0.6829693,0.1028244,0.3031535,0.1732588,-0.6117616,-2.67852,2.09098
52.60035,6.088904,391,135,498,503,-0.1543384,-0.3251194,-0.2259533,-1.350205,-3.095984,-0.6870945,0.1085518,0.2925265,0.1616821,-0.6140776,-2.674652,2.086195
52.40035,6.100016,391,135,498,503,-0.1176494,-0.3212774,-0.2435049,-1.34995,-3.095006,-0.6920176,0.1170379,0.2642178,0.1471672,-0.6160179,-2.671947,2.08236
52.20035,6.111127,404,125,477,498,-0.09582222,-0.3181288,-0.2600306,-1.349309,-3.094072,-0.6968939,0.1315339,0.2386257,0.1332683,-0.6181532,-2.670027,2.078903
52.00035,6.122238,404,125,477,498,-0.07332242,-0.3055496,-0.2713702,-1.349003,-3.093397,-0.7015539,0.1515143,0.2143523,0.1012322,-0.6209975,-2.669165,2.076836
51.80035,6.133349,404,125,477,498,-0.06183258,-0.29674,-0.2764016,-1.34853,-3.092739,-0.7060189,0.1591895,0.203558,0.08294038,-0.6234146,-2.667961,2.074505
51.60035,6.144461,404,125,477,498,-0.03084141,-0.2690419,-0.2740176,-1.348906,-3.092715,-0.7098309,0.159482,0.2092901,0.0773968,-0.6262833,-2.66553,2.071347
51.40035,6.155572,364,131,506,500,-0.01886243,-0.2536906,-0.2649146,-1.348942,-3.092252,-0.7134667,0.1733036,0.2337309,0.09248966,-0.6293423,-2.662287,2.066667
51.20035,6.166683,364,131,506,500,0.003312916,-0.2417011,-0.2592286,-1.349475,-3.092047,-0.7171286,0.176088,0.2507132,0.09891906,-0.6324731,-2.658663,2.062055
51.00035,6.177794,364,131,506,500,0.025406,-0.2399578,-0.2671927,-1.3502,-3.091933,-0.7213795,0.1716793,0.2769783,0.1239853,-0.6354547,-2.653794,2.056048
50.80035,6.188906,364,131,506,500,0.0315991,-0.2361535,-0.2763043,-1.35054,-3.091896,-0.725567,0.1516882,0.2588622,0.1321079,-0.6372774,-2.650361,2.051644
50.60035,6.200017,364,131,506,500,0.02741206,-0.2347387,-0.2790545,-1.350598,-3.091585,-0.7297999,0.145785,0.2507453,0.1237931,-0.6394692,-2.647691,2.04813
50.40034,6.211128,385,125,498,497,0.02276281,-0.2285604,-0.2746972,-1.350685,-3.091265,-0.7335187,0.1533079,0.2470745,0.1132718,-0.6421947,-2.645284,2.044701
50.20034,6.222239,385,125,498,497,0.01279926,-0.2281035,-0.2561986,-1.350585,-3.090486,-0.7370607,0.1600288,0.2334451,0.08699191,-0.6451737,-2.643835,2.042515
50.00034,6.233351,385,125,498,497,0.01148337,-0.2269867,-0.2533422,-1.350624,-3.090036,-0.7408792,0.1683324,0.2267468,0.08517241,-0.647693,-2.641869,2.039402
49.80034,6.244462,385,125,498,497,0.01906571,-0.2237734,-0.2669728,-1.350896,-3.08984,-0.7450364,0.178039,0.2169586,0.09435983,-0.6501229,-2.640027,2.035893
49.60034,6.255573,352,110,515,503,0.01484975,-0.2275473,-0.2829297,-1.350876,-3.089683,-0.749421,0.1902883,0.2225982,0.09773172,-0.653185,-2.637631,2.032002
49.40034,6.266685,352,110,515,503,0.004580081,-0.2275028,-0.2876208,-1.350511,-3.089351,-0.7536266,0.198116,0.2129088,0.08721271,-0.6559456,-2.636398,2.029486
49.20034,6.277796,352,110,515,503,-0.019041,-0.2413203,-0.291556,-1.34971,-3.088279,-0.758284,0.1996621,0.2068789,0.08135912,-0.6585859,-2.635146,2.026897
49.00034,6.288907,352,110,515,503,-0.04062548,-0.2549658,-0.2930978,-1.348643,-3.087111,-0.7630202,0.1948981,0.2057212,0.06483763,-0.6613545,-2.63385,2.024976
48.80034,6.300018,352,110,515,503,-0.09243625,-0.2875612,-0.2896107,-1.346595,-3.084826,-0.7682964,0.188105,0.2196389,0.07322991,-0.6641263,-2.63113,2.021327
48.60034,6.31113,379,134,497,498,-0.1200394,-0.3080135,-0.2878827,-1.344739,-3.082723,-0.7734086,0.181565,0.2274638,0.09130254,-0.6667203,-2.628292,2.017325
48.40034,6.322241,379,134,497,498,-0.1582036,-0.3306389,-0.2936329,-1.342203,-3.080082,-0.7790146,0.1559247,0.20169,0.1115219,-0.6678957,-2.625779,2.013639
48.20034,6.333352,379,134,497,498,-0.1846169,-0.3541201,-0.3048033,-1.339782,-3.077527,-0.7848682,0.149861,0.2003431,0.1296943,-0.6697243,-2.622907,2.009379
48.00034,6.344463,379,134,497,498,-0.1943156,-0.3636558,-0.3048781,-1.337585,-3.075003,-0.7904305,0.1493409,0.2094683,0.1486853,-0.6718644,-2.619519,2.004548
47.80033,6.355575,379,134,497,498,-0.1864773,-0.360091,-0.2953399,-1.336016,-3.072717,-0.7952806,0.145696,0.2350734,0.157533,-0.6746075,-2.615515,1.999488
47.60033,6.366686,358,128,502,498,-0.1818635,-0.3574997,-0.2905305,-1.334297,-3.070398,-0.8003454,0.1461392,0.2436551,0.1576709,-0.6771641,-2.612008,1.994971
47.40033,6.377797,358,128,502,498,-0.1678166,-0.350511,-0.2875563,-1.332835,-3.068314,-0.8052424,0.1485534,0.2517607,0.1617773,-0.6797905,-2.608523,1.990348
47.20033,6.388908,358,128,502,498,-0.1373807,-0.3484309,-0.3001847,-1.332195,-3.066594,-0.8107722,0.154093,0.250198,0.160965,-0.6821884,-2.605658,1.986194
47.00033,6.40002,358,128,502,498,-0.1115836,-0.3476641,-0.3147216,-1.331594,-3.06495,-0.8163654,0.1641472,0.2455504,0.1600317,-0.6848031,-2.602875,1.981976
46.80033,6.411131,320,145,496,497,-0.09246045,-0.3438985,-0.3288502,-1.331023,-3.063415,-0.8220411,0.1716927,0.2406455,0.1582139,-0.6874338,-2.600226,1.977938
46.60033,6.422242,320,145,496,497,-0.06100607,-0.3338273,-0.3490265,-1.331076,-3.062359,-0.827768,0.1839111,0.2215464,0.1475377,-0.6898999,-2.598807,1.974802
46.40033,6.433353,320,145,496,497,-0.0309667,-0.3242601,-0.3614532,-1.331435,-3.061529,-0.8333585,0.1927382,0.2191923,0.1425739,-0.6925678,-2.596631,1.971191
46.20033,6.444465,320,145,496,497,0.03120732,-0.3344302,-0.422878,-1.333113,-3.061299,-0.8411951,0.2013037,0.2245867,0.1497653,-0.695501,-2.59375,1.966652
46.00033,6.455576,320,145,496,497,0.03952861,-0.297953,-0.3889688,-1.333543,-3.060716,-0.8453699,0.2087174,0.2345198,0.148076,-0.6986851,-2.591241,1.962629
45.80033,6.466687,408,138,495,494,0.06130692,-0.2684217,-0.3297028,-1.334881,-3.059978,-0.8483718,0.2172198,0.2268476,0.1338586,-0.7017515,-2.589833,1.959666
45.60033,6.477798,408,138,495,494,0.08542347,-0.2417549,-0.3159376,-1.336309,-3.059967,-0.8522968,0.2297489,0.2142743,0.1083645,-0.7047443,-2.589478,1.957675
45.40033,6.48891,408,138,495,494,0.1019445,-0.2295384,-0.3167299,-1.337714,-3.059944,-0.8565136,0.2329411,0.199297,0.08924501,-0.7077287,-2.589091,1.955932
45.20033,6.500021,408,138,495,494,0.1473988,-0.199359,-0.3298414,-1.340161,-3.061141,-0.8607368,0.2315465,0.1922971,0.08941618,-0.7105223,-2.588125,1.953396
45.00032,6.511132,323,121,505,503,0.1566227,-0.1843083,-0.3348457,-1.341819,-3.061829,-0.8649462,0.2297601,0.1946982,0.08701269,-0.7134225,-2.586849,1.950829
44.80032,6.522243,323,121,505,503,0.1636738,-0.1735702,-0.3388726,-1.343379,-3.062564,-0.8689405,0.2317647,0.1895947,0.08652049,-0.7162476,-2.585986,1.948374
44.60032,6.533355,323,121,505,503,0.1610982,-0.1696809,-0.3375265,-1.344869,-3.062999,-0.8730268,0.2357673,0.1855497,0.08080167,-0.7192261,-2.58539,1.94624
44.40032,6.544466,323,121,505,503,0.1478022,-0.1772064,-0.3369616,-1.345906,-3.062924,-0.8774221,0.2365637,0.1672193,0.06649089,-0.7218967,-2.58559,1.945136
44.20032,6.555577,323,121,505,503,0.1269824,-0.186195,-0.3289647,-1.346647,-3.062531,-0.8815495,0.2391564,0.1557011,0.06225988,-0.7244347,-2.585577,1.943583
44.00032,6.566689,361,139,519,496,0.1123841,-0.1879331,-0.3231049,-1.347353,-3.062243,-0.8856806,0.2394765,0.1432926,0.06476837,-0.7268155,-2.585359,1.941666
43.80032,6.5778,361,139,519,496,0.1014625,-0.1847286,-0.3194934,-1.348137,-3.062233,-0.8896689,0.2208019,0.1415547,0.07019345,-0.7289211,-2.584388,1.939489
43.60032,6.588911,361,139,519,496,0.07947114,-0.1810222,-0.3012925,-1.348446,-3.061865,-0.8931875,0.2128085,0.1573271,0.07845964,-0.7316071,-2.582796,1.936724
43.40032,6.600022,361,139,519,496,0.06640428,-0.1847417,-0.2944338,-1.348793,-3.061336,-0.8970022,0.2170443,0.1749792,0.08013472,-0.7347363,-2.581496,1.934095
43.20032,6.611134,361,139,519,496,0.03945327,-0.1959988,-0.2800808,-1.348544,-3.060138,-0.9007652,0.2158806,0.175459,0.06723604,-0.7376152,-2.581003,1.932546
43.00032,6.622245,411,121,516,500,0.0103898,-0.2156403,-0.271525,-1.348064,-3.058662,-0.9049086,0.2173859,0.1620347,0.06314111,-0.7401047,-2.580905,1.931005
42.80032,6.633356,411,121,516,500,-0.009580851,-0.2188215,-0.2680064,-1.347564,-3.057499,-0.908727,0.2120375,0.1347291,0.06758451,-0.7418214,-2.581125,1.929452
42.60032,6.644467,411,121,516,500,-0.0387111,-0.2241951,-0.2641507,-1.346436,-3.055909,-0.912702,0.2012524,0.1272584,0.0773757,-0.7434555,-2.580458,1.927201
42.40031,6.655579,411,121,516,500,-0.04518729,-0.2186353,-0.2616374,-1.345942,-3.054993,-0.9163703,0.1899437,0.1258138,0.08255846,-0.7454166,-2.579634,1.925147
42.20031,6.66669,332,107,504,498,-0.05409244,-0.215003,-0.258404,-1.345157,-3.053797,-0.9200689,0.1765438,0.124083,0.08368544,-0.7471712,-2.57871,1.923156
42.00031,6.677801,332,107,504,498,-0.05534506,-0.2131726,-0.2573946,-1.344612,-3.052693,-0.9237973,0.1663948,0.1281275,0.08825716,-0.7490156,-2.577382,1.920812
41.80031,6.688912,332,107,504,498,-0.06077486,-0.223764,-0.2769202,-1.343814,-3.051354,-0.9284765,0.1567744,0.1280001,0.1071125,-0.7506151,-2.575789,1.91784
41.60031,6.700024,332,107,504,498,-0.06960359,-0.2488763,-0.3173175,-1.342785,-3.04967,-0.9345629,0.1634218,0.1205603,0.1089142,-0.752458,-2.575088,1.915529
41.40031,6.711135,332,107,504,498,-0.07781973,-0.2427405,-0.3106123,-1.341746,-3.048296,-0.9388452,0.1707528,0.1063522,0.1055426,-0.7540261,-2.574824,1.913644
41.20031,6.722246,384,121,487,499,-0.08135238,-0.2307808,-0.2839212,-1.340913,-3.046907,-0.9420229,0.1774701,0.1050699,0.09062488,-0.7562866,-2.574714,1.912318
41.00031,6.733357,384,121,487,499,-0.08634967,-0.2157079,-0.2469919,-1.339999,-3.045475,-0.9444906,0.1804718,0.1134616,0.08243857,-0.7585844,-2.574178,1.910677
40.80031,6.744469,384,121,487,499,-0.06910744,-0.1889564,-0.2308225,-1.339489,-3.044915,-0.9468986,0.1679084,0.1223272,0.08068102,-0.7606809,-2.572851,1.908664
40.60031,6.75558,384,121,487,499,-0.06302187,-0.1868901,-0.2375007,-1.338834,-3.043884,-0.9505711,0.1575615,0.1171232,0.08629487,-0.7621583,-2.57185,1.906614
40.40031,6.766691,358,111,525,501,-0.05118337,-0.189218,-0.2419508,-1.338706,-3.042826,-0.9542474,0.1515896,0.1163419,0.104859,-0.7637573,-2.5706,1.903832
40.20031,6.777802,358,111,525,501,-0.04844686,-0.1885866,-0.2447288,-1.33827,-3.04159,-0.9579087,0.1545144,0.1181241,0.1066033,-0.7656412,-2.569578,1.901505
40.00031,6.788914,358,111,525,501,-0.0375047,-0.1890903,-0.2683845,-1.338032,-3.040895,-0.9621782,0.1543381,0.1203969,0.1079058,-0.7675284,-2.568566,1.899133
39.8003,6.800025,358,111,525,501,-0.02836877,-0.1824377,-0.2868282,-1.337925,-3.040335,-0.9663919,0.1523056,0.1123066,0.1019096,-0.7691603,-2.567959,1.897306
39.6003,6.811136,358,111,525,501,-0.01206958,-0.1657019,-0.2994404,-1.338048,-3.040412,-0.9703361,0.150624,0.1041494,0.09826866,-0.7707912,-2.567509,1.895468
39.4003,6.822248,338,134,500,498,-0.005683154,-0.1430126,-0.2644487,-1.338226,-3.040087,-0.972678,0.1532602,0.1094163,0.09340186,-0.7727045,-2.566756,1.89363
39.2003,6.833359,338,134,500,498,-0.002635956,-0.134565,-0.2504763,-1.338156,-3.039617,-0.975468,0.1623451,0.1159943,0.09149674,-0.7749719,-2.566053,1.891563
39.0003,6.84447,338,134,500,498,0.002348334,-0.1410017,-0.2570176,-1.338243,-3.039043,-0.978995,0.1716381,0.1220554,0.08281778,-0.7774587,-2.565483,1.889973
38.8003,6.855581,338,134,500,498,0.007317305,-0.1437581,-0.2626935,-1.338339,-3.038543,-0.9826835,0.1733671,0.1158802,0.08552055,-0.7793991,-2.564879,1.887995
38.6003,6.866693,410,134,480,496,0.00223574,-0.148535,-0.2636787,-1.338281,-3.037943,-0.9861819,0.1763314,0.1139836,0.09011032,-0.7813874,-2.564208,1.885822
38.4003,6.877804,410,134,480,496,0.006444186,-0.1455544,-0.2692368,-1.338356,-3.037578,-0.9897276,0.1741736,0.1174762,0.09175341,-0.7834812,-2.563308,1.883789
38.2003,6.888915,410,134,480,496,0.01872867,-0.1379089,-0.2725588,-1.338772,-3.037541,-0.9932259,0.1616266,0.1212747,0.09729504,-0.7851909,-2.561879,1.881393
38.0003,6.900026,410,134,480,496,0.0279122,-0.1344694,-0.2745083,-1.3392,-3.037343,-0.9967008,0.1512026,0.1408509,0.1170079,-0.7874051,-2.559491,1.878099
37.8003,6.911138,410,134,480,496,0.03568438,-0.1316811,-0.278551,-1.339628,-3.037145,-1.000192,0.1559734,0.1608192,0.1302575,-0.7899404,-2.557233,1.874742
37.6003,6.922249,410,134,480,496,0.03531447,-0.1487597,-0.2783802,-1.340034,-3.036174,-1.004038,0.1626964,0.1551782,0.1327802,-0.7920976,-2.555886,1.871987
37.4003,6.93336,410,134,480,496,0.0305782,-0.163028,-0.2795666,-1.340229,-3.035009,-1.007964,0.1665984,0.1368423,0.1236816,-0.793956,-2.555436,1.870174
37.20029,6.944471,410,134,480,496,0.018457,-0.1875066,-0.2902776,-1.340244,-3.033433,-1.012506,0.1868646,0.113354,0.1199289,-0.7960764,-2.555501,1.868165
37.00029,6.955583,410,134,480,496,0.009883672,-0.1940128,-0.319424,-1.340097,-3.032565,-1.017478,0.1859768,0.1045355,0.1180893,-0.7979033,-2.555104,1.866105
36.80029,6.966694,410,134,480,496,0.008853823,-0.2075124,-0.3120238,-1.340265,-3.031014,-1.021757,0.1775422,0.09205109,0.1233544,-0.7992226,-2.554543,1.863721
36.60029,6.977805,310,96,484,499,0.009591579,-0.2217116,-0.3066651,-1.340577,-3.029269,-1.026062,0.1832392,0.09217489,0.1334238,-0.8011587,-2.553794,1.861011
36.40029,6.988916,310,96,484,499,0.01664761,-0.2267242,-0.3130369,-1.340967,-3.027966,-1.030738,0.1886337,0.08064592,0.1359135,-0.8028376,-2.553567,1.858632
36.20029,7.000028,310,96,484,499,0.01244438,-0.2325023,-0.3187364,-1.341071,-3.026434,-1.035362,0.2084292,0.09002656,0.1099207,-0.8054976,-2.553847,1.857333
36.00029,7.011139,310,96,484,499,0.01413777,-0.2336697,-0.325575,-1.341355,-3.025057,-1.040085,0.2329929,0.09615482,0.08288562,-0.8085879,-2.554768,1.856606
35.80029,7.02225,307,94,509,499,0.01511925,-0.233219,-0.3352045,-1.341593,-3.023744,-1.044958,0.2378373,0.1048505,0.05033886,-0.8116138,-2.555552,1.856467
35.60029,7.033361,307,94,509,499,0.0221177,-0.2283865,-0.3334531,-1.342049,-3.022449,-1.049412,0.2258181,0.1082145,0.04365233,-0.8140463,-2.555727,1.855458
35.40029,7.044473,307,94,509,499,0.03649622,-0.2122716,-0.3289915,-1.34274,-3.021671,-1.053504,0.1991715,0.112261,0.05686946,-0.8158392,-2.554712,1.853637
35.20029,7.055584,307,94,509,499,0.04273808,-0.2084802,-0.3279795,-1.343461,-3.020652,-1.057917,0.1819317,0.1207103,0.07769004,-0.8177603,-2.553257,1.851058
35.00029,7.066695,307,94,509,499,0.037231,-0.1985894,-0.3282777,-1.34362,-3.019773,-1.062196,0.1662892,0.1185347,0.08496835,-0.8193939,-2.552428,1.849199
34.80029,7.077806,352,92,520,498,0.01624155,-0.207588,-0.3195538,-1.343377,-3.018195,-1.066329,0.1565681,0.1233797,0.07971838,-0.8213045,-2.551514,1.84768
34.60028,7.088918,352,92,520,498,0.005853653,-0.2121508,-0.3193741,-1.343337,-3.01668,-1.070759,0.1513053,0.1440526,0.08881205,-0.8236853,-2.54966,1.845425
34.40028,7.100029,352,92,520,498,-0.007181406,-0.2210579,-0.3171262,-1.343124,-3.014804,-1.075267,0.1399695,0.1451708,0.1138905,-0.8253695,-2.547626,1.842374
34.20028,7.11114,352,92,520,498,-0.01450026,-0.2261648,-0.3134438,-1.34296,-3.012991,-1.079609,0.1352679,0.1422217,0.1236615,-0.8270169,-2.546113,1.839704
34.00028,7.122252,369,93,469,500,-0.00916028,-0.2219387,-0.3071052,-1.343172,-3.011498,-1.083701,0.132971,0.1369962,0.1210527,-0.8287118,-2.544844,1.83754
33.80028,7.133363,369,93,469,500,-0.00812763,-0.2217372,-0.2966087,-1.343254,-3.009744,-1.087578,0.13508,0.1299075,0.1178811,-0.8304077,-2.54398,1.835568
33.60028,7.144474,369,93,469,500,0.008487165,-0.204036,-0.2863843,-1.343786,-3.008832,-1.091065,0.1370509,0.1201174,0.1112716,-0.8320541,-2.543312,1.833842
33.40028,7.155585,369,93,469,500,0.007127643,-0.1999401,-0.286903,-1.343836,-3.007501,-1.095003,0.14208,0.1178359,0.1170488,-0.8338906,-2.542332,1.831615
33.20028,7.166697,369,93,469,500,-0.001309633,-0.2085405,-0.2824378,-1.343769,-3.00567,-1.099003,0.1518997,0.1145044,0.1198988,-0.8358624,-2.541404,1.829341
33.00028,7.177808,396,92,482,499,-0.0217852,-0.2239181,-0.2781922,-1.343287,-3.003393,-1.102964,0.1703063,0.1097293,0.1151072,-0.8381463,-2.541151,1.827468
32.80028,7.188919,396,92,482,499,-0.03382996,-0.2316499,-0.2776984,-1.342879,-3.001212,-1.107072,0.1766701,0.1045122,0.1116088,-0.8401783,-2.540737,1.825603
32.60028,7.20003,396,92,482,499,-0.04153392,-0.2364994,-0.2799284,-1.342462,-2.999045,-1.111224,0.1760848,0.1002906,0.1045502,-0.8420905,-2.54042,1.824009
32.40028,7.211142,396,92,482,499,-0.05808839,-0.2376844,-0.2792339,-1.341587,-2.996869,-1.115312,0.1691634,0.09551813,0.0981135,-0.8437811,-2.53988,1.82238
32.20028,7.222253,396,92,482,499,-0.05432069,-0.2247267,-0.2838008,-1.341137,-2.995368,-1.119208,0.1463059,0.09256342,0.1019319,-0.844996,-2.538823,1.820469
32.00027,7.233364,386,95,507,499,-0.05068004,-0.2107063,-0.290695,-1.340765,-2.994045,-1.123258,0.1297226,0.08996129,0.09741975,-0.8462551,-2.537965,1.818892
31.80027,7.244475,386,95,507,499,-0.04976499,-0.1942574,-0.29597,-1.340351,-2.992802,-1.127357,0.1300763,0.09093823,0.1004135,-0.8478104,-2.537128,1.817005
31.60027,7.255587,386,95,507,499,-0.04725412,-0.195523,-0.3016199,-1.340013,-2.991067,-1.131583,0.1366497,0.09521372,0.103854,-0.8496411,-2.53632,1.815115
31.40027,7.266698,386,95,507,499,-0.05686209,-0.202825,-0.3035099,-1.339261,-2.98906,-1.135887,0.1458577,0.09063514,0.1053455,-0.8514222,-2.53589,1.813266
31.20027,7.277809,378,93,506,499,-0.0646086,-0.2110084,-0.3106418,-1.338553,-2.986994,-1.140277,0.1598834,0.08872695,0.1002464,-0.8534893,-2.535876,1.811913
31.00027,7.28892,378,93,506,499,-0.08294499,-0.2249683,-0.3130763,-1.337384,-2.984411,-1.144755,0.1616198,0.07989268,0.0889375,-0.8550787,-2.53613,1.810981
30.80027,7.300032,378,93,506,499,-0.090802,-0.2277421,-0.3128274,-1.336398,-2.982106,-1.149149,0.1584577,0.0751707,0.08541258,-0.8566697,-2.536005,1.809691
30.60027,7.311143,378,93,506,499,-0.09083612,-0.2253906,-0.319611,-1.335625,-2.980187,-1.153656,0.1493541,0.07145372,0.09153926,-0.8579586,-2.53552,1.807991
30.40027,7.322254,378,93,506,499,-0.08564676,-0.203991,-0.3239991,-1.334872,-2.978949,-1.157828,0.1341783,0.09383269,0.1215461,-0.8594511,-2.5332,1.804735
30.20027,7.333365,343,104,492,498,-0.082513,-0.189182,-0.3293377,-1.334063,-2.977659,-1.162111,0.1326293,0.1021108,0.1345454,-0.8610378,-2.531595,1.801939
30.00027,7.344477,343,104,492,498,-0.06541449,-0.1758925,-0.3377257,-1.333765,-2.976596,-1.166476,0.1495054,0.09784906,0.1349379,-0.8631406,-2.531051,1.799625
29.80027,7.355588,343,104,492,498,-0.06055555,-0.1768525,-0.3422052,-1.333354,-2.974954,-1.17095,0.1434233,0.07708284,0.1143497,-0.8643146,-2.531414,1.798759
29.60027,7.366699,343,104,492,498,-0.06597185,-0.1753726,-0.3466845,-1.332463,-2.973375,-1.175526,0.1467396,0.05994833,0.1016374,-0.8654661,-2.531705,1.797726
29.40026,7.37781,292,110,499,499,-0.07933736,-0.1841925,-0.3544095,-1.331401,-2.971308,-1.180327,0.1533468,0.04583574,0.0959399,-0.8668584,-2.532166,1.796515
29.20026,7.388922,292,110,499,499,-0.09477463,-0.2214363,-0.3485051,-1.330327,-2.967886,-1.185184,0.1462209,0.03619602,0.09491482,-0.8678566,-2.532201,1.795133
29.00026,7.400033,292,110,499,499,-0.124253,-0.2306357,-0.3458143,-1.328531,-2.965149,-1.189784,0.1475754,0.0350085,0.1015542,-0.8691365,-2.532109,1.793403
28.80026,7.411144,292,110,499,499,-0.130334,-0.2293259,-0.3453726,-1.327165,-2.962841,-1.194407,0.1545978,0.03588431,0.1049093,-0.8705719,-2.532285,1.791784
28.60026,7.422256,292,110,499,499,-0.1260247,-0.221438,-0.3494161,-1.326002,-2.960631,-1.199096,0.1779909,0.03941737,0.1013001,-0.8727818,-2.532781,1.790292
28.40026,7.433367,280,112,492,496,-0.1153651,-0.2143053,-0.3560628,-1.325163,-2.958652,-1.20387,0.1821076,0.03545588,0.09813956,-0.8745326,-2.533443,1.789099
28.20026,7.444478,280,112,492,496,-0.0947842,-0.1997369,-0.3617228,-1.324661,-2.957086,-1.208506,0.1714159,0.03020202,0.1004259,-0.8757816,-2.533543,1.787561
28.00026,7.455589,280,112,492,496,-0.07307479,-0.1833888,-0.3683975,-1.324405,-2.955873,-1.213166,0.1569718,0.03290657,0.1199225,-0.8765534,-2.532622,1.785117
27.80026,7.466701,280,112,492,496,-0.05733818,-0.1728588,-0.3703585,-1.32416,-2.954515,-1.217847,0.1572469,0.03879875,0.1498155,-0.8778285,-2.531611,1.781954
27.60026,7.477812,281,104,487,499,-0.04781556,-0.1593427,-0.3696617,-1.323851,-2.953312,-1.222273,0.1588333,0.04006065,0.1598687,-0.8792533,-2.530962,1.779204
27.40026,7.488923,281,104,487,499,-0.03655422,-0.1470406,-0.3696841,-1.323656,-2.952365,-1.22672,0.1599946,0.03714689,0.1597716,-0.8806248,-2.530654,1.776877
27.20026,7.500034,281,104,487,499,-0.01763296,-0.1283939,-0.3685973,-1.323816,-2.951743,-1.231006,0.1771867,0.02699178,0.1466994,-0.8824241,-2.531636,1.7755
27.00026,7.511146,281,104,487,499,-0.008290887,-0.121316,-0.3723186,-1.323739,-2.950836,-1.235585,0.1885328,0.0218733,0.1371514,-0.8840693,-2.531944,1.77372
26.80025,7.522257,281,104,487,499,0.01684228,-0.1094146,-0.377504,-1.324449,-2.950458,-1.240121,0.2089956,0.01006936,0.1257888,-0.8860614,-2.533269,1.772428
26.60025,7.533368,328,118,492,499,0.03818867,-0.09487833,-0.3819992,-1.325133,-2.95032,-1.244686,0.2081189,0.00601989,0.1287379,-0.8876007,-2.53369,1.770501
26.40025,7.544479,328,118,492,499,0.05881226,-0.08478123,-0.38394,-1.326066,-2.950225,-1.249166,0.2106615,0.009151742,0.1440934,-0.8893579,-2.533747,1.767918
26.20025,7.555591,328,118,492,499,0.08101875,-0.07445476,-0.3900325,-1.327286,-2.950198,-1.25375,0.2105275,0.02188545,0.1657251,-0.8912839,-2.53298,1.76472
26.00025,7.566702,328,118,492,499,0.09084767,-0.06866971,-0.3889869,-1.328296,-2.949948,-1.258171,0.2173866,0.01515529,0.1765717,-0.8929926,-2.533098,1.761842
25.80025,7.577813,328,118,492,499,0.1029331,-0.06916413,-0.3862927,-1.3296,-2.949714,-1.262562,0.2285335,-0.006311059,0.158431,-0.8947012,-2.53455,1.760341
25.60025,7.588924,277,111,536,503,0.1115436,-0.05888161,-0.3855831,-1.330753,-2.9498,-1.266913,0.2369384,-0.0167664,0.137167,-0.8966304,-2.536149,1.759377
25.40025,7.600036,277,111,536,503,0.1178153,-0.05710322,-0.3876454,-1.332014,-2.949728,-1.271402,0.2391414,-0.02897257,0.1044202,-0.8983364,-2.538296,1.759215
25.20025,7.611147,277,111,536,503,0.121591,-0.0488684,-0.39022,-1.333135,-2.950016,-1.275899,0.2338823,-0.01647991,0.09593714,-0.9002092,-2.538961,1.757918
25.00025,7.622258,277,111,536,503,0.1193764,-0.04576562,-0.3853078,-1.334187,-2.95007,-1.280106,0.2232139,0.005849615,0.1024487,-0.9021916,-2.538743,1.756068
24.80025,7.633369,277,111,536,503,0.1231842,-0.05455896,-0.3698289,-1.335461,-2.949615,-1.284126,0.2209358,0.01171872,0.1049436,-0.9041442,-2.539193,1.754476
24.60025,7.644481,277,111,536,503,0.1191325,-0.0615086,-0.3634713,-1.336595,-2.949192,-1.288228,0.2297866,0.01735653,0.1086204,-0.9064287,-2.539756,1.75275
24.40025,7.655592,277,111,536,503,0.1231611,-0.06570327,-0.3621918,-1.337978,-2.948864,-1.292411,0.2437477,0.01796819,0.1056261,-0.9087281,-2.540881,1.751337
24.20024,7.666703,277,111,536,503,0.1232497,-0.06884916,-0.3654801,-1.339188,-2.948332,-1.296798,0.2401935,0.008889809,0.1053411,-0.910555,-2.54185,1.74993
24.00024,7.677814,277,111,536,503,0.1302999,-0.06254536,-0.3613079,-1.340731,-2.948198,-1.300856,0.244752,0.006751895,0.1066919,-0.9126238,-2.542902,1.748466
23.80024,7.688926,355,101,492,498,0.1414549,-0.05832326,-0.364309,-1.342293,-2.947941,-1.305153,0.2454168,0.008161977,0.1012527,-0.914668,-2.543797,1.747194
23.60024,7.700037,355,101,492,498,0.1430987,-0.04539014,-0.3755556,-1.343678,-2.948222,-1.309639,0.2415866,0.02714077,0.09238166,-0.9171469,-2.544123,1.746024
23.40024,7.711148,355,101,492,498,0.1413384,-0.03795061,-0.3792439,-1.345021,-2.948378,-1.313902,0.2344199,0.03164798,0.07798817,-0.9193701,-2.544877,1.745416
23.20024,7.72226,355,101,492,498,0.1376697,-0.02845676,-0.3744995,-1.346234,-2.94864,-1.317935,0.2272391,0.03807713,0.07789968,-0.9214692,-2.545193,1.744242
23.00024,7.733371,348,99,499,501,0.1365768,-0.03948233,-0.3637343,-1.347674,-2.94825,-1.321813,0.2266065,0.03969961,0.08300725,-0.9236178,-2.545651,1.742693
22.80024,7.744482,348,99,499,501,0.1308607,-0.04145581,-0.3352899,-1.34884,-2.948057,-1.324893,0.2340201,0.0334506,0.09270696,-0.9258543,-2.546339,1.741068
22.60024,7.755593,348,99,499,501,0.1336572,-0.03903674,-0.3353626,-1.350266,-2.948122,-1.328704,0.2458997,0.02093187,0.09440961,-0.928077,-2.547794,1.739695
22.40024,7.766705,348,99,499,501,0.1433323,-0.02459371,-0.3353283,-1.351839,-2.948703,-1.332473,0.2486341,-0.009729028,0.0865965,-0.9297096,-2.549944,1.738968
22.20024,7.777816,348,99,499,501,0.1483811,-0.01501236,-0.3385713,-1.353409,-2.949171,-1.336177,0.2428658,-0.02619655,0.05965432,-0.9312659,-2.552199,1.739258
22.00024,7.788927,346,104,507,499,0.1532517,-0.01241189,-0.3352988,-1.354936,-2.949328,-1.339902,0.228086,-0.0184228,0.03615385,-0.9330678,-2.553473,1.73946
21.80024,7.800038,346,104,507,499,0.1437179,-0.007867627,-0.3305425,-1.35613,-2.949629,-1.343467,0.2175291,-0.01133767,0.03140158,-0.9347876,-2.554568,1.739221
21.60023,7.81115,346,104,507,499,0.1295988,-0.01641016,-0.3290406,-1.357104,-2.949455,-1.347169,0.2219596,-0.004074857,0.04020651,-0.9369027,-2.5555,1.738166
21.40023,7.822261,346,104,507,499,0.1179127,-0.02738451,-0.3242516,-1.358014,-2.949022,-1.350758,0.2253771,-0.007719249,0.05738324,-0.9388143,-2.556553,1.736887
21.20023,7.833372,352,106,478,497,0.1096807,-0.03158489,-0.3268545,-1.358896,-2.948702,-1.354586,0.2220544,-0.01070479,0.06772685,-0.9405896,-2.557772,1.735854
21.00023,7.844483,352,106,478,497,0.1036865,-0.03578711,-0.3251103,-1.35979,-2.94829,-1.358268,0.2242023,-0.008814007,0.07411116,-0.9425465,-2.558743,1.734665
20.80023,7.855595,352,106,478,497,0.1058606,-0.04581213,-0.3273194,-1.361076,-2.947635,-1.362107,0.218155,-0.006202847,0.07179733,-0.9442791,-2.559644,1.733902
20.60023,7.866706,352,106,478,497,0.1036096,-0.04455028,-0.3286575,-1.362038,-2.947391,-1.365955,0.1991775,-0.0007625669,0.0695593,-0.9458051,-2.560202,1.733184
20.40023,7.877817,352,106,478,497,0.09145775,-0.04163046,-0.3239889,-1.362668,-2.947024,-1.369593,0.1993442,-0.002951398,0.07018296,-0.9474824,-2.561103,1.732238
20.20023,7.888928,369,104,482,501,0.07847148,-0.05219593,-0.3226903,-1.363239,-2.946223,-1.373294,0.2070173,-0.00698325,0.06719685,-0.9495064,-2.562366,1.731548
20.00023,7.90004,369,104,482,501,0.07363752,-0.05711428,-0.3188882,-1.363946,-2.945506,-1.376919,0.2150522,-0.02247134,0.05358566,-0.9512476,-2.564346,1.731375
19.80023,7.911151,369,104,482,501,0.07305884,-0.06924864,-0.3214832,-1.364845,-2.944555,-1.380839,0.2133782,-0.03076136,0.0404839,-0.9528551,-2.566131,1.731322
19.60023,7.922262,369,104,482,501,0.06845623,-0.06844863,-0.3197709,-1.365483,-2.943823,-1.3845,0.2136187,-0.03790964,0.02827198,-0.9542841,-2.567783,1.731426
19.40023,7.933373,369,104,482,501,0.07280889,-0.06228651,-0.3154069,-1.366302,-2.943303,-1.388007,0.2115428,-0.02968726,0.04106297,-0.9560328,-2.568788,1.730513
19.20023,7.944485,367,112,506,498,0.07737523,-0.04430116,-0.3192424,-1.367046,-2.94331,-1.39175,0.1935562,-0.01348862,0.06531333,-0.9573329,-2.568654,1.728623
19.00023,7.955596,367,112,506,498,0.09531948,-0.03533057,-0.3184175,-1.368399,-2.943328,-1.395267,0.1712542,-0.002233505,0.07108269,-0.958493,-2.568648,1.727443
18.80022,7.966707,367,112,506,498,0.1042028,-0.01110431,-0.3217201,-1.369547,-2.943852,-1.398906,0.1541005,0.009685777,0.06904096,-0.9596664,-2.568689,1.726613
18.60022,7.977818,367,112,506,498,0.1106341,-0.001568541,-0.3158686,-1.370892,-2.944072,-1.401734,0.1252095,0.01428764,0.07582824,-0.9601915,-2.568175,1.725354
18.40022,7.98893,375,108,489,498,0.118803,0.01950102,-0.3031538,-1.372266,-2.944961,-1.404545,0.1221689,0.0182487,0.1150654,-0.961161,-2.567391,1.722469
18.20022,8.000041,375,108,489,498,0.1274676,0.03553116,-0.3033385,-1.373524,-2.945873,-1.407773,0.1315601,0.003340796,0.1374383,-0.9621751,-2.56743,1.719951
18.00022,8.011152,375,108,489,498,0.1343488,0.03491537,-0.2977996,-1.374968,-2.946312,-1.411041,0.1383598,-0.01905749,0.1250282,-0.9629437,-2.568537,1.718924
17.80022,8.022264,375,108,489,498,0.127365,0.05528845,-0.2950844,-1.375845,-2.94762,-1.414079,0.1361827,-0.05260783,0.08615217,-0.9632893,-2.570835,1.719362
17.60022,8.033375,375,108,489,498,0.1360721,0.06963737,-0.2877571,-1.377253,-2.948848,-1.417013,0.1407652,-0.08531928,0.06328683,-0.9637096,-2.57321,1.719575
17.40022,8.044486,330,117,484,498,0.1408074,0.08231639,-0.2859337,-1.378605,-2.950266,-1.419952,0.1411091,-0.08610035,0.05809557,-0.9644403,-2.574677,1.719113
17.20022,8.055597,330,117,484,498,0.140476,0.1001768,-0.2839682,-1.379606,-2.951826,-1.422922,0.1388049,-0.06774794,0.07223001,-0.9654673,-2.574953,1.717707
17.00022,8.066709,330,117,484,498,0.141679,0.09995924,-0.274265,-1.380843,-2.952853,-1.425596,0.1435425,-0.05572315,0.08129887,-0.9665229,-2.575364,1.716329
16.80022,8.07782,330,117,484,498,0.1408157,0.09641883,-0.2733441,-1.38229,-2.953848,-1.428261,0.152031,-0.05283958,0.08303818,-0.9677293,-2.576356,1.71525
16.60022,8.088931,334,107,487,498,0.1373649,0.1017111,-0.2741827,-1.383522,-2.955148,-1.430859,0.1593733,-0.05667204,0.08377516,-0.9687344,-2.577592,1.714338
16.40022,8.100042,334,107,487,498,0.1420426,0.1016243,-0.2675807,-1.384933,-2.956414,-1.433521,0.16605,-0.06000459,0.07412317,-0.9699062,-2.57912,1.713781
16.20021,8.111154,334,107,487,498,0.1504813,0.1230981,-0.2937586,-1.386391,-2.958495,-1.437397,0.1721316,-0.05945349,0.06505157,-0.9711962,-2.580694,1.713359
16.00021,8.122265,334,107,487,498,0.1538768,0.1371011,-0.2885015,-1.387743,-2.96057,-1.440267,0.1744727,-0.05935718,0.06321765,-0.9724357,-2.582084,1.712713
15.80021,8.133376,334,107,487,498,0.1610432,0.1458126,-0.2749443,-1.389328,-2.962559,-1.442726,0.1675685,-0.06921123,0.08851354,-0.9730567,-2.583025,1.710808
15.60021,8.144487,319,102,501,502,0.1697505,0.1632034,-0.2778323,-1.390914,-2.965039,-1.445722,0.1640148,-0.08317468,0.1012763,-0.9736314,-2.584329,1.709209
15.40021,8.155599,319,102,501,502,0.1629041,0.1660402,-0.2766385,-1.392106,-2.967041,-1.448435,0.1588761,-0.08617723,0.07912226,-0.9744602,-2.585965,1.70899
15.20021,8.16671,319,102,501,502,0.1522532,0.1524886,-0.2647946,-1.393047,-2.968423,-1.451013,0.1657444,-0.07548428,0.05449908,-0.9758733,-2.587487,1.709162
15.00021,8.177821,319,102,501,502,0.1434804,0.1370873,-0.2658405,-1.394135,-2.969527,-1.453874,0.169193,-0.05879077,0.05519901,-0.9773514,-2.588447,1.708451
14.80021,8.188932,319,102,501,502,0.1362094,0.1187738,-0.2638739,-1.395174,-2.970455,-1.456687,0.1574813,-0.03717016,0.0752784,-0.9785221,-2.588229,1.706636
14.60021,8.200044,297,109,499,498,0.124197,0.09476223,-0.2699307,-1.396105,-2.970841,-1.459838,0.1409025,-0.02962047,0.07584275,-0.9793189,-2.588462,1.705613
14.40022,8.211155,297,109,499,498,0.1169534,0.07927255,-0.2743077,-1.397182,-2.971326,-1.463126,0.101437,-0.02804612,0.06643999,-0.9790808,-2.588524,1.705089
14.20022,8.222266,297,109,499,498,0.09976131,0.05511373,-0.2742794,-1.397788,-2.971154,-1.466246,0.09258083,-0.01343858,0.0416384,-0.9798734,-2.588874,1.705342
14.00022,8.233377,297,109,499,498,0.0849933,0.03494295,-0.2772014,-1.398238,-2.970923,-1.46943,0.1152112,0.005725704,0.04129611,-0.9818302,-2.589212,1.704681
13.80022,8.244489,272,97,500,500,0.07193184,0.01638637,-0.2789865,-1.398664,-2.970395,-1.472654,0.143014,0.02232885,0.05509403,-0.9839379,-2.589284,1.703467
13.60022,8.2556,272,97,500,500,0.06757593,0.009228032,-0.286128,-1.399284,-2.970167,-1.476012,0.1512265,0.02239772,0.06451312,-0.9856109,-2.589553,1.702255
13.40022,8.266711,272,97,500,500,0.06906645,-0.013767,-0.2934076,-1.400222,-2.969222,-1.479596,0.1599645,0.01504984,0.06721795,-0.9872125,-2.590185,1.701319
13.20022,8.277822,272,97,500,500,0.05481392,-0.004475292,-0.3049012,-1.400468,-2.969207,-1.483273,0.1556925,0.001506209,0.06114041,-0.988363,-2.591081,1.700744
13.00022,8.288934,272,97,500,500,0.06085929,0.007251941,-0.3155616,-1.401144,-2.969408,-1.487072,0.1492598,-0.0146132,0.04273037,-0.989212,-2.592434,1.700851
12.80022,8.300045,302,114,486,500,0.08349016,0.02925174,-0.3065895,-1.402445,-2.970261,-1.490387,0.1385433,-0.02060354,0.02258281,-0.9900866,-2.593625,1.701267
12.60022,8.311156,302,114,486,500,0.09066314,0.04240901,-0.3019699,-1.403251,-2.970843,-1.493628,0.1321786,-0.02479167,0.02326676,-0.9909958,-2.594554,1.700913
12.40022,8.322268,302,114,486,500,0.09987697,0.0692457,-0.2970027,-1.404352,-2.972311,-1.496712,0.1478392,-0.01043852,0.03454633,-0.9928328,-2.594999,1.700029
12.20022,8.333379,302,114,486,500,0.1050874,0.08913816,-0.2905829,-1.405436,-2.973646,-1.499668,0.1582458,-0.003303617,0.03402964,-0.9945756,-2.595784,1.699586
12.00022,8.34449,276,117,493,496,0.1036259,0.09965474,-0.2937222,-1.406272,-2.974806,-1.502948,0.1690477,0.005136415,0.04113218,-0.9964617,-2.596426,1.698875
11.80022,8.355601,276,117,493,496,0.1096655,0.1053331,-0.2982241,-1.407476,-2.975888,-1.506419,0.1638637,0.009647034,0.0508622,-0.9979749,-2.596707,1.697887
11.60022,8.366713,276,117,493,496,0.1050067,0.1165059,-0.2820192,-1.407974,-2.977256,-1.509226,0.1537352,-0.001543969,0.06442922,-0.9988782,-2.597185,1.696693
11.40022,8.377824,276,117,493,496,0.1193721,0.125698,-0.277386,-1.409388,-2.978775,-1.512081,0.1279962,-0.01398265,0.06346789,-0.9992766,-2.597668,1.695916
11.20022,8.388935,276,117,493,496,0.1203783,0.1339487,-0.28485,-1.410398,-2.980271,-1.515342,0.1190275,-0.01861751,0.04797404,-1.000019,-2.598506,1.695801
11.00022,8.400046,241,145,496,500,0.1265879,0.1474246,-0.3065498,-1.411628,-2.982001,-1.51926,0.1236607,-0.0214425,0.0322832,-1.001082,-2.59965,1.69592
