ref,t,emg1,emg2,emg1raw,emg2raw,aDotS,bDotS,gDotS,aS,bS,gS,aDotSH,bDotSH,gDotSH,aSH,bSH,gSH
90,0,639,103,495,499,0.3141608,1.45706,0.7655,-1.459158,3.012119,-0.2331816,-0.5065224,-1.244875,-0.05802155,-0.402712,3.098232,2.560254
90,0.01111111,639,103,495,499,0.2739006,1.440898,0.7518795,-1.461961,3.015142,-0.2164143,-0.4580663,-1.188876,-0.0510267,-0.3956659,3.076345,2.58549
90,0.02222222,639,103,495,499,0.2666285,1.391206,0.7193167,-1.465277,3.017988,-0.2011688,-0.4410214,-1.13834,-0.01865387,-0.3882207,3.05578,2.610035
90,0.03333334,639,103,495,499,0.2664748,1.345018,0.6860449,-1.469002,3.020909,-0.1865965,-0.429695,-1.104832,0.03363973,-0.379958,3.03547,2.63398
90,0.04444445,639,103,495,499,0.2734276,1.23255,0.6412621,-1.472781,3.023943,-0.1750006,-0.4126387,-1.105073,0.02733952,-0.3728319,3.010729,2.662974
90,0.05555556,593,100,498,502,0.269999,1.203392,0.5989125,-1.476126,3.026356,-0.1616331,-0.3999076,-1.113609,0.01280212,-0.3665234,2.983775,2.694608
90,0.06666667,593,100,498,502,0.2580332,1.172102,0.5384259,-1.479025,3.027946,-0.1489437,-0.3652145,-1.101799,-0.01874965,-0.3619167,2.956229,2.726241
90,0.07777778,593,100,498,502,0.2360073,1.135889,0.5015417,-1.481551,3.030103,-0.1366692,-0.3183993,-1.038637,-0.004364491,-0.3569983,2.933887,2.751257
90,0.08888889,593,100,498,502,0.2237632,1.111542,0.4733199,-1.484068,3.032265,-0.1245555,-0.2876259,-0.9899609,0.005414218,-0.3526196,2.911211,2.776721
90,0.1,543,125,514,501,0.2096476,1.028611,0.4342024,-1.486489,3.034324,-0.1148616,-0.281868,-0.9538865,0.02588803,-0.3478546,2.888886,2.802059
90,0.1111111,543,125,514,501,0.202783,0.9777663,0.4135538,-1.488917,3.036654,-0.1048034,-0.2812115,-0.8693107,-0.02404794,-0.3459047,2.870963,2.824173
90,0.1222222,543,125,514,501,0.1818836,0.9153301,0.3812785,-1.490654,3.038589,-0.09603518,-0.2915953,-0.8652726,0.01954263,-0.3409954,2.849023,2.849828
90,0.1333333,543,125,514,501,0.1682535,0.8808411,0.3618776,-1.492528,3.040707,-0.08684994,-0.2692362,-0.8396264,0.05147231,-0.3365975,2.828023,2.873446
90,0.1444445,543,125,514,501,0.1143005,0.8139305,0.3412367,-1.492686,3.042964,-0.07928231,-0.2363216,-0.766329,0.1123798,-0.3318416,2.811822,2.890939
90,0.1555556,662,149,482,499,0.05813152,0.7541676,0.3140857,-1.492406,3.044971,-0.07215995,-0.2007609,-0.6838064,0.1260069,-0.3284871,2.79734,2.906736
90,0.1666667,662,149,482,499,0.02108192,0.7113735,0.2887274,-1.491956,3.046729,-0.06514039,-0.1851177,-0.6272695,0.09208372,-0.326609,2.782709,2.923476
90,0.1777778,662,149,482,499,-0.03979021,0.6422349,0.2525386,-1.490453,3.048091,-0.05964682,-0.1941019,-0.5989121,0.01858276,-0.3264311,2.766353,2.94351
90,0.1888889,662,149,482,499,-0.08065128,0.5938707,0.2293136,-1.488651,3.049531,-0.05425285,-0.1913863,-0.5930921,0.01473832,-0.3246313,2.749391,2.963183
90,0.2,626,168,523,505,-0.1379883,0.5368054,0.1944474,-1.485905,3.050613,-0.04967648,-0.1690207,-0.5742234,0.001164287,-0.3234446,2.73296,2.981554
90,0.2111111,626,168,523,505,-0.1848451,0.4932576,0.1701547,-1.482628,3.051584,-0.04539252,-0.1394698,-0.5669167,0.01417765,-0.3219197,2.715415,3.00044
90,0.2222222,626,168,523,505,-0.2797396,0.4134491,0.1344888,-1.477315,3.05247,-0.04297809,-0.1198163,-0.5218773,0.0536641,-0.3195937,2.702759,3.01379
90,0.2333333,626,168,523,505,-0.3187465,0.3645538,0.1156268,-1.473059,3.053542,-0.04013863,-0.09656873,-0.4632064,0.0838241,-0.3174994,2.692102,3.024755
90,0.2444444,626,168,523,505,-0.3540407,0.2930067,0.0962109,-1.4682,3.054422,-0.03890026,-0.09233087,-0.4390171,0.09909247,-0.3153651,2.680146,3.037661
90,0.2555556,744,184,462,501,-0.3371897,0.2422709,0.08228742,-1.465209,3.055175,-0.03750849,-0.1022407,-0.3986854,0.1024802,-0.3135638,2.670888,3.048494
90,0.2666667,744,184,462,501,-0.2959726,0.2243355,0.06914684,-1.463069,3.055578,-0.03550313,-0.09244455,-0.3340601,0.1126848,-0.3117113,2.66533,3.054581
90,0.2777778,744,184,462,501,-0.2702895,0.2124035,0.0646658,-1.46077,3.05626,-0.03328951,-0.08068541,-0.2672966,0.1042936,-0.3105027,2.661779,3.05862
90,0.2888889,744,184,462,501,-0.2175806,0.1815852,0.06117567,-1.459925,3.056781,-0.03210228,-0.07571368,-0.2409936,0.07787333,-0.3099728,2.656332,3.064967
90,0.3,744,184,462,501,-0.1496555,0.1271821,0.05923654,-1.46012,3.057531,-0.03227485,-0.05789235,-0.2044035,0.0174378,-0.3112894,2.652491,3.06946
90,0.3111111,764,200,516,503,-0.07623653,0.08298114,0.05481578,-1.4612,3.05803,-0.03251134,-0.05201353,-0.1765373,0.002545498,-0.3112926,2.648983,3.073509
90,0.3222222,764,200,516,503,-0.0004482344,0.06673865,0.04359987,-1.463182,3.057968,-0.03220188,-0.04703504,-0.1588964,0.009892568,-0.3107882,2.64538,3.077564
90,0.3333333,764,200,516,503,0.03916596,0.06549615,0.0427469,-1.464514,3.058179,-0.03142637,-0.03338675,-0.1324014,0.02461547,-0.3099722,2.642656,3.0801
90,0.3444445,764,200,516,503,0.07687797,0.04484496,0.05724163,-1.466464,3.059005,-0.03143169,-0.03473719,-0.1101534,0.02864744,-0.3094471,2.640728,3.082493
90,0.3555556,766,215,518,504,0.08642904,0.02615153,0.06157844,-1.46761,3.059684,-0.03165806,-0.02346957,-0.1009125,0.01105542,-0.3097326,2.638148,3.085247
90,0.3666667,766,215,518,504,0.09998278,-0.005270019,0.07293138,-1.46919,3.060765,-0.03251613,-0.01737426,-0.06689258,-0.01170173,-0.3104506,2.638751,3.084887
90,0.3777778,766,215,518,504,0.1307355,-0.01207363,0.08003011,-1.471501,3.061495,-0.0327979,-0.0139779,-0.05211647,-0.01845787,-0.3107302,2.638202,3.085745
90,0.3888889,766,215,518,504,0.1459791,-0.004749879,0.07625569,-1.473591,3.062022,-0.03263704,-0.009093076,-0.04301912,-0.04157723,-0.3118055,2.637751,3.086545
90,0.4,766,215,518,504,0.1549025,0.008207068,0.06960378,-1.475636,3.062218,-0.03210973,-0.01870525,-0.03833402,-0.06621139,-0.3129992,2.637316,3.087884
90,0.4111111,785,210,426,500,0.1404443,0.005668074,0.06287315,-1.476885,3.062621,-0.03213903,-0.01236968,-0.04424346,-0.06518838,-0.3136117,2.635416,3.090097
90,0.4222222,785,210,426,500,0.1215494,-0.006087866,0.06015309,-1.477685,3.063232,-0.0325417,-0.006290238,-0.03700402,-0.05527786,-0.3138104,2.63497,3.090558
90,0.4333333,785,210,426,500,0.09216823,-0.01756593,0.05376596,-1.477956,3.063718,-0.0331457,0.006118253,-0.03534616,-0.03085673,-0.3135782,2.633448,3.091627
90,0.4444444,785,210,426,500,0.06464615,-0.004278094,0.04758346,-1.478085,3.064032,-0.03277126,0.01294013,-0.009232361,-0.02410708,-0.3137768,2.635421,3.089508
90,0.4555556,687,211,483,501,0.05953631,0.006030329,0.04215084,-1.478726,3.064212,-0.03250388,0.005658102,0.01347636,-0.02098919,-0.3139206,2.638087,3.086913
90,0.4666667,687,211,483,501,0.05003238,0.009409659,0.03991425,-1.479056,3.064536,-0.03230095,-0.005024889,0.02456056,-0.03477707,-0.3146493,2.640722,3.084793
90,0.4777778,687,211,483,501,0.0448534,0.009651151,0.03748631,-1.479629,3.06483,-0.03226792,0.006581278,0.0048672,-0.05331527,-0.3158882,2.639318,3.086059
90,0.4888889,687,211,483,501,0.02912543,0.01335738,0.03176133,-1.479641,3.065046,-0.03210867,0.008690767,-0.004897514,-0.06722016,-0.3169396,2.638413,3.087207
90,0.5,687,211,483,501,0.01878557,0.01618942,0.02512611,-1.47963,3.065133,-0.03188017,0.01070758,-0.009303961,-0.07215431,-0.3177386,2.638005,3.087819
90,0.5111111,646,200,441,499,0.007232003,0.02852483,0.01962079,-1.479445,3.065145,-0.03126391,0.06510528,-0.0145919,-0.06359984,-0.3187985,2.6348,3.089111
90,0.5222223,646,200,441,499,-0.003255542,0.04853916,0.01293841,-1.479086,3.064991,-0.0301816,0.01308944,-0.02599015,-0.03526712,-0.3181561,2.634609,3.090437
90,0.5333334,646,200,441,499,-0.01722227,0.05688388,0.01317891,-1.478582,3.0651,-0.02937893,0.007121751,-0.01646638,-0.03395265,-0.3184491,2.634947,3.090285
90,0.5444446,646,200,441,499,-0.03230273,0.03996728,0.01774548,-1.477863,3.065502,-0.02935815,0.009120164,-0.01480405,-0.03440519,-0.3189945,2.634942,3.090204
90,0.5555557,640,189,526,503,-0.04426627,0.0316543,0.02245592,-1.477158,3.065893,-0.02931075,-0.001927879,-0.0260882,-0.03592119,-0.3193157,2.633778,3.09191
90,0.5666668,640,189,526,503,-0.04779406,0.03532253,0.02697119,-1.4766,3.066314,-0.02879356,0.006565504,-0.03535428,-0.0205982,-0.3192251,2.631527,3.093944
90,0.577778,640,189,526,503,-0.03751098,0.04454507,0.03190401,-1.476599,3.066609,-0.02803456,0.008914471,-0.03473327,-0.01079124,-0.3191905,2.630632,3.09468
90,0.5888891,640,189,526,503,-0.006779879,0.05224034,0.03462624,-1.477367,3.06691,-0.02730965,-0.001067281,-0.01643376,0.0003953651,-0.3187857,2.631686,3.093709
90,0.6000003,640,189,526,503,0.02709731,0.05546605,0.03908868,-1.478459,3.067278,-0.02679566,-0.001132865,-0.01404434,-0.008636823,-0.3190861,2.631666,3.093824
90,0.6111114,604,198,476,501,0.03985307,0.05667653,0.03989978,-1.479226,3.067598,-0.02613094,-0.006340215,-0.01490726,-0.0442223,-0.3203671,2.631584,3.094596
90,0.6222225,604,198,476,501,0.06209266,0.05336334,0.04387666,-1.480531,3.068014,-0.0256521,-0.002758007,-0.03177206,-0.07564341,-0.3218521,2.629766,3.096995
90,0.6333337,604,198,476,501,0.06122273,0.05377915,0.04057181,-1.481216,3.068243,-0.02503638,-0.004291639,-0.04393053,-0.06938164,-0.3223852,2.627499,3.099674
90,0.6444448,604,198,476,501,0.06167324,0.05798411,0.03242201,-1.481888,3.068296,-0.02433064,0.00159318,-0.06727381,-0.03236374,-0.3215677,2.623364,3.103501
90,0.655556,604,198,476,501,0.04483599,0.05823975,0.02823148,-1.482015,3.068475,-0.02368083,-0.002598293,-0.06290065,0.01010332,-0.3203096,2.621863,3.104768
90,0.6666671,590,194,521,497,0.02449491,0.05348516,0.02971578,-1.481836,3.068873,-0.02327283,-0.01040021,-0.05473489,0.004062291,-0.3202638,2.620965,3.106041
90,0.6777782,590,194,521,497,0.003110982,0.0509664,0.03030179,-1.481445,3.069197,-0.02273594,-0.01334208,-0.04525651,-0.003707493,-0.3205402,2.620997,3.106296
90,0.6888894,590,194,521,497,-0.006233055,0.05244453,0.0255937,-1.481247,3.069349,-0.02219159,-0.01275704,-0.02570782,-0.02156549,-0.3212017,2.622112,3.10548
90,0.7000005,590,194,521,497,-0.01216502,0.05220427,0.0176512,-1.480937,3.069278,-0.02151568,-0.01826765,-0.0367953,-0.03580642,-0.3218238,2.62055,3.107631
90,0.7111117,604,161,559,499,-0.02350697,0.05495878,0.01079058,-1.480413,3.069212,-0.02089836,-0.02380561,-0.07149368,0.001823407,-0.3207271,2.61556,3.112974
90,0.7222228,604,161,559,499,-0.03936933,0.04848521,0.009013882,-1.479597,3.069223,-0.0205074,-0.01859389,-0.07491403,0.04969256,-0.3189721,2.612586,3.115644
90,0.7333339,604,161,559,499,-0.04377095,0.04385124,0.0113915,-1.479048,3.069456,-0.0201548,-0.01883292,-0.0715443,0.05073173,-0.3183101,2.610472,3.117881
90,0.7444451,604,161,559,499,-0.0687899,0.03909286,0.002692891,-1.477735,3.069314,-0.01986825,-0.01092366,-0.06482817,0.00617484,-0.3195879,2.609843,3.118652
90,0.7555562,604,161,559,499,-0.08119776,0.03526124,-0.002991434,-1.476468,3.069149,-0.01948262,-0.004566383,-0.06520665,-0.005175602,-0.3199373,2.607575,3.121046
90,0.7666674,610,158,515,498,-0.08182313,0.03164085,-0.008902321,-1.475574,3.068961,-0.01928555,0.002046168,-0.06658109,0.004894853,-0.3196976,2.605036,3.123461
90,0.7777785,610,158,515,498,-0.06675255,0.03424861,-0.01084425,-1.475128,3.068714,-0.01875931,0.001203079,-0.05714906,0.001222786,-0.3197583,2.603839,3.124842
90,0.7888896,610,158,515,498,-0.04968543,0.03555578,-0.01059685,-1.475033,3.068563,-0.01834332,0.0002745278,-0.04838593,0.002020849,-0.319721,2.602965,3.125766
90,0.8000008,610,158,515,498,-0.02580816,0.03698417,-0.001236301,-1.475242,3.068676,-0.01791988,-0.01208895,-0.03855414,0.01474058,-0.3190456,2.602971,3.126025
90,0.8111119,600,143,492,500,-0.00720508,0.03626421,0.007503948,-1.475653,3.068901,-0.017571,-0.01553485,-0.03450006,0.01022874,-0.3189301,2.602478,3.126811
90,0.8222231,600,143,492,500,0.005682178,0.03660377,0.0062963,-1.475831,3.068953,-0.01720402,-0.01019834,-0.04666509,-0.003690109,-0.3193785,2.599977,3.129462
90,0.8333342,600,143,492,500,0.02909369,0.04007958,0.007216532,-1.476877,3.068903,-0.01668843,-0.004239,-0.05040563,-0.0140538,-0.3198536,2.597979,3.131595
90,0.8444453,600,143,492,500,0.04090992,0.04688644,0.005541629,-1.477579,3.068789,-0.01589694,-0.003705829,-0.04028846,-0.004912766,-0.3195777,2.597396,3.132225
90,0.8555565,600,143,492,500,0.04721976,0.0468134,0.006987063,-1.47828,3.068745,-0.01543036,-0.005560791,-0.03456568,-0.008899459,-0.3197365,2.596865,3.132964
90,0.8666676,569,153,501,496,0.05012672,0.05072314,0.0107841,-1.478946,3.068847,-0.01482315,-0.0114603,-0.03795643,-0.02317667,-0.3202392,2.596178,3.134276
90,0.8777788,569,153,501,496,0.04781154,0.04824242,0.01352547,-1.47939,3.068972,-0.01441835,-0.01117206,-0.02177808,-0.01973988,-0.3202195,2.596776,3.133756
90,0.8888899,569,153,501,496,0.04658281,0.0447205,0.01622637,-1.479957,3.069184,-0.01404338,-0.013205,-0.01704584,-0.01144018,-0.3200289,2.596755,3.133958
90,0.900001,569,153,501,496,0.04551977,0.04472328,0.01610629,-1.480386,3.069176,-0.01353738,-0.0093561,-0.02479922,-0.01126812,-0.3200645,2.595541,3.13532
90,0.9111122,543,169,470,499,0.03267804,0.05534839,0.0152449,-1.480424,3.069221,-0.01258823,-0.002883665,-0.03424495,-0.01360318,-0.3203282,2.593559,3.137347
90,0.9222233,543,169,470,499,0.01569469,0.06392814,0.01277251,-1.480167,3.06916,-0.01169341,0.001402259,-0.02584413,-0.02117933,-0.3207687,2.593101,3.137755
90,0.9333345,543,169,470,499,0.006037533,0.05399349,0.01423519,-1.479988,3.06936,-0.01133441,0.004103199,-0.03697915,-0.0281202,-0.3212907,2.591015,3.139995
90,0.9444456,543,169,470,499,-0.006581496,0.03999935,0.01292037,-1.479698,3.069416,-0.01149314,0.003087524,-0.04774497,-0.02057276,-0.3212049,2.58852,-3.140541
90,0.9555568,543,169,470,499,-0.01400402,0.04323298,0.01163578,-1.479326,3.069597,-0.01097009,-0.003754601,-0.05211629,-0.009349018,-0.3209237,2.58654,-3.138281
90,0.9666679,561,147,516,500,-0.02305216,0.04607002,0.003716582,-1.478809,3.069393,-0.0103581,-0.0008881725,-0.04334164,-0.009545368,-0.320985,2.58631,-3.138019
90,0.977779,561,147,516,500,-0.02729268,0.05039303,0.002746529,-1.478339,3.069515,-0.009641708,-0.0004889257,-0.03729847,-0.01726489,-0.3213173,2.5858,-3.13741
90,0.9888902,561,147,516,500,-0.03386194,0.04142072,0.005584456,-1.477826,3.069728,-0.009446233,0.009258185,-0.02752655,-0.02866473,-0.3219692,2.585515,-3.137251
90,1.000001,561,147,516,500,-0.02972947,0.04346333,0.007157515,-1.47767,3.069849,-0.00888111,0.009010665,-0.02485453,-0.03435345,-0.3224422,2.584841,-3.136486
90,1.011112,561,147,516,500,-0.01675386,0.03954395,0.005582367,-1.477869,3.069825,-0.00855141,0.01364901,-0.02174067,-0.01937793,-0.3222787,2.584079,-3.136075
90,1.022224,539,158,499,499,-0.007916484,0.03358271,0.002420543,-1.477966,3.069904,-0.008329303,0.01064353,-0.01835538,-0.01028103,-0.3221828,2.583687,-3.135768
90,1.033335,539,158,499,499,-0.004835101,0.02915187,0.00433341,-1.477955,3.069942,-0.00805553,0.002336007,-0.0328722,-0.00513052,-0.3221211,2.581312,-3.133082
90,1.044446,539,158,499,499,-0.005578542,0.01733019,0.01485932,-1.477945,3.070384,-0.008258995,0.005439349,-0.03280788,0.007083122,-0.3217253,2.579877,-3.131834
90,1.055557,539,158,499,499,-0.003573948,0.01394467,0.01680988,-1.477954,3.07061,-0.008206264,0.008432105,-0.03180833,-0.003143187,-0.3220933,2.579178,-3.131256
90,1.066668,477,159,511,501,-0.005535572,0.008739698,0.01503882,-1.477838,3.070744,-0.008263256,0.007100407,-0.02641866,-0.001347541,-0.3220752,2.578607,-3.130693
90,1.077779,477,159,511,501,-0.007099091,0.005150491,0.008093635,-1.477708,3.070647,-0.008297345,-0.00220982,-0.01875524,-0.006638373,-0.3222169,2.578728,-3.130567
90,1.08889,477,159,511,501,-0.01002146,0.004400807,0.004560537,-1.477504,3.070634,-0.00823769,-0.00780508,-0.002270231,-0.004013258,-0.3221083,2.580261,-3.131951
90,1.100002,477,159,511,501,-0.001707915,-0.0001096344,0.00796349,-1.477696,3.070824,-0.008344749,-0.005615134,0.01691256,-0.01005882,-0.3222755,2.581961,-3.133602
90,1.111113,477,159,511,501,0.009923597,-0.007658775,0.0102265,-1.478081,3.071046,-0.008531703,-0.005344637,0.02400074,-0.007745872,-0.3223006,2.583391,-3.135069
90,1.122224,448,155,473,496,0.02821647,-0.0169522,0.009570502,-1.478885,3.071084,-0.008955678,-0.008176574,0.01724315,-0.009789682,-0.3225003,2.583996,-3.135407
90,1.133335,448,155,473,496,0.04338391,-0.01969184,0.007184066,-1.479749,3.071044,-0.009225722,-0.009135422,-0.002270269,2.347236E-05,-0.3222893,2.582292,-3.133514
90,1.144446,448,155,473,496,0.05817844,-0.01968655,0.009325938,-1.480711,3.071155,-0.009349826,-0.007621311,-0.01330767,0.01847315,-0.321631,2.580621,-3.131944
90,1.155557,448,155,473,496,0.05301265,-0.01844559,0.006892835,-1.481176,3.071138,-0.009528791,-0.006395059,-0.002860699,0.0177294,-0.3215117,2.581487,-3.132836
90,1.166668,455,147,492,499,0.04118603,-0.01980357,0.008010289,-1.481253,3.071258,-0.009765811,-0.02061715,0.01190542,0.01979017,-0.3210568,2.583516,-3.134461
90,1.17778,455,147,492,499,0.01972237,-0.02134521,0.009486262,-1.480918,3.071477,-0.01004385,-0.01961996,0.01290037,0.01562623,-0.3210206,2.583822,-3.134612
90,1.188891,455,147,492,499,-0.002637824,-0.01292143,0.007636078,-1.480394,3.071536,-0.009995376,-0.009074496,0.01263702,0.02354506,-0.320611,2.583865,-3.134993
90,1.200002,455,147,492,499,-0.01531013,-0.007496775,0.005103454,-1.479894,3.071563,-0.009925601,-0.004801126,0.02136823,0.008106523,-0.3210227,2.585294,-3.136584
90,1.211113,455,147,492,499,-0.02557443,-0.01030406,-0.0002732209,-1.479329,3.071461,-0.01004385,-0.004081786,0.01966276,0.000498692,-0.3212044,2.585845,-3.137076
90,1.222224,472,151,503,494,-0.02653939,-0.02207856,-0.0005232128,-1.479017,3.071545,-0.010634,-0.007624825,0.02201319,0.001569179,-0.3211687,2.586888,-3.138
90,1.233335,472,151,503,494,-0.02837931,-0.02493267,-0.004206528,-1.478648,3.071438,-0.01100471,-0.008840581,0.005839122,0.001197993,-0.3212028,2.585925,-3.13699
90,1.244446,472,151,503,494,-0.0228194,-0.02562011,-0.00710095,-1.478475,3.071288,-0.01141591,-0.01860102,-0.004239053,0.02045576,-0.3203442,2.585145,-3.135946
90,1.255558,472,151,503,494,-0.01771115,-0.01721875,-0.004746924,-1.478499,3.07124,-0.01135093,-0.02030222,-0.001160868,0.03333835,-0.3196539,2.585663,-3.136529
90,1.266669,472,151,503,494,-0.007701212,-0.01911667,0.004393606,-1.478683,3.071587,-0.01170086,-0.01094672,0.006590017,0.0251624,-0.3196342,2.586344,-3.137412
90,1.27778,453,139,507,497,-0.001902682,-0.01234863,0.01199889,-1.478885,3.07191,-0.01181005,-0.00951832,0.02270577,0.003176638,-0.3202904,2.588722,-3.139691
90,1.288891,453,139,507,497,0.007220034,-0.004249173,0.01783967,-1.479235,3.072201,-0.01160073,-0.008797269,0.0210034,-0.004434053,-0.3204981,2.589534,-3.140356
90,1.300002,453,139,507,497,0.01826156,-0.004675669,0.0132168,-1.479784,3.072091,-0.01182657,-0.008468746,0.004506207,-0.002048539,-0.3203501,2.588492,-3.13915
90,1.311113,453,139,507,497,0.02574316,-0.01214847,0.01401854,-1.480269,3.072268,-0.01216053,-0.0116952,0.001473447,0.0002674918,-0.3202116,2.588501,-3.138953
90,1.322224,393,129,516,498,0.02884135,-0.01553377,0.01599683,-1.480708,3.072349,-0.01253177,-0.01109671,0.002164067,0.004945016,-0.3199836,2.588786,-3.139209
90,1.333336,393,129,516,498,0.03529642,-0.009959581,0.01488743,-1.48128,3.072415,-0.0124865,-0.01690089,0.006212123,0.007518266,-0.3198052,2.589764,-3.140068
90,1.344447,393,129,516,498,0.03821639,-0.007082887,0.01860886,-1.481745,3.072704,-0.01241992,-0.027503,0.02070308,0.006255933,-0.3196161,2.592434,3.140933
90,1.355558,393,129,516,498,0.0442488,-0.0086362,0.02421024,-1.482389,3.073106,-0.01249928,-0.02316251,0.01695313,-0.01026899,-0.3201391,2.592888,3.140752
90,1.366669,393,129,516,498,0.0495129,-0.004339887,0.0249971,-1.48307,3.073297,-0.01236612,-0.02089253,0.01189664,-0.01176022,-0.320243,2.593069,3.140799
90,1.37778,389,121,512,495,0.05064739,-0.0031553,0.02409249,-1.483644,3.073475,-0.01241992,-0.01173642,0.008834945,-0.02559247,-0.3209817,2.593217,3.140711
90,1.388891,389,121,512,495,0.04112831,-0.0009891726,0.02258532,-1.483855,3.07365,-0.01235867,-0.01393331,0.001062691,-0.02854521,-0.3213125,2.592906,3.141394
90,1.400002,389,121,512,495,0.02673178,0.001785957,0.01436887,-1.483853,3.073439,-0.01229262,-0.01716663,0.001393188,-0.02623852,-0.3213253,2.5931,3.141434
90,1.411114,389,121,512,495,0.01289942,0.002743794,0.01352705,-1.48367,3.073582,-0.01227398,-0.01884606,0.00376766,-0.02006899,-0.3212869,2.593747,3.141029
90,1.422225,464,154,491,495,7.317681E-05,-0.007223588,0.01482924,-1.483436,3.073705,-0.0126596,-0.02202596,-0.003216835,0.008066068,-0.3204358,2.593337,3.141384
90,1.433336,464,154,491,495,-0.00949768,-0.007296512,0.01416285,-1.483087,3.073879,-0.01272831,-0.0250167,0.007932518,0.01603671,-0.3199724,2.594918,3.140016
90,1.444447,464,154,491,495,-0.02021714,-0.01078131,0.01519527,-1.482714,3.074038,-0.01294243,-0.02357595,0.007896898,0.0008050457,-0.3202781,2.595554,3.139709
90,1.455558,464,154,491,495,-0.02243681,-0.008797382,0.01631522,-1.482585,3.074175,-0.0130431,-0.01865336,0.002823213,-0.008787133,-0.3205839,2.595565,3.139977
90,1.466669,464,154,491,495,-0.025384,-0.01060986,0.01268585,-1.482168,3.074233,-0.01315655,-0.009933795,0.001812524,-0.01265325,-0.3208465,2.595497,3.140006
90,1.47778,384,130,480,495,-0.02123214,-0.01398194,0.0147581,-1.482057,3.074432,-0.01333125,-0.007316709,0.005512758,-0.01741658,-0.3211346,2.596384,3.139333
90,1.488891,384,130,480,495,-0.007178916,-0.01460481,0.01244456,-1.482351,3.074464,-0.01347346,-0.01309937,0.004828887,-0.0170784,-0.3212236,2.596872,3.139188
90,1.500003,384,130,480,495,-0.002076549,-0.009487893,0.0154746,-1.482567,3.074548,-0.01341541,-0.01485478,0.004530085,-0.004201504,-0.3209461,2.597241,3.138926
90,1.511114,384,130,480,495,0.009808164,-0.006948661,0.01333205,-1.483038,3.074598,-0.01345855,-0.01811248,-0.0005165245,0.000350141,-0.3207271,2.596952,3.139468
90,1.522225,515,139,472,495,0.02032031,-0.002739646,0.01554341,-1.483671,3.074678,-0.01342606,-0.01936495,-0.001190428,-0.002307812,-0.3208124,2.597448,3.139228
90,1.533336,515,139,472,495,0.02042672,-0.00474873,0.0142607,-1.48389,3.074803,-0.01356082,-0.01785299,-0.004186379,0.007164532,-0.3205296,2.597397,3.139218
90,1.544447,515,139,472,495,0.02748165,-0.00641261,0.02097437,-1.484537,3.075119,-0.01374937,-0.009835379,0.00290025,0.007542048,-0.3204539,2.597986,3.138481
90,1.555558,515,139,472,495,0.0263361,-0.009816553,0.02267514,-1.484819,3.07534,-0.0139507,-0.01002413,0.007263221,-0.003756841,-0.3208704,2.599096,3.137499
90,1.566669,515,139,472,495,0.02568117,-0.008105323,0.01636298,-1.485116,3.075333,-0.0140061,-0.006349011,0.003868736,-0.01488238,-0.3213274,2.599076,3.13764
90,1.577781,556,149,482,501,0.03106347,-0.006894011,0.01574859,-1.485682,3.075444,-0.01407055,-0.007814962,0.004508427,-0.02547059,-0.32181,2.599499,3.137522
90,1.588892,556,149,482,501,0.03066548,0.0006543226,0.00469117,-1.485963,3.075143,-0.013874,-0.005693933,-0.01264367,-0.01351051,-0.3216673,2.597655,3.139415
90,1.600003,556,149,482,501,0.03302766,-0.001129722,0.001426227,-1.486406,3.075085,-0.0140029,-0.007471861,-0.01396573,0.0004928224,-0.3212028,2.596756,3.140371
90,1.611114,556,149,482,501,0.0305705,0.002669997,0.005945758,-1.486646,3.075251,-0.01379837,-0.01083867,-0.001474325,0.01169977,-0.3206744,2.597844,3.139293
90,1.622225,556,149,482,501,0.03657789,0.005359191,0.01194057,-1.487266,3.075434,-0.01371848,-0.009464881,0.01030494,0.002032359,-0.3209226,2.599827,3.137471
90,1.633336,519,145,509,499,0.04309109,0.005628794,0.01020814,-1.487854,3.075394,-0.01357253,-0.004248298,0.01231432,-0.005222435,-0.3211133,2.600306,3.137082
90,1.644447,519,145,509,499,0.04641902,0.0112674,0.00773936,-1.488468,3.07546,-0.01340955,-0.001086541,0.009295549,-0.0008082807,-0.321043,2.600373,3.136911
90,1.655559,519,145,509,499,0.04754277,0.01244178,0.006820667,-1.489142,3.075431,-0.01323698,0.0004094563,-0.003822713,0.008683588,-0.3206776,2.599162,3.138219
90,1.66667,519,145,509,499,0.04347169,0.01378762,0.003467243,-1.489484,3.075308,-0.01304043,-0.0005550198,-0.008538079,0.009495417,-0.3205231,2.598519,3.138871
90,1.677781,487,159,482,497,0.03407924,0.01074569,0.0004387794,-1.489653,3.075255,-0.01302659,-0.004586297,-0.008901587,-0.003045491,-0.3208518,2.598905,3.138761
90,1.688892,487,159,482,497,0.01763454,0.008276726,-0.009389662,-1.489399,3.074946,-0.01298557,-0.002434341,-0.01231453,-0.02027905,-0.3215245,2.598404,3.139494
90,1.700003,487,159,482,497,0.002037155,0.01303111,-0.01631484,-1.489028,3.074713,-0.01268517,-0.0009030178,-0.01566719,-0.01415206,-0.3214095,2.597512,3.140423
90,1.711114,487,159,482,497,-0.01664453,0.01035998,-0.0241932,-1.488255,3.074298,-0.01260208,0.005385296,-0.02235446,-0.0008587549,-0.3211362,2.595818,-3.141343
90,1.722225,487,159,482,497,-0.03056832,0.00900622,-0.02307908,-1.487573,3.074209,-0.01256692,0.00245237,-0.02066557,0.002657894,-0.320994,2.595429,-3.140913
90,1.733337,473,141,495,498,-0.03480828,0.003584163,-0.02283267,-1.487076,3.074024,-0.01264416,0.001134925,-0.009897178,0.00220944,-0.3209674,2.595892,-3.141233
90,1.744448,473,141,495,498,-0.02086009,0.005486167,-0.007789642,-1.48721,3.074387,-0.01255308,0.003434279,-0.008556461,-0.00264418,-0.3211245,2.59572,-3.141104
90,1.755559,473,141,495,498,-0.008068078,0.007797995,-0.007801826,-1.487389,3.074311,-0.01242311,0.005538316,-0.006243671,-0.0187668,-0.3216135,2.595383,-3.140687
90,1.76667,473,141,495,498,0.01429365,0.01017224,-0.007208602,-1.488129,3.074212,-0.01226279,0.006155604,-0.02104303,-0.01180973,-0.3216363,2.593498,-3.138801
90,1.777781,503,137,492,499,0.03441771,0.01020471,-0.004875148,-1.488973,3.074166,-0.01209288,0.005116753,-0.02607269,-0.003171695,-0.3213812,2.592203,-3.137479
90,1.788892,503,137,492,499,0.04512738,0.009314332,-0.005393897,-1.489716,3.074026,-0.01203909,0.002510689,-0.01463173,-0.004045478,-0.3214537,2.592646,-3.137899
90,1.800003,503,137,492,499,0.04514099,0.008250335,-0.005517094,-1.490242,3.073941,-0.01194641,0.00275773,-0.01057359,0.0016352,-0.3213168,2.592523,-3.137879
90,1.811115,503,137,492,499,0.04083687,0.007056643,-0.004844119,-1.490583,3.073816,-0.01189101,0.0004602731,-0.007539115,0.005360845,-0.3211474,2.592498,-3.137847
90,1.822226,503,137,492,499,0.02702952,0.005900265,-0.005806944,-1.490525,3.073708,-0.01186385,0.004135566,-0.008915863,-0.00800686,-0.3215788,2.591825,-3.13711
90,1.833337,512,134,496,497,0.02095369,0.003078434,-0.01074168,-1.490625,3.0735,-0.01192723,0.008438405,-0.003198729,-0.02006612,-0.3222579,2.59248,-3.137953
90,1.844448,512,134,496,497,0.004180672,9.675976E-05,-0.01528091,-1.490097,3.073239,-0.01193842,0.01139237,0.0005019661,-0.02582868,-0.3227575,2.592898,-3.138442
90,1.855559,512,134,496,497,-0.008427441,-0.000838099,-0.01830838,-1.489616,3.072991,-0.01194321,0.009244801,-0.006851802,-0.004096057,-0.3222127,2.591458,-3.137188
90,1.86667,512,134,496,497,-0.01262297,-0.005103024,-0.01898574,-1.489375,3.07285,-0.01216852,-0.0006399136,-0.003120793,0.01843696,-0.3214084,2.59164,-3.137401
90,1.877781,455,137,494,498,-0.01911557,-0.006403038,-0.01738789,-1.488975,3.072715,-0.0122303,-0.003648514,0.002620711,0.02865309,-0.3207836,2.592228,-3.13799
90,1.888893,455,137,494,498,-0.01935483,-0.01433276,-0.01282635,-1.488697,3.072729,-0.01256533,-0.007489856,0.004625408,0.02739392,-0.3204539,2.592698,-3.138375
90,1.900004,455,137,494,498,-0.02040135,-0.01539503,-0.01300687,-1.488448,3.072586,-0.0127363,0.0002943408,0.00395294,0.01872324,-0.3207437,2.592645,-3.138484
90,1.911115,455,137,494,498,-0.01175427,-0.01618252,-0.01468436,-1.488508,3.072355,-0.0128929,0.009123556,-0.005818435,0.005937779,-0.3211671,2.591437,-3.137472
90,1.922226,455,137,494,498,-3.264938E-05,-0.01387947,-0.01479399,-1.488695,3.072121,-0.01305215,0.01881821,-0.01420262,0.003515185,-0.3213354,2.589806,-3.136135
90,1.933337,557,143,456,494,0.007562429,-0.00493863,-0.01772097,-1.489009,3.071821,-0.01289929,0.01370095,-0.01490072,0.001842378,-0.3213642,2.58926,-3.135543
90,1.944448,557,143,456,494,0.01919486,0.004770726,-0.01712112,-1.489538,3.071534,-0.01261433,0.01370394,-0.01489808,0.001841423,-0.3213935,2.588613,-3.135019
90,1.955559,557,143,456,494,0.02227242,-0.002937675,-0.01447468,-1.489784,3.071361,-0.01270434,-0.008396781,-0.002456725,0.02709905,-0.3196709,2.590688,-3.136628
90,1.966671,557,143,456,494,0.02968599,-0.02237742,-0.01167062,-1.490237,3.071404,-0.01364178,-0.01024414,-0.006198507,0.01866553,-0.3198467,2.589793,-3.135576
90,1.977782,557,143,456,494,0.0276887,-0.02324642,-0.01403643,-1.490385,3.07122,-0.01398745,-0.0002190825,-0.007192915,0.01072465,-0.3201461,2.589484,-3.135844
90,1.988893,612,157,504,501,0.0212562,-0.02445273,-0.0134813,-1.490449,3.071123,-0.01429904,0.003012876,-0.002142805,0.006166336,-0.3202062,2.589758,-3.136225
90,2.000004,612,157,504,501,0.005219162,-0.02253943,-0.01319285,-1.490022,3.071007,-0.01450784,0.002406277,-0.003836644,0.002611869,-0.3201988,2.589761,-3.136274
90,2.011115,612,157,504,501,-0.005386325,-0.02472373,-0.01406344,-1.489658,3.07085,-0.0148125,-0.002848102,-0.001793332,0.01658065,-0.319591,2.589802,-3.136304
90,2.022226,612,157,504,501,-0.01520376,-0.02086308,-0.01106813,-1.489143,3.070863,-0.01495844,-0.004824117,0.006975047,0.0204033,-0.3191777,2.591397,-3.137992
90,2.033337,477,138,501,494,-0.02281186,-0.01794573,-0.009105995,-1.488706,3.070866,-0.01510492,-0.0076831,0.008981951,0.01610996,-0.3190781,2.592019,-3.138505
90,2.044448,477,138,501,494,-0.02181747,-0.01804164,-0.007991416,-1.488434,3.070866,-0.01530146,-0.001414474,0.01770381,-0.005397339,-0.3198217,2.593649,-3.140285
90,2.055559,477,138,501,494,-0.009857365,-0.01858651,-0.01160257,-1.488591,3.070752,-0.01546551,0.0001809373,0.01501559,-0.003747087,-0.3197407,2.593915,-3.140575
90,2.06667,477,138,501,494,0.00523142,-0.01487337,-0.01460437,-1.488965,3.070476,-0.0154687,0.004297763,0.01368833,0.003201083,-0.3196065,2.594025,-3.140907
90,2.077781,477,138,501,494,0.02016222,-0.01467008,-0.01477175,-1.48942,3.070274,-0.01570306,0.005244916,0.01301451,0.00463437,-0.319484,2.594164,-3.140938
90,2.088892,417,149,488,502,0.03285777,-0.01035041,-0.01359836,-1.490076,3.070104,-0.01570626,0.006131479,-9.824755E-05,0.01614361,-0.3190211,2.592686,-3.139625
90,2.100003,417,149,488,502,0.03247078,-0.005581588,-0.007773664,-1.490297,3.070292,-0.01560825,0.01001606,0.007300375,0.01067804,-0.3190787,2.593382,-3.140362
90,2.111114,417,149,488,502,0.03313693,-0.00409187,-0.001164096,-1.490704,3.070442,-0.01566738,0.01171323,0.005598358,3.417535E-05,-0.3194014,2.593365,-3.140426
90,2.122225,417,149,488,502,0.02471889,-0.006162753,-0.002936909,-1.490755,3.070321,-0.01576432,0.006373121,0.002530405,-0.01290746,-0.3199191,2.593254,-3.139967
90,2.133336,406,156,524,495,0.01218257,-0.009113503,-0.007176029,-1.490538,3.070171,-0.01593849,-0.002088616,0.008951058,-0.001114873,-0.3195953,2.59451,-3.14128
90,2.144447,406,156,524,495,-0.001592562,-0.008036702,-0.008946462,-1.490126,3.070006,-0.01594168,0.0007231813,-0.001464851,0.008787362,-0.319215,2.593814,-3.140681
90,2.155558,406,156,524,495,-0.01127261,-0.003964918,-0.008035345,-1.489788,3.069968,-0.01582876,0.004585323,-0.001465191,0.007805803,-0.3192022,2.593403,-3.140378
90,2.166669,406,156,524,495,-0.01467592,-0.002186114,-0.004842558,-1.48956,3.070026,-0.01584687,0.00785614,-0.001137676,0.001029734,-0.3194419,2.59321,-3.140298
90,2.17778,406,156,524,495,-0.01156965,-0.0001499339,-0.003384381,-1.489604,3.069992,-0.01581012,0.005910427,0.006270165,0.002624873,-0.3193508,2.593706,-3.140941
90,2.188891,412,159,493,497,-0.007269616,0.001049078,-0.004086567,-1.489607,3.069872,-0.01573555,0.006877607,0.01435197,0.001807911,-0.3193796,2.594696,3.141078
90,2.200002,412,159,493,497,-0.001850195,0.003419772,-0.005674157,-1.489807,3.06972,-0.01557896,0.007639864,0.01432408,-0.011389,-0.3198542,2.595072,3.140872
90,2.211113,412,159,493,497,0.01314947,-0.0006107027,-0.006277448,-1.490328,3.069547,-0.01567324,0.005106521,0.01094616,-0.01445341,-0.320105,2.595341,3.140698
90,2.222224,412,159,493,497,0.02145138,-0.004154862,-0.001868366,-1.490782,3.069627,-0.01579361,0.006884907,0.005249884,0.0007083183,-0.3197151,2.594397,3.141453
90,2.233335,412,159,493,497,0.02454665,-0.006463481,0.0002148168,-1.491146,3.069672,-0.01591825,-0.001490711,0.002889346,0.003579104,-0.3195026,2.594624,3.141415
90,2.244446,419,149,500,495,0.01369181,-0.003676302,0.003095574,-1.491022,3.069912,-0.01590546,-0.005574514,-0.0005069105,-0.005596304,-0.3197945,2.594437,-3.141313
90,2.255557,419,149,500,495,0.0006422114,-0.001012979,0.006900554,-1.490705,3.070118,-0.01589162,-0.0045364,-0.003220444,-0.01309745,-0.3200747,2.594367,-3.141022
90,2.266668,419,149,500,495,-0.01075821,-0.004912141,0.001555318,-1.490281,3.070001,-0.01602051,-0.008696546,0.01092046,-0.01561396,-0.3202302,2.596167,3.140541
90,2.277779,419,149,500,495,-0.02267157,-0.003190437,0.004240394,-1.48974,3.070228,-0.01594594,-0.0132057,0.01531204,-0.01374121,-0.3201679,2.597777,3.139127
90,2.28889,360,143,493,496,-0.02272687,-0.008706393,0.005820195,-1.489511,3.070358,-0.01617604,-0.00934847,0.01093431,-0.01359059,-0.3203069,2.597871,3.139088
90,2.300001,360,143,493,496,-0.0225912,-0.009551839,0.003599854,-1.48925,3.070491,-0.01627884,-0.01154714,0.000804875,-0.01765806,-0.3205684,2.597173,3.140158
90,2.311112,360,143,493,496,-0.004559397,-0.01058872,0.005632078,-1.489696,3.070552,-0.01639016,-0.011881,-0.006944464,-0.0155075,-0.320643,2.596515,3.141032
90,2.322223,360,143,493,496,0.007898052,-0.01102574,0.01167835,-1.490089,3.070846,-0.01644023,-0.01487666,0.004199661,-0.00754741,-0.3204773,2.598058,3.139683
90,2.333334,360,143,493,496,0.02351516,-0.01259986,0.0188466,-1.490806,3.071254,-0.0165622,-0.01770441,0.02070666,-0.01300783,-0.3205934,2.600652,3.137308
90,2.344445,410,157,469,501,0.03302547,-0.01156946,0.02054598,-1.491395,3.071483,-0.0166602,-0.02088493,0.01834297,-0.01517893,-0.3207032,2.601478,3.136844
90,2.355556,410,157,469,501,0.0384315,-0.01247534,0.01966312,-1.491995,3.071622,-0.01679602,-0.01766822,0.01261636,-0.01522735,-0.3207724,2.601423,3.137006
90,2.366668,410,157,469,501,0.04170809,-0.01340123,0.01865378,-1.492568,3.07176,-0.01697019,-0.01738636,0.005209753,-0.01175188,-0.3207469,2.601119,3.137513
90,2.377779,410,157,469,501,0.03441006,-0.01101789,0.0152637,-1.492687,3.071775,-0.01702825,-0.01483415,-0.0005125785,-0.009776793,-0.3207426,2.600903,3.13782
90,2.38889,423,157,478,499,0.01399765,-0.005013721,0.01689323,-1.492333,3.072026,-0.01692439,-0.01803339,-0.0005187746,-0.01083121,-0.32079,2.601199,3.13782
90,2.400001,423,157,478,499,0.008683919,0.003638331,0.0153122,-1.492303,3.072094,-0.01671613,-0.0212449,0.001840524,-0.01077352,-0.3207964,2.601852,3.137442
90,2.411112,423,157,478,499,-0.003971247,-0.0005939454,0.0131204,-1.49191,3.072228,-0.01682266,-0.019366,0.002864625,-0.006790656,-0.3206947,2.602196,3.137245
90,2.422223,423,157,478,499,-0.009171477,-0.0188734,0.01314384,-1.491727,3.072412,-0.01751614,-0.02004902,0.008601628,-0.003660545,-0.3205455,2.60302,3.136609
90,2.433334,423,157,478,499,-0.01358661,-0.02029048,0.01596605,-1.491485,3.072714,-0.01776541,-0.01844881,0.01028899,-0.003137777,-0.3205114,2.603563,3.136227
90,2.444445,437,161,509,496,-0.01773974,-0.01470206,0.01306759,-1.491163,3.072717,-0.01770363,-0.02018885,0.0008825529,0.008655785,-0.320063,2.603087,3.136887
90,2.455556,437,161,509,496,-0.01449293,-0.01457575,0.01217975,-1.491056,3.072774,-0.01786129,-0.01762719,-0.003835211,0.009509235,-0.3199394,2.602594,3.137542
90,2.466667,437,161,509,496,-0.008455319,-0.006473258,0.0176245,-1.491151,3.073084,-0.0177047,-0.01771788,-0.001524873,-0.01071991,-0.3204624,2.60306,3.137447
90,2.477778,437,161,509,496,-0.0008882098,-0.006207732,0.01592159,-1.491318,3.073148,-0.01781282,-0.01770287,0.002852844,-0.01184703,-0.3205264,2.603717,3.136976
90,2.488889,407,166,500,499,0.008767366,-0.008141704,0.01517965,-1.491555,3.073205,-0.01786875,-0.02255227,0.01061538,-0.00897854,-0.320431,2.605167,3.135854
90,2.5,407,166,500,499,0.01309544,-0.004715068,0.01361444,-1.491737,3.073254,-0.01782401,-0.02579682,0.007588223,-0.006663356,-0.3201807,2.605326,3.13609
90,2.511111,407,166,500,499,0.01516889,-0.004804151,0.01478738,-1.491963,3.073455,-0.01788259,-0.0267058,-0.002202172,-0.011427,-0.3203325,2.604872,3.136974
90,2.522222,407,166,500,499,0.01500061,-0.0007698629,0.01732507,-1.492148,3.073692,-0.01776062,-0.02357342,-0.0004939754,-0.00478871,-0.3201466,2.605291,3.136673
90,2.533333,407,166,500,499,0.01179672,0.0002688412,0.01725424,-1.492204,3.073867,-0.0177276,-0.02483733,-0.008926531,-0.006300466,-0.3201247,2.604643,3.137634
90,2.544444,440,148,485,499,0.008418999,0.0053386,0.01973182,-1.49221,3.074254,-0.01753106,-0.02870367,-0.008926475,-0.005322726,-0.3200438,2.604749,3.137968
90,2.555555,440,148,485,499,0.002781491,0.01124694,0.0243048,-1.492152,3.074673,-0.01720668,-0.02643862,-0.007246185,-0.006824536,-0.3200789,2.604904,3.138075
90,2.566666,440,148,485,499,0.004047129,0.01380414,0.02033567,-1.492232,3.074735,-0.01697552,-0.02478564,-0.008260339,-0.01076713,-0.3201732,2.605224,3.137998
90,2.577777,440,148,485,499,0.003110461,0.01295258,0.01805574,-1.492236,3.074893,-0.01682532,-0.02571911,-0.00995026,-0.01331603,-0.3202984,2.605423,3.138206
90,2.588888,440,148,485,499,0.009536001,0.009824561,0.01809309,-1.492537,3.075066,-0.01680135,-0.02086725,-0.006296311,-0.01398449,-0.3207927,2.603266,3.140143
90,2.599999,376,147,509,498,0.01265865,0.01080775,0.01943542,-1.492804,3.07541,-0.01667565,-0.02144613,-0.0060053,-0.01976661,-0.3209221,2.60209,-3.141543
90,2.61111,376,147,509,498,0.02110517,0.01183323,0.02105449,-1.493286,3.075619,-0.01653184,-0.02268878,-0.01006965,-0.0224097,-0.321141,2.601857,-3.140893
90,2.622221,376,147,509,498,0.02589556,0.0160869,0.01099513,-1.493611,3.075378,-0.0162293,-0.02208059,-0.0083721,-0.01885667,-0.3212284,2.602066,-3.140938
90,2.633332,376,147,509,498,0.02109548,0.0129168,0.02114351,-1.493811,3.075955,-0.01610733,-0.01725155,-0.00803005,-0.01951743,-0.3214292,2.60195,-3.140695
90,2.644443,359,143,494,499,0.01574409,0.01500568,0.02105247,-1.493822,3.076142,-0.01587031,-0.01717281,-0.01852272,-0.02283187,-0.3218025,2.600044,-3.13836
90,2.655554,359,143,494,499,0.01078362,0.01452307,0.01430417,-1.493781,3.076084,-0.01572117,-0.02078577,-0.01785248,-0.01616418,-0.3217264,2.599629,-3.137507
90,2.666665,359,143,494,499,-0.002150199,0.01306074,0.01666429,-1.493401,3.076252,-0.01563808,-0.01781272,-0.01136396,0.00386451,-0.321116,2.599684,-3.137636
90,2.677776,359,143,494,499,-0.008653552,0.01175431,0.01832077,-1.493052,3.076529,-0.0154442,-0.01619685,-0.002285013,-0.0001120283,-0.3212267,2.599961,-3.137808
90,2.688887,359,143,494,499,-0.004440236,0.01497032,0.01886181,-1.493168,3.076726,-0.01519227,-0.0140893,0.002036014,-0.01850168,-0.3218974,2.600741,-3.138276
90,2.699998,349,144,501,497,-0.001224652,0.01722445,0.01818295,-1.493209,3.076902,-0.01489399,-0.01300719,-0.0007001702,-0.02600939,-0.3225307,2.600245,-3.137652
90,2.711109,349,144,501,497,0.003369342,0.01458461,0.01282277,-1.493376,3.076848,-0.01480398,-0.01007339,0.005356768,-0.03067807,-0.3230313,2.601103,-3.138386
90,2.72222,349,144,501,497,0.008751545,0.01472858,0.01206305,-1.493677,3.077001,-0.01462821,-0.006096443,0.006101678,-0.0147895,-0.3228103,2.600844,-3.138175
90,2.733331,349,144,501,497,0.01315287,0.0128428,0.00997841,-1.493953,3.077033,-0.01454512,-0.007854865,0.01018121,-0.003038199,-0.3224801,2.601518,-3.138853
90,2.744442,470,146,492,499,0.02063236,0.001028589,0.0114044,-1.494389,3.077262,-0.01486257,-0.01300226,5.389098E-05,0.002022472,-0.3222771,2.600312,-3.137361
90,2.755553,470,146,492,499,0.02411084,-0.007125804,0.007590707,-1.494805,3.07724,-0.0150916,-0.0117254,-0.001618668,0.003567612,-0.322169,2.600181,-3.137156
90,2.766664,470,146,492,499,0.01786204,-0.008034973,0.0050172,-1.494872,3.077254,-0.01525778,-0.00365713,-0.01538823,0.008481413,-0.3220763,2.597415,-3.134602
90,2.777775,470,146,492,499,0.01054638,-0.008943829,0.002399229,-1.494807,3.077358,-0.01533714,-0.005266615,-0.01473111,0.009078221,-0.3219106,2.59657,-3.133651
90,2.788886,470,146,492,499,-0.0002202159,-0.012506,0.004687561,-1.494544,3.077563,-0.01560293,-0.005586084,-0.01271618,0.007850081,-0.3218483,2.596332,-3.133346
90,2.799997,451,153,513,498,-0.007759769,-0.00947631,0.005640805,-1.494312,3.077711,-0.01558056,-0.008573095,7.610116E-05,0.01020894,-0.3216619,2.597336,-3.134246
90,2.811108,451,153,513,498,-0.007459164,-0.01002662,0.0002425258,-1.49423,3.077544,-0.01567217,-0.01137485,0.006752688,-0.003051605,-0.3219517,2.598497,-3.135144
90,2.822219,451,153,513,498,-0.008527681,-0.01437231,0.0008450139,-1.494144,3.077738,-0.01586978,-0.003229095,0.008090295,-0.01496881,-0.3225088,2.598481,-3.135142
90,2.83333,451,153,513,498,-0.009360909,-0.01397126,-0.003452621,-1.49401,3.077613,-0.01601359,0.003643055,0.003714203,-0.02392133,-0.3230579,2.598183,-3.134886
90,2.844441,451,153,513,498,-0.005046616,-0.01384282,-0.004274993,-1.494122,3.077597,-0.01621599,-0.0009385231,-0.003348878,-0.01307434,-0.322823,2.597316,-3.13381
90,2.855552,359,142,479,498,0.0003839396,-0.003853058,-0.007297167,-1.494231,3.077479,-0.0159534,0.0001309849,-0.001919116,0.007459108,-0.3220028,2.596921,-3.133662
90,2.866663,359,142,479,498,5.564513E-05,0.00422349,-0.002252595,-1.494287,3.077574,-0.01565193,-0.006064721,0.0004379814,0.01663838,-0.3215309,2.597239,-3.133904
90,2.877774,359,142,479,498,0.006550537,0.004470188,-0.004013098,-1.49452,3.07758,-0.01558748,-0.001869341,0.00784882,0.0101439,-0.3217535,2.597991,-3.134777
90,2.888885,359,142,479,498,0.01110954,-0.01120039,-0.007419572,-1.494767,3.077422,-0.01611426,0.004012522,0.00749761,-0.0002514771,-0.3219447,2.597382,-3.134326
90,2.899997,396,136,481,498,0.009903295,-0.009293946,-0.005159173,-1.49479,3.077454,-0.01621119,0.007552703,0.00852209,-0.001338976,-0.3221088,2.597436,-3.134567
90,2.911108,396,136,481,498,0.008889391,-0.0135418,-0.005626599,-1.494873,3.077434,-0.0164839,0.01168742,0.01662723,-0.001116669,-0.3221983,2.598445,-3.135881
90,2.922219,396,136,481,498,0.01120462,-0.009943672,-0.009445127,-1.495128,3.077222,-0.01653024,0.01010291,0.009547886,0.0006166068,-0.322136,2.597683,-3.135226
90,2.93333,396,136,481,498,0.01540173,-0.0100168,-0.008160878,-1.495422,3.077206,-0.01664848,0.005233291,0.0001315465,0.01136211,-0.3217354,2.597154,-3.134699
90,2.944441,396,136,481,498,0.01456907,-0.01067856,-0.01255816,-1.495533,3.076952,-0.01679176,0.005518076,-0.003551735,0.01817974,-0.3213455,2.596511,-3.134218
90,2.955552,407,138,456,499,0.01454839,-0.008559157,-0.01235775,-1.495797,3.076814,-0.01680934,0.01139389,-0.003890852,0.007773383,-0.3216113,2.596079,-3.133988
90,2.966663,407,138,456,499,0.0133049,-0.007808367,-0.009139454,-1.495895,3.076769,-0.0168626,0.0124508,0.001800735,-0.005335941,-0.3222063,2.596784,-3.134722
90,2.977774,407,138,456,499,0.006875842,-0.003614554,-0.009069808,-1.495857,3.076654,-0.0168642,0.008266793,0.01018525,-0.008959869,-0.3223506,2.597909,-3.135765
90,2.988885,407,138,456,499,0.00795927,-0.0003264584,-0.009775089,-1.496042,3.07645,-0.01679709,0.006649449,0.004463976,-0.004996077,-0.3223096,2.597551,-3.135448
90,2.999996,384,143,478,497,0.007088977,0.002188928,-0.01386615,-1.496081,3.076168,-0.01671134,0.004304342,0.006841021,0.003194177,-0.3220928,2.598093,-3.136039
90,3.011107,384,143,478,497,0.006066537,0.003338588,-0.0148881,-1.496091,3.075884,-0.01672305,0.001738734,-0.004604934,0.009097412,-0.3218382,2.596877,-3.134805
90,3.022218,384,143,478,497,0.01139458,0.002313056,-0.01471568,-1.496357,3.07567,-0.01669589,3.593345E-05,-0.009281736,0.0231108,-0.3212284,2.596185,-3.13419
90,3.033329,384,143,478,497,0.01017033,0.001999507,-0.01159667,-1.496478,3.075595,-0.01674383,-0.004059197,-0.008320261,0.01280094,-0.3215139,2.596617,-3.134343
90,3.04444,384,143,478,497,0.01107696,0.006046635,-0.009025702,-1.496651,3.075534,-0.0165068,-0.003983722,-0.007003571,0.003858285,-0.3216838,2.596644,-3.134248
90,3.055551,387,143,503,499,0.004683759,0.007061913,-0.009259565,-1.496529,3.075366,-0.01641466,-0.004877905,-0.009049214,-0.002019353,-0.3216486,2.596269,-3.133833
90,3.066662,387,143,503,499,-0.003811044,0.005944701,-0.009801777,-1.49629,3.075252,-0.01635927,-0.001059092,-0.01170402,0.003713466,-0.3215304,2.595537,-3.133193
90,3.077773,387,143,503,499,-0.005940468,0.005923592,-0.009909283,-1.496146,3.075191,-0.01641466,0.0001198845,-0.004933964,0.0108024,-0.3212838,2.596028,-3.13374
90,3.088884,387,143,503,499,-0.005890138,0.001684774,-0.0103096,-1.496105,3.075047,-0.01647112,0.004939275,-0.005582301,0.01125196,-0.3212097,2.595532,-3.13347
90,3.099995,380,135,497,497,0.003682673,0.001742528,-0.009807699,-1.496426,3.07496,-0.01653717,0.004063427,-0.0005805353,-0.002489162,-0.3216939,2.596112,-3.133819
90,3.111106,380,135,497,497,0.01330579,0.001907703,-0.01037334,-1.496749,3.074814,-0.01647059,0.001265738,-0.0002943992,-0.01236815,-0.3220704,2.596346,-3.133865
90,3.122217,380,135,497,497,0.02383542,0.001776326,-0.007712272,-1.497119,3.074844,-0.01650148,-0.004586309,-0.001306703,-0.004194831,-0.3218771,2.596334,-3.133727
90,3.133328,380,135,497,497,0.01824681,0.005587023,-0.003351929,-1.497282,3.074894,-0.01627191,-0.003644766,-0.004994354,0.0006052358,-0.321704,2.595588,-3.133023
90,3.144439,380,135,497,497,0.01399262,0.005556238,-0.003571933,-1.497354,3.074829,-0.0162341,-0.007196183,-0.0100472,0.006182051,-0.321451,2.59494,-3.13222
90,3.15555,481,133,507,498,0.001231653,0.005466001,-0.004221581,-1.497095,3.074859,-0.01621545,-0.01271327,-0.004672786,0.009975666,-0.3212284,2.595343,-3.132489
90,3.166661,481,133,507,498,-0.004205139,-0.003449968,-0.001054467,-1.496902,3.074899,-0.01643384,-0.006313577,0.001757921,0.008684572,-0.3211975,2.595883,-3.133165
90,3.177772,481,133,507,498,-0.01043187,-0.00753849,-0.00389973,-1.49662,3.074874,-0.01666233,0.003404116,-0.001592112,0.0006548607,-0.3214206,2.595189,-3.132616
90,3.188883,481,133,507,498,-0.009589222,-0.01227242,0.001048181,-1.496541,3.075007,-0.01688284,0.007935715,0.0004361449,-0.004593591,-0.3216587,2.595224,-3.13279
90,3.199994,481,133,507,498,-0.00546822,-0.0103226,0.003593673,-1.496606,3.075203,-0.01692599,0.00601669,0.001759707,-0.007465371,-0.321859,2.595425,-3.132766
90,3.211105,442,133,502,499,-0.002234974,-0.009139271,0.002799075,-1.496678,3.075213,-0.01699576,0.001866138,0.003406728,-0.01106329,-0.3220529,2.59584,-3.133037
90,3.222216,442,133,502,499,0.00541409,-0.007626125,-0.0009558179,-1.496938,3.075117,-0.01705275,-0.01035642,0.007376079,-0.01057743,-0.3220305,2.596417,-3.133291
90,3.233327,442,133,502,499,0.005283038,-0.005708545,0.001369144,-1.497005,3.075301,-0.01711773,-0.01810107,0.004326891,-0.005248522,-0.3217748,2.596819,-3.133326
90,3.244438,442,133,502,499,0.006434709,-0.008778119,6.108644E-05,-1.497061,3.075246,-0.01723065,-0.01112535,-0.001980934,0.009369453,-0.3213179,2.595995,-3.13269
90,3.255549,532,145,487,500,0.003964129,-0.002929678,0.005846122,-1.497034,3.075407,-0.0170927,-0.006285314,0.007782693,0.001966102,-0.3214728,2.596522,-3.133487
90,3.26666,532,145,487,500,0.01132182,-0.004136597,0.008239794,-1.497389,3.075538,-0.01718112,-0.00494724,0.01718522,-0.008825084,-0.321827,2.597898,-3.134799
90,3.277771,532,145,487,500,0.01035158,-0.002881723,0.006172439,-1.497495,3.075631,-0.01717206,-0.006001961,0.01776553,-0.0316001,-0.3226377,2.599083,-3.135526
90,3.288882,532,145,487,500,0.01252017,-0.006048014,0.005977403,-1.497697,3.075676,-0.01731481,-0.008588707,0.004300519,-0.02345082,-0.3226483,2.598385,-3.134604
90,3.299993,532,145,487,500,0.009402211,-0.008090403,0.004553675,-1.497678,3.075624,-0.01743625,-0.01037841,-0.007063479,0.001770379,-0.3219666,2.597075,-3.133424
90,3.311104,448,137,510,501,0.01065534,-0.00556415,0.000569378,-1.497892,3.075557,-0.01746075,-0.01077471,-0.01577752,0.01622971,-0.321435,2.595788,-3.132015
90,3.322215,448,137,510,501,0.002024591,-0.004760728,0.002361656,-1.497668,3.075616,-0.01746075,-0.01277013,-0.01339983,0.02342023,-0.3209993,2.59569,-3.131827
90,3.333326,448,137,510,501,-0.004580919,0.0001956434,0.005716622,-1.497449,3.075766,-0.01736541,-0.01046654,-0.0009849845,0.006223024,-0.3212891,2.596792,-3.132679
90,3.344437,448,137,510,501,-0.008814659,0.002390303,0.004638032,-1.497181,3.075775,-0.01723332,-0.006808861,0.005032045,-0.01165053,-0.3218531,2.597592,-3.133348
90,3.355548,438,134,500,497,-0.01175956,0.004987442,-0.0006235178,-1.497115,3.075615,-0.0171662,-0.001231687,0.003330254,-0.02327041,-0.3223165,2.597448,-3.133095
90,3.366659,438,134,500,497,-0.007265472,0.003297671,-0.004843392,-1.497152,3.075482,-0.01715875,-0.001865152,-0.01382024,-0.01335608,-0.3222334,2.595748,-3.13127
90,3.37777,438,134,500,497,-0.001991277,0.007574614,-0.00417795,-1.497327,3.075436,-0.01697339,-0.003593109,-0.01512344,0.0006502955,-0.3218004,2.595157,-3.130615
90,3.388881,438,134,500,497,0.0009481506,0.0103828,0.0005163853,-1.497378,3.075544,-0.01676034,-0.008824831,-0.01141658,0.0090266,-0.3214009,2.595159,-3.130502
90,3.399992,438,134,500,497,0.003889028,0.01318901,0.005209155,-1.49749,3.075707,-0.01656699,-0.008897623,-0.003316706,0.01122862,-0.3212321,2.596143,-3.131431
90,3.411103,445,134,485,498,0.002886042,0.008939737,0.004760225,-1.497621,3.07574,-0.01659522,0.002080382,-0.002952273,0.00247511,-0.3215106,2.595886,-3.131243
90,3.422215,445,134,485,498,0.005184898,0.008192005,0.001593232,-1.497733,3.075713,-0.01653237,0.0002552662,-0.01510128,-0.0003369949,-0.3215735,2.594546,-3.12976
90,3.433326,445,134,485,498,0.001036178,0.008361282,-0.0007426895,-1.497636,3.075626,-0.01642744,-0.001996839,-0.02081261,0.005661089,-0.3213562,2.593798,-3.128979
90,3.444437,445,134,485,498,-0.01192091,0.00575239,0.002645138,-1.497135,3.075788,-0.0164594,-0.001135858,-0.01907122,0.01937205,-0.3208262,2.593056,-3.128379
90,3.455548,416,130,530,498,-0.02382911,0.008555026,0.00550066,-1.496554,3.075934,-0.01624954,-0.0004753759,-0.01807033,0.01622567,-0.3207357,2.592517,-3.127827
90,3.466659,416,130,530,498,-0.02692578,0.009792376,0.003306057,-1.4962,3.075958,-0.0161036,-0.002946584,-0.01612823,-0.0002504913,-0.3211192,2.592389,-3.127453
90,3.47777,416,130,530,498,-0.02578295,0.013185,0.001523144,-1.496037,3.07581,-0.01583249,0.0006402172,-0.01479518,-0.009167372,-0.3214451,2.592002,-3.126957
90,3.488881,416,130,530,498,-0.01798844,0.01277385,-0.004537605,-1.496064,3.075595,-0.01571478,0.006702594,-0.008352034,-0.009455735,-0.321631,2.59204,-3.12719
90,3.499992,416,130,530,498,-0.00618669,0.01410793,-0.00594625,-1.496333,3.075348,-0.01562743,0.008272578,-0.004287296,-0.007831985,-0.3216252,2.592223,-3.127608
90,3.511103,451,140,518,500,0.006504365,0.01081145,-0.003460751,-1.496735,3.075248,-0.01562264,0.00277025,-0.002289534,-0.004019405,-0.3215154,2.592443,-3.127736
90,3.522214,451,140,518,500,0.01294621,0.005553722,-0.003623158,-1.497015,3.075189,-0.01568069,-0.003033588,-0.009692656,0.007560409,-0.3209759,2.591509,-3.126738
90,3.533325,451,140,518,500,0.01497545,0.004300765,-0.001501276,-1.497238,3.075142,-0.01577923,-0.0001537437,-0.02239789,0.02753309,-0.3202169,2.589444,-3.124794
90,3.544436,451,140,518,500,0.01086621,0.001286511,-0.004136199,-1.497256,3.075052,-0.01586285,0.001508374,-0.02376113,0.02023452,-0.3201982,2.588497,-3.12387
90,3.555547,451,140,518,500,0.002484918,-0.0006980817,-0.006894135,-1.496984,3.074911,-0.0159795,0.004715329,-0.02172212,0.01902061,-0.3201173,2.587872,-3.12334
90,3.566658,458,145,489,497,-0.01139764,-0.0008893353,-0.006561992,-1.496471,3.074855,-0.01599441,-0.001176086,-0.002924288,0.01262191,-0.3200662,2.589334,-3.124733
90,3.577769,458,145,489,497,-0.02405118,-0.0007780008,-0.009365125,-1.495809,3.074748,-0.01606419,-0.002460515,0.003430244,0.002128884,-0.3202329,2.590297,-3.125516
90,3.58888,458,145,489,497,-0.03385686,-0.0001830542,-0.005560908,-1.495164,3.074812,-0.01605513,-0.003747857,0.005100904,0.0005921911,-0.3202281,2.590732,-3.125867
90,3.599991,458,145,489,497,-0.0337738,-0.002202079,-0.006833623,-1.494816,3.074697,-0.01616485,-0.002074193,-0.002651454,-0.003320923,-0.3202185,2.589877,-3.125
90,3.611102,432,141,498,495,-0.03146616,-0.002933883,-0.0100124,-1.494432,3.074486,-0.01615047,-0.002091576,-0.01301606,0.0157103,-0.3196161,2.588805,-3.123941
90,3.622213,432,141,498,495,-0.02189492,-0.002862342,-0.009497344,-1.494402,3.074295,-0.01612171,0.002389223,-0.01129483,0.01825945,-0.3193961,2.588254,-3.123605
90,3.633324,432,141,498,495,-0.01446515,-0.006087409,-0.008334299,-1.494425,3.074249,-0.01620374,-0.0005419408,-0.004570851,0.01619001,-0.3193066,2.589398,-3.124733
90,3.644435,432,141,498,495,-0.009364467,-0.007518006,-0.003912386,-1.494405,3.074311,-0.01631506,-0.0006319284,0.01025552,0.01837283,-0.3190286,2.590821,-3.126297
90,3.655546,432,141,498,495,0.002143214,-0.009961776,0.000754555,-1.494843,3.074388,-0.01642851,-0.001268469,0.01193823,0.01479926,-0.3191276,2.591902,-3.127435
90,3.666657,388,150,498,502,0.01171281,-0.009890631,0.001264656,-1.495139,3.074363,-0.01647644,0.0009706216,0.009945407,0.02111454,-0.3187814,2.591918,-3.127644
90,3.677768,388,150,498,502,0.0139839,-0.01285103,-0.001039126,-1.495251,3.074412,-0.01665328,0.0006565964,0.008941231,0.02326127,-0.3183287,2.592162,-3.128035
90,3.688879,388,150,498,502,0.01505487,-0.01389768,-0.001090675,-1.495378,3.074335,-0.01672891,-0.005701208,0.0004720083,0.01564509,-0.3182877,2.591722,-3.127328
90,3.69999,388,150,498,502,0.01383457,-0.01526684,0.001923289,-1.495446,3.074439,-0.01688231,-0.007647207,0.002501214,0.01949455,-0.3179351,2.592143,-3.127699
90,3.711101,383,155,492,493,-0.003016273,-0.01613467,-0.002261015,-1.494816,3.074439,-0.01702772,-0.00991362,0.008559967,0.01987699,-0.317647,2.593064,-3.128573
90,3.722212,383,155,492,493,-0.01597859,-0.01875342,0.001069952,-1.49432,3.074538,-0.0172674,-0.009884139,0.009879719,0.01094245,-0.317623,2.593366,-3.128881
90,3.733323,383,155,492,493,-0.02521639,-0.01819275,-0.005811272,-1.493775,3.074435,-0.01739151,-0.01599298,0.009539932,0.01570268,-0.3172475,2.593738,-3.129032
90,3.744434,383,155,492,493,-0.03892557,-0.02782156,-0.007537046,-1.493001,3.074353,-0.01789964,-0.009908186,0.006567686,0.0333109,-0.3164752,2.593406,-3.129009
90,3.755545,383,155,492,493,-0.03912443,-0.03036079,-0.003541369,-1.492542,3.074506,-0.01826609,-0.006052667,0.008610794,0.04124418,-0.3158051,2.5937,-3.129552
90,3.766656,467,138,494,498,-0.03716438,-0.03066681,-0.0002749232,-1.492187,3.074625,-0.01860484,-0.009245183,0.01396804,0.02680251,-0.3157833,2.594764,-3.130479
90,3.777767,467,138,494,498,-0.02556457,-0.03186128,0.002369161,-1.492161,3.074785,-0.01899952,-0.01179801,0.01462775,0.01927867,-0.3157385,2.595587,-3.131137
90,3.788878,467,138,494,498,-0.02132111,-0.03077252,0.002693732,-1.492041,3.07481,-0.01928874,-0.01177659,0.002824949,0.01371796,-0.3157034,2.594931,-3.130301
90,3.799989,467,138,494,498,-0.009411152,-0.02485064,-0.001431558,-1.492119,3.074672,-0.01939048,-0.01595864,0.003181186,0.01909764,-0.3152325,2.595459,-3.130658
90,3.8111,447,136,492,499,-0.001148269,-0.02310163,0.003475014,-1.492311,3.074876,-0.01960513,-0.02045257,0.006906504,0.0254913,-0.3146845,2.596211,-3.131244
90,3.822211,447,136,492,499,0.006105406,-0.0169004,0.006632008,-1.492516,3.074964,-0.01957743,-0.02236014,0.01265688,0.03271046,-0.313976,2.597231,-3.132222
90,3.833322,447,136,492,499,0.009978321,-0.01327787,0.01363804,-1.492728,3.075326,-0.01967011,-0.01816089,0.0230855,0.02283821,-0.3140176,2.598986,-3.133981
90,3.844433,447,136,492,499,0.01498876,-0.001895726,0.01826973,-1.493077,3.075556,-0.0193697,-0.01075287,0.02102255,0.001714593,-0.3145556,2.599769,-3.134705
90,3.855544,447,136,492,499,0.01326884,-0.01632669,0.01242038,-1.493115,3.075597,-0.01991938,-0.0113786,0.007850284,-0.01523628,-0.3150914,2.599011,-3.133637
90,3.866655,439,147,437,498,0.01343361,-0.02469894,0.01048635,-1.493237,3.075647,-0.02041792,-0.01464886,-0.00457841,0.005000511,-0.3144943,2.597971,-3.132461
90,3.877766,439,147,437,498,0.005093567,-0.02115119,0.006131525,-1.493011,3.075685,-0.02055694,-0.01658424,-0.004884541,0.01892619,-0.3137875,2.59796,-3.132481
90,3.888877,439,147,437,498,0.001738848,-0.01714833,0.008510359,-1.492924,3.075809,-0.02054362,-0.02652408,0.0005461499,0.02583157,-0.3131318,2.598849,-3.132989
90,3.899988,439,147,437,498,0.0005119778,-0.01312672,0.01100428,-1.492881,3.076009,-0.02048823,-0.03002178,0.01034057,0.02246583,-0.3129182,2.600555,-3.134517
90,3.911099,439,147,437,498,-0.002887283,-0.0135837,0.01507166,-1.492883,3.07629,-0.02065494,-0.02164746,0.01568903,0.004979852,-0.313338,2.601744,-3.135618
90,3.92221,454,149,487,499,0.0002288576,-0.01589976,0.01713478,-1.492979,3.076543,-0.0208909,-0.007468984,0.01763488,-0.01959425,-0.3142274,2.602275,-3.13619
90,3.933321,454,149,487,499,0.006523762,-0.01606887,0.01958101,-1.493358,3.076844,-0.02106987,-0.01068287,0.0132703,-0.01949836,-0.3143286,2.602873,-3.136596
90,3.944432,454,149,487,499,0.01308507,-0.01240591,0.01599317,-1.493689,3.076894,-0.02110076,-0.01235278,-0.002220312,-0.01216835,-0.3142573,2.60171,-3.135227
90,3.955544,454,149,487,499,0.02067642,-0.005557816,0.01278166,-1.494225,3.077011,-0.0210166,-0.01591986,-0.002858806,0.003471857,-0.3137598,2.601834,-3.135228
90,3.966655,465,154,487,499,0.01853627,-0.0001625698,0.01215141,-1.494406,3.077117,-0.02084882,-0.01912981,-0.001498314,0.004687038,-0.3135835,2.602141,-3.135291
90,3.977766,465,154,487,499,0.01828302,-0.0006916244,0.01743824,-1.49464,3.077424,-0.02085202,-0.02297419,-0.004521484,-0.002132798,-0.3138386,2.602504,-3.135319
90,3.988877,465,154,487,499,0.006649633,0.001559128,0.01495681,-1.494382,3.077549,-0.0207391,-0.01910102,-0.002858011,-0.008734044,-0.3140698,2.602754,-3.135345
90,3.999988,465,154,487,499,-0.005000403,0.005925128,0.01268436,-1.494152,3.077694,-0.02061659,-0.0113639,0.0001442814,-0.01410976,-0.3143979,2.602874,-3.13554
90,4.011099,465,154,487,499,-0.009163551,0.002818109,0.01109613,-1.494002,3.077867,-0.02068743,-0.009751325,0.001823667,-0.01360391,-0.3145257,2.603099,-3.135685
89.8,4.02221,400,172,486,493,-0.01028137,-0.00164697,0.01273183,-1.493886,3.078058,-0.02081527,-0.01039225,0.002836423,-0.01269397,-0.3146024,2.603452,-3.135886
89.60001,4.033321,400,172,486,493,-0.006311856,0.004311893,0.01782054,-1.493991,3.078356,-0.02068211,-0.01234203,0.0004863366,-0.007716024,-0.3144895,2.603319,-3.135528
89.40001,4.044433,400,172,486,493,-0.002094942,0.003178257,0.01898518,-1.49409,3.078565,-0.02064589,-0.01460148,-0.003551351,-0.007310864,-0.31449,2.603256,-3.135185
89.20001,4.055544,400,172,486,493,0.00840723,0.006224701,0.02195124,-1.494487,3.078833,-0.02057345,-0.01233964,-0.01267872,-0.01552199,-0.3149081,2.602129,-3.133804
89.00002,4.066655,422,170,508,501,0.01930168,0.01225239,0.01664654,-1.495015,3.078795,-0.02026399,-0.01233392,-0.006950692,-0.01441395,-0.3149742,2.602448,-3.133936
88.80002,4.077766,422,170,508,501,0.02040259,0.01448919,0.01583877,-1.495358,3.078868,-0.02011539,-0.01200237,-0.002568838,-0.01655828,-0.3151425,2.603327,-3.134562
88.60002,4.088878,422,170,508,501,0.02584327,0.01368426,0.01386451,-1.495794,3.07892,-0.0199801,-0.009404207,-0.003600615,-0.02356068,-0.315575,2.603245,-3.134292
88.40002,4.099989,422,170,508,501,0.02695533,0.01380212,0.01284778,-1.496024,3.078965,-0.01980806,-0.005462501,0.004111355,-0.03687535,-0.3163676,2.603983,-3.134953
88.20003,4.1111,422,170,508,501,0.02805268,0.0116943,0.01267681,-1.496431,3.079063,-0.01974148,-0.002916565,-0.004644644,-0.03156677,-0.3165678,2.603138,-3.134031
88.00003,4.122211,470,148,465,497,0.02809256,0.01286553,0.01171024,-1.496733,3.079107,-0.01953535,-0.006485933,-0.01271797,-0.0226259,-0.3165247,2.602161,-3.13284
87.80003,4.133323,470,148,465,497,0.02257756,0.01570387,0.0149389,-1.496825,3.079391,-0.01928342,-0.004920854,-0.01236168,-0.01316595,-0.3163265,2.601758,-3.132451
87.60004,4.144434,470,148,465,497,0.0235944,0.01561503,0.01603685,-1.497141,3.079541,-0.01912842,-0.007493693,-0.001917363,-0.01289297,-0.3163969,2.602742,-3.133294
87.40004,4.155545,470,148,465,497,0.0181437,0.01316072,0.01874954,-1.497204,3.07976,-0.01895265,-0.006776445,6.69919E-05,-0.02833419,-0.3170254,2.603197,-3.133496
87.20004,4.166656,407,157,478,496,0.02036506,0.01009977,0.01747855,-1.497499,3.079839,-0.01894573,-0.004477354,4.585553E-05,-0.03543682,-0.3175836,2.603359,-3.1335
87.00005,4.177768,407,157,478,496,0.01870364,0.009947508,0.007742797,-1.497648,3.079698,-0.01875238,-0.0009513916,0.002412868,-0.03430274,-0.3178057,2.603809,-3.133842
86.80005,4.188879,407,157,478,496,0.01968041,0.008694448,0.009805609,-1.497898,3.079862,-0.01869006,-0.001673919,0.008174276,-0.01999698,-0.3176576,2.604443,-3.134545
86.60005,4.19999,407,157,478,496,0.02693562,0.004007961,0.0150462,-1.498441,3.080187,-0.0187412,-0.004931274,0.01358163,-0.01210162,-0.3175164,2.605439,-3.135427
86.40005,4.211102,407,157,478,496,0.03226095,-0.003578736,0.0166893,-1.499025,3.080362,-0.01903095,-0.008453995,0.01458778,-0.01324262,-0.317639,2.60627,-3.13605
86.20006,4.222213,442,165,498,498,0.03846968,-0.00826939,0.02185536,-1.499679,3.080687,-0.01924879,-0.01295415,0.02670753,-0.01248596,-0.3176874,2.608031,-3.13748
86.00006,4.233324,442,165,498,498,0.04924588,-0.01339236,0.02073657,-1.500525,3.080829,-0.01958595,-0.009356938,0.03850411,-0.01807453,-0.3179606,2.610794,-3.140182
85.80006,4.244435,442,165,498,498,0.05455946,-0.02647642,0.02394958,-1.501345,3.081144,-0.02025867,-0.007373024,0.05030215,-0.01858604,-0.3181689,2.613528,3.140228
85.60007,4.255547,442,165,498,498,0.06201233,-0.0319178,0.02582707,-1.502204,3.08148,-0.02074922,-0.008003794,0.06482343,-0.006501345,-0.3178536,2.616831,3.136634
85.40007,4.266658,442,165,498,498,0.07072656,-0.04235435,0.02403445,-1.503193,3.081675,-0.02144431,0.003467068,0.06582075,0.01181192,-0.3173657,2.61859,3.134214
85.20007,4.277769,421,197,497,497,0.08576587,-0.0605719,0.02594044,-1.504528,3.081971,-0.0226161,0.01061474,0.09338699,0.02980397,-0.3168022,2.623363,3.12877
85.00008,4.28888,421,197,497,497,0.09978562,-0.07762787,0.0267587,-1.506046,3.082308,-0.02389122,0.01678988,0.1165606,0.01950284,-0.3169918,2.628932,3.122595
84.80008,4.299992,421,197,497,497,0.11589,-0.1179428,0.03589262,-1.507771,3.083138,-0.02622734,0.01857468,0.1660073,0.01782902,-0.3170317,2.638268,3.112578
84.60008,4.311103,421,197,497,497,0.1214028,-0.1385589,0.0390057,-1.509182,3.083676,-0.02817784,0.02200595,0.1968954,0.01674362,-0.3170962,2.647176,3.102865
84.40009,4.322214,391,144,479,499,0.1282762,-0.1593297,0.03234727,-1.51082,3.084013,-0.03050811,0.01296496,0.2041336,-0.004273556,-0.3176102,2.654977,3.094873
84.20009,4.333325,391,144,479,499,0.1225106,-0.1825759,0.01646942,-1.512056,3.083947,-0.03306261,0.005848333,0.1998511,-0.002195358,-0.3177098,2.661275,3.088496
84.00009,4.344437,391,144,479,499,0.1026936,-0.1998312,0.004068542,-1.512693,3.083906,-0.03571832,-0.00711064,0.1818759,0.002393432,-0.3175271,2.66635,3.083569
83.80009,4.355548,391,144,479,499,0.08050039,-0.210491,0.0008997056,-1.51307,3.084054,-0.03830478,-0.01016481,0.1795646,0.01147573,-0.3170733,2.672587,3.077026
83.6001,4.366659,391,144,479,499,0.04987445,-0.229582,-0.004439785,-1.512822,3.084175,-0.04133492,-0.02251758,0.2040786,0.02626389,-0.316408,2.682224,3.067357
83.4001,4.37777,406,153,498,499,0.02032152,-0.2485335,-0.01089225,-1.512378,3.084226,-0.04461541,-0.01188567,0.2129209,0.02990644,-0.3163356,2.690325,3.058527
83.2001,4.388882,406,153,498,499,0.01404533,-0.2572508,-0.01054598,-1.512364,3.084428,-0.04761146,-0.003890142,0.2376968,0.02359247,-0.3165817,2.700181,3.04807
83.00011,4.399993,406,153,498,499,0.00892666,-0.2726574,-0.01752571,-1.512412,3.084311,-0.05105812,-0.0003984272,0.2559066,0.008878753,-0.3177897,2.709015,3.038826
82.80011,4.411104,406,153,498,499,0.01965559,-0.277548,-0.02104955,-1.5129,3.084343,-0.05427735,0.001058906,0.2491587,0.005989894,-0.3180848,2.716927,3.030573
82.60011,4.422215,439,142,477,498,0.03352544,-0.2818841,-0.02889928,-1.513619,3.084158,-0.05757701,-0.003841043,0.2516515,0.01322838,-0.3179681,2.725914,3.021306
82.40012,4.433327,439,142,477,498,0.05061811,-0.28611,-0.02822282,-1.51463,3.084303,-0.06080796,-0.001456678,0.2496445,0.03334613,-0.3173801,2.733477,3.013168
82.20012,4.444438,439,142,477,498,0.05927408,-0.2929202,-0.02479714,-1.515521,3.084543,-0.06427433,0.0006249845,0.269095,0.06011109,-0.3163835,2.744182,3.00148
82.00012,4.455549,439,142,477,498,0.05608001,-0.294706,-0.02818163,-1.515961,3.084592,-0.06760062,0.001620293,0.2769269,0.05020941,-0.3165827,2.754304,2.990872
81.80013,4.46666,439,142,477,498,0.0486064,-0.301516,-0.03440087,-1.516195,3.084452,-0.07116233,0.01451865,0.2866899,0.02882579,-0.3175346,2.764173,2.980338
81.60013,4.477772,446,132,504,497,0.03258547,-0.3123236,-0.0431968,-1.516134,3.084249,-0.07488223,0.02026987,0.2969412,0.02069063,-0.3181849,2.774358,2.969502
81.40013,4.488883,446,132,504,497,0.02615142,-0.3191811,-0.04846952,-1.51623,3.084093,-0.07867617,0.01656684,0.3045414,0.02148594,-0.3186174,2.785321,2.958023
81.20013,4.499994,446,132,504,497,0.00814423,-0.3256853,-0.049104,-1.5159,3.084036,-0.08238436,0.01760253,0.3119308,0.0195142,-0.3191096,2.79627,2.946456
81.00014,4.511106,446,132,504,497,-0.00852716,-0.3311528,-0.04214754,-1.515336,3.084348,-0.08623262,0.0271205,0.3240486,0.02311191,-0.3196992,2.807675,2.934102
80.80014,4.522217,446,132,504,497,-0.02380022,-0.3427397,-0.03083294,-1.514673,3.084978,-0.09037277,0.02844295,0.3324194,0.02010682,-0.3204214,2.818727,2.922328
80.60014,4.533328,446,132,504,497,-0.01843202,-0.3536252,-0.03738312,-1.51466,3.085023,-0.09462957,0.04157761,0.3340761,0.02187213,-0.3211772,2.829262,2.910664
80.40015,4.544439,446,132,504,497,-0.008540183,-0.3795911,-0.0436192,-1.514829,3.08514,-0.09946907,0.0472737,0.3470641,0.03554167,-0.321647,2.841577,2.897131
80.20015,4.555551,446,132,504,497,0.0001600385,-0.3867843,-0.04582046,-1.515046,3.085352,-0.1039938,0.05065447,0.350688,0.03689654,-0.3224215,2.85234,2.885434
80.00015,4.566662,446,132,504,497,0.01428351,-0.3860065,-0.0437044,-1.515576,3.085538,-0.1082964,0.03910783,0.3371857,0.01843844,-0.3235506,2.862279,2.875184
79.80016,4.577773,411,115,496,499,0.01637724,-0.3742462,-0.04332916,-1.515727,3.085818,-0.1121819,0.02890262,0.3382056,0.01067406,-0.3242995,2.871355,2.865965
79.60016,4.588884,411,115,496,499,0.01100233,-0.373787,-0.04672895,-1.515685,3.085976,-0.1163945,0.02577284,0.3570209,0.002084911,-0.3257259,2.884312,2.852639
79.40016,4.599996,411,115,496,499,-0.001751661,-0.3797397,-0.05090065,-1.515392,3.086301,-0.1208947,0.02992868,0.3547758,-0.003223687,-0.3270506,2.894698,2.841578
79.20016,4.611107,411,115,496,499,-0.01627532,-0.3870646,-0.0650894,-1.514781,3.086166,-0.1254594,0.03117207,0.3572439,0.001742944,-0.3281877,2.906239,2.829441
79.00017,4.622218,411,115,496,499,-0.01860741,-0.3964692,-0.07293341,-1.514619,3.086128,-0.1302105,0.03125346,0.3450206,0.002935559,-0.3293819,2.91567,2.819525
78.80017,4.633329,361,138,490,501,-0.01814917,-0.4053007,-0.07229952,-1.514488,3.086294,-0.1350425,0.02661172,0.3483943,0.02974284,-0.3295832,2.928271,2.806443
78.60017,4.644441,361,138,490,501,-0.0176014,-0.399983,-0.06656873,-1.514311,3.086678,-0.1394612,0.0282827,0.3523383,0.03839757,-0.3303657,2.939938,2.794041
78.40018,4.655552,361,138,490,501,-0.01364279,-0.3929962,-0.05842768,-1.514302,3.087085,-0.1436573,0.02986237,0.3643823,0.02938822,-0.3321148,2.952453,2.781175
78.20018,4.666663,361,138,490,501,-0.006617904,-0.3886787,-0.05327956,-1.514401,3.087533,-0.1479306,0.0328702,0.3873703,-0.003797561,-0.3347668,2.965202,2.768206
78.00018,4.677774,342,130,509,504,0.00599277,-0.3886768,-0.05837448,-1.514728,3.087727,-0.1523222,0.04174244,0.375148,-0.0302569,-0.3373922,2.975251,2.757929
77.80019,4.688886,342,130,509,504,0.04196253,-0.3993498,-0.06838893,-1.516107,3.087602,-0.1572517,0.04824445,0.3669105,-0.02145797,-0.3390481,2.985251,2.747225
77.60019,4.699997,342,130,509,504,0.0553357,-0.3896264,-0.0726598,-1.517114,3.087621,-0.161509,0.05058169,0.3594946,0.004244745,-0.340042,2.996481,2.734826
77.40019,4.711108,342,130,509,504,0.05407274,-0.3766704,-0.07227702,-1.517712,3.08771,-0.1654143,0.0426724,0.3487014,0.01112869,-0.3411797,3.006306,2.724591
77.2002,4.722219,342,130,509,504,0.04190481,-0.372539,-0.06716121,-1.517757,3.087965,-0.1694111,0.02637279,0.3482671,0.003073826,-0.3429773,3.016864,2.714225
77.0002,4.733331,369,126,511,502,0.02015844,-0.3697068,-0.07106681,-1.517381,3.088076,-0.1735508,0.02984348,0.356492,-0.01471737,-0.3453411,3.027207,2.703698
76.8002,4.744442,369,126,511,502,0.0001173913,-0.3691608,-0.07895161,-1.516919,3.088014,-0.1777852,0.0418089,0.3531885,-0.0304538,-0.3478408,3.036061,2.694389
76.6002,4.755553,369,126,511,502,-0.009503424,-0.3668653,-0.07992198,-1.516528,3.088092,-0.1819461,0.04361093,0.3375198,-0.01278658,-0.3490818,3.044548,2.685271
76.40021,4.766665,369,126,511,502,-0.01864979,-0.3684415,-0.07851586,-1.516117,3.088291,-0.1861166,0.05732158,0.3489533,0.01249596,-0.3504358,3.055334,2.673225
76.20021,4.777776,398,143,487,497,-0.0232698,-0.3683364,-0.07502708,-1.515755,3.088661,-0.190253,0.0522742,0.3575568,0.01302151,-0.3522329,3.066041,2.662178
76.00021,4.788887,398,143,487,497,-0.02285236,-0.3726548,-0.07569005,-1.515426,3.088834,-0.1945897,0.04776835,0.3611274,0.00435479,-0.3543985,3.075984,2.652178
75.80022,4.799998,398,143,487,497,-0.01023975,-0.3724205,-0.072301,-1.515777,3.08918,-0.198765,0.05259746,0.3645145,0.004004806,-0.3564567,3.085858,2.641696
75.60022,4.81111,398,143,487,497,0.01067895,-0.3657519,-0.07627337,-1.516459,3.089025,-0.2027635,0.06929028,0.3466021,-0.03255434,-0.3596503,3.091606,2.635284
75.40022,4.822221,398,143,487,497,0.02523533,-0.3514903,-0.08393495,-1.517124,3.088856,-0.2065963,0.06185481,0.3245503,-0.02509552,-0.3613206,3.098581,2.628023
75.20023,4.833332,415,122,507,501,0.02224603,-0.3437204,-0.08834484,-1.517308,3.088713,-0.2103844,0.07111961,0.3293269,-0.0158087,-0.3633063,3.107594,2.618151
75.00023,4.844443,415,122,507,501,0.006135046,-0.3398083,-0.09499101,-1.516937,3.088517,-0.2141027,0.067195,0.3313146,-0.008576378,-0.3652344,3.116209,2.609
74.80023,4.855555,415,122,507,501,0.0010598,-0.338974,-0.09418501,-1.516866,3.088599,-0.2179627,0.0631035,0.3270472,-0.01088193,-0.3673714,3.12416,2.6006
74.60023,4.866666,415,122,507,501,-0.01529476,-0.3494956,-0.1005038,-1.516247,3.088554,-0.2222408,0.06410319,0.3462819,-0.01997878,-0.3700952,3.133568,2.590864
74.40024,4.877777,415,122,507,501,-0.02407303,-0.3669789,-0.1093076,-1.515704,3.088511,-0.2270361,0.07266459,0.3611878,-0.03698829,-0.3733619,-3.14088,2.581752
74.20024,4.888888,447,141,494,497,-0.01786253,-0.3934458,-0.128367,-1.51568,3.088061,-0.2324125,0.06744474,0.3608153,-0.05373962,-0.3764527,-3.133179,2.574141
74.00024,4.9,447,141,494,497,-0.01511568,-0.3905076,-0.1377539,-1.51571,3.087733,-0.2368019,0.06750068,0.3425052,-0.03977509,-0.3784448,-3.126499,2.566743
73.80025,4.911111,447,141,494,497,-0.009475589,-0.3819659,-0.1289339,-1.515725,3.087812,-0.2409809,0.06401482,0.3288294,0.01491822,-0.3789252,-3.117638,2.556799
73.60025,4.922222,447,141,494,497,0.003351629,-0.3784099,-0.118456,-1.516111,3.088009,-0.2452478,0.07663366,0.3387684,0.0458163,-0.3804123,-3.107985,2.545719
73.40025,4.933333,422,137,500,498,0.0233745,-0.3775518,-0.1171049,-1.516966,3.088062,-0.2495552,0.0864574,0.3473566,0.02005789,-0.3834526,-3.100415,2.53746
73.20026,4.944445,422,137,500,498,0.05873346,-0.3726177,-0.1246085,-1.518536,3.087719,-0.2537588,0.09504375,0.3541803,-0.01134096,-0.3868977,-3.093437,2.52994
73.00026,4.955556,422,137,500,498,0.08063623,-0.3601039,-0.1419362,-1.51994,3.086807,-0.2578765,0.1008937,0.3591388,-0.03695939,-0.3903326,-3.086505,2.52257
72.80026,4.966667,422,137,500,498,0.06610876,-0.3467388,-0.1451703,-1.520155,3.086239,-0.2616044,0.1046163,0.3548104,-0.04600793,-0.3933404,-3.079774,2.515318
72.60027,4.977778,422,137,500,498,0.04413688,-0.3437173,-0.1408966,-1.519946,3.086148,-0.2655827,0.1122935,0.357771,-0.04817136,-0.3963609,-3.072697,2.507474
72.40027,4.98889,396,124,494,498,-0.0008003712,-0.3480357,-0.1453934,-1.518624,3.085852,-0.2698469,0.1156975,0.3664307,-0.05456017,-0.3998379,-3.065534,2.499731
72.20027,5.000001,396,124,494,498,-0.03349942,-0.3674892,-0.1546558,-1.517378,3.085568,-0.2748851,0.09754348,0.347151,-0.02855423,-0.4017411,-3.058417,2.492182
72.00027,5.011112,396,124,494,498,-0.04587561,-0.3753118,-0.1611831,-1.516482,3.085204,-0.2796063,0.09025979,0.3516761,-0.006240427,-0.403886,-3.050074,2.48322
71.80028,5.022223,396,124,494,498,-0.05072647,-0.3722022,-0.1538166,-1.515958,3.085309,-0.2840139,0.09011948,0.3540104,0.02321705,-0.40578,-3.041695,2.473711
71.60028,5.033335,385,124,510,499,-0.0385235,-0.3634665,-0.1461232,-1.515775,3.08523,-0.2880326,0.09911537,0.3616613,0.02662119,-0.4084938,-3.033716,2.464653
71.40028,5.044446,385,124,510,499,-0.008160204,-0.332963,-0.1263603,-1.516489,3.085373,-0.2909962,0.1107132,0.3619745,0.008363709,-0.4116693,-3.027683,2.457801
71.20029,5.055557,385,124,510,499,0.002580732,-0.3227598,-0.1291126,-1.516813,3.085074,-0.2947299,0.1221449,0.3451351,-0.02125935,-0.4149876,-3.023592,2.452952
71.00029,5.066669,385,124,510,499,0.01407114,-0.3160709,-0.1345165,-1.517271,3.084725,-0.2984008,0.144548,0.3162274,-0.04648747,-0.4183336,-3.021555,2.449711
70.80029,5.07778,385,124,510,499,0.01347673,-0.3167956,-0.1384884,-1.517382,3.084449,-0.3024259,0.149141,0.3106382,-0.04451029,-0.4212407,-3.01649,2.44359
70.6003,5.088891,399,121,511,499,0.01182061,-0.3219858,-0.1486294,-1.517422,3.08399,-0.3065027,0.1425707,0.2941109,-0.03227146,-0.4234634,-3.012323,2.438487
70.4003,5.100002,399,121,511,499,0.007038504,-0.3181143,-0.1496246,-1.517337,3.083738,-0.3102071,0.122142,0.2861615,0.02754802,-0.4241414,-3.005122,2.430106
70.2003,5.111114,399,121,511,499,-0.007020235,-0.3092636,-0.145962,-1.516855,3.083572,-0.3136788,0.1244808,0.295591,0.03064367,-0.4265617,-2.999033,2.422964
70.00031,5.122225,399,121,511,499,-0.02327183,-0.3038831,-0.1393778,-1.516142,3.083504,-0.3171825,0.1020383,0.2897965,0.02230695,-0.4286912,-2.993613,2.417354
69.80031,5.133336,370,111,503,498,-0.03929886,-0.2992992,-0.1366334,-1.515248,3.083285,-0.3206169,0.08614653,0.2847864,0.03105848,-0.4303535,-2.987625,2.410997
69.60031,5.144447,370,111,503,498,-0.06648669,-0.2917277,-0.1245567,-1.513744,3.083567,-0.3238287,0.09255764,0.2719341,0.03383335,-0.4320984,-2.983446,2.405736
69.40031,5.155559,370,111,503,498,-0.07654864,-0.2979959,-0.1206983,-1.51267,3.083733,-0.3275283,0.09306845,0.2682983,0.03300948,-0.4340931,-2.978443,2.399934
69.20032,5.16667,370,111,503,498,-0.07312769,-0.3005301,-0.1228957,-1.51192,3.083786,-0.3312131,0.1137799,0.2517994,0.03191856,-0.4361161,-2.975225,2.395242
69.00032,5.177781,370,111,503,498,-0.06049573,-0.3039449,-0.1282663,-1.511585,3.083626,-0.3349788,0.131311,0.2416418,0.05403066,-0.4376554,-2.970998,2.389085
68.80032,5.188892,367,107,498,498,-0.03873169,-0.3032952,-0.1347671,-1.511758,3.083392,-0.3387232,0.1616327,0.2511865,0.02742435,-0.4409662,-2.968194,2.384501
68.60033,5.200004,367,107,498,498,-0.04075611,-0.2909844,-0.1337346,-1.511162,3.083166,-0.3419296,0.1607512,0.2312444,-0.01003884,-0.4438025,-2.967634,2.383293
68.40033,5.211115,367,107,498,498,-0.04975501,-0.2860056,-0.1372885,-1.510312,3.082938,-0.3453806,0.1428563,0.2191291,-0.01223764,-0.4456438,-2.964873,2.379986
68.20033,5.222226,367,107,498,498,-0.05945197,-0.2844446,-0.1409219,-1.509242,3.082722,-0.3488815,0.1320129,0.2025133,0.005426027,-0.4469711,-2.962046,2.376097
68.00034,5.233337,367,107,498,498,-0.06473216,-0.2895775,-0.1476868,-1.508451,3.082441,-0.3526568,0.1148855,0.1905725,0.02595221,-0.4479389,-2.958323,2.371449
67.80034,5.244449,391,113,461,498,-0.06226352,-0.294542,-0.154589,-1.507785,3.082073,-0.3564577,0.09885772,0.1785259,0.04466131,-0.4486398,-2.954797,2.367104
67.60034,5.25556,391,113,461,498,-0.06299916,-0.2935575,-0.1539929,-1.507089,3.081986,-0.3599235,0.08425908,0.1805915,0.07717256,-0.4491501,-2.949587,2.360814
67.40034,5.266671,391,113,461,498,-0.06418955,-0.2911349,-0.1463954,-1.506407,3.082119,-0.3633345,0.08139703,0.1944596,0.09046887,-0.4503315,-2.944581,2.354912
67.20035,5.277782,391,113,461,498,-0.07778886,-0.2876162,-0.1390248,-1.505133,3.082269,-0.3666539,0.09123778,0.2087602,0.07863536,-0.4522846,-2.94025,2.349583
67.00035,5.288894,416,110,512,501,-0.08351892,-0.2883684,-0.1375472,-1.503992,3.082418,-0.3702193,0.1150256,0.2097948,0.04429054,-0.4550394,-2.938593,2.346704
66.80035,5.300005,416,110,512,501,-0.08540174,-0.2943375,-0.1448699,-1.502947,3.082349,-0.3740181,0.1303369,0.2164607,0.01097699,-0.4580941,-2.936609,2.343903
66.60036,5.311116,416,110,512,501,-0.08462408,-0.2998647,-0.1505384,-1.501986,3.082294,-0.3779457,0.135251,0.2272905,-0.004113093,-0.460909,-2.933602,2.340158
66.40036,5.322227,416,110,512,501,-0.09129211,-0.3021234,-0.1533185,-1.500719,3.082285,-0.3817364,0.1423691,0.2276162,-0.0162663,-0.463544,-2.931368,2.336995
66.20036,5.333339,416,110,512,501,-0.1060482,-0.3051892,-0.1498757,-1.499155,3.08259,-0.3855197,0.1383344,0.2360654,-0.01520517,-0.4660798,-2.927893,2.332814
66.00037,5.34445,391,122,501,493,-0.1341864,-0.3096544,-0.1512277,-1.496909,3.08289,-0.3894181,0.1293615,0.2382831,-0.003717467,-0.4680293,-2.923993,2.328095
65.80037,5.355561,391,122,501,493,-0.1605307,-0.3221041,-0.1511169,-1.494548,3.083439,-0.3937329,0.1268201,0.2319061,0.009821743,-0.4699302,-2.92089,2.324101
65.60037,5.366673,391,122,501,493,-0.1659189,-0.3376148,-0.1655722,-1.492521,3.083584,-0.3984249,0.1177585,0.2275781,0.03021355,-0.4714626,-2.91685,2.319102
65.40038,5.377784,391,122,501,493,-0.1522195,-0.347394,-0.1765819,-1.491251,3.083589,-0.4031019,0.1074788,0.2352225,0.05198545,-0.4730323,-2.911755,2.313152
65.20038,5.388895,344,132,494,496,-0.1275775,-0.3428798,-0.1687579,-1.490532,3.083947,-0.4071739,0.1158123,0.268759,0.05450881,-0.4758872,-2.905778,2.306191
65.00038,5.400006,344,132,494,496,-0.1098969,-0.322246,-0.1596154,-1.489815,3.084145,-0.4104767,0.1154753,0.2782657,0.04575568,-0.4786286,-2.901258,2.301066
64.80038,5.411118,344,132,494,496,-0.08865291,-0.3102152,-0.1434922,-1.489377,3.084688,-0.4137972,0.1244712,0.2796552,0.03728545,-0.481336,-2.897369,2.296289
64.60039,5.422229,344,132,494,496,-0.07989874,-0.3057307,-0.1472375,-1.488704,3.084891,-0.4175661,0.1490322,0.2925824,0.02829079,-0.4847576,-2.893658,2.291145
64.40039,5.43334,344,132,494,496,-0.06774005,-0.3067087,-0.1541288,-1.488218,3.084933,-0.4214756,0.1751136,0.2690744,-0.002072796,-0.487971,-2.893346,2.289381
64.20039,5.444451,344,132,494,496,-0.05929533,-0.3156698,-0.1707293,-1.487745,3.084778,-0.4258821,0.1820414,0.2394789,-0.0219,-0.4907008,-2.893349,2.288199
64.0004,5.455563,344,132,494,496,-0.0464094,-0.3361299,-0.1948182,-1.487471,3.084551,-0.4308521,0.1778091,0.2334687,-0.02716373,-0.4935066,-2.890876,2.284904
63.8004,5.466674,344,132,494,496,-0.03168017,-0.3363743,-0.2004354,-1.487464,3.084357,-0.4352628,0.16844,0.253,-0.005198509,-0.4961405,-2.886554,2.279567
63.6004,5.477785,344,132,494,496,-0.0347673,-0.3278642,-0.196029,-1.486949,3.084438,-0.4391845,0.1667553,0.2770706,0.00414826,-0.499437,-2.88203,2.274066
63.40039,5.488896,344,132,494,496,-0.04814708,-0.3218378,-0.1792708,-1.48604,3.08494,-0.4429561,0.1558262,0.3003224,0.01832712,-0.5024762,-2.876416,2.267748
63.20039,5.500008,340,123,488,498,-0.05125833,-0.3155479,-0.1691741,-1.485424,3.085285,-0.4466483,0.1409437,0.3279344,0.03932993,-0.5053955,-2.869752,2.260619
63.00039,5.511119,340,123,488,498,-0.04326713,-0.3123478,-0.1723828,-1.485134,3.085381,-0.4505589,0.1270424,0.3308506,0.06002472,-0.5077764,-2.863687,2.253884
62.80039,5.52223,340,123,488,498,-0.03444946,-0.3146621,-0.176702,-1.484982,3.085503,-0.4547049,0.1268792,0.3232155,0.0634857,-0.5103101,-2.85892,2.248262
62.60039,5.533341,340,123,488,498,-0.02420253,-0.3187217,-0.1883068,-1.48494,3.085329,-0.4590986,0.1325561,0.303163,0.06740457,-0.5125046,-2.855471,2.243599
62.40039,5.544453,335,119,503,497,-0.0117051,-0.3329736,-0.203505,-1.485036,3.085191,-0.4638625,0.1362573,0.2912064,0.06397685,-0.5149115,-2.85192,2.238996
62.20039,5.555564,335,119,503,497,-0.03332618,-0.3783942,-0.2298635,-1.484147,3.085536,-0.4700405,0.1336944,0.3109244,0.06989264,-0.5178847,-2.846067,2.232519
62.00039,5.566675,335,119,503,497,-0.06704816,-0.3842351,-0.2215982,-1.482548,3.08617,-0.4750642,0.1253718,0.3241869,0.0791201,-0.5205628,-2.840011,2.225834
61.80039,5.577786,335,119,503,497,-0.08106133,-0.3614911,-0.2023308,-1.481441,3.086732,-0.4786435,0.1092895,0.3273692,0.09506944,-0.5228872,-2.834051,2.219256
61.60039,5.588898,335,119,503,497,-0.1227076,-0.3558158,-0.1890503,-1.478848,3.087746,-0.4828205,0.0911684,0.3368453,0.128987,-0.5246283,-2.826055,2.210634
61.40039,5.600009,319,116,487,499,-0.1542204,-0.3644474,-0.1831933,-1.476266,3.088787,-0.4875098,0.08995739,0.3472749,0.1516047,-0.526915,-2.818662,2.202189
61.20039,5.61112,319,116,487,499,-0.1373297,-0.3733647,-0.1873067,-1.475211,3.089558,-0.4924281,0.09742832,0.3606954,0.1497486,-0.5297794,-2.811884,2.194677
61.00039,5.622231,319,116,487,499,-0.1136,-0.3842594,-0.2035143,-1.474501,3.089973,-0.4977384,0.1070533,0.3544006,0.1371506,-0.5325358,-2.806301,2.188283
60.80038,5.633343,319,116,487,499,-0.09146976,-0.3784568,-0.2118554,-1.474046,3.090224,-0.5024751,0.1195107,0.337351,0.1182965,-0.5352895,-2.802583,2.183537
60.60038,5.644454,361,132,478,498,-0.06870389,-0.3474399,-0.2058406,-1.473609,3.090261,-0.5063724,0.1401707,0.3335444,0.08197671,-0.5387282,-2.798729,2.1789
60.40038,5.655565,361,132,478,498,-0.07400021,-0.3403072,-0.2015748,-1.472698,3.090551,-0.5103996,0.1486572,0.3134237,0.05918087,-0.5419517,-2.796672,2.176044
60.20038,5.666677,361,132,478,498,-0.08268848,-0.3413868,-0.1969304,-1.471562,3.091218,-0.514747,0.1571834,0.3046259,0.05527373,-0.5449349,-2.793491,2.171806
60.00038,5.677788,361,132,478,498,-0.08036417,-0.3380687,-0.2036673,-1.470666,3.091565,-0.5191497,0.1710261,0.3179332,0.05627002,-0.5484967,-2.789397,2.16654
59.80038,5.688899,361,132,478,498,-0.07132611,-0.3490122,-0.2158963,-1.470095,3.091893,-0.524141,0.1787377,0.3165884,0.05120446,-0.5519018,-2.786069,2.162114
59.60038,5.70001,343,132,499,498,-0.04741558,-0.3738137,-0.2502196,-1.470024,3.09167,-0.5301847,0.1631515,0.3203584,0.06734821,-0.5546768,-2.780938,2.156178
59.40038,5.711122,343,132,499,498,-0.0257318,-0.3781269,-0.2583661,-1.470244,3.091766,-0.5355585,0.1581241,0.3409404,0.08695777,-0.5579605,-2.775082,2.149428
59.20038,5.722233,343,132,499,498,-0.0258576,-0.3641967,-0.250464,-1.469827,3.092027,-0.5399601,0.1589435,0.3539414,0.094781,-0.561372,-2.769616,2.143073
59.00038,5.733344,343,132,499,498,-0.05437765,-0.3425164,-0.2270391,-1.468337,3.092695,-0.5435943,0.1630825,0.351501,0.09530839,-0.5646349,-2.765285,2.137729
58.80038,5.744455,402,123,493,497,-0.08381927,-0.3474482,-0.2216848,-1.466646,3.093498,-0.5481622,0.1442477,0.3177241,0.105895,-0.5665652,-2.761256,2.132794
58.60038,5.755567,402,123,493,497,-0.09084627,-0.358723,-0.2407323,-1.465561,3.093838,-0.5535812,0.1411363,0.3128932,0.1242281,-0.5689498,-2.756388,2.126817
58.40038,5.766678,402,123,493,497,-0.09237438,-0.3866618,-0.2693974,-1.46448,3.094193,-0.5598779,0.1712727,0.3271126,0.1204048,-0.5727075,-2.75216,2.120954
58.20037,5.777789,402,123,493,497,-0.09722897,-0.3972199,-0.2703761,-1.463357,3.095005,-0.565511,0.1863133,0.3438731,0.0942201,-0.5770399,-2.748213,2.116317
58.00037,5.7889,402,123,493,497,-0.1108876,-0.3905686,-0.2641743,-1.461761,3.095716,-0.5705546,0.189139,0.3498682,0.07602918,-0.5809904,-2.744495,2.111906
57.80037,5.800012,350,122,499,497,-0.1415075,-0.4139879,-0.2640784,-1.459567,3.097166,-0.5764897,0.1668107,0.3467825,0.08625846,-0.5838544,-2.739705,2.10676
57.60037,5.811123,350,122,499,497,-0.1512968,-0.4039853,-0.2637568,-1.457586,3.097851,-0.5816535,0.1705268,0.3537222,0.1088723,-0.5869842,-2.73469,2.100278
57.40037,5.822234,350,122,499,497,-0.1550819,-0.388447,-0.2449747,-1.455826,3.098936,-0.5860766,0.1915806,0.3494474,0.1306608,-0.5903158,-2.730139,2.093732
57.20037,5.833345,350,122,499,497,-0.1579588,-0.3891505,-0.2483014,-1.454052,3.100004,-0.5913059,0.2013917,0.3359482,0.126869,-0.5936388,-2.72645,2.088517
57.00037,5.844457,350,122,499,497,-0.1457675,-0.3845007,-0.2540308,-1.452662,3.100744,-0.596441,0.214669,0.3021338,0.100393,-0.5968053,-2.725409,2.085833
56.80037,5.855568,353,121,500,498,-0.124972,-0.3823323,-0.2581348,-1.451823,3.10143,-0.6015751,0.2138074,0.302765,0.1152378,-0.5997993,-2.721622,2.080576
56.60037,5.866679,353,121,500,498,-0.08262721,-0.3587093,-0.2630306,-1.451936,3.101404,-0.6060907,0.2112913,0.3275707,0.1683989,-0.6029349,-2.715033,2.071898
56.40037,5.87779,353,121,500,498,-0.05200061,-0.3424055,-0.2614653,-1.451919,3.10142,-0.6103555,0.2049791,0.3375935,0.2030583,-0.6058106,-2.708572,2.063594
56.20037,5.888902,353,121,500,498,-0.00578016,-0.3155515,-0.2614378,-1.453086,3.10096,-0.6142688,0.2082826,0.3680968,0.2225765,-0.6096674,-2.701782,2.055069
56.00037,5.900013,341,116,500,500,0.04940087,-0.2886584,-0.2785053,-1.454663,3.099914,-0.6184201,0.2056577,0.361967,0.2176059,-0.6129201,-2.696606,2.048275
55.80037,5.911124,341,116,500,500,0.07571691,-0.2787658,-0.2901557,-1.455788,3.099203,-0.6226934,0.2066651,0.3629705,0.2181351,-0.6162688,-2.691349,2.041384
55.60036,5.922235,341,116,500,500,0.09611323,-0.2773411,-0.3005481,-1.457285,3.098462,-0.6272975,0.2168193,0.3623914,0.2052272,-0.6200478,-2.687002,2.035366
55.40036,5.933347,341,116,500,500,0.1004796,-0.2764216,-0.30599,-1.458342,3.097792,-0.6318142,0.2315657,0.3610863,0.1879062,-0.6240426,-2.683318,2.030037
55.20036,5.944458,341,116,500,500,0.1048567,-0.2925221,-0.3228125,-1.459574,3.097189,-0.6372513,0.2465364,0.3454175,0.1596603,-0.6280682,-2.680971,2.025956
55.00036,5.955569,314,121,496,498,0.08849356,-0.2827114,-0.3101185,-1.459919,3.096916,-0.6413031,0.2505398,0.3229263,0.1264991,-0.6317407,-2.679142,2.022726
54.80036,5.966681,314,121,496,498,0.07568538,-0.2722003,-0.3027525,-1.46031,3.096488,-0.6454309,0.2333468,0.2872467,0.105953,-0.6344368,-2.677588,2.020006
54.60036,5.977792,314,121,496,498,0.06661826,-0.2758161,-0.3066942,-1.460709,3.09608,-0.6499881,0.2171236,0.2521945,0.09739323,-0.6366819,-2.676227,2.017341
54.40036,5.988903,314,121,496,498,0.02461341,-0.2778048,-0.3022864,-1.459727,3.096106,-0.6544809,0.212955,0.2076301,0.07550018,-0.6388497,-2.676779,2.016151
54.20036,6.000014,267,110,506,497,-0.01780769,-0.2821932,-0.2925096,-1.458352,3.096356,-0.6588011,0.22012,0.2061204,0.06563401,-0.6418708,-2.675968,2.013878
54.00036,6.011126,267,110,506,497,-0.04856384,-0.2906539,-0.2770771,-1.457062,3.097126,-0.663224,0.2166821,0.2223092,0.06234275,-0.6452626,-2.673911,2.010683
53.80036,6.022237,267,110,506,497,-0.06412077,-0.2901114,-0.2690283,-1.455891,3.097533,-0.6673216,0.2083809,0.2309252,0.07002203,-0.648239,-2.671486,2.007205
53.60036,6.033348,267,110,506,497,-0.07440516,-0.2935063,-0.2585956,-1.45494,3.098279,-0.6716013,0.1955431,0.23987,0.09031066,-0.6508206,-2.66829,2.002842
53.40036,6.044459,267,110,506,497,-0.09602937,-0.2997822,-0.2517897,-1.453373,3.099187,-0.6760317,0.1768412,0.2255728,0.102423,-0.6527663,-2.665696,1.999165
53.20036,6.055571,286,104,517,497,-0.1122083,-0.2980099,-0.2468597,-1.451756,3.099879,-0.6801809,0.1645834,0.2084177,0.1066517,-0.6546172,-2.663757,1.99595
53.00035,6.066682,286,104,517,497,-0.1284842,-0.2919432,-0.2372727,-1.449927,3.10074,-0.6840766,0.1418315,0.1896116,0.1105299,-0.6558071,-2.661535,1.99292
52.80035,6.077793,286,104,517,497,-0.1366377,-0.2943626,-0.2327097,-1.448257,3.101713,-0.6880852,0.1504453,0.1948366,0.1068384,-0.6583046,-2.659437,1.989766
52.60035,6.088904,286,104,517,497,-0.143984,-0.2947378,-0.2359981,-1.446475,3.102507,-0.6923447,0.1473844,0.1734543,0.098844,-0.6600096,-2.658421,1.987608
52.40035,6.100016,306,105,492,498,-0.1573871,-0.3012254,-0.2309439,-1.444341,3.103657,-0.6963927,0.1205759,0.1385782,0.07426564,-0.6606174,-2.658068,1.986945
52.20035,6.111127,306,105,492,498,-0.1825842,-0.3099528,-0.2359971,-1.441763,3.104873,-0.7009972,0.08740987,0.08511448,0.05852043,-0.6603037,-2.658268,1.986852
52.00035,6.122238,306,105,492,498,-0.2132848,-0.3113054,-0.2336956,-1.438669,3.106226,-0.7053121,0.06713156,0.08455034,0.06983911,-0.660791,-2.656311,1.98463
51.80035,6.133349,306,105,492,498,-0.236044,-0.3166984,-0.2263476,-1.435624,3.107845,-0.7096536,0.0816647,0.09923416,0.08592276,-0.6622238,-2.6544,1.981565
51.60035,6.144461,306,105,492,498,-0.2485787,-0.3137884,-0.2176252,-1.432655,3.109458,-0.7136739,0.09215328,0.1405101,0.1170361,-0.6642792,-2.650481,1.976577
51.40035,6.155572,409,94,514,497,-0.2459717,-0.311325,-0.2122455,-1.430232,3.110911,-0.7175941,0.1160172,0.1824372,0.1176971,-0.6671889,-2.64742,1.972824
51.20035,6.166683,409,94,514,497,-0.2367465,-0.3102972,-0.2110751,-1.42796,3.112401,-0.7217039,0.1340078,0.1998204,0.1126634,-0.6700401,-2.645059,1.969478
51.00035,6.177794,409,94,514,497,-0.2106206,-0.3026564,-0.2189049,-1.426419,3.113283,-0.7257966,0.1256562,0.2035139,0.1014354,-0.6723134,-2.642909,1.967056
50.80035,6.188906,409,94,514,497,-0.1847163,-0.2987358,-0.2290224,-1.425092,3.11417,-0.7301195,0.1166313,0.2112126,0.1118008,-0.6743284,-2.639576,1.963209
50.60035,6.200017,409,94,514,497,-0.1729352,-0.2857112,-0.2400004,-1.423419,3.114826,-0.7340796,0.1118217,0.1990424,0.1286443,-0.6757995,-2.63668,1.959267
50.40034,6.211128,412,89,495,500,-0.1589165,-0.2732907,-0.246046,-1.421925,3.11549,-0.7379875,0.1191404,0.1766834,0.1212074,-0.6774879,-2.635369,1.956862
50.20034,6.222239,412,89,495,500,-0.1465189,-0.2562053,-0.2534158,-1.418612,3.116608,-0.7462854,0.1617182,0.1472431,0.06431472,-0.6823424,-2.635851,1.954725
50.00034,6.233351,412,89,495,500,-0.1465189,-0.2562053,-0.2534158,-1.418612,3.116608,-0.7462854,0.1617182,0.1472431,0.06431472,-0.6823424,-2.635851,1.954725
49.80034,6.244462,412,89,495,500,-0.1241785,-0.2430898,-0.2591434,-1.417835,3.116802,-0.7497006,0.1733857,0.1515895,0.0526873,-0.6848452,-2.63556,1.953474
49.60034,6.255573,393,90,498,498,-0.09959725,-0.2358709,-0.270865,-1.417322,3.116811,-0.753812,0.1820859,0.1795498,0.04638816,-0.6880825,-2.633839,1.951023
49.40034,6.266685,393,90,498,498,-0.07346565,-0.2309989,-0.2686329,-1.416249,3.117934,-0.7616246,0.1787794,0.204245,0.07614613,-0.6936491,-2.629167,1.944461
49.20034,6.277796,393,90,498,498,-0.07346565,-0.2309989,-0.2686329,-1.416249,3.117934,-0.7616246,0.1787794,0.204245,0.07614613,-0.6936491,-2.629167,1.944461
49.00034,6.288907,393,90,498,498,-0.09111509,-0.2356606,-0.2674928,-1.413695,3.119538,-0.7698538,0.1343735,0.1384264,0.07418107,-0.6954877,-2.627947,1.941304
48.80034,6.300018,393,90,498,498,-0.09111509,-0.2356606,-0.2674928,-1.413695,3.119538,-0.7698538,0.1343735,0.1384264,0.07418107,-0.6954877,-2.627947,1.941304
48.60034,6.31113,326,97,504,501,-0.1078932,-0.2373,-0.2631778,-1.411988,3.12036,-0.7737916,0.1316174,0.1260981,0.0661424,-0.6971197,-2.627518,1.940007
48.40034,6.322241,326,97,504,501,-0.1421509,-0.2653771,-0.2646803,-1.408182,3.123078,-0.7823979,0.1368532,0.1529511,0.07255542,-0.7017578,-2.624434,1.935235
48.20034,6.333352,326,97,504,501,-0.1691944,-0.3024622,-0.2898804,-1.40554,3.124873,-0.7881998,0.1347143,0.1566864,0.08276809,-0.7036764,-2.622569,1.932471
48.00034,6.344463,326,97,504,501,-0.1939453,-0.3287432,-0.2969869,-1.40278,3.127076,-0.7938622,0.1380519,0.1752138,0.1086757,-0.7059204,-2.619486,1.928198
47.80033,6.355575,403,121,500,499,-0.2266856,-0.351963,-0.2902657,-1.399482,3.129832,-0.7992488,0.1378855,0.1807519,0.1264619,-0.7079641,-2.616697,1.924198
47.60033,6.366686,403,121,500,499,-0.2549198,-0.3610573,-0.2689139,-1.39624,3.132613,-0.8039231,0.1279084,0.1964159,0.1326503,-0.7101324,-2.613736,1.920777
47.40033,6.377797,403,121,500,499,-0.266995,-0.367475,-0.2592944,-1.393245,3.135253,-0.808818,0.1279173,0.2043864,0.1304589,-0.7124776,-2.611016,1.917415
47.20033,6.388908,403,121,500,499,-0.2579569,-0.3655836,-0.2669624,-1.390784,3.137341,-0.8138711,0.1271731,0.2092561,0.1292545,-0.7147786,-2.608341,1.914119
47.00033,6.40002,426,140,510,497,-0.2477662,-0.3701431,-0.2907456,-1.388409,3.139282,-0.8197838,0.1419949,0.2203841,0.1241032,-0.7177469,-2.605944,1.910878
46.80033,6.411131,426,140,510,497,-0.2188934,-0.3676584,-0.3050934,-1.386871,3.140936,-0.8252832,0.1750958,0.2289028,0.1131408,-0.7214035,-2.604442,1.90807
46.60033,6.422242,426,140,510,497,-0.1827072,-0.3570456,-0.3100294,-1.385809,-3.140791,-0.8304434,0.1810701,0.2441751,0.1038768,-0.724783,-2.602126,1.905205
46.40033,6.433353,426,140,510,497,-0.1827072,-0.3570456,-0.3100294,-1.385809,-3.140791,-0.8304434,0.1810701,0.2441751,0.1038768,-0.724783,-2.602126,1.905205
46.20033,6.444465,426,140,510,497,-0.1304913,-0.3447472,-0.3185365,-1.384233,-3.137725,-0.8409741,0.1697277,0.2610824,0.1158215,-0.7308417,-2.59602,1.898129
46.00033,6.455576,426,140,510,497,-0.1304913,-0.3447472,-0.3185365,-1.384233,-3.137725,-0.8409741,0.1697277,0.2610824,0.1158215,-0.7308417,-2.59602,1.898129
45.80033,6.466687,411,125,491,495,-0.06579575,-0.3306643,-0.3492017,-1.384174,-3.135981,-0.8521658,0.1388652,0.2385683,0.1627878,-0.7346202,-2.588906,1.888891
45.60033,6.477798,411,125,491,495,-0.03464159,-0.306399,-0.3526341,-1.384515,-3.135741,-0.8571118,0.1343242,0.2441063,0.1786477,-0.7369813,-2.584941,1.884044
45.40033,6.48891,411,125,491,495,-0.02356392,-0.2917902,-0.343784,-1.384492,-3.135018,-0.861604,0.1380227,0.2672317,0.1728476,-0.7400504,-2.581047,1.880107
45.20033,6.500021,369,115,508,497,-0.01933712,-0.292574,-0.3473563,-1.384418,-3.134072,-0.8668925,0.1240605,0.2702659,0.1507169,-0.7425415,-2.57806,1.877413
45.00032,6.511132,369,115,508,497,-0.02913645,-0.297031,-0.3483061,-1.38385,-3.132814,-0.8721879,0.1300754,0.2819959,0.1340141,-0.7458246,-2.574986,1.874455
44.80032,6.522243,369,115,508,497,-0.03747052,-0.3018053,-0.3380948,-1.383287,-3.131298,-0.8771179,0.1502548,0.2897241,0.1266793,-0.7494796,-2.572232,1.871183
44.60032,6.533355,369,115,508,497,-0.04596972,-0.3053768,-0.3335613,-1.382605,-3.129704,-0.88217,0.172063,0.2900006,0.1157698,-0.7532474,-2.570098,1.868415
44.40032,6.544466,369,115,508,497,-0.05525592,-0.3091932,-0.3278072,-1.381847,-3.128045,-0.8871368,0.1822536,0.274588,0.10322,-0.7563351,-2.568705,1.8662
44.20032,6.555577,335,110,506,500,-0.06000105,-0.3180001,-0.324165,-1.381196,-3.126117,-0.8923331,0.1870516,0.2606209,0.1083273,-0.7593141,-2.566746,1.863246
44.00032,6.566689,335,110,506,500,-0.06218979,-0.3254703,-0.3224612,-1.380553,-3.124228,-0.8975721,0.1723005,0.233519,0.1418937,-0.7610111,-2.563943,1.859036
43.80032,6.5778,335,110,506,500,-0.06217232,-0.3236902,-0.3134441,-1.38,-3.122355,-0.9023328,0.168865,0.2220138,0.1504942,-0.7632971,-2.561576,1.855491
43.60032,6.588911,335,110,506,500,-0.06339714,-0.308797,-0.3015406,-1.379329,-3.120954,-0.9065278,0.1813747,0.2073273,0.1405439,-0.7660343,-2.560468,1.852969
43.40032,6.600022,335,110,506,500,-0.0676966,-0.2916257,-0.288454,-1.378502,-3.119558,-0.9105449,0.1848777,0.1805204,0.09981623,-0.7684962,-2.560848,1.852709
43.20032,6.611134,328,107,499,498,-0.07652566,-0.2922294,-0.2846033,-1.377565,-3.11774,-0.9150009,0.1900676,0.1703267,0.06277567,-0.7712083,-2.561234,1.852597
43.00032,6.622245,328,107,499,498,-0.09034365,-0.3044866,-0.2777522,-1.376383,-3.115272,-0.9195267,0.1927207,0.171905,0.05841543,-0.7740052,-2.560304,1.850884
42.80032,6.633356,328,107,499,498,-0.1125875,-0.3267457,-0.2703863,-1.374854,-3.112189,-0.9244301,0.1944073,0.1851495,0.07621287,-0.7770188,-2.558523,1.848143
42.60032,6.644467,328,107,499,498,-0.1497004,-0.3468748,-0.26407,-1.372646,-3.108956,-0.9292914,0.1737281,0.167201,0.09284874,-0.7783642,-2.556839,1.845441
42.40031,6.655579,353,103,501,498,-0.1610154,-0.3535118,-0.2536107,-1.370903,-3.105792,-0.9338406,0.1631004,0.1538023,0.1299009,-0.7798386,-2.554663,1.841502
42.20031,6.66669,353,103,501,498,-0.1637152,-0.3566899,-0.2467257,-1.369435,-3.102838,-0.9382625,0.1607309,0.1511265,0.1589764,-0.7816516,-2.552527,1.837556
42.00031,6.677801,353,103,501,498,-0.1545994,-0.3489973,-0.2453388,-1.368255,-3.100348,-0.9426205,0.1499234,0.1555357,0.1641369,-0.7836298,-2.55035,1.834397
41.80031,6.688912,353,103,501,498,-0.1455681,-0.3546279,-0.270852,-1.367166,-3.097789,-0.9480081,0.1277281,0.1595648,0.1604039,-0.7851894,-2.547827,1.831406
41.60031,6.700024,353,103,501,498,-0.1496734,-0.3868235,-0.3313538,-1.365593,-3.094705,-0.9554085,0.1201879,0.1549857,0.1494233,-0.7868357,-2.546088,1.829005
41.40031,6.711135,353,103,501,498,-0.1496734,-0.3868235,-0.3313538,-1.365593,-3.094705,-0.9554085,0.1201879,0.1549857,0.1494233,-0.7868357,-2.546088,1.829005
41.20031,6.722246,353,103,501,498,-0.1768791,-0.3909076,-0.3248744,-1.363317,-3.091339,-0.9609277,0.1261465,0.142316,0.1294945,-0.7886685,-2.545232,1.827369
41.00031,6.733357,353,103,501,498,-0.2239036,-0.3925037,-0.2661113,-1.360547,-3.087562,-0.9649826,0.1456349,0.1269116,0.1107324,-0.7907404,-2.545251,1.825967
40.80031,6.744469,353,103,501,498,-0.2478098,-0.3969277,-0.2377598,-1.357463,-3.082795,-0.9686529,0.1637497,0.1238023,0.08963771,-0.7932039,-2.545317,1.824925
40.60031,6.75558,353,103,501,498,-0.2545855,-0.4045934,-0.2339804,-1.355079,-3.078691,-0.9734306,0.1718219,0.1227898,0.08086752,-0.7953637,-2.544775,1.823417
40.40031,6.766691,373,93,503,498,-0.2437333,-0.4187292,-0.2706973,-1.353101,-3.07486,-0.9795719,0.1717842,0.1202625,0.08964921,-0.7973861,-2.543973,1.821329
40.20031,6.777802,373,93,503,498,-0.2254713,-0.4229696,-0.3038738,-1.351438,-3.071405,-0.9858745,0.1593784,0.1294402,0.1130173,-0.7990751,-2.541776,1.818202
40.00031,6.788914,373,93,503,498,-0.1874132,-0.3987981,-0.3208919,-1.350636,-3.069048,-0.9914411,0.154525,0.1330123,0.1257723,-0.8009734,-2.54002,1.815279
39.8003,6.800025,373,93,503,498,-0.1561318,-0.3579898,-0.2946094,-1.349835,-3.066991,-0.9949655,0.1508903,0.1431762,0.1271453,-0.8031881,-2.538133,1.812836
39.6003,6.811136,373,93,503,498,-0.1216835,-0.3155221,-0.2603627,-1.349457,-3.065067,-0.9981619,0.1382693,0.1427667,0.1272156,-0.8049468,-2.536288,1.810359
39.4003,6.822248,349,92,495,498,-0.07880795,-0.2722075,-0.2494186,-1.349728,-3.064125,-1.001328,0.1285543,0.1378019,0.1289646,-0.8065021,-2.534672,1.807923
39.2003,6.833359,349,92,495,498,-0.05222768,-0.2517341,-0.2514861,-1.34987,-3.06276,-1.005263,0.1312713,0.1157994,0.1244464,-0.8078177,-2.534061,1.805961
39.0003,6.84447,349,92,495,498,-0.00850901,-0.2190686,-0.2623135,-1.350804,-3.062547,-1.008903,0.1510492,0.1035516,0.1162304,-0.8097911,-2.533963,1.804235
38.8003,6.855581,349,92,495,498,0.007457882,-0.2056349,-0.2666048,-1.351161,-3.061675,-1.012598,0.1629706,0.09796385,0.1009103,-0.8119254,-2.533857,1.802943
38.6003,6.866693,346,101,502,500,0.02489978,-0.1902587,-0.2747739,-1.351824,-3.061242,-1.01637,0.1997193,0.08822826,0.07482986,-0.8147068,-2.535339,1.802617
38.4003,6.877804,346,101,502,500,0.02868953,-0.1798627,-0.2784668,-1.352058,-3.060543,-1.020027,0.2115753,0.09195482,0.06608377,-0.8172783,-2.535652,1.801581
38.2003,6.888915,346,101,502,500,0.03990552,-0.166996,-0.2847793,-1.35273,-3.060336,-1.023736,0.2093567,0.09430144,0.06104929,-0.8195484,-2.535489,1.800311
38.0003,6.900026,346,101,502,500,0.03167081,-0.1634567,-0.2843996,-1.352936,-3.059577,-1.027504,0.1968928,0.09265503,0.06283499,-0.8214734,-2.535265,1.799
37.8003,6.911138,346,101,502,500,0.01548776,-0.1723088,-0.2746758,-1.352671,-3.058288,-1.031027,0.1858846,0.08724841,0.06223302,-0.8232566,-2.53522,1.797846
37.6003,6.922249,340,95,495,498,-0.01251504,-0.1926341,-0.2721019,-1.352002,-3.056445,-1.035014,0.1648959,0.08846673,0.07238893,-0.8247411,-2.534394,1.796153
37.4003,6.93336,340,95,495,498,-0.03702673,-0.2216243,-0.2848097,-1.351214,-3.054261,-1.039659,0.1578378,0.09670084,0.08645985,-0.826512,-2.533577,1.794221
37.20029,6.944471,340,95,495,498,-0.06072259,-0.2513478,-0.3111325,-1.350159,-3.051738,-1.045137,0.1485825,0.1136924,0.110499,-0.8284125,-2.531579,1.791238
37.00029,6.955583,340,95,495,498,-0.08031017,-0.2888948,-0.3633243,-1.349067,-3.048903,-1.052117,0.1390557,0.1131716,0.1238796,-0.8300002,-2.530106,1.788548
36.80029,6.966694,343,90,526,500,-0.1017551,-0.2970966,-0.3520752,-1.347701,-3.046116,-1.057151,0.13118,0.1193011,0.1311836,-0.8316392,-2.528328,1.78591
36.60029,6.977805,343,90,526,500,-0.1164094,-0.2957318,-0.3209354,-1.346458,-3.043379,-1.060947,0.133157,0.1187847,0.1276802,-0.8332898,-2.5274,1.78396
36.40029,6.988916,343,90,526,500,-0.1304287,-0.280816,-0.2770018,-1.344957,-3.040804,-1.063905,0.1349016,0.114254,0.1201122,-0.8350224,-2.52657,1.782155
36.20029,7.000028,343,90,526,500,-0.1324086,-0.2722102,-0.2617106,-1.343827,-3.038494,-1.067526,0.1263727,0.09879944,0.1111724,-0.8361745,-2.525983,1.780644
36.00029,7.011139,343,90,526,500,-0.1286871,-0.2766631,-0.2692257,-1.342664,-3.035708,-1.072083,0.1274337,0.07065888,0.1137039,-0.8370832,-2.526043,1.779088
35.80029,7.02225,388,107,491,498,-0.1342384,-0.2925832,-0.3031626,-1.341308,-3.032838,-1.077595,0.1295337,0.06470177,0.1155882,-0.8383812,-2.525544,1.777176
35.60029,7.033361,388,107,491,498,-0.15635,-0.3368424,-0.3788657,-1.339467,-3.029012,-1.085495,0.1367859,0.06025676,0.125608,-0.8397741,-2.525042,1.774929
35.40029,7.044473,388,107,491,498,-0.1796475,-0.3641911,-0.4109359,-1.337296,-3.024992,-1.092648,0.132233,0.0543188,0.1350041,-0.8408388,-2.524248,1.772508
35.20029,7.055584,388,107,491,498,-0.2139079,-0.3937669,-0.4016966,-1.334768,-3.020138,-1.098752,0.1502637,0.05857357,0.1375967,-0.842671,-2.523785,1.770277
35.00029,7.066695,388,107,491,498,-0.2435695,-0.4166613,-0.3712229,-1.332073,-3.014871,-1.104165,0.154093,0.07841399,0.1376367,-0.8447344,-2.522607,1.767901
34.80029,7.077806,347,97,497,498,-0.2579665,-0.4176816,-0.3638408,-1.329585,-3.010307,-1.109732,0.1478439,0.09145976,0.1364959,-0.8466306,-2.521304,1.765611
34.60028,7.088918,347,97,497,498,-0.2699773,-0.432859,-0.3722371,-1.326996,-3.005164,-1.116037,0.1336479,0.09754448,0.140608,-0.8480527,-2.519684,1.763092
34.40028,7.100029,347,97,497,498,-0.270486,-0.4448923,-0.4006619,-1.3247,-3.000251,-1.123241,0.1144738,0.07353929,0.156729,-0.8484762,-2.518544,1.760286
34.20028,7.11114,347,97,497,498,-0.2633785,-0.5664737,-0.4283494,-1.323434,-2.9914,-1.132234,0.09034672,0.05947056,0.1822495,-0.8485407,-2.516393,1.756641
34.00028,7.122252,363,94,479,498,-0.3331493,-0.543107,-0.5315738,-1.318677,-2.985799,-1.142573,0.08542278,0.04460271,0.2126642,-0.8488538,-2.514518,1.752496
33.80028,7.133363,363,94,479,498,-0.4887365,-0.5967779,-0.5138954,-1.310347,-2.976402,-1.150519,0.08430458,0.06514831,0.2264599,-0.8501007,-2.512022,1.748392
33.60028,7.144474,363,94,479,498,-0.463784,-0.5959198,-0.4936586,-1.306977,-2.969285,-1.1578,0.07833792,0.06405087,0.2127563,-0.8508784,-2.510424,1.745576
33.40028,7.155585,363,94,479,498,-0.4298338,-0.5682099,-0.4746692,-1.304374,-2.96336,-1.164428,0.07071054,0.06146907,0.1914157,-0.8516118,-2.509208,1.743423
33.20028,7.166697,363,94,479,498,-0.3801027,-0.5530467,-0.4957821,-1.302259,-2.957573,-1.172368,0.1101485,0.05748998,0.170178,-0.8535314,-2.50928,1.741598
33.00028,7.177808,333,101,494,502,-0.3342203,-0.5205396,-0.5090317,-1.300331,-2.952614,-1.180123,0.1460014,0.03853738,0.174267,-0.8553013,-2.509623,1.738984
32.80028,7.188919,333,101,494,502,-0.2705378,-0.4693201,-0.5074626,-1.299488,-2.949009,-1.186925,0.1627253,0.02345295,0.1837474,-0.8566628,-2.509354,1.736018
32.60028,7.20003,333,101,494,502,-0.201708,-0.4188601,-0.4868181,-1.299334,-2.945894,-1.192841,0.1629505,0.02846772,0.1914253,-0.8581291,-2.50846,1.732889
32.40028,7.211142,333,101,494,502,-0.1529588,-0.3656478,-0.4662791,-1.298958,-2.943128,-1.198476,0.1350398,0.02295151,0.1923153,-0.8585919,-2.507222,1.729997
32.20028,7.222253,265,105,509,497,-0.112734,-0.3121028,-0.443369,-1.298839,-2.94131,-1.20339,0.1248911,0.01863971,0.1869217,-0.8593062,-2.506431,1.727449
32.00027,7.233364,265,105,509,497,-0.07583073,-0.2763867,-0.4336217,-1.298862,-2.939239,-1.208775,0.1237128,0.02501952,0.1881146,-0.8603827,-2.505411,1.724685
31.80027,7.244475,265,105,509,497,-0.04244965,-0.2322736,-0.4351589,-1.299111,-2.938162,-1.214012,0.1426419,0.03321666,0.1900711,-0.8621004,-2.504629,1.721743
31.60027,7.255587,265,105,509,497,-0.02069828,-0.2070746,-0.4323738,-1.299349,-2.936647,-1.2194,0.1591757,0.03913553,0.1897451,-0.8638805,-2.503898,1.718885
31.40027,7.266698,265,105,509,497,0.01031509,-0.1666388,-0.4221871,-1.300042,-2.936347,-1.223999,0.1985268,0.04814273,0.1713234,-0.8665958,-2.504202,1.717029
31.20027,7.277809,269,114,510,501,0.02889854,-0.1447922,-0.4058394,-1.300712,-2.935553,-1.228341,0.2070837,0.03784935,0.1600629,-0.8685026,-2.504566,1.715043
31.00027,7.28892,269,114,510,501,0.0593228,-0.1108079,-0.3774843,-1.301975,-2.935896,-1.231728,0.2344943,0.02854836,0.1396896,-0.8708941,-2.505857,1.713673
30.80027,7.300032,269,114,510,501,0.08766046,-0.07808765,-0.363005,-1.303009,-2.936218,-1.235476,0.2641047,0.01242003,0.1062382,-0.8735754,-2.508235,1.713279
30.60027,7.311143,269,114,510,501,0.1042465,-0.06584586,-0.3575247,-1.304238,-2.936534,-1.239366,0.280343,-0.004098251,0.08725945,-0.8759068,-2.510483,1.712757
30.40027,7.322254,258,108,506,497,0.1269439,-0.04628943,-0.3531046,-1.305856,-2.937216,-1.243121,0.2941854,-0.02125138,0.07961953,-0.8782189,-2.512909,1.712009
30.20027,7.333365,258,108,506,497,0.1457196,-0.0329868,-0.3528009,-1.30753,-2.937783,-1.247056,0.2981223,-0.03635129,0.07270262,-0.8802834,-2.515208,1.711214
30.00027,7.344477,258,108,506,497,0.1710567,-0.005088121,-0.3529356,-1.309569,-2.939351,-1.25065,0.2610877,-0.04702625,0.0748658,-0.8812517,-2.516568,1.710268
29.80027,7.355588,258,108,506,497,0.1894962,0.02095412,-0.3501542,-1.311501,-2.940928,-1.254126,0.2339487,-0.04059592,0.07736219,-0.8825002,-2.517324,1.709158
29.60027,7.366699,258,108,506,497,0.1889909,0.03505664,-0.3478301,-1.313068,-2.942393,-1.257599,0.2239188,-0.009174943,0.09070748,-0.8845711,-2.517049,1.707258
29.40026,7.37781,295,110,497,499,0.1843655,0.02553324,-0.3369347,-1.314551,-2.942954,-1.261118,0.220528,0.01131958,0.09199987,-0.8869178,-2.51729,1.705858
29.20026,7.388922,295,110,497,499,0.1705979,0.01033741,-0.3295471,-1.315853,-2.943173,-1.264625,0.2239109,0.01925705,0.09065036,-0.88914,-2.517837,1.704551
29.00026,7.400033,295,110,497,499,0.1477443,-0.02287497,-0.3250842,-1.316861,-2.94235,-1.268449,0.2472961,0.008761927,0.08408266,-0.8914639,-2.519567,1.703593
28.80026,7.411144,295,110,497,499,0.1315992,-0.0501783,-0.3238564,-1.317867,-2.941448,-1.272389,0.2542741,-0.02144352,0.07755016,-0.8931065,-2.521626,1.702869
28.60026,7.422256,295,110,497,499,0.1219691,-0.05911756,-0.3263686,-1.318887,-2.940972,-1.276264,0.246829,-0.04921979,0.07251859,-0.8942592,-2.523878,1.702244
28.40026,7.433367,269,96,491,498,0.1215003,-0.05367927,-0.3374959,-1.320086,-2.940902,-1.280388,0.2315239,-0.0676247,0.06265638,-0.8951311,-2.525907,1.701777
28.20026,7.444478,269,96,491,498,0.1231869,-0.0567537,-0.4134017,-1.321164,-2.940648,-1.287108,0.219574,-0.05765553,0.06423986,-0.8964807,-2.527071,1.700902
28.00026,7.455589,269,96,491,498,0.1226652,-0.06108709,-0.4787768,-1.322198,-2.940168,-1.294505,0.2031997,-0.04001859,0.07774097,-0.8978267,-2.527125,1.699294
27.80026,7.466701,269,96,491,498,0.107255,-0.07692923,-0.4186198,-1.32307,-2.939129,-1.297977,0.2081555,-0.02593577,0.08096933,-0.8997245,-2.527882,1.698024
27.60026,7.477812,253,97,490,497,0.08278844,-0.09833653,-0.3514026,-1.323555,-2.937511,-1.300248,0.2096118,-0.00837341,0.07093822,-0.9018561,-2.528773,1.697429
27.40026,7.488923,253,97,490,497,0.06299913,-0.1124826,-0.3065881,-1.323902,-2.935868,-1.302742,0.1946131,0.007937819,0.06026845,-0.9035621,-2.529088,1.696908
27.20026,7.500034,253,97,490,497,0.06500256,-0.1023334,-0.3134328,-1.324672,-2.935172,-1.306841,0.1731358,-0.02664569,0.0620596,-0.9037959,-2.530568,1.696275
27.00026,7.511146,253,97,490,497,0.07844961,-0.08639959,-0.3195922,-1.325778,-2.934894,-1.310708,0.1734564,-0.04884967,0.04424302,-0.904475,-2.532821,1.696479
26.80025,7.522257,253,97,490,497,0.0920603,-0.06643814,-0.3374864,-1.326918,-2.93503,-1.315061,0.1768531,-0.05279572,0.03475236,-0.905658,-2.534616,1.696426
26.60025,7.533368,311,120,493,498,0.1020823,-0.04653656,-0.3629597,-1.328071,-2.93529,-1.319805,0.181708,-0.03685103,0.03379849,-0.9074221,-2.535577,1.695832
26.40025,7.544479,311,120,493,498,0.1114967,-0.03897721,-0.3925661,-1.329288,-2.935252,-1.325098,0.1811488,-0.02281336,0.03695983,-0.9090546,-2.536356,1.695194
26.20025,7.555591,311,120,493,498,0.09456497,-0.0393089,-0.3627057,-1.329699,-2.93477,-1.328346,0.1768874,-0.01558034,0.04372446,-0.9104645,-2.537007,1.694254
26.00025,7.566702,311,120,493,498,0.06748003,-0.06383527,-0.3227733,-1.32988,-2.933405,-1.33116,0.1726655,-0.0270928,0.02287486,-0.9115356,-2.538831,1.69472
25.80025,7.577813,291,117,492,497,0.053505,-0.07671707,-0.3249494,-1.330135,-2.932039,-1.335169,0.1803987,-0.0370273,0.02271526,-0.9127856,-2.540765,1.694594
25.60025,7.588924,291,117,492,497,0.0556989,-0.07958899,-0.3336827,-1.330798,-2.931131,-1.339359,0.1808447,-0.0453604,0.04041812,-0.91391,-2.541944,1.69344
25.40025,7.600036,291,117,492,497,0.05834168,-0.09339703,-0.3393466,-1.331733,-2.929829,-1.343696,0.176529,-0.05186336,0.04713532,-0.9148576,-2.543285,1.69277
25.20025,7.611147,291,117,492,497,0.05370685,-0.09361902,-0.3517567,-1.332174,-2.928786,-1.348178,0.1851784,-0.05220072,0.03708142,-0.9162281,-2.545218,1.692823
25.00025,7.622258,291,117,492,497,0.05698127,-0.08221738,-0.3645573,-1.332794,-2.928194,-1.352712,0.1891176,-0.05524504,0.03296167,-0.9175516,-2.547029,1.692645
24.80025,7.633369,331,130,478,498,0.06279936,-0.07939056,-0.3698791,-1.333445,-2.927494,-1.357212,0.1952617,-0.05438226,0.03847923,-0.9189573,-2.548625,1.691984
24.60025,7.644481,331,130,478,498,0.07436514,-0.06710468,-0.3810035,-1.334424,-2.927152,-1.361881,0.2015018,-0.04597332,0.03737713,-0.9206654,-2.550108,1.691549
24.40025,7.655592,331,130,478,498,0.07368934,-0.08327167,-0.3872285,-1.335229,-2.925647,-1.366632,0.1851808,-0.04135764,0.03047179,-0.9217094,-2.551254,1.691402
24.20024,7.666703,331,130,478,498,0.06119761,-0.08447574,-0.3937201,-1.335584,-2.924604,-1.371409,0.1568419,-0.02199124,0.03917126,-0.9225909,-2.551108,1.69052
24.00024,7.677814,331,130,478,498,0.0524486,-0.09035636,-0.3958367,-1.336143,-2.923317,-1.375616,0.1552176,-0.001642987,0.04931565,-0.9241217,-2.551212,1.689483
23.80024,7.688926,305,115,494,498,0.04075393,-0.09784405,-0.4005179,-1.336331,-2.921644,-1.38056,0.1622724,0.01577473,0.07585157,-0.9260424,-2.550732,1.687366
23.60024,7.700037,305,115,494,498,0.02548316,-0.1190685,-0.4029543,-1.336455,-2.919402,-1.385521,0.1693928,0.02508649,0.0899281,-0.9279098,-2.550649,1.685457
23.40024,7.711148,305,115,494,498,0.02371725,-0.1255425,-0.4029582,-1.336826,-2.917561,-1.390341,0.1699151,0.0321077,0.09571191,-0.9295226,-2.550562,1.683926
23.20024,7.72226,305,115,494,498,0.01539198,-0.1537729,-0.4111916,-1.337,-2.914615,-1.395689,0.1760035,0.02164514,0.08233046,-0.9311823,-2.551464,1.683225
23.00024,7.733371,305,132,491,497,-0.0002250075,-0.1304459,-0.416827,-1.336471,-2.913384,-1.400642,0.1789027,0.005172223,0.06881348,-0.9325618,-2.552716,1.682748
22.80024,7.744482,305,132,491,497,0.009953111,-0.1368162,-0.4206564,-1.337101,-2.91124,-1.405791,0.1685909,-0.02046235,0.05037791,-0.9333362,-2.554404,1.682765
22.60024,7.755593,305,132,491,497,0.01146042,-0.1333408,-0.4265279,-1.337241,-2.909513,-1.41104,0.1516658,-0.04983288,0.02544826,-0.9334976,-2.556404,1.683298
22.40024,7.766705,305,132,491,497,0.01770648,-0.1206785,-0.4291843,-1.337636,-2.908138,-1.416112,0.145955,-0.05340488,0.007618569,-0.9342939,-2.558137,1.683863
22.20024,7.777816,305,132,491,497,0.02522185,-0.1044455,-0.4301374,-1.338237,-2.90696,-1.420535,0.151535,-0.04401402,0.002264835,-0.9356883,-2.559463,1.683988
22.00024,7.788927,302,180,491,493,0.03386319,-0.09654145,-0.429614,-1.338871,-2.905706,-1.425496,0.1629048,-0.01055035,0.02420265,-0.9378391,-2.559395,1.682768
21.80024,7.800038,302,180,491,493,0.04118869,-0.07989353,-0.4304459,-1.339462,-2.904741,-1.430466,0.1706607,-0.0003003478,0.03592246,-0.9396484,-2.560052,1.68167
21.60023,7.81115,302,180,491,493,0.05574167,-0.06452499,-0.4254828,-1.34038,-2.904033,-1.435178,0.1706291,-0.0005774796,0.03606886,-0.9411478,-2.560918,1.68118
21.40023,7.822261,302,180,491,493,0.06426865,-0.04651002,-0.4226266,-1.341054,-2.903468,-1.439968,0.1737563,0.03591387,0.06677848,-0.9440299,-2.558643,1.678034
21.20023,7.833372,277,175,491,494,0.07609078,-0.04099645,-0.428314,-1.341996,-2.902634,-1.445238,0.1759594,0.03018292,0.08217482,-0.9449908,-2.560115,1.677381
21.00023,7.844483,277,175,491,494,0.09339261,-0.006754421,-0.4262321,-1.343228,-2.903087,-1.449954,0.1850524,0.02421624,0.0885914,-0.9468496,-2.560624,1.675944
20.80023,7.855595,277,175,491,494,0.09541264,-0.008961461,-0.4255208,-1.344224,-2.902506,-1.454543,0.1792445,0.002844781,0.09021306,-0.9478931,-2.561404,1.674513
20.60023,7.866706,277,175,491,494,0.1095785,0.001380056,-0.4228045,-1.345589,-2.90258,-1.45919,0.1802679,-0.02662854,0.07286035,-0.9488582,-2.563334,1.674235
20.40023,7.877817,277,175,491,494,0.110603,0.02323663,-0.4203812,-1.346522,-2.90308,-1.463901,0.1792334,-0.03242174,0.06462284,-0.9500316,-2.564673,1.673837
20.20023,7.888928,264,212,491,496,0.1176823,0.03343821,-0.4221615,-1.347636,-2.903218,-1.46871,0.1751041,-0.03138548,0.06073101,-0.9512599,-2.565502,1.672813
20.00023,7.90004,264,212,491,496,0.1228892,0.03480296,-0.420798,-1.348846,-2.903283,-1.473491,0.1867369,-0.02568504,0.07389327,-0.9529589,-2.566523,1.671711
19.80023,7.911151,264,212,491,496,0.1291638,0.03615124,-0.4204759,-1.350037,-2.903208,-1.478495,0.1866433,-0.0227204,0.07802348,-0.9544641,-2.567352,1.670694
19.60023,7.922262,264,212,491,496,0.1342851,0.03369273,-0.4228616,-1.351443,-2.903179,-1.483343,0.1925949,-0.02363908,0.08921997,-0.9560754,-2.568121,1.669154
19.40023,7.933373,226,169,495,499,0.1281377,0.04895914,-0.4157899,-1.352377,-2.903701,-1.487785,0.1981663,-0.01918566,0.09927402,-0.9575891,-2.568439,1.667534
19.20023,7.944485,226,169,495,499,0.1390183,0.0581841,-0.4108388,-1.353692,-2.904007,-1.492488,0.2046914,-0.02269393,0.09794173,-0.9593857,-2.569497,1.666305
19.00023,7.955596,226,169,495,499,0.1535513,0.07329217,-0.4027489,-1.355676,-2.905094,-1.496332,0.2094657,-0.02906141,0.09845307,-0.960958,-2.57091,1.665173
18.80022,7.966707,226,169,495,499,0.16096,0.106317,-0.3815043,-1.357155,-2.90689,-1.499983,0.2146043,-0.01591489,0.1090717,-0.9630555,-2.571282,1.663361
18.60022,7.977818,226,169,495,499,0.1719993,0.1321266,-0.2944308,-1.358657,-2.909323,-1.500989,0.2258486,0.00649187,0.1180085,-0.9657986,-2.571138,1.661381
18.40022,7.98893,259,156,493,499,0.1797489,0.1506476,-0.2462936,-1.360384,-2.911397,-1.502402,0.2162145,0.01250747,0.1037416,-0.9677352,-2.571641,1.660359
18.20022,8.000041,259,156,493,499,0.1880949,0.1765469,-0.2496907,-1.362034,-2.914073,-1.505051,0.2103706,0.003866434,0.08992074,-0.9692223,-2.572822,1.659699
18.00022,8.011152,259,156,493,499,0.1869937,0.1847752,-0.2581143,-1.36356,-2.916256,-1.508066,0.2113853,-0.0133065,0.08202352,-0.9707829,-2.574282,1.658875
17.80022,8.022264,259,156,493,499,0.1788131,0.188053,-0.2835059,-1.364832,-2.917955,-1.512117,0.1958007,-0.03520596,0.07560676,-0.9717023,-2.575701,1.658134
17.60022,8.033375,259,156,493,499,0.167624,0.1827639,-0.2813105,-1.365867,-2.91948,-1.515078,0.1936366,-0.0484612,0.05331311,-0.9729529,-2.577601,1.658169
17.40022,8.044486,221,168,503,491,0.1506371,0.1671571,-0.2755432,-1.366758,-2.920641,-1.517972,0.1973697,-0.05041145,0.01190722,-0.9745609,-2.580069,1.659463
17.20022,8.055597,221,168,503,491,0.1281358,0.1549068,-0.2683686,-1.367154,-2.921778,-1.520882,0.199856,-0.0454307,0.0099089,-0.9762152,-2.581491,1.659415
17.00022,8.066709,221,168,503,491,0.1247427,0.1488518,-0.2682107,-1.368161,-2.922948,-1.523871,0.1988436,-0.02909663,0.02664505,-0.9780539,-2.582125,1.658509
16.80022,8.07782,221,168,503,491,0.1196856,0.1447675,-0.2699264,-1.368863,-2.924163,-1.527068,0.1923768,-0.02121726,0.04888546,-0.9796939,-2.582431,1.657067
16.60022,8.088931,212,162,495,500,0.1149218,0.1463078,-0.2729033,-1.369719,-2.925465,-1.530218,0.2026604,-0.01415698,0.05610995,-0.9817733,-2.583262,1.656035
16.40022,8.100042,212,162,495,500,0.1100464,0.1630484,-0.3260813,-1.370393,-2.927155,-1.53512,0.2141806,-0.007038087,0.05190136,-0.9840135,-2.584261,1.655563
16.20021,8.111154,212,162,495,500,0.1175257,0.167682,-0.3516956,-1.371509,-2.928439,-1.539851,0.2209314,0.009728968,0.05260031,-0.9864908,-2.584981,1.654965
16.00021,8.122265,212,162,495,500,0.1267823,0.1482136,-0.2963181,-1.372975,-2.929605,-1.541731,0.2188991,-0.008960083,0.07353286,-0.9881041,-2.586017,1.653401
15.80021,8.133376,212,162,495,500,0.128231,0.1430018,-0.2829994,-1.374055,-2.930761,-1.544442,0.2196542,-0.01229072,0.08691467,-0.9901697,-2.586638,1.65192
15.60021,8.144487,182,172,492,493,0.1137803,0.1345831,-0.2804859,-1.374659,-2.931601,-1.547512,0.2068852,-0.01193519,0.08328008,-0.9916967,-2.587275,1.650916
15.40021,8.155599,182,172,492,493,0.09601219,0.1358719,-0.2838835,-1.374844,-2.932615,-1.550983,0.1878091,-0.02244969,0.07559516,-0.9926273,-2.588326,1.650382
15.20021,8.16671,182,172,492,493,0.09778653,0.1277163,-0.3110872,-1.375791,-2.9331,-1.555286,0.1804656,-0.02729684,0.07863595,-0.993839,-2.589158,1.649305
15.00021,8.177821,182,172,492,493,0.08782506,0.1299386,-0.3162257,-1.376109,-2.934026,-1.558979,0.1885571,-0.02269426,0.07820506,-0.995724,-2.590131,1.648375
14.80021,8.188932,180,179,500,498,0.08352217,0.1279937,-0.3230471,-1.376633,-2.934778,-1.562778,0.2030803,-0.009010077,0.08221236,-0.9981059,-2.590701,1.647122
14.60021,8.200044,180,179,500,498,0.08714651,0.1275936,-0.3239173,-1.377434,-2.935734,-1.566371,0.2012752,0.003584057,0.09622124,-1.000155,-2.590554,1.6453
14.40022,8.211155,180,179,500,498,0.09305935,0.1274501,-0.312759,-1.378398,-2.936663,-1.569567,0.1956096,0.001821399,0.1135914,-1.001773,-2.590637,1.643229
14.20022,8.222266,180,179,500,498,0.09394847,0.1172678,-0.2972531,-1.379212,-2.937329,-1.572324,0.1763566,-0.0191433,0.1291936,-1.002519,-2.590984,1.641074
14.00022,8.233377,180,179,500,498,0.08495723,0.118156,-0.2928849,-1.379596,-2.938063,-1.575804,0.1570888,-0.0455721,0.1164494,-1.002754,-2.592148,1.640098
13.80022,8.244489,190,150,495,498,0.09175071,0.1168454,-0.2928123,-1.380576,-2.938822,-1.579125,0.1474074,-0.0797241,0.08833626,-1.002866,-2.594425,1.640045
13.60022,8.2556,190,150,495,498,0.08816226,0.1177332,-0.2936944,-1.381117,-2.93953,-1.582529,0.152544,-0.09634669,0.07428245,-1.003782,-2.596242,1.639704
13.40022,8.266711,190,150,495,498,0.08833121,0.1217829,-0.297057,-1.381817,-2.940329,-1.585953,0.1569703,-0.09930815,0.05084034,-1.004734,-2.598378,1.639926
13.20022,8.277822,190,150,495,498,0.09462206,0.1234583,-0.2898506,-1.382641,-2.941274,-1.589108,0.1386228,-0.07436641,0.05007928,-1.005706,-2.599237,1.639226
13.00022,8.288934,161,170,497,499,0.09330307,0.1250942,-0.2818059,-1.383591,-2.942207,-1.592089,0.1273633,-0.06627023,0.05265789,-1.006333,-2.599585,1.638557
12.80022,8.300045,161,170,497,499,0.09075613,0.1323771,-0.2736482,-1.384344,-2.943386,-1.595077,0.1127691,-0.04981287,0.06132976,-1.006704,-2.599374,1.637423
12.60022,8.311156,161,170,497,499,0.09582241,0.1404458,-0.2650577,-1.385242,-2.944746,-1.597881,0.126148,-0.05234767,0.06560807,-1.007837,-2.600438,1.636491
12.40022,8.322268,161,170,497,499,0.09778038,0.1493348,-0.2487405,-1.386131,-2.946336,-1.600348,0.1302762,-0.05115217,0.06366397,-1.008833,-2.60144,1.635755
12.20022,8.333379,161,170,497,499,0.102135,0.1532238,-0.2410511,-1.38702,-2.947722,-1.602982,0.1108401,-0.06625901,0.0546608,-1.008686,-2.602431,1.635319
12.00022,8.34449,123,187,500,497,0.09707503,0.1364335,-0.2382714,-1.387788,-2.948383,-1.605593,0.1078802,-0.08254483,0.01900597,-1.008902,-2.60469,1.636355
11.80022,8.355601,123,187,500,497,0.08226381,0.1482917,-0.2293032,-1.387987,-2.949878,-1.608061,0.1136354,-0.1017453,0.007260166,-1.009207,-2.606854,1.636746
11.60022,8.366713,123,187,500,497,0.08374517,0.1390588,-0.2301115,-1.388714,-2.950672,-1.610713,0.1335517,-0.1133826,0.02722525,-1.010055,-2.608895,1.63591
11.40022,8.377824,123,187,500,497,0.08112058,0.1550229,-0.2317758,-1.389217,-2.952207,-1.613681,0.133605,-0.1099867,0.04827052,-1.010609,-2.610039,1.634802
11.20022,8.388935,123,187,500,497,0.08560215,0.1603082,-0.2302316,-1.389991,-2.953629,-1.61635,0.1274986,-0.1034919,0.05203286,-1.011138,-2.611169,1.634068
