ref,t,emg1,emg2,emg1raw,emg2raw,aDotS,bDotS,gDotS,aS,bS,gS,aDotSH,bDotSH,gDotSH,aSH,bSH,gSH
90,0,593,219,498,496,-1.904176,0.3602153,0.5977452,-1.450707,3.01285,-0.2136835,-1.226761,0.392035,1.3847,-0.3945132,-3.027182,2.287817
90,0.01111111,598,210,483,499,-1.766673,0.3304616,0.5779449,-1.454734,3.018063,-0.1986979,-1.188515,0.3750098,1.375728,-0.3807702,-3.046001,2.317487
90,0.02222222,598,210,483,499,-1.658951,0.3048535,0.540954,-1.458164,3.022174,-0.1839387,-1.171396,0.392031,1.380889,-0.3662613,-3.065745,2.348382
90,0.03333334,598,210,483,499,-1.572493,0.2890283,0.5039045,-1.462496,3.025729,-0.1694442,-1.151661,0.4485501,1.326418,-0.3521951,-3.078781,2.372919
90,0.04444445,598,210,483,499,-1.61514,0.3260978,0.486481,-1.467847,3.029849,-0.1507679,-1.136854,0.4784023,1.310336,-0.3380084,-3.097038,2.40238
90,0.05555556,561,225,495,498,-1.588497,0.3049112,0.497388,-1.471501,3.035444,-0.1339149,-1.100556,0.4901012,1.315278,-0.3238489,-3.119257,2.434723
90,0.06666667,561,225,495,498,-1.525642,0.2986668,0.5028549,-1.475279,3.040718,-0.1193112,-1.032714,0.4730432,1.282585,-0.311617,3.140977,2.466015
90,0.07777778,561,225,495,498,-1.444711,0.3136564,0.5007268,-1.479667,3.04583,-0.1057589,-0.9274114,0.3974141,1.1759,-0.3035082,3.119509,2.493892
90,0.08888889,561,225,495,498,-1.313657,0.3147799,0.482785,-1.483672,3.050365,-0.09505142,-0.9183816,0.3697947,1.124643,-0.2938212,3.095891,2.526641
90,0.1,561,225,495,498,-1.213499,0.3474304,0.4219422,-1.488565,3.053042,-0.08396254,-0.8658839,0.2196093,1.067474,-0.289027,3.062765,2.566502
90,0.1111111,675,193,458,500,-1.029289,0.4083909,0.4163654,-1.495175,3.056874,-0.07778668,-0.8111849,0.1259395,0.913389,-0.2867218,3.041886,2.594122
90,0.1222222,675,193,458,500,-0.9728704,0.430999,0.4354776,-1.500871,3.062186,-0.06867334,-0.7561244,0.05357546,0.7923097,-0.2844778,3.02253,2.619859
90,0.1333333,675,193,458,500,-0.9026047,0.4460588,0.4396781,-1.50649,3.066759,-0.06065829,-0.7029459,0.01101339,0.689391,-0.2827515,3.005249,2.643
90,0.1444445,675,193,458,500,-0.8216158,0.4512338,0.4077797,-1.511668,3.070089,-0.05366003,-0.6761102,-0.004899681,0.6113183,-0.2805907,2.989159,2.665361
90,0.1555556,769,225,511,500,-0.7575881,0.4362214,0.3696218,-1.51695,3.072735,-0.04693715,-0.6439941,-0.004873335,0.5257593,-0.2790556,2.976984,2.683378
90,0.1666667,769,225,511,500,-0.6103486,0.3591076,0.2948506,-1.519094,3.07392,-0.04397944,-0.5995744,0.03242785,0.4869915,-0.2755243,2.964621,2.700531
90,0.1777778,769,225,511,500,-0.5505902,0.3081164,0.2932451,-1.521926,3.077146,-0.03933169,-0.5457965,0.07807595,0.4554633,-0.2726161,2.94929,2.722145
90,0.1888889,769,225,511,500,-0.4726833,0.2398426,0.2673075,-1.523049,3.07954,-0.0360576,-0.5148202,0.1018156,0.4542647,-0.2662362,2.934596,2.742107
90,0.2,769,225,511,500,-0.3958879,0.2066246,0.2272258,-1.525112,3.081065,-0.03313878,-0.4646853,0.1294485,0.4569441,-0.2622074,2.919695,2.76032
90,0.2111111,929,248,437,493,-0.3308318,0.1946898,0.1890269,-1.527131,3.081878,-0.03109187,-0.4189281,0.1113415,0.4575214,-0.2592348,2.90161,2.782026
90,0.2222222,929,248,437,493,-0.2977926,0.2041352,0.1666213,-1.529744,3.083145,-0.02855921,-0.4000737,0.08470476,0.430665,-0.2576326,2.886971,2.800109
90,0.2333333,929,248,437,493,-0.2476796,0.2050737,0.1432161,-1.532032,3.083839,-0.02734694,-0.347538,0.05596852,0.365089,-0.2567649,2.879464,2.809916
90,0.2444444,929,248,437,493,-0.2039546,0.1868458,0.1221345,-1.533729,3.084746,-0.02608353,-0.291818,0.01332921,0.3005419,-0.257092,2.87203,2.818869
90,0.2555556,929,248,437,493,-0.1570327,0.161172,0.103235,-1.534723,3.08533,-0.02530216,-0.2265619,-0.003754437,0.2273727,-0.2573828,2.869106,2.822433
90,0.2666667,733,202,485,496,-0.130379,0.1504938,0.09590993,-1.536167,3.086244,-0.02446433,-0.1648739,-0.032528,0.1222768,-0.25883,2.872625,2.81933
90,0.2777778,733,202,485,496,-0.08988938,0.1482812,0.08000512,-1.537738,3.086714,-0.02430667,-0.1381675,-0.06978307,0.03352225,-0.261034,2.877892,2.815098
90,0.2888889,733,202,485,496,-0.062167,0.1555616,0.05014877,-1.540277,3.086362,-0.0240281,-0.123258,-0.09643856,0.03438949,-0.2624769,2.874531,2.819227
90,0.3,733,202,485,496,-0.04187804,0.1499985,0.01932927,-1.541821,3.085767,-0.02401319,-0.1070611,-0.08688526,0.05339883,-0.2628412,2.869677,2.824709
90,0.3111111,712,268,525,501,-0.0236941,0.13923,0.0002532857,-1.543425,3.085015,-0.02453837,-0.08016075,-0.04540461,0.07122925,-0.2621824,2.866463,2.827731
90,0.3222222,712,268,525,501,-0.01409011,0.1317496,-0.003929545,-1.54469,3.084831,-0.02461933,-0.05032213,-0.001768634,0.06667127,-0.2610558,2.865627,2.828361
90,0.3333333,712,268,525,501,-0.01300579,0.1338245,-0.01141696,-1.546319,3.084336,-0.02457459,-0.03130974,-0.003911555,0.05048325,-0.2612103,2.865131,2.828564
90,0.3444445,712,268,525,501,-0.01515396,0.1423732,-0.00829827,-1.548148,3.084293,-0.02431946,-0.0009602029,-0.02522468,0.002195521,-0.2623033,2.868667,2.824337
90,0.3555556,712,268,525,501,-0.01835659,0.151943,-0.009461418,-1.549965,3.084003,-0.02408084,0.0008056313,-0.06463329,-0.02875682,-0.2644476,2.870555,2.82226
90,0.3666667,771,292,498,506,-0.01409331,0.1444883,-0.01044514,-1.551465,3.083944,-0.02392211,0.005881995,-0.1104348,-0.04695788,-0.2670341,2.871127,2.821467
90,0.3777778,771,292,498,506,0.00722079,0.1349047,-0.0156546,-1.553008,3.083583,-0.02435248,0.008002296,-0.1242942,-0.04699022,-0.268836,2.870599,2.821735
90,0.3888889,771,292,498,506,0.02959841,0.1263989,-0.01981417,-1.554528,3.083102,-0.02501454,0.01034632,-0.101938,-0.02995384,-0.2692823,2.869635,2.822479
90,0.4,771,292,498,506,0.03705563,0.1232339,-0.01764509,-1.555855,3.082948,-0.02556848,0.02226291,-0.03911248,-0.02044987,-0.2680525,2.87107,2.820284
90,0.4111111,824,341,453,496,0.03385711,0.1157971,-0.01652659,-1.557159,3.082626,-0.02562174,0.0253665,-0.02207049,-0.032201,-0.2683753,2.874253,2.816667
90,0.4222222,824,341,453,496,0.02321507,0.1030126,-0.01535787,-1.558025,3.082508,-0.02551681,0.02103079,-0.03590992,-0.03749174,-0.2692989,2.875305,2.815534
90,0.4333333,824,341,453,496,0.02644765,0.08490091,-0.01733427,-1.558666,3.082094,-0.02599725,0.01453489,-0.06893097,-0.04383894,-0.2712664,2.875201,2.815596
90,0.4444444,824,341,453,496,0.03923246,0.07857406,-0.01193375,-1.559347,3.082095,-0.02677809,-0.0004004538,-0.05932283,-0.04686662,-0.2718406,2.876735,2.814475
90,0.4555556,824,341,453,496,0.03600916,0.09352755,-0.008876134,-1.561026,3.081927,-0.02705399,-0.0001430828,-0.01991968,-0.02766774,-0.2709383,2.877411,2.813775
90,0.4666667,853,354,458,488,0.02641124,0.100971,-0.008955617,-1.562343,3.081786,-0.02708754,-0.001246246,-0.01458934,-0.0319118,-0.2711236,2.878905,2.812342
90,0.4777778,853,354,458,488,0.01892791,0.1211954,-0.009143948,-1.564157,3.081645,-0.02709713,-0.008844309,-0.03161984,-0.04355837,-0.2722081,2.880672,2.810827
90,0.4888889,853,354,458,488,0.0178494,0.1350449,-0.008204312,-1.565929,3.081539,-0.02739647,-0.01095,-0.05079667,-0.0392894,-0.2733367,2.880509,2.811114
90,0.5,853,354,458,488,0.03594144,0.1478599,-0.007224572,-1.567825,3.08145,-0.02833018,-0.007470466,-0.05188918,-0.01376063,-0.2738305,2.877925,2.813435
90,0.5111111,853,354,458,488,0.03699043,0.1542847,-0.005159945,-1.56987,3.081194,-0.02865348,0.003399339,-0.03593095,0.004242581,-0.273479,2.876578,2.814372
90,0.5222223,803,402,494,486,0.03379151,0.1542767,-0.005158905,-1.571516,3.081186,-0.02889423,0.006578753,-0.03060683,0.002081633,-0.273676,2.876438,2.814353
90,0.5333334,803,402,494,486,0.01675038,0.1393445,-0.003989933,-1.572569,3.081042,-0.02839249,0.01063692,-0.03166024,-0.01715059,-0.2743498,2.87925,2.811362
90,0.5444446,803,402,494,486,0.002919376,0.1212558,0.0004118939,-1.573485,3.081141,-0.02807771,0.01245688,-0.0401659,-0.04487795,-0.2754475,2.882723,2.807838
90,0.5555557,803,402,494,486,-0.005576074,0.1021245,0.005885175,-1.57424,3.081178,-0.02790886,0.004730389,-0.0518588,-0.06825245,-0.276794,2.886953,2.803972
90,0.5666668,778,380,542,493,-0.005555265,0.08613102,0.003896291,-1.574866,3.081146,-0.02781352,0.005916767,-0.06465514,-0.05549134,-0.2778828,2.88641,2.804403
90,0.577778,778,380,542,493,-0.002322853,0.07118631,-0.00131688,-1.575432,3.080608,-0.02797118,0.01272062,-0.0593668,-0.01827021,-0.2780697,2.882699,2.807587
90,0.5888891,778,380,542,493,-0.002289604,0.04880026,-0.001116891,-1.575126,3.080644,-0.02799462,0.01492056,-0.04978588,-0.0129598,-0.2783291,2.882257,2.807747
90,0.6000003,778,380,542,493,-0.003329366,0.03287591,0.005405193,-1.575088,3.080756,-0.02809049,0.01397217,-0.0210229,-0.005470891,-0.2777954,2.882699,2.807209
90,0.6111114,778,380,542,493,-0.006516321,0.0265154,0.01078076,-1.575079,3.08097,-0.02804042,0.01182943,-0.01249623,-0.00757197,-0.277707,2.883299,2.806551
90,0.6222225,648,375,521,493,-0.01611447,0.03077611,0.01179926,-1.575602,3.08118,-0.02760526,0.009600494,-0.02740457,-0.01501757,-0.2785912,2.883637,2.806191
90,0.6333337,648,375,521,493,-0.0203864,0.04141292,0.01169998,-1.576204,3.081321,-0.02733628,0.0009470768,-0.03590343,-0.02666061,-0.279356,2.885567,2.804455
90,0.6444448,648,375,521,493,-0.02145803,0.04459425,0.009539362,-1.576846,3.081334,-0.02702682,-0.007655997,-0.04654248,-0.03296892,-0.2803051,2.886461,2.803888
90,0.655556,648,375,521,493,-0.023624,0.04887423,0.01269396,-1.577387,3.081524,-0.02635091,-0.005452681,-0.04548,-0.02660082,-0.2806897,2.886395,2.803887
90,0.6666671,582,366,511,492,-0.02043126,0.04359287,0.01701181,-1.577769,3.08188,-0.02615011,-0.002161227,-0.02418182,-0.02022541,-0.2804474,2.886796,2.803431
90,0.6777782,582,366,511,492,-0.01727795,0.04687104,0.02551555,-1.57845,3.082432,-0.02566169,-0.001109472,-0.02418324,-0.0213014,-0.2807941,2.887328,2.802934
90,0.6888894,582,366,511,492,-0.01728116,0.05003599,0.02443334,-1.578801,3.082823,-0.02548539,-0.008460462,-0.03376324,-0.01056996,-0.2813054,2.885845,2.804631
90,0.7000005,582,366,511,492,-0.01514835,0.05211609,0.01803017,-1.579482,3.082875,-0.02530855,-0.01464178,-0.03270849,0.008673184,-0.2814801,2.883409,2.807258
90,0.7111117,582,366,511,492,-0.01088957,0.05427658,0.02120123,-1.580041,3.082989,-0.02536608,-0.0167642,-0.02205298,0.00763396,-0.2814567,2.883486,2.807323
90,0.7222228,619,333,500,489,-0.007702809,0.05644946,0.02544893,-1.580728,3.083382,-0.02536075,-0.01371236,-0.02737597,-0.005186279,-0.2820495,2.884268,2.806627
90,0.7333339,619,333,500,489,-0.006645836,0.06292702,0.03284151,-1.581838,3.08377,-0.02546941,-0.02133314,-0.03268537,-0.02001522,-0.2827617,2.885378,2.805952
90,0.7444451,619,333,500,489,-0.01197199,0.06608691,0.02960947,-1.582681,3.084002,-0.02518818,-0.0309194,-0.03374069,-0.01991472,-0.2832155,2.885621,2.806282
90,0.7555562,619,333,500,489,-0.01944484,0.0756131,0.02418539,-1.583725,3.084056,-0.0246172,-0.02976812,-0.02948453,-0.01140212,-0.2833699,2.885101,2.80725
90,0.7666674,527,319,493,493,-0.0258395,0.07879032,0.02308226,-1.584685,3.08426,-0.0241586,-0.0275872,-0.02736013,-0.0071634,-0.2835894,2.88477,2.807754
90,0.7777785,527,319,493,493,-0.01840074,0.07885963,0.0305494,-1.585481,3.084788,-0.02404781,-0.03074427,-0.0294874,-0.002876893,-0.2839292,2.88449,2.808508
90,0.7888896,527,319,493,493,-0.01200917,0.07675707,0.03270832,-1.586292,3.085192,-0.02407977,-0.02977023,-0.03905668,-0.009285497,-0.2844613,2.884909,2.808564
90,0.8000008,527,319,493,493,0.002920568,0.06612585,0.03283028,-1.586734,3.085613,-0.02454582,-0.02241204,-0.03693179,-0.01895129,-0.2849731,2.885891,2.807635
90,0.8111119,527,319,493,493,0.007195529,0.05865552,0.02969932,-1.58732,3.085734,-0.02467898,-0.0267549,-0.03265702,-0.02634744,-0.2852704,2.886793,2.807284
90,0.8222231,538,327,454,494,0.01148507,0.04369308,0.02344735,-1.587413,3.085829,-0.02487765,-0.03620542,-0.01667229,-0.01558027,-0.2849391,2.886588,2.808153
90,0.8333342,538,327,454,494,0.01365951,0.02559576,0.02359012,-1.587296,3.085805,-0.02533092,-0.03395703,0.002488505,-0.00706819,-0.284449,2.886728,2.808287
90,0.8444453,538,327,454,494,0.01364744,0.02141475,0.03215436,-1.587525,3.086445,-0.02538951,-0.02759045,-0.003910031,-0.009284392,-0.2847942,2.887623,2.807462
90,0.8555565,538,327,454,494,0.01258136,0.02036352,0.03429198,-1.58769,3.086889,-0.02550722,-0.03195908,-0.007093307,-0.01882781,-0.2851143,2.889013,2.806574
90,0.8666676,538,327,454,494,0.01683141,0.02360317,0.0385312,-1.588056,3.087423,-0.0258039,-0.0351943,-0.003892735,-0.02304851,-0.2852011,2.89006,2.806013
90,0.8777788,491,308,466,491,0.02001053,0.02785359,0.03637293,-1.588593,3.087807,-0.02588699,-0.03526846,0.007839013,-0.0315546,-0.2848704,2.892238,2.804262
90,0.8888899,491,308,466,491,0.01786622,0.036382,0.03735939,-1.589256,3.08823,-0.02600097,-0.03208634,0.01529366,-0.03371415,-0.2846376,2.894203,2.802643
90,0.900001,491,308,466,491,0.0242545,0.04073061,0.04478931,-1.590021,3.088933,-0.02665931,-0.02671148,0.01421354,-0.02951243,-0.2846413,2.894903,2.802042
90,0.9111122,491,308,466,491,0.02637781,0.04933674,0.05322542,-1.590885,3.089537,-0.02723988,-0.03217736,-0.003879409,-0.04013138,-0.2854637,2.897342,2.800231
90,0.9222233,512,315,484,492,0.02425091,0.04824018,0.05004025,-1.591435,3.09006,-0.0273954,-0.03945399,-0.01879899,-0.02195085,-0.2859692,2.895826,2.802258
90,0.9333345,512,315,484,492,0.01786838,0.04075022,0.04795742,-1.591618,3.090397,-0.0273528,-0.04364523,-0.01347113,-0.01657898,-0.2859899,2.896155,2.802454
90,0.9444456,512,315,484,492,0.01363266,0.02474673,0.0459628,-1.591502,3.090876,-0.02736291,-0.05012015,-0.009196602,-0.02502653,-0.2861497,2.897825,2.801514
90,0.9555568,512,315,484,492,0.01043585,0.02261483,0.0470436,-1.591643,3.09146,-0.02736291,-0.04810423,-0.0006654151,-0.03568973,-0.2860949,2.900202,2.799841
90,0.9666679,512,315,484,492,0.008298906,0.01735172,0.0545486,-1.591689,3.092337,-0.02732723,-0.03967098,0.007851526,-0.04536342,-0.2860704,2.903229,2.79706
90,0.977779,537,282,501,492,0.01040327,0.03015343,0.05657334,-1.592378,3.093067,-0.02741352,-0.04277003,-0.003869541,-0.03468007,-0.2864113,2.902783,2.798097
90,0.9888902,537,282,501,492,0.01678867,0.03652651,0.05333363,-1.593011,3.093586,-0.02776132,-0.04588182,-0.01239702,-0.02613056,-0.2868485,2.902391,2.799055
90,1.000001,537,282,501,492,0.01144504,0.05566482,0.04888346,-1.594276,3.093808,-0.02776772,-0.03829118,-0.006014355,-0.01449375,-0.2865684,2.90238,2.799277
90,1.011112,537,282,501,492,0.01039202,0.06099059,0.04883208,-1.595094,3.094294,-0.02813736,-0.03836083,-0.003878169,-0.02195076,-0.2867213,2.904131,2.797916
90,1.022224,538,279,492,487,0.01145369,0.06417833,0.04774226,-1.595895,3.094807,-0.0282849,-0.04688954,-0.0006733201,-0.02292384,-0.286807,2.90532,2.797502
90,1.033335,538,279,492,487,0.009333633,0.06100118,0.04987387,-1.596511,3.095082,-0.02844096,-0.04687699,-0.004944712,-0.0218536,-0.2871271,2.905209,2.798029
90,1.044446,538,279,492,487,0.006146159,0.05988376,0.04455509,-1.597132,3.095452,-0.02837971,-0.05427538,-0.004940301,-0.01644704,-0.2872219,2.905289,2.798736
90,1.055557,538,279,492,487,0.004029125,0.04595546,0.03720913,-1.597107,3.095534,-0.02810168,-0.04988269,0.007829994,-0.00583164,-0.2867425,2.905072,2.799392
90,1.066668,538,279,492,487,0.001944643,0.02244138,0.02889279,-1.596698,3.095641,-0.02805587,-0.04555438,0.008890796,-0.0005585081,-0.286537,2.905231,2.799477
90,1.077779,554,297,468,500,0.006229762,8.692965E-05,0.03016196,-1.596145,3.09602,-0.02815121,-0.03710321,0.007819247,-0.007043118,-0.2865716,2.906138,2.798803
90,1.08889,554,297,468,500,0.01153809,-0.00304145,0.03552509,-1.596282,3.096611,-0.02819169,-0.03520277,-0.003887229,-0.0273289,-0.2872683,2.909243,2.796105
90,1.100002,554,297,468,500,0.01046553,0.003338609,0.03440186,-1.59652,3.096943,-0.02827585,-0.0459903,-0.01025829,-0.03893568,-0.2878462,2.911295,2.794951
90,1.111113,554,297,468,500,0.01045457,0.01399046,0.03322554,-1.597077,3.097034,-0.02843084,-0.04050276,0.0003730915,-0.02620575,-0.2875905,2.911379,2.795037
90,1.122224,554,297,468,500,0.007254943,0.02457225,0.02566938,-1.597653,3.097096,-0.02842818,-0.04127725,0.01100789,-0.0006209607,-0.2869503,2.909449,2.797352
90,1.133335,600,291,517,498,0.005153751,0.02341976,0.01715186,-1.597736,3.097036,-0.02866307,-0.04536013,0.02272118,0.0143489,-0.2862967,2.908174,2.799215
90,1.144446,600,291,517,498,0.005167513,0.01383247,0.01723687,-1.597649,3.097228,-0.0287126,-0.03241622,0.03015088,0.02806359,-0.2855457,2.906501,2.800838
90,1.155557,600,291,517,498,0.006239909,0.007462462,0.0183799,-1.597727,3.097765,-0.02879942,-0.03065543,0.007801697,-0.003932732,-0.2863069,2.908784,2.798808
90,1.166668,600,291,517,498,0.009442311,-0.002082124,0.02273198,-1.597452,3.098182,-0.02897413,-0.02761665,0.002480885,-0.01781953,-0.286628,2.910587,2.79731
90,1.17778,576,295,492,493,0.01261791,-0.000974765,0.02699972,-1.597522,3.098769,-0.02901035,-0.01807821,-0.008177182,-0.02113986,-0.2870302,2.911835,2.796073
90,1.188891,576,295,492,493,0.0147471,0.003260832,0.02377024,-1.597697,3.098944,-0.02922872,-0.01597702,-0.003917116,-0.02435587,-0.2870904,2.913075,2.794991
90,1.200002,576,295,492,493,0.01472346,0.01604069,0.02260185,-1.598336,3.099279,-0.02923885,-0.03490377,0.02165916,-0.004950213,-0.2860693,2.912479,2.796437
90,1.211113,576,295,492,493,0.01045172,0.0171022,0.02259599,-1.598581,3.09968,-0.02910462,-0.02732994,0.03123133,0.004555707,-0.2854296,2.912495,2.79648
90,1.222224,576,295,492,493,0.01259111,0.00959634,0.01628685,-1.598583,3.099851,-0.02913392,-0.02738989,0.02058025,0.0002867761,-0.2855798,2.912854,2.796458
90,1.233335,581,307,493,495,0.01898357,0.001087351,0.01531377,-1.598565,3.100114,-0.02931927,-0.02097966,0.01418614,0.002349841,-0.2854626,2.91248,2.796817
90,1.244446,581,307,493,495,0.02432345,-0.008497817,0.01541044,-1.598167,3.10035,-0.02971182,-0.02010015,0.01313217,-0.01470674,-0.2855431,2.914634,2.794917
90,1.255558,581,307,493,495,0.02541493,-0.01386818,0.01012979,-1.59793,3.100279,-0.03016829,-0.01489252,0.01419733,-0.02541719,-0.2855654,2.916849,2.7929
90,1.266669,581,307,493,495,0.02861406,-0.01386491,0.01013095,-1.597769,3.100343,-0.03061304,-0.008461036,0.01738343,-0.02228859,-0.2853566,2.91772,2.791982
90,1.27778,580,295,470,492,0.02755608,-0.01069549,0.007968407,-1.597673,3.100364,-0.03100612,-0.007350694,0.0152444,-0.01697266,-0.2852794,2.917604,2.792279
90,1.288891,580,295,470,492,0.03181102,-0.007484118,0.009011851,-1.597679,3.100496,-0.0314775,-0.004112601,0.002453975,-0.01169011,-0.2855724,2.917136,2.792657
90,1.300002,580,295,470,492,0.02967001,0.009534951,0.008856874,-1.597949,3.10058,-0.03195048,-0.0007331893,0.009897974,0.004264203,-0.2850738,2.915644,2.794005
90,1.311113,580,295,470,492,0.02859335,0.01909196,0.005576891,-1.598351,3.100587,-0.0322088,-0.00718943,0.0173677,-0.002052106,-0.2847649,2.916849,2.793144
90,1.322224,580,295,470,492,0.01900003,0.02756235,0.001225705,-1.598869,3.100483,-0.03218324,-0.0104031,0.02057016,-0.004145772,-0.2845097,2.917582,2.792631
90,1.333336,518,282,500,495,0.006215651,0.02964865,-0.002006299,-1.599253,3.100412,-0.03189721,-0.01361409,0.0216417,-0.006232313,-0.284269,2.917854,2.792505
90,1.344447,518,282,500,495,-0.000164751,0.02851748,-0.008398144,-1.599552,3.10014,-0.03173316,-0.006194532,0.01950406,-0.00951032,-0.2841689,2.918586,2.791672
90,1.355558,518,282,500,495,0.00837291,0.01893153,-0.009366289,-1.59949,3.100024,-0.03205221,0.004450506,0.008843886,-0.008566132,-0.2842488,2.918558,2.791437
90,1.366669,518,282,500,495,0.01476193,0.01472393,-0.003991401,-1.5995,3.100138,-0.03236806,0.004438044,-0.00180783,-0.008573439,-0.284538,2.918555,2.791367
90,1.37778,515,259,492,491,0.02116746,0.005146233,-0.003896419,-1.599304,3.100124,-0.03278351,0.001242976,-0.01032201,-0.007483261,-0.2848224,2.918644,2.791361
90,1.388891,515,259,492,491,0.01903698,0.005132812,-0.004962406,-1.599362,3.100071,-0.03288791,0.002356343,-0.009260354,-0.003233044,-0.2848538,2.918248,2.791683
90,1.400002,515,259,492,491,0.01053706,0.01036696,-0.01247801,-1.599448,3.099729,-0.03301467,0.001448812,0.01097073,0.009582371,-0.284032,2.917196,2.792835
90,1.411114,515,259,492,491,0.003065814,0.007108834,-0.01671533,-1.599222,3.099545,-0.03252146,-0.001731701,0.02054781,0.01070105,-0.2837076,2.916525,2.79371
90,1.422225,515,259,492,491,-0.004394595,0.002875209,-0.01242354,-1.599163,3.099566,-0.0322365,-0.00492098,0.01628933,0.01179726,-0.2836096,2.916146,2.794211
90,1.433336,539,270,480,495,-0.005483948,0.009269897,-0.01034749,-1.59923,3.099584,-0.03199415,-0.002830259,0.007762751,0.008563973,-0.2838605,2.916199,2.794034
90,1.444447,539,270,480,495,-0.01400829,0.006099524,-0.006071199,-1.599225,3.099629,-0.03161705,0.0003381612,-0.00395901,0.007455837,-0.2841651,2.915634,2.794479
90,1.455558,539,270,480,495,-0.01933875,0.01780223,-0.008301092,-1.599873,3.099621,-0.03141838,-0.001897335,-0.02206211,1.179054E-05,-0.284897,2.91525,2.794948
90,1.466669,539,270,480,495,-0.01828256,0.02525111,-0.009430779,-1.60034,3.099457,-0.03125166,-0.001843189,-0.01673824,0.004276218,-0.2848884,2.914704,2.795479
90,1.47778,539,270,480,495,-0.02040559,0.02736089,-0.01265693,-1.600845,3.099097,-0.03105565,-0.006004986,-0.02099521,0.01388313,-0.2850456,2.914193,2.796127
90,1.488891,587,237,477,492,-0.02359876,0.0305655,-0.01163736,-1.60129,3.098805,-0.03084739,-0.002714351,-0.001828448,0.02025317,-0.2844187,2.913429,2.796803
90,1.500003,587,237,477,492,-0.03106176,0.02742268,-0.004161948,-1.601485,3.098959,-0.03030837,-0.00599918,-0.00288948,0.01388933,-0.2845497,2.913768,2.796865
90,1.511114,587,237,477,492,-0.02998769,0.02530677,-0.0009551218,-1.601487,3.09891,-0.03017575,-0.006030465,-0.01034577,0.01176611,-0.2848171,2.912488,2.798157
90,1.522225,587,237,477,492,-0.03210766,0.0188932,-0.003028921,-1.601504,3.098864,-0.02973686,-0.008212116,-0.02312466,0.00858423,-0.285346,2.91171,2.799072
90,1.533336,554,253,499,497,-0.03527369,0.008199906,-0.005077163,-1.601066,3.098634,-0.02942473,-0.01359145,-0.02951866,0.005450606,-0.2859404,2.910561,2.800608
90,1.544447,554,253,499,497,-0.03631882,-0.001435906,-0.01031698,-1.600801,3.098445,-0.0289672,-0.007026381,-0.01142711,0.01924193,-0.285412,2.909075,2.801965
90,1.555558,554,253,499,497,-0.03419121,-0.003510467,-0.004963206,-1.600813,3.098622,-0.02868011,0.002621637,-0.001844885,0.02338306,-0.285012,2.909303,2.801423
90,1.566669,554,253,499,497,-0.02781868,-0.0002205768,0.004605196,-1.60092,3.098963,-0.02855282,0.0003607883,-0.007158007,0.01167964,-0.2853678,2.909973,2.800805
90,1.577781,554,253,499,497,-0.02359017,0.01158392,0.01302112,-1.601451,3.099204,-0.02837492,-0.006017188,-0.01460832,0.0138743,-0.2856363,2.908851,2.802111
90,1.588892,479,228,488,498,-0.02572137,0.01580513,0.008720191,-1.601753,3.099175,-0.02800687,-0.01452348,-0.01460767,0.01609932,-0.2858056,2.907562,2.803844
90,1.600003,479,228,488,498,-0.03210481,0.01359447,0.002349563,-1.601641,3.099169,-0.02739913,-0.01439897,-0.0167467,0.02781539,-0.2858387,2.90505,2.806415
90,1.611114,479,228,488,498,-0.03206453,-0.0056352,-0.002806225,-1.600912,3.099044,-0.02711844,-0.0068701,-0.002914184,0.03306823,-0.2854003,2.903783,2.807568
90,1.622225,479,228,488,498,-0.03312071,-0.0130841,-0.001676565,-1.600553,3.099063,-0.02670298,0.001633858,-0.008251266,0.03190584,-0.2855313,2.902497,2.808569
90,1.633336,496,234,492,495,-0.02887419,-0.009851016,0.001491174,-1.600617,3.099101,-0.02644625,0.00881003,-0.02529511,0.00838789,-0.2864453,2.902733,2.808115
90,1.644447,496,234,492,495,-0.02038139,0.007233773,0.004549056,-1.601137,3.099214,-0.02645052,0.003171813,-0.03060165,-0.01923807,-0.2871687,2.904345,2.806777
90,1.655559,496,234,492,495,-0.0161492,0.02534753,0.003317793,-1.60197,3.099013,-0.02629925,-0.005202906,-0.02420811,-0.006358158,-0.2871841,2.903476,2.807886
90,1.66667,496,234,492,495,-0.01297184,0.03600433,0.002169451,-1.60275,3.099071,-0.02615171,-0.007166901,-0.00717382,0.007522758,-0.2867335,2.902359,2.809141
90,1.677781,496,234,492,495,-0.00977882,0.04025115,6.125774E-06,-1.603275,3.098998,-0.02613307,-0.002677795,-0.0008021379,0.02772043,-0.2862845,2.899721,2.811608
90,1.688892,502,281,481,500,-0.005504113,0.04130248,-0.002138743,-1.603694,3.098748,-0.02634505,-0.005832955,0.002395481,0.03095816,-0.2860975,2.898274,2.813111
90,1.700003,502,281,481,500,-0.005486906,0.03169635,-0.00418437,-1.603783,3.098668,-0.02626143,-0.009128515,0.004539054,0.02140815,-0.285942,2.898447,2.813109
90,1.711114,502,281,481,500,-0.01078456,0.0156658,-0.008324128,-1.603425,3.09829,-0.02600737,-0.01256997,-0.01355468,0.0001354972,-0.2866509,2.898988,2.812671
90,1.722225,502,281,481,500,-0.007570163,0.002887418,-0.008206032,-1.60312,3.098211,-0.02601003,-0.008331268,-0.02208132,-0.0009821653,-0.2870856,2.898555,2.813063
90,1.733337,549,252,507,490,-0.008602424,-0.004574775,-0.0070861,-1.602722,3.098066,-0.02625238,-0.01257071,-0.02100973,0.0001250049,-0.2872289,2.898442,2.813288
90,1.744448,549,252,507,490,-0.005398388,-0.001365138,-0.004990666,-1.60268,3.097895,-0.02649366,-0.01042083,-0.01569109,0.001166669,-0.2873407,2.898408,2.813368
90,1.755559,549,252,507,490,-0.005401256,0.002877025,-0.007158892,-1.6028,3.097757,-0.02642495,-0.008241303,-0.01356632,0.005405961,-0.2873572,2.897635,2.814144
90,1.76667,549,252,507,490,-0.00966685,0.008178202,-0.009343117,-1.603017,3.097584,-0.02621722,-0.01456709,-0.01037201,0.01187276,-0.287386,2.896357,2.815816
90,1.777781,549,252,507,490,-0.006481585,0.009276095,-0.008291503,-1.603406,3.097391,-0.02614638,-0.009159019,-0.0007958245,0.01821306,-0.2870004,2.895382,2.816705
90,1.788892,526,249,496,494,-0.004354626,0.008260859,-0.001887471,-1.603316,3.097537,-0.02621509,-0.002831263,-0.00397987,0.01174264,-0.286995,2.896029,2.815821
90,1.800003,526,249,496,494,-0.0001016166,0.009370061,0.002370684,-1.603453,3.097667,-0.02632055,0.002536557,0.00133742,0.01488423,-0.2867633,2.895379,2.816272
90,1.811115,526,249,496,494,-0.004359354,0.01359104,0.0001924443,-1.603489,3.097561,-0.02625717,-0.0007433383,-0.003994271,0.00745339,-0.2871532,2.895536,2.816151
90,1.822226,526,249,496,494,-0.004368298,0.02315005,-0.003088196,-1.603994,3.097422,-0.02620018,-0.00291036,-0.002912337,0.003200799,-0.2871053,2.896666,2.815044
90,1.833337,526,249,496,494,-0.007558685,0.02739744,-0.005270929,-1.604547,3.097146,-0.02615863,-0.008310141,-0.006096734,-0.003134971,-0.2872858,2.897168,2.814801
90,1.844448,499,241,499,500,-0.009678708,0.02309603,-0.009494299,-1.604674,3.096936,-0.02597594,-0.01053625,-0.0124885,-0.01162702,-0.2877572,2.897295,2.814776
90,1.855559,499,241,499,500,-0.01074108,0.01135839,-0.01044962,-1.604356,3.096937,-0.0256276,-0.002993954,-0.01783074,-0.003189922,-0.2880219,2.896297,2.815559
90,1.86667,499,241,499,500,-0.01177595,0.008145833,-0.01255295,-1.604428,3.096745,-0.02578739,-0.006180684,-0.01782639,-0.002090914,-0.2881471,2.896055,2.815957
90,1.877781,499,241,499,500,-0.005380745,0.009192188,-0.01574825,-1.604535,3.096483,-0.02589818,-0.0007577799,-0.01464351,0.006375337,-0.2880954,2.894842,2.816983
90,1.888893,505,234,518,498,-0.00857777,0.01029735,-0.01151278,-1.604772,3.096315,-0.02581082,0.002348294,-0.01889365,-0.002195203,-0.2884108,2.895907,2.815734
90,1.900004,505,234,518,498,-0.007527202,0.01459777,-0.007284838,-1.605065,3.096384,-0.0257256,0.002298738,-0.01249805,-0.007516874,-0.2884507,2.896709,2.814932
90,1.911115,505,234,518,498,-0.006473271,0.01989458,-0.008380998,-1.605118,3.096464,-0.0256015,-0.002986153,-0.0156959,-0.002130248,-0.2887122,2.89574,2.816237
90,1.922226,505,234,518,498,-0.004353849,0.02522637,-0.008421578,-1.60558,3.096405,-0.0255541,-0.003901082,-0.002922558,0.009617827,-0.2882435,2.894188,2.817702
90,1.933337,505,234,518,498,-0.003309302,0.02309314,-0.006251687,-1.605466,3.096658,-0.02524144,-0.006973487,-0.002929354,0.02136689,-0.2881551,2.892528,2.819509
90,1.944448,530,233,532,489,-0.004376289,0.02731926,-0.00948156,-1.60582,3.096526,-0.02517007,0.001570813,-0.004007505,0.02339556,-0.2881817,2.891866,2.819891
90,1.955559,530,233,532,489,-0.005446365,0.02945763,-0.008436819,-1.606196,3.09645,-0.02508911,0.002464149,-0.01145526,0.008465454,-0.2885886,2.89235,2.819373
90,1.966671,530,233,532,489,-0.002259655,0.02732969,-0.009488048,-1.606517,3.096164,-0.02496554,-0.0008994471,-0.02208835,-0.005339493,-0.2890254,2.892513,2.819376
90,1.977782,530,233,532,489,-0.001192471,0.02309015,-0.007317596,-1.606679,3.096153,-0.02495489,-0.005291963,-0.02527032,-0.01701297,-0.2895671,2.893828,2.818286
90,1.988893,546,263,485,494,-0.003291199,0.01664917,-0.0125842,-1.606715,3.095974,-0.02506514,-0.009396654,-0.02527661,-0.00205532,-0.2896971,2.892264,2.820072
90,2.000004,546,263,485,494,-0.002225745,0.01558676,-0.01257195,-1.606897,3.09585,-0.02503585,-0.007145284,-0.0125027,0.007517602,-0.289411,2.891341,2.820963
90,2.011115,546,263,485,494,-0.001153763,0.01347509,-0.01361838,-1.607374,3.09565,-0.0250923,-0.004869569,0.01199092,0.01817453,-0.2884214,2.890173,2.822113
90,2.022226,546,263,485,494,-8.726213E-05,0.009243926,-0.01038324,-1.607356,3.095609,-0.02509763,-0.0006100237,0.01092011,0.01812745,-0.2882068,2.889553,2.822591
90,2.033337,546,263,485,494,0.002050677,0.003963712,-0.007146326,-1.607457,3.095478,-0.02523452,0.003468414,0.0002750843,0.002099822,-0.2886275,2.89035,2.821617
90,2.044448,542,253,482,495,-8.025288E-05,0.0007930947,-0.003925584,-1.607393,3.095541,-0.02517113,0.003290035,-0.02102092,-0.01176318,-0.2895809,2.891154,2.820814
90,2.055559,542,253,482,495,0.0009627174,0.0008385674,0.0003394252,-1.60754,3.095681,-0.02496181,0.002168737,-0.02847355,-0.01601776,-0.290218,2.891779,2.820223
90,2.06667,542,253,482,495,-0.001166131,0.007163102,-0.007167904,-1.607811,3.095512,-0.02489044,-0.000872327,-0.01888743,-0.002136565,-0.2899506,2.891011,2.821163
90,2.077781,542,253,482,495,-9.275554E-05,0.00500588,-0.01034316,-1.607809,3.095301,-0.02492293,-0.000612359,-0.006119914,0.02024233,-0.2894606,2.888573,2.823508
90,2.088892,542,253,482,495,0.003102691,0.01035259,-0.009335568,-1.608124,3.095004,-0.02518498,0.001543401,0.01624919,0.02023379,-0.2886973,2.888781,2.823281
90,2.100003,531,244,505,506,-0.0001148451,0.0189152,-0.004086301,-1.608533,3.095152,-0.02509869,-0.003925938,0.01306936,0.007506661,-0.2887042,2.889702,2.822581
90,2.111114,531,244,505,506,-0.0001582969,0.02850497,-0.003098204,-1.609004,3.095245,-0.02470082,-0.005099283,-0.006099496,-0.001021276,-0.2893929,2.890078,2.822191
90,2.122225,531,244,505,506,-0.002311781,0.03918331,3.586989E-06,-1.60975,3.095342,-0.02457831,-0.005240733,-0.02420697,-0.0116859,-0.2902047,2.890432,2.821926
90,2.133336,531,244,505,506,-0.004448209,0.05616566,-0.006534963,-1.610746,3.095174,-0.02461933,-0.005130412,-0.02847579,-0.001036558,-0.2905802,2.889012,2.823341
90,2.144447,503,252,484,497,-0.007648677,0.05722753,-0.006545678,-1.61141,3.095136,-0.02441053,-0.001838224,-0.01784358,0.006394749,-0.2904864,2.887999,2.824219
90,2.155558,503,252,484,497,-0.004469901,0.06256925,-0.006585514,-1.61239,3.095052,-0.02434662,0.001384303,-0.006130218,0.007433468,-0.290218,2.887879,2.824233
90,2.166669,503,252,484,497,-0.004458211,0.06365512,-0.004454056,-1.613121,3.095196,-0.02451386,-0.0008117985,-0.01145186,0.001052546,-0.2906329,2.888474,2.823565
90,2.17778,503,252,484,497,-0.006576113,0.05724161,-0.006531327,-1.613576,3.095059,-0.02438763,-0.01046515,-0.0178274,-0.00417385,-0.2910617,2.888737,2.82368
90,2.188891,503,252,484,497,-0.01083066,0.04442531,-0.006409307,-1.613344,3.095193,-0.02398709,-0.01043374,-0.01888922,-0.0009739576,-0.2911346,2.888086,2.824452
90,2.200002,545,231,538,502,-0.009722274,0.02516748,-0.01582525,-1.613114,3.094768,-0.02392424,-0.0114619,-0.008236405,0.00117558,-0.2909338,2.888057,2.824641
90,2.211113,545,231,538,502,-0.008630263,0.004951553,-0.01459947,-1.612847,3.094356,-0.02385127,-0.008287404,-0.00717078,-0.0009773574,-0.2909035,2.887777,2.824896
90,2.222224,545,231,538,502,-0.006484415,-0.004635369,-0.01450833,-1.612529,3.094261,-0.02386086,-0.0007314738,0.0066588,0.00639947,-0.2905205,2.887616,2.824863
90,2.233335,545,231,538,502,-0.006484005,-0.009867747,-0.009111585,-1.612991,3.094637,-0.02379215,0.006752052,-0.008268066,0.01056882,-0.2908806,2.886377,2.825785
90,2.244446,520,224,501,499,-0.003291449,-0.009852277,-0.008039917,-1.612928,3.094605,-0.02382357,0.005713957,-0.01252078,0.01376149,-0.2909898,2.886036,2.826148
90,2.255557,520,224,501,499,-0.007566361,-0.0001954129,-0.007019839,-1.614203,3.095175,-0.02361638,0.002480719,-0.01464494,0.01059906,-0.291189,2.885659,2.826564
90,2.266668,520,224,501,499,-0.01182848,0.006170042,-0.01451994,-1.615078,3.095084,-0.0233229,0.0003204448,-0.01357948,0.007425803,-0.2913647,2.885629,2.826568
90,2.277779,520,224,501,499,-0.01076352,0.003004108,-0.01129426,-1.61501,3.095058,-0.02323448,-0.01248463,-0.003972976,0.004375891,-0.2912028,2.886008,2.826669
90,2.28889,520,224,501,499,-0.008643538,0.002998981,-0.01022444,-1.614794,3.095005,-0.02308428,-0.008124731,0.01306459,0.01181219,-0.2904044,2.884891,2.827775
90,2.300001,511,234,483,496,-0.009715201,0.005139136,-0.009178464,-1.614916,3.094934,-0.02294793,-0.002788837,0.01092892,0.012819,-0.2902776,2.884398,2.828109
90,2.311112,511,234,483,496,-0.008670205,0.006298506,-0.005987753,-1.615915,3.094973,-0.02266829,-0.0006517656,0.01412417,0.01278439,-0.2900465,2.884927,2.827526
90,2.322223,511,234,483,496,-0.01187595,0.008467782,-0.0006827266,-1.61604,3.095134,-0.02245737,0.006694742,-0.01145252,0.005218574,-0.2909498,2.884872,2.82727
90,2.333334,511,234,483,496,-0.009775338,0.00962426,0.004637089,-1.616764,3.095309,-0.02208826,0.001280922,-0.02528986,-0.001124603,-0.2916375,2.884832,2.827439
90,2.344445,513,216,485,489,-0.006603736,0.01491938,0.0003614732,-1.617098,3.095588,-0.02175589,-0.006156024,-0.01995618,3.122166E-05,-0.2916529,2.884436,2.828089
90,2.355556,513,216,485,489,-0.006606927,0.01599407,0.001417289,-1.617291,3.095614,-0.02168079,-0.01026446,-0.0007837191,0.01180863,-0.2909844,2.883382,2.829319
90,2.366668,513,216,485,489,-0.008734002,0.01283458,0.000393938,-1.618034,3.095823,-0.02146135,-0.0144312,0.0066691,0.01932424,-0.2906862,2.881879,2.830966
90,2.377779,513,216,485,489,-0.01405661,0.007519314,0.002565345,-1.617999,3.095924,-0.02115509,-0.01547248,0.006669141,0.02146591,-0.29052,2.880999,2.831995
90,2.38889,513,216,485,489,-0.01727757,0.00540906,0.002555792,-1.618364,3.095604,-0.02049888,-0.01027853,-0.006110044,0.01181888,-0.2908939,2.880779,2.832333
90,2.400001,533,228,500,500,-0.01622192,0.006523052,0.007874232,-1.61847,3.095844,-0.02033856,-0.005167123,-0.02101669,-0.006358342,-0.2916742,2.881989,2.831051
90,2.411112,533,228,500,500,-0.01621038,0.002247208,0.004748244,-1.618622,3.096265,-0.02016333,-0.004150294,-0.02208095,-0.01169868,-0.291989,2.882662,2.830281
90,2.422223,533,228,500,500,-0.01516207,0.01185493,0.006795381,-1.619027,3.096391,-0.02003869,-0.001911795,-0.008237212,-0.004264165,-0.2916603,2.882893,2.829896
90,2.433334,533,228,500,500,-0.009862632,0.02252408,0.003501404,-1.6201,3.096171,-0.0198496,-0.001699395,0.003468103,0.01385302,-0.2910899,2.88123,2.831511
90,2.444445,533,228,500,500,-0.005606446,0.02682593,0.007750534,-1.620435,3.096613,-0.01998809,-0.0005550124,0.01091903,0.0213116,-0.2906792,2.879795,2.833037
90,2.455556,453,210,524,506,-0.004552003,0.03217264,0.009835424,-1.620937,3.096766,-0.01996092,-0.003777143,0.01731724,0.01815516,-0.2902851,2.879783,2.833184
90,2.466667,453,210,524,506,-0.003486905,0.03006255,0.01198643,-1.621218,3.096946,-0.01993536,-0.01447912,0.01307675,0.01400032,-0.2902244,2.880095,2.833295
90,2.477778,453,210,524,506,-0.007721996,0.01405869,0.009991168,-1.620939,3.09702,-0.01972017,-0.01553665,0.0002943184,0.0161337,-0.290431,2.878973,2.834562
90,2.488889,453,210,524,506,-0.01302486,-0.009375943,0.008104383,-1.620613,3.097699,-0.01918435,-0.01237701,-0.005027423,0.0150279,-0.2904268,2.878512,2.835299
90,2.5,402,210,504,497,-0.0108698,-0.02536112,0.00718404,-1.619932,3.097759,-0.01911777,-0.01139153,-0.01354475,0.008619399,-0.2907629,2.878382,2.835502
90,2.511111,402,210,504,497,-0.01087774,-0.02965205,0.007197703,-1.619151,3.097507,-0.01883281,-0.008328797,-0.01353575,-0.003128257,-0.2908987,2.879284,2.834714
90,2.522222,402,210,504,497,-0.005548034,-0.02966329,0.005075196,-1.618817,3.097497,-0.01892709,-0.005145057,-0.008214759,-0.00528063,-0.2908497,2.879195,2.83471
90,2.533333,402,210,504,497,-0.006625827,-0.02006284,0.005008684,-1.619071,3.097828,-0.01882695,-0.01250388,0.004573101,0.002266152,-0.290438,2.878917,2.835298
90,2.544444,402,210,504,497,-0.005603188,0.001275854,0.00694804,-1.619835,3.09791,-0.01865438,-0.01667988,0.01309263,0.008728215,-0.2899922,2.877452,2.836942
90,2.555555,395,182,511,510,-0.005637029,0.01837665,0.01318826,-1.620489,3.098208,-0.01857182,-0.01556688,0.01415349,0.0129783,-0.2897152,2.87675,2.837765
90,2.566666,395,182,511,510,-0.006711314,0.0268971,0.009914085,-1.621365,3.098191,-0.01842694,-0.01661886,0.008829795,0.01405985,-0.2896774,2.875784,2.83877
90,2.577777,395,182,511,510,-0.01100394,0.0300778,0.01094565,-1.621508,3.098365,-0.01778938,-0.01234168,0.003496263,0.0161402,-0.2897045,2.874872,2.839662
90,2.588888,395,182,511,510,-0.01102491,0.02792485,0.01309873,-1.621145,3.098633,-0.01737606,-0.01148173,-0.01034477,-0.0009321915,-0.2904273,2.876429,2.838295
90,2.599999,563,237,504,499,-0.007826012,0.02579891,0.01312244,-1.621366,3.098776,-0.01736488,-0.008262987,-0.005020356,9.525754E-05,-0.2902552,2.876751,2.83792
90,2.61111,563,237,504,499,-0.001390295,0.02045861,0.007896112,-1.621799,3.099295,-0.01789911,-0.01142993,-0.0007565413,0.002263496,-0.2901509,2.87659,2.838297
90,2.622221,563,237,504,499,-0.000322083,0.01727384,0.008991358,-1.621919,3.099423,-0.01789325,-0.009231551,0.004562442,0.007579068,-0.2898819,2.875612,2.839242
90,2.633332,563,237,504,499,-0.004580975,0.01089206,0.006932212,-1.622384,3.099749,-0.01752999,-0.01027638,0.002431711,0.009719637,-0.2898478,2.875011,2.839962
90,2.644443,563,237,504,499,-0.0024711,0.00345522,0.008049248,-1.622354,3.09962,-0.01715395,-0.01559374,0.007763252,0.009774434,-0.2896347,2.875244,2.840024
90,2.655554,496,223,445,485,-0.005654976,-0.005071357,0.008120243,-1.622074,3.099721,-0.01700109,-0.01877831,0.01628977,0.00981519,-0.289231,2.875328,2.840244
90,2.666665,496,223,445,485,-0.002456186,-0.008253108,0.009218654,-1.621873,3.099867,-0.0170698,-0.01338629,0.009886098,0.01614502,-0.2892007,2.874042,2.8414
90,2.677776,496,223,445,485,0.003968373,-0.01677513,0.007170595,-1.621603,3.099836,-0.01754544,-0.00701344,0.004552078,0.01500648,-0.2892512,2.873498,2.841832
90,2.688887,496,223,445,485,0.001856171,-0.01570944,0.007198747,-1.621542,3.1005,-0.01775583,-0.006004986,0.01201824,0.008620152,-0.2888092,2.87373,2.841603
90,2.699998,519,247,522,491,0.003988262,-0.01677166,0.007211386,-1.62133,3.100589,-0.0178549,-0.01033037,0.01629164,0.002279237,-0.2885396,2.874542,2.841078
90,2.711109,519,247,522,491,0.002943578,-0.01037813,0.008247157,-1.621332,3.101129,-0.01829272,-0.00715363,0.02267285,0.0001283949,-0.288235,2.874456,2.841203
90,2.72222,519,247,522,491,0.0007968498,-0.003942011,0.01029097,-1.621822,3.100913,-0.01819845,-0.01568291,0.01310085,0.00022,-0.2882584,2.874159,2.84181
90,2.733331,519,247,522,491,0.0007971425,-0.0007746397,0.007066813,-1.621912,3.100894,-0.01821709,-0.01027516,0.004565445,0.008677914,-0.2883149,2.872916,2.842997
90,2.744442,519,247,522,491,0.001856719,0.006655266,0.003806381,-1.622223,3.100844,-0.01828047,-0.007046702,0.0002921177,0.01289434,-0.2884129,2.872226,2.843757
90,2.755553,474,213,493,498,0.001840323,0.007721527,0.005899411,-1.622077,3.100583,-0.01814784,-0.01458814,0.006697426,0.004456224,-0.2883474,2.873138,2.84325
90,2.766664,474,213,493,498,-0.0003003352,0.00666566,0.005900297,-1.622277,3.100582,-0.01792361,-0.01680171,0.01203706,-0.004039659,-0.2880454,2.874447,2.842213
90,2.777775,474,213,493,498,0.00182097,0.009892851,0.009070807,-1.622479,3.100749,-0.01798113,-0.01253474,0.01629278,-0.004082815,-0.2877732,2.874847,2.841832
90,2.788886,474,213,493,498,-0.0003096182,0.009889822,0.009067646,-1.622595,3.100839,-0.01790709,-0.01150882,0.009901085,-0.007308039,-0.2879506,2.875911,2.84085
90,2.799997,474,213,493,498,0.003950153,0.01201692,0.007989777,-1.622789,3.100893,-0.0180589,-0.006072381,0.005626187,0.00328385,-0.2878968,2.874691,2.841954
90,2.811108,484,223,483,496,0.0007559862,0.01414408,0.007996215,-1.623044,3.101396,-0.01801788,-0.005967786,-0.005032944,0.01393405,-0.2880432,2.872569,2.844033
90,2.822219,484,223,483,496,0.001812318,0.02053711,0.00794095,-1.623437,3.101459,-0.01807274,-0.007047862,0.001359975,0.01181457,-0.287893,2.872863,2.843879
90,2.83333,484,223,483,496,0.003943959,0.02587095,0.006853966,-1.624055,3.101812,-0.01823626,-0.007092861,0.002428303,0.007554382,-0.28786,2.873028,2.8438
90,2.844441,484,223,483,496,-0.001421515,0.0312228,0.005729686,-1.62513,3.101772,-0.01758485,-0.007166334,0.007756971,9.487057E-05,-0.2877556,2.874143,2.842797
90,2.855552,528,276,485,494,-0.0046145,0.02803199,0.006818648,-1.625358,3.101871,-0.01745542,-0.01035783,0.01095704,0.0001318937,-0.2875442,2.874378,2.842785
90,2.866663,528,276,485,494,-0.0003082305,0.02268379,0.006919176,-1.625093,3.102634,-0.01808553,-0.009309155,0.0002993336,0.0001159825,-0.2878707,2.873833,2.843396
90,2.877774,528,276,485,494,-0.005618258,0.01201426,0.005940931,-1.62492,3.102693,-0.01788632,-0.009234952,-0.005032459,0.007568899,-0.2879692,2.87263,2.84465
90,2.888885,528,276,485,494,-0.004524129,0.007712121,0.003878925,-1.624571,3.103098,-0.01812334,-0.008176824,-0.01143993,0.007549255,-0.2884203,2.871901,2.845388
90,2.899997,528,276,485,494,-0.003454191,0.006629402,0.001759467,-1.624607,3.103058,-0.01812761,-0.008272341,-0.01356444,-0.0009741075,-0.288708,2.872554,2.844861
90,2.911108,588,248,473,494,-0.0002642395,0.01299599,0.0006815866,-1.624677,3.103633,-0.01820217,-0.01051924,0.002429094,-0.0137152,-0.2882898,2.874471,2.843163
90,2.922219,588,248,473,494,-0.004573401,0.01942029,0.003778819,-1.625152,3.103273,-0.01751827,-0.008358338,-0.001842581,-0.0105433,-0.2884725,2.874191,2.843446
90,2.93333,588,248,473,494,-0.004570343,0.01834555,0.002723054,-1.625323,3.103276,-0.01746714,-0.01144649,-0.008237855,0.0001393082,-0.2886467,2.872949,2.844844
90,2.944441,588,248,473,494,-0.004562857,0.0226356,0.005926016,-1.62571,3.104027,-0.01764131,-0.004882086,-0.005066901,0.01605097,-0.2885024,2.870764,2.846876
90,2.955552,545,232,499,490,-0.002441248,0.02797435,0.006946936,-1.626153,3.104113,-0.0176722,-0.004936771,-0.01145563,0.01178555,-0.2887783,2.87035,2.847308
90,2.966663,545,232,499,490,-0.004557841,0.032209,0.004824221,-1.626562,3.104776,-0.01775902,-0.002880825,-0.0103926,0.005357875,-0.2890292,2.871357,2.846431
90,2.977774,545,232,499,490,-0.01201204,0.02901227,0.005907012,-1.626803,3.104872,-0.0174224,-0.009414383,-0.02209474,-0.006298815,-0.2896443,2.871982,2.846103
90,2.988885,545,232,499,490,-0.0119953,0.02152676,0.0006569731,-1.627092,3.104863,-0.01725409,-0.01369128,-0.02208657,-0.007309181,-0.2898585,2.871685,2.846709
90,2.999996,545,232,499,490,-0.01091374,0.009810458,0.0007629941,-1.626876,3.104887,-0.01716354,-0.0103444,-0.0135784,0.005443695,-0.2896475,2.870467,2.847862
90,3.011107,545,200,500,497,-0.003456953,0.0002375481,-0.0001976916,-1.626811,3.104966,-0.01711827,-0.01024946,-0.0008036718,0.01290695,-0.2892704,2.869627,2.848802
90,3.022218,545,200,500,497,-0.000255153,-0.004018988,-0.0001550253,-1.626647,3.104968,-0.01720562,-0.007020038,0.006647981,0.0150076,-0.2889658,2.869187,2.84921
90,3.033329,545,200,500,497,-0.003455274,0.00772872,0.002977669,-1.627268,3.105744,-0.0172477,-0.001902097,0.004526037,-0.00422833,-0.2890872,2.871258,2.847045
90,3.04444,545,200,500,497,-0.004542967,0.01517415,0.003971557,-1.627383,3.105769,-0.01702612,-0.003048535,-0.002929942,-0.0116726,-0.289459,2.871659,2.846599
90,3.055551,496,190,478,495,-0.007751131,0.01841292,0.009264659,-1.627704,3.106019,-0.01683118,-0.008347827,-0.01784021,-0.007364161,-0.2900566,2.870998,2.847467
90,3.066662,496,190,478,495,-0.007741225,0.0141077,0.005049226,-1.62765,3.106078,-0.0167385,-0.001806558,-0.01679401,0.005353004,-0.2900337,2.869274,2.848837
90,3.077773,496,190,478,495,-0.001337368,0.008761877,0.001910318,-1.627603,3.106013,-0.0168919,0.002438612,-0.01999467,0.004239176,-0.2903171,2.868875,2.849078
90,3.088884,496,190,478,495,0.0008147191,0.005502354,-0.003355043,-1.627316,3.106282,-0.0170698,-0.002903588,-0.008269412,0.00218543,-0.2900966,2.868839,2.849437
90,3.099995,496,190,478,495,0.004007157,0.004478273,0.0009195374,-1.627336,3.106417,-0.0171923,-0.005081945,0.008783812,-0.004170336,-0.2895943,2.87004,2.848399
90,3.111106,503,239,505,490,0.005034977,0.005592986,0.005178145,-1.62757,3.106688,-0.01684609,-0.001899485,0.01410475,-0.006323246,-0.2893807,2.870218,2.848109
90,3.122217,503,239,505,490,0.006071819,0.01515503,0.004000576,-1.62777,3.106292,-0.01673264,-0.005078704,0.008780805,-0.004161855,-0.2894425,2.870123,2.848354
90,3.133328,503,239,505,490,0.005006432,0.01409779,0.00507378,-1.627903,3.106405,-0.01675661,-0.01245564,-0.002930126,0.005493591,-0.2896646,2.868919,2.850003
90,3.144439,503,239,505,490,0.0007648678,0.005522312,-0.0001826747,-1.627746,3.106271,-0.01665275,-0.003877724,-0.01252937,0.01177331,-0.2899288,2.868183,2.850522
90,3.15555,503,239,505,490,-0.000285699,-0.005131712,-8.91936E-05,-1.627411,3.106291,-0.01663038,0.005570764,-0.02105579,-5.45443E-05,-0.2904502,2.868803,2.849633
90,3.166661,469,215,500,498,0.006133282,0.001289478,-0.0001610933,-1.627868,3.105936,-0.01740322,0.01182559,-0.01572903,-0.01397172,-0.2906462,2.870606,2.84753
90,3.177772,469,215,500,498,0.008251215,0.008728739,-0.0002557085,-1.62785,3.105506,-0.01754171,0.01069316,-0.005069344,-0.02140929,-0.2905509,2.872306,2.845815
90,3.188883,469,215,500,498,0.01462053,0.02154922,0.00283544,-1.628449,3.105605,-0.01785916,0.005409622,0.01518156,-0.02027722,-0.2898473,2.873929,2.844313
90,3.199994,469,215,500,498,0.01141788,0.02794124,0.001667117,-1.62912,3.104989,-0.0179252,0.002364106,0.02369892,-0.007453647,-0.2893045,2.873559,2.844718
90,3.211105,452,201,489,488,0.01460635,0.0322162,0.002698972,-1.629632,3.105031,-0.01816436,0.002509827,0.01943119,0.007451019,-0.2890696,2.872363,2.845963
90,3.222216,452,201,489,488,0.01463699,0.02258641,-0.002541859,-1.629672,3.104861,-0.01846636,0.002518592,0.01836281,0.0085139,-0.2889322,2.872239,2.846077
90,3.233327,452,201,489,488,0.01573189,0.003394332,-0.004499783,-1.629205,3.104784,-0.0186613,0.005687475,0.01622713,0.006339652,-0.288864,2.872704,2.845505
90,3.244438,452,201,489,488,0.01468425,-0.0093902,-0.004387302,-1.628787,3.104733,-0.01879126,0.005639758,0.01517533,0.002073556,-0.2886707,2.873509,2.844676
90,3.255549,452,201,489,488,0.0114894,-0.01573867,0.0009913472,-1.628442,3.104882,-0.01882535,0.01190827,0.009848153,-0.008652071,-0.2888198,2.8748,2.843125
90,3.26666,457,213,501,498,0.009350457,-0.01466189,0.002000511,-1.628463,3.104331,-0.01883015,0.001125775,-0.009315304,-0.01812852,-0.2896987,2.875241,2.843024
90,3.277771,457,213,501,498,0.001894939,-0.01468174,0.0009245388,-1.628311,3.104315,-0.01864745,0.0001270352,-0.01145084,-0.01172808,-0.2898574,2.874879,2.843382
90,3.288882,457,213,501,498,-0.004496435,-0.00941187,-0.004458449,-1.628339,3.104138,-0.01842481,-0.0051499,-0.007183075,-0.00741166,-0.2897903,2.875135,2.843374
90,3.299993,457,213,501,498,-0.001343787,-0.008326509,-0.007697125,-1.628883,3.10339,-0.01789271,-0.007123308,0.01518158,0.00434377,-0.2890212,2.874842,2.843796
90,3.311104,456,200,519,498,0.002898515,0.007639194,-0.009964147,-1.629382,3.103214,-0.01804451,-0.002783317,0.0141024,0.01174979,-0.2888092,2.873963,2.844562
90,3.322215,456,200,519,498,0.006087027,0.01515261,-0.002557061,-1.629526,3.103556,-0.01834971,0.006722583,0.005569789,0.00524391,-0.2890616,2.874226,2.843996
90,3.333326,456,200,519,498,0.001806885,0.02899502,-0.00268684,-1.630206,3.103515,-0.01824798,0.002375108,-0.00080852,-0.002182188,-0.2893088,2.875471,2.842849
90,3.344437,456,200,519,498,-0.004571166,0.03328033,-0.0005799674,-1.630845,3.103871,-0.01832308,0.0002088388,-0.01038376,-0.005369595,-0.2896081,2.876037,2.842221
90,3.355548,456,200,519,498,-0.006704159,0.03430933,-0.002744962,-1.631045,3.103456,-0.01817128,0.004550377,-0.0114601,0.002039302,-0.2896779,2.875146,2.842903
90,3.366659,477,238,494,495,-0.009903751,0.03213432,-0.004875136,-1.631012,3.103136,-0.01787833,0.002571023,-0.001876054,0.01377765,-0.2893503,2.874367,2.843503
90,3.37777,477,238,494,495,-0.008823698,0.02465048,-0.008002801,-1.631064,3.102956,-0.01784265,0.002665075,0.00984052,0.02016841,-0.2888592,2.874004,2.84369
90,3.388881,477,238,494,495,-0.008806178,0.02041481,-0.00795773,-1.631534,3.102967,-0.01788526,0.001589648,0.01090797,0.01911551,-0.2886568,2.873486,2.844194
90,3.399992,477,238,494,495,-0.01304277,0.01087269,-0.002530833,-1.631495,3.103379,-0.01788792,0.006803001,0.006640085,0.01053937,-0.2887831,2.873351,2.844317
90,3.411103,460,220,494,496,-0.01520882,0.01086342,-0.0004047407,-1.631283,3.10342,-0.01719603,-0.005068979,-0.00505378,-0.002124154,-0.2892603,2.874157,2.843921
90,3.422215,460,220,494,496,-0.01518842,-0.004050131,-0.0002714812,-1.630829,3.103411,-0.01702825,-0.003977154,-0.001861297,0.001065207,-0.2891096,2.87371,2.844536
90,3.433326,460,220,494,496,-0.01621657,-0.01045461,-0.00448417,-1.630916,3.103128,-0.01713691,-0.002815012,0.001327105,0.009577727,-0.2889045,2.872703,2.845504
90,3.444437,460,220,494,496,-0.01518925,-0.01788142,-0.002322496,-1.630676,3.102639,-0.01638004,0.003718087,0.01090107,0.02123402,-0.2883671,2.871271,2.846626
90,3.455548,460,220,494,496,-0.011999,-0.0115046,-0.004505744,-1.630678,3.102517,-0.01634275,0.009030692,0.008764686,0.02010911,-0.2882584,2.870652,2.846987
90,3.466659,515,217,474,500,-0.01093192,-0.004040519,-0.003468926,-1.63079,3.103046,-0.01640241,0.006727955,-0.000813127,0.005221329,-0.2886344,2.870996,2.846591
90,3.47777,515,217,474,500,-0.009881287,0.003446287,-0.0003383451,-1.631027,3.103142,-0.01629855,0.006624204,-0.008267616,-0.003310883,-0.2890307,2.871738,2.845834
90,3.488881,515,217,474,500,-0.01094424,0.00665783,0.003928475,-1.630851,3.103827,-0.01629855,-0.005079961,-0.01571093,-0.001058142,-0.2893695,2.871196,2.846716
90,3.499992,515,217,474,500,-0.009881912,0.007734071,0.004985703,-1.630962,3.103913,-0.01621119,-0.004912512,-0.002938605,0.01279972,-0.2889349,2.869749,2.848133
90,3.511103,515,217,474,500,-0.01092653,-0.0008465874,-0.001331078,-1.630692,3.103719,-0.01607111,-0.004853584,0.006646005,0.01706739,-0.2885301,2.869114,2.848789
90,3.522214,455,233,517,500,-0.009849897,-0.0008868595,-0.0002047415,-1.629976,3.104597,-0.01613663,-0.00272367,0.01622782,0.01598605,-0.2881689,2.86905,2.84885
90,3.533325,455,233,517,500,-0.006667294,0.00448191,0.004013109,-1.630161,3.10474,-0.01613663,-0.001778107,0.004515042,0.006379133,-0.288456,2.869429,2.848475
90,3.544436,455,233,517,500,-0.005583802,0.006618604,0.006156248,-1.630085,3.10529,-0.01643809,-0.001906588,-0.00612968,-0.004274308,-0.2888949,2.869887,2.848045
90,3.555547,455,233,517,500,-0.001325502,0.008754922,0.006143181,-1.630233,3.105351,-0.01651533,-0.002920869,-0.01145859,0.001059711,-0.289116,2.869089,2.848864
90,3.566658,467,225,506,499,-0.004506644,0.002339186,0.005186679,-1.629932,3.106175,-0.01639069,-0.007059265,-0.01359772,0.0128312,-0.2891905,2.866718,2.851359
90,3.577769,467,225,506,499,-0.003436872,0.001256322,0.003067213,-1.629924,3.106151,-0.01637471,-0.005883814,-0.001885035,0.0213499,-0.2887607,2.865511,2.852522
90,3.58888,467,225,506,499,-0.003424945,0.00230675,0.002042469,-1.629951,3.106852,-0.0164839,-0.001643598,0.007700969,0.01811631,-0.2883607,2.865447,2.852455
90,3.599991,467,225,506,499,-0.002366916,0.00657875,0.00307108,-1.630153,3.106901,-0.01648603,-0.002790485,0.006640591,0.01066905,-0.2884198,2.865845,2.852129
90,3.611102,467,225,506,499,-0.00556631,0.008738056,0.008364578,-1.630085,3.107002,-0.01642318,0.001196847,-0.001874784,-0.01388296,-0.2889152,2.868215,2.8497
90,3.622213,417,202,516,495,-0.004493421,0.01087371,0.01053313,-1.63005,3.107961,-0.01655101,-0.002003839,-0.01466158,-0.01171752,-0.2894489,2.867304,2.850831
90,3.633324,417,202,516,495,-0.004491825,0.01191989,0.008393086,-1.630194,3.107993,-0.01649935,-0.001973271,-0.01785977,-0.008524063,-0.2897636,2.867092,2.851047
90,3.644435,417,202,516,495,-0.001262938,0.00548885,0.005298367,-1.629869,3.108548,-0.01681839,-0.00287227,-0.0008245721,0.004275165,-0.2892486,2.866516,2.851584
90,3.655546,417,202,516,495,-0.00231479,0.002234431,-0.001066051,-1.62983,3.108371,-0.01678484,-0.01239298,0.005575234,0.009709619,-0.2889823,2.865984,2.852464
90,3.666657,497,195,487,502,-0.002286768,0.001152132,3.184123E-05,-1.62945,3.108745,-0.01715182,-0.01128454,0.01515123,0.01184225,-0.2886547,2.865325,2.853081
90,3.677768,497,195,487,502,-0.003355278,-0.0009416896,0.004310417,-1.629402,3.10892,-0.01707938,-0.001729991,0.0162064,0.008542652,-0.2884374,2.865594,2.852544
90,3.688879,497,195,487,502,-0.0001320448,-0.009456849,0.0065573,-1.628838,3.109579,-0.01740749,-0.006216437,-0.006155798,-0.009531315,-0.2893951,2.866614,2.851753
90,3.69999,497,195,487,502,-0.002270004,-0.006244923,0.008656168,-1.628862,3.109742,-0.01732173,-0.005146323,-0.01254929,-0.00848297,-0.2897008,2.866545,2.85185
90,3.711101,497,195,487,502,-0.001168316,-0.004129697,0.008668818,-1.628648,3.110269,-0.01789751,-0.00938342,-0.01361111,-0.006304212,-0.2898691,2.866215,2.852338
90,3.722212,411,203,479,498,-0.001205747,0.0001358208,0.003223051,-1.629461,3.108977,-0.0173734,-0.01139805,-0.0008370392,0.00225498,-0.289524,2.865396,2.853205
90,3.733323,411,203,479,498,-0.002270884,0.002245802,0.001071962,-1.629542,3.10893,-0.01732653,-0.009195706,0.009809302,0.007565514,-0.2890425,2.864985,2.853651
90,3.744434,411,203,479,498,-0.000108454,0.001178678,5.540273E-05,-1.629594,3.109429,-0.017775,-0.01352241,0.005557677,0.002281116,-0.2892087,2.865465,2.853471
90,3.755545,411,203,479,498,0.00414817,0.001213092,0.003257184,-1.629611,3.109559,-0.0179039,-0.01145722,0.008755404,-0.004131183,-0.2890952,2.866424,2.852637
90,3.766656,411,203,479,498,-0.0001357738,-0.001986931,0.00534117,-1.629233,3.108699,-0.01749218,-0.0126402,0.0002455963,-0.01370711,-0.2893429,2.867387,2.851896
90,3.777767,443,217,503,495,-0.0001447672,-0.0008740043,0.0106579,-1.629259,3.108969,-0.01748738,-0.005195368,-0.0008287998,-0.01485449,-0.2894148,2.868043,2.851101
90,3.788878,443,217,503,495,-0.001205192,0.003387262,0.0117035,-1.629308,3.109404,-0.01760136,0.001139374,-0.006153975,-0.01918148,-0.2895889,2.868638,2.850397
90,3.799989,443,217,503,495,0.003053169,0.01081949,0.008445365,-1.629586,3.109371,-0.01778299,-0.003177656,-0.01360241,-0.02340138,-0.2900422,2.86959,2.849614
90,3.8111,443,217,503,495,0.007299888,0.01501846,0.005144928,-1.629269,3.108357,-0.01784744,-0.006320383,-0.01040054,-0.01909827,-0.2900236,2.869758,2.849589
90,3.822211,428,209,514,492,0.009467412,0.007527389,-7.737314E-05,-1.629315,3.10872,-0.01825331,-0.00839003,-0.008269385,-0.01374186,-0.2900129,2.869477,2.850016
90,3.833322,428,209,514,492,0.0137433,0.001103565,-0.004275183,-1.629179,3.108573,-0.01852708,-0.0008237062,0.00130535,-0.005295414,-0.2896625,2.869248,2.849951
90,3.844433,428,209,514,492,0.02231442,-0.01273946,-0.007317156,-1.629,3.108717,-0.01934414,-0.0009820603,0.008776853,-0.02019411,-0.2895,2.871217,2.848178
90,3.855544,428,209,514,492,0.02978582,-0.02443754,-0.006136553,-1.628419,3.108694,-0.01987783,0.001984849,0.01091866,-0.04153202,-0.2896225,2.874653,2.844779
90,3.866655,428,209,514,492,0.03835257,-0.03611475,-0.004913106,-1.628088,3.109285,-0.0208941,0.005059022,0.009860914,-0.0522183,-0.2897615,2.877488,2.841992
90,3.877766,467,218,485,492,0.04794309,-0.03823221,-0.004880533,-1.627599,3.10925,-0.02168133,0.01239529,0.01518617,-0.06401314,-0.2897945,2.881368,2.83793
90,3.888877,467,218,485,492,0.06177868,-0.03607282,-0.004929202,-1.627409,3.108476,-0.02260917,0.02833346,0.005578503,-0.06737972,-0.2901823,2.883313,2.835238
90,3.899988,467,218,485,492,0.07348959,-0.03284205,-0.002810774,-1.627139,3.10852,-0.02374474,0.03471468,0.006636243,-0.06851363,-0.2903197,2.886028,2.832072
90,3.911099,467,218,485,492,0.08724629,-0.01791598,-0.007265752,-1.627761,3.107192,-0.02395833,0.05078335,0.01087571,-0.06015889,-0.2901381,2.887594,2.829725
90,3.92221,445,197,521,501,0.09679514,-0.004057216,-0.009522532,-1.628308,3.106802,-0.0249421,0.05713597,-0.0008493587,-0.06236961,-0.2906862,2.889894,2.826764
90,3.933321,445,197,521,501,0.1127198,0.03010975,-0.003413766,-1.629579,3.106909,-0.02660604,0.08142936,0.0001979396,-0.08180933,-0.2911224,2.894566,2.82073
90,3.944432,445,197,521,501,0.1296646,0.06740289,-0.008036221,-1.631571,3.105918,-0.02768622,0.09261417,-0.01683074,-0.1288148,-0.292561,2.902352,2.812041
90,3.955544,445,197,521,501,0.1434534,0.1100508,-0.006268053,-1.633867,3.105818,-0.02964524,0.1018508,-0.01042749,-0.1619367,-0.2934175,2.911108,2.802304
90,3.966655,445,197,521,501,0.1593607,0.1451901,-0.01086862,-1.636276,3.104889,-0.03135126,0.1017707,-0.005094618,-0.1704468,-0.2939453,2.917387,2.795127
90,3.977766,508,206,480,497,0.1689442,0.1505102,-0.01303359,-1.63808,3.104637,-0.03349298,0.09643807,0.007697374,-0.1725104,-0.2942026,2.924371,2.787503
90,3.988877,508,206,480,497,0.1710607,0.1622392,-0.009912503,-1.639799,3.104929,-0.03547863,0.09010334,0.002381817,-0.1660429,-0.2947272,2.92892,2.782418
90,3.999988,508,206,480,497,0.1753476,0.1430704,-0.009734905,-1.640835,3.104769,-0.03756282,0.07728443,0.00133545,-0.1691005,-0.295433,2.935136,2.776008
90,4.011099,508,206,480,497,0.1796375,0.122858,-0.008503571,-1.641759,3.104398,-0.03971892,0.07282117,0.01094591,-0.1892814,-0.295956,2.944065,2.766691
89,4.02221,444,214,487,497,0.18176,0.08985385,-0.01040199,-1.642387,3.103283,-0.04104464,0.07372199,0.0003015921,-0.2031486,-0.2972375,2.952226,2.758039
88,4.033321,444,214,487,497,0.1903253,0.06213057,-0.01440315,-1.642331,3.103022,-0.04339142,0.07870626,-0.005010001,-0.2341052,-0.2988173,2.962762,2.746915
87,4.044433,444,214,487,497,0.1977832,0.04722485,-0.01000756,-1.641973,3.102935,-0.04560823,0.08393264,-0.003939793,-0.2426716,-0.2997628,2.971298,2.737807
86,4.055544,444,214,487,497,0.2521604,0.01847883,-0.01606697,-1.64144,3.10261,-0.04977661,0.09862921,-0.01033694,-0.2620125,-0.3013692,2.981795,2.726307
85,4.066655,444,214,487,497,0.3107943,0.008866606,-0.02866545,-1.641492,3.102203,-0.05495593,0.09970684,-0.01139903,-0.2598999,-0.3026001,2.990341,2.717156
84,4.077766,535,238,497,497,0.3502344,-0.009189669,-0.0284492,-1.640799,3.10189,-0.06000741,0.1128356,0.01413056,-0.2312593,-0.3026842,2.996823,2.709449
83,4.088878,535,238,497,497,0.3598206,-0.005951555,-0.02419244,-1.640792,3.101946,-0.06416141,0.1514304,0.07160947,-0.2156748,-0.301244,3.007305,2.6967
82,4.099989,535,238,497,497,0.3438566,-0.0219137,-0.0198102,-1.64005,3.101894,-0.06751433,0.183419,0.1312276,-0.2202405,-0.2993782,3.01991,2.68163
81,4.1111,535,238,497,497,0.3289194,-0.02198724,-0.02196192,-1.639344,3.101629,-0.07030798,0.1768989,0.1184541,-0.2308455,-0.3002208,3.030437,2.669895
80,4.122211,535,238,497,497,0.335321,-0.02943546,-0.0218863,-1.638809,3.101441,-0.07421964,0.1613175,0.04181129,-0.2839978,-0.3039689,3.041349,2.65805
79,4.133323,450,232,499,497,0.3598553,-0.05822702,-0.02588787,-1.637042,3.100703,-0.07882584,0.1629851,0.006681576,-0.3223944,-0.3068793,3.053511,2.644629
78,4.144434,450,232,499,497,0.3844216,-0.08616284,-0.05332927,-1.635023,3.099164,-0.08366214,0.184163,-0.02422184,-0.3301082,-0.309365,3.063231,2.632812
77,4.155545,450,232,499,497,0.4249988,-0.1279212,-0.08272862,-1.632477,3.097702,-0.08954133,0.1926982,-0.02423149,-0.3291353,-0.3113182,3.073174,2.620967
76,4.166656,450,232,499,497,0.4719591,-0.1844917,-0.1013736,-1.62896,3.095942,-0.09576088,0.1948478,-0.0178383,-0.3280975,-0.3131227,3.083703,2.608774
75,4.177768,375,177,478,496,0.5093208,-0.2345757,-0.1083304,-1.624918,3.094938,-0.1024683,0.2086386,0.0002580583,-0.3356923,-0.3147537,3.095512,2.594844
74,4.188879,375,177,478,496,0.5755133,-0.3336656,-0.118006,-1.618469,3.094069,-0.1104722,0.2243856,0.04394305,-0.362462,-0.3157289,3.111145,2.577097
73,4.19999,375,177,478,496,0.6502318,-0.4465412,-0.1211623,-1.610393,3.093408,-0.1194673,0.2580094,0.07802784,-0.4086128,-0.3172437,3.129361,2.556121
72,4.211102,375,177,478,496,0.7622876,-0.5807315,-0.13154,-1.600413,3.092664,-0.1307783,0.2976464,0.09081674,-0.4878632,-0.320292,-3.132627,2.531877
71,4.222213,375,177,478,496,0.858285,-0.6796456,-0.1262832,-1.590426,3.092474,-0.1425345,0.3331964,0.1014784,-0.5500313,-0.3234963,-3.110732,2.506747
70,4.233324,499,160,519,505,1.021441,-0.8230859,-0.1077284,-1.577385,3.093734,-0.1582797,0.4379481,0.09286666,-0.615099,-0.3280269,-3.087916,2.477589
69,4.244435,499,160,519,505,1.125871,-0.9065961,-0.04823836,-1.565516,3.096868,-0.1733137,0.5274695,0.06616765,-0.7066368,-0.3343972,-3.064587,2.447467
68,4.255547,499,160,519,505,1.335712,-0.9304657,-0.008320242,-1.554797,3.100069,-0.1939175,0.5971348,-0.09461284,-0.9429577,-0.349835,-3.036359,2.412196
67,4.266658,499,160,519,505,1.441107,-0.8962886,-0.008458599,-1.545853,3.101749,-0.2120249,0.5920753,-0.1519788,-1.10807,-0.3631854,-3.007392,2.378997
66,4.277769,533,205,486,492,1.525152,-0.7760828,-0.04032004,-1.540428,3.101761,-0.2313818,0.6285455,0.05681181,-1.115754,-0.3671301,-2.970281,2.335802
65,4.28888,533,205,486,492,1.533561,-0.6390823,-0.08841004,-1.536553,3.100455,-0.2484308,0.6614953,0.2175785,-1.130946,-0.3721208,-2.933328,2.293967
64,4.299992,533,205,486,492,1.531332,-0.5623963,-0.09016797,-1.532345,3.100513,-0.2653776,0.6671048,0.1865942,-1.180068,-0.3828987,-2.909096,2.265823
63,4.311103,533,205,486,492,1.553529,-0.4912577,-0.003463387,-1.529127,3.103595,-0.283559,0.6573333,-0.04237527,-1.267474,-0.3997661,-2.893826,2.24471
62,4.322214,533,205,486,492,1.617319,-0.4312968,0.03016247,-1.525184,3.105759,-0.3032424,0.6775371,-0.1553271,-1.257128,-0.4131713,-2.881587,2.22554
61,4.333325,319,165,499,500,1.65244,-0.4088522,0.03320418,-1.521628,3.107412,-0.3224849,0.7690682,-0.1714205,-1.26347,-0.4259023,-2.86574,2.200058
60,4.344437,319,165,499,500,1.816495,-0.4287744,0.05064841,-1.516524,3.110047,-0.3474099,0.9500328,-0.1214888,-1.379422,-0.440849,-2.838851,2.159762
59,4.355548,319,165,499,500,1.898573,-0.4237168,0.009165987,-1.512062,3.110729,-0.3706183,1.053445,-0.1204948,-1.470046,-0.457424,-2.817876,2.126155
58,4.366659,319,165,499,500,1.930615,-0.4846875,-0.0115263,-1.50483,3.112728,-0.3924892,1.018872,-0.1662018,-1.509121,-0.4739484,-2.803091,2.103063
57,4.37777,524,243,496,490,1.957356,-0.5403155,-0.0408192,-1.497374,3.114455,-0.415149,0.9759527,-0.2524539,-1.528936,-0.4914938,-2.794036,2.085435
56,4.388882,524,243,496,490,1.978688,-0.5564607,-0.05769053,-1.490879,3.116278,-0.4376101,0.9570301,-0.3557162,-1.590596,-0.5117978,-2.786581,2.068807
55,4.399993,524,243,496,490,2.064992,-0.57337,-0.05422464,-1.484513,3.118783,-0.4631232,0.9744069,-0.485657,-1.645205,-0.5333118,-2.783492,2.054751
54,4.411104,524,243,496,490,2.191701,-0.5645021,-0.02960683,-1.4795,3.122121,-0.4911375,1.07341,-0.5016949,-1.74751,-0.555757,-2.774414,2.03233
53,4.422215,524,243,496,490,2.267321,-0.5486161,-0.0359561,-1.473882,3.124733,-0.5185792,1.095896,-0.506958,-1.835119,-0.5783885,-2.765261,2.011784
52,4.433327,427,238,502,494,2.242876,-0.5860146,-0.04524291,-1.466988,3.127843,-0.5431917,1.025665,-0.374832,-1.74583,-0.5943536,-2.753679,1.992434
51,4.444438,427,238,502,494,2.194987,-0.6340474,-0.04697531,-1.459505,3.131892,-0.5663872,0.9842265,-0.2523247,-1.654725,-0.6084694,-2.741911,1.972826
50,4.455549,427,238,502,494,2.136552,-0.753539,-0.05876943,-1.449178,3.137314,-0.5889714,0.9413843,-0.1234109,-1.593438,-0.6221458,-2.72773,1.951944
49,4.46666,427,238,502,494,2.151659,-0.8065528,-0.05856013,-1.440656,3.141368,-0.6149356,0.9160362,-0.06252456,-1.583524,-0.6382627,-2.715491,1.932092
48,4.477772,427,238,502,494,2.233716,-0.8489078,-0.0410271,-1.431996,-3.135487,-0.6428498,0.890121,0.03539765,-1.431881,-0.6478944,-2.703864,1.913626
47,4.488883,304,182,497,499,2.28914,-0.8251693,-0.02303731,-1.425649,-3.129992,-0.6714069,0.9265203,0.1065775,-1.22874,-0.6541554,-2.694977,1.895079
46,4.499994,304,182,497,499,2.304963,-0.7353919,0.007077813,-1.422033,-3.12556,-0.6981546,0.9467387,-0.01058662,-1.217337,-0.668226,-2.693367,1.882695
45,4.511106,304,182,497,499,2.204539,-0.5265951,0.02634601,-1.422085,-3.124702,-0.7203243,0.9331688,-0.1607323,-1.271645,-0.6851988,-2.694805,1.873798
44,4.522217,304,182,497,499,2.189548,-0.4500962,0.01616886,-1.419468,-3.12215,-0.744614,0.9077041,-0.2278068,-1.260719,-0.6991767,-2.694436,1.863993
43,4.533328,299,180,525,512,2.199038,-0.3690164,0.02392711,-1.418332,-3.120475,-0.7697803,0.8712231,-0.2799461,-1.278476,-0.7144803,-2.694576,1.855375
42,4.544439,299,180,525,512,2.192615,-0.3593552,0.03560078,-1.415895,-3.116792,-0.794683,0.8466709,-0.2693008,-1.294102,-0.7292997,-2.692509,1.84462
41,4.555551,299,180,525,512,2.16073,-0.410594,0.02855724,-1.411879,-3.112434,-0.818416,0.8405765,-0.2075213,-1.273746,-0.7425846,-2.687981,1.832111
40,4.566662,299,180,525,512,2.14899,-0.4277178,0.02238938,-1.40864,-3.10827,-0.841854,0.887206,-0.150102,-1.206053,-0.7540346,-2.683859,1.817595
39,4.577773,299,180,525,512,2.140387,-0.3638035,0.02287093,-1.407319,-3.106245,-0.865741,0.9125172,-0.1022499,-1.13704,-0.7644055,-2.679966,1.803875
38,4.588884,387,214,501,501,2.153933,-0.2147351,0.04194826,-1.408918,-3.10596,-0.8890239,0.9559579,0.005145669,-1.111754,-0.776517,-2.673301,1.784698
37,4.599996,387,214,501,501,2.170848,-0.1113003,0.05063221,-1.410643,-3.10665,-0.913509,0.9317607,-0.02473223,-1.17766,-0.7925227,-2.671021,1.773402
36,4.611107,387,214,501,501,2.223968,0.01872288,0.06437786,-1.413274,-3.108838,-0.9397262,0.8953777,-0.1301461,-1.179477,-0.8067056,-2.672989,1.765772
35,4.622218,387,214,501,501,2.195233,0.00593856,0.06226838,-1.413318,-3.108159,-0.9634795,0.8859064,-0.1621555,-1.140047,-0.8177401,-2.673198,1.757975
34,4.633329,601,263,524,495,2.101613,-0.09969202,0.05562572,-1.411348,-3.104709,-0.984838,0.8525189,-0.19944,-1.07046,-0.8282766,-2.674971,1.750614
33,4.644441,601,263,524,495,1.811914,-0.1617952,0.06749292,-1.409831,-3.100986,-0.9983099,0.8412018,-0.1993874,-1.028805,-0.8387077,-2.674951,1.741747
32,4.655552,601,263,524,495,1.784386,-0.2634242,0.02361934,-1.406211,-3.096804,-1.017848,0.8400864,-0.1259353,-0.9435164,-0.8466125,-2.672503,1.73082
31,4.666663,601,263,524,495,1.843044,-0.2817639,-0.003894582,-1.403424,-3.094296,-1.041184,0.8435436,0.03488976,-0.836895,-0.8520182,-2.664834,1.716427
30,4.677774,601,263,524,495,1.919709,-0.2412414,-0.008414224,-1.402501,-3.092968,-1.06491,0.8623267,0.1030089,-0.7827185,-0.8586521,-2.659551,1.702842
29,4.688886,638,229,539,506,1.912314,-0.2299074,-0.04576105,-1.4003,-3.091614,-1.086611,0.8905715,0.1157608,-0.7329225,-0.8653281,-2.656543,1.690285
28,4.699997,638,229,539,506,1.869751,-0.2312674,-0.07454693,-1.397729,-3.089941,-1.106363,0.9057528,0.1284762,-0.7033064,-0.8724335,-2.653584,1.678547
27,4.711108,638,229,539,506,1.72817,-0.2561752,-0.1171546,-1.394301,-3.088258,-1.122164,0.9348998,0.07408458,-0.6621091,-0.8787137,-2.653511,1.667326
26,4.722219,638,229,539,506,1.682468,-0.2861139,-0.1372713,-1.39097,-3.085987,-1.140767,0.9335634,-0.07182133,-0.6738631,-0.8868438,-2.658447,1.660043
25,4.733331,620,205,474,499,1.696389,-0.3542361,-0.1323802,-1.387297,-3.081265,-1.160723,0.9096065,-0.1782986,-0.709897,-0.896077,-2.663545,1.653811
24,4.744442,620,205,474,499,1.734812,-0.3924556,-0.1373776,-1.383906,-3.077391,-1.182114,0.8805947,-0.2038313,-0.7276803,-0.904458,-2.666022,1.64672
23,4.755553,620,205,474,499,1.754135,-0.5424151,-0.111511,-1.379679,-3.068424,-1.203887,0.8525442,-0.1909932,-0.7614595,-0.9139069,-2.667448,1.638915
22,4.766665,620,205,474,499,1.719093,-0.6021532,-0.1238324,-1.375277,-3.061444,-1.223333,0.8214998,-0.1461731,-0.7781444,-0.9227161,-2.666618,1.630194
21,4.777776,620,205,474,499,1.718187,-0.7299405,-0.1151677,-1.37054,-3.050669,-1.24459,0.776188,-0.09074938,-0.7381983,-0.9297266,-2.665351,1.622228
20,4.788887,583,180,452,497,1.706548,-0.7556979,-0.1416158,-1.365622,-3.042938,-1.264809,0.7869421,0.002935052,-0.6444656,-0.9338401,-2.661995,1.610734
19,4.799998,583,180,452,497,1.708666,-0.7491055,-0.1246347,-1.362507,-3.035891,-1.285397,0.728387,0.05303192,-0.550043,-0.9375898,-2.659622,1.602226
18,4.81111,583,180,452,497,1.686269,-0.7415631,-0.1119478,-1.359327,-3.027903,-1.305275,0.684926,0.05839682,-0.530393,-0.9429614,-2.658476,1.595042
17,4.822221,583,180,452,497,1.681957,-0.7304405,-0.06415731,-1.358118,-3.020146,-1.325659,0.6754505,0.05094975,-0.5132457,-0.9480848,-2.657932,1.58808
16,4.833332,583,180,452,497,1.696659,-0.572769,-0.06235829,-1.356813,-3.018531,-1.34527,0.6845937,-0.0129562,-0.5474796,-0.9549206,-2.659996,1.581391
15,4.844443,453,192,497,497,1.682806,-0.5852197,-0.03139853,-1.355971,-3.01146,-1.365114,0.697177,-0.1023765,-0.5604305,-0.9614539,-2.663755,1.575019
14,4.855555,453,192,497,497,1.674011,-0.4122919,0.006459802,-1.357455,-3.011764,-1.383336,0.7091306,-0.2174668,-0.5265521,-0.9664739,-2.670526,1.570676
13,4.866666,453,192,497,497,1.674987,-0.3533931,0.03256045,-1.358182,-3.009403,-1.402555,0.6997676,-0.3122911,-0.4987993,-0.9710311,-2.677682,1.566972
12,4.877777,453,192,497,497,1.664114,-0.2294421,0.07513532,-1.360428,-3.009828,-1.42072,0.66371,-0.4411716,-0.4697413,-0.9754174,-2.688296,1.566697
11,4.888888,487,172,504,491,1.646965,-0.172743,0.09697855,-1.362071,-3.009283,-1.438469,0.6937406,-0.4849317,-0.447695,-0.9796917,-2.696135,1.562381
10,4.9,487,172,504,491,1.63624,-0.135318,0.1136865,-1.36368,-3.008343,-1.45658,0.6797156,-0.4475841,-0.4677963,-0.9856476,-2.700378,1.557466
9,4.911111,487,172,504,491,1.631911,-0.1105211,0.1400681,-1.365927,-3.007754,-1.474734,0.6486291,-0.4272932,-0.4876882,-0.991594,-2.705451,1.553919
8,4.922222,487,172,504,491,1.626556,-0.0975544,0.1548231,-1.36781,-3.007032,-1.492793,0.6299602,-0.4059278,-0.5428582,-0.9989768,-2.710509,1.550058
7,4.933333,487,172,504,491,1.625452,-0.07409146,0.1578064,-1.369631,-3.006747,-1.510796,0.6556921,-0.391053,-0.5292747,-1.004383,-2.715341,1.544713
6,4.944445,410,171,502,498,1.620113,-0.0824467,0.1706956,-1.371873,-3.005504,-1.52876,0.6683523,-0.3633347,-0.5432584,-1.010586,-2.719199,1.538928
5,4.955556,410,171,502,498,1.613681,-0.0684732,0.1854759,-1.374364,-3.005111,-1.546498,0.6775998,-0.3494719,-0.5763737,-1.017732,-2.723539,1.533465
4,4.966667,410,171,502,498,1.60295,-0.02998016,0.2053467,-1.377254,-3.00581,-1.563875,0.6773714,-0.3590245,-0.592411,-1.024884,-2.728634,1.52902
3,4.977778,410,171,502,498,1.594311,0.02986563,0.2325003,-1.380482,-3.007548,-1.581126,0.7040473,-0.3899542,-0.5852655,-1.031001,-2.735059,1.523766
2,4.98889,512,213,497,497,1.577103,0.1216544,0.2540056,-1.383761,-3.011391,-1.59741,0.7056134,-0.4250672,-0.5363389,-1.035333,-2.741308,1.518905
1,5.000001,512,213,497,497,1.564251,0.1516551,0.2782169,-1.387327,-3.013891,-1.61402,0.6642216,-0.432494,-0.5220469,-1.040529,-2.747455,1.515663
-2.421439E-08,5.011112,512,213,497,497,1.544925,0.2634987,0.2760922,-1.390042,-3.020322,-1.629618,0.6243055,-0.4282309,-0.470464,-1.044137,-2.753129,1.512611
-2.421439E-08,5.022223,512,213,497,497,1.532103,0.2933958,0.2843012,-1.39299,-3.024292,-1.645815,0.6020492,-0.4346278,-0.459531,-1.04837,-2.759356,1.509522
-2.421439E-08,5.033335,512,213,497,497,1.534162,0.3487248,0.2763471,-1.395384,-3.030238,-1.661913,0.5904193,-0.4282289,-0.4519429,-1.052945,-2.764979,1.506056
-2.421439E-08,5.044446,300,199,499,504,1.453161,0.3857476,0.2620956,-1.3975,-3.035472,-1.674891,0.5864465,-0.4357088,-0.4252587,-1.056645,-2.771137,1.502571
-2.421439E-08,5.055557,300,199,499,504,1.203804,0.4428686,0.2570048,-1.39957,-3.042366,-1.679761,0.5888722,-0.4495819,-0.3965307,-1.059916,-2.777566,1.499153
-2.421439E-08,5.066669,300,199,499,504,1.149452,0.4683328,0.2535008,-1.40163,-3.048575,-1.69024,0.5837908,-0.4773015,-0.3708979,-1.062714,-2.784898,1.496457
-2.421439E-08,5.07778,300,199,499,504,1.167535,0.4949344,0.2490328,-1.403544,-3.054943,-1.703098,0.5532547,-0.5294957,-0.3322549,-1.064754,-2.793577,1.495451
-2.421439E-08,5.088891,300,199,499,504,1.187783,0.4949674,0.2490434,-1.405469,-3.060933,-1.71599,0.5278257,-0.5507015,-0.3160276,-1.067177,-2.800574,1.494046
-2.421439E-08,5.100002,292,211,491,494,1.188861,0.4790305,0.2534496,-1.407534,-3.066193,-1.728327,0.520817,-0.5376303,-0.2862112,-1.068089,-2.804994,1.490125
-2.421439E-08,5.111114,292,211,491,494,1.155889,0.4564949,0.238691,-1.408922,-3.070941,-1.739605,0.5262346,-0.4876505,-0.2828529,-1.070899,-2.81031,1.486795
-2.421439E-08,5.122225,292,211,491,494,1.088885,0.4082493,0.2123886,-1.409844,-3.074681,-1.749381,0.519025,-0.4279695,-0.2667298,-1.073092,-2.813883,1.482832
-2.421439E-08,5.133336,292,211,491,494,1.030387,0.3664003,0.1892533,-1.410747,-3.077904,-1.75874,0.4660448,-0.3364035,-0.152126,-1.072069,-2.815566,1.47914
-2.421439E-08,5.144447,235,284,500,523,0.9952695,0.3482058,0.185109,-1.411954,-3.081714,-1.768471,0.4356479,-0.3088452,-0.1038676,-1.072229,-2.820073,1.477389
-2.421439E-08,5.155559,235,284,500,523,0.9452523,0.321413,0.175701,-1.413042,-3.084822,-1.777037,0.4244662,-0.273716,-0.05684439,-1.071379,-2.822379,1.474103
-2.421439E-08,5.16667,235,284,500,523,0.9005765,0.297811,0.1652258,-1.414127,-3.087872,-1.785759,0.4139114,-0.2599193,-0.04715765,-1.071887,-2.825958,1.471414
-2.421439E-08,5.177781,235,284,500,523,0.8612078,0.2837388,0.1482741,-1.414764,-3.090852,-1.793932,0.3927046,-0.2535133,-0.03840171,-1.071788,-2.828943,1.46905
-2.421439E-08,5.188892,235,284,500,523,0.8122345,0.2876827,0.1204683,-1.414599,-3.094376,-1.801198,0.3651654,-0.2503199,-0.02319331,-1.071437,-2.832272,1.467423
-2.421439E-08,5.200004,204,393,495,497,0.7674932,0.3035525,0.1138621,-1.414765,-3.098662,-1.808284,0.3612989,-0.2226461,0.01096263,-1.070033,-2.83398,1.464355
-2.421439E-08,5.211115,204,393,495,497,0.6854677,0.3160592,0.09660261,-1.414439,-3.102584,-1.81293,0.3473553,-0.2290274,0.003645848,-1.070023,-2.837164,1.46239
-2.421439E-08,5.222226,204,393,495,497,0.6013571,0.3093891,0.08057018,-1.414048,-3.10583,-1.817157,0.3336773,-0.2407377,0.02082529,-1.069168,-2.840433,1.460646
-2.421439E-08,5.233337,204,393,495,497,0.5417405,0.2921835,0.07320552,-1.414061,-3.108678,-1.821394,0.3252841,-0.2492619,0.03369276,-1.068105,-2.843751,1.458835
-2.421439E-08,5.244449,158,327,498,504,0.5066112,0.2772216,0.07436319,-1.414235,-3.111462,-1.825738,0.3092875,-0.2588564,0.03490132,-1.067592,-2.847394,1.457721
-2.421439E-08,5.25556,158,327,498,504,0.4278235,0.2440451,0.06817827,-1.414418,-3.1136,-1.828051,0.2814011,-0.2513632,0.01597753,-1.068162,-2.850446,1.456576
-2.421439E-08,5.266671,158,327,498,504,0.3852465,0.2290214,0.06293047,-1.414374,-3.115922,-1.831044,0.2639829,-0.2257449,-0.02109953,-1.069196,-2.852667,1.45517
-2.421439E-08,5.277782,158,327,498,504,0.3149757,0.2043806,0.05880452,-1.414467,-3.117709,-1.83243,0.2348583,-0.1788276,-0.05806414,-1.07116,-2.853786,1.453955
-2.421439E-08,5.288894,158,327,498,504,0.2479114,0.1796955,0.04935455,-1.414379,-3.119151,-1.833296,0.1860067,-0.1500258,-0.04686239,-1.071382,-2.854985,1.45364
-2.421439E-08,5.300005,127,472,501,503,0.2031996,0.1646674,0.04411758,-1.414446,-3.120686,-1.834257,0.161726,-0.1532111,-0.02321707,-1.071376,-2.856892,1.453564
-2.421439E-08,5.311116,127,472,501,503,0.1403961,0.1484684,0.0303382,-1.414098,-3.121856,-1.834054,0.1341571,-0.1627793,-0.0101437,-1.070912,-2.859206,1.453904
-2.421439E-08,5.322227,127,472,501,503,0.07754919,0.1471972,0.01747848,-1.413453,-3.123462,-1.832969,0.1128474,-0.1840637,-0.00886028,-1.070691,-2.862175,1.454409
-2.421439E-08,5.333339,127,472,501,503,0.02001481,0.1640306,0.003407285,-1.412541,-3.125582,-1.831313,0.1042227,-0.2032221,-0.01624296,-1.070747,-2.865345,1.454989
-2.421439E-08,5.34445,120,487,501,527,-0.01727744,0.1798918,-0.003174096,-1.411726,-3.127869,-1.830055,0.08928324,-0.2255879,-0.01608884,-1.070466,-2.868997,1.456095
-2.421439E-08,5.355561,120,487,501,527,-0.07485721,0.2223075,-0.01641089,-1.410285,-3.131356,-1.827128,0.08206589,-0.2458514,0.008485546,-1.069176,-2.872676,1.45715
-2.421439E-08,5.366673,120,487,501,527,-0.09831448,0.2403329,-0.0208648,-1.409146,-3.134114,-1.825045,0.06647714,-0.2565158,0.04593344,-1.067376,-2.875897,1.458394
-2.421439E-08,5.377784,120,487,501,527,-0.1441396,0.251934,-0.02741379,-1.407962,-3.137142,-1.821704,0.04965928,-0.2682436,0.06848077,-1.065637,-2.879547,1.460056
-2.421439E-08,5.388895,120,487,501,527,-0.1973987,0.2539857,-0.02643703,-1.406941,-3.139699,-1.817848,0.0105689,-0.3225612,0.1050679,-1.063123,-2.884895,1.463586
-2.421439E-08,5.400006,129,426,502,504,-0.2389284,0.2443228,-0.02427932,-1.406075,-3.141411,-1.814022,-0.003202915,-0.3406644,0.1158662,-1.061105,-2.889436,1.466277
-2.421439E-08,5.411118,129,426,502,504,-0.2602189,0.233639,-0.02420874,-1.40527,3.139558,-1.810193,-0.0211073,-0.3236146,0.133122,-1.058839,-2.892869,1.468654
-2.421439E-08,5.422229,129,426,502,504,-0.2985213,0.200544,-0.02608828,-1.404648,3.13822,-1.805716,-0.035998,-0.2831377,0.1386894,-1.056489,-2.895222,1.471414
-2.421439E-08,5.43334,129,426,502,504,-0.3304137,0.1515339,-0.02142586,-1.404407,3.137829,-1.801184,-0.06139694,-0.2149339,0.1464866,-1.054625,-2.895561,1.472991
-2.421439E-08,5.444451,129,426,502,504,-0.3473966,0.1163034,-0.02645896,-1.403916,3.137602,-1.796937,-0.09537745,-0.1722857,0.1554637,-1.052011,-2.896372,1.475808
-2.421439E-08,5.455563,160,420,503,489,-0.3707556,0.06406166,-0.02708315,-1.403817,3.138478,-1.792306,-0.1091496,-0.1488357,0.1598956,-1.050028,-2.897298,1.477878
-2.421439E-08,5.466674,160,420,503,489,-0.3781429,0.02670807,-0.03314313,-1.403518,3.13918,-1.788208,-0.119824,-0.1413825,0.158966,-1.047982,-2.899118,1.480637
-2.421439E-08,5.477785,160,420,503,489,-0.3844942,0.004271211,-0.03934138,-1.403039,3.139928,-1.78387,-0.1113386,-0.1552298,0.1567533,-1.045846,-2.901272,1.482684
-2.421439E-08,5.488896,160,420,503,489,-0.3535149,-0.03954889,-0.0612756,-1.402187,3.141498,-1.780941,-0.1018477,-0.1584472,0.1502671,-1.044032,-2.903608,1.484934
-2.421439E-08,5.500008,195,460,506,518,-0.2874247,-0.06184165,-0.06312587,-1.401731,-3.140308,-1.779758,-0.1070941,-0.1392879,0.1556827,-1.04185,-2.904924,1.486983
-2.421439E-08,5.511119,195,460,506,518,-0.2746508,-0.05965245,-0.05886841,-1.401323,-3.139619,-1.777156,-0.1253493,-0.09238562,0.1410207,-1.040484,-2.904781,1.4894
-2.421439E-08,5.52223,195,460,506,518,-0.2799565,-0.06497011,-0.05776299,-1.400871,-3.138788,-1.774106,-0.1351367,-0.0550808,0.122,-1.039488,-2.904577,1.491624
-2.421439E-08,5.533341,195,460,506,518,-0.2852792,-0.06500669,-0.06096511,-1.40026,-3.1379,-1.770921,-0.1406545,0.004608124,0.09654915,-1.039299,-2.902554,1.492334
-2.421439E-08,5.544453,195,460,506,518,-0.2842102,-0.06178376,-0.05886582,-1.399695,-3.137292,-1.768048,-0.1384469,0.04399852,0.09978313,-1.037785,-2.901146,1.493226
-2.421439E-08,5.555564,221,484,505,520,-0.2746457,-0.06059285,-0.04820477,-1.399684,-3.136884,-1.76522,-0.1308513,0.04504101,0.1124867,-1.036232,-2.900375,1.494084
-2.421439E-08,5.566675,221,484,505,520,-0.2533602,-0.05511883,-0.03544484,-1.399687,-3.136435,-1.763079,-0.1178993,0.03113873,0.1347383,-1.033595,-2.900751,1.495959
-2.421439E-08,5.577786,221,484,505,520,-0.2320685,-0.04866045,-0.03122101,-1.399439,-3.135958,-1.761137,-0.1051014,0.01938452,0.1378205,-1.031487,-2.900949,1.496897
-2.421439E-08,5.588898,221,484,505,520,-0.2182391,-0.03579776,-0.02492377,-1.39941,-3.135911,-1.759147,-0.1053859,0.01301239,0.1175772,-1.030779,-2.90102,1.498971
-2.421439E-08,5.600009,235,501,504,497,-0.2108,-0.02828618,-0.01966225,-1.399245,-3.135704,-1.756987,-0.1056197,0.02368319,0.0941382,-1.030672,-2.900417,1.499856
-2.421439E-08,5.61112,235,501,504,497,-0.1980333,-0.02179586,-0.01118103,-1.399366,-3.135702,-1.755172,-0.1188148,0.05567932,0.05597609,-1.030999,-2.899125,1.501612
-2.421439E-08,5.622231,235,501,504,497,-0.1852396,-0.02603409,-0.01113136,-1.399229,-3.135267,-1.75356,-0.1264154,0.07059366,0.04115788,-1.030923,-2.898204,1.502817
-2.421439E-08,5.633343,235,501,504,497,-0.1639351,-0.03020176,-0.0046655,-1.399577,-3.134952,-1.752345,-0.1199414,0.09401572,0.04537432,-1.030454,-2.896161,1.50291
-2.421439E-08,5.644454,235,501,504,497,-0.1532707,-0.036556,-0.002468919,-1.399639,-3.134384,-1.751091,-0.1058697,0.1035607,0.06761457,-1.028974,-2.894595,1.503429
-2.421439E-08,5.655565,238,470,503,499,-0.1266215,-0.05244797,0.003034848,-1.40003,-3.133451,-1.750523,-0.102669,0.1078148,0.06762416,-1.027701,-2.892999,1.503652
-2.421439E-08,5.666677,238,470,503,499,-0.1180958,-0.05668435,0.004142826,-1.40015,-3.132751,-1.749499,-0.1060206,0.1088817,0.0538088,-1.027681,-2.891774,1.504391
-2.421439E-08,5.677788,238,470,503,499,-0.1031662,-0.06730904,0.005317369,-1.40036,-3.131697,-1.748918,-0.1073191,0.1131558,0.03148433,-1.027592,-2.890347,1.504887
-2.421439E-08,5.688899,238,470,503,499,-0.0893094,-0.0757484,0.01180092,-1.400815,-3.130737,-1.748489,-0.09895649,0.1227351,0.01650443,-1.027682,-2.888686,1.505124
-2.421439E-08,5.70001,241,490,505,507,-0.07865497,-0.08208095,0.01613562,-1.40133,-3.129806,-1.747996,-0.09047923,0.1365623,0.01328533,-1.026926,-2.886732,1.505432
-2.421439E-08,5.711122,241,490,505,507,-0.06479888,-0.08843369,0.01833971,-1.4018,-3.12871,-1.747845,-0.08726858,0.1386865,0.01431859,-1.026845,-2.884859,1.505348
-2.421439E-08,5.722233,241,490,505,507,-0.05413191,-0.09271647,0.01518526,-1.401927,-3.127439,-1.747764,-0.08723712,0.1514657,0.01433545,-1.026725,-2.882513,1.504904
-2.421439E-08,5.733344,241,490,505,507,-0.04559074,-0.1033924,0.01102749,-1.402135,-3.126049,-1.747671,-0.08505131,0.1503949,0.01967254,-1.025947,-2.880468,1.504695
-2.421439E-08,5.744455,241,490,505,507,-0.03918546,-0.1097825,0.01002859,-1.402491,-3.124699,-1.747676,-0.08194685,0.1344088,0.01108648,-1.026326,-2.879455,1.504576
-2.421439E-08,5.755567,239,455,504,507,-0.02745063,-0.1193719,0.007997831,-1.402792,-3.123083,-1.74795,-0.07261961,0.100326,-0.008208912,-1.026678,-2.879261,1.505017
-2.421439E-08,5.766678,239,455,504,507,-0.01787037,-0.1161634,0.00905026,-1.403228,-3.121797,-1.748152,-0.05999953,0.0917941,-0.02436293,-1.027843,-2.878494,1.504715
-2.421439E-08,5.777789,239,455,504,507,-0.01469962,-0.1022608,0.01425297,-1.403622,-3.1211,-1.748201,-0.05250365,0.08752234,-0.02018394,-1.027973,-2.877343,1.504527
-2.421439E-08,5.7889,239,455,504,507,-0.01155111,-0.07239985,0.01718615,-1.403893,-3.121149,-1.748128,-0.0481222,0.09601985,-0.01171558,-1.02816,-2.876008,1.504051
-2.421439E-08,5.800012,239,455,504,507,-0.007319417,-0.05215402,0.01701195,-1.404101,-3.12113,-1.74815,-0.04260211,0.1140988,0.003133728,-1.028206,-2.874103,1.503349
-2.421439E-08,5.811123,237,486,505,523,-0.008443924,-0.01910258,0.02097277,-1.404325,-3.121765,-1.747816,-0.03728037,0.1183525,0.002015905,-1.028306,-2.872428,1.502743
-2.421439E-08,5.822234,237,486,505,523,-0.006344641,0.002253467,0.02611461,-1.404702,-3.122358,-1.747782,-0.03519116,0.1098442,-0.005533664,-1.029559,-2.871224,1.501668
-2.421439E-08,5.833345,237,486,505,523,0.001094427,0.01505548,0.02707594,-1.404975,-3.122835,-1.747943,-0.03527459,0.0917554,-0.0108769,-1.029865,-2.870364,1.501595
-2.421439E-08,5.844457,237,486,505,523,0.006415395,0.01615886,0.03026319,-1.405265,-3.123106,-1.748111,-0.0277892,0.07682784,-0.007796694,-1.030182,-2.869867,1.501188
-2.421439E-08,5.855568,228,590,504,517,0.009607283,0.02041994,0.03022716,-1.405531,-3.123402,-1.748276,-0.02028217,0.05124362,0.000618238,-1.029953,-2.869911,1.501206
-2.421439E-08,5.866679,228,590,504,517,0.005327905,0.02357573,0.02805788,-1.405703,-3.123582,-1.747967,-0.02233127,0.04910647,0.008084988,-1.029875,-2.869369,1.501162
-2.421439E-08,5.87779,228,590,504,517,0.004254846,0.02571678,0.02910105,-1.405955,-3.124012,-1.747868,-0.02235568,0.05444128,0.004883246,-1.030138,-2.868391,1.500901
-2.421439E-08,5.888902,228,590,504,517,-0.001089383,0.0342437,0.03114802,-1.406248,-3.124601,-1.747569,-0.02344781,0.06723051,-0.002573241,-1.030768,-2.867217,1.500106
-2.421439E-08,5.900013,228,590,504,517,-0.003241498,0.04386417,0.03425591,-1.406555,-3.12553,-1.747289,-0.02461272,0.07257564,-0.01536162,-1.031665,-2.866138,1.499437
-2.421439E-08,5.911124,218,439,503,502,-0.007511083,0.04708239,0.03741791,-1.406939,-3.126237,-1.746972,-0.01502786,0.05658401,-0.01334661,-1.031741,-2.865803,1.49917
-2.421439E-08,5.922235,218,439,503,502,-0.006454132,0.04818604,0.04060373,-1.407327,-3.126975,-1.74679,-0.0160114,0.03953665,-0.003781207,-1.031768,-2.865739,1.499265
-2.421439E-08,5.933347,218,439,503,502,-0.0160199,0.03431472,0.03858916,-1.407698,-3.127237,-1.74633,-0.01824066,0.0193183,-0.01017559,-1.032135,-2.86591,1.499608
-2.421439E-08,5.944458,218,439,503,502,-0.02133068,0.02786767,0.03331393,-1.407917,-3.127437,-1.745935,-0.01506124,0.01185953,-0.01449813,-1.032717,-2.866032,1.499155
-2.421439E-08,5.955569,211,457,503,499,-0.02663772,0.01931342,0.03018567,-1.408134,-3.12756,-1.745541,-0.01289987,0.009724749,-0.01132567,-1.03273,-2.86591,1.499171
-2.421439E-08,5.966681,211,457,503,499,-0.03299853,0.003268113,0.02392992,-1.408311,-3.1272,-1.745083,-0.008528311,0.005460372,-0.001810058,-1.032834,-2.865759,1.498869
-2.421439E-08,5.977792,211,457,503,499,-0.03085426,-0.002051974,0.02504692,-1.408689,-3.127062,-1.744945,-0.00849988,0.001202217,0.001383541,-1.03271,-2.865747,1.498949
-2.421439E-08,5.988903,211,457,503,499,-0.03083969,-0.01165694,0.02299821,-1.408904,-3.126726,-1.744628,-0.007336709,-0.006266845,0.01094094,-1.032494,-2.86606,1.499077
-2.421439E-08,6.000014,211,457,503,499,-0.03402912,-0.01694587,0.02837344,-1.409489,-3.126416,-1.744312,-0.00730437,-0.009467307,0.0141288,-1.032318,-2.866285,1.499226
-2.421439E-08,6.011126,203,491,503,513,-0.03509755,-0.01481676,0.02835314,-1.409814,-3.126361,-1.743899,-0.005245293,0.001202729,0.004526447,-1.032612,-2.865795,1.498794
-2.421439E-08,6.022237,203,491,503,513,-0.03934585,-0.01697069,0.02623533,-1.410047,-3.126176,-1.743462,-0.004227197,0.0001399042,0.0002531192,-1.032727,-2.865837,1.498834
-2.421439E-08,6.033348,203,491,503,513,-0.04576739,-0.005259861,0.02612709,-1.410352,-3.126519,-1.742553,0.00114188,0.01291172,0.002338861,-1.032702,-2.865244,1.498364
