ref,t,emg1,emg2,emg1raw,emg2raw,aDotS,bDotS,gDotS,aS,bS,gS,aDotSH,bDotSH,gDotSH,aSH,bSH,gSH
90,0,651,182,490,506,-2.309367,-0.06190285,0.3140959,-1.38134,3.001825,-0.2206157,-1.363121,0.4414843,1.594192,-0.4346194,3.114364,2.369957
90,0.01111111,651,182,490,506,-2.214705,0.01603737,0.3083565,-1.383999,3.004728,-0.198806,-1.409586,0.4650753,1.62982,-0.4172481,3.090299,2.409035
90,0.02222222,651,182,490,506,-2.259627,0.07678655,0.323716,-1.387192,3.008175,-0.1732386,-1.412394,0.5376008,1.653249,-0.3987604,3.068038,2.445274
90,0.03333334,651,182,490,506,-2.261805,0.08962789,0.3310592,-1.389185,3.011837,-0.1487418,-1.374235,0.5556624,1.634707,-0.3824715,3.043828,2.481899
90,0.04444445,651,182,490,506,-2.133932,0.1334242,0.2926477,-1.39211,3.013551,-0.1291409,-1.31585,0.5108175,1.62556,-0.3684643,3.011736,2.524759
90,0.05555556,588,188,475,498,-2.078601,0.1889035,0.2743371,-1.396256,3.015694,-0.1077877,-1.306123,0.5502046,1.635023,-0.3522132,2.980195,2.568704
90,0.06666667,588,188,475,498,-1.915883,0.3022605,0.2822593,-1.403013,3.01825,-0.09128038,-1.262953,0.5704128,1.582363,-0.3378934,2.950519,2.6096
90,0.07777778,588,188,475,498,-1.815882,0.3441517,0.3002898,-1.407929,3.021878,-0.07404014,-1.228871,0.5576227,1.478648,-0.3262309,2.923539,2.647759
90,0.08888889,588,188,475,498,-1.640212,0.374514,0.3164041,-1.413242,3.025482,-0.06102207,-1.147538,0.505286,1.42451,-0.3156735,2.888808,2.691664
90,0.1,723,213,516,495,-1.518704,0.360788,0.3008162,-1.416797,3.028192,-0.04744262,-1.076252,0.4284329,1.327886,-0.3079669,2.855558,2.733406
90,0.1111111,723,213,516,495,-1.401608,0.3688118,0.3351184,-1.421307,3.032734,-0.03591859,-1.02319,0.2559257,1.142908,-0.3066859,2.830635,2.767274
90,0.1222222,723,213,516,495,-1.33569,0.4011652,0.3713353,-1.426918,3.038213,-0.02342996,-0.9717615,0.1705992,0.9783167,-0.3046752,2.809291,2.797153
90,0.1333333,723,213,516,495,-1.240878,0.416149,0.3532888,-1.431955,3.041507,-0.01246146,-0.8785262,0.1086149,0.840934,-0.3028238,2.789859,2.823301
90,0.1444445,723,213,516,495,-1.102298,0.4098018,0.3206173,-1.436324,3.044143,-0.004133226,-0.8261375,0.06272256,0.7636992,-0.3011588,2.768228,2.851818
90,0.1555556,820,206,464,498,-0.9999653,0.3908256,0.3125096,-1.44041,3.047581,0.004196077,-0.7761903,-0.03003347,0.6693649,-0.3026885,2.750893,2.875649
90,0.1666667,820,206,464,498,-0.8656873,0.3519023,0.3333752,-1.443277,3.051931,0.009529856,-0.7251372,-0.03334719,0.6645802,-0.3010709,2.726487,2.906004
90,0.1777778,820,206,464,498,-0.7453011,0.3553431,0.329349,-1.447388,3.055589,0.01431609,-0.6472358,0.01333022,0.6659576,-0.2980897,2.702914,2.933699
90,0.1888889,820,206,464,498,-0.6451739,0.3968117,0.292988,-1.452971,3.057942,0.01864106,-0.5883026,0.04940879,0.5801606,-0.2959347,2.68991,2.951119
90,0.2,790,187,543,499,-0.5502783,0.4116785,0.2536103,-1.458347,3.059489,0.02228693,-0.5826312,0.04302382,0.5087242,-0.2949563,2.677405,2.969404
90,0.2111111,790,187,543,499,-0.4831115,0.415829,0.223896,-1.463026,3.061383,0.02577887,-0.5391664,0.01618868,0.4111817,-0.2962628,2.668623,2.984519
90,0.2222222,790,187,543,499,-0.3753774,0.4166452,0.1633742,-1.46793,3.061575,0.02738422,-0.5001882,0.004391491,0.3681905,-0.2961355,2.658791,2.998359
90,0.2333333,790,187,543,499,-0.3316356,0.4006487,0.1476064,-1.472122,3.062919,0.03042235,-0.4547833,0.03085959,0.326223,-0.2950415,2.648429,3.012682
90,0.2444444,790,187,543,499,-0.2729456,0.3719085,0.1352204,-1.475664,3.064456,0.03178376,-0.3955286,0.05949983,0.2766638,-0.2933349,2.643126,3.020491
90,0.2555556,829,164,505,500,-0.2312835,0.3441986,0.119528,-1.479028,3.06504,0.03322986,-0.3281756,0.02641335,0.2004083,-0.2932897,2.641237,3.024761
90,0.2666667,829,164,505,500,-0.1555375,0.3111524,0.09974522,-1.48158,3.065775,0.03279896,-0.2640205,-0.03125337,0.1252153,-0.2951778,2.641417,3.025741
90,0.2777778,829,164,505,500,-0.08622614,0.2983922,0.08614039,-1.484579,3.0663,0.03176778,-0.2237915,-0.02920648,0.09819685,-0.2954527,2.640185,3.028363
90,0.2888889,829,164,505,500,-0.04895976,0.3122815,0.08184235,-1.48849,3.067297,0.03130279,-0.1897221,-0.01117191,0.09148172,-0.2948689,2.637215,3.032481
90,0.3,958,198,459,494,-0.03936508,0.3154249,0.07436752,-1.491907,3.067926,0.03158243,-0.1306747,-0.01766492,0.02698781,-0.2951773,2.642167,3.027396
90,0.3111111,958,198,459,494,-0.03720158,0.3047303,0.06913861,-1.494985,3.068657,0.0318823,-0.1191922,-0.01768623,-0.0007984266,-0.2954181,2.643295,3.027037
90,0.3222222,958,198,459,494,-0.009337097,0.2418357,0.05589948,-1.496434,3.068975,0.03131451,-0.09816262,-0.05181734,-0.02125683,-0.296952,2.64527,3.025704
90,0.3333333,958,198,459,494,0.008822277,0.221595,0.05185369,-1.498326,3.069498,0.03068334,-0.07607183,-0.07635059,-0.04597887,-0.2983156,2.648422,3.022794
90,0.3444445,958,198,459,494,0.07499824,0.1737154,0.04388384,-1.498937,3.069671,0.02780553,-0.06668619,-0.08808293,-0.06418555,-0.2996834,2.651875,3.020002
90,0.3555556,912,242,511,495,0.09628686,0.1684835,0.05141822,-1.500425,3.07023,0.02635784,-0.0261438,-0.03917509,-0.07202026,-0.2990533,2.655504,3.015446
90,0.3666667,912,242,511,495,0.1079861,0.1685824,0.05996673,-1.502325,3.071203,0.02479243,-0.01566279,-0.01894377,-0.09448524,-0.2988599,2.661009,3.01017
90,0.3777778,912,242,511,495,0.1080064,0.1526742,0.06649438,-1.503851,3.07208,0.02360946,-0.02558804,-0.003985453,-0.1338013,-0.2988786,2.669777,3.002228
90,0.3888889,912,242,511,495,0.1229751,0.1239527,0.06784679,-1.50448,3.072957,0.02182833,-0.02334096,-0.007190343,-0.1231777,-0.2992237,2.673282,2.998761
90,0.4,912,242,511,495,0.137935,0.1037626,0.07018113,-1.505183,3.073685,0.01972763,-0.01893576,-0.02958103,-0.1029871,-0.3002703,2.674728,2.997452
90,0.4111111,871,304,487,493,0.1379275,0.1016786,0.07552598,-1.506233,3.074687,0.01812547,0.001744306,0.02149061,-0.07225981,-0.2986266,2.674998,2.996358
90,0.4222222,871,304,487,493,0.1421528,0.1060226,0.08402105,-1.507532,3.075877,0.01652491,0.001565419,0.03854375,-0.09462593,-0.2980567,2.681032,2.99058
90,0.4333333,871,304,487,493,0.14318,0.1231404,0.09132633,-1.509433,3.077039,0.01466816,-0.006457288,0.02260247,-0.151025,-0.2988301,2.691699,2.980345
90,0.4444444,871,304,487,493,0.1442239,0.1316734,0.09232385,-1.511101,3.078176,0.0129941,-0.01313793,0.00132145,-0.1754732,-0.2998197,2.699861,2.972842
90,0.4555556,759,370,504,489,0.1421003,0.1263251,0.09130689,-1.512203,3.079278,0.01146757,-0.01625171,-0.0189198,-0.1626636,-0.3008653,2.703997,2.969076
90,0.4666667,759,370,504,489,0.1378558,0.1283575,0.08063149,-1.513712,3.080014,0.01000922,-0.01500352,-0.01680278,-0.1445667,-0.3011907,2.707816,2.965539
90,0.4777778,759,370,504,489,0.134666,0.1378823,0.07307549,-1.515606,3.080509,0.008462461,-0.02115567,-0.01145998,-0.1221323,-0.301089,2.710622,2.963114
90,0.4888889,759,370,504,489,0.1239848,0.1686233,0.05786898,-1.518306,3.080765,0.00737163,-0.03387541,-0.007174697,-0.1166792,-0.3013186,2.714508,2.960104
90,0.5,759,370,504,489,0.1015661,0.1962366,0.05224515,-1.521229,3.081163,0.006884804,-0.02625518,0.0183618,-0.1082069,-0.3007066,2.717672,2.956864
90,0.5111111,701,419,450,485,0.08981128,0.2111547,0.05528486,-1.523978,3.081873,0.006184393,-0.02427784,0.00343236,-0.121007,-0.3016248,2.722272,2.952495
90,0.5222223,701,419,450,485,0.09298399,0.2324716,0.05511042,-1.527152,3.082611,0.004683968,-0.03510673,-0.03169266,-0.1305064,-0.3032222,2.727116,2.94857
90,0.5333334,701,419,450,485,0.09936985,0.2484007,0.04751132,-1.530357,3.082709,0.003303918,-0.0361018,-0.0402068,-0.1230553,-0.3039594,2.731231,2.944795
90,0.5444446,701,419,450,485,0.09084392,0.2589699,0.03994294,-1.533481,3.082989,0.002513491,-0.0326881,-0.02423795,-0.1049687,-0.303929,2.733594,2.942824
90,0.5555557,773,415,500,486,0.07591201,0.2589199,0.03669809,-1.536469,3.083131,0.002452771,-0.02725346,-0.001887456,-0.1007521,-0.3036936,2.737459,2.939087
90,0.5666668,773,415,500,486,0.05679467,0.2375105,0.0293883,-1.538579,3.083335,0.002263687,-0.03042816,-0.006136175,-0.09752628,-0.3040185,2.740712,2.936433
90,0.577778,773,415,500,486,0.05153435,0.2119203,0.02746026,-1.540354,3.083476,0.001670335,-0.03776941,-0.02530103,-0.08148067,-0.3049298,2.741565,2.936175
90,0.5888891,773,415,500,486,0.05057125,0.1681749,0.02038721,-1.541063,3.08359,0.00107858,-0.04402502,-0.03168767,-0.06649195,-0.3054571,2.741709,2.936595
90,0.6000003,773,415,500,486,0.04638441,0.1297683,0.01646117,-1.541501,3.083822,0.0007584683,-0.04374658,-0.01572423,-0.04198693,-0.3052867,2.741696,2.93705
90,0.6111114,694,463,525,489,0.03471747,0.1084026,0.01236085,-1.542139,3.083844,0.0006865629,-0.04032908,0.007696547,-0.02495112,-0.3045538,2.741212,2.937864
90,0.6222225,694,463,525,489,0.0188133,0.08383936,0.009339932,-1.54242,3.083812,0.0006066681,-0.03717145,0.02686401,-0.03349903,-0.3039775,2.743894,2.935602
90,0.6333337,694,463,525,489,0.009251583,0.0646923,0.01481281,-1.542575,3.084141,0.0007776431,-0.04044845,0.01623353,-0.03986496,-0.3041202,2.74613,2.933938
90,0.6444448,694,463,525,489,-0.00666964,0.006173404,0.03128402,-1.540589,3.085169,0.00150149,-0.03604921,0.007687464,-0.02393563,-0.3043061,2.745531,2.93478
90,0.655556,655,444,491,493,-0.01192179,-0.03429932,0.03375834,-1.539168,3.085654,0.001769404,-0.02842689,-0.01257336,-0.001652614,-0.3047375,2.74348,2.936938
90,0.6666671,655,444,491,493,-0.01933254,-0.05246776,0.02749963,-1.538391,3.085654,0.002210424,-0.02924494,-0.006192215,0.02179884,-0.3044691,2.740893,2.939747
90,0.6777782,655,444,491,493,-0.02464577,-0.05675803,0.0253945,-1.537636,3.085884,0.002621083,-0.02588003,0.005508885,0.03561701,-0.3039871,2.739016,2.941646
90,0.6888894,655,444,491,493,-0.02786952,-0.03760301,0.02521482,-1.537555,3.086129,0.002854909,-0.0227527,0.007636072,0.02812996,-0.3038155,2.738722,2.942084
90,0.7000005,655,444,491,493,-0.03538377,-0.01520033,0.03032877,-1.537946,3.086586,0.003425358,-0.02293848,-0.001937747,0.0121392,-0.3041612,2.740047,2.941179
90,0.7111117,630,426,512,489,-0.04181977,0.002953548,0.03548063,-1.538603,3.087098,0.00399634,-0.03579362,-0.005095232,0.004801443,-0.3042608,2.740703,2.941193
90,0.7222228,630,426,512,489,-0.05250626,0.01997662,0.03530877,-1.539248,3.087488,0.004837366,-0.03999817,-0.0114827,0.01229291,-0.3045165,2.739529,2.942887
90,0.7333339,630,426,512,489,-0.06210896,0.02951628,0.03094317,-1.539959,3.087708,0.005864281,-0.03669238,-0.01254936,0.02504045,-0.3043769,2.737674,2.945146
90,0.7444451,630,426,512,489,-0.06320891,0.04872021,0.03182838,-1.541258,3.087955,0.00648746,-0.03333161,-0.0008488521,0.03886351,-0.3039657,2.735142,2.947831
90,0.7555562,630,426,512,489,-0.06110531,0.05517188,0.03816873,-1.542045,3.088555,0.007094661,-0.0280199,0.0002119839,0.03561263,-0.303758,2.734597,2.948292
90,0.7666674,631,413,485,496,-0.0568881,0.07014547,0.04232256,-1.543429,3.089334,0.007671502,-0.03249333,-0.01042185,0.01647415,-0.304248,2.735319,2.948087
90,0.7777785,631,413,485,496,-0.05157389,0.07548998,0.0433548,-1.54435,3.089856,0.00805979,-0.04423365,-0.03382825,0.01763572,-0.3051194,2.734392,2.94947
90,0.7888896,631,413,485,496,-0.05261226,0.07221064,0.03485523,-1.544971,3.089964,0.008655806,-0.04406924,-0.02637899,0.03255396,-0.3050555,2.731717,2.952498
90,0.8000008,631,413,485,496,-0.05685675,0.07108152,0.02846357,-1.545767,3.090136,0.009393502,-0.04175442,0.003434204,0.04426505,-0.3041143,2.729634,2.954855
90,0.8111119,607,425,470,493,-0.0579157,0.07850592,0.02413629,-1.546921,3.09032,0.009896306,-0.03628027,0.01300263,0.05700057,-0.3035631,2.726734,2.957893
90,0.8222231,607,425,470,493,-0.05155013,0.08707155,0.02727299,-1.548145,3.090739,0.01033466,-0.02774294,0.01510836,0.05798114,-0.3033095,2.724729,2.959876
90,0.8333342,607,425,470,493,-0.04730634,0.0903477,0.03470273,-1.549321,3.091192,0.01069579,-0.02579819,-0.002976727,0.04196715,-0.3035865,2.724902,2.959796
90,0.8444453,607,425,470,493,-0.0473069,0.08717956,0.03792722,-1.550186,3.091707,0.01121617,-0.02600983,-0.02640588,0.02597513,-0.304541,2.724854,2.960135
90,0.8555565,607,425,470,493,-0.04727107,0.07331231,0.03591337,-1.550621,3.091996,0.01170619,-0.03882379,-0.04127053,0.02713896,-0.3050725,2.724341,2.961505
90,0.8666676,592,383,484,486,-0.0493532,0.05937846,0.02644418,-1.55097,3.092075,0.01232085,-0.04070003,-0.02743251,0.04953744,-0.3048595,2.720513,2.965644
90,0.8777788,592,383,484,486,-0.04397389,0.03906237,0.0159836,-1.550938,3.091998,0.01282046,-0.0351219,0.007699978,0.06760876,-0.3036653,2.717265,2.969098
90,0.8888899,592,383,484,486,-0.03756559,0.02311527,0.01826379,-1.550835,3.092218,0.01322366,-0.03183698,0.02367092,0.07291128,-0.3028429,2.714612,2.971908
90,0.900001,592,383,484,486,-0.02899666,0.001808426,0.01633886,-1.550304,3.092329,0.01332273,-0.02460348,0.014064,0.05261282,-0.3031045,2.713259,2.973315
90,0.9111122,589,362,514,491,-0.02577432,-0.01627775,0.01971854,-1.54956,3.092922,0.01353259,-0.02481423,-0.006164689,0.03554413,-0.30366,2.713762,2.973065
90,0.9222233,589,362,514,491,-0.02680682,-0.02697902,0.0144832,-1.549027,3.092977,0.01385643,-0.03134176,-0.01466959,0.02388257,-0.3040936,2.713664,2.973699
90,0.9333345,589,362,514,491,-0.03319641,-0.01113021,0.002600925,-1.548952,3.09286,0.01427454,-0.03352481,-0.01891449,0.01859559,-0.3041612,2.712281,2.975304
90,0.9444456,589,362,514,491,-0.0363934,-0.001618251,-0.006004184,-1.5494,3.092422,0.01479279,-0.0314216,-0.008264245,0.01325378,-0.3039609,2.712377,2.975512
90,0.9555568,589,362,514,491,-0.03220785,0.02716951,-0.005185924,-1.550538,3.09236,0.01528495,-0.02606929,-0.007211249,0.01534028,-0.3039221,2.711182,2.976743
90,0.9666679,621,319,465,487,-0.02585348,0.04212016,-0.002105746,-1.551333,3.092474,0.01540159,-0.006902469,-0.006194093,0.01408429,-0.3039775,2.710832,2.976638
90,0.977779,621,319,465,487,-0.02058402,0.0667462,0.009406206,-1.552873,3.092852,0.01528761,-0.007071203,-0.02429191,0.001305554,-0.3046411,2.710864,2.976707
90,0.9888902,621,319,465,487,-0.02271709,0.07097297,0.006159514,-1.553716,3.092724,0.01562317,-0.009271026,-0.0360029,-0.002940483,-0.3053842,2.710972,2.976774
90,1.000001,621,319,465,487,-0.02697573,0.07200491,0.002944367,-1.554585,3.092659,0.01605194,-0.01781757,-0.04344296,-0.004983667,-0.3060824,2.710431,2.977523
90,1.011112,661,329,494,494,-0.02056352,0.06128006,-0.0054725,-1.554837,3.092375,0.01640454,-0.02423197,-0.03063561,-0.01130926,-0.3060132,2.711699,2.976626
90,1.022224,661,329,494,494,-0.01841862,0.05276558,-0.005391717,-1.555257,3.092349,0.01658989,-0.01681507,-0.01147315,-0.01989628,-0.3057511,2.713336,2.975068
90,1.033335,661,329,494,494,-0.007767629,0.04747693,-0.004244694,-1.555742,3.092484,0.01653823,-0.005176887,0.003425682,-0.03279626,-0.3054262,2.716254,2.971893
90,1.044446,661,329,494,494,0.001814302,0.04012056,0.005433496,-1.555978,3.092883,0.01625008,0.004441409,0.007656755,-0.03076345,-0.3054124,2.717472,2.970468
90,1.055557,661,329,494,494,0.007139601,0.03486433,0.01403625,-1.556001,3.093551,0.01591931,0.004512725,-0.005135779,-0.02117856,-0.3058465,2.716896,2.970894
90,1.066668,590,311,552,491,0.006077791,0.03485754,0.01297829,-1.556476,3.093793,0.01589375,0.0003582053,-0.01685175,-0.007292058,-0.3062625,2.715583,2.972297
90,1.077779,590,311,552,491,-0.005604412,0.03257333,-0.001940484,-1.556769,3.093414,0.01627937,-0.004986098,-0.02962407,-0.006183729,-0.3068963,2.715575,2.972491
90,1.08889,590,311,552,491,-0.005615149,0.03362954,-0.003015836,-1.557193,3.09337,0.01649402,-0.001860641,-0.03282392,-0.01260828,-0.307381,2.716327,2.97171
90,1.100002,590,311,552,491,-0.003473837,0.02936342,-0.00403906,-1.557392,3.093297,0.01648976,0.006611537,-0.01792762,-0.02120316,-0.3072702,2.717839,2.969994
90,1.111113,590,311,552,491,0.004997328,0.03695504,0.01082619,-1.557829,3.093806,0.01626552,0.02248665,-0.01900909,-0.03201308,-0.307413,2.719847,2.967377
90,1.122224,678,289,473,499,0.01136075,0.04553432,0.0160922,-1.558512,3.094099,0.01597364,0.02354871,-0.0286014,-0.02989824,-0.3080287,2.72043,2.966558
90,1.133335,678,289,473,499,0.0145427,0.05406764,0.01601919,-1.559399,3.094212,0.01571531,0.02048969,-0.02859676,-0.0170897,-0.3082518,2.720068,2.966631
90,1.144446,678,289,473,499,0.01346808,0.06361552,0.01167184,-1.560361,3.09426,0.01560772,0.006848972,-0.02964007,0.003282735,-0.3084771,2.71824,2.968509
90,1.155557,678,289,473,499,0.01131256,0.07103131,0.008411222,-1.561209,3.094337,0.01581012,-0.004695207,-0.0136409,0.01725449,-0.3081203,2.716602,2.970454
90,1.166668,626,275,515,489,0.008112378,0.08161225,0.0008540854,-1.562428,3.094126,0.01580906,-0.0003669672,0.005511167,0.02040293,-0.307757,2.716643,2.970414
90,1.17778,626,275,515,489,0.005979933,0.09436256,-0.0014078,-1.563679,3.093832,0.01554221,0.00497368,0.01615225,0.01929086,-0.307275,2.716295,2.970547
90,1.188891,626,275,515,489,0.003826238,0.09442025,0.002845409,-1.565064,3.093993,0.01574514,-0.0006858949,-0.01045626,-0.007311011,-0.3082641,2.718692,2.96856
90,1.200002,626,275,515,489,-0.008928724,0.08159927,0.001867585,-1.565565,3.094043,0.01617125,0.0002244599,-0.02323731,-0.02011305,-0.3089528,2.72015,2.967134
90,1.211113,626,275,515,489,-0.02486818,0.05924851,0.007342447,-1.56575,3.094131,0.01674915,0.0001638979,-0.03600046,-0.02331313,-0.3094013,2.72091,2.966363
90,1.222224,608,288,527,501,-0.02056313,0.04217315,0.003241156,-1.565825,3.09406,0.01684609,-0.007255755,-0.03385395,-0.02004295,-0.3097054,2.72113,2.966437
90,1.233335,608,288,527,501,-0.01096857,0.03679787,-0.003103947,-1.565964,3.093572,0.01697605,-0.006054604,-0.02322082,-0.008331278,-0.30978,2.720402,2.9672
90,1.244446,608,288,527,501,-0.007754896,0.03356098,-0.008396056,-1.566266,3.093339,0.01699576,0.0007166327,-0.0008705845,0.02462427,-0.3088766,2.717849,2.969402
90,1.255558,608,288,527,501,-0.01203416,0.03568074,-0.007359637,-1.566547,3.093298,0.01743465,0.007229917,0.01615107,0.03309114,-0.3082258,2.716278,2.970694
90,1.266669,511,283,500,497,-0.01523222,0.03779601,-0.008448472,-1.567034,3.093226,0.01769937,0.007035092,0.0001803162,0.01710418,-0.3087019,2.71685,2.970068
90,1.27778,511,283,500,497,-0.02588473,0.03989506,-0.01062783,-1.567651,3.092979,0.018232,0.003682826,-0.009383102,0.003279011,-0.3090258,2.718168,2.968846
90,1.288891,511,283,500,497,-0.02693489,0.03032202,-0.009481102,-1.567857,3.09291,0.01856756,-0.0005277488,-0.0179072,0.01076934,-0.3094551,2.716849,2.970249
90,1.300002,511,283,500,497,-0.0311553,0.01746491,-0.01683378,-1.567741,3.092563,0.01902775,-0.003635139,-0.01577618,0.01932282,-0.309568,2.715521,2.971641
90,1.311113,511,283,500,497,-0.0375498,0.000355972,-0.02094696,-1.567126,3.092412,0.02026506,0.003977175,-0.0072838,0.03206165,-0.3093059,2.712154,2.974458
90,1.322224,533,291,509,505,-0.03753359,-0.01450557,-0.0165671,-1.566814,3.092186,0.02072099,0.006145597,0.004428874,0.03311205,-0.3088984,2.711037,2.975399
90,1.333336,533,291,509,505,-0.03646582,-0.01981162,-0.01436976,-1.566461,3.09233,0.02114284,0.006110746,0.006537959,0.02886375,-0.3090939,2.709858,2.976434
90,1.344447,533,291,509,505,-0.02794567,-0.02505527,-0.005784014,-1.565961,3.092442,0.0211178,0.007011523,-0.01902574,0.01818738,-0.3100244,2.709691,2.976482
90,1.355558,533,291,509,505,-0.03114377,-0.02607893,0.0006138567,-1.56552,3.092674,0.02139903,0.001745838,-0.009418316,0.02251295,-0.3097097,2.708365,2.977937
90,1.366669,533,291,509,505,-0.03009075,-0.01862938,-0.0005144427,-1.565506,3.092644,0.02170743,0.003939716,0.0001602033,0.02675609,-0.3093517,2.707193,2.978953
90,1.37778,570,304,503,497,-0.03433977,-0.009126523,-0.009140531,-1.565696,3.092132,0.02205044,-0.003520156,0.0001865989,0.02682713,-0.3092569,2.706394,2.980009
90,1.388891,570,304,503,497,-0.03755605,0.002576561,-0.01245114,-1.566288,3.091874,0.02262781,-0.0002665063,0.004447203,0.03211778,-0.3088564,2.705163,2.981162
90,1.400002,570,304,503,497,-0.03329038,0.001510432,-0.01349756,-1.566262,3.091685,0.02290105,0.007036226,-0.00301851,0.01819371,-0.3091014,2.705512,2.980553
90,1.411114,570,304,503,497,-0.02798242,0.001610752,-0.002826971,-1.566217,3.092041,0.02299959,0.009010561,-0.01153826,0.004320092,-0.3095056,2.706432,2.979525
90,1.422225,594,258,476,497,-0.02373907,0.01015397,-0.000762405,-1.566485,3.092093,0.02310399,0.01334353,-0.01261517,0.01173181,-0.3095477,2.705169,2.980462
90,1.433336,594,258,476,497,-0.02054852,0.0176125,-0.00295074,-1.567086,3.092029,0.02318921,0.003911012,-0.0136668,0.02780426,-0.3096585,2.702887,2.98285
90,1.444447,594,258,476,497,-0.02056047,0.02612323,-0.004092884,-1.567544,3.091951,0.02338682,-0.001289397,-0.009397905,0.03957491,-0.3094966,2.700651,2.985116
90,1.455558,594,258,476,497,-0.02159681,0.02075301,-0.008305294,-1.567574,3.091788,0.02352264,0.002890586,-0.01261217,0.03101488,-0.3098737,2.699726,2.9857
90,1.466669,594,258,476,497,-0.02155855,0.004751614,-0.01029268,-1.567123,3.091659,0.02372877,-0.002635234,-0.009394738,0.009764466,-0.3100218,2.701355,2.98428
90,1.47778,651,273,476,492,-0.004470129,-0.02710837,-0.001442596,-1.56593,3.092018,0.02329627,-0.004837178,-0.00618468,0.001251841,-0.3099888,2.702749,2.983023
90,1.488891,651,273,476,492,-0.001249511,-0.0419907,0.0008274674,-1.565171,3.092082,0.02321744,-0.002525884,0.002320773,0.01721596,-0.3096734,2.700616,2.984947
90,1.500003,651,273,476,492,0.007303514,-0.06008655,0.001006752,-1.56401,3.092053,0.02303102,0.01036307,0.006541747,0.02774241,-0.3094796,2.698757,2.986352
90,1.511114,651,273,476,492,0.008354075,-0.06115163,-4.396355E-05,-1.563458,3.092043,0.02319081,0.0070542,0.005485801,0.01604529,-0.3095488,2.699585,2.985489
90,1.522225,570,268,475,492,0.01046412,-0.05155167,0.0009438825,-1.563092,3.092096,0.02301344,-0.001609608,0.002315316,0.002277116,-0.309683,2.700769,2.984591
90,1.533336,570,268,475,492,0.006167576,-0.03768833,0.00188322,-1.563244,3.092206,0.02314287,-0.003783034,-0.0008710967,-0.001971157,-0.3097688,2.701392,2.984001
90,1.544447,570,268,475,492,0.003995724,-0.01638742,0.001691093,-1.563631,3.092237,0.02315725,-0.00484281,0.005522418,-0.003024055,-0.3095579,2.701655,2.983815
90,1.555558,570,268,475,492,0.001796972,0.0124138,0.005701728,-1.564544,3.092535,0.02323129,-0.002763256,0.004449083,-0.009432701,-0.3096756,2.702331,2.982933
90,1.566669,570,268,475,492,0.004951607,0.03372512,0.005521314,-1.565494,3.092612,0.02309493,-0.001738535,0.004447796,-0.0137033,-0.3097011,2.703191,2.982087
90,1.577781,574,275,493,490,0.003816582,0.06569112,0.007364212,-1.566954,3.092752,0.02312263,-0.001780905,0.0001798728,-0.01689975,-0.309993,2.703901,2.981447
90,1.588892,574,275,493,490,0.00803905,0.08488389,0.006148536,-1.568602,3.092942,0.02296177,0.003651396,-0.00516482,-0.005246324,-0.3101129,2.703303,2.981785
90,1.600003,574,275,493,490,0.00374499,0.094519,0.01244632,-1.569932,3.093289,0.0230225,0.00266263,-0.01688609,0.00541006,-0.3105912,2.701962,2.983083
90,1.611114,574,275,493,490,-0.001566805,0.0880764,0.008241106,-1.570641,3.093418,0.0232984,-0.002665887,-0.01581413,0.005461317,-0.3107755,2.701744,2.983523
90,1.622225,544,250,496,501,-0.003667556,0.07739006,0.005135078,-1.571205,3.093442,0.02334101,-0.01123476,-0.01792086,0.001282985,-0.3110189,2.701957,2.983697
90,1.633336,544,250,496,501,-0.003623687,0.05714406,0.004243908,-1.57132,3.093416,0.02332716,-0.01348974,-0.009380679,-0.01360545,-0.3109331,2.703956,2.981961
90,1.644447,544,250,496,501,-0.005720433,0.03480615,0.008698668,-1.571132,3.093661,0.02347843,-0.0103143,-0.0008668136,-0.01789293,-0.310792,2.704978,2.980975
90,1.655559,544,250,496,501,-0.009936916,0.01883759,0.009895635,-1.57106,3.093817,0.0234502,-0.01558369,-0.0008608755,-0.01250744,-0.3108271,2.70473,2.981469
90,1.66667,544,250,496,501,-0.006727803,0.009274749,0.01212072,-1.57095,3.094057,0.02345073,-0.01433083,0.003386926,0.005592749,-0.3106306,2.702963,2.983292
90,1.677781,525,265,484,494,-0.005604434,-0.009840674,0.01446307,-1.570801,3.094841,0.02308534,-0.01534373,-0.008336562,0.01305516,-0.3109954,2.701556,2.984731
90,1.688892,525,265,484,494,-0.002348945,-0.02688085,0.01252186,-1.570271,3.095361,0.02270078,-0.02496536,-0.005114077,0.008896702,-0.3109651,2.70153,2.985328
90,1.700003,525,265,484,494,-0.006590929,-0.03541201,0.01152132,-1.569848,3.095433,0.02289307,-0.02715207,-0.00297202,0.002512871,-0.3109422,2.702787,2.984452
90,1.711114,525,265,484,494,-0.00550244,-0.03750478,0.01371587,-1.569592,3.096225,0.02259639,-0.01753946,0.006593551,0.003491364,-0.3106082,2.702473,2.984809
90,1.722225,525,265,484,494,-0.00657963,-0.03322358,0.01580734,-1.569414,3.096458,0.02267096,-0.01757836,0.003398387,0.0002944339,-0.3106918,2.70265,2.984828
90,1.733337,554,261,488,494,-0.004480544,-0.0193617,0.01783959,-1.569436,3.096971,0.02264646,-0.01754349,0.004457375,0.004557142,-0.3106588,2.702018,2.985806
90,1.744448,554,261,488,494,-0.007692506,-0.009789992,0.01668297,-1.569581,3.097141,0.0228137,-0.01536153,0.0001861639,0.01092513,-0.3107387,2.701164,2.98674
90,1.755559,554,261,488,494,-0.01302791,-0.009844899,0.01346779,-1.569214,3.09708,0.02331012,-0.01526123,0.003371622,0.02051777,-0.3106098,2.699437,2.988561
90,1.76667,554,261,488,494,-0.01409903,-0.005595319,0.01236269,-1.569265,3.097178,0.02348908,-0.01646216,-0.005142297,0.008806685,-0.3109326,2.699996,2.988252
90,1.777781,446,250,478,496,-0.01517502,-0.007732699,0.01237896,-1.569027,3.097314,0.02387151,-0.01980606,-0.01471162,-0.003952446,-0.3113773,2.701329,2.987301
90,1.788892,446,250,478,496,-0.01412008,-0.004539558,0.01234413,-1.569002,3.097321,0.02404355,-0.01870989,-0.01471974,-0.0007693823,-0.3115542,2.700923,2.987867
90,1.800003,446,250,478,496,-0.00880694,0.007150059,0.007994077,-1.569366,3.097335,0.02399295,-0.01002822,0.0001654364,0.0119377,-0.3111238,2.6996,2.989027
90,1.811115,446,250,478,496,-0.003538832,0.02634881,0.009958411,-1.570068,3.097392,0.02414582,-0.004729048,0.00761729,0.008700459,-0.3107845,2.699394,2.989317
90,1.822226,446,250,478,496,-0.004642185,0.04552922,0.01085262,-1.571011,3.09756,0.02421346,-0.01541835,0.01936323,0.002419834,-0.3103286,2.699972,2.989245
90,1.833337,509,263,495,496,-0.008948307,0.05192289,0.01398533,-1.571449,3.097836,0.02480468,-0.01755777,0.01403912,0.002443267,-0.3103408,2.699548,2.989844
90,1.844448,509,263,495,496,-0.01215671,0.05725146,0.01499689,-1.572207,3.098042,0.02501347,-0.02192702,0.0002039708,-0.004980612,-0.3107728,2.700276,2.989539
90,1.855559,509,263,495,496,-0.01534257,0.05083516,0.01291231,-1.572545,3.098087,0.02534051,-0.02192959,-0.007256053,-0.003906343,-0.3110466,2.699587,2.990377
90,1.86667,509,263,495,496,-0.01425436,0.04017375,0.01194542,-1.572671,3.098231,0.02546621,-0.01010217,-0.004095072,0.006631604,-0.310955,2.698393,2.991322
90,1.877781,537,251,508,496,-0.01419862,0.02946683,0.004606374,-1.572876,3.098423,0.02535276,-0.01646711,-0.001955738,0.008828785,-0.3109006,2.697803,2.992233
90,1.888893,537,251,508,496,-0.008812439,0.01453281,0.000509553,-1.572747,3.098645,0.02498471,-0.01537241,0.00123089,0.01094698,-0.3108814,2.697443,2.992719
90,1.900004,537,251,508,496,-0.005572366,-0.004665414,-0.002508668,-1.572205,3.098546,0.02496234,-0.01546425,0.007627097,0.0002962854,-0.3106977,2.698543,2.991861
90,1.911115,537,251,508,496,-0.001283173,-0.01846789,0.001909235,-1.571701,3.099052,0.02471041,-0.01540487,0.01614758,0.004555922,-0.3102977,2.698494,2.992118
90,1.922226,537,251,508,496,0.001938276,-0.03125381,0.0009662138,-1.571065,3.099065,0.0246385,-0.007719945,0.03316416,0.02366622,-0.3093885,2.696475,2.993915
90,1.933337,614,234,478,492,0.003027357,-0.03758977,0.004274302,-1.570864,3.099953,0.02433277,-0.005551934,0.03208872,0.02790559,-0.3090497,2.695252,2.995109
90,1.944448,614,234,478,492,-0.0001641251,-0.03867058,0.003211392,-1.570406,3.099946,0.02442811,-0.006637219,0.02356886,0.02791151,-0.3090066,2.694246,2.996169
90,1.955559,614,234,478,492,0.003061011,-0.03975443,0.001126544,-1.569843,3.100294,0.02400467,-0.01207494,0.006540049,0.02050708,-0.3093693,2.693626,2.997023
90,1.966671,614,234,478,492,0.0009355582,-0.03872178,-0.002082685,-1.569441,3.100185,0.02404941,-0.01325585,0.002287026,0.009863157,-0.309487,2.694139,2.996736
90,1.977782,492,243,546,498,-0.002275169,-0.03763128,0.001123278,-1.569126,3.10064,0.02424808,-0.01338272,0.01294577,-0.00610655,-0.3091014,2.695643,2.995384
90,1.988893,492,243,546,498,-0.003347233,-0.03547576,0.003212495,-1.568926,3.100446,0.02426513,-0.01019836,0.009734911,-0.007201926,-0.3092037,2.695722,2.995239
90,2.000004,492,243,546,498,0.0008736346,-0.01945138,0.007343297,-1.569113,3.10067,0.02413889,-0.00491956,0.006531163,-0.01151661,-0.3091951,2.696524,2.994368
90,2.011115,492,243,546,498,0.005090796,0.002906889,0.006094491,-1.569546,3.100758,0.02403769,-0.003855631,-0.003057241,-0.01046869,-0.3094407,2.696781,2.993997
90,2.022226,492,243,546,498,0.001852823,0.0295016,0.002655655,-1.570527,3.100711,0.02407338,-0.002595417,0.000126088,0.008697463,-0.3092436,2.695088,2.99564
90,2.033337,445,260,517,494,0.0007676668,0.04863233,-0.002837642,-1.571568,3.100628,0.0240281,-0.006804419,0.004408273,0.01299599,-0.3088532,2.694759,2.996138
90,2.044448,445,260,517,494,0.00182879,0.05710842,-0.008235559,-1.572369,3.100437,0.02396685,-0.006710194,0.008667623,0.02152059,-0.3085778,2.693514,2.997394
90,2.055559,445,260,517,494,0.0007604212,0.0539421,-0.006103567,-1.573028,3.1001,0.02403822,0.002893355,0.002251632,0.02461881,-0.3086476,2.692255,2.998292
90,2.06667,445,260,517,494,0.00290696,0.04436831,-0.004949191,-1.573259,3.100088,0.02395141,0.005945979,-0.005208201,0.01180169,-0.3089693,2.692812,2.997657
90,2.077781,445,260,517,494,0.005029213,0.03161368,-0.001654141,-1.573179,3.099926,0.02419801,0.008099235,0.004374892,0.01178595,-0.3086343,2.692539,2.997762
90,2.088892,423,223,495,495,0.000764953,0.01669937,-0.001563671,-1.573097,3.099442,0.02475621,0.00592721,-0.006268082,0.009668116,-0.3089267,2.692297,2.997914
90,2.100003,423,223,495,495,-0.003465279,0.01022459,-0.01003868,-1.573043,3.099117,0.02488458,-0.005767359,-0.005177184,0.01191395,-0.3089767,2.691729,2.998827
90,2.111114,423,223,495,495,-0.003487579,0.004915666,-0.01108956,-1.573395,3.098507,0.0254236,-0.002563221,-0.003059625,0.01188653,-0.3089528,2.691106,2.999297
90,2.122225,423,223,495,495,-0.003470988,-0.0004017614,-0.01213099,-1.573543,3.098023,0.02539484,-0.0016473,0.0001401129,-0.004095302,-0.3089927,2.692454,2.998003
90,2.133336,422,216,532,500,-0.0002821321,-0.0003674608,-0.008928265,-1.573528,3.097999,0.02529257,-0.001666159,0.005468374,-0.007288176,-0.3088202,2.693181,2.997313
90,2.144447,422,216,532,500,0.0039671,0.0007510649,-0.003603503,-1.573535,3.098119,0.02509124,0.002654335,0.004389518,-0.0009388267,-0.3087893,2.692626,2.997701
90,2.155558,422,216,532,500,0.01036675,0.008269811,-0.0004476876,-1.574117,3.098358,0.02440734,0.006913756,-0.004137052,0.002194427,-0.3089624,2.692871,2.997436
90,2.166669,422,216,532,500,0.007159648,0.01785151,-0.003739434,-1.575005,3.098175,0.02443077,0.007991543,-0.003078826,0.003240886,-0.309013,2.693143,2.997077
90,2.17778,422,216,532,500,0.007170619,0.0231411,-0.008054007,-1.575396,3.097883,0.02418523,0.005746546,-0.00732907,-0.007392946,-0.3092979,2.694257,2.995997
90,2.188891,457,246,505,499,0.00292163,0.02521966,-0.01020123,-1.575356,3.097898,0.02410161,0.0003693309,-0.01476486,-0.01054415,-0.3095776,2.694888,2.99557
90,2.200002,457,246,505,499,0.005061235,0.0230742,-0.01230848,-1.575541,3.09773,0.02397431,0.001335083,-0.01263083,-0.02120592,-0.3097443,2.696588,2.993908
90,2.211113,457,246,505,499,0.00613201,0.01990559,-0.01116855,-1.575885,3.098267,0.02384435,-0.001885359,-0.00196027,-0.02649466,-0.3094204,2.698142,2.992494
90,2.222224,457,246,505,499,0.005059585,0.01993096,-0.007973814,-1.576105,3.098305,0.02381399,-0.002956584,0.0001723953,-0.02754871,-0.3094114,2.699174,2.991582
90,2.233335,497,226,501,504,0.0008426383,0.006109768,-0.006777698,-1.576163,3.098525,0.02361691,-0.002914564,-0.003028624,-0.02222471,-0.3095845,2.699421,2.99142
90,2.244446,497,226,501,504,-0.006624897,-0.001322375,-0.006766201,-1.576557,3.097882,0.02422571,-0.001808088,-0.01688472,-0.01477728,-0.3101097,2.698616,2.99216
90,2.255557,497,226,501,504,-0.009820855,-0.007749687,-0.008847036,-1.576203,3.097738,0.02465341,0.001340214,-0.02860858,-0.01694766,-0.310776,2.699228,2.991471
90,2.266668,497,226,501,504,0.001842662,-0.003415326,-0.007825951,-1.576899,3.097226,0.02494423,0.003363684,-0.03712809,-0.02654973,-0.3114162,2.700354,2.990219
90,2.277779,497,226,501,504,0.001830977,0.004032042,-0.008957081,-1.57714,3.097097,0.02492772,0.01513514,-0.02756962,-0.02346372,-0.3114929,2.700977,2.989142
90,2.28889,474,238,496,497,0.001800783,0.02322901,-0.003777756,-1.577569,3.097531,0.02468111,0.01192722,-0.02649375,-0.02555533,-0.3117273,2.70155,2.988455
90,2.300001,474,238,496,497,0.003891964,0.04135918,-0.001800199,-1.578485,3.097621,0.02459376,0.006576598,-0.02328424,-0.02869716,-0.3119744,2.7028,2.987361
90,2.311112,474,238,496,497,0.002772249,0.05630117,-0.0009009092,-1.5798,3.097201,0.02494743,-0.0008166935,-0.02007699,-0.02328486,-0.3121417,2.702542,2.987731
90,2.322223,474,238,496,497,-0.0004487559,0.06589382,-0.004207903,-1.581358,3.096797,0.02524091,-0.002912706,-0.01794166,-0.02006226,-0.3122876,2.70276,2.987622
90,2.333334,474,238,496,497,0.002757266,0.06054301,-0.007347367,-1.58187,3.096687,0.02521694,0.0004367493,-0.01476161,-0.00517844,-0.3123121,2.701682,2.98856
90,2.344445,507,290,507,496,0.003836289,0.04350872,-0.005062197,-1.581722,3.096724,0.02534158,0.005893375,-0.01265103,0.007553049,-0.3123361,2.700207,2.989733
90,2.355556,507,290,507,496,0.008119766,0.02545454,0.0004333486,-1.581522,3.096867,0.02512906,0.006816998,-0.02329899,-0.004183067,-0.3129118,2.701205,2.988688
90,2.366668,507,290,507,496,0.009184907,0.02124942,0.001547664,-1.582333,3.097049,0.02510189,-0.0006446,-0.02221465,-0.00409926,-0.3131132,2.700898,2.989299
90,2.377779,507,290,507,496,0.01026726,0.01589285,-0.001597302,-1.582339,3.096986,0.02494796,-0.002769627,-0.02434086,-0.003014264,-0.3134349,2.700765,2.989498
90,2.38889,439,239,496,495,0.006040181,0.01372418,-0.004751049,-1.58242,3.097325,0.02465821,-0.009133881,-0.01261072,-0.002940663,-0.3132767,2.70061,2.98991
90,2.400001,439,239,496,495,0.006051873,0.005219053,-0.002544007,-1.582248,3.097379,0.02457139,-0.002630294,0.004414587,0.004462619,-0.3127457,2.700018,2.99036
90,2.411112,439,239,496,495,0.007093425,-3.681052E-06,0.007084051,-1.582369,3.09756,0.02465182,-0.0005698828,0.006545641,-0.004081509,-0.3126647,2.701059,2.989183
90,2.422223,439,239,496,495,0.004949079,4.830677E-05,0.01347173,-1.58236,3.097884,0.02466247,-0.002814945,-0.001967039,-0.01365243,-0.3129806,2.702383,2.98804
90,2.433334,439,239,496,495,0.003887278,7.427856E-05,0.01455659,-1.582633,3.09837,0.02455435,0.0003497619,-0.01902718,-0.01262399,-0.3137838,2.70211,2.988214
90,2.444445,508,228,512,494,0.003907189,0.001081203,0.007110293,-1.582792,3.098495,0.02440414,-0.002772599,-0.01902536,-0.005136993,-0.3139904,2.701514,2.988896
90,2.455556,508,228,512,494,0.002829419,0.01275928,0.002743218,-1.583249,3.098415,0.02439136,-0.005932268,-0.01263006,-0.004038683,-0.313959,2.701684,2.988749
90,2.466667,508,228,512,494,-0.00040018,0.01919775,0.005865604,-1.583973,3.098446,0.02468537,-0.009102229,-0.005165751,-0.002938732,-0.3138338,2.701828,2.988817
90,2.477778,508,228,512,494,0.00171384,0.02455627,0.009018661,-1.584376,3.098624,0.02460867,-0.007001508,0.004419878,-0.008280737,-0.3135425,2.70267,2.988054
90,2.488889,552,224,517,497,-0.001525275,0.03631449,0.01210221,-1.585344,3.098851,0.02494743,-0.01030059,0.002308944,-0.01783381,-0.3135499,2.704076,2.986976
90,2.5,552,224,517,497,-0.008994032,0.04269221,0.01202984,-1.586,3.099008,0.0252734,-0.007053728,-0.01155211,-0.009350615,-0.3140373,2.70337,2.987658
90,2.511111,552,224,517,497,-0.0196238,0.04268719,0.0120369,-1.586661,3.099579,0.02541721,-0.007072257,-0.02647144,-0.008285156,-0.3148091,2.702691,2.98829
90,2.522222,552,224,517,497,-0.02387423,0.04051957,0.008852308,-1.587041,3.099618,0.02578259,-0.01141954,-0.02752126,-0.01676639,-0.3151787,2.704017,2.98729
90,2.533333,552,224,517,497,-0.02916846,0.02341814,0.001546556,-1.587112,3.099576,0.02646756,-0.01358066,-0.01792137,-0.02207894,-0.3151553,2.706016,2.985598
90,2.544444,506,216,506,491,-0.02273793,0.001068052,0.002824126,-1.586516,3.099643,0.02653254,-0.01565246,-0.002999437,-0.01991807,-0.3147782,2.706584,2.985236
90,2.555555,506,216,506,491,-0.01528651,-0.007366844,0.01034982,-1.586333,3.099627,0.02656716,-0.005948394,0.002298648,-0.00935673,-0.3145678,2.706074,2.985523
90,2.566666,506,216,506,491,-0.01633417,-0.009457055,0.01568924,-1.586193,3.099867,0.02644359,-0.0005215947,0.004413916,0.0001842321,-0.3144442,2.705084,2.98629
90,2.577777,506,216,506,491,-0.01739784,-0.01158008,0.01677116,-1.586012,3.100067,0.0266657,-0.008050246,-0.008349728,-0.004010867,-0.314882,2.705416,2.986283
90,2.588888,471,230,512,500,-0.01739497,-0.01372355,0.01252332,-1.586174,3.100005,0.02700552,-0.01117778,-0.01260893,0.004542042,-0.315086,2.704349,2.987569
90,2.599999,471,230,512,500,-0.01950694,-0.01803141,0.008297047,-1.585806,3.099979,0.02725266,-0.01863731,-0.01365801,0.004613969,-0.3152426,2.704084,2.988217
90,2.61111,471,230,512,500,-0.01525239,-0.01805823,0.002946037,-1.585809,3.099386,0.02757224,-0.01756345,-0.01045862,0.005668935,-0.3151755,2.70394,2.988651
90,2.622221,471,230,512,500,-0.01418904,-0.01594287,0.0008214276,-1.585723,3.09968,0.02774162,-0.003614044,0.009745822,0.01193238,-0.3144687,2.703469,2.988874
90,2.633332,471,230,512,500,-0.007821854,-0.008427143,0.006094678,-1.585794,3.099905,0.02766705,-0.004774566,-0.004097128,0.005543279,-0.3149263,2.7036,2.98884
90,2.644443,506,247,497,500,-0.002532778,0.008654993,0.00915,-1.586335,3.1001,0.02753495,-0.004766136,-0.0094248,0.007670888,-0.3151553,2.703031,2.989447
90,2.655554,506,247,497,500,0.0006157439,0.02462961,0.009016632,-1.586894,3.100238,0.02773416,-0.003670993,-0.01794014,0.01297056,-0.3153534,2.702452,2.990051
90,2.666665,506,247,497,500,0.0005881228,0.03098621,0.004690556,-1.587399,3.100052,0.02810381,-0.009053179,-0.01899947,0.006627037,-0.3157699,2.70276,2.989883
90,2.677776,506,247,497,500,0.002733281,0.02775639,0.0004623833,-1.587629,3.099936,0.02801113,-0.01538047,0.008712713,0.006704677,-0.3149502,2.702947,2.990059
90,2.688887,506,247,497,500,0.01339827,0.02034236,0.004817544,-1.587445,3.100191,0.02748755,-0.008880023,0.03212862,0.01196759,-0.3140538,2.70307,2.989835
90,2.699998,458,249,495,497,0.01448016,0.00759921,0.009190356,-1.587391,3.100369,0.02743802,-0.007823825,0.03319136,0.01089243,-0.3136511,2.702926,2.990031
90,2.711109,458,249,495,497,0.01447995,-0.007329405,0.009313755,-1.586547,3.100306,0.02753975,-0.01426531,0.0289586,0.006691161,-0.3133603,2.703257,2.990041
90,2.72222,458,249,495,497,0.008093398,-0.0221875,0.01262212,-1.586509,3.100424,0.02784654,-0.006875848,0.01615398,0.002344434,-0.3135659,2.703599,2.989499
90,2.733331,458,249,495,497,0.003833197,-0.02642781,0.01584696,-1.586105,3.100669,0.02791312,-0.01020301,0.0001874361,-0.007220059,-0.3140543,2.704441,2.988894
90,2.744442,504,261,474,498,-0.002516635,-0.02971071,0.01056433,-1.585319,3.101025,0.02772244,-0.008071968,-0.003025214,-0.006170039,-0.3142594,2.704072,2.989338
90,2.755553,504,261,474,498,-0.003593286,-0.02332111,0.01050521,-1.58523,3.101138,0.02779168,-0.005892231,0.0001632925,-0.001928217,-0.3141534,2.703799,2.989605
90,2.766664,504,261,474,498,-0.002531672,-0.01058318,0.008305131,-1.585044,3.101776,0.02757863,-0.001603977,0.00867202,-0.001977932,-0.3139558,2.704739,2.988498
90,2.777775,504,261,474,498,-0.002554572,0.001144095,0.009265933,-1.585366,3.10191,0.02760952,-0.008049595,-0.0008988464,-0.005116255,-0.3141971,2.704938,2.988564
90,2.788886,504,261,474,498,-0.001508263,0.01395674,0.01238189,-1.585803,3.102612,0.02745346,-0.008009087,-0.003030473,-0.0008635956,-0.3142807,2.704964,2.988571
90,2.799997,537,232,498,492,-0.001515929,0.01926796,0.01021952,-1.586164,3.102885,0.02751471,-0.01329639,-0.004085599,0.003448616,-0.3143169,2.704438,2.989366
90,2.811108,537,232,498,492,-0.003641158,0.02241242,0.004860383,-1.5865,3.10279,0.02759035,-0.007839366,0.00228956,0.01512715,-0.313992,2.702511,2.9911
90,2.822219,537,232,498,492,-0.005761052,0.02234835,0.0005973215,-1.586408,3.102727,0.02767663,-0.007839568,0.004422776,0.01406696,-0.3138663,2.702054,2.991561
90,2.83333,537,232,498,492,-0.002560554,0.01599101,0.003856675,-1.586375,3.102859,0.02762657,-0.006800182,0.002290906,0.01192487,-0.313877,2.701801,2.991838
90,2.844441,567,219,496,497,-0.001485597,0.002176587,0.007168115,-1.586094,3.102871,0.02774481,-0.00572144,-0.003042845,0.01404028,-0.3140698,2.701041,2.992524
90,2.855552,567,219,496,497,-0.003606014,-0.007385899,0.01044521,-1.585741,3.103067,0.02783003,-0.01855947,0.0001865402,0.007775771,-0.3140112,2.701439,2.992729
90,2.866663,567,219,496,497,-0.003573939,-0.01490263,0.004139776,-1.585376,3.103211,0.02778316,-0.02161829,0.005511109,0.02059209,-0.3137337,2.699723,2.994693
90,2.877774,567,219,496,497,-0.005693932,-0.0160097,-0.0001160465,-1.585174,3.103101,0.02790034,-0.03204142,0.008725591,0.04307042,-0.3133284,2.696293,2.998542
90,2.888885,567,219,496,497,-0.007804538,-0.01501149,-0.005417924,-1.584821,3.103444,0.02787904,-0.02982129,0.02363672,0.04837721,-0.3125523,2.694809,3.000181
90,2.899997,482,217,520,500,-0.00780554,-0.01817869,-0.002193603,-1.58452,3.103509,0.02798024,-0.02459991,0.02576292,0.03767891,-0.3121699,2.694314,3.000883
90,2.911108,482,217,520,500,-0.008892957,-0.02027554,-0.001146683,-1.584606,3.103036,0.02843084,-0.01942642,0.01403945,0.02483743,-0.3123403,2.694439,3.000838
90,2.922219,482,217,520,500,-0.004626891,-0.01914323,0.005252847,-1.584474,3.103386,0.02805267,-0.01634707,0.004451849,0.01521423,-0.3125555,2.69466,3.000719
90,2.93333,482,217,520,500,0.0006831344,-0.0158905,0.01056133,-1.58439,3.103648,0.02788915,-0.01010246,-0.00195054,0.001301866,-0.3128138,2.695325,2.999959
90,2.944441,482,217,520,500,-0.001425987,-0.01704523,0.0009792645,-1.584177,3.103384,0.02794082,-0.01214264,0.001241943,0.01092079,-0.3126727,2.693816,3.001761
90,2.955552,431,221,486,499,0.001781182,-0.01707396,0.0009833149,-1.583501,3.103327,0.0277054,-0.0163086,0.0150971,0.01736153,-0.3120666,2.692833,3.002986
90,2.966663,431,221,486,499,0.0007026717,-0.01922467,-9.910809E-05,-1.583107,3.102797,0.02800953,-0.01836508,0.02574568,0.0227112,-0.3115749,2.692015,3.004081
90,2.977774,431,221,486,499,-0.001412928,-0.02027298,0.002024581,-1.582922,3.102706,0.02779009,-0.01403978,0.03105776,0.02799767,-0.3110498,2.690721,3.005359
90,2.988885,431,221,486,499,0.0007074419,-0.0180741,0.006290273,-1.58312,3.103169,0.02772031,-0.01100379,0.01081814,0.01623565,-0.3114631,2.691083,3.005015
90,2.999996,737,218,484,495,-0.0003541484,-0.02020648,0.006307156,-1.582834,3.103231,0.02776612,-0.01207394,0.00868972,0.01624463,-0.3114018,2.69053,3.00571
90,3.011107,737,218,484,495,-0.001419148,-0.01382983,0.007347371,-1.582525,3.103803,0.0276287,-0.01532225,-0.0008850526,0.01413949,-0.3115504,2.690084,3.006533
90,3.022218,737,218,484,495,-0.008900159,-0.009584295,0.006191171,-1.582656,3.103311,0.02819755,-0.01221574,0.002312814,0.004522245,-0.3113965,2.690812,3.00591
90,3.033329,737,218,484,495,-0.005714153,-0.006363892,0.00829955,-1.58267,3.103467,0.02816666,-0.0121703,0.01722633,0.005595566,-0.3108079,2.690834,3.006032
90,3.04444,737,218,484,495,-0.005687957,-0.005279715,0.01150304,-1.582492,3.10392,0.02773363,-0.006896218,0.009762064,0.002338647,-0.3108889,2.691157,3.005717
90,3.055551,609,208,459,493,-0.003578992,0.002218894,0.01570166,-1.582716,3.104213,0.02772191,-0.01124527,0.003383395,-0.005080296,-0.3111014,2.692008,3.005152
90,3.066662,609,208,459,493,-0.006784615,0.005367769,0.01137853,-1.582817,3.103827,0.028058,-0.009002279,0.008709116,0.005548456,-0.3106284,2.69125,3.005979
90,3.077773,609,208,459,493,-0.006776434,0.01061777,0.00280883,-1.583083,3.103638,0.02812191,-0.01640857,0.003396794,0.0120093,-0.310728,2.690347,3.007219
90,3.088884,609,208,459,493,-0.004642425,0.002138624,0.002887498,-1.583414,3.103674,0.02829023,-0.008788032,0.01934324,0.02472128,-0.3101272,2.688987,3.008412
90,3.099995,604,231,499,494,-0.007827604,-0.005314187,0.004013037,-1.583144,3.103749,0.02847026,-0.01098796,0.01189354,0.01941159,-0.3101816,2.688685,3.008878
90,3.111106,604,231,499,494,-0.006761141,-0.01796695,0.01479635,-1.583061,3.104389,0.02851873,-0.009003911,-0.003022561,0.007660198,-0.3107664,2.689563,3.008057
90,3.122217,604,231,499,494,-0.01099762,-0.02441283,0.01058737,-1.582523,3.104422,0.02866733,-0.009035532,-0.005149251,0.005528303,-0.3107557,2.689437,3.008352
90,3.133328,604,231,499,494,-0.01099395,-0.02654334,0.01060644,-1.582149,3.104526,0.02878611,-0.01427621,0.0001854673,0.0130401,-0.3105864,2.688499,3.009542
90,3.144439,604,231,499,494,-0.01526122,-0.02554471,0.007394407,-1.581494,3.104509,0.02921914,-0.0131246,0.0001783408,0.02155002,-0.3105352,2.687063,3.010982
90,3.15555,497,223,482,494,-0.02061661,-0.007454194,0.006156214,-1.581902,3.104536,0.02959997,-0.006792376,-0.007291266,0.01722237,-0.3108111,2.686709,3.011214
90,3.166661,497,223,482,494,-0.01958795,0.01173541,0.008083076,-1.582404,3.104209,0.02975976,-0.01117496,-0.01793182,0.007667262,-0.3113843,2.687297,3.010937
90,3.177772,497,223,482,494,-0.01853263,0.0212959,0.004803552,-1.582895,3.104197,0.02993766,-0.006969806,-0.01474336,0.001235229,-0.3115014,2.687805,3.010429
90,3.188883,497,223,482,494,-0.01856761,0.03189118,0.003634902,-1.582799,3.104099,0.03040318,0.0005046427,-0.01689235,0.003287822,-0.3117177,2.687495,3.010514
90,3.199994,521,258,508,507,-0.0153787,0.03721344,0.002528344,-1.583368,3.104115,0.03047775,0.001540529,-0.0158277,8.249376E-05,-0.3118674,2.687694,3.010287
90,3.211105,521,258,508,507,-0.01215308,0.03403435,0.004702708,-1.583484,3.104341,0.03011822,0.002607623,-0.01582438,7.819571E-05,-0.3119994,2.687373,3.010549
90,3.222216,521,258,508,507,-0.01216163,0.03618661,0.005728937,-1.584131,3.104169,0.03030358,-0.001738049,-0.02007255,-0.007334928,-0.3123536,2.687823,3.010272
90,3.233327,521,258,508,507,-0.007905941,0.03938976,0.005708884,-1.584642,3.104243,0.03028813,-0.002766993,-0.01794127,-0.004127597,-0.3125235,2.687661,3.010499
90,3.244438,521,258,508,507,-0.005760126,0.03933472,-0.0006648538,-1.585051,3.104254,0.03027109,0.002667906,-0.01263244,0.005408569,-0.3124762,2.686686,3.011229
90,3.255549,575,238,516,500,-0.005754307,0.03719467,-0.001711025,-1.585388,3.104214,0.03031743,0.002667904,-0.01263244,0.005408571,-0.3126018,2.686422,3.011455
90,3.26666,575,238,516,500,0.0006218702,0.03085664,0.0004522618,-1.585904,3.103757,0.03047136,-0.0005295515,0.001225921,0.002258304,-0.3122492,2.686538,3.011511
90,3.277771,575,238,516,500,0.005936403,0.03409024,0.00363008,-1.586366,3.103896,0.03027109,0.005676357,-0.006237848,-0.01485238,-0.3125912,2.68838,3.009557
90,3.288882,575,238,516,500,0.00697932,0.03835157,0.004666234,-1.586752,3.104093,0.03037761,0.0003371406,-0.01581604,-0.01373262,-0.3130849,2.688278,3.009794
90,3.299993,491,202,519,503,0.005922658,0.03407856,0.003638607,-1.587028,3.104138,0.03037069,0.0005062073,-0.01902213,0.004374983,-0.3132756,2.686501,3.011504
90,3.311104,491,202,519,503,0.001687054,0.0318985,-0.001646622,-1.587363,3.10443,0.03029825,0.00154403,-0.02221917,0.002231305,-0.3135712,2.686509,3.01144
90,3.322215,491,202,519,503,0.002775688,0.02443513,-0.004761524,-1.587757,3.104491,0.03017148,0.00156852,-0.007304724,0.001173597,-0.3132975,2.686825,3.011113
90,3.333326,491,202,519,503,0.00280046,0.007410178,-0.002478224,-1.587389,3.104524,0.03014911,-0.0006447327,-0.005162971,-0.00733849,-0.313307,2.688364,3.009767
90,3.344437,491,202,519,503,0.008119063,0.0041557,-0.004579355,-1.586697,3.104264,0.03015497,-0.00281362,0.005498744,-0.01370487,-0.3130429,2.689622,3.008664
90,3.355548,504,232,494,496,0.008127899,-0.002226573,-0.003457351,-1.586511,3.104249,0.03007934,-0.0006414298,0.005491339,-0.009464746,-0.3129976,2.689701,3.008541
90,3.366659,504,232,494,496,0.009206465,-0.004336359,-0.002370424,-1.586565,3.104249,0.02978746,0.001569982,0.01293725,-0.003082255,-0.3126594,2.688863,3.009251
90,3.37777,504,232,494,496,0.005993247,0.002078319,0.0007615787,-1.586786,3.104352,0.02979971,0.003620809,0.001215772,-0.008436488,-0.3129891,2.689582,3.008464
90,3.388881,504,232,494,496,-0.000376584,0.008404192,-0.005695311,-1.587103,3.104199,0.02969744,0.003703505,-0.003048569,0.00113789,-0.3131009,2.689225,3.008811
90,3.399992,504,232,494,496,-0.00357903,0.01477111,-0.007889556,-1.587437,3.104063,0.02982314,0.005875965,-0.007318184,0.006440846,-0.3132602,2.688463,3.009397
90,3.411103,525,240,477,493,-0.0003948212,0.01693971,-0.005766655,-1.587841,3.104159,0.0297816,0.0154787,-0.004142258,0.007398863,-0.313176,2.68893,3.008554
90,3.422215,525,240,477,493,-0.001458626,0.01911605,-0.002589196,-1.588384,3.104272,0.02966122,0.01545286,-0.006271071,0.005267028,-0.3132953,2.688944,3.008382
90,3.433326,525,240,477,493,-0.0003905203,0.02121971,-0.00580195,-1.588673,3.104132,0.02963406,0.0090417,0.00226864,0.001083073,-0.3130876,2.689155,3.008241
90,3.444437,525,240,477,493,0.00177264,0.01691017,-0.01428187,-1.589071,3.103751,0.0294503,0.003843303,0.005463031,0.01392046,-0.3129704,2.687534,3.009933
90,3.455548,505,228,510,501,0.002849415,0.01263187,-0.01637199,-1.589095,3.103508,0.02939437,-0.003408741,0.01718842,0.03210899,-0.3123749,2.684917,3.012654
90,3.466659,505,228,510,501,-0.0003404799,0.005166907,-0.01736348,-1.589099,3.103492,0.02964205,0.002095398,0.0342133,0.04590955,-0.3114972,2.682802,3.014452
90,3.47777,505,228,510,501,-0.0003333442,-0.002270775,-0.01516391,-1.588891,3.103403,0.02966069,0.007384762,0.03633264,0.04159699,-0.3110375,2.681859,3.015111
90,3.488881,505,228,510,501,-0.0003438154,-0.0117651,-0.003349965,-1.588358,3.103815,0.0297523,0.01024324,0.0161048,0.01172713,-0.3114055,2.68377,3.0131
90,3.499992,505,228,510,501,-0.001401158,-0.02131737,0.0009958153,-1.587845,3.103946,0.02979438,0.01007017,0.0001332471,-0.002129758,-0.3118615,2.684831,3.011996
90,3.511103,498,221,488,496,-0.00348587,-0.02565084,-0.005339873,-1.587265,3.103992,0.02952167,0.002542233,-0.01689121,-0.005250912,-0.3124905,2.684408,3.012582
90,3.522214,498,221,488,496,-0.005617289,-0.02993342,-0.007423221,-1.586863,3.104024,0.02981036,0.000481369,-0.009432191,0.0001002261,-0.3123361,2.683867,3.013148
90,3.533325,498,221,488,496,-0.00667553,-0.02785258,-0.01277074,-1.586636,3.103733,0.02991316,-0.0004479568,0.007602681,0.01077525,-0.3117582,2.682479,3.014612
90,3.544436,498,221,488,496,-0.005648239,-0.0150051,-0.01079091,-1.587462,3.103176,0.03012088,0.01345505,0.02034957,0.01276708,-0.3112245,2.682586,3.013937
90,3.555547,564,200,500,503,-0.005686381,-0.001089844,-0.00345857,-1.587849,3.103367,0.03019279,0.01335706,0.009700865,0.00530456,-0.3113949,2.682944,3.013458
90,3.566658,564,200,500,503,-0.001470763,0.02128975,-0.0004640985,-1.588269,3.103357,0.03010384,0.01010193,-0.005205233,0.003204186,-0.3119009,2.682564,3.013907
90,3.577769,564,200,500,503,-0.00361171,0.03304209,-0.0005776368,-1.58943,3.10331,0.03007508,0.01332683,-0.01054161,0.007431,-0.3121369,2.681759,3.014429
90,3.58888,564,200,500,503,-0.005752459,0.047885,-0.008172684,-1.590379,3.103034,0.03017894,0.006897,-0.01584557,0.005350305,-0.3123611,2.682173,3.014193
90,3.599991,564,200,500,503,-0.005750678,0.04681975,-0.008163107,-1.590884,3.102959,0.03023274,0.001705848,-0.003055776,0.01606132,-0.3119467,2.680756,3.01568
90,3.611102,539,211,459,496,-0.001470897,0.03405207,-0.006973994,-1.590879,3.102942,0.03015657,0.002658654,0.00334676,0.003270921,-0.3116894,2.681909,3.014575
90,3.622213,539,211,459,496,0.004942941,0.01815791,0.002775291,-1.590512,3.103267,0.02973792,-0.0005775715,0.0001430502,-0.0009520337,-0.31205,2.681789,3.01465
90,3.633324,539,211,459,496,0.006028126,0.0074976,0.001807949,-1.59031,3.103268,0.02965004,-0.001657841,-0.006246217,-0.0009450978,-0.3122636,2.681692,3.014774
90,3.644435,539,211,459,496,0.007106958,0.001139294,-0.0002651793,-1.590918,3.103186,0.02957121,0.000402065,-0.01903081,-0.005246239,-0.312784,2.682483,3.013938
90,3.655546,539,211,459,496,0.003921509,0.01066145,-0.003543601,-1.590856,3.103206,0.0293214,-0.007093812,-0.0179456,-0.009433688,-0.3129875,2.683087,3.013624
90,3.666657,482,240,500,493,0.00604285,0.01493565,-0.002512478,-1.59111,3.103199,0.02923565,-0.009146851,-0.001970074,-0.006197797,-0.3126487,2.682623,3.014102
90,3.677768,482,240,500,493,0.002827479,0.02348346,0.00166279,-1.59149,3.103312,0.02925376,-0.005905224,0.008674156,-0.004092768,-0.312261,2.682705,3.013999
90,3.688879,482,240,500,493,0.001737196,0.03209213,0.01117847,-1.592099,3.103833,0.02918185,-0.008100531,0.008680409,-0.01048367,-0.312295,2.684697,3.012257
90,3.69999,482,240,500,493,0.007044926,0.0395866,0.01431756,-1.592749,3.104088,0.02896614,-0.001665251,-0.003058312,-0.003096266,-0.3126562,2.684035,3.01276
90,3.711101,481,206,486,498,0.005997784,0.04163217,0.008924042,-1.59278,3.103396,0.02876374,-0.003875626,-0.01583302,-0.008418992,-0.3131909,2.685027,3.011874
90,3.722212,481,206,486,498,0.003886223,0.03525519,0.007910942,-1.593375,3.103436,0.02870462,-0.004972874,-0.016899,-0.01054514,-0.3134679,2.685776,3.011382
90,3.733323,481,206,486,498,0.006052088,0.02240921,0.002683923,-1.593006,3.103014,0.02851819,-0.01015479,0.0001521464,0.0001687226,-0.3129747,2.684912,3.012474
90,3.744434,481,206,486,498,0.009267798,0.003266138,0.006027278,-1.592518,3.102731,0.02840474,-0.009134643,0.01293233,-0.007291848,-0.3125704,2.686048,3.011491
90,3.755545,481,206,486,498,0.008219732,-0.01266282,0.01255867,-1.591918,3.102998,0.02831686,-0.003886371,0.01079348,-0.01480183,-0.3125491,2.687179,3.010324
90,3.766656,444,206,470,498,0.01141071,-0.01796059,0.01364704,-1.591811,3.102724,0.02826573,-0.003910136,0.004401369,-0.01481025,-0.3127622,2.687746,3.009958
90,3.777767,444,206,470,498,0.01034704,-0.01903015,0.0136564,-1.591551,3.102892,0.02819329,-0.001780962,-0.009454276,-0.01164292,-0.3132943,2.687584,3.010078
90,3.788878,444,206,470,498,0.009241932,-0.01158631,0.01039251,-1.591831,3.102938,0.02859915,-0.003946122,-0.02010608,-0.01268716,-0.3138461,2.687614,3.010167
90,3.799989,444,206,470,498,0.01242839,-0.00836605,0.01250041,-1.591815,3.103137,0.0283829,-0.008222219,-0.01263755,-0.01583866,-0.3137859,2.688527,3.009513
90,3.8111,405,205,495,496,0.0134493,0.01396235,0.01126597,-1.592082,3.103637,0.0283861,-0.01237304,0.007609405,-0.009394445,-0.3131579,2.688611,3.00968
90,3.822211,405,205,495,496,0.01876044,0.02672052,0.01117687,-1.592196,3.103986,0.02797011,-0.0123049,0.0107975,-0.00192594,-0.3130098,2.687577,3.010978
90,3.833322,405,205,495,496,0.01980098,0.04058017,0.01211934,-1.593031,3.104166,0.02773842,-0.01225783,0.008663872,0.00339912,-0.312948,2.686926,3.011727
90,3.844433,405,205,495,496,0.01872342,0.03842622,0.007831797,-1.593609,3.103546,0.02790247,-0.01655605,-0.001979638,0.002374406,-0.3133012,2.686674,3.012306
90,3.855544,405,205,495,496,0.01874717,0.02774354,0.004733215,-1.593626,3.103543,0.02770327,-0.01868993,-0.007302845,0.003457376,-0.3135579,2.686395,3.012838
90,3.866655,399,195,501,498,0.02619874,0.02135027,0.003738283,-1.593654,3.103563,0.02748329,-0.01229101,-0.001991892,0.003406944,-0.3134141,2.685863,3.013386
90,3.877766,399,195,501,498,0.03152221,0.01925654,0.006965102,-1.593828,3.103755,0.02699327,-0.01012291,0.009721191,0.004458007,-0.3129875,2.685798,3.013495
90,3.888877,399,195,501,498,0.03900348,0.009663012,0.004951596,-1.593704,3.103965,0.026336,0.000413816,0.007575458,-0.006296324,-0.3129086,2.686722,3.012429
90,3.899988,399,195,501,498,0.04540619,-0.002067374,0.006135806,-1.592966,3.104059,0.02577993,-0.0006958118,0.001196619,-0.00947994,-0.3129811,2.687025,3.012174
90,3.911099,464,186,483,503,0.05182417,-0.01698005,0.00521748,-1.592388,3.104066,0.02505449,0.008868435,-0.00415174,-0.01064186,-0.3131904,2.68745,3.011425
90,3.92221,464,186,483,503,0.06144714,-0.02657117,0.002157204,-1.591984,3.104415,0.0239578,0.01215006,-0.009491796,-0.00108866,-0.3133843,2.686525,3.01202
90,3.933321,464,186,483,503,0.07423481,-0.02656937,5.13501E-05,-1.59166,3.104367,0.0227876,0.02074119,0.00220402,0.003095449,-0.3130104,2.686154,3.011908
90,3.944432,464,186,483,503,0.08382069,-0.02231958,-0.004209368,-1.591727,3.104518,0.02169198,0.02498083,0.02350827,-0.004392101,-0.3121597,2.687307,3.010406
90,3.955544,464,186,483,503,0.09127259,-0.01276262,-0.008542313,-1.591789,3.104329,0.02046693,0.0228108,0.02884278,-0.009694578,-0.3117337,2.688309,3.009256
90,3.966655,431,172,482,497,0.09872331,2.418319E-05,-0.01073761,-1.59222,3.104672,0.01904373,0.02459833,0.03098503,-0.04486697,-0.3115717,2.69305,3.004511
90,3.977766,431,172,482,497,0.1061611,0.00752273,-0.007593878,-1.592481,3.104698,0.01769404,0.02760617,0.02887412,-0.06301627,-0.3112506,2.697232,3.000232
90,3.988877,431,172,482,497,0.1221138,0.02355629,-0.006676474,-1.593414,3.104165,0.01591292,0.02951954,0.01183477,-0.08115567,-0.3117986,2.701754,2.995538
90,3.999988,431,172,482,497,0.130623,0.03845551,-0.007850024,-1.593923,3.104209,0.01417814,0.03802352,0.004365917,-0.0823147,-0.3119456,2.704896,2.991777
90,4.011099,431,172,482,497,0.1348564,0.05445084,-0.006921117,-1.594944,3.104161,0.01258077,0.04329476,0.007552959,-0.0887565,-0.3119739,2.708728,2.9875
89,4.02221,461,186,542,494,0.1369879,0.06292511,-0.01657915,-1.596014,3.103559,0.0110127,0.0422414,0.001162928,-0.08555673,-0.3122258,2.711512,2.984476
88,4.033321,461,186,542,494,0.1402012,0.05967648,-0.02189092,-1.596731,3.103121,0.009396697,0.04753596,0.005414054,-0.08986746,-0.3122317,2.715173,2.980319
87,4.044433,461,186,542,494,0.1497948,0.05226419,-0.01860949,-1.597108,3.103003,0.007483483,0.04847977,0.005423255,-0.1026557,-0.3123052,2.719756,2.975344
86,4.055544,461,186,542,494,0.1604854,0.03949715,-0.02058691,-1.597431,3.102965,0.005248558,0.05475581,0.005415037,-0.1144357,-0.3124996,2.724853,2.969728
85,4.066655,532,178,493,500,0.1668648,0.02350368,-0.01722725,-1.596537,3.102981,0.003714577,0.0579386,0.009679563,-0.1155299,-0.3123505,2.729147,2.965093
84,4.077766,532,178,493,500,0.1818207,0.006435515,-0.02130735,-1.595999,3.102608,0.001198423,0.0655126,0.01498477,-0.1049478,-0.3121704,2.732152,2.961287
83,4.088878,532,178,493,500,0.1903479,-0.02119249,-0.009331724,-1.594308,3.102692,-0.0008815063,0.07512616,0.02350038,-0.1039672,-0.3116953,2.735948,2.956589
82,4.099989,532,178,493,500,0.1914547,-0.02455018,-0.02634571,-1.593864,3.101928,-0.00308181,0.0783754,0.02455103,-0.09867575,-0.3116932,2.739318,2.952487
81,4.1111,532,178,493,500,0.2042897,-0.03736567,-0.03469999,-1.593444,3.101617,-0.005935121,0.09441526,0.03729536,-0.09562916,-0.3111201,2.742816,2.947706
80,4.122211,428,178,496,500,0.2181639,-0.05332221,-0.03452899,-1.592451,3.101238,-0.008730374,0.1027846,0.0308898,-0.1095652,-0.3113278,2.748114,2.941327
79,4.133323,428,178,496,500,0.2245669,-0.0586339,-0.03450341,-1.59176,3.100419,-0.01139993,0.1098386,0.02343798,-0.1490563,-0.3118295,2.756954,2.931526
78,4.144434,428,178,496,500,0.2469519,-0.0703501,-0.03435668,-1.590248,3.100027,-0.01467455,0.1202819,0.02554919,-0.1715368,-0.3121172,2.765314,2.921932
77,4.155545,428,178,496,500,0.2607991,-0.06926271,-0.03434013,-1.589498,3.099656,-0.01795503,0.1395386,0.03828439,-0.1663915,-0.3117262,2.771192,2.914274
76,4.166656,466,193,501,495,0.2873625,-0.05215813,-0.02805992,-1.58891,3.099426,-0.02138891,0.158749,0.05102074,-0.1665687,-0.3112692,2.777459,2.906006
75,4.177768,466,193,501,495,0.3022499,-0.04249103,-0.02172714,-1.588665,3.099362,-0.0251232,0.1533385,0.03292415,-0.1707883,-0.3119052,2.783786,2.898437
74,4.188879,466,193,501,495,0.3267294,-0.0382225,-0.02279175,-1.588019,3.09898,-0.02916428,0.1653552,0.01903066,-0.1378794,-0.3122556,2.785698,2.894396
73,4.19999,466,193,501,495,0.351282,-0.07759084,-0.01919635,-1.585839,3.098789,-0.03354145,0.1665719,0.01369259,-0.1219139,-0.3124229,2.788833,2.88943
72,4.211102,466,193,501,495,0.3865554,-0.1827731,0.006326671,-1.58117,3.099626,-0.03868934,0.1486359,0.08724041,-0.1216964,-0.3100713,2.795262,2.882096
71,4.222213,477,212,498,504,0.43352,-0.2750483,0.0466479,-1.575439,3.101093,-0.04497387,0.1678048,0.2310279,-0.1569565,-0.3049032,2.809067,2.866653
70,4.233324,477,212,498,504,0.5731844,-0.4445244,0.1304808,-1.566053,3.1053,-0.05507896,0.2101445,0.2799543,-0.1967598,-0.3015769,2.823489,2.849465
69,4.244435,477,212,498,504,0.8898748,-0.6982414,0.1770202,-1.552059,3.108797,-0.07296742,0.2820157,0.2148919,-0.3477088,-0.3035013,2.84867,2.820525
68,4.255547,477,212,498,504,1.266559,-1.045359,0.1329385,-1.532035,3.110671,-0.09653746,0.329846,0.04656741,-0.5368404,-0.3108575,2.87827,2.787589
67,4.266658,452,225,517,499,1.483341,-1.318345,0.0708548,-1.510132,3.112149,-0.1184649,0.3695274,-0.01525658,-0.6033097,-0.3152299,2.901286,2.760734
66,4.277769,452,225,517,499,1.77955,-1.898441,-0.0405117,-1.473661,3.113394,-0.1464478,0.3940363,0.03369308,-0.6141756,-0.3161193,2.92417,2.733904
65,4.28888,452,225,517,499,1.86097,-2.125674,-0.08627498,-1.445139,3.115563,-0.1687496,0.3662382,0.1552581,-0.6500703,-0.31422,2.955372,2.7012
64,4.299992,452,225,517,499,1.931604,-2.28784,-0.1240892,-1.415263,3.11847,-0.1925657,0.4042693,0.2053194,-0.8027698,-0.3169556,2.997446,2.655809
63,4.311103,452,225,517,499,2.085152,-2.411052,-0.1056173,-1.386548,3.123909,-0.2202141,0.5654958,0.1858679,-0.9790777,-0.3231805,3.042695,2.602515
62,4.322214,436,226,502,502,2.145651,-2.340137,-0.04444414,-1.363366,3.130598,-0.246825,0.7290107,0.1984148,-1.14046,-0.3293702,3.089876,2.546159
61,4.333325,436,226,502,502,2.249102,-1.881794,0.08263195,-1.355217,3.137669,-0.2759248,1.117597,0.2988703,-1.408419,-0.3382284,-3.127717,2.461558
60,4.344437,436,226,502,502,2.284613,-1.565408,0.1958955,-1.346901,-3.137861,-0.3034129,1.224905,0.2613007,-1.620505,-0.3518968,-3.076399,2.399873
59,4.355548,436,226,502,502,2.317538,-1.045831,0.3915408,-1.351677,-3.128387,-0.3319167,1.239948,-0.06141353,-1.859441,-0.3768064,-3.040257,2.35277
58,4.366659,436,226,502,502,2.347975,-0.7496244,0.3910483,-1.353026,-3.123786,-0.3597142,1.220196,-0.3627992,-1.956352,-0.4025927,-3.018477,2.319927
57,4.37777,487,312,489,489,2.448616,-0.3830115,0.3889844,-1.360629,-3.121581,-0.390315,1.175117,-0.8153033,-2.105294,-0.4370599,-3.010898,2.301492
56,4.388882,487,312,489,489,2.529215,-0.1551746,0.3913938,-1.362435,-3.118675,-0.42127,1.195718,-1.042218,-2.121645,-0.4666401,-3.004266,2.282034
55,4.399993,487,312,489,489,2.549312,-0.026478,0.3743448,-1.365839,-3.115912,-0.4506399,1.339887,-1.005078,-2.201947,-0.4921777,-2.982957,2.244129
54,4.411104,487,312,489,489,2.580371,-0.100224,0.3431084,-1.36464,-3.11191,-0.4809403,1.389621,-0.8805139,-2.264158,-0.5175209,-2.960254,2.207226
53,4.422215,447,270,499,497,2.643424,-0.2240104,0.3232758,-1.360436,-3.105394,-0.5131613,1.35197,-0.7706457,-2.210543,-0.5394249,-2.942665,2.178529
52,4.433327,447,270,499,497,2.814142,-0.3763825,0.2940977,-1.354475,-3.099003,-0.5504189,1.236445,-0.6415684,-2.071886,-0.5573629,-2.927456,2.154767
51,4.444438,447,270,499,497,2.86106,-0.3841327,0.269893,-1.352154,-3.094066,-0.584207,1.097678,-0.5750418,-1.910674,-0.5738388,-2.917125,2.13655
50,4.455549,447,270,499,497,2.837615,-0.3417774,0.2449587,-1.351141,-3.090733,-0.6159024,1.003705,-0.4298638,-1.767881,-0.5874183,-2.903367,2.115378
49,4.46666,447,270,499,497,2.759806,-0.2875777,0.2432983,-1.351289,-3.087087,-0.6453516,0.9840187,-0.257212,-1.746265,-0.6028518,-2.88341,2.088186
48,4.477772,353,238,501,502,2.655415,-0.279318,0.234474,-1.350395,-3.083453,-0.672739,1.002955,-0.03460205,-1.712174,-0.6159343,-2.859313,2.056554
47,4.488883,353,238,501,502,2.66603,-0.3470796,0.2172837,-1.345957,-3.079934,-0.7015597,1.07423,0.1814034,-1.549735,-0.6244729,-2.83829,2.025557
46,4.499994,353,238,501,502,2.67577,-0.4354589,0.2333251,-1.341326,-3.074433,-0.7337557,1.06663,0.1867446,-1.561404,-0.6400343,-2.822651,2.001584
45,4.511106,353,238,501,502,2.656698,-0.5080099,0.2232569,-1.337266,-3.067523,-0.7643459,1.050056,0.107983,-1.603919,-0.657616,-2.811035,1.981138
44,4.522217,241,446,501,496,2.653681,-0.5281638,0.2146358,-1.334052,-3.062118,-0.7964215,1.016805,0.04841542,-1.611102,-0.6745989,-2.801112,1.963071
43,4.533328,241,446,501,496,2.666415,-0.4929668,0.217551,-1.332764,-3.056987,-0.8275496,0.9971877,-0.07945156,-1.519394,-0.68969,-2.798945,1.951056
42,4.544439,241,446,501,496,2.673804,-0.4256926,0.2308614,-1.333235,-3.052752,-0.8589398,1.028042,-0.1307719,-1.404673,-0.7021621,-2.796034,1.936484
41,4.555551,241,446,501,496,2.495787,-0.3745247,0.2610447,-1.334308,-3.04815,-0.8832986,1.11694,-0.1396142,-1.24682,-0.7114262,-2.794069,1.920001
40,4.566662,241,446,501,496,2.376294,-0.3697704,0.2550878,-1.333949,-3.041343,-0.9065645,1.188181,-0.120743,-1.204579,-0.7240112,-2.78976,1.899539
39,4.577773,182,431,504,507,2.297518,-0.409338,0.2478341,-1.332452,-3.035287,-0.9310667,1.230732,-0.04413772,-1.225201,-0.7371534,-2.780681,1.877856
38,4.588884,182,431,504,507,2.337888,-0.3859807,0.2500971,-1.332856,-3.029987,-0.9595167,1.196545,0.04743767,-1.231558,-0.7512767,-2.769595,1.857733
37,4.599996,182,431,504,507,2.378242,-0.3217458,0.2815766,-1.335323,-3.026083,-0.9880311,1.02075,0.2054821,-1.249048,-0.7634702,-2.754215,1.840683
36,4.611107,182,431,504,507,2.44102,-0.2647523,0.3162567,-1.338964,-3.022985,-1.018014,0.9514602,0.1885905,-1.249435,-0.7764643,-2.746623,1.826536
35,4.622218,481,455,505,493,2.384542,-0.1849627,0.3026824,-1.341634,-3.02159,-1.043796,0.9221658,0.07666713,-1.159796,-0.7874504,-2.746723,1.817607
34,4.633329,481,455,505,493,2.126651,-0.09688791,0.2961252,-1.345014,-3.021135,-1.060294,0.978828,-0.03860092,-1.008089,-0.7952497,-2.749427,1.807266
33,4.644441,481,455,505,493,2.069083,-0.01176129,0.2814506,-1.348658,-3.021519,-1.082177,1.016676,-0.06000841,-0.9413909,-0.803897,-2.74778,1.794122
32,4.655552,481,455,505,493,2.104156,0.0776509,0.2679555,-1.352506,-3.023145,-1.106165,0.986096,-0.0716747,-0.907,-0.8130769,-2.746339,1.783017
31,4.666663,481,455,505,493,2.116872,0.135451,0.2771104,-1.357187,-3.024358,-1.130558,0.948685,-0.05034077,-0.9098033,-0.8222904,-2.743709,1.773163
30,4.677774,542,355,506,496,2.079487,0.2015333,0.2860553,-1.362116,-3.026641,-1.152355,0.885865,0.02545524,-0.9250746,-0.8320983,-2.737653,1.760569
29,4.688886,542,355,506,496,2.014445,0.2304863,0.2941767,-1.366954,-3.028548,-1.172285,0.8431602,0.0734151,-0.9342068,-0.8415541,-2.732567,1.750064
28,4.699997,542,355,506,496,1.883384,0.2644782,0.2850744,-1.371364,-3.031399,-1.189195,0.7953904,0.07565129,-0.919854,-0.8509908,-2.729079,1.740155
27,4.711108,542,355,506,496,1.846111,0.2654262,0.2775414,-1.375132,-3.033161,-1.208344,0.7917631,0.06285572,-0.8569409,-0.8583736,-2.727345,1.73015
26,4.722219,542,355,506,496,1.817415,0.241917,0.2605853,-1.378226,-3.034656,-1.227886,0.8244417,0.02225035,-0.7773493,-0.8645159,-2.727388,1.720237
25,4.733331,457,260,501,500,1.796273,0.1564607,0.2378576,-1.379911,-3.033608,-1.247499,0.8511467,-0.06304371,-0.7520939,-0.8725336,-2.729805,1.711694
24,4.744442,457,260,501,500,1.785661,0.1393529,0.2358951,-1.382763,-3.033801,-1.267309,0.8574891,-0.1450965,-0.7394254,-0.8810898,-2.733027,1.704108
23,4.755553,457,260,501,500,1.721861,0.05934848,0.234348,-1.384698,-3.031412,-1.285173,0.8425043,-0.1983314,-0.7350396,-0.889572,-2.736358,1.697279
22,4.766665,457,260,501,500,1.697412,0.03376859,0.2281716,-1.387236,-3.030819,-1.303602,0.8114516,-0.2738862,-0.7326659,-0.8984126,-2.741162,1.692353
21,4.777776,526,253,494,498,1.729432,-0.002440221,0.2242848,-1.389242,-3.029181,-1.323964,0.7655061,-0.3387644,-0.7343518,-0.9072015,-2.746751,1.688363
20,4.788887,526,253,494,498,1.743326,-0.02480397,0.2159937,-1.391352,-3.028118,-1.343999,0.7195369,-0.3685238,-0.7424397,-0.9163937,-2.751629,1.68468
19,4.799998,526,253,494,498,1.673101,-0.06116519,0.2066338,-1.393183,-3.026147,-1.361145,0.6622522,-0.3555756,-0.7216392,-0.9242011,-2.754552,1.680471
18,4.81111,526,253,494,498,1.659369,-0.1526954,0.2191277,-1.395028,-3.021359,-1.380164,0.6204122,-0.3075814,-0.6551392,-0.9298816,-2.756459,1.675782
17,4.822221,526,253,494,498,1.661583,-0.1677555,0.2001033,-1.396463,-3.019151,-1.399542,0.59277,-0.2904407,-0.6537953,-0.9374465,-2.75883,1.671113
16,4.833332,555,233,458,496,1.656352,-0.2018021,0.1876035,-1.397715,-3.015633,-1.418395,0.5802919,-0.2584679,-0.6302139,-0.9440081,-2.760615,1.66603
15,4.844443,555,233,458,496,1.643535,-0.1901991,0.190675,-1.39973,-3.013778,-1.436803,0.5591569,-0.2381767,-0.6151186,-0.9510266,-2.762388,1.661381
14,4.855555,555,233,458,496,1.591225,-0.1262968,0.1974766,-1.402165,-3.013765,-1.452992,0.5636892,-0.2222196,-0.5917173,-0.9570991,-2.764266,1.656107
13,4.866666,555,233,458,496,1.563469,-0.08994114,0.2119825,-1.404967,-3.013681,-1.469941,0.574858,-0.2329107,-0.5396333,-0.9619333,-2.767288,1.651028
12,4.877777,394,187,506,499,1.546222,-0.0001791026,0.2463206,-1.408978,-3.015799,-1.486277,0.5525966,-0.29893,-0.5149376,-0.9674758,-2.773012,1.648857
11,4.888888,394,187,506,499,1.548149,0.1034378,0.2741829,-1.413153,-3.019539,-1.50327,0.5470595,-0.3425893,-0.5266258,-0.9740341,-2.778437,1.645971
10,4.9,394,187,506,499,1.531994,0.2068085,0.2807038,-1.416824,-3.024597,-1.518896,0.5639443,-0.3564915,-0.5374785,-0.980774,-2.782985,1.641893
9,4.911111,394,187,506,499,1.458207,0.3486734,0.3198463,-1.421903,-3.031598,-1.532268,0.5719955,-0.336298,-0.4832157,-0.985033,-2.78665,1.637338
8,4.922222,394,187,506,499,1.410206,0.3934051,0.3278471,-1.425673,-3.03677,-1.546228,0.5681077,-0.3160505,-0.4512055,-0.9893707,-2.789703,1.632778
7,4.933333,472,236,496,498,1.352581,0.4593525,0.3260994,-1.429447,-3.043756,-1.558583,0.5595376,-0.3619,-0.3414132,-0.9906991,-2.795847,1.630158
6,4.944445,472,236,496,498,1.31851,0.4709234,0.3152694,-1.432581,-3.049012,-1.572083,0.5243844,-0.373594,-0.2366564,-0.9911055,-2.801362,1.627873
5,4.955556,472,236,496,498,1.302606,0.4377547,0.3016818,-1.435502,-3.053139,-1.585502,0.5022685,-0.3810197,-0.209803,-0.9929457,-2.806535,1.625738
4,4.966667,472,236,496,498,1.293017,0.4199916,0.2715216,-1.43817,-3.057867,-1.599394,0.5301087,-0.3725654,-0.1974022,-0.996181,-2.810918,1.621304
3,4.977778,472,236,496,498,1.28361,0.3988869,0.2455162,-1.43958,-3.061541,-1.612983,0.5469251,-0.3501775,-0.2273758,-0.9996042,-2.81448,1.616462
2,4.98889,324,232,507,505,1.250618,0.4146141,0.2218851,-1.441213,-3.066824,-1.625629,0.5356257,-0.3490492,-0.2911814,-1.004668,-2.818677,1.613034
1,5.000001,324,232,507,505,1.138732,0.4473949,0.216042,-1.44302,-3.072779,-1.634589,0.5386491,-0.3756546,-0.3050554,-1.008314,-2.824242,1.609901
-2.421439E-08,5.011112,324,232,507,505,1.068347,0.4889473,0.226204,-1.445467,-3.079646,-1.643911,0.56669,-0.4023688,-0.2659384,-1.010395,-2.830344,1.606054
-2.421439E-08,5.022223,324,232,507,505,1.042735,0.5240733,0.2290528,-1.44761,-3.086449,-1.654475,0.5639657,-0.4300898,-0.214695,-1.010844,-2.836835,1.603459
-2.421439E-08,5.033335,301,217,496,503,1.016022,0.5635489,0.2403787,-1.449899,-3.094153,-1.664011,0.5507002,-0.4556648,-0.1517198,-1.011056,-2.843608,1.601325
-2.421439E-08,5.044446,301,217,496,503,0.9701635,0.6103565,0.2419945,-1.451734,-3.102347,-1.67299,0.5382088,-0.4652674,-0.118542,-1.01152,-2.850125,1.599367
-2.421439E-08,5.055557,301,217,496,503,0.9125849,0.6443644,0.2426598,-1.453596,-3.110683,-1.680655,0.5213375,-0.4545878,-0.1034508,-1.012388,-2.85567,1.597039
-2.421439E-08,5.066669,301,217,496,503,0.8741877,0.669884,0.2434429,-1.455278,-3.118942,-1.688528,0.5163729,-0.4364989,-0.07140967,-1.012334,-2.860989,1.594163
-2.421439E-08,5.07778,301,217,496,503,0.8273088,0.6910477,0.236767,-1.456678,-3.127529,-1.695402,0.50022,-0.3906552,-0.0968102,-1.014132,-2.864666,1.590913
-2.421439E-08,5.088891,241,350,492,486,0.7814952,0.7005706,0.2366035,-1.458349,-3.135713,-1.702201,0.4821873,-0.3469266,-0.09873075,-1.015486,-2.867709,1.587694
-2.421439E-08,5.100002,241,350,492,486,0.7304777,0.6820294,0.1972643,-1.458538,3.140308,-1.708508,0.4404239,-0.2913809,-0.1313725,-1.018218,-2.869216,1.584732
-2.421439E-08,5.111114,241,350,492,486,0.6911685,0.6201111,0.1892147,-1.459624,3.134665,-1.714562,0.422081,-0.2476457,-0.1631185,-1.020946,-2.870929,1.581461
-2.421439E-08,5.122225,241,350,492,486,0.6592798,0.5837805,0.1841589,-1.460822,3.128955,-1.720554,0.4082582,-0.2252054,-0.1640375,-1.022783,-2.872789,1.578336
-2.421439E-08,5.133336,240,340,495,502,0.590227,0.4791046,0.1647091,-1.461698,3.126139,-1.725068,0.402104,-0.2411897,-0.137352,-1.023652,-2.876353,1.575913
-2.421439E-08,5.144447,240,340,495,502,0.5753639,0.4534997,0.1638315,-1.46267,3.121354,-1.730813,0.3948044,-0.2603519,-0.1180883,-1.024211,-2.88035,1.573796
-2.421439E-08,5.155559,240,340,495,502,0.5105011,0.3777433,0.1611735,-1.463984,3.118897,-1.734515,0.3642229,-0.2667021,-0.08582243,-1.024229,-2.884053,1.572523
-2.421439E-08,5.16667,240,340,495,502,0.4615699,0.3445842,0.1560871,-1.465294,3.11567,-1.73834,0.3280063,-0.2634563,-0.08213543,-1.024026,-2.887597,1.57231
-2.421439E-08,5.177781,240,340,495,502,0.4307114,0.325357,0.155122,-1.466354,3.112146,-1.742096,0.300171,-0.2335648,-0.09885256,-1.025262,-2.889731,1.571099
-2.421439E-08,5.188892,202,367,497,519,0.3710823,0.3167,0.1508561,-1.467523,3.108631,-1.744406,0.2810656,-0.2100907,-0.09651715,-1.026309,-2.891725,1.569493
-2.421439E-08,5.200004,202,367,497,519,0.307197,0.2900448,0.1573702,-1.46904,3.105495,-1.746073,0.256866,-0.2068656,-0.06644163,-1.026162,-2.894469,1.56867
-2.421439E-08,5.211115,202,367,497,519,0.2433299,0.2569172,0.1564801,-1.470395,3.103211,-1.746911,0.1936245,-0.2131648,0.00237381,-1.024288,-2.897403,1.569671
-2.421439E-08,5.222226,202,367,497,519,0.201839,0.230167,0.1491801,-1.471467,3.100927,-1.74806,0.1701609,-0.215268,0.001537888,-1.024464,-2.90053,1.570005
-2.421439E-08,5.233337,149,490,498,498,0.1433376,0.1894519,0.1323855,-1.472294,3.099797,-1.747914,0.1540558,-0.2141626,-0.01108357,-1.024914,-2.903284,1.570142
-2.421439E-08,5.244449,149,490,498,498,0.09869894,0.1519206,0.1113282,-1.47286,3.098813,-1.748054,0.1508779,-0.209898,-0.01214281,-1.025473,-2.905917,1.569508
-2.421439E-08,5.25556,149,490,498,498,0.04976998,0.125062,0.09335749,-1.473235,3.097921,-1.747387,0.1371651,-0.2066812,0.000781399,-1.025133,-2.908519,1.56971
-2.421439E-08,5.266671,149,490,498,498,0.01784932,0.1121699,0.08703176,-1.473997,3.096912,-1.746793,0.1172617,-0.194935,0.03081512,-1.023987,-2.91068,1.569878
-2.421439E-08,5.277782,149,490,498,498,-0.03108535,0.09064099,0.06902246,-1.474187,3.096293,-1.74522,0.0769933,-0.1714176,0.04507532,-1.023263,-2.912156,1.570497
-2.421439E-08,5.288894,140,435,503,510,-0.09705336,0.05313037,0.05431886,-1.474468,3.096594,-1.742487,0.04074093,-0.1457728,0.03693229,-1.02302,-2.913277,1.57157
-2.421439E-08,5.300005,140,435,503,510,-0.1257402,0.02101889,0.0417585,-1.474668,3.097044,-1.7407,0.02895853,-0.1318977,0.02639664,-1.023172,-2.914698,1.571975
-2.421439E-08,5.311116,140,435,503,510,-0.1607902,-0.03349005,0.02725603,-1.474913,3.09881,-1.738175,0.02484987,-0.1361597,0.04241578,-1.022356,-2.916571,1.572793
-2.421439E-08,5.322227,140,435,503,510,-0.1820282,-0.0709001,0.01688768,-1.475116,3.100504,-1.735824,0.01233939,-0.1340146,0.06811325,-1.020887,-2.91829,1.573657
-2.421439E-08,5.333339,140,435,503,510,-0.2000032,-0.1424558,-0.0006338013,-1.475215,3.104131,-1.733441,-0.01512532,-0.1307766,0.09076399,-1.019309,-2.91993,1.57541
-2.421439E-08,5.34445,189,431,506,518,-0.2190504,-0.2076232,-0.01821307,-1.475242,3.108108,-1.730989,-0.03848352,-0.1168934,0.09633297,-1.018231,-2.921204,1.577158
-2.421439E-08,5.355561,189,431,506,518,-0.2253695,-0.2450089,-0.02855352,-1.47524,3.111961,-1.728684,-0.06096093,-0.07422554,0.07740787,-1.017862,-2.920816,1.578259
-2.421439E-08,5.366673,189,431,506,518,-0.2326802,-0.3208324,-0.05028025,-1.474941,3.117315,-1.72647,-0.08228686,-0.01452354,0.06274234,-1.017616,-2.919249,1.578687
-2.421439E-08,5.377784,189,431,506,518,-0.2315577,-0.3538825,-0.05318239,-1.475132,3.122033,-1.724506,-0.09166082,0.02808911,0.07564285,-1.016436,-2.917938,1.579245
-2.421439E-08,5.388895,240,429,507,504,-0.2304345,-0.3901274,-0.05606253,-1.47525,3.127464,-1.722471,-0.0967446,0.04726304,0.09594709,-1.014812,-2.916713,1.579815
-2.421439E-08,5.400006,240,429,507,504,-0.2272114,-0.4135371,-0.05371613,-1.475652,3.13257,-1.720511,-0.1040143,0.0483298,0.1141291,-1.013107,-2.916222,1.58084
-2.421439E-08,5.411118,240,429,507,504,-0.2229335,-0.4125579,-0.06437071,-1.47537,3.137274,-1.718617,-0.1084854,0.04515459,0.09393053,-1.012518,-2.915775,1.581937
-2.421439E-08,5.422229,240,429,507,504,-0.2133744,-0.4018989,-0.06551579,-1.475128,3.141484,-1.716765,-0.104322,0.04834943,0.08322552,-1.012069,-2.915023,1.582536
-2.421439E-08,5.43334,240,429,507,504,-0.2091569,-0.3625429,-0.07330673,-1.474515,-3.138611,-1.714854,-0.1033618,0.07072748,0.06831446,-1.011696,-2.913427,1.582805
-2.421439E-08,5.444451,290,412,509,501,-0.2049466,-0.3189094,-0.0790023,-1.473882,-3.136059,-1.712951,-0.1054128,0.09202786,0.07261378,-1.010633,-2.911719,1.583254
-2.421439E-08,5.455563,290,412,509,501,-0.2028891,-0.2666794,-0.07625896,-1.473282,-3.134201,-1.711074,-0.1106058,0.1101428,0.08226519,-1.009437,-2.909646,1.583521
-2.421439E-08,5.466674,290,412,509,501,-0.1848363,-0.2335754,-0.07012344,-1.472887,-3.132318,-1.709638,-0.1125944,0.117588,0.09508066,-1.007884,-2.908135,1.584043
-2.421439E-08,5.477785,290,412,509,501,-0.1742127,-0.2090871,-0.07245912,-1.472131,-3.13023,-1.708231,-0.1041411,0.1154441,0.08860218,-1.007074,-2.90672,1.584216
-2.421439E-08,5.488896,338,459,509,494,-0.1497713,-0.1738434,-0.066331,-1.471691,-3.129206,-1.707339,-0.08720812,0.08665782,0.08310193,-1.006115,-2.90638,1.584494
-2.421439E-08,5.500008,338,459,509,494,-0.1380783,-0.1514836,-0.06863225,-1.471033,-3.127803,-1.706273,-0.07668699,0.07384709,0.07233538,-1.00558,-2.906006,1.5849
-2.421439E-08,5.511119,338,459,509,494,-0.1146895,-0.1237077,-0.06350709,-1.470569,-3.12711,-1.705718,-0.06084136,0.06636477,0.06045261,-1.005245,-2.905401,1.584808
-2.421439E-08,5.52223,338,459,509,494,-0.1019421,-0.1107923,-0.05082385,-1.470329,-3.126147,-1.705003,-0.05130172,0.07912473,0.05505103,-1.004512,-2.904041,1.584721
-2.421439E-08,5.533341,338,459,509,494,-0.08068774,-0.09145859,-0.03604124,-1.470407,-3.125658,-1.704758,-0.04928194,0.1089589,0.03800309,-1.004489,-2.901703,1.583965
-2.421439E-08,5.544453,363,421,509,506,-0.06154924,-0.07960747,-0.02439747,-1.470471,-3.125105,-1.704627,-0.04509099,0.1270527,0.02734165,-1.004125,-2.899744,1.583326
-2.421439E-08,5.555564,363,421,509,506,-0.02642634,-0.06670121,-0.01592858,-1.470599,-3.12477,-1.705419,-0.04407654,0.1494285,0.01776074,-1.004058,-2.897062,1.582337
-2.421439E-08,5.566675,363,421,509,506,-0.003001977,-0.05386247,-0.01280268,-1.470588,-3.124431,-1.706191,-0.04098362,0.161147,0.004955743,-1.004261,-2.894604,1.581382
-2.421439E-08,5.577786,363,421,509,506,0.006564762,-0.04430026,-0.01818431,-1.47039,-3.124253,-1.706215,-0.03475249,0.1515437,-0.008956557,-1.004622,-2.893111,1.580858
-2.421439E-08,5.588898,367,410,509,521,0.006574798,-0.04646759,-0.02242692,-1.470118,-3.123642,-1.706345,-0.02520306,0.1397994,-0.006916245,-1.004461,-2.891747,1.580669
-2.421439E-08,5.600009,367,410,509,521,0.01934568,-0.04852119,-0.01600249,-1.470101,-3.12308,-1.706851,-0.009181924,0.1237711,0.0003918409,-1.003932,-2.890828,1.579826
-2.421439E-08,5.61112,367,410,509,521,0.03423796,-0.04415624,-0.006427561,-1.470345,-3.122735,-1.707656,-0.00600189,0.1152384,0.00355785,-1.00365,-2.889638,1.579616
-2.421439E-08,5.622231,367,410,509,521,0.04168666,-0.04409301,-2.781628E-05,-1.470533,-3.122239,-1.708384,-0.009224571,0.1237549,-0.001707144,-1.003504,-2.887946,1.578771
-2.421439E-08,5.633343,367,410,509,521,0.05233386,-0.04616256,0.005334174,-1.470815,-3.121698,-1.709327,-0.01585103,0.134437,-0.02720227,-1.004422,-2.885844,1.577993
-2.421439E-08,5.644454,358,469,507,504,0.05444633,-0.05041423,0.007500022,-1.470981,-3.12085,-1.709737,-0.01384443,0.1418964,-0.04105255,-1.005019,-2.88379,1.576999
-2.421439E-08,5.655565,358,469,507,504,0.05765875,-0.06107149,0.006531845,-1.471167,-3.119863,-1.710572,-0.006380849,0.1504041,-0.0421875,-1.005526,-2.88149,1.575631
-2.421439E-08,5.666677,358,469,507,504,0.06298665,-0.07373551,0.01835792,-1.471675,-3.118861,-1.711542,0.002196301,0.1461112,-0.03374043,-1.005385,-2.87988,1.574841
-2.421439E-08,5.677788,358,469,507,504,0.06831001,-0.07477096,0.02157183,-1.472114,-3.118041,-1.712513,0.00544513,0.1407741,-0.02738431,-1.005516,-2.878202,1.573802
-2.421439E-08,5.688899,358,469,507,504,0.06403966,-0.0768431,0.02904008,-1.47278,-3.117223,-1.713178,0.006423123,0.1183841,-0.02844979,-1.005541,-2.87771,1.573944
-2.421439E-08,5.70001,358,469,507,504,0.05766262,-0.08644075,0.0280572,-1.473342,-3.116176,-1.713758,0.008367537,0.08856508,-0.03914176,-1.006152,-2.877222,1.573532
-2.421439E-08,5.711122,358,469,507,504,0.05020538,-0.08010544,0.02266389,-1.473542,-3.115478,-1.714184,0.009283021,0.05447185,-0.04770145,-1.007139,-2.877884,1.5739
-2.421439E-08,5.722233,358,469,507,504,0.04593468,-0.07371576,0.02366239,-1.473866,-3.114812,-1.714685,0.01469572,0.0278109,-0.03282305,-1.006621,-2.878361,1.573979
-2.421439E-08,5.733344,358,469,507,504,0.04269524,-0.05550991,0.03521912,-1.47457,-3.114785,-1.715066,0.02229212,0.01287025,-0.01586323,-1.00634,-2.87869,1.573691
-2.421439E-08,5.744455,210,404,503,504,0.03838535,-0.02882739,0.04243268,-1.475101,-3.115119,-1.715369,0.02978226,0.009617233,-0.007368147,-1.005507,-2.879202,1.574046
-2.421439E-08,5.755567,210,404,503,504,0.04049489,-0.01707913,0.04553095,-1.475671,-3.115334,-1.715866,0.02553022,0.01919671,-0.008342003,-1.005062,-2.878875,1.573732
-2.421439E-08,5.766678,210,404,503,504,0.03089746,0.003112051,0.04001488,-1.475819,-3.116062,-1.716048,0.02223453,0.02770767,-0.01575182,-1.005298,-2.878632,1.574058
-2.421439E-08,5.777789,210,404,503,504,0.02663548,0.01370429,0.03351853,-1.475876,-3.116452,-1.716258,0.02214743,0.03728191,-0.02532584,-1.00575,-2.878166,1.573705
-2.421439E-08,5.7889,210,404,503,504,0.02022996,0.02751636,0.03019351,-1.476009,-3.117184,-1.716225,0.0253448,0.03301327,-0.02429541,-1.006011,-2.877846,1.573159
-2.421439E-08,5.800012,209,412,504,507,0.01169109,0.04345139,0.02577975,-1.476017,-3.118091,-1.716011,0.03602137,0.009527326,-0.01265767,-1.005213,-2.878822,1.57358
-2.421439E-08,5.811123,209,412,504,507,0.007409135,0.05624693,0.02779366,-1.47625,-3.119097,-1.715897,0.03707281,-0.01711018,-0.0084249,-1.005165,-2.879896,1.573709
-2.421439E-08,5.822234,209,412,504,507,0.00846049,0.0658675,0.03197475,-1.476594,-3.120046,-1.716032,0.04024362,-0.02779343,-0.008443044,-1.005007,-2.880922,1.573789
-2.421439E-08,5.833345,209,412,504,507,0.007401459,0.06371723,0.02986086,-1.476761,-3.120762,-1.716013,0.03491843,-0.0373713,-0.006265634,-1.005024,-2.881743,1.574001
-2.421439E-08,5.844457,208,406,503,499,-0.001106925,0.05304329,0.02886919,-1.476923,-3.121058,-1.715711,0.03173415,-0.04377775,-0.0008786685,-1.004437,-2.88281,1.574703
-2.421439E-08,5.855568,208,406,503,499,-0.004288651,0.0487322,0.02357448,-1.47697,-3.12151,-1.715534,0.03608131,-0.03845589,0.006562294,-1.003831,-2.882953,1.574255
-2.421439E-08,5.866679,208,406,503,499,-0.005335163,0.03807176,0.02366669,-1.477272,-3.121592,-1.715526,0.03623004,-0.03100897,0.02041162,-1.003313,-2.883129,1.574024
-2.421439E-08,5.87779,208,406,503,499,-0.004280863,0.03806828,0.02261153,-1.477548,-3.122143,-1.715284,0.03096974,-0.0246087,0.0247385,-1.002833,-2.883269,1.573758
-2.421439E-08,5.888902,208,406,503,499,-0.006414559,0.03913977,0.02366429,-1.477764,-3.122628,-1.715101,0.02132777,-0.0203228,0.01844569,-1.002786,-2.883397,1.573877
-2.421439E-08,5.900013,206,407,503,513,-0.01067436,0.04336777,0.02042819,-1.477854,-3.123245,-1.714845,0.01372321,-0.01604631,0.005752658,-1.002928,-2.883647,1.574464
-2.421439E-08,5.911124,206,407,503,513,-0.01705531,0.04647261,0.01080345,-1.47764,-3.123822,-1.714443,0.01580826,-0.02244037,0.002531369,-1.002995,-2.88413,1.574488
-2.421439E-08,5.922235,206,407,503,513,-0.01598882,0.05071045,0.007575026,-1.477586,-3.124522,-1.714267,0.01692592,-0.02777921,0.008873483,-1.003186,-2.884773,1.574605
-2.421439E-08,5.933347,206,407,503,513,-0.01599961,0.05499888,0.01073425,-1.477679,-3.125294,-1.714017,0.01704983,-0.03950781,0.023779,-1.002504,-2.885693,1.574911
-2.421439E-08,5.944458,207,426,504,508,-0.02026121,0.06032436,0.01174389,-1.477696,-3.126075,-1.713741,0.01385964,-0.05015484,0.02485587,-1.002394,-2.886698,1.575139
-2.421439E-08,5.955569,207,426,504,508,-0.02345688,0.06244225,0.01065405,-1.477675,-3.126826,-1.713331,0.01065315,-0.0554716,0.02488062,-1.002179,-2.88753,1.575549
-2.421439E-08,5.966681,207,426,504,508,-0.02664114,0.0528583,0.01073222,-1.477704,-3.127295,-1.712906,-0.002267906,-0.04798666,0.01009277,-1.002552,-2.888086,1.576267
-2.421439E-08,5.977792,207,426,504,508,-0.02663291,0.04536234,0.005474836,-1.47766,-3.127733,-1.712433,-0.00764416,-0.03198231,0.001625823,-1.002879,-2.887847,1.576355
-2.421439E-08,5.988903,207,426,504,508,-0.02447626,0.02724677,0.00456811,-1.477725,-3.127635,-1.712219,-0.01504243,-0.01493006,0.003832025,-1.002918,-2.887614,1.576573
-2.421439E-08,6.000014,205,423,503,498,-0.02446358,0.01445051,0.003616384,-1.477834,-3.127473,-1.711877,-0.01810152,-0.01065772,0.01662648,-1.002666,-2.887428,1.576727
-2.421439E-08,6.011126,205,423,503,498,-0.02230268,-0.00686087,0.002737075,-1.477942,-3.12683,-1.71175,-0.01594755,-0.009598387,0.01873644,-1.002387,-2.887522,1.576909
-2.421439E-08,6.022237,205,423,503,498,-0.02121806,-0.02177654,0.003929156,-1.478085,-3.126078,-1.711617,-0.01486586,-0.005339133,0.0197721,-1.002479,-2.887454,1.57702
