loc,t,aDotS,bDotS,gDotS,aS,bS,gS,xS,yS,zS,qE,qDotE,emgA,emgB,aDotSH,bDotSH,gDotSH,aSH,bSH,gSH,xSH,ySH,zSH,aDotUB,bDotUB,gDotUB,aUB,bUB,gUB,xUB,yUB,zUB,xHand,yHand,zHand,aHand,bHand,gHand,enable
5,0,0.2512616,-0.574726,0.3271054,4.611951,-4.677119,-2.53791,0.3298863,1.222569,0.502795,-0.9429614,-0.02580061,11.83024,14.50611,-0.39198,0.3044071,0.1117807,-0.5007542,-3.622374,-0.451707,0.3621351,1.428628,0.4671288,-0.2640041,0.4027697,0.09565944,-1.117088,0.5095138,-0.2155128,0.5287825,1.489378,0.3269138,0.02241034,1.123656,0.4079812,293.9725,292.7842,326.6382,True
5,0.01111111,0.242619,-0.5386599,0.2971245,4.61276,-4.671944,-2.539761,0.3291467,1.222581,0.501967,-0.9432735,-0.02820437,11.75066,14.39897,-0.353694,0.2768846,0.08698549,-0.5016591,-3.618195,-0.4527869,0.3614186,1.428716,0.4665496,-0.2607015,0.3995763,0.1062798,-1.11651,0.514564,-0.2149656,0.5286688,1.489391,0.3270397,0.02244042,1.122669,0.4031822,295.7987,295.5283,321.9627,True
5,0.02222222,0.2340494,-0.5217283,0.2800127,4.613671,-4.665915,-2.54158,0.328249,1.222308,0.5005767,-0.9437529,-0.04354466,11.75066,14.31326,-0.346202,0.2673191,0.08798551,-0.5018919,-3.612295,-0.4542844,0.3605431,1.428839,0.4659119,-0.2563272,0.3782675,0.1169009,-1.115527,0.5186647,-0.2141078,0.5285214,1.489356,0.3271222,0.02303642,1.12072,0.3963766,296.6831,294.0193,321.3146,True
5,0.03333334,0.221163,-0.4910029,0.2500551,4.614724,-4.661379,-2.543129,0.3275926,1.222307,0.499836,-0.9433252,0.03954794,11.80371,14.24898,-0.3438769,0.2608792,0.1156577,-0.501013,-3.605191,-0.4567244,0.3598303,1.42894,0.4653356,-0.2575067,0.3569529,0.1041272,-1.115578,0.5222738,-0.212822,0.5283915,1.489291,0.3271279,0.02398796,1.118314,0.3887156,297.4594,291.2552,321.7871,True
5,0.04444445,0.206175,-0.4656202,0.2265029,4.616042,-4.656374,-2.544659,0.3268591,1.221825,0.4977787,-0.9433886,-0.006134195,11.85676,14.24898,-0.3320874,0.263023,0.128367,-0.5007558,-3.597827,-0.4598571,0.3591375,1.429111,0.4648063,-0.2502463,0.3441678,0.08381603,-1.116036,0.5260442,-0.2119013,0.5283054,1.489297,0.3271837,0.02502123,1.115798,0.3812159,298.257,288.7868,322.1345,True
5,0.05555556,0.1879394,-0.4338135,0.2082629,4.616808,-4.652056,-2.545618,0.3263382,1.221847,0.4972794,-0.9430658,0.02964822,11.85676,14.24898,-0.3095736,0.2396284,0.1399147,-0.4997102,-3.592462,-0.4617996,0.3585551,1.429236,0.4642501,-0.2418026,0.3388438,0.07520278,-1.116331,0.5301197,-0.2113375,0.5282387,1.489292,0.3272746,0.02590993,1.113431,0.3745619,298.9581,286.7985,322.3741,True
5,0.06666667,0.1729071,-0.3988208,0.1814838,4.617704,-4.648747,-2.546711,0.3258266,1.221803,0.4965808,-0.9431531,-0.008134113,11.88329,14.31326,-0.2743697,0.2237672,0.1396623,-0.4992415,-3.587318,-0.4643472,0.3579966,1.429274,0.4637215,-0.2322106,0.3249983,0.07511043,-1.116182,0.5336869,-0.2106507,0.5281841,1.489285,0.3272905,0.02658569,1.11145,0.3693047,299.5001,285.3195,322.6042,True
5,0.07777778,0.160018,-0.3659856,0.1525958,4.618841,-4.645281,-2.547898,0.3251811,1.221256,0.4946661,-0.9426498,0.04620468,11.90981,14.46325,-0.2584539,0.2163876,0.1257071,-0.4993352,-3.582258,-0.466392,0.3574961,1.429253,0.4632933,-0.2418376,0.3090146,0.07093765,-1.116188,0.536984,-0.2090278,0.5281232,1.489313,0.3273306,0.02695271,1.109933,0.3655152,299.8051,284.4268,322.867,True
5,0.08888889,0.149246,-0.3309649,0.1290135,4.619707,-4.642795,-2.548976,0.3247182,1.221248,0.493933,-0.9427718,-0.01149688,11.93634,14.67752,-0.2511389,0.195159,0.09258387,-0.5001342,-3.580008,-0.4657741,0.3569684,1.429331,0.4629376,-0.2418079,0.2919773,0.07199505,-1.116083,0.5401509,-0.2078267,0.5280271,1.489332,0.3273611,0.02705265,1.109474,0.363997,299.5465,282.9921,324.3302,True
5,0.1,0.1406668,-0.3108244,0.1150963,4.620486,-4.639541,-2.550147,0.3242875,1.221087,0.4928517,-0.9430456,-0.02476861,11.85676,14.80608,-0.2427093,0.1930926,0.07654595,-0.5008117,-3.5757,-0.4670924,0.356382,1.429408,0.4624646,-0.2300134,0.2877201,0.080405,-1.115536,0.5438132,-0.2071548,0.5278996,1.489414,0.3273287,0.02679492,1.10941,0.3636484,299.5714,284.0114,323.593,True
5,0.1111111,0.1320655,-0.2874925,0.09688863,4.621444,-4.63729,-2.55113,0.3238616,1.22106,0.4921453,-0.9430014,0.004351349,11.75066,14.89179,-0.230111,0.1953167,0.04770928,-0.5022253,-3.572013,-0.4682364,0.355937,1.429353,0.4619353,-0.2192891,0.2866671,0.08668716,-1.115101,0.5476165,-0.2068368,0.527806,1.489466,0.3273549,0.02625398,1.109483,0.3638246,299.3516,284.9608,323.3739,True
5,0.1222222,0.1203049,-0.2716105,0.08832102,4.622163,-4.634215,-2.551971,0.3235138,1.220742,0.4912319,-0.9432677,-0.02433944,11.61804,14.89179,-0.2195027,0.1900447,0.03698776,-0.5029641,-3.568331,-0.4694583,0.3555704,1.42944,0.4614408,-0.2032841,0.2781448,0.0897309,-1.114534,0.5509102,-0.2064762,0.527807,1.489525,0.3272915,0.02573698,1.109619,0.3641968,299.0965,285.4498,323.5391,True
5,0.1333333,0.1042448,-0.2482608,0.08076534,4.622702,-4.632282,-2.552349,0.3231596,1.220655,0.4905536,-0.9431207,0.01374449,11.51194,14.84894,-0.2161437,0.1804133,0.05827106,-0.5021603,-3.563904,-0.4710493,0.3553098,1.429505,0.4608102,-0.2011918,0.252575,0.08545314,-1.114179,0.5532084,-0.2052309,0.5278571,1.489536,0.3271835,0.02535154,1.109713,0.3643853,298.867,285.8,323.7463,True
5,0.1444445,0.08925682,-0.222777,0.07854911,4.622828,-4.629947,-2.552808,0.3230216,1.220409,0.4895999,-0.9431361,-0.0014932,11.40584,14.78466,-0.2116835,0.1622739,0.08057958,-0.5012325,-3.560142,-0.4721481,0.3549811,1.429547,0.4603517,-0.2056238,0.2280677,0.06739137,-1.114352,0.555114,-0.2036727,0.5278111,1.489525,0.3270912,0.02511722,1.109684,0.3641883,298.7001,285.9762,323.9034,True
5,0.1555556,0.08276331,-0.1940621,0.0752442,4.622896,-4.628282,-2.553372,0.3227592,1.220336,0.48876,-0.942694,0.04052664,11.35279,14.7418,-0.1934494,0.1442009,0.0900273,-0.5004532,-3.55708,-0.4733995,0.3546683,1.429533,0.4598312,-0.2036111,0.2259383,0.05565475,-1.114618,0.5579557,-0.202719,0.5278263,1.48949,0.3270254,0.02504553,1.109458,0.3634486,298.5974,286.0233,323.9966,True
5,0.1666667,0.08056246,-0.1738424,0.0719647,4.622997,-4.626863,-2.554066,0.3225142,1.220239,0.4880672,-0.9429013,-0.01916466,11.29973,14.69895,-0.1616648,0.13797,0.05786072,-0.5013406,-3.555071,-0.4745649,0.3544075,1.429554,0.4594603,-0.1918848,0.2312691,0.0566027,-1.114543,0.5611002,-0.2023635,0.5278092,1.489503,0.3269246,0.02507776,1.109153,0.3623198,298.5211,285.7429,324.2998,True
5,0.1777778,0.07519621,-0.159007,0.06233739,4.623344,-4.625089,-2.554724,0.3222893,1.220348,0.487895,-0.9431116,-0.01898197,11.29973,14.65609,-0.159706,0.1369683,0.02908505,-0.5025811,-3.552846,-0.4748203,0.3541668,1.429564,0.4590125,-0.169528,0.2302096,0.05424504,-1.114513,0.5639235,-0.2025587,0.5277095,1.489568,0.3268209,0.0252329,1.10912,0.3613297,298.2344,284.8548,325.3762,True
5,0.1888889,0.06447432,-0.1388522,0.05053443,4.623687,-4.624304,-2.55502,0.3221514,1.220271,0.487206,-0.9433503,-0.02158023,11.29973,14.65609,-0.1620573,0.1508614,0.0003673965,-0.5043292,-3.549922,-0.475533,0.3539402,1.429617,0.4585922,-0.1503962,0.2174348,0.04872635,-1.114653,0.5661768,-0.2025688,0.5276968,1.489577,0.3266058,0.02525052,1.10911,0.3601469,298.2582,285.1753,324.9802,True
5,0.2,0.05911986,-0.1282756,0.03984651,4.62421,-4.623027,-2.555515,0.3219421,1.220222,0.4864674,-0.9434552,-0.009340421,11.24668,14.65609,-0.1556873,0.1455667,-0.005001795,-0.5050855,-3.547247,-0.4763018,0.3536616,1.429716,0.4580648,-0.1450169,0.2046528,0.05400363,-1.114227,0.5683494,-0.2020021,0.5276545,1.489619,0.3264666,0.02523785,1.10903,0.3586774,298.2931,285.3356,324.5148,True
5,0.2111111,0.04205051,-0.1209177,0.03022601,4.624784,-4.62211,-2.555326,0.3217841,1.220201,0.4857748,-0.9430967,0.03288051,11.19363,14.52753,-0.1490503,0.1274322,0.02154931,-0.504546,-3.544708,-0.4773285,0.353511,1.429735,0.4576423,-0.1417365,0.1758923,0.06142269,-1.113635,0.5696083,-0.2010846,0.5276558,1.489562,0.3262076,0.02525914,1.10901,0.3572744,298.217,284.9403,324.5483,True
5,0.2222222,0.02289337,-0.1199574,0.02384872,4.625278,-4.620605,-2.555117,0.3215581,1.220174,0.4851494,-0.9433886,-0.02689652,11.11406,14.20613,-0.137232,0.1221131,0.03531575,-0.5042951,-3.541803,-0.4786888,0.3532714,1.429761,0.457197,-0.1428698,0.1588455,0.05398033,-1.113532,0.5709772,-0.200078,0.5276479,1.4896,0.3259475,0.02526213,1.108981,0.3560112,298.1851,284.7641,324.4962,True
5,0.2333333,0.01122732,-0.1349651,0.01219659,4.62653,-4.61895,-2.554735,0.3214688,1.220473,0.4849102,-0.9428144,0.05285259,11.06101,13.73473,-0.1115452,0.09767853,0.03936183,-0.5039862,-3.541082,-0.4791237,0.3530819,1.429619,0.4567177,-0.1439868,0.1503197,0.04865963,-1.113537,0.5725846,-0.1991251,0.527666,1.489653,0.3257205,0.02528717,1.108951,0.3549864,298.1163,284.5077,324.7061,True
5,0.2444444,-0.001506989,-0.1488761,0.007990949,4.627738,-4.617229,-2.554159,0.3211928,1.220598,0.484273,-0.9429023,-0.008433549,11.06101,13.09192,-0.099909,0.1105129,0.03292209,-0.5045865,-3.537964,-0.4811344,0.3529025,1.429728,0.4563072,-0.1345713,0.1279476,0.03046059,-1.113925,0.5732619,-0.1982484,0.5276532,1.489685,0.3254261,0.02530155,1.108969,0.3542846,298.0468,284.169,325.1111,True
5,0.2555556,-0.02165903,-0.1713824,-0.002547532,4.629367,-4.614743,-2.553212,0.3208101,1.220806,0.483721,-0.9428959,0.0007813999,11.06101,12.27769,-0.09354864,0.0945753,0.02007507,-0.5049433,-3.537022,-0.4810231,0.3526809,1.429939,0.4557941,-0.1345451,0.1204867,0.03257944,-1.113842,0.5744842,-0.1973163,0.527648,1.4897,0.325254,0.02528769,1.109021,0.3537799,298.0332,284.03,325.3223,True
5,0.2666667,-0.06304688,-0.2163225,-0.01515158,4.632002,-4.611844,-2.550939,0.3203195,1.221234,0.4830766,-0.9428442,0.004821674,11.08753,11.46347,-0.09665592,0.08176675,0.02752674,-0.5046791,-3.535661,-0.4810612,0.3524926,1.430114,0.4553702,-0.1334122,0.107705,0.03896334,-1.113378,0.5754281,-0.1963064,0.52761,1.48971,0.3249886,0.02523439,1.109108,0.3532943,298.08,284.0535,325.2928,True
5,0.2777778,-0.1086641,-0.2665859,-0.02025883,4.634718,-4.607985,-2.548203,0.3196351,1.221757,0.4825182,-0.9426749,0.01555336,11.14058,10.67066,-0.1040425,0.1061877,0.04787393,-0.5042285,-3.531023,-0.4840367,0.3523229,1.4304,0.4549708,-0.1354891,0.09598255,0.04323864,-1.112987,0.5762504,-0.1951588,0.5274915,1.489727,0.3247612,0.02512422,1.109161,0.3526321,298.1613,283.9662,325.3685,True
5,0.2888889,-0.1596121,-0.320003,-0.01365347,4.637638,-4.603587,-2.544488,0.3186628,1.222371,0.4817586,-0.9415542,0.1024794,11.16711,10.00643,-0.1093007,0.1572219,0.08317532,-0.5038062,-3.522789,-0.4900863,0.352139,1.43076,0.4545262,-0.1375958,0.093849,0.04538444,-1.112726,0.5773859,-0.1940579,0.5274714,1.489752,0.3243899,0.02499472,1.109262,0.3518475,298.1891,283.4018,325.9623,True
5,0.3,-0.2021028,-0.3563584,-0.006037071,4.640277,-4.598952,-2.540594,0.3178439,1.222973,0.481138,-0.9413108,0.02157688,11.19363,9.556458,-0.1198538,0.1805674,0.1099122,-0.503322,-3.515885,-0.4945788,0.3519755,1.430989,0.4539804,-0.1352784,0.08425668,0.06347939,-1.111548,0.5783083,-0.1930994,0.5274606,1.48987,0.3240979,0.02474298,1.109463,0.3508347,298.3167,282.7886,326.5245,True
5,0.3111111,-0.2882418,-0.3992764,-0.006937027,4.643746,-4.594156,-2.534157,0.3164167,1.223822,0.4802797,-0.940693,0.05659467,11.24668,9.256481,-0.1441785,0.1804229,0.1356473,-0.5019318,-3.510067,-0.4974654,0.3518861,1.431331,0.453382,-0.126713,0.07467662,0.06658377,-1.110946,0.5790692,-0.1924102,0.5274433,1.489908,0.3237128,0.02413779,1.10971,0.3491614,298.5307,282.7363,326.2854,True
5,0.3222222,-0.3924733,-0.4476032,-0.009929553,4.64751,-4.588724,-2.526137,0.3149657,1.225067,0.4800057,-0.9408373,-0.01337087,11.29973,9.1922,-0.1971069,0.1705695,0.1817646,-0.499568,-3.50394,-0.4990303,0.3518049,1.431624,0.4527395,-0.1299201,0.04803616,0.06449084,-1.110271,0.5787278,-0.1906988,0.5275039,1.489966,0.3233542,0.0233603,1.110246,0.3468458,298.6923,282.1744,326.3945,True
5,0.3333333,-0.4658478,-0.4851454,-0.00978452,4.651511,-4.583313,-2.51808,0.3132924,1.226058,0.4791293,-0.9387776,0.1887851,11.32626,9.363616,-0.2319102,0.1490543,0.2213772,-0.4965032,-3.498486,-0.5005691,0.3518147,1.431935,0.4520719,-0.1309866,0.04057778,0.06342688,-1.109803,0.5790565,-0.1894277,0.5275284,1.489993,0.3229611,0.02250712,1.111247,0.3441605,298.6905,281.3275,326.6849,True
5,0.3444445,-0.6307496,-0.5454268,-0.0191351,4.656591,-4.577006,-2.505485,0.3110269,1.227758,0.4787562,-0.9376063,0.1059439,11.35279,9.727876,-0.2494175,0.06899083,0.2756603,-0.4913026,-3.49688,-0.498597,0.3517029,1.432353,0.4514205,-0.13113,0.02671351,0.04743885,-1.109929,0.5787293,-0.187959,0.5275884,1.490021,0.3225944,0.02127885,1.112871,0.3412827,298.667,280.3091,327.0352,True
5,0.3555556,-0.7147716,-0.5830426,-0.02642651,4.661371,-4.571018,-2.494732,0.3089128,1.229101,0.4780447,-0.9381763,-0.05235762,11.35279,10.11356,-0.2692215,0.008125216,0.3119123,-0.4860418,-3.49545,-0.4964636,0.3515415,1.432845,0.4505677,-0.1356632,0.02351029,0.02086185,-1.110353,0.5788468,-0.1862167,0.5275066,1.490056,0.3221631,0.0197088,1.11536,0.3384906,298.5208,279.2744,327.3616,True
5,0.3666667,-0.8327236,-0.6676147,-0.02609295,4.667844,-4.563022,-2.481084,0.3060675,1.23081,0.477113,-0.9346012,0.3280419,11.40584,10.45639,-0.2735497,0.02090424,0.3077056,-0.4835725,-3.490602,-0.497561,0.3513932,1.433282,0.4498794,-0.1412715,0.04587029,-0.007867802,-1.111716,0.5798523,-0.1850218,0.5275233,1.490113,0.3218799,0.01766066,1.118738,0.3358894,298.0973,278.4695,327.5862,True
5,0.3777778,-0.9209036,-0.7381769,-0.0108891,4.673864,-4.55444,-2.467906,0.3032253,1.233065,0.4768443,-0.9369576,-0.2176282,11.45889,10.73495,-0.2694107,0.0145832,0.2863699,-0.4814612,-3.487504,-0.4973738,0.3511001,1.433831,0.4490292,-0.1381895,0.06824248,-0.01855566,-1.112453,0.5814216,-0.1842721,0.5273951,1.490156,0.3215268,0.01495839,1.123129,0.3335554,297.5728,277.6635,327.8899,True
5,0.3888889,-1.002724,-0.7980676,0.002131343,4.680319,-4.545742,-2.453796,0.3000049,1.235214,0.4758778,-0.9354358,0.1420256,11.51194,10.99207,-0.2822775,0.008180857,0.2715221,-0.479173,-3.485061,-0.4958556,0.3509066,1.434456,0.4481604,-0.139477,0.0778202,-0.04200314,-1.114129,0.5823397,-0.1832497,0.5274263,1.490172,0.3211639,0.0118273,1.128483,0.3314913,296.6471,277.2127,328.0649,True
5,0.4,-1.057989,-0.8344589,0.009748131,4.686484,-4.537521,-2.440261,0.2971255,1.237391,0.4751432,-0.9366534,-0.1120449,11.56498,11.2492,-0.3225068,-0.01331413,0.3004971,-0.4750115,-3.482304,-0.4933948,0.3507589,1.435176,0.4472489,-0.1460907,0.08100753,-0.06323725,-1.115543,0.5830973,-0.1815927,0.5275619,1.490218,0.3207412,0.008267427,1.134672,0.329502,295.5891,276.7906,328.3093,True
5,0.4111111,-1.147376,-0.862458,0.01304924,4.693218,-4.529344,-2.424213,0.2936837,1.23988,0.4741075,-0.9367771,-0.009548754,11.64456,11.48489,-0.3285379,-0.02835047,0.3516396,-0.4697358,-3.477903,-0.4934236,0.3505897,1.435806,0.4464355,-0.1517194,0.08206187,-0.09408204,-1.117829,0.5836849,-0.1800108,0.5276299,1.490214,0.3202374,0.004608963,1.141622,0.327511,294.4171,276.4238,328.4833,True
5,0.4222222,-1.228337,-0.8649286,-0.000785172,4.699841,-4.522499,-2.407891,0.2904811,1.242638,0.4737756,-0.9381411,-0.1240735,11.69761,11.69916,-0.3349433,-0.08936495,0.4868546,-0.4595029,-3.473344,-0.4935634,0.3503757,1.436729,0.4452801,-0.162597,0.06181078,-0.1163296,-1.119621,0.5833211,-0.1775948,0.5276528,1.49023,0.3197517,0.0008763699,1.1491,0.3253199,293.0966,276.2289,328.5246,True
5,0.4333333,-1.280586,-0.8513351,-0.01895016,4.706465,-4.51649,-2.391973,0.2873102,1.245197,0.4730089,-0.9365533,0.1468339,11.69761,11.89201,-0.3515818,-0.09168869,0.5529999,-0.4519975,-3.46681,-0.4947583,0.3501185,1.437552,0.4442735,-0.187226,0.04794686,-0.1310176,-1.121797,0.5828556,-0.1746083,0.5276331,1.490338,0.3194118,-0.002665242,1.156842,0.3228828,291.6879,276.1241,328.3852,True
5,0.4444444,-1.363767,-0.8252097,-0.07126695,-1.569067,-4.512192,-2.373909,0.2836029,1.248226,0.4718595,-0.9368708,-0.02978331,11.61804,12.06342,-0.3768466,-0.08761069,0.6032373,-0.4441609,-3.459265,-0.4965149,0.34975,1.438463,0.4430797,-0.2446642,0.05431385,-0.1240806,-1.123247,0.5833291,-0.1704743,0.5275462,1.490278,0.3191502,-0.006277815,1.164693,0.3201234,290.4377,275.6829,328.3927,True
5,0.4555556,-1.384012,-0.8232365,-0.09150395,-1.561552,-4.506611,-2.358106,0.2801618,1.251056,0.4708626,-0.9381357,-0.1146232,11.51194,12.29912,-0.3960681,-0.05786416,0.6130022,-0.438351,-3.450838,-0.4990199,0.3494099,1.439301,0.4420512,-0.2616347,0.07242694,-0.1153886,-1.124382,0.5848227,-0.1676545,0.5274372,1.490296,0.3187301,-0.009784222,1.172648,0.3172948,289.2862,274.9031,328.5286,True
5,0.4666667,-1.401095,-0.8116884,-0.1181855,-1.553796,-4.502129,-2.341923,0.2765873,1.254199,0.469645,-0.9368894,0.1155125,11.37931,12.49196,-0.4215256,-0.01328617,0.6537333,-0.4314225,-3.437835,-0.5051343,0.348981,1.440259,0.4408212,-0.2722946,0.09586015,-0.1152899,-1.125973,0.5867029,-0.1650284,0.527316,1.490324,0.318321,-0.01336657,1.180623,0.3145201,288.1289,274.1391,328.7212,True
5,0.4777778,-1.409654,-0.8032125,-0.1246039,-1.54657,-4.497106,-2.326093,0.2731063,1.257471,0.4690897,-0.9397129,-0.2586299,11.29973,12.5991,-0.4141599,-0.000454247,0.6462492,-0.4256706,-3.429,-0.5089141,0.34838,1.44127,0.4395869,-0.2862929,0.1310078,-0.1300823,-1.128469,0.5892219,-0.1626166,0.5270294,1.49036,0.3178308,-0.01734366,1.188665,0.3118526,287.0664,273.1416,329.2795,True
5,0.4888889,-1.431011,-0.7884437,-0.1417125,-1.538998,-4.493139,-2.309553,0.2696979,1.260803,0.4677458,-0.9402413,-0.0456708,11.24668,12.62053,-0.4332598,-0.01651126,0.650593,-0.4189653,-3.422074,-0.5097314,0.347899,1.442316,0.4383337,-0.2970753,0.139524,-0.1438407,-1.130953,0.5907887,-0.1597375,0.5268537,1.490327,0.3172743,-0.02126698,1.196744,0.3093895,285.9202,272.2485,329.8888,True
5,0.5,-1.474668,-0.7949817,-0.1384766,-1.531343,-4.487975,-2.291755,0.2663494,1.264291,0.466248,-0.9410375,-0.0722569,11.22016,12.49196,-0.4414895,-0.07090384,0.6697173,-0.4104379,-3.417869,-0.5082489,0.3474817,1.44331,0.4370632,-0.2982525,0.1416475,-0.1555485,-1.133278,0.5921094,-0.1570061,0.5266358,1.490294,0.3168426,-0.02508189,1.204812,0.3071136,284.8283,271.3298,330.5584,True
5,0.5111111,-1.491296,-0.9143222,-0.1305266,-1.520014,-4.479531,-2.275049,0.2630431,1.267684,0.4646425,-0.9408053,0.02205924,11.24668,12.32055,-0.4377883,-0.1625782,0.7025339,-0.400124,-3.418344,-0.5032123,0.3466943,1.444447,0.4356618,-0.3101288,0.159752,-0.1714209,-1.136117,0.5942993,-0.1541715,0.5263194,1.490256,0.3163397,-0.0286531,1.212859,0.3050586,283.7942,270.4131,331.2551,True
5,0.5222223,-1.527005,-1.061404,-0.1171176,-1.506991,-4.469355,-2.257778,0.2598596,1.271284,0.463748,-0.9398631,0.08626718,11.29973,12.14913,-0.4492849,-0.1711977,0.73562,-0.3911049,-3.411296,-0.5043042,0.3460393,1.445472,0.4341753,-0.3485368,0.2002199,-0.174242,-1.138521,0.5978539,-0.1504049,0.5259593,1.490324,0.3157754,-0.03215009,1.220912,0.3030454,282.8186,269.5144,332.1411,True
5,0.5333334,-1.499887,-1.202662,-0.03662977,-1.494587,-4.455994,-2.243025,0.2562342,1.274668,0.4618685,-0.9410951,-0.113132,11.35279,11.93486,-0.4654726,-0.122218,0.7294269,-0.3847469,-3.399851,-0.5090569,0.345317,1.446522,0.4327009,-0.3718505,0.232183,-0.1612386,-1.140394,0.6017179,-0.1471823,0.5256428,1.490292,0.3151951,-0.03548434,1.229062,0.3008137,281.8555,268.2943,333.5192,True
5,0.5444446,-1.467257,-1.400124,0.1005633,-1.481127,-4.437381,-2.229468,0.2524107,1.278516,0.4597719,-0.9408868,0.02038515,11.35279,11.74202,-0.5220159,0.1067643,0.6663165,-0.3848928,-3.372051,-0.5269756,0.3447713,1.447394,0.4309604,-0.4036624,0.2513567,-0.1449412,-1.141794,0.6053753,-0.1430725,0.5253834,1.490442,0.314569,-0.03827287,1.23724,0.2980552,280.7196,265.8392,336.0652,True
5,0.5555557,-1.485242,-1.439142,0.2115153,-1.471309,-4.421748,-2.213742,0.2487211,1.282129,0.4571722,-0.943322,-0.2226737,11.27321,11.63488,-0.5660046,0.1716239,0.6539378,-0.3807447,-3.354159,-0.5356981,0.344346,1.448503,0.4293895,-0.3873237,0.2194171,-0.1088537,-1.141791,0.6068198,-0.1399832,0.5251553,1.4906,0.3139009,-0.04041547,1.2454,0.2945399,279.5713,262.3056,339.4449,True
5,0.5666668,-1.544481,-1.261822,0.3769544,-1.471043,-4.409609,-2.195163,0.2451242,1.285894,0.4532864,-0.944309,-0.08847111,11.19363,11.59203,-0.6459134,0.1979708,0.6662104,-0.3757592,-3.336053,-0.5425227,0.3441282,1.449869,0.4276512,-0.3571853,0.1640428,-0.0793027,-1.141615,0.6068262,-0.1370902,0.5249785,1.490651,0.3131242,-0.04208435,1.253428,0.2898016,278.4033,258.7278,342.8309,True
5,0.577778,-1.491478,-0.8895989,0.4318624,-1.476317,-4.406282,-2.180272,0.242065,1.289198,0.4502695,-0.9423457,0.179881,11.08753,11.59203,-0.7056756,0.09954894,0.76972,-0.363986,-3.324746,-0.5432768,0.3439996,1.451463,0.4259529,-0.3582506,0.1288815,-0.08034024,-1.142533,0.6069766,-0.1330995,0.5249586,1.49054,0.3123105,-0.04320865,1.261171,0.2833869,277.3643,254.336,346.8101,True
5,0.5888891,-1.407564,-0.5142176,0.455889,-1.485228,-4.405713,-2.167225,0.2388391,1.291781,0.4463606,-0.9397646,0.2344299,11.00796,11.59203,-0.6948514,-0.02319205,0.9025735,-0.3489295,-3.313721,-0.5462676,0.3437952,1.453078,0.4241974,-0.3915417,0.1192833,-0.1077059,-1.144808,0.607915,-0.1279678,0.5249312,1.490487,0.3114176,-0.0441097,1.26877,0.2752058,276.7028,250.5243,349.7115,True
5,0.6000003,-1.295368,0.6052709,0.5801801,-1.525053,-4.421217,-2.155133,0.2376244,1.292092,0.4420598,-0.9443505,-0.4215008,11.00796,11.50632,-0.5837485,-0.3995636,1.261224,-0.317729,-3.315221,-0.5426324,0.3431395,1.454448,0.4223075,-0.4754869,0.1043246,-0.193148,-1.149858,0.608044,-0.1197,0.5248393,1.490318,0.310493,-0.04509048,1.276748,0.2656706,276.4363,249.2924,349.4208,True
5,0.6111114,-1.273976,1.501279,0.5775317,-1.56468,-4.44036,-2.140493,0.2358722,1.292388,0.4383252,-0.9470297,-0.2413226,11.08753,11.39919,-0.5334835,-0.571152,1.373483,-0.2954048,-3.317146,-0.536661,0.3421808,1.455448,0.4202576,-0.5721378,0.1064139,-0.2710251,-1.155647,0.6087733,-0.110379,0.5246059,1.490176,0.30968,-0.04602054,1.285236,0.256162,275.8524,248.4797,348.1105,True
5,0.6222225,-1.429696,2.477592,0.5681506,4.664458,-4.467815,-2.119684,0.2349957,1.29044,0.4337254,-0.9489524,-0.1741888,11.16711,11.46347,-0.5442697,-0.5849796,1.34795,-0.2802663,-3.312958,-0.5341265,0.3402448,1.456002,0.4178383,-0.6427554,0.1564524,-0.2990857,-1.15999,0.6120547,-0.10223,0.5239264,1.490065,0.3089728,-0.0472603,1.294068,0.2479294,274.8648,253.9975,340.4144,True
5,0.6333337,-1.542297,2.990239,0.4722422,4.623527,-4.490033,-2.099972,0.2334697,1.289497,0.4288981,-0.9456443,0.3029314,11.16711,11.76344,-0.7246625,-0.3219181,1.089672,-0.2804468,-3.290305,-0.541504,0.3381903,1.455923,0.4153154,-0.6701059,0.2374221,-0.2604709,-1.161849,0.6178771,-0.09636223,0.5232929,1.490028,0.3083818,-0.04927741,1.303072,0.2426055,274.3641,282.0294,310.5393,True
5,0.6444448,-1.621593,3.440741,0.2498564,4.579069,-4.522168,-2.081725,0.2319897,1.288492,0.4246218,-0.937911,0.7022862,11.06101,12.29912,-0.955411,0.05952841,0.6774621,-0.2925296,-3.262834,-0.5493199,0.3358312,1.455501,0.4132607,-0.642474,0.3865998,-0.1553152,-1.160859,0.6286017,-0.09441465,0.5221736,1.490047,0.3079083,-0.05303014,1.312097,0.2410733,275.3594,311.9084,279.8024,True
5,0.655556,-1.663544,3.255352,0.2697045,4.551942,-4.53217,-2.063892,0.230445,1.289183,0.4203999,-0.9377661,0.007269985,10.82228,13.09192,-1.112273,0.3368591,0.2731218,-0.3063903,-3.244082,-0.549804,0.334263,1.455195,0.4108901,-0.5104079,0.5166358,-0.04691613,-1.158764,0.6398253,-0.09780459,0.5210116,1.490162,0.3073936,-0.05878671,1.321185,0.2438185,277.7278,329.7346,262.6331,True
5,0.6666671,-1.75405,3.245241,0.2185844,4.51873,-4.548798,-2.043659,0.2287663,1.290486,0.4173579,-0.9380074,-0.02130685,10.50398,13.99186,-1.135957,0.4170129,0.1051066,-0.3140575,-3.23161,-0.5480778,0.3325534,1.455088,0.4092898,-0.3742596,0.5870271,0.03907378,-1.156487,0.649938,-0.1024366,0.5197462,1.490117,0.306776,-0.06590368,1.330301,0.2504068,280.0394,339.6057,254.8624,True
5,0.6777782,-1.516668,2.652235,0.3862689,4.505159,-4.54381,-2.034628,0.2267454,1.29333,0.4143474,-0.9411196,-0.2853124,10.2122,15.38461,-1.081363,0.3759493,-0.04445905,-0.3187037,-3.233796,-0.5362488,0.331588,1.455355,0.4084404,-0.3226562,0.6126235,0.08757002,-1.154871,0.6583944,-0.1036532,0.5188646,1.490158,0.3060532,-0.0734591,1.339319,0.260407,282.4506,346.885,250.6656,True
5,0.6888894,-1.285477,2.328587,0.502704,4.487371,-4.54193,-2.028107,0.2249899,1.29548,0.4114678,-0.9383329,0.2604473,9.973473,17.46304,-0.9404837,0.183694,-0.1011185,-0.3185604,-3.250186,-0.5146242,0.3310046,1.455954,0.4076781,-0.3043494,0.5923944,0.1065698,-1.153735,0.6649591,-0.1034031,0.5180529,1.490183,0.3052602,-0.07964839,1.348087,0.2719043,284.884,352.7996,248.8122,True
5,0.7000005,-0.9398128,1.884558,0.5120208,4.478969,-4.539479,-2.029482,0.2234217,1.298124,0.4095972,-0.9531059,-1.354362,9.814323,20.05571,-0.7630696,0.01061726,-0.09937482,-0.3165582,-3.268204,-0.4951186,0.3308066,1.4566,0.4066684,-0.2669246,0.4890869,0.1179503,-1.152267,0.6673172,-0.102488,0.5175707,1.490185,0.3041661,-0.08440091,1.357117,0.2831371,287.3954,356.8341,248.7892,True
5,0.7111117,-0.7063463,1.555576,0.3547051,4.473036,-4.544409,-2.029576,0.2222041,1.300646,0.4092267,-0.9561185,-0.2619332,9.867373,22.92693,-0.3298371,-0.4230862,0.1324788,-0.2989622,-3.309925,-0.4664133,0.3308244,1.457705,0.4055018,-0.2705908,0.3165198,0.06476343,-1.1531,0.6650225,-0.09845813,0.5171905,1.489909,0.3029838,-0.08663002,1.366048,0.2916443,289.564,2.569195,246.8783,True
5,0.7222228,-0.6148266,1.288821,0.1736566,4.470462,-4.550547,-2.027389,0.2207888,1.302442,0.4078808,-0.9626108,-0.5949826,10.02653,25.84101,0.04476637,-0.770049,0.5726229,-0.2700381,-3.34113,-0.4502007,0.3310647,1.45888,0.4041348,-0.3410871,0.1747869,-0.06447479,-1.157794,0.6613165,-0.09087691,0.5169641,1.489643,0.3017032,-0.08697483,1.374375,0.295914,291.4896,7.982414,243.7081,True
5,0.7333339,-0.6652199,1.091694,-0.05128843,4.46756,-4.559956,-2.019881,0.2195361,1.303294,0.4069786,-0.9583784,0.3903854,10.29178,28.64795,0.1595837,-0.9171484,0.8038329,-0.249968,-3.363879,-0.432435,0.3302875,1.459764,0.402406,-0.4080002,0.1151127,-0.1532763,-1.162215,0.6608282,-0.08398704,0.5165428,1.489349,0.3005939,-0.08612933,1.381216,0.2956511,292.4976,12.49922,239.2226,True
5,0.7444451,-0.6592647,0.9103327,-0.1176724,4.465484,-4.56495,-2.013892,0.2179664,1.304564,0.4060717,-0.9534628,0.4440462,10.61008,31.39062,0.09873605,-0.774702,0.8577621,-0.237906,-3.359681,-0.4355536,0.329291,1.460587,0.4004774,-0.4901153,0.08097595,-0.2696404,-1.169354,0.659781,-0.07515947,0.5162303,1.489081,0.2993886,-0.08546625,1.386049,0.2920378,292.4262,14.95425,234.8875,True
5,0.7555562,-0.5825267,0.5951328,-0.1514634,4.469594,-4.56517,-2.010305,0.2166429,1.305204,0.4057837,-0.9457519,0.7007355,10.87533,34.00471,-0.005230069,-0.4020391,0.7803063,-0.2363859,-3.320467,-0.4697039,0.3281973,1.460797,0.3985658,-0.5302558,0.1033259,-0.3416802,-1.175299,0.6617576,-0.06892181,0.5156393,1.488973,0.2982721,-0.08591557,1.388753,0.2866875,291.7043,15.54102,231.7952,True
5,0.7666674,-0.4961525,0.2650117,-0.1969716,4.478577,-4.56489,-2.007691,0.2152839,1.306362,0.4058294,-0.9470004,-0.1199938,11.08753,35.86887,-0.06642288,-0.1250501,0.6779064,-0.2365143,-3.282851,-0.5033681,0.3270168,1.461249,0.3966777,-0.5060154,0.1278276,-0.3674955,-1.180414,0.6638477,-0.06505223,0.5150405,1.488914,0.2971642,-0.08774454,1.389737,0.281385,290.6011,13.57703,231.3963,True
5,0.7777785,-0.4420651,0.03382415,-0.242917,4.486315,-4.565562,-2.004796,0.2142238,1.307638,0.4058568,-0.9503527,-0.3050984,11.32626,36.79023,-0.1142371,0.1489338,0.4997819,-0.2418385,-3.246734,-0.5355537,0.3263865,1.461375,0.3949091,-0.4205523,0.1300017,-0.3438306,-1.183187,0.6654558,-0.06431135,0.5142644,1.488951,0.2961199,-0.09029369,1.389595,0.2772459,289.5291,10.26549,233.2593,True
5,0.7888896,-0.3526598,-0.2484802,-0.3216542,4.500752,-4.565799,-2.004091,0.2132563,1.308974,0.4059329,-0.9508401,-0.04298743,11.59151,36.83308,-0.1192719,0.2289833,0.4168788,-0.2432313,-3.223972,-0.5561056,0.3255364,1.461672,0.3931618,-0.3416792,0.1279314,-0.2338173,-1.181947,0.6671399,-0.06405568,0.5133988,1.488975,0.2949505,-0.09252317,1.38857,0.2745523,288.5659,7.526693,235.5236,True
5,0.8000008,-0.2251423,-0.4582872,-0.4209521,4.514191,-4.56832,-2.006011,0.2125999,1.309888,0.4058721,-0.9490857,0.1595783,11.85676,36.12599,-0.06931854,0.2259663,0.3984554,-0.2405016,-3.209394,-0.5712107,0.3252465,1.462131,0.3918703,-0.3158714,0.1546001,-0.1019721,-1.178664,0.6702819,-0.06253316,0.5125173,1.488975,0.2936137,-0.09432659,1.387138,0.2732099,287.6861,5.394597,237.7425,True
5,0.8111119,-0.1920189,-0.4859116,-0.4314907,4.522107,-4.570335,-2.005396,0.2115058,1.311052,0.4056664,-0.9495986,-0.04956285,12.22811,34.94751,0.002443194,0.1632776,0.4287768,-0.2352434,-3.197183,-0.5854357,0.3246464,1.462747,0.3904679,-0.326504,0.1897912,0.007857293,-1.17548,0.67422,-0.05988783,0.5117642,1.488866,0.2921181,-0.09582294,1.385804,0.2730778,286.9761,3.760315,239.7786,True
5,0.8222231,-0.07445805,-0.5920473,-0.4363919,4.532763,-4.570564,-2.008555,0.2107041,1.311501,0.405513,-0.9498952,-0.02827491,12.57294,33.46904,0.1297102,0.02411491,0.4362264,-0.2285711,-3.201385,-0.5872446,0.3241352,1.463341,0.3891742,-0.3258239,0.1834145,0.0760343,-1.172416,0.6764085,-0.05720763,0.5110102,1.488749,0.2905891,-0.09697789,1.384707,0.2737783,286.2162,3.778724,240.4264,True
5,0.8333342,-0.03706137,-0.6227888,-0.4266752,4.541729,-4.571092,-2.009462,0.2096933,1.312155,0.4052567,-0.9451974,0.4278844,12.91777,32.37626,0.2523918,-0.07558292,0.4128914,-0.2231633,-3.206064,-0.5890486,0.3234927,1.463634,0.3877413,-0.3323753,0.1376134,0.05906883,-1.172563,0.6765229,-0.05336256,0.510272,1.488599,0.2889488,-0.09801147,1.383782,0.2749928,285.6785,4.868361,239.9751,True
5,0.8444453,-0.005122503,-0.6172963,-0.4128432,4.549587,-4.571938,-2.0107,0.2090172,1.312434,0.4048724,-0.9461998,-0.09756741,13.2626,31.88343,0.257102,-0.03811917,0.3330389,-0.2224954,-3.200147,-0.5978629,0.3228096,1.463867,0.386162,-0.3463606,0.07795084,0.04430612,-1.172492,0.6753542,-0.04855502,0.5095609,1.488498,0.2874179,-0.09935026,1.383167,0.2763876,285.494,5.552397,239.9318,True
5,0.8555565,7.320195E-05,-0.5799075,-0.3916894,4.555809,-4.573208,-2.010923,0.208503,1.312738,0.4042251,-0.9412373,0.4524154,13.55437,32.20484,0.2017657,0.09930849,0.2441841,-0.2257849,-3.178632,-0.6189075,0.3220115,1.464099,0.3844442,-0.3423479,-0.02218817,0.01765387,-1.173052,0.6714995,-0.04332351,0.5088219,1.488409,0.2858725,-0.1005569,1.382431,0.2775012,285.3317,7.119133,239.0912,True
5,0.8666676,0.03402168,-0.5402764,-0.3673393,4.561526,-4.574186,-2.012584,0.2080065,1.313026,0.4034712,-0.9378684,0.3014402,13.76658,33.40475,0.1608878,0.1365537,0.1997698,-0.2267964,-3.166504,-0.631166,0.3212215,1.464243,0.3827884,-0.3338784,-0.08077926,0.01119004,-1.173016,0.6682408,-0.03861237,0.5080975,1.488354,0.2843823,-0.1018054,1.381468,0.2779719,285.0992,8.115727,238.6436,True
5,0.8777788,0.09246702,-0.4994768,-0.3376627,4.566705,-4.574954,-2.015715,0.2073277,1.313285,0.4025984,-0.9332819,0.4144193,13.95225,35.56889,0.09237321,0.1577266,0.1576229,-0.2275794,-3.157376,-0.6388029,0.3204131,1.464294,0.3810284,-0.3093418,-0.1116658,0.0141488,-1.172592,0.6660073,-0.03516784,0.5073309,1.488357,0.2829347,-0.1029151,1.38014,0.2776994,284.7906,8.361121,238.6852,True
5,0.8888899,0.1402419,-0.4533858,-0.3080112,4.57115,-4.575675,-2.018891,0.2065304,1.313415,0.4014785,-0.9309362,0.2083491,14.11141,38.65438,0.06032812,0.1331659,0.1322013,-0.2272854,-3.153658,-0.6421276,0.3195565,1.464398,0.3794205,-0.2859508,-0.08608069,0.00964649,-1.172677,0.6661707,-0.03294224,0.5065446,1.488265,0.2814622,-0.1039236,1.378516,0.276719,284.4077,7.539165,239.5632,True
5,0.900001,0.1635403,-0.413795,-0.2847302,4.575269,-4.576477,-2.021536,0.2057051,1.313441,0.400377,-0.9286171,0.2075007,14.32361,42.59695,0.03595224,0.1043133,0.1376203,-0.2260097,-3.148463,-0.6468136,0.3185754,1.464487,0.3777356,-0.2742364,-0.03388577,0.01059345,-1.1725,0.6677161,-0.03075818,0.5056787,1.488146,0.2800241,-0.1048531,1.376648,0.2751347,283.9752,6.327281,240.6683,True
5,0.9111122,0.1589288,-0.313445,-0.2276067,4.575771,-4.577045,-2.023184,0.2048261,1.31332,0.3990915,-0.9244242,0.3783499,14.69496,47.05378,0.007160004,0.1212559,0.1431578,-0.2257514,-3.1367,-0.6574066,0.3175865,1.464606,0.3761089,-0.2454331,0.01726186,0.01562335,-1.172201,0.6697873,-0.02973153,0.5047606,1.488076,0.2785659,-0.1058362,1.374512,0.2730659,283.5585,5.155703,241.6254,True
5,0.9222233,0.1318572,-0.1886618,-0.1684498,4.573822,-4.577848,-2.023831,0.2040786,1.313038,0.3977351,-0.9191762,0.4731632,14.90716,50.6321,-0.01431776,0.1584897,0.1348436,-0.2266281,-3.122911,-0.6699815,0.3165689,1.464643,0.3744681,-0.2092202,0.04709661,0.01525612,-1.172066,0.6714622,-0.02925003,0.5038227,1.488021,0.2771864,-0.106988,1.372058,0.270655,283.1697,3.789401,242.7085,True
5,0.9333345,0.1186522,-0.07026193,-0.1209782,4.571198,-4.579074,-2.024802,0.2034659,1.312857,0.3968749,-0.9132975,0.5300403,15.14589,52.92479,-0.02640156,0.2064546,0.100927,-0.2290281,-3.10956,-0.6823346,0.3154509,1.464616,0.3730121,-0.1847358,0.0545502,0.01394646,-1.171968,0.6721114,-0.02813656,0.5029416,1.48793,0.2755978,-0.1083422,1.369298,0.268108,282.8205,1.679733,244.4724,True
5,0.9444456,0.1012752,0.02463774,-0.08407259,4.568092,-4.58031,-2.025582,0.2027565,1.312602,0.3953652,-0.9072596,0.5442562,15.43766,53.93186,-0.03848013,0.1873801,0.03278252,-0.2314463,-3.109768,-0.6813312,0.3143375,1.464514,0.3714738,-0.1655499,0.0492274,0.01482169,-1.171803,0.6724986,-0.02711577,0.5019273,1.487912,0.2741785,-0.1098902,1.366391,0.265647,282.6803,358.4557,247.367,True
5,0.9555568,0.092578,0.07688335,-0.06405543,4.566444,-4.581637,-2.026661,0.2019573,1.312596,0.3936923,-0.9024654,0.4303744,15.78249,53.69617,-0.05784357,0.1618317,-0.01082346,-0.2329904,-3.111334,-0.6785591,0.313378,1.464545,0.3698545,-0.16438,0.04817097,0.02546298,-1.171212,0.6730878,-0.025422,0.5009788,1.487896,0.2726398,-0.1114707,1.363536,0.263487,282.7029,354.537,251.0021,True
5,0.9666679,0.07744583,0.1397218,-0.05471997,4.563239,-4.583554,-2.027291,0.2011012,1.312412,0.3921933,-0.8971322,0.480382,16.12732,52.17485,-0.07508704,0.1171474,-0.06620437,-0.2349643,-3.119643,-0.6690122,0.3123783,1.46448,0.3683493,-0.1492202,0.04072255,0.04981593,-1.169865,0.6733873,-0.02437325,0.5000063,1.487889,0.2711751,-0.1129578,1.360911,0.2618234,282.803,350.972,254.3995,True
5,0.977779,0.06564835,0.1631299,-0.05161683,4.561326,-4.58511,-2.027928,0.200232,1.312399,0.3909755,-0.8919762,0.4635277,16.313,49.81787,-0.07813735,0.08090515,-0.06093226,-0.2350447,-3.121476,-0.666279,0.3113737,1.464503,0.3667285,-0.1352336,0.02474427,0.06353433,-1.168646,0.6730793,-0.02319001,0.4991143,1.487883,0.2697537,-0.1144493,1.358645,0.2606,283.0012,348.5266,256.9797,True
5,0.9888902,0.06352726,0.1620562,-0.05055048,4.560124,-4.586341,-2.028816,0.1991613,1.312389,0.3894117,-0.8858318,0.5539411,16.313,46.81808,-0.06509924,0.07234804,-0.02373867,-0.2345947,-3.11641,-0.6708913,0.3103542,1.464636,0.3651514,-0.1246292,0.008768231,0.05811318,-1.168149,0.6726416,-0.02198866,0.4982185,1.48788,0.2682538,-0.115984,1.356753,0.2596608,283.186,347.1295,258.6617,True
5,1.000001,0.07098384,0.1610059,-0.05161646,4.559041,-4.587662,-2.030041,0.1981722,1.312098,0.3875015,-0.8800213,0.5225301,16.15384,43.49689,-0.03483633,0.04675836,0.03355049,-0.2326383,-3.111334,-0.6763934,0.3092644,1.464788,0.3635676,-0.1257593,0.01409323,0.05173126,-1.167791,0.6730032,-0.02068477,0.4972774,1.487841,0.2667818,-0.117557,1.355167,0.2589391,283.4099,346.2682,259.7489,True
5,1.011112,0.06888914,0.1491873,-0.07500531,4.558569,-4.589685,-2.030945,0.19734,1.312159,0.3864868,-0.8742338,0.5204666,15.9947,40.68995,-0.009085223,0.02124131,0.05038022,-0.2315533,-3.110595,-0.6777785,0.3080654,1.464781,0.3618546,-0.1364822,0.01302587,0.04544285,-1.167529,0.6731814,-0.01875025,0.4963399,1.487808,0.2652349,-0.1191471,1.353782,0.2583454,283.593,345.7659,260.4865,True
5,1.022224,0.04451952,0.1127137,-0.1174765,4.559748,-4.592198,-2.031005,0.196266,1.31232,0.385462,-0.8682044,0.5423912,15.78249,38.69724,-0.02208029,0.05638717,0.03455244,-0.2327597,-3.104994,-0.6825724,0.306878,1.464804,0.3601637,-0.156891,0.00662718,0.02860232,-1.167766,0.6730192,-0.01626606,0.49532,1.487841,0.2638111,-0.1207855,1.352441,0.2576813,283.7484,345.8066,260.7977,True
5,1.033335,0.03096384,0.02945624,-0.1469835,4.563001,-4.593503,-2.031139,0.1951098,1.312371,0.3841324,-0.8611752,0.6334416,15.49072,37.39019,-0.05017716,0.1405055,0.01359268,-0.2361537,-3.0914,-0.6942136,0.3056915,1.464791,0.3585138,-0.1642965,0.008759595,0.03401419,-1.167035,0.673282,-0.01431742,0.4942252,1.487829,0.2624557,-0.1223447,1.350903,0.2567852,283.8702,345.8177,261.066,True
5,1.044446,0.03124943,-0.05262977,-0.1615714,4.566895,-4.59412,-2.031549,0.193872,1.312741,0.3833845,-0.8534174,0.6992155,15.11936,36.66167,-0.08739329,0.1807987,0.04586438,-0.2370405,-3.076494,-0.7065622,0.3045261,1.46489,0.3569376,-0.1460822,0.01622202,0.04448413,-1.16619,0.6737784,-0.01352167,0.4931272,1.487926,0.2611177,-0.1238479,1.349078,0.2557371,283.8741,344.8239,262.0598,True
5,1.055557,0.03033568,-0.09633073,-0.1656553,4.569776,-4.594687,-2.031991,0.1926191,1.312886,0.382442,-0.8466818,0.605186,14.74801,36.38311,-0.0647978,0.1595176,0.07124342,-0.236535,-3.068806,-0.7140289,0.3032998,1.464893,0.3555086,-0.1129869,0.04712306,0.05267185,-1.165333,0.6754918,-0.01398026,0.4920262,1.487995,0.2597623,-0.1255215,1.347005,0.2546324,283.7607,343.184,263.6588,True
5,1.066668,0.01553794,-0.1294568,-0.1783097,4.57315,-4.595705,-2.031811,0.1913748,1.31323,0.3818359,-0.8400601,0.5955375,14.50928,36.10456,-0.0369109,0.1393252,0.09127123,-0.2358543,-3.061671,-0.7215369,0.3021746,1.465007,0.3539884,-0.09157713,0.07376817,0.06310561,-1.164325,0.6774541,-0.0144868,0.4908992,1.488015,0.2583523,-0.1273144,1.344689,0.2534599,283.5909,341.2364,265.6434,True
5,1.077779,-0.02164406,-0.1594877,-0.1963105,4.5767,-4.597083,-2.030512,0.1901694,1.313547,0.3811147,-0.8329484,0.6402215,14.35013,35.69745,0.02300025,0.1107081,0.1174679,-0.2345568,-3.054528,-0.7307075,0.3009787,1.465069,0.3525698,-0.08716324,0.08548732,0.07904194,-1.162901,0.6788262,-0.01405457,0.4897559,1.488144,0.2569613,-0.1291465,1.342182,0.2522448,283.4575,338.861,268.0265,True
5,1.08889,-0.05027962,-0.1958619,-0.2100194,4.580965,-4.598084,-2.029106,0.1888977,1.313988,0.3806007,-0.8249589,0.7200949,14.24403,35.07606,0.05393597,0.1022815,0.1193899,-0.2341622,-3.048162,-0.7385095,0.2998193,1.465082,0.3510778,-0.08818114,0.07697533,0.08331707,-1.161805,0.6795741,-0.01339943,0.4885904,1.48817,0.2555511,-0.1309795,1.339526,0.2510083,283.4247,336.3398,270.5323,True
5,1.100002,-0.07985522,-0.2684393,-0.2193367,4.587104,-4.598307,-2.027279,0.1875765,1.314489,0.3796639,-0.8163809,0.773181,14.16445,34.17613,0.05167085,0.1470116,0.1216254,-0.2352423,-3.034241,-0.7524301,0.2986378,1.464973,0.3498459,-0.09360193,0.05459462,0.07379102,-1.1613,0.6792784,-0.01199248,0.4874289,1.488216,0.2541928,-0.1328239,1.336828,0.2498435,283.4072,333.4526,273.3532,True
5,1.111113,-0.09348551,-0.3333536,-0.1913883,4.59273,-4.596911,-2.025726,0.1863077,1.315293,0.3795087,-0.8088793,0.6744117,13.95225,32.93336,0.06756835,0.151336,0.1108779,-0.2358048,-3.026881,-0.7607943,0.2975486,1.464947,0.3485966,-0.06167947,0.0151904,0.06922087,-1.160648,0.6782083,-0.01196878,0.4862454,1.488186,0.2528911,-0.1347018,1.334248,0.2488428,283.397,330.3587,276.3931,True
5,1.122224,-0.1115465,-0.3492514,-0.1551078,4.596918,-4.595385,-2.023705,0.1850459,1.316093,0.378937,-0.8012189,0.6897848,13.74005,31.84058,0.07704344,0.1333137,0.08308438,-0.2364578,-3.024125,-0.7646372,0.2966193,1.46498,0.3475444,-0.02228251,-0.01889489,0.06670133,-1.159976,0.6767687,-0.01244069,0.4850655,1.488241,0.2515986,-0.136593,1.331922,0.248039,283.3585,327.5482,279.2617,True
5,1.133335,-0.1264887,-0.3428484,-0.1391562,4.600522,-4.59494,-2.021776,0.1838062,1.316702,0.3780539,-0.7942452,0.626717,13.50132,30.57638,0.1167088,0.03651968,0.07305706,-0.2341787,-3.031425,-0.7600667,0.2956302,1.465365,0.3465035,-0.004321923,-0.02634593,0.05161402,-1.159809,0.6764159,-0.01272725,0.4839126,1.488384,0.2503476,-0.1384085,1.329918,0.2473184,283.2725,325.0346,281.9311,True
5,1.144446,-0.1415185,-0.3098295,-0.1275716,4.603072,-4.594862,-2.019696,0.1826034,1.317383,0.3773088,-0.7864693,0.7007529,13.20955,28.99078,0.1415876,-0.04972188,0.08870703,-0.2306452,-3.038153,-0.7559681,0.294725,1.465641,0.3453691,0.006053601,-0.02848021,0.02381146,-1.16051,0.6759568,-0.01296666,0.4827974,1.4885,0.2490366,-0.1399911,1.328294,0.2466131,283.2431,322.7903,284.2785,True
5,1.155557,-0.1682869,-0.2704776,-0.1202772,4.605075,-4.595178,-2.017016,0.1813302,1.318165,0.3764262,-0.7790737,0.6653377,12.86472,27.14806,0.1494267,-0.1243102,0.111944,-0.226512,-3.043967,-0.7521135,0.2938499,1.465943,0.3441079,-0.001529735,-0.04019985,0.01111322,-1.160663,0.6751736,-0.01229715,0.4816788,1.48863,0.247767,-0.1414402,1.327086,0.2457779,283.2765,321.2666,285.9432,True
5,1.166668,-0.188589,-0.2524546,-0.1246136,4.607729,-4.59564,-2.014254,0.1798862,1.318984,0.3756666,-0.7716398,0.6693107,12.54642,25.24105,0.1166406,-0.114917,0.1558444,-0.2236134,-3.036981,-0.7590683,0.2929598,1.466118,0.3427165,-0.01983831,-0.08707181,-0.01000497,-1.161447,0.6725663,-0.01052934,0.480581,1.488757,0.2465312,-0.1428439,1.32623,0.2447452,283.2605,320.3259,286.9585,True
5,1.17778,-0.1960063,-0.2631449,-0.1267075,4.611603,-4.59554,-2.011898,0.1782864,1.319616,0.3743689,-0.7639331,0.6943409,12.25464,23.39833,0.06777741,-0.04914829,0.2138005,-0.2217689,-3.017263,-0.7772763,0.2919955,1.466238,0.3413818,-0.02843902,-0.1169133,-0.01843843,-1.161939,0.6699101,-0.008880577,0.4795378,1.488828,0.2452972,-0.1442605,1.325649,0.2435658,283.2401,319.503,287.7166,True
5,1.188891,-0.2056236,-0.2556254,-0.1033062,4.614198,-4.594787,-2.009317,0.1767567,1.320461,0.373455,-0.7569226,0.6306509,11.96286,21.74845,0.03902617,0.04546041,0.2663762,-0.2211201,-2.989414,-0.8037143,0.2910011,1.466376,0.3400967,-0.0145615,-0.1275642,-0.01644818,-1.162052,0.6680054,-0.008573514,0.4784532,1.488866,0.2440739,-0.145814,1.325308,0.242312,283.2153,318.5792,288.5057,True
5,1.200002,-0.2099494,-0.2364323,-0.0948664,4.616327,-4.594696,-2.00689,0.1753873,1.321105,0.372349,-0.7506801,0.5611166,11.69761,20.16284,0.06362744,0.04125141,0.2800613,-0.2189188,-2.977186,-0.8172666,0.2898419,1.466551,0.3388956,0.00564906,-0.1062582,-0.01878134,-1.162248,0.6675835,-0.009150089,0.4772812,1.488948,0.2428451,-0.1475613,1.325133,0.2410558,283.1014,317.7852,289.2101,True
5,1.211113,-0.243264,-0.1533607,-0.07176583,4.614985,-4.595243,-2.002977,0.1741866,1.321689,0.3715167,-0.7439599,0.6052974,11.40584,18.42726,0.09246737,-0.01188809,0.2627324,-0.2157352,-2.976071,-0.8205814,0.2886958,1.466858,0.3377061,0.02149335,-0.06470942,-0.03173207,-1.163093,0.6685116,-0.01035251,0.4760495,1.489067,0.2416518,-0.1494191,1.324974,0.2397548,282.9352,317.2595,289.7457,True
5,1.222224,-0.2978454,-0.07791062,-0.0688933,4.613823,-4.596737,-1.997973,0.17284,1.322016,0.3696311,-0.7376146,0.5708461,11.11406,17.0345,0.07176873,-0.02244315,0.1829395,-0.2157363,-2.980548,-0.8163185,0.2875198,1.467072,0.3365164,0.004334336,-0.02423947,-0.0422169,-1.163898,0.6696829,-0.01016688,0.4746895,1.489288,0.2404721,-0.151196,1.32475,0.2384175,282.8814,316.6121,290.3813,True
5,1.233335,-0.3321148,-0.02689007,-0.06804805,4.613062,-4.598124,-1.993214,0.1715721,1.322636,0.3684802,-0.7299075,0.6959034,10.95491,15.83458,0.05444171,-0.01708552,0.1404443,-0.215716,-2.97968,-0.8170623,0.2865847,1.467238,0.3354106,-0.007252103,-0.0135865,-0.02825389,-1.16372,0.6697989,-0.009579657,0.4733709,1.489511,0.239337,-0.1527957,1.324411,0.2370845,282.9373,315.8721,291.0469,True
5,1.244446,-0.3096868,-0.04283034,-0.07756825,4.614327,-4.59877,-1.990481,0.1701384,1.323698,0.3676853,-0.7226802,0.6510863,10.87533,14.80608,0.04363973,0.01698233,0.1341886,-0.2159707,-2.970994,-0.8256124,0.2856519,1.467444,0.3342409,0.03055627,-0.02528784,0.02357196,-1.161652,0.6690941,-0.01090485,0.4721538,1.489724,0.2381039,-0.1543611,1.324072,0.2358401,283.197,315.1953,291.6817,True
5,1.255558,-0.2829083,-0.08539042,-0.08805108,4.617172,-4.599016,-1.988297,0.168708,1.324706,0.3667593,-0.7173214,0.4810706,10.90185,13.90615,0.03545192,-0.003378876,0.1778745,-0.2129107,-2.960727,-0.8358094,0.2848534,1.467841,0.3331592,0.0671119,-0.04977603,0.05623096,-1.160055,0.6676018,-0.01237225,0.4711252,1.489875,0.2369339,-0.1561191,1.323894,0.2346225,283.4633,314.5005,292.4719,True
5,1.266669,-0.2635529,-0.1365468,-0.1102151,4.620954,-4.59949,-1.986088,0.1673017,1.325831,0.366107,-0.7141703,0.2808136,11.03448,13.02764,0.05100504,-0.08973932,0.2361936,-0.2068046,-2.957413,-0.8401466,0.2839927,1.468251,0.3319778,0.06292773,-0.06149361,0.06373262,-1.159058,0.6664214,-0.01247025,0.4699709,1.48998,0.2356789,-0.1579181,1.324018,0.2335312,283.6393,313.3394,293.6163,True
5,1.27778,-0.2688583,-0.1461881,-0.1208291,4.623225,-4.600354,-1.982706,0.166075,1.326776,0.3653953,-0.7097431,0.3990082,11.16711,12.17056,0.06837183,-0.1153299,0.2765133,-0.202299,-2.948104,-0.8505252,0.2829855,1.468614,0.3307662,0.01262517,-0.06789947,0.04080337,-1.15946,0.6654032,-0.01023746,0.4689333,1.49,0.2345076,-0.1596604,1.324445,0.2326321,283.6023,312.361,294.5524,True
5,1.288891,-0.3105417,-0.1068773,-0.1114054,4.623427,-4.601269,-1.977853,0.1646834,1.327524,0.3647408,-0.7046735,0.4567664,11.32626,11.3349,0.1016726,-0.1036096,0.3274679,-0.1982457,-2.929077,-0.8715024,0.2818999,1.46892,0.3294296,-0.02816138,-0.07217176,0.01031684,-1.160446,0.6644476,-0.008114652,0.4677964,1.490102,0.2332754,-0.1612897,1.325023,0.231908,283.3956,311.8965,295.0249,True
5,1.300002,-0.366073,-0.0676825,-0.1200995,4.623355,-4.603098,-1.971977,0.1631369,1.328007,0.3634474,-0.6986547,0.5433528,11.48541,10.49925,0.0980809,-0.03751321,0.2978007,-0.1984524,-2.91372,-0.8875054,0.2808032,1.469102,0.3280845,-0.03571941,-0.07963847,0.0008041523,-1.160728,0.6630988,-0.006894125,0.4666342,1.490297,0.2321084,-0.1628189,1.325614,0.2313687,283.1659,311.6371,295.2908,True
5,1.311113,-0.3809419,-0.07845954,-0.1360408,4.625465,-4.604446,-1.967554,0.1615465,1.328947,0.3626459,-0.6926104,0.545255,11.64456,9.706447,0.04866074,0.0593047,0.2812588,-0.1998314,-2.891696,-0.9078532,0.2796926,1.469368,0.3268349,-0.01326492,-0.076432,0.009103573,-1.160249,0.6623849,-0.00734127,0.4654644,1.490355,0.2308018,-0.1643402,1.326194,0.231017,283.0967,311.5293,295.4302,True
5,1.322224,-0.3722178,-0.1360487,-0.1592463,4.629598,-4.60546,-1.963795,0.1599955,1.330135,0.362184,-0.6872995,0.4785371,11.72414,9.042211,0.02829889,0.0848193,0.2750446,-0.1996199,-2.874527,-0.9242468,0.2786817,1.469586,0.3257003,0.0328586,-0.03274282,0.04166156,-1.15865,0.6635894,-0.009714679,0.4641151,1.490486,0.2297494,-0.1661067,1.326863,0.2307937,283.1843,311.6428,295.4667,True
5,1.333336,-0.361405,-0.1829592,-0.1771753,4.633976,-4.606475,-1.960236,0.158494,1.331322,0.3614779,-0.685014,0.202847,11.69761,8.3994,0.02413312,0.07200862,0.2835617,-0.1977717,-2.86021,-0.9385278,0.2777325,1.469851,0.3245687,0.04361458,-0.02527782,0.05220854,-1.15772,0.6635695,-0.0104063,0.4630061,1.490641,0.228642,-0.1682103,1.327743,0.2305849,283.2653,311.636,295.7391,True
5,1.344447,-0.3579866,-0.246937,-0.1950297,4.63966,-4.607213,-1.956455,0.1571316,1.33257,0.3612318,-0.6826475,0.2128825,11.61804,7.778013,0.04575285,0.004931629,0.2992714,-0.1935793,-2.85102,-0.9488118,0.2768182,1.470335,0.3235242,0.0361497,-0.02634334,0.05121557,-1.15726,0.6631731,-0.01038553,0.4618676,1.490741,0.2274444,-0.1703551,1.32887,0.2303925,283.1559,311.0902,296.4558,True
5,1.355558,-0.3579713,-0.2522483,-0.1918325,4.643113,-4.608189,-1.952442,0.1559195,1.333699,0.3606198,-0.6800451,0.2344608,11.48541,7.178059,0.0929324,-0.0567396,0.3169609,-0.1889353,-2.842128,-0.9602592,0.2758946,1.47086,0.3225081,0.0178554,-0.03381304,0.03329391,-1.157425,0.6624174,-0.009608419,0.460743,1.490774,0.2262866,-0.1723275,1.330204,0.2302554,282.8845,310.4224,297.2084,True
5,1.366669,-0.3612044,-0.2415976,-0.1897449,4.646058,-4.609253,-1.948368,0.1547036,1.33471,0.3602266,-0.6773399,0.2439049,11.35279,6.535248,0.1238441,-0.06090125,0.3178279,-0.1862764,-2.828471,-0.976073,0.2750459,1.471226,0.321372,-0.000411164,-0.04873367,0.01749972,-1.157766,0.6612635,-0.008505604,0.4596233,1.490929,0.2251029,-0.1740667,1.331679,0.2301693,282.5489,310.0287,297.6714,True
5,1.37778,-0.3506077,-0.2256176,-0.2026161,4.648845,-4.611436,-1.944904,0.1534389,1.335848,0.3600459,-0.6748993,0.2198614,11.16711,5.956715,0.1279163,-0.03422028,0.3018726,-0.1853555,-2.814237,-0.991497,0.2740598,1.471549,0.3202488,-0.01850507,-0.08283226,0.01874926,-1.157519,0.6588747,-0.006680806,0.4585058,1.491247,0.2239861,-0.1755432,1.333237,0.2301555,282.2074,309.7335,298.0161,True
5,1.388891,-0.3484243,-0.2405623,-0.2121438,4.652772,-4.612767,-1.941197,0.1520848,1.336936,0.3597417,-0.672968,0.1737162,10.98143,5.506749,0.1184202,-0.01406062,0.3275407,-0.1834055,-2.791391,-1.014848,0.2731955,1.471838,0.3191683,-0.01533091,-0.125446,0.01553433,-1.157335,0.6557918,-0.005465073,0.4572964,1.491374,0.2228522,-0.1768727,1.334885,0.2301738,281.9749,309.852,297.9934,True
5,1.400002,-0.3365265,-0.2906814,-0.2343134,4.658656,-4.614051,-1.937939,0.1504586,1.338113,0.3595695,-0.6719224,0.0933058,10.82228,5.14249,0.112055,0.007194355,0.3425377,-0.181846,-2.768179,-1.038716,0.2722713,1.472031,0.3181267,-0.007913701,-0.1424902,0.01120195,-1.15735,0.6533864,-0.004676777,0.4561568,1.491501,0.2217023,-0.1781927,1.336627,0.2302221,281.7671,310.0044,297.8834,True
5,1.411114,-0.3364504,-0.3130826,-0.2406233,4.663652,-4.615249,-1.934197,0.1490436,1.338949,0.3585913,-0.6704226,0.1356088,10.66313,4.928219,0.1121503,-0.008797601,0.3499613,-0.1791769,-2.750306,-1.057557,0.2713236,1.472286,0.3170693,0.002832629,-0.1424869,0.02068503,-1.156753,0.65171,-0.004401673,0.4549951,1.491541,0.220525,-0.179631,1.338445,0.2303827,281.4993,310.0649,297.8165,True
5,1.422225,-0.3342561,-0.3312232,-0.2501383,4.668741,-4.616623,-1.930596,0.147609,1.339921,0.3584373,-0.6696476,0.06893594,10.5305,4.928219,0.122652,-0.02042316,0.3189828,-0.1772882,-2.739826,-1.069654,0.2702875,1.472497,0.3161278,0.0009212419,-0.1030711,0.04307216,-1.15541,0.6518804,-0.004465588,0.4540075,1.491602,0.2195036,-0.1812505,1.340285,0.2306477,281.1326,310.0647,297.8806,True
5,1.433336,-0.3237112,-0.303533,-0.2641037,4.672098,-4.619123,-1.927255,0.1465106,1.340941,0.358645,-0.6681759,0.1334212,10.50398,5.078208,0.1201389,-0.03094685,0.2508035,-0.1764089,-2.739029,-1.071733,0.2692784,1.472839,0.3151219,-0.006518781,-0.07644171,0.04527184,-1.154887,0.6518744,-0.004116182,0.4530567,1.491653,0.2184651,-0.1830626,1.342059,0.2309615,280.6747,310.2053,297.9392,True
5,1.444447,-0.3110197,-0.2758345,-0.2748645,4.675232,-4.62155,-1.924407,0.1452704,1.341754,0.3584363,-0.6673669,0.0723395,10.4244,5.378185,0.1211155,-0.03197846,0.2358809,-0.175106,-2.72978,-1.082187,0.2682063,1.473176,0.3141308,-0.01299991,-0.05513865,0.03680996,-1.154768,0.6520528,-0.003827761,0.4520044,1.491739,0.2173884,-0.1848772,1.343677,0.2311937,280.2899,310.5425,297.8804,True
5,1.455558,-0.2823615,-0.2438806,-0.2994964,4.678331,-4.624882,-1.922331,0.1440144,1.342157,0.357471,-0.6668332,0.04782182,10.29178,5.828155,0.1424999,-0.04364409,0.2421178,-0.1728349,-2.716153,-1.097975,0.2670926,1.473398,0.3130753,-0.01423991,-0.07219532,0.01871679,-1.155155,0.6503302,-0.003001383,0.4509177,1.491871,0.2163689,-0.1865308,1.345136,0.2314158,280.0015,310.0902,298.3645,True
5,1.466669,-0.2483327,-0.2246784,-0.3219373,4.681539,-4.628332,-1.920845,0.1426838,1.342789,0.3573954,-0.6666728,0.01389189,10.13263,6.320977,0.1178771,-0.01814309,0.2359299,-0.1723332,-2.702316,-1.112075,0.2659557,1.473483,0.3119471,-0.02380382,-0.08178447,0.02094533,-1.154849,0.6489854,-0.001869539,0.4498188,1.491959,0.2153141,-0.1879722,1.346498,0.2318214,279.8165,309.3604,299.0052,True
5,1.47778,-0.2355387,-0.2289135,-0.3261912,4.685534,-4.630993,-1.918567,0.1411582,1.343276,0.3572111,-0.6668167,-0.01367106,9.814323,6.899507,0.09772018,0.02325894,0.2713019,-0.1718399,-2.675594,-1.138742,0.2647749,1.47358,0.3108768,-0.0373418,-0.08710687,0.05197767,-1.153121,0.6477144,-0.0004551342,0.4486903,1.492015,0.2142127,-0.1894304,1.347782,0.2324089,279.5974,309.4658,299.0379,True
5,1.488891,-0.2312807,-0.2278463,-0.3293904,4.689172,-4.63369,-1.916212,0.139673,1.343809,0.3571477,-0.6668358,-0.002050278,9.496022,7.285194,0.08166692,0.06686267,0.2821429,-0.1724503,-2.651471,-1.162854,0.2635389,1.473667,0.3098207,-0.04243293,-0.06472476,0.07546089,-1.151479,0.6479158,2.663161E-05,0.4475044,1.492129,0.2132161,-0.1910104,1.348893,0.2330764,279.3062,310.1786,298.6028,True
5,1.500003,-0.2303028,-0.2034179,-0.3476008,4.692109,-4.637406,-1.913588,0.1382,1.344183,0.3566325,-0.6655207,0.1198105,9.28382,7.413754,0.06868196,0.10732,0.2705923,-0.173685,-2.63148,-1.182899,0.2622808,1.473716,0.3088434,-0.0530684,-0.03064336,0.07769184,-1.150608,0.6486833,0.0006053365,0.4462404,1.49215,0.2122817,-0.1927246,1.349756,0.2338702,279.0135,310.4355,298.5056,True
5,1.511114,-0.2228962,-0.1884869,-0.3497893,4.694882,-4.640615,-1.91145,0.1367933,1.344666,0.3566225,-0.6648427,0.06056653,9.124667,7.285194,0.08777962,0.09995458,0.2534149,-0.1735081,-2.618417,-1.197507,0.2609296,1.473827,0.3078723,-0.05512469,-0.01679583,0.08516614,-1.149466,0.6488642,0.001154747,0.4449857,1.492276,0.2112598,-0.194628,1.350374,0.2347626,278.7903,310.0403,299.0734,True
5,1.522225,-0.1931233,-0.1767902,-0.3828535,4.698029,-4.645217,-1.910167,0.1354697,1.345052,0.3568113,-0.6641476,0.06289571,8.992041,6.878078,0.1122436,0.07876217,0.2361754,-0.1728748,-2.607153,-1.210723,0.2595067,1.473866,0.3068712,-0.04640178,-0.006137267,0.1053182,-1.147594,0.6491904,0.001251686,0.4436668,1.492395,0.210366,-0.1966487,1.350829,0.2357319,278.671,309.2568,300.1032,True
5,1.533336,-0.1590274,-0.1767807,-0.4073626,4.701961,-4.649639,-1.909504,0.1339151,1.345264,0.3560514,-0.6642893,-0.01358722,9.045091,6.449537,0.10243,0.1054139,0.2139145,-0.1743593,-2.593807,-1.224541,0.2579583,1.474075,0.3059039,-0.05596837,0.006649666,0.1085972,-1.146485,0.6497284,0.002066613,0.4424693,1.49253,0.2093647,-0.1987213,1.351225,0.2367448,278.6267,308.3552,301.2916,True
5,1.544447,-0.1057201,-0.1883691,-0.4200889,4.705989,-4.653611,-1.910037,0.132375,1.345588,0.3561485,-0.6648555,-0.05181332,9.124667,5.913861,0.0926687,0.1245947,0.1959028,-0.1756919,-2.58109,-1.237774,0.2564062,1.474149,0.3049219,-0.06124369,0.03435196,0.11397,-1.145095,0.6512241,0.002283394,0.4411399,1.492563,0.2084405,-0.2006743,1.351637,0.237849,278.5596,307.2703,302.5566,True
5,1.555558,-0.07372148,-0.1989741,-0.4349515,4.71016,-4.657648,-1.910178,0.1308887,1.345962,0.3563108,-0.6652092,-0.03214914,9.23077,5.206769,0.0903154,0.118273,0.1564883,-0.176501,-2.576522,-1.243243,0.254889,1.474225,0.3038955,-0.07084538,0.04182221,0.1151039,-1.14412,0.6521928,0.003294863,0.4400626,1.492578,0.2076004,-0.2025601,1.35206,0.239122,278.3699,306.6937,303.3438,True
5,1.566669,-0.04281485,-0.2021075,-0.4455857,-1.568996,-4.661884,-1.910793,0.1292918,1.346217,0.3564386,-0.6660438,-0.07641262,9.336869,4.392543,0.1010343,0.08316676,0.1488926,-0.1757841,-2.569862,-1.251276,0.2531782,1.474285,0.3029282,-0.0773966,0.0428822,0.09918775,-1.143572,0.6526726,0.004160923,0.4387143,1.492652,0.2068026,-0.2045216,1.352415,0.2404594,278.09,306.6966,303.6865,True
5,1.577781,-0.05561936,-0.1968166,-0.4424179,-1.565426,-4.665782,-1.909574,0.1275119,1.34626,0.3561158,-0.6653077,0.06763257,9.23077,3.771157,0.1148816,0.0917293,0.1530888,-0.1763854,-2.556078,-1.266622,0.2514373,1.474026,0.3019416,-0.09715147,0.0535543,0.04501323,-1.145398,0.6541299,0.005726063,0.4374458,1.492739,0.2060995,-0.2064541,1.352566,0.2418743,277.8086,306.4749,304.1502,True
5,1.588892,-0.09279082,-0.170042,-0.4362785,-1.562406,-4.669695,-1.907812,0.1256575,1.34635,0.3562171,-0.6652699,0.00246178,9.045091,3.364045,0.09851706,0.1216018,0.1063772,-0.178859,-2.554118,-1.269067,0.2496401,1.473767,0.3009388,-0.1067961,0.06738372,0.038743,-1.14463,0.6551902,0.00662195,0.4354452,1.492576,0.2054088,-0.2084046,1.35247,0.2433775,277.6144,305.661,305.1747,True
5,1.600003,-0.1133484,-0.1394186,-0.4245505,-1.560861,-4.673784,-1.905234,0.123794,1.346322,0.3560953,-0.6631191,0.1964578,8.753316,3.235481,0.04163178,0.1971182,0.07599258,-0.1834822,-2.548294,-1.273289,0.2475527,1.473703,0.3000951,-0.1131597,0.0897544,0.04199838,-1.144019,0.6571255,0.007333281,0.4337996,1.492587,0.2047863,-0.2104923,1.352121,0.244949,277.4751,304.7962,306.3367,True
5,1.611114,-0.1188026,-0.1116477,-0.407609,-1.559598,-4.677593,-1.903432,0.122304,1.346532,0.3573453,-0.6621673,0.08522323,8.355438,3.235481,0.0393954,0.2194951,0.07072481,-0.1861614,-2.538905,-1.282954,0.2455187,1.473611,0.2992921,-0.1004688,0.1046771,0.03018385,-1.143545,0.6590425,0.006813698,0.4321404,1.492828,0.2041252,-0.2128413,1.351618,0.2464723,277.4731,303.6212,307.8948,True
5,1.622225,-0.08683163,-0.1157449,-0.3937378,-1.556993,-4.680869,-1.903465,0.1206569,1.346794,0.3574104,-0.6612554,0.08278811,7.931033,3.235481,0.03411328,0.2056293,0.07072941,-0.1877236,-2.531974,-1.289997,0.2436174,1.473486,0.2985101,-0.09002037,0.1110669,0.009836191,-1.144122,0.6606578,0.006804643,0.4304212,1.49291,0.2035379,-0.2153726,1.351143,0.2479258,277.5799,302.0464,309.791,True
5,1.633336,-0.06119648,-0.1379492,-0.3841074,-1.553508,-4.684813,-1.903458,0.1192822,1.348107,0.3597007,-0.6619814,-0.06693,7.639258,3.38547,0.02015945,0.1502856,0.02383129,-0.1878418,-2.538839,-1.283137,0.241798,1.473316,0.297714,-0.06980708,0.1142787,0.003310262,-1.143368,0.6623819,0.005642173,0.4288587,1.493021,0.2029984,-0.2178604,1.350885,0.2493562,277.7617,300.281,311.6992,True
5,1.644447,-0.06440961,-0.1347197,-0.3724011,-1.550925,-4.68789,-1.902599,0.1173886,1.348325,0.3598003,-0.6638733,-0.1723745,7.427056,3.642597,0.01724188,0.1225156,0.05468651,-0.1878471,-2.530424,-1.291483,0.239999,1.473093,0.2970719,-0.04088309,0.1110937,0.01899978,-1.142565,0.6636307,0.004625112,0.4269777,1.493014,0.2024891,-0.2199928,1.350965,0.2509664,277.8683,298.7419,313.2656,True
5,1.655559,-0.09225968,-0.0942228,-0.3480735,-1.550353,-4.691135,-1.900332,0.115398,1.34847,0.3604572,-0.6638856,0.0001318992,7.29443,4.028281,0.03658307,0.1129459,0.0769237,-0.1883963,-2.519655,-1.303112,0.2380498,1.472919,0.2964437,-0.004651934,0.134531,0.01971323,-1.142064,0.6660307,0.00240803,0.4248024,1.492943,0.202132,-0.2218338,1.351373,0.2527347,277.7999,297.2723,314.7826,True
5,1.66667,-0.1393449,-0.03240262,-0.3089722,-1.551162,-4.694719,-1.897107,0.1135622,1.349398,0.363049,-0.6628097,0.09807812,7.188327,4.499679,0.07523587,0.06192777,0.09464466,-0.1874013,-2.511089,-1.313485,0.2360452,1.472916,0.2959712,0.01861173,0.1579708,0.002424438,-1.14271,0.6688921,0.0002146508,0.4229017,1.493045,0.2017202,-0.2235165,1.352123,0.2549058,277.6261,295.7574,316.2715,True
5,1.677781,-0.1597363,0.01126876,-0.2931698,-1.551836,-4.697806,-1.89457,0.1115781,1.349348,0.3631961,-0.6612064,0.1457054,7.082227,4.949645,0.07516696,0.03318209,0.07332294,-0.1865763,-2.513026,-1.312526,0.2339159,1.472852,0.295361,0.01078705,0.1685972,-0.03266221,-1.144347,0.6710416,-0.0003382215,0.4207016,1.493044,0.2013695,-0.2255019,1.353107,0.257238,277.3202,296.999,315.4473,True
5,1.688892,-0.1651147,0.02082682,-0.3038619,-1.551361,-4.701862,-1.89235,0.1096498,1.349347,0.3638501,-0.6601683,0.09384031,7.029178,5.549603,0.07408946,0.01402892,0.06157647,-0.1860937,-2.512146,-1.314102,0.2317787,1.472616,0.2946444,-0.003088094,0.1483333,-0.03258879,-1.145595,0.6717262,0.0003800331,0.4183065,1.493197,0.201138,-0.2277787,1.354271,0.2596422,277.1735,298.3766,314.3027,True
5,1.700003,-0.1639409,-0.01014243,-0.3239808,-1.548936,-4.705576,-1.890465,0.1076038,1.349419,0.3641775,-0.6609129,-0.06864499,7.029178,6.213842,0.06559193,0.0437934,0.08086625,-0.1871616,-2.501838,-1.32472,0.2294956,1.472306,0.2939723,-0.005392838,0.1142397,-0.05066967,-1.146745,0.6718647,0.0004628574,0.4161269,1.49324,0.2007639,-0.2301839,1.355724,0.2623031,277.1703,299.2692,313.5089,True
5,1.711114,-0.1596523,-0.01546106,-0.3357317,-1.547283,-4.710282,-1.888768,0.1057309,1.350201,0.365854,-0.6614834,-0.05136658,7.029178,6.878078,0.05047024,0.09064677,0.07146353,-0.1896448,-2.495857,-1.330713,0.2271143,1.471841,0.2932575,-0.005528731,0.1046248,-0.06243268,-1.148462,0.6724122,0.0005424859,0.4142537,1.493316,0.2004116,-0.2326185,1.357331,0.264944,276.9558,301.9362,311.3865,True
5,1.722225,-0.1553761,-0.01970394,-0.3346491,-1.545738,1.569502,-1.887098,0.1035441,1.350168,0.3663332,-0.6619399,-0.04134391,7.055701,7.52089,0.02685362,0.1140423,0.05461212,-0.1915969,-2.493005,-1.333043,0.2247531,1.471604,0.2926209,-0.004477683,0.1216695,-0.06351198,-1.14921,0.6745397,-0.0003126551,0.4120044,1.493332,0.2000504,-0.2349607,1.358874,0.2673996,276.5608,304.7415,309.1419,True
5,1.733337,-0.1223083,-0.03349444,-0.3463092,-1.54363,1.565679,-1.886593,0.1010527,1.349845,0.3660595,-0.6622142,-0.02483138,7.082227,8.03514,0.01055366,0.1194107,0.005722791,-0.1932608,-2.499181,-1.326542,0.2223016,1.471353,0.2921066,-0.004387137,0.1536292,-0.0528968,-1.149802,0.6776429,-0.001398692,0.4098384,1.493339,0.199743,-0.2372267,1.360199,0.2695875,276.1731,305.9576,308.2135,True
5,1.744448,-0.07317743,-0.06963085,-0.3663948,-1.540187,1.561766,-1.887346,0.09886506,1.349874,0.3665681,-0.6622296,-0.00116855,7.188327,8.485106,0.04562503,0.0791115,-0.02866782,-0.1931442,-2.506572,-1.320937,0.2197344,1.471029,0.2915485,0.007353872,0.2037015,-0.04982999,-1.150331,0.68195,-0.003634682,0.4073767,1.493385,0.1993663,-0.2394667,1.361324,0.2717455,275.9228,305.831,308.3389,True
5,1.755559,-0.0569483,-0.1411468,-0.4247497,-1.534314,1.555775,-1.887012,0.0968698,1.350324,0.3686459,-0.6633455,-0.102099,7.400529,8.870793,0.08818604,0.05691898,-0.04814364,-0.1933045,-2.511761,-1.318241,0.2172562,1.470686,0.2909024,0.053188,0.2420598,-0.04603963,-1.150818,0.6861725,-0.007386011,0.4053083,1.493542,0.1989892,-0.2419025,1.36217,0.2737804,275.6631,307.5219,306.9717,True
5,1.76667,-0.09541134,-0.105092,-0.4344907,-1.53309,1.5507,-1.884277,0.09451488,1.350281,0.3693285,-0.6645727,-0.1114383,7.692308,9.170771,0.1094733,0.09956133,-0.02900906,-0.1957642,-2.506608,-1.325238,0.214378,1.470351,0.2902877,0.06722738,0.2846879,-0.02489422,-1.150668,0.6911436,-0.01040817,0.4029305,1.493541,0.1985855,-0.2445578,1.362569,0.2754954,275.3628,309.4575,305.4979,True
5,1.777781,-0.06980942,-0.1177318,-0.4173933,-1.530403,1.547372,-1.883976,0.09180394,1.349962,0.369453,-0.6634536,0.1029713,8.01061,9.299335,0.1074988,0.1420712,0.017965,-0.1982233,-2.494331,-1.338387,0.2116958,1.470109,0.2897701,0.06150328,0.3177319,0.0422807,-1.148028,0.6963221,-0.01295495,0.4002686,1.493562,0.198138,-0.2471335,1.362366,0.2770166,275.059,307.5865,307.3676,True
5,1.788892,-0.02493438,-0.1601076,-0.3948421,-1.526183,1.54495,-1.885136,0.08937761,1.349956,0.3701212,-0.6607681,0.2444662,8.302388,9.492177,0.100859,0.1591558,-0.01391962,-0.2007171,-2.496968,-1.336763,0.2090311,1.469707,0.2893806,0.06619133,0.2793896,0.08380087,-1.145715,0.6982213,-0.01466416,0.3973317,1.493641,0.1978691,-0.2497359,1.361686,0.2788613,274.9442,301.823,312.7598,True
5,1.800003,0.01674717,-0.2046124,-0.3669629,-1.521376,1.543294,-1.886817,0.08674258,1.349248,0.3692966,-0.6628597,-0.1930991,8.620689,9.642169,0.0921678,0.1230068,-0.06081416,-0.2014538,-2.508179,-1.3266,0.2063007,1.469113,0.2889912,0.08361802,0.1845888,0.119867,-1.143127,0.6970161,-0.01568842,0.3945639,1.493762,0.1974671,-0.2527006,1.36091,0.2811184,275.2024,298.737,315.9739,True
5,1.811115,0.02635447,-0.2109721,-0.3658726,-1.517772,1.540134,-1.887097,0.08422324,1.34858,0.3688359,-0.6644651,-0.1450304,8.965518,9.792157,0.08989664,0.1017604,-0.09493665,-0.2023086,-2.517907,-1.31804,0.2035662,1.468693,0.2886691,0.1092926,0.1153506,0.1281641,-1.141402,0.6960692,-0.01743838,0.3915476,1.493997,0.1971202,-0.255826,1.360116,0.2834671,275.3582,297.5599,317.7698,True
5,1.822226,0.03272024,-0.2013924,-0.3733649,-1.514562,1.53656,-1.887488,0.08164212,1.348219,0.3692455,-0.664848,-0.03415037,9.336869,9.985,0.0867385,0.08790348,-0.09601041,-0.2030341,-2.523021,-1.31389,0.2007166,1.468238,0.2882609,0.1339779,0.09937982,0.146031,-1.139205,0.6967282,-0.02001925,0.3887948,1.494122,0.1967471,-0.2587577,1.359193,0.2855644,275.3006,296.8037,319.3161,True
5,1.833337,0.03264187,-0.1811324,-0.3659864,-1.512087,1.533381,-1.887521,0.07917529,1.34756,0.3688188,-0.6632672,0.1444952,9.575595,10.19927,0.07176207,0.08894286,-0.1055029,-0.2044983,-2.528058,-1.309252,0.1977572,1.467784,0.2877855,0.1661071,0.1121746,0.1627624,-1.136737,0.6989038,-0.02389308,0.385796,1.494161,0.1963723,-0.2615473,1.357964,0.2869733,275.1034,296.8281,320.0864,True
5,1.844448,0.03784316,-0.1437257,-0.3394977,-1.510984,1.530788,-1.887975,0.07654369,1.34705,0.3692365,-0.6630323,0.0201426,9.761274,10.41354,0.04171598,0.1261646,-0.1212207,-0.20762,-2.533843,-1.302926,0.1947736,1.467217,0.2873256,0.177711,0.1292138,0.1519904,-1.135503,0.7010439,-0.02706038,0.3828759,1.494286,0.1960795,-0.2643288,1.356469,0.287685,275.0892,294.7638,322.3889,True
5,1.855559,0.0378238,-0.1446424,-0.3086577,-1.508505,1.528179,-1.887938,0.07436708,1.347353,0.3714235,-0.6625322,0.04559339,9.920423,10.58496,0.04153842,0.1879432,-0.1178969,-0.2120143,-2.533874,-1.303401,0.1916133,1.466849,0.2867424,0.1701682,0.1355994,0.1435492,-1.134157,0.7029182,-0.02945376,0.3799504,1.494363,0.1957147,-0.2671738,1.354885,0.2880193,275.2534,291.0286,325.9276,True
5,1.86667,0.04527467,-0.1721371,-0.242468,-1.50524,1.528348,-1.88838,0.07143804,1.34598,0.3702865,-0.6627777,-0.0229091,10.07958,10.67066,0.04154673,0.2252112,-0.09543885,-0.2160628,-2.52912,-1.308422,0.1883977,1.466096,0.2860653,0.1767202,0.1409326,0.1594627,-1.131936,0.7050259,-0.03248844,0.3768806,1.494387,0.1953349,-0.2700382,1.353358,0.288178,275.4955,287.8391,328.8934,True
5,1.877781,0.04854304,-0.1773311,-0.2275664,-1.502677,1.527421,-1.889159,0.06876275,1.34537,0.3706245,-0.6622557,0.04793546,10.23872,10.56353,0.0007957816,0.2294059,-0.1345937,-0.2190887,-2.539263,-1.296879,0.1852908,1.465499,0.2853174,0.1832517,0.1302849,0.1732593,-1.129414,0.7063208,-0.03532284,0.3738679,1.494481,0.1949923,-0.2728486,1.352044,0.2884743,275.7976,284.3694,331.8831,True
5,1.888893,0.05607251,-0.2038237,-0.1955002,-1.49924,1.527496,-1.89,0.06593487,1.344525,0.3702891,-0.6624458,-0.01789914,10.39788,10.52068,-0.0747855,0.2503986,-0.1159881,-0.2222216,-2.539859,-1.292781,0.1821125,1.465081,0.2854156,0.2085012,0.08448795,0.2454572,-1.124204,0.7056636,-0.03841423,0.3707449,1.49444,0.1946092,-0.2754991,1.351071,0.2892576,275.9464,281.5387,334.4398,True
5,1.900004,0.06039662,-0.2239868,-0.1880175,-1.495658,1.525826,-1.890674,0.06348434,1.344948,0.373071,-0.6628203,-0.03414255,10.47745,10.39211,-0.09403974,0.2971915,-0.1051241,-0.2272209,-2.536128,-1.294851,0.1790485,1.463827,0.285522,0.2271903,0.06213135,0.3028035,-1.118958,0.7057971,-0.04157088,0.3676525,1.494441,0.1944025,-0.2782128,1.350255,0.2900791,275.7021,281.5728,334.8879,True
5,1.911115,0.05512321,-0.2410482,-0.1868954,-1.491861,1.524712,-1.890971,0.06041428,1.343838,0.3723023,-0.6627687,0.004978919,10.45093,10.13499,-0.1046137,0.2801002,-0.1029663,-0.2298601,-2.53903,-1.2908,0.175883,1.463182,0.2853508,0.2572401,0.06640735,0.325956,-1.114544,0.7071598,-0.04586389,0.3645576,1.494383,0.1943059,-0.2809335,1.349459,0.2907575,275.4547,281.6034,335.2749,True
5,1.922226,0.05299719,-0.2441894,-0.1709045,-1.488745,1.524323,-1.891446,0.05764738,1.343176,0.3726158,-0.6626254,0.01295078,10.39788,9.706447,-0.125935,0.200224,-0.1466744,-0.2302372,-2.552146,-1.275879,0.1728173,1.46257,0.2851572,0.3147999,0.09624806,0.3296356,-1.110808,0.7097141,-0.05253911,0.3614536,1.494321,0.1942151,-0.2836423,1.348583,0.2912345,275.3786,279.2407,337.5788,True
5,1.933337,0.07213103,-0.2375869,-0.1422287,-1.486399,1.523409,-1.892839,0.05527166,1.343094,0.374578,-0.6621321,0.04498823,10.18567,9.1922,-0.1141294,0.1331861,-0.1681956,-0.2301632,-2.564515,-1.263066,0.1696874,1.461965,0.2847512,0.3314748,0.1463173,0.2943186,-1.108881,0.7135962,-0.05826011,0.3584442,1.494284,0.1942079,-0.2863742,1.347754,0.2920225,275.4505,275.3124,341.0702,True
5,1.944448,0.1008678,-0.231048,-0.1283935,-1.483935,1.523289,-1.894962,0.05271906,1.342286,0.374825,-0.6621668,-0.003581447,9.94695,8.763659,-0.08723947,0.1289299,-0.1289542,-0.2313989,-2.563185,-1.264319,0.1666701,1.461212,0.2844632,0.3227116,0.1782701,0.2709627,-1.106932,0.7171705,-0.06307191,0.3554887,1.494167,0.1941583,-0.2893351,1.346877,0.2929433,275.327,273.8389,342.7494,True
5,1.955559,0.113605,-0.2288455,-0.1273203,-1.478893,1.522062,-1.897353,0.04748866,1.340838,0.3769531,-0.6630898,-0.08434694,9.734747,8.442253,-0.1119967,0.2428048,-0.1115223,-0.2401799,-2.561276,-1.263432,0.1604724,1.459183,0.2837272,0.2478564,0.216599,0.2429469,-1.102697,0.7240407,-0.06948453,0.349513,1.493729,0.1942317,-0.2921873,1.34589,0.29391,275.3461,272.3092,344.375,True
5,1.966671,0.09229974,-0.2319717,-0.08790897,-1.476176,1.523213,-1.897747,0.04419449,1.339501,0.3758678,-0.6649317,-0.1677856,9.575595,8.206554,-0.1453625,0.3066708,-0.1335629,-0.2462838,-2.563226,-1.258765,0.1572628,1.458109,0.2835078,0.2457896,0.2123372,0.2493705,-1.099759,0.7266154,-0.07334159,0.3463738,1.493448,0.194381,-0.2952422,1.344845,0.2951739,275.3083,269.1877,347.1975,True
5,1.977782,0.09646369,-0.2222137,-0.05386266,-1.474777,1.524052,-1.898421,0.04164329,1.33904,0.3773212,-0.6627825,0.1976721,9.442968,7.906577,-0.186732,0.3320189,-0.09170663,-0.2504815,-2.55578,-1.262507,0.1543458,1.457119,0.2834041,0.2682566,0.2070102,0.2587479,-1.096608,0.7291795,-0.07832064,0.3434595,1.493215,0.1944573,-0.2992491,1.343505,0.296893,274.9822,266.42,349.8491,True
5,1.988893,0.1018125,-0.2337312,-0.005878285,-1.472476,1.526556,-1.899984,0.03895938,1.338186,0.3776109,-0.66142,0.1226016,9.389919,7.778013,-0.1974618,0.2841315,-0.1290202,-0.2526791,-2.564064,-1.251953,0.1515506,1.455976,0.2833242,0.3106979,0.1984933,0.2412799,-1.094673,0.7315763,-0.08440995,0.3405492,1.49295,0.1946301,-0.3029364,1.341644,0.298692,274.9717,267.3738,349.5464,True
5,2.000004,0.1018125,-0.2337312,-0.005878285,-1.472476,1.526556,-1.899984,0.03895938,1.338186,0.3776109,-0.6616219,-0.01935411,9.389919,7.885149,-0.1974618,0.2841315,-0.1290202,-0.2526791,-2.564064,-1.251953,0.1515506,1.455976,0.2833242,0.3106979,0.1984933,0.2412799,-1.094673,0.7315763,-0.08440995,0.3405492,1.49295,0.1946301,-0.3062639,1.339396,0.2999434,275.3191,268.6626,349.0684,True
5,2.011115,0.09437286,-0.2475036,0.01647878,-1.469461,1.527344,-1.900734,0.03658149,1.338085,0.3795879,-0.6611351,0.04488552,9.442968,8.185129,-0.1738056,0.2405007,-0.1164693,-0.2540357,-2.565824,-1.249235,0.1488596,1.454846,0.2834148,0.3145154,0.1718493,0.1965072,-1.094127,0.7326671,-0.08838419,0.3376142,1.492742,0.1948311,-0.3084646,1.33706,0.3006441,276.1141,268.7979,349.106,True
5,2.022226,0.07088555,-0.2326327,0.02493678,-1.467703,1.528553,-1.900817,0.03394943,1.337122,0.379909,-0.6624454,-0.120196,9.522545,8.592241,-0.1648044,0.1403385,-0.091163,-0.2524176,-2.568664,-1.244998,0.1460561,1.453814,0.2834506,0.2930338,0.1516011,0.1786142,-1.092927,0.7338759,-0.09144843,0.3347874,1.492487,0.1950629,-0.3092584,1.335046,0.3007934,276.8818,268.527,349.3976,True
5,2.033337,0.02046549,-0.1293364,0.05535483,-1.468185,1.529226,-1.8998,0.02869686,1.33485,0.38027,-0.6619532,0.04605382,9.496022,8.82794,-0.1589822,0.1501317,-0.1785404,-0.257925,-2.587364,-1.223418,0.1404069,1.451904,0.2835104,0.2985433,0.1974138,0.1977343,-1.088366,0.7408701,-0.1013423,0.32907,1.491898,0.1955395,-0.3105131,1.333632,0.3004403,277.0806,266.3594,351.2492,True
5,2.044448,0.04066965,-0.1196238,0.07130488,-1.467719,1.530795,-1.901065,0.02637243,1.333802,0.3805051,-0.6603265,0.1483053,9.416446,9.277906,-0.1215738,0.07253845,-0.1991672,-0.2574424,-2.599153,-1.212013,0.1375515,1.450765,0.2833793,0.3284097,0.2059449,0.2017019,-1.086252,0.7440464,-0.1075464,0.3263483,1.491579,0.1958756,-0.3129849,1.332834,0.3000688,276.8991,262.6995,354.1116,True
5,2.055559,0.04712734,-0.1388266,0.05859599,-1.465718,1.531729,-1.901932,0.02391928,1.332797,0.3807087,-0.6610094,-0.0635169,9.336869,10.04928,-0.1627632,-0.03164431,-0.3674483,-0.2573934,-2.640662,-1.168653,0.1347943,1.44925,0.2832634,0.3410892,0.1931741,0.1898446,-1.084918,0.7462805,-0.1129042,0.3235962,1.491272,0.1960452,-0.3172266,1.332435,0.2999666,276.3722,261.3593,355.0153,True
5,2.06667,0.02697963,-0.1635566,0.01926252,-1.462367,1.531482,-1.901497,0.02081808,1.33118,0.37936,-0.662505,-0.1360221,9.257293,11.2492,-0.1995898,0.1117468,-0.2188495,-0.2619975,-2.623586,-1.181631,0.1318042,1.447958,0.2833889,0.3209479,0.2251312,0.2007042,-1.082633,0.7506059,-0.1178579,0.3207071,1.490989,0.196332,-0.3210416,1.331905,0.2998452,275.9836,262.7411,353.8625,True
5,2.077781,0.007821614,-0.1720769,0.04058919,-1.460437,1.533386,-1.90103,0.01777652,1.329415,0.377965,-0.662325,0.01761529,9.28382,12.42768,-0.1659527,0.2035238,-0.2444364,-0.2683673,-2.626807,-1.177893,0.1289065,1.446765,0.2833946,0.3158583,0.2613686,0.2241735,-1.079929,0.755953,-0.1237787,0.3179041,1.490691,0.1965709,-0.3237889,1.331029,0.2995708,275.847,262.7575,354.009,True
5,2.088892,0.007821614,-0.1720769,0.04058919,-1.460437,1.533386,-1.90103,0.01777652,1.329415,0.377965,-0.661101,0.1115868,9.363397,13.56331,-0.1659527,0.2035238,-0.2444364,-0.2683673,-2.626807,-1.177893,0.1289065,1.446765,0.2833946,0.3158583,0.2613686,0.2241735,-1.079929,0.755953,-0.1237787,0.3179041,1.490691,0.1965709,-0.3260085,1.329809,0.2991166,275.7475,261.1386,355.7383,True
5,2.100003,0.01719047,-0.1132099,0.1085444,-1.460811,1.537979,-1.902076,0.01258907,1.326508,0.3771291,-0.661436,-0.03148773,9.469496,14.4204,-0.1530621,0.1673437,-0.244597,-0.2736323,-2.645246,-1.157146,0.1236191,1.444327,0.283397,0.3849473,0.2390329,0.3140485,-1.070853,0.7630929,-0.1379011,0.3123976,1.490073,0.1974094,-0.3278925,1.328294,0.2984149,275.8961,259.8358,357.0918,True
5,2.111114,-0.009501998,-0.09207803,0.08501875,-1.460529,1.53827,-1.901151,0.01001009,1.325343,0.3772666,-0.6613098,0.01199018,9.549072,15.06321,-0.1351071,0.114956,-0.1254986,-0.2723295,-2.637238,-1.16398,0.1210045,1.443034,0.2834189,0.3667488,0.2091988,0.3046476,-1.06796,0.7650867,-0.1424312,0.3097006,1.489822,0.1977797,-0.3292856,1.326731,0.2975838,276.0696,259.3837,357.4773,True
5,2.122225,-0.03934831,-0.0837165,0.07112589,-1.459674,1.538791,-1.899756,0.007126719,1.323793,0.3761334,-0.6617524,-0.04052993,9.655171,15.49175,-0.1515896,0.01681782,-0.08511247,-0.2694602,-2.640241,-1.158802,0.118331,1.441687,0.2833881,0.3447307,0.216646,0.3400224,-1.063477,0.7689416,-0.1473298,0.3070875,1.489528,0.1981437,-0.332535,1.325108,0.2962531,275.6705,259.4449,357.5944,True
5,2.133336,-0.08732802,-0.07004847,0.06360152,-1.459503,1.539307,-1.897114,0.004318506,1.322597,0.376291,-0.6607904,0.08830652,9.70822,15.44889,-0.1970779,0.08076817,-0.1720575,-0.2743381,-2.652955,-1.142648,0.1157451,1.440326,0.2835059,0.3469721,0.2454116,0.3517137,-1.059672,0.7738931,-0.153731,0.3044468,1.48919,0.1985729,-0.3358705,1.323176,0.2944337,275.6494,259.6304,357.246,True
5,2.144447,-0.08732802,-0.07004847,0.06360152,-1.459503,1.539307,-1.897114,0.004318506,1.322597,0.376291,-0.6603186,0.04247813,9.681698,14.93465,-0.1970779,0.08076817,-0.1720575,-0.2743381,-2.652955,-1.142648,0.1157451,1.440326,0.2835059,0.3469721,0.2454116,0.3517137,-1.059672,0.7738931,-0.153731,0.3044468,1.48919,0.1985729,-0.3390106,1.321128,0.292542,276.0145,258.5641,357.7728,True
5,2.155558,-0.1118695,-0.05945385,0.07312755,-1.459229,1.540514,-1.895141,0.00137943,1.320807,0.3746226,-0.6618711,-0.1421508,9.655171,14.1847,-0.1897118,0.08189526,-0.1859642,-0.2766284,-2.660366,-1.13366,0.113022,1.439093,0.2835793,0.3542475,0.275234,0.3345953,-1.057226,0.7790293,-0.1604664,0.3018512,1.488798,0.1989827,-0.341444,1.319201,0.290799,276.6168,257.8855,357.9738,True
5,2.166669,-0.1119383,-0.0391566,0.08796465,-1.460038,1.541882,-1.894,-0.001261085,1.319644,0.3746672,-0.6594951,0.218598,9.655171,13.47761,-0.1737864,0.1149515,-0.1774741,-0.2793347,-2.661914,-1.130786,0.1103632,1.438089,0.2837806,0.3732423,0.3146527,0.3173546,-1.055097,0.7851158,-0.1682588,0.2993878,1.488479,0.1994286,-0.3424856,1.317679,0.2895305,277.2053,256.9774,358.3638,True
5,2.17778,-0.0682186,-0.05384074,0.1136046,-1.459641,1.544405,-1.895187,-0.003691971,1.31838,0.3738837,-0.6600165,-0.04953027,9.681698,12.89908,-0.1489258,0.02339849,-0.1661007,-0.2777112,-2.670815,-1.121319,0.1077562,1.436945,0.2837691,0.3847826,0.3007987,0.2991427,-1.052777,0.7889065,-0.1748845,0.2969945,1.488036,0.1999412,-0.3441963,1.316897,0.2887712,277.1903,256.5702,358.6601,True
5,2.188891,-0.05533257,-0.0847747,0.0956151,-1.457687,1.545577,-1.895041,-0.006181747,1.316941,0.3726189,-0.6611478,-0.1026293,9.787797,12.55624,-0.2323669,-0.04911038,-0.2594882,-0.2777011,-2.695529,-1.092173,0.1052712,1.435436,0.2837527,0.3558626,0.2688247,0.2834653,-1.050378,0.7915109,-0.179162,0.2944821,1.487601,0.2004964,-0.3466687,1.316682,0.2881707,276.7505,256.7849,358.7452,True
5,2.200002,-0.0553566,-0.07526445,0.07533801,-1.457229,1.545952,-1.894472,-0.008559912,1.315873,0.3724179,-0.6635319,-0.2170944,9.8939,12.40626,-0.273472,0.007010609,-0.1589778,-0.2786487,-2.688094,-1.094954,0.1029046,1.434083,0.2837751,0.3111189,0.2847947,0.2839089,-1.047894,0.7963327,-0.183556,0.2921636,1.487151,0.2010026,-0.3493364,1.316757,0.2876419,276.2862,257.0556,358.6371,True
5,2.211113,-0.05969589,-0.0550177,0.07520162,-1.457562,1.545732,-1.893512,-0.01064101,1.31545,0.3740416,-0.6625258,0.09374802,9.999999,12.3634,-0.279851,0.0527491,-0.1322123,-0.2810658,-2.685397,-1.094313,0.1004986,1.4328,0.2836969,0.2939953,0.3103628,0.276616,-1.045908,0.8019872,-0.1891718,0.2897955,1.486726,0.2015631,-0.3517705,1.316708,0.2869559,275.7249,256.6765,359.2855,True
5,2.222224,-0.06408812,-0.01760107,0.1134094,-1.459341,1.547772,-1.89289,-0.01288724,1.314247,0.3739288,-0.6619697,0.04977991,10.05305,12.34197,-0.2598185,0.0475623,-0.168568,-0.2828522,-2.694624,-1.083219,0.09826833,1.431742,0.2836823,0.2991585,0.3274061,0.2605816,-1.044407,0.8073537,-0.1953271,0.2876235,1.486291,0.2020848,-0.354045,1.316276,0.2859962,275.3278,255.0034,1.059087,True
5,2.233335,-0.06525992,0.0112712,0.1366907,-1.46116,1.548823,-1.892298,-0.01494935,1.313747,0.3754892,-0.6615953,0.03392541,10.05305,12.29912,-0.2749221,-0.00349319,-0.2261142,-0.2834109,-2.712206,-1.062922,0.09608227,1.430292,0.2836432,0.3126667,0.314658,0.2241935,-1.043985,0.8114757,-0.2015976,0.2854366,1.485659,0.2023926,-0.3561789,1.315505,0.2850617,275.3445,253.1087,2.429004,True
5,2.244446,-0.08012475,-0.002680823,0.1218237,-1.460973,1.549809,-1.890999,-0.01715708,1.312789,0.3753777,-0.6616773,-0.007740943,10.02653,12.23484,-0.2963075,0.01349154,-0.2302081,-0.2853684,-2.719972,-1.051456,0.09392071,1.428936,0.2836239,0.3091627,0.3040025,0.1922554,-1.043626,0.8152287,-0.2068917,0.2833089,1.485367,0.2029641,-0.3581899,1.314618,0.2846612,275.5829,252.5798,2.25403,True
5,2.255557,-0.1067208,-0.01883389,0.08666464,-1.460228,1.548617,-1.888522,-0.01895183,1.31244,0.3773589,-0.6618722,-0.01769599,9.94695,12.042,-0.3077786,0.04317123,-0.1736227,-0.2868517,-2.717252,-1.050185,0.09163764,1.427844,0.2836528,0.3237596,0.2976071,0.1612214,-1.043453,0.8189501,-0.2127442,0.2810841,1.484967,0.2034156,-0.3601779,1.313723,0.2847315,275.7308,253.9641,0.6339025,True
5,2.266668,-0.09825633,-0.01231077,0.1026043,-1.461506,1.549648,-1.887488,-0.02050439,1.31217,0.379097,-0.6612347,0.05848549,9.867373,11.63488,-0.2815187,0.0316748,-0.239859,-0.2892928,-2.732284,-1.033454,0.08960411,1.427005,0.2836227,0.3483702,0.2806084,0.1694637,-1.042133,0.8228486,-0.2197148,0.2790727,1.484357,0.2037189,-0.3621821,1.312943,0.2852884,275.842,255.2011,359.3904,True
5,2.277779,-0.06742766,0.008042142,0.1068009,-1.462649,1.550697,-1.887863,-0.02209395,1.311183,0.379097,-0.6603244,0.08275034,9.787797,11.07778,-0.217008,0.06572995,-0.1251395,-0.2896805,-2.72215,-1.042881,0.0879181,1.426103,0.2836776,0.3472872,0.2720835,0.1684262,-1.040719,0.8264269,-0.2252598,0.2772129,1.483949,0.2040808,-0.364257,1.312299,0.2861215,275.9013,255.0408,359.6985,True
5,2.28889,-0.04407057,0.03149553,0.09074053,-1.463841,1.550776,-1.887914,-0.02368638,1.310258,0.3788016,-0.661567,-0.1141393,9.761274,10.43497,-0.22442,-0.01412082,-0.1593478,-0.2886776,-2.736154,-1.026711,0.08617145,1.425035,0.2835789,0.3248211,0.2784994,0.1579675,-1.040347,0.8309734,-0.2305475,0.2753954,1.483519,0.2044628,-0.3661644,1.311939,0.2874748,276.1058,254.1332,0.3926411,True
5,2.300001,-0.03228236,0.0112857,0.08548877,-1.463715,1.551507,-1.888116,-0.0254747,1.309227,0.3794804,-0.6631692,-0.1453946,9.814323,9.920717,-0.2061209,-0.02901921,-0.1360658,-0.2882307,-2.740495,-1.020729,0.08471364,1.423624,0.2835467,0.2970088,0.271032,0.1465305,-1.039779,0.8343589,-0.2345571,0.2735896,1.483157,0.204761,-0.3677385,1.311936,0.2892793,276.0953,255.4789,359.1893,True
5,2.311112,-0.03739038,-0.05277074,0.05268886,-1.460717,1.551828,-1.88762,-0.02737418,1.307797,0.378582,-0.6630291,0.01390967,9.94695,9.577887,-0.1987646,0.04659447,-0.112519,-0.2914265,-2.735494,-1.023596,0.08320868,1.42213,0.2834125,0.2660506,0.2667985,0.1393663,-1.039368,0.8382874,-0.2385457,0.2719728,1.482792,0.2050459,-0.3691034,1.312062,0.291011,275.6915,258.0997,357.323,True
5,2.322223,-0.04903427,-0.07317439,0.01867118,-1.458967,1.551382,-1.886656,-0.0286788,1.306973,0.3789666,-0.6629454,0.007306172,10.1061,9.342188,-0.2311307,0.1551708,-0.1216833,-0.2968636,-2.731337,-1.023919,0.08181337,1.421067,0.2834334,0.2780535,0.246569,0.1669501,-1.037181,0.8413448,-0.2435187,0.2704129,1.482372,0.205205,-0.3704652,1.312081,0.2922556,275.2096,259.7979,356.2997,True
5,2.333334,-0.0374443,-0.02954896,-0.01029211,-1.459458,1.549561,-1.885952,-0.03083566,1.305539,0.3801651,-0.6621891,0.06903666,10.29178,9.256481,-0.104891,0.006414458,-0.1131926,-0.2947635,-2.740216,-1.016647,0.07905957,1.419631,0.2836871,0.3433467,0.135793,0.1950997,-1.031972,0.8424609,-0.2537217,0.2671413,1.481811,0.205827,-0.3719846,1.311767,0.2928782,274.7371,259.4054,357.0448,True
5,2.344445,-0.0374443,-0.02954896,-0.01029211,-1.459458,1.549561,-1.885952,-0.03083566,1.305539,0.3801651,-0.6611596,0.09352863,10.45093,9.470752,-0.104891,0.006414458,-0.1131926,-0.2947635,-2.740216,-1.016647,0.07905957,1.419631,0.2836871,0.3433467,0.135793,0.1950997,-1.031972,0.8424609,-0.2537217,0.2671413,1.481811,0.205827,-0.3738896,1.310947,0.292771,274.3858,256.0365,0.4572988,True
5,2.355556,-0.05012272,-0.02900633,-0.07207148,-1.454618,1.549005,-1.885494,-0.03620446,1.296767,0.3589668,-0.6625391,-0.1268335,10.58355,9.920717,0.01254996,-0.1699427,-0.1632884,-0.2894302,-2.776074,-0.9861105,0.07657239,1.418036,0.2840328,0.2949625,0.1538706,0.1508271,-1.031294,0.8471181,-0.2611597,0.2643564,1.481393,0.2061632,-0.3759055,1.30968,0.2923615,274.551,253.9628,2.049014,True
5,2.366668,-0.06390615,-0.04623415,-0.1114112,-1.452864,1.547099,-1.884017,-0.03722468,1.296265,0.3594582,-0.6635132,-0.08790839,10.66313,10.52068,0.01983735,-0.1049435,-0.1568154,-0.2916012,-2.775409,-0.9870367,0.07541654,1.417148,0.2841172,0.2886023,0.1922148,0.1562191,-1.030224,0.8515764,-0.2663102,0.2629577,1.481026,0.20632,-0.3778852,1.308015,0.2909843,273.9506,261.3996,356.7988,True
5,2.377779,-0.0594946,-0.09419669,-0.1250907,-1.449983,1.546111,-1.883446,-0.03791592,1.296093,0.3601344,-0.6614482,0.189394,10.68966,11.2492,0.0281054,-0.101641,-0.1952148,-0.2930132,-2.788862,-0.9745007,0.07448953,1.416475,0.2842059,0.3028307,0.1794427,0.1933632,-1.027295,0.8543427,-0.271672,0.2617598,1.480689,0.2064214,-0.3813879,1.304918,0.2854428,272.5791,273.1105,348.7365,True
5,2.38889,-0.05507603,-0.1442801,-0.1323575,-1.44631,1.545479,-1.882901,-0.03880417,1.295831,0.3605967,-0.6611697,0.02381168,10.6366,11.72059,0.03889079,0.06861483,-0.08520488,-0.2966959,-2.7673,-0.9960009,0.07384315,1.415421,0.2844014,0.3061332,0.114452,0.2029484,-1.02439,0.8537931,-0.2748483,0.2607041,1.480165,0.2065177,-0.3836997,1.300624,0.2774257,273.5232,260.2509,359.7254,True
5,2.400001,-0.03786961,-0.1942834,-0.1353747,-1.442512,1.544898,-1.883105,-0.03948966,1.295622,0.3614471,-0.6620309,-0.07872696,10.55703,12.23484,0.06547163,0.1059598,-0.07463468,-0.2989489,-2.764302,-1.000516,0.07315737,1.414661,0.2845697,0.3179355,0.08141867,0.2113707,-1.021785,0.8542336,-0.2788852,0.2595548,1.479807,0.2065499,-0.3848723,1.29633,0.2695724,275.6197,249.8924,5.878964,True
5,2.411112,-0.01206955,-0.2667357,-0.1595949,-1.436447,1.544154,-1.883729,-0.03991869,1.295584,0.3619671,-0.6621338,-0.008729002,10.47745,12.89908,0.1108231,0.04524502,-0.007924419,-0.2961105,-2.760557,-1.007012,0.07262135,1.414249,0.2849274,0.3551701,0.026032,0.2046181,-1.019383,0.8529279,-0.2834842,0.2588108,1.479556,0.2065959,-0.385359,1.293001,0.2638718,277.417,244.4197,7.848183,True
5,2.422223,0.009224351,-0.2613537,-0.1659897,-1.433678,1.543036,-1.884374,-0.04069388,1.29523,0.3627748,-0.6628448,-0.06502235,10.4244,13.67045,0.1033382,-0.1260981,-0.1009122,-0.2922244,-2.786975,-0.982544,0.07194281,1.413931,0.2851324,0.3529264,0.009007439,0.1918569,-1.017706,0.8535855,-0.2876582,0.2578843,1.479156,0.2064888,-0.3857107,1.291061,0.2611134,278.3252,241.2098,9.340473,True
5,2.433334,0.02308795,-0.2604299,-0.214992,-1.429719,1.540093,-1.884733,-0.0410684,1.29504,0.3632588,-0.6632736,-0.03871248,10.47745,14.50611,0.09530056,-0.3327329,-0.130049,-0.2846216,-2.817044,-0.9544551,0.07125419,1.413514,0.2852819,0.3014256,-0.01125684,0.1550925,-1.017043,0.8527833,-0.2888241,0.2571366,1.479025,0.2065532,-0.3860288,1.290445,0.2612888,278.4364,239.0096,11.36748,True
5,2.444445,0.01031626,-0.2585036,-0.2597326,-1.425894,1.536869,-1.883836,-0.04162279,1.294708,0.3640795,-0.6632448,0.00280793,10.5305,15.27748,0.1060226,-0.2263071,-0.06278944,-0.284653,-2.809414,-0.9631567,0.07060549,1.41272,0.2855167,0.2156799,-0.0006555095,0.1048128,-1.017694,0.8527846,-0.288125,0.2564999,1.478896,0.2067068,-0.3863818,1.290825,0.2638705,278.0573,236.9717,14.23761,True
5,2.455556,-0.01104137,-0.2394706,-0.280053,-1.422873,1.533697,-1.882489,-0.04213503,1.294463,0.3647752,-0.6630595,0.01679627,10.55703,15.94172,0.1384357,-0.1036207,-0.09789473,-0.2885615,-2.80972,-0.9655195,0.06985086,1.412256,0.2857172,0.182545,0.01850811,0.0944874,-1.017305,0.8539932,-0.2895831,0.2558326,1.478663,0.2067778,-0.3869627,1.291825,0.2681769,277.3751,235.9896,16.53887,True
5,2.466667,-0.01425476,-0.2412803,-0.1948693,-1.42044,1.534669,-1.882449,-0.04211387,1.294359,0.3655064,-0.6617396,0.1204434,10.58355,16.52025,0.1674846,0.02548833,-0.1574709,-0.2948311,-2.810475,-0.9678186,0.06936812,1.412115,0.285934,0.1568909,0.032363,0.08514422,-1.016961,0.8554678,-0.2915389,0.2553459,1.478306,0.2068474,-0.3876486,1.293014,0.2734714,276.6967,234.8818,19.18936,True
5,2.477778,-0.00145238,-0.2539108,-0.1639146,-1.417084,1.535004,-1.882802,-0.04250285,1.293916,0.3661025,-0.6611532,0.0525913,10.58355,17.09878,0.1459055,0.003159761,-0.213851,-0.2962788,-2.824975,-0.9547433,0.06894913,1.411862,0.2860944,0.148357,0.03343992,0.08308668,-1.016449,0.8563754,-0.2935587,0.2549306,1.478169,0.2069392,-0.3884861,1.294105,0.2790743,276.1592,233.8962,21.69948,True
5,2.488889,0.03053194,-0.2623261,-0.16174,-1.413521,1.534366,-1.884132,-0.04259732,1.293585,0.3665066,-0.6618648,-0.06534754,10.50398,17.37733,0.09018588,-0.0472803,-0.1198607,-0.2933674,-2.824305,-0.9545579,0.06864122,1.411418,0.2862492,0.1217134,0.008924723,0.08230721,-1.015204,0.8557687,-0.2935863,0.2545258,1.478212,0.206949,-0.3892195,1.294929,0.2842962,275.7937,234.3951,22.67176,True
5,2.5,0.04225665,-0.2687083,-0.1724011,-1.409739,1.532492,-1.884495,-0.04254821,1.293283,0.3669515,-0.6624549,-0.05341591,10.39788,17.37733,0.0445634,-0.003855318,-0.06730361,-0.2939778,-2.819499,-0.9581702,0.068454,1.410958,0.2864661,0.1045752,-0.02517055,0.07183675,-1.014355,0.854346,-0.2935046,0.2541836,1.478086,0.2069776,-0.3894794,1.295316,0.2883618,275.5163,235.4583,22.94775,True
5,2.511111,0.08582472,-0.2344486,-0.1629238,-1.407939,1.531467,-1.886825,-0.04260626,1.29289,0.3673003,-0.6635692,-0.1014805,10.29178,17.14163,0.03416272,0.07371242,0.01388229,-0.2951613,-2.804225,-0.9728032,0.06818473,1.410724,0.2867575,0.1215426,-0.05819222,0.06315196,-1.013482,0.8524981,-0.2944354,0.2539455,1.477894,0.2070637,-0.3895794,1.295156,0.2907885,275.3482,234.797,24.47925,True
5,2.522222,0.1473563,-0.1615181,-0.08113337,-1.40929,1.533356,-1.890863,-0.04278603,1.292303,0.3675683,-0.6627883,0.07218898,10.15915,16.77737,0.0382024,0.07911787,-0.01915801,-0.2970335,-2.806253,-0.9715686,0.06795064,1.410632,0.2870502,0.1323521,-0.08161233,0.07796267,-1.011752,0.8513699,-0.2957779,0.2536764,1.477797,0.2071426,-0.3895336,1.294373,0.2915795,275.406,232.6554,26.78328,True
5,2.533333,0.189812,-0.1154401,-0.04400314,-1.409908,1.534042,-1.894598,-0.04268566,1.291678,0.3678298,-0.6643479,-0.143443,10.1061,16.49882,0.05933148,-0.08889059,-0.1346826,-0.2944093,-2.839266,-0.9415643,0.06774321,1.410455,0.287266,0.09271426,-0.08802198,0.0559921,-1.01147,0.8499694,-0.2947664,0.2534002,1.477762,0.2073116,-0.3894799,1.293075,0.2911272,275.7358,230.8621,28.11239,True
5,2.544444,0.1972248,-0.107905,-0.03233431,-1.408839,1.533842,-1.896659,-0.04249772,1.291128,0.3681579,-0.6654947,-0.1037339,10.1061,16.2417,0.04018432,0.02171012,-0.07149909,-0.2968237,-2.826786,-0.9530266,0.06762916,1.410203,0.287765,-0.00174675,-0.03373305,-0.01338186,-1.014381,0.850942,-0.2920108,0.2531791,1.477745,0.2075987,-0.3894651,1.291388,0.2898909,276.0633,230.7347,27.51394,True
5,2.555555,0.2110457,-0.09932427,-0.02809959,-1.40801,1.53395,-1.899494,-0.04234692,1.290575,0.368355,-0.6651122,0.03545524,10.1061,15.96315,0.0493611,0.01229657,-0.1429521,-0.2991135,-2.837772,-0.9433694,0.06743813,1.410179,0.2880661,-0.03493069,0.02378755,-0.02798658,-1.015951,0.8533633,-0.2919128,0.2530551,1.477776,0.2078471,-0.3894179,1.289328,0.2881643,276.2748,232.1102,25.44254,True
5,2.566666,0.2364408,-0.04586826,0.002578538,-1.409326,1.534167,-1.903085,-0.04207703,1.290261,0.3685524,-0.6631873,0.1753483,10.13263,15.66317,0.05370546,0.01228623,-0.1291274,-0.2996844,-2.84093,-0.9411103,0.06723937,1.410201,0.2883646,0.0354395,-0.001764946,-0.02229434,-1.015572,0.8522646,-0.2939664,0.2529315,1.477697,0.208111,-0.3892655,1.286916,0.2862939,276.5969,232.8194,24.02804,True
5,2.577777,0.2628489,0.02148869,0.04601669,-1.412508,1.535279,-1.907123,-0.04191408,1.28976,0.3687224,-0.6634802,-0.0284119,10.15915,15.29891,0.04817932,-0.05896468,-0.1984836,-0.3001883,-2.858961,-0.9242601,0.06737053,1.409883,0.2886648,0.08971202,-0.07099278,-0.03027648,-1.015141,0.8486061,-0.2948759,0.2527772,1.477777,0.208391,-0.3890996,1.284356,0.2846887,277.1299,233.0857,23.05321,True
5,2.588888,0.2425908,0.02673652,0.04173307,-1.413008,1.53553,-1.909127,-0.04216406,1.289274,0.3689682,-0.6640794,-0.05456586,10.1061,14.82751,0.01137079,-0.06243478,-0.1226262,-0.2988243,-2.857321,-0.9246953,0.0672313,1.409657,0.2889555,0.05560375,-0.07419952,-0.03206226,-1.015267,0.8473155,-0.2938026,0.2525778,1.477876,0.2086608,-0.3889386,1.281886,0.2836466,277.6736,234.1477,21.43679,True
5,2.599999,0.1946019,0.04359157,0.0310027,-1.413754,1.53516,-1.909509,-0.04239419,1.288852,0.3692546,-0.6642046,-0.01114872,10.07958,14.44182,-0.03418016,0.006509904,-0.04337198,-0.2995279,-2.84534,-0.9340494,0.06704846,1.409737,0.2893138,0.02803325,-0.04651631,-0.01794309,-1.015125,0.8478576,-0.2932239,0.2524792,1.477913,0.2089202,-0.3887454,1.279689,0.2832947,278.0702,236.5626,18.74696,True
5,2.61111,0.1946019,0.04359157,0.0310027,-1.413754,1.53516,-1.909509,-0.04239419,1.288852,0.3692546,-0.662113,0.1911614,10.07958,14.14185,-0.03418016,0.006509904,-0.04337198,-0.2995279,-2.84534,-0.9340494,0.06704846,1.409737,0.2893138,0.02803325,-0.04651631,-0.01794309,-1.015125,0.8478576,-0.2932239,0.2524792,1.477913,0.2089202,-0.3886449,1.277813,0.2835459,278.2487,239.0727,16.28032,True
5,2.622221,0.1679397,0.05310131,0.03202195,-1.414743,1.535224,-1.910502,-0.04243162,1.288478,0.3695126,-0.6598994,0.2006996,10.15915,13.97043,-0.04620286,-0.007262021,-0.0997875,-0.300787,-2.853769,-0.9250663,0.06686074,1.409811,0.2895489,0.03263891,-0.01454667,0.0171585,-1.014122,0.8493803,-0.2944931,0.2523326,1.477863,0.2091885,-0.3888638,1.276313,0.2842474,278.4459,240.6592,14.93398,True
5,2.633332,0.1742754,0.07123469,0.03302235,-1.417064,1.535255,-1.914541,-0.04230055,1.287907,0.3699875,-0.6602898,-0.03714935,10.34483,13.97043,0.0260395,0.01752109,-0.1193613,-0.3043056,-2.862179,-0.9197142,0.06679094,1.409537,0.2900677,0.05088011,-0.01346241,0.02974838,-1.012994,0.8495315,-0.2965185,0.2520618,1.477878,0.2096674,-0.3892552,1.275356,0.2852231,278.7164,241.8792,14.02953,True
5,2.644443,0.1540755,0.0561994,0.01815901,-1.416952,1.535045,-1.915569,-0.04212585,1.287691,0.3702028,-0.6629002,-0.2380515,10.6366,14.14185,0.03062741,0.01743329,-0.06612545,-0.3036451,-2.858102,-0.9240807,0.06661856,1.409513,0.2902861,0.02825875,0.0003758408,0.005464755,-1.014055,0.8497187,-0.2960815,0.2520289,1.477945,0.2099452,-0.3896417,1.274948,0.286371,278.7455,242.653,13.50965,True
5,2.655554,0.1412638,0.06573588,0.01492259,-1.41797,1.534718,-1.916649,-0.04214546,1.287499,0.3704684,-0.6625103,0.03766518,10.95491,14.39897,0.01762766,0.04406774,-0.08729761,-0.3058353,-2.859745,-0.9222348,0.06643686,1.409583,0.2906387,0.02396495,0.01740718,0.00337478,-1.014212,0.8503947,-0.2964719,0.2519515,1.478005,0.2102494,-0.3896906,1.274822,0.2875895,278.4454,243.3731,13.03508,True
5,2.666665,0.1263201,0.07212147,0.02554751,-1.419236,1.535025,-1.917504,-0.04218397,1.287289,0.3707688,-0.6612826,0.1116945,11.27321,14.69895,0.02843906,0.05469194,-0.05645094,-0.3065639,-2.857098,-0.9254229,0.06641781,1.409735,0.2910504,0.03486904,0.003568188,0.02777149,-1.013046,0.8503552,-0.2972093,0.2519041,1.477994,0.2105649,-0.3894689,1.274762,0.2887109,278.1536,243.822,12.88699,True
5,2.677776,0.1263201,0.07212147,0.02554751,-1.419236,1.535025,-1.917504,-0.04218397,1.287289,0.3707688,-0.6612704,0.000246851,11.61804,15.02035,0.02843906,0.05469194,-0.05645094,-0.3065639,-2.857098,-0.9254229,0.06641781,1.409735,0.2910504,0.03486904,0.003568188,0.02777149,-1.013046,0.8503552,-0.2972093,0.2519041,1.477994,0.2105649,-0.3891763,1.274684,0.2896149,278.0024,243.8177,13.13183,True
5,2.688887,0.1081765,0.0742469,0.04147612,-1.420057,1.535233,-1.917908,-0.04186943,1.287426,0.3709252,-0.6602759,0.091089,11.83024,15.2132,-0.01168,-0.06581529,-0.05857487,-0.3031791,-2.868723,-0.9127428,0.06649017,1.409965,0.291352,0.02647898,-0.02094579,0.04064389,-1.011861,0.8492488,-0.2965973,0.2519338,1.477999,0.2108548,-0.3890289,1.274591,0.2902518,277.9303,244.158,12.94201,True
5,2.699998,0.08694252,0.05385417,0.01810628,-1.419773,1.5347,-1.918051,-0.04175121,1.28746,0.3711565,-0.6611255,-0.07834253,11.90981,15.34176,-0.03173492,-0.109572,-0.05108218,-0.3012531,-2.875232,-0.9054846,0.06651425,1.409913,0.2916608,0.007080661,-0.02841442,0.0184696,-1.012206,0.8484297,-0.2955864,0.2519152,1.478043,0.2111783,-0.3890365,1.274511,0.2905617,277.9523,244.5614,12.62005,True
5,2.711109,0.05612773,0.02808391,-0.01059755,-1.418695,1.533477,-1.91735,-0.04163373,1.287534,0.3714869,-0.6609401,0.01777124,11.93634,15.40604,-0.01785448,-0.05526255,-0.01804022,-0.3018906,-2.869908,-0.9109398,0.06651998,1.409818,0.2919676,-0.02206009,-0.01138498,-0.01852181,-1.013784,0.8485872,-0.2944351,0.2519405,1.478007,0.211446,-0.3890253,1.274425,0.2905811,277.9582,245.0395,12.0901,True
5,2.72222,0.03594363,0.01094164,-0.02013037,-1.418091,1.533092,-1.91703,-0.04162189,1.28761,0.3718019,-0.6608847,0.004979716,11.93634,15.42747,0.002266359,0.02146212,0.002231578,-0.3037894,-2.861901,-0.9193163,0.06644899,1.409844,0.2922983,-0.01471662,0.007789546,-0.02925488,-1.014694,0.8492116,-0.2948247,0.2519454,1.477971,0.2118192,-0.3886264,1.274308,0.2906,277.9466,245.6856,11.34399,True
5,2.733331,0.02955982,0.003511419,-0.006248604,-1.418098,1.53376,-1.917176,-0.04179323,1.28753,0.37218,-0.6602988,0.05359873,11.93634,15.42747,0.02561318,0.06945311,0.01284011,-0.3054507,-2.855585,-0.9264493,0.06643113,1.41002,0.292737,0.004477407,0.00673434,-0.02731661,-1.014816,0.8492802,-0.295642,0.2519181,1.477865,0.2121179,-0.3885949,1.274223,0.2904011,278.0978,244.5612,12.30573,True
5,2.744442,0.03171222,-0.0080739,0.02788493,-1.418105,1.535355,-1.91782,-0.04178891,1.287596,0.3725147,-0.6606674,-0.03400087,11.98939,15.49175,0.02680153,0.05558193,0.02558859,-0.3051242,-2.853288,-0.9290059,0.06649086,1.410282,0.2932074,0.02895642,0.006740648,-0.02969511,-1.015206,0.8492305,-0.296837,0.2519431,1.477849,0.2125199,-0.3886138,1.274238,0.2902902,278.1946,243.579,13.02013,True
5,2.755553,0.03718586,-0.06127755,0.03660544,-1.416151,1.53751,-1.919125,-0.04158708,1.287509,0.3730323,-0.6611835,-0.04674563,12.06897,15.40604,0.003466241,-0.1179824,-0.04706514,-0.301065,-2.879501,-0.9033338,0.0668399,1.410115,0.293905,0.006578643,0.0291108,-0.02948056,-1.016311,0.8506202,-0.2970746,0.2521858,1.477936,0.2132237,-0.3887021,1.27438,0.2903517,278.2011,243.0541,13.37395,True
5,2.766664,0.009532192,-0.07004651,-0.00705081,-1.414631,1.536452,-1.918179,-0.041493,1.28757,0.3732986,-0.6624736,-0.1175227,12.17507,15.08464,-0.02505948,-0.06068934,0.02140753,-0.3005862,-2.870421,-0.9105803,0.06685656,1.409927,0.2942867,-0.009434208,0.00141393,-0.03357901,-1.016634,0.8494713,-0.295715,0.2524544,1.478016,0.2136066,-0.388809,1.274058,0.290427,278.2848,243.8165,12.51767,True
5,2.777775,-0.007549929,-0.05732157,-0.009227975,-1.414452,1.536315,-1.91748,-0.04160258,1.287472,0.3736691,-0.6615931,0.08151687,12.30769,14.52753,-0.01969924,-0.03620725,0.03953431,-0.3002965,-2.866586,-0.9142142,0.0668734,1.409944,0.2946591,-0.004036594,-0.01562124,-0.02723297,-1.016473,0.84874,-0.2955565,0.2526553,1.478005,0.2140055,-0.3887426,1.272352,0.2908654,279.1422,241.4678,15.23222,True
5,2.788886,-0.007549929,-0.05732157,-0.009227975,-1.414452,1.536315,-1.91748,-0.04160258,1.287472,0.3736691,-0.66058,0.09187005,12.44032,13.71331,-0.01969924,-0.03620725,0.03953431,-0.3002965,-2.866586,-0.9142142,0.0668734,1.409944,0.2946591,-0.004036594,-0.01562124,-0.02723297,-1.016473,0.84874,-0.2955565,0.2526553,1.478005,0.2140055,-0.3887073,1.270273,0.2916229,279.9816,241.4063,15.68453,True
5,2.799997,-0.01616003,-0.03169389,0.01411016,-1.415266,1.537026,-1.917108,-0.04157832,1.287419,0.3739715,-0.6613764,-0.07342084,12.54642,12.85623,-0.003991561,-0.003081001,0.01393241,-0.3019939,-2.866338,-0.914966,0.06700817,1.410256,0.2950299,0.01198951,-0.03052963,-0.02312971,-1.016293,0.8477015,-0.2957124,0.2528012,1.477945,0.2143941,-0.3889621,1.268527,0.2922085,280.374,245.5207,11.50301,True
5,2.811108,0.01143158,-0.001646772,0.05023026,-1.416915,1.538929,-1.918357,-0.04119506,1.287377,0.3742859,-0.6609183,0.042696,12.67905,11.93486,0.0006662682,-0.1021697,0.02755875,-0.2974245,-2.872087,-0.9094903,0.06744316,1.410567,0.2957339,-0.03404712,0.0354964,-0.04398672,-1.018474,0.8500293,-0.2951429,0.2531502,1.478133,0.2153049,-0.3892442,1.267566,0.292548,280.5771,248.0954,8.823833,True
5,2.822219,0.01572883,-0.0123182,0.04174915,-1.416615,1.539368,-1.918839,-0.04097056,1.287394,0.3744035,-0.661476,-0.05134764,12.81167,10.94922,-0.02533836,-0.1074238,-0.04580218,-0.2983246,-2.882968,-0.8979204,0.06763655,1.410518,0.2959132,-0.04912601,0.05039389,-0.05981386,-1.019759,0.8506256,-0.2944412,0.2533692,1.478207,0.2156856,-0.389368,1.267319,0.2926759,280.7653,248.1247,8.686009,True
5,2.83333,0.00937308,-0.02095092,0.0172766,-1.415877,1.538921,-1.918678,-0.04079488,1.287443,0.3745468,-0.6623905,-0.08312137,12.9443,9.920717,-0.03720956,-0.05313791,-0.04242343,-0.2997047,-2.882246,-0.8977423,0.06765389,1.410417,0.2962711,-0.0449594,0.0408047,-0.06944151,-1.02085,0.8504121,-0.2939549,0.2535592,1.47825,0.2160983,-0.3891547,1.267418,0.2926762,280.8633,247.4939,9.355884,True
5,2.844441,0.004021651,-0.01349048,0.02257327,-1.415963,1.539201,-1.918581,-0.04076198,1.287415,0.3747509,-0.6622552,0.01304783,13.02387,9.363616,-0.05093724,0.02765425,0.0196145,-0.300518,-2.868084,-0.910253,0.0677245,1.410541,0.296607,-0.02897197,0.01951007,-0.06959748,-1.021435,0.8496187,-0.2938921,0.2537938,1.478165,0.2163343,-0.388733,1.267657,0.2925337,280.7959,246.8529,10.05701,True
5,2.855552,0.0007788637,-0.000645712,0.04169978,-1.416758,1.540121,-1.918612,-0.04070145,1.287352,0.3749311,-0.6617039,0.0502148,13.07692,9.342188,-0.04678797,0.02770437,0.001478544,-0.3011673,-2.869094,-0.9089118,0.06781781,1.410744,0.2969868,-0.0001216084,0.01099822,-0.06136471,-1.021747,0.8492857,-0.294723,0.2539766,1.478166,0.2167504,-0.3882893,1.268002,0.2923163,280.6248,246.0007,10.85609,True
5,2.866663,0.008106449,0.03783802,0.07138853,-1.419011,1.541269,-1.91909,-0.04053661,1.287216,0.375,-0.6616182,0.007427509,13.1565,9.856439,-0.02175489,-0.06497479,0.03948869,-0.2971917,-2.872024,-0.9067379,0.06805006,1.411047,0.2973285,-0.009627061,0.02485913,-0.05275334,-1.022316,0.8502184,-0.2948511,0.2542458,1.478193,0.2172048,-0.387979,1.268484,0.2921319,280.4182,245.2887,11.39041,True
5,2.877774,0.009164993,0.04100945,0.06392006,-1.419803,1.541618,-1.919295,-0.04030195,1.28715,0.3750198,-0.6616869,-0.006249764,13.2626,10.7778,-0.02262735,-0.1320822,0.03616764,-0.2939949,-2.879993,-0.8988667,0.06828696,1.411084,0.2976444,-0.04370732,0.0610815,-0.05029231,-1.02346,0.8522886,-0.2942348,0.2545639,1.478257,0.2176738,-0.3877926,1.269077,0.2919936,280.1648,245.3135,11.17605,True
5,2.888885,0.009159973,0.04416184,0.05219002,-1.420363,1.541564,-1.91939,-0.04008397,1.287111,0.3750577,-0.6621359,-0.04101607,13.34218,11.95629,-0.04684753,-0.1170026,-0.08296822,-0.2963938,-2.895219,-0.8829415,0.06850389,1.410892,0.2978997,-0.05234101,0.07385951,-0.06086196,-1.024814,0.8533337,-0.2938913,0.2548039,1.478297,0.2180896,-0.3875891,1.269736,0.2918253,279.8676,245.9815,10.40447,True
5,2.899997,-0.001487548,0.04511547,0.03087606,-1.420716,1.541023,-1.918972,-0.03985244,1.287057,0.3751121,-0.6620358,0.00952368,13.3687,13.24191,-0.04978314,-0.05218595,-0.00716662,-0.2960045,-2.884873,-0.8921725,0.06860891,1.410792,0.2981539,-0.03631859,0.06535309,-0.05676196,-1.025444,0.8536813,-0.2942663,0.2550749,1.478151,0.2184994,-0.3872715,1.27043,0.2916085,279.5349,246.3284,10.07422,True
5,2.911108,-0.02816597,0.05995186,0.03187548,-1.421909,1.540974,-1.91779,-0.03969589,1.286996,0.3752449,-0.6619638,0.006440437,13.31565,14.61324,-0.06366938,-0.001137063,0.01326303,-0.2968061,-2.878795,-0.8967977,0.06871405,1.410762,0.2984385,-0.005355243,0.04299258,-0.05067757,-1.025717,0.8532596,-0.2949944,0.2552768,1.478108,0.2188864,-0.3868643,1.271096,0.2913096,279.2264,246.3328,10.00919,True
5,2.922219,-0.04948105,0.06100727,0.04677723,-1.422861,1.541694,-1.916598,-0.03953648,1.28695,0.3753769,-0.6615335,0.03928952,13.2626,15.94172,-0.07126292,0.04145122,0.01447423,-0.2981979,-2.872361,-0.9017762,0.06901994,1.410826,0.298795,0.01385196,0.04088305,-0.0476784,-1.026338,0.8537825,-0.2960258,0.2554573,1.478046,0.2193069,-0.386451,1.271702,0.2910178,278.9778,245.8755,10.31121,True
5,2.93333,-0.05375068,0.06003562,0.07554228,-1.424113,1.543222,-1.916036,-0.03933123,1.286967,0.3754859,-0.6607175,0.0743055,13.23607,17.01307,-0.04314045,-0.04054127,0.04076831,-0.2949834,-2.874896,-0.8997657,0.06944591,1.411081,0.2991405,0.02346076,0.04088644,-0.04564525,-1.02689,0.8541108,-0.2968173,0.2556719,1.478031,0.219667,-0.3861525,1.272239,0.2908097,278.762,245.6656,10.33116,True
5,2.944441,-0.0536646,0.03232637,0.07244921,-1.42389,1.544195,-1.915556,-0.03901732,1.287147,0.3755443,-0.6606429,0.006347362,13.1565,17.65588,-0.01324954,-0.09687312,0.02236437,-0.2927842,-2.883045,-0.8927768,0.06984562,1.411274,0.2994504,0.0244096,0.05153288,-0.0563128,-1.02815,0.8547875,-0.297311,0.2559559,1.478231,0.2200873,-0.3859067,1.272729,0.2906931,278.6608,246.2157,9.620851,True
5,2.955552,-0.03647158,-0.01350377,0.05238539,-1.422279,1.544713,-1.915862,-0.03865251,1.287426,0.3756061,-0.6613002,-0.05998596,13.0504,17.93443,-0.009102404,-0.1021486,0.001029167,-0.2920753,-2.887311,-0.8887477,0.07030544,1.411279,0.2997358,0.02552817,0.06963975,-0.04993684,-1.028851,0.8561113,-0.2981888,0.2563086,1.478366,0.2204063,-0.3857183,1.273208,0.2906194,278.5822,246.6224,9.223505,True
5,2.966663,-0.02889634,-0.04976781,0.03441282,-1.420513,1.545108,-1.915908,-0.03822753,1.287704,0.3756948,-0.6616368,-0.030173,12.91777,17.84872,-0.02454914,-0.06477616,-0.0659148,-0.294414,-2.894313,-0.8812328,0.0705657,1.411348,0.2999985,0.02684828,0.04834125,-0.02544095,-1.028321,0.8561667,-0.2985611,0.256668,1.478484,0.2206547,-0.385433,1.273637,0.2904857,278.5404,246.9047,9.018619,True
5,2.977774,-0.03525592,-0.06043626,0.03551511,-1.419657,1.545829,-1.915432,-0.03782228,1.287944,0.3758142,-0.6625444,-0.08274058,12.81167,17.48446,-0.02722221,0.02443651,0.0653186,-0.2938287,-2.874045,-0.9001296,0.07088417,1.411662,0.3003061,0.005659112,0.006785108,-0.01456177,-1.027804,0.8546771,-0.2971166,0.2570242,1.47849,0.2208784,-0.385032,1.274019,0.2902746,278.5365,246.2353,9.738003,True
5,2.988885,-0.0661176,-0.07324708,0.05366031,-1.419042,1.54733,-1.91384,-0.03729692,1.28829,0.3760185,-0.6623707,0.01651276,12.7321,17.05592,-0.009219669,0.04368456,0.05778888,-0.2943794,-2.870399,-0.9040406,0.07143971,1.411955,0.3005738,0.001685736,-0.01557935,0.01318417,-1.026586,0.8540039,-0.2966213,0.2574414,1.478549,0.2210927,-0.3845395,1.274282,0.2900459,278.5428,244.7935,11.13606,True
5,2.999996,-0.0661176,-0.07324708,0.05366031,-1.419042,1.54733,-1.91384,-0.03729692,1.28829,0.3760185,-0.661737,0.05774209,12.67905,16.5631,-0.009219669,0.04368456,0.05778888,-0.2943794,-2.870399,-0.9040406,0.07143971,1.411955,0.3005738,0.001685736,-0.01557935,0.01318417,-1.026586,0.8540039,-0.2966213,0.2574414,1.478549,0.2210927,-0.3839802,1.274466,0.2898913,278.5701,243.6838,12.1405,True
5,3.011107,-0.07354178,-0.08384744,0.06437261,-1.418911,1.548898,-1.913084,-0.03770968,1.289641,0.3781033,-0.6622483,-0.04723357,12.67905,16.17742,-0.002723664,0.04473271,0.07480051,-0.2937131,-2.865777,-0.9087454,0.07214418,1.412089,0.3009541,0.026233,-0.01771066,0.01826355,-1.026176,0.8538157,-0.2975219,0.2579209,1.478689,0.2212863,-0.3835575,1.27459,0.2898172,278.5913,243.3313,12.44392,True
5,3.022218,-0.06286673,-0.09230148,0.07399614,-1.418049,1.550458,-1.912945,-0.03705058,1.290142,0.3782554,-0.6605359,0.1570298,12.65252,15.74888,0.02837822,-0.01057446,0.07982355,-0.2915197,-2.866608,-0.9093102,0.07297391,1.412535,0.3012743,0.07834247,-0.01450201,0.009211162,-1.026368,0.8536872,-0.300053,0.258504,1.478955,0.2214358,-0.3833891,1.274759,0.2898335,278.506,243.2413,12.58226,True
