loc,t,aDotS,bDotS,gDotS,aS,bS,gS,xS,yS,zS,qE,qDotE,emgA,emgB,aDotSH,bDotSH,gDotSH,aSH,bSH,gSH,xSH,ySH,zSH,aDotUB,bDotUB,gDotUB,aUB,bUB,gUB,xUB,yUB,zUB,xHand,yHand,zHand,aHand,bHand,gHand,enable
5,0,0.1412245,0.09613072,-0.09879218,4.633767,1.476715,-2.752748,0.3627228,1.203073,0.4542124,-1.205306,0.06072611,10.87533,13.45618,0.09725481,-0.02289296,-0.02394518,-0.6576479,-3.57388,-0.5544605,0.3545812,1.413856,0.40275,0.002929951,-0.03597146,0.0408074,-1.013739,0.5406154,-0.1693984,0.5203419,1.491157,0.2578638,0.05368323,1.119947,0.391628,290.2676,303.6636,320.8296,True
5,0.01111111,0.1412151,0.09504577,-0.1051754,4.634664,1.475408,-2.754415,0.3629087,1.202928,0.4543042,-1.205431,-0.01194895,10.92838,13.30619,0.1014998,-0.03138383,-0.0325031,-0.6578045,-3.575137,-0.5548142,0.3544717,1.413663,0.4026992,0.009327381,-0.03274223,0.03967626,-1.013287,0.5409768,-0.1701805,0.5201622,1.49098,0.2575419,0.05453297,1.117705,0.3897347,292.2372,303.1133,319.81,True
5,0.02222222,0.1358786,0.09395498,-0.1126214,4.635683,1.473871,-2.755886,0.363125,1.202858,0.4544404,-1.205869,-0.03981195,11.08753,13.17763,0.09288001,-0.02286113,-0.04415065,-0.658613,-3.575783,-0.5550214,0.3543048,1.413558,0.402756,0.0189902,-0.02101536,0.04702297,-1.012521,0.5413652,-0.1709235,0.519899,1.49104,0.257503,0.05531373,1.114329,0.3865362,293.5258,300.7849,320.7125,True
5,0.03333334,0.1251999,0.1035237,-0.1126244,4.636261,1.472032,-2.756922,0.3633783,1.202775,0.4545343,-1.205943,-0.006500934,11.16711,13.02764,0.07779174,0.01120216,-0.05569546,-0.6600469,-3.574783,-0.5562225,0.3541491,1.413449,0.4027588,0.02229266,-0.01247143,0.05657447,-1.011563,0.5420073,-0.1717036,0.5197134,1.4912,0.2575147,0.05600414,1.110622,0.3829866,294.7421,298.0727,322.0168,True
5,0.04444445,0.1209268,0.1163083,-0.1083771,4.636445,1.470114,-2.758325,0.3635318,1.202648,0.4546931,-1.20575,0.0176852,11.22016,12.9205,0.06274462,0.0378043,-0.06406701,-0.6615202,-3.573787,-0.5572705,0.354004,1.413378,0.4027822,0.03413411,-0.01671794,0.06816711,-1.010371,0.5418624,-0.1723755,0.5193779,1.491325,0.2574692,0.05595748,1.108671,0.3815993,294.0389,294.7124,325.4796,True
5,0.05555556,0.1177366,0.1163106,-0.1051757,4.636952,1.468512,-2.759645,0.3636972,1.2026,0.4548314,-1.205311,0.04007087,11.27321,12.8348,0.06277099,0.04099011,-0.05873159,-0.6621902,-3.573371,-0.5583698,0.3538148,1.413309,0.4028325,0.03734347,-0.0316342,0.06921178,-1.00935,0.5409095,-0.1723302,0.519062,1.491578,0.2575953,0.05592632,1.108164,0.381759,294.132,294.9873,325.0659,True
5,0.06666667,0.1092252,0.1120389,-0.1040802,4.637549,1.467144,-2.760689,0.3638352,1.202566,0.4549439,-1.205684,-0.03440933,11.29973,12.81337,0.06076623,0.01965971,-0.04917539,-0.6620224,-3.574249,-0.5583251,0.3536792,1.413297,0.4028594,0.03729048,-0.04762115,0.06389678,-1.008655,0.539697,-0.1720439,0.5187328,1.491703,0.257606,0.05626347,1.107779,0.3822439,294.9435,296.4226,323.1932,True
5,0.07777778,0.09960948,0.1194573,-0.1126048,4.638401,1.465087,-2.761623,0.3640103,1.202506,0.45505,-1.205722,-0.003126748,11.27321,12.79194,0.07051449,-0.01867414,-0.04292684,-0.6614056,-3.576657,-0.5575544,0.3535432,1.413221,0.4029362,0.03185106,-0.0508261,0.05330375,-1.008287,0.5389587,-0.1718309,0.5184919,1.491767,0.2575994,0.05648793,1.107533,0.3828178,295.2462,297.3708,322.1036,True
5,0.08888889,0.08361278,0.1204943,-0.1168326,4.639041,1.46313,-2.762061,0.3641852,1.202461,0.4553034,-1.205508,0.01964242,11.19363,12.85623,0.07474912,-0.0303537,-0.05362812,-0.6618403,-3.578395,-0.5571879,0.3533938,1.413093,0.4030571,0.0328044,-0.02952686,0.04475574,-1.008144,0.5394922,-0.1723529,0.5182335,1.491751,0.2575603,0.05671418,1.107391,0.3832397,295.4203,298.0891,321.2821,True
5,0.1,0.08255248,0.1183682,-0.1157599,4.639711,1.461453,-2.763071,0.3643245,1.202379,0.4554543,-1.205381,0.01147203,11.14058,12.96336,0.07683082,-0.02500863,-0.0589552,-0.6625311,-3.579246,-0.5574574,0.3532416,1.412989,0.4031267,0.03479582,-0.002901101,0.03299612,-1.008319,0.5404329,-0.1732964,0.5180176,1.491797,0.2575855,0.05685246,1.107305,0.3834895,295.4019,298.6109,320.6998,True
5,0.1111111,0.08042591,0.1141013,-0.1168079,4.640486,1.459927,-2.76399,0.3644779,1.202367,0.4555559,-1.204969,0.03769132,11.08753,13.11335,0.06800857,0.0006150082,-0.09506069,-0.6651825,-3.579731,-0.5574105,0.3530222,1.412862,0.4032366,0.04110898,0.01413625,0.02652173,-1.008371,0.5411231,-0.1743087,0.5177869,1.491838,0.257623,0.05692906,1.107244,0.3836985,295.3453,298.7463,320.4463,True
5,0.1222222,0.08789974,0.115187,-0.1114922,4.640952,1.458427,-2.765503,0.3645886,1.20232,0.4556808,-1.205611,-0.05899256,11.11406,13.26334,0.06689735,0.007012852,-0.09930109,-0.6664279,-3.580363,-0.5576044,0.3528261,1.412802,0.4032869,0.05174804,0.00987386,0.0253443,-1.00807,0.5409824,-0.1751156,0.5175804,1.491909,0.2574406,0.05695337,1.107188,0.3839599,295.3324,298.8235,320.2202,True
5,0.1333333,0.1060481,0.09284543,-0.1125322,4.64207,1.457709,-2.767359,0.3646836,1.202295,0.4558406,-1.205677,-0.005392159,11.16711,13.41333,0.0521939,0.003691956,-0.06512191,-0.6662361,-3.580415,-0.5580716,0.3527986,1.412874,0.4032931,0.0464901,-0.01356178,0.03074236,-1.007413,0.5399997,-0.1749556,0.5173693,1.491994,0.2574112,0.05699111,1.107108,0.3842438,295.3279,298.9561,319.9681,True
5,0.1444445,0.1199404,0.08116692,-0.1061209,4.642594,1.45698,-2.769299,0.3647426,1.202283,0.4560804,-1.206294,-0.05648279,11.24668,13.56331,0.04388337,-0.005984422,-0.0352665,-0.6652017,-3.580022,-0.5582425,0.3526643,1.412916,0.4033606,0.03484602,-0.03380526,0.03620961,-1.006623,0.538911,-0.1744251,0.5170925,1.491908,0.2573414,0.05705079,1.10703,0.3845162,295.342,299.2209,319.63,True
5,0.1555556,0.1327449,0.06947164,-0.1061133,4.643523,1.456178,-2.771244,0.3648245,1.202302,0.4561865,-1.206735,-0.03982288,11.32626,13.69188,0.04829844,-0.0145428,-0.01400195,-0.6644214,-3.580187,-0.5587869,0.3524866,1.412849,0.4033449,0.02111368,-0.03593555,0.04701243,-1.005644,0.5385184,-0.1739305,0.5168537,1.491929,0.2573431,0.05714642,1.106939,0.3847702,295.3264,299.5201,319.2747,True
5,0.1666667,0.1274524,0.05028716,-0.1081732,4.644495,1.455767,-2.772498,0.3649873,1.202286,0.456332,-1.206781,-0.003952728,11.37931,13.82044,0.06007856,-0.009202629,-0.001280468,-0.6641924,-3.579672,-0.5603189,0.3522565,1.412646,0.4033284,0.03184101,-0.01036188,0.05540785,-1.004825,0.5396361,-0.1752275,0.5165975,1.492,0.2574561,0.05728336,1.106839,0.3849925,295.2891,299.9292,318.819,True
5,0.1777778,0.120007,0.04067811,-0.1113318,4.645693,1.455166,-2.773608,0.3650993,1.202223,0.4564607,-1.206691,0.00817966,11.35279,13.90615,0.04594017,0.02810542,-0.02987962,-0.6660705,-3.578725,-0.5611818,0.3520877,1.41246,0.4032979,0.0412172,-0.0007817596,0.03612446,-1.005132,0.5399882,-0.1761995,0.5164098,1.492045,0.2574806,0.05742378,1.106726,0.3852105,295.2429,300.3216,318.3732,True
5,0.1888889,0.1029959,0.03108653,-0.1038137,4.646366,1.454743,-2.774207,0.3653766,1.202112,0.4565597,-1.205953,0.06738243,11.29973,13.99186,0.02226777,0.06110041,-0.05203376,-0.668014,-3.577512,-0.5616474,0.3519035,1.41231,0.4033365,0.04216786,-0.0007922538,0.02546479,-1.005149,0.5397881,-0.1765593,0.5163195,1.492098,0.2575483,0.05757788,1.10661,0.3854051,295.1795,300.6978,317.9575,True
5,0.2,0.09660913,0.03642318,-0.09529389,4.646854,1.453918,-2.775101,0.3654911,1.202061,0.4566467,-1.205701,0.02236517,11.22016,14.05614,0.001830772,0.08879281,-0.071006,-0.6699677,-3.576334,-0.5621116,0.3517473,1.412224,0.4033549,0.03364349,0.004530307,0.02555327,-1.004927,0.5401086,-0.1768038,0.5161558,1.492109,0.2575953,0.0577285,1.106512,0.385578,295.0997,300.996,317.6194,True
5,0.2111111,0.1116467,0.01312383,-0.05476275,4.646817,1.454192,-2.778147,0.3656076,1.202083,0.4566996,-1.205229,0.04307692,11.11406,14.14185,0.01809593,0.06424564,-0.03495122,-0.6703134,-3.574724,-0.5640327,0.3515919,1.412355,0.4035797,0.03558134,0.02368562,0.008484701,-1.005133,0.5411597,-0.1781434,0.5156848,1.492206,0.2577024,0.05787273,1.106428,0.3857464,295.0096,301.2317,317.3352,True
5,0.2222222,0.1116467,0.01312383,-0.05476275,4.646817,1.454192,-2.778147,0.3656076,1.202083,0.4566996,-1.206966,-0.1591943,11.06101,14.22755,0.01809593,0.06424564,-0.03495122,-0.6703134,-3.574724,-0.5640327,0.3515919,1.412355,0.4035797,0.03558134,0.02368562,0.008484701,-1.005133,0.5411597,-0.1781434,0.5156848,1.492206,0.2577024,0.05802687,1.106367,0.3859087,294.9208,301.4844,317.0539,True
5,0.2333333,0.1052634,0.01846587,-0.04411248,4.64682,1.453798,-2.779117,0.3656879,1.202123,0.4567089,-1.204838,0.19604,11.03448,14.33469,0.04824794,-0.001748525,-0.01716094,-0.6686313,-3.57743,-0.5635531,0.3515918,1.412471,0.4036958,0.03667599,0.009838576,0.01061222,-1.004892,0.5408171,-0.1783964,0.515552,1.492242,0.257709,0.05821413,1.106285,0.3860592,294.8188,301.8044,316.7325,True
5,0.2444444,0.07758041,0.01737913,-0.03447251,4.646783,1.453566,-2.778994,0.3657818,1.202188,0.4566388,-1.206174,-0.123988,11.03448,14.44182,0.06016774,-0.04434492,-0.00667124,-0.6674228,-3.579715,-0.562849,0.3515313,1.412585,0.4038324,0.02596447,-0.02213369,0.004356107,-1.004752,0.539274,-0.1774358,0.5153965,1.492263,0.2577546,0.05827925,1.106237,0.3861734,294.8506,302.0208,316.5692,True
5,0.2555556,0.03503259,-0.0007521682,-0.01517189,4.646662,1.454048,-2.778491,0.3657193,1.202249,0.4566584,-1.205766,0.03858883,11.03448,14.50611,0.03990771,-0.02950883,-0.001183152,-0.6670516,-3.5799,-0.5628921,0.3512868,1.412714,0.4040751,0.01947179,-0.0253422,-0.005166935,-1.005125,0.5382509,-0.1770904,0.5151318,1.492357,0.2579088,0.05833949,1.106214,0.3862149,294.838,302.0762,316.5725,True
5,0.2666667,0.01274065,-0.02310715,0.00729458,4.646221,1.455329,-2.777764,0.3654919,1.202356,0.45663,-1.204179,0.1446763,11.06101,14.57039,0.03432725,0.01206534,-0.02129835,-0.66865,-3.578529,-0.5641696,0.3512195,1.412764,0.4041729,0.03665108,-0.01041172,0.008491343,-1.004638,0.5388369,-0.1782901,0.5149317,1.492411,0.2579765,0.05841244,1.106208,0.3862412,294.7901,302.0757,316.6199,True
5,0.2777778,-0.01596527,-0.0412161,0.02657042,4.645649,1.456581,-2.776471,0.3652219,1.202471,0.4565663,-1.204838,-0.06131978,11.06101,14.57039,0.02665169,0.04191686,-0.04142223,-0.6703144,-3.577524,-0.5649976,0.3511456,1.41285,0.4042373,0.03879722,-0.0008280836,0.01058769,-1.004569,0.5390983,-0.178888,0.5148512,1.49239,0.2580473,0.05842188,1.106252,0.3862679,294.7942,301.977,316.7637,True
5,0.2888889,-0.06598189,-0.06259152,0.03310014,4.645607,1.457966,-2.774047,0.36484,1.202563,0.456511,-1.204433,0.03782068,11.03448,14.50611,0.0179995,0.05471008,-0.05625667,-0.6717936,-3.577033,-0.5653358,0.3510669,1.412915,0.4042892,0.02695162,-0.02108206,-0.002056637,-1.004843,0.5379638,-0.1781777,0.5147922,1.492408,0.2580931,0.05839725,1.106298,0.3862772,294.8152,301.8031,316.9807,True
5,0.3,-0.06598189,-0.06259152,0.03310014,4.645607,1.457966,-2.774047,0.36484,1.202563,0.456511,-1.204006,0.03879241,11.00796,14.35612,0.0179995,0.05471008,-0.05625667,-0.6717936,-3.577033,-0.5653358,0.3510669,1.412915,0.4042892,0.02695162,-0.02108206,-0.002056637,-1.004843,0.5379638,-0.1781777,0.5147922,1.492408,0.2580931,0.0583069,1.106366,0.3862145,294.8889,301.5234,317.3455,True
5,0.3111111,-0.120267,-0.08080649,0.03325379,4.645633,1.459633,-2.771041,0.3642209,1.202723,0.4564669,-1.205363,-0.1242288,10.98143,14.16327,-0.005375128,0.05141833,-0.04759736,-0.6721776,-3.576623,-0.5648927,0.3509271,1.412967,0.4043305,0.01718918,-0.04347129,-0.018983,-1.005407,0.5362288,-0.1770339,0.5146315,1.492422,0.2581592,0.0581673,1.10647,0.3860581,294.954,301.1338,317.7948,True
5,0.3222222,-0.1851964,-0.104336,0.04194583,4.64562,1.461532,-2.76689,0.363633,1.202951,0.4564195,-1.203377,0.1828413,10.92838,13.92758,-0.02977111,0.03640245,-0.03789405,-0.6721435,-3.576853,-0.5636133,0.35087,1.413075,0.404475,0.02561796,-0.03814657,-0.02760078,-1.005949,0.5357997,-0.1774131,0.5145059,1.492491,0.2582772,0.05808749,1.106547,0.3859212,294.9348,300.7387,318.2026,True
5,0.3333333,-0.2426515,-0.1321106,0.05383649,4.645525,1.464099,-2.762266,0.3628396,1.203258,0.456332,-1.202851,0.04655183,10.90185,13.67045,-0.06587168,0.03304984,-0.01957494,-0.6719975,-3.576243,-0.562127,0.3508402,1.413306,0.404597,0.03201601,-0.02429633,-0.02661552,-1.006251,0.5359603,-0.1781149,0.5143814,1.492432,0.2583382,0.05786365,1.106635,0.38581,295.0781,300.2927,318.6737,True
5,0.3444445,-0.2819914,-0.1641166,0.0635728,4.645631,1.467081,-2.757758,0.3620707,1.20357,0.4562411,-1.202085,0.07006964,10.90185,13.41333,-0.07432526,0.03193097,-0.008877706,-0.6720503,-3.575701,-0.5615864,0.3508729,1.413461,0.4047542,0.03517622,-0.02323185,-0.02984831,-1.006657,0.5356188,-0.1784033,0.5142551,1.492485,0.2584426,0.05748412,1.106791,0.3856676,295.34,299.6077,319.3885,True
5,0.3555556,-0.3511398,-0.2110949,0.07127364,4.646003,1.471023,-2.751356,0.3610313,1.204091,0.4561865,-1.202039,0.00399911,10.92838,13.17763,-0.08064631,0.04571643,0.01036667,-0.6719576,-3.573768,-0.5619757,0.3509076,1.413769,0.4048619,0.03082253,-0.04667833,-0.03937559,-1.007173,0.5338661,-0.1776446,0.5142576,1.492559,0.2586215,0.05699107,1.107044,0.3854508,295.6625,298.6581,320.3843,True
5,0.3666667,-0.3936781,-0.2484442,0.07676824,4.646583,1.475014,-2.745363,0.3599913,1.204515,0.4560759,-1.202655,-0.05600192,10.95491,13.00621,-0.07826513,0.02434372,0.04119819,-0.6704599,-3.573284,-0.5615592,0.3509402,1.414009,0.4049718,0.02117538,-0.05307897,-0.04459532,-1.007679,0.5328172,-0.1769306,0.5142284,1.492586,0.2586694,0.05628001,1.107392,0.3851365,295.8776,297.612,321.5589,True
5,0.3777778,-0.4745367,-0.3125329,0.06854708,4.648377,1.48051,-2.736857,0.3585261,1.205194,0.4560089,-1.201372,0.1181402,11.00796,12.87765,-0.08532426,-0.01625911,0.08589295,-0.6675022,-3.573284,-0.5603744,0.3510082,1.414377,0.4050565,0.008189768,-0.06055385,-0.06362744,-1.008825,0.5314572,-0.1758749,0.5142239,1.49259,0.2587411,0.05507598,1.107835,0.384635,295.7883,296.7224,322.6077,True
5,0.3888889,-0.5671249,-0.3841106,0.05291422,4.65081,1.486453,-2.72698,0.3569275,1.205792,0.4560041,-1.202139,-0.07079083,11.03448,12.79194,-0.09346461,-0.06431499,0.1241868,-0.6640198,-3.574314,-0.5582079,0.3510422,1.414618,0.4050963,0.0005451366,-0.0584394,-0.08059505,-1.010188,0.5304926,-0.175106,0.5141648,1.492533,0.2587733,0.05344906,1.108526,0.3841398,295.5744,295.0904,324.4741,True
5,0.4,-0.6575695,-0.4588979,0.03301837,4.654155,1.493269,-2.716213,0.3549945,1.206596,0.4559817,-1.200383,0.1617217,11.00796,12.77051,-0.09223932,-0.06968443,0.1475973,-0.6615777,-3.573486,-0.5579032,0.3511078,1.414915,0.4051423,-0.002814472,-0.04992805,-0.09547801,-1.011614,0.5298517,-0.174665,0.5141273,1.492574,0.2588336,0.05172554,1.109814,0.3835022,295.5163,294.6619,324.9599,True
5,0.4111111,-0.7416036,-0.5421886,0.01846415,4.657926,1.501063,-2.704845,0.3528808,1.207547,0.4558814,-1.19949,0.08069019,10.98143,12.81337,-0.09737379,-0.06232484,0.1828067,-0.6585736,-3.571064,-0.5586287,0.35107,1.415275,0.4051392,0.001340471,-0.04780595,-0.1051123,-1.012951,0.5289432,-0.1743007,0.514124,1.492509,0.2588432,0.04976203,1.111825,0.3825855,295.3571,294.3464,325.1924,True
5,0.4222222,-0.8213912,-0.6105438,0.01237094,4.661972,1.509059,-2.692827,0.350698,1.20849,0.4556177,-1.199341,0.01361754,10.92838,12.87765,-0.1281776,-0.07841508,0.1893486,-0.6558263,-3.571024,-0.5561636,0.3510008,1.415741,0.4050691,0.01083772,-0.04781248,-0.1137341,-1.014278,0.5278936,-0.1742006,0.5141428,1.492578,0.2589645,0.04751724,1.114683,0.3813502,294.9781,293.9212,325.3803,True
5,0.4333333,-0.8745819,-0.6468508,0.01681611,4.665354,1.516743,-2.680977,0.3484097,1.20951,0.4555144,-1.199578,-0.02110773,10.8488,12.94193,-0.1748871,-0.07863013,0.2162633,-0.6525118,-3.569547,-0.5538371,0.3509945,1.416197,0.4049647,0.01612006,-0.05207385,-0.1180497,-1.015593,0.5267523,-0.1739646,0.5141558,1.492572,0.2589908,0.0449617,1.118435,0.3797821,294.3765,293.4879,325.4731,True
5,0.4444444,-0.9533096,-0.6959724,0.03195712,4.669359,1.525358,-2.667474,0.3459106,1.210552,0.4550612,-1.199735,-0.01367381,10.76923,13.02764,-0.2162163,-0.06714341,0.2591503,-0.6486949,-3.566334,-0.5526919,0.3509632,1.416731,0.4048796,0.00763496,-0.0552726,-0.1147615,-1.016579,0.525649,-0.1731603,0.5142003,1.492532,0.2589819,0.04220461,1.123031,0.3778515,293.5392,293.1829,325.3749,True
5,0.4555556,-1.034163,-0.749369,0.03862306,4.67345,1.534619,-2.652889,0.3430471,1.211896,0.4549165,-1.200629,-0.08108151,10.71618,13.09192,-0.2466824,-0.07910573,0.3242906,-0.643164,-3.563119,-0.5515172,0.3509223,1.41735,0.4046757,-0.01902378,-0.05633374,-0.1176661,-1.017828,0.5249434,-0.1717012,0.5143127,1.49229,0.2588463,0.03935937,1.128313,0.3755673,292.5099,293.0389,325.0097,True
5,0.4666667,-1.086298,-0.7909963,0.03880608,4.677849,1.543558,-2.638891,0.3403954,1.213328,0.4549742,-1.199812,0.07590744,10.66313,13.13477,-0.2559428,-0.09947369,0.367977,-0.6376183,-3.560944,-0.5502467,0.3508617,1.417927,0.4044929,-0.03397996,-0.06486075,-0.1217617,-1.019124,0.523573,-0.1701217,0.5143837,1.492412,0.2589591,0.03648855,1.134052,0.3730146,291.3565,293.1276,324.3331,True
5,0.4777778,-1.152269,-0.8465464,0.02520889,4.683565,1.553374,-2.623502,0.3371844,1.214914,0.4548333,-1.199376,0.03966792,10.68966,13.19906,-0.2789669,-0.132687,0.4191761,-0.6307132,-3.559047,-0.5478764,0.3507325,1.418595,0.4041927,-0.04167728,-0.06487805,-0.1440514,-1.021296,0.5222906,-0.1687264,0.5144471,1.492401,0.2589164,0.03349014,1.140039,0.3702079,290.2009,293.1982,323.6676,True
5,0.4888889,-1.205443,-0.8988796,0.01370448,4.689738,1.563363,-2.608328,0.3338101,1.216603,0.4546764,-1.200641,-0.1153993,10.71618,13.22048,-0.3106115,-0.1510011,0.4619408,-0.6240687,-3.556772,-0.5452993,0.3506233,1.419173,0.4038558,-0.05463964,-0.05530701,-0.1609673,-1.023601,0.5215132,-0.1674367,0.5145559,1.49235,0.2589447,0.03033563,1.146198,0.3672271,289.1303,292.9853,323.1701,True
5,0.5,-1.230981,-0.9244826,0.01171461,4.695261,-4.710491,-2.593885,0.3306974,1.218354,0.4545732,-1.200106,0.05054568,10.74271,13.26334,-0.3211358,-0.1553393,0.4811699,-0.6180286,-3.554202,-0.5435059,0.3504806,1.419777,0.4035146,-0.07271036,-0.03933333,-0.1565214,-1.025185,0.5213729,-0.1659349,0.5146472,1.492323,0.2589097,0.02721364,1.152447,0.3642168,288.0529,292.6301,322.7656,True
5,0.5111111,-1.275663,-0.9501324,0.01606184,4.700926,-4.700758,-2.578186,0.3271178,1.220428,0.4544041,-1.200882,-0.07099368,10.74271,13.32762,-0.3456089,-0.1565081,0.4866412,-0.6123475,-3.552179,-0.5404449,0.3503501,1.420328,0.40306,-0.09080752,-0.03294239,-0.1552647,-1.026736,0.5209711,-0.1641804,0.5147208,1.492341,0.258924,0.02388963,1.158724,0.361225,286.9904,292.1033,322.6127,True
5,0.5222223,-1.2895,-0.9533336,0.02036288,4.706354,-4.691648,-2.563277,0.3238282,1.222226,0.4542508,-1.202255,-0.1244302,10.68966,13.3919,-0.3573138,-0.1278174,0.5048877,-0.6067917,-3.547051,-0.540256,0.3501296,1.420961,0.4024818,-0.106802,-0.02336281,-0.1561639,-1.028509,0.5207279,-0.1622906,0.5147779,1.492337,0.2588646,0.02050498,1.165015,0.3582819,285.9467,291.5221,322.5628,True
5,0.5333334,-1.324732,-0.9257205,0.008634746,4.711695,-4.684009,-2.547228,0.3204241,1.224433,0.4542098,-1.201626,0.05887078,10.58355,13.45618,-0.3540677,-0.1235698,0.5155309,-0.6009135,-3.54337,-0.5394728,0.349784,1.421605,0.4018457,-0.1215272,-0.01270396,-0.1379034,-1.029484,0.5208358,-0.1604983,0.5148653,1.492354,0.2587657,0.01725631,1.171284,0.3554344,284.9615,291.1218,322.374,True
5,0.5444446,-1.379174,-0.8832889,-0.01587281,-1.565781,-4.67759,-2.529945,0.3173416,1.226626,0.4539173,-1.202758,-0.1037512,10.47745,13.58474,-0.369862,-0.09709483,0.5614902,-0.5941193,-3.536821,-0.5401647,0.3495607,1.422211,0.4011374,-0.1504085,5.936623E-05,-0.1482538,-1.031529,0.5209563,-0.1578911,0.514863,1.492294,0.2586973,0.01396291,1.177575,0.352655,284.054,290.6969,322.2743,True
5,0.5555557,-1.421875,-0.8695716,-0.04246837,-1.559286,-4.670848,-2.512533,0.314394,1.229096,0.4535444,-1.202161,0.05584874,10.4244,13.77759,-0.3772179,-0.07481191,0.5903478,-0.587561,-3.529861,-0.5414497,0.3491838,1.422869,0.4004788,-0.1825026,0.02240546,-0.1596385,-1.033848,0.5216898,-0.1551227,0.5147941,1.492275,0.2586796,0.01080315,1.183882,0.3499651,283.1274,290.3016,322.1368,True
5,0.5666668,-1.428267,-0.8920444,-0.07326886,-1.551517,-4.662889,-2.496665,0.3114742,1.231376,0.4530108,-1.201292,0.07923781,10.39788,14.01328,-0.3973842,-0.0419206,0.6203685,-0.5811449,-3.521491,-0.5432878,0.3487706,1.42372,0.3997939,-0.2070236,0.04903677,-0.1604578,-1.035874,0.5231445,-0.152854,0.5147451,1.492036,0.258549,0.00766237,1.190291,0.3474542,282.2698,289.7383,322.1588,True
5,0.577778,-1.417579,-0.9133291,-0.07430035,-1.544187,-4.654696,-2.481331,0.3085688,1.233643,0.4525089,-1.201579,-0.02643634,10.47745,14.31326,-0.4113627,-0.013188,0.6141245,-0.5758809,-3.51385,-0.5445672,0.3482732,1.42452,0.3990974,-0.2262308,0.07033247,-0.162395,-1.03797,0.5245788,-0.1503765,0.5146882,1.49195,0.2585146,0.004641408,1.196924,0.3451868,281.4335,289.0175,322.4504,True
5,0.5888891,-1.363068,-0.9674618,-0.03057715,-1.537534,-4.644027,-2.4686,0.3057625,1.235958,0.4517858,-1.203593,-0.1834749,10.66313,14.61324,-0.4019083,0.008164078,0.6034645,-0.5708907,-3.506891,-0.5463387,0.3477947,1.425453,0.3983891,-0.2518952,0.1161216,-0.1696088,-1.040541,0.5274364,-0.1482427,0.5147004,1.491954,0.2584558,0.001859122,1.20389,0.3430978,280.5076,288.2888,322.9258,True
5,0.6000003,-1.296835,-1.005528,0.03222969,-1.531743,-4.632746,-2.4568,0.3026721,1.238292,0.4509413,-1.204616,-0.09171682,10.8488,14.87037,-0.3744043,0.0413152,0.5884562,-0.5665582,-3.498583,-0.5500813,0.3472985,1.4263,0.3976421,-0.2785914,0.1544577,-0.1736068,-1.043086,0.5305632,-0.1458035,0.514549,1.491988,0.2584021,-0.0005550776,1.211087,0.3409877,279.3507,288.0226,323.0459,True
5,0.6111114,-1.313823,-0.9712714,0.1078136,-1.528262,-4.622892,-2.441814,0.2994969,1.240298,0.449858,-1.207298,-0.2446328,11.06101,15.06321,-0.3627691,0.05733791,0.5841576,-0.5616793,-3.4905,-0.553138,0.3468127,1.427085,0.3968716,-0.2881114,0.1661773,-0.1671222,-1.045071,0.5327759,-0.1434688,0.5144842,1.491999,0.2583869,-0.00260081,1.218345,0.338644,278.1313,288.7076,322.2183,True
5,0.6222225,-1.363935,-0.9052085,0.1535262,-1.525411,-4.615215,-2.425108,0.2964804,1.24245,0.4486198,-1.208324,-0.09191345,11.24668,15.17034,-0.370191,0.05623969,0.5895277,-0.5562651,-3.482868,-0.555198,0.3462896,1.428032,0.39605,-0.2953887,0.1523335,-0.1510585,-1.046377,0.5339197,-0.1405427,0.5144334,1.49193,0.2582288,-0.004243533,1.225413,0.3357571,276.9253,290.7053,320.0626,True
5,0.6333337,-1.425756,-0.8209884,0.2237319,-1.525154,-4.607665,-2.407604,0.2931607,1.244554,0.4469879,-1.20508,0.2970095,11.29973,15.14892,-0.4082213,0.02725673,0.6291089,-0.5487827,-3.475976,-0.5552195,0.3458784,1.429025,0.3951764,-0.3070866,0.1310232,-0.1498517,-1.048028,0.5344654,-0.1371083,0.5143566,1.491891,0.2580993,-0.005815977,1.232067,0.3320831,275.8126,293.7574,316.6616,True
5,0.6444448,-1.366062,-0.7855131,0.2959663,-1.524238,-4.598363,-2.394983,0.2896357,1.246453,0.4451728,-1.203119,0.176678,11.35279,15.14892,-0.4335085,0.004720688,0.6643633,-0.5411879,-3.468511,-0.5559876,0.3455226,1.430038,0.3942995,-0.3209213,0.1246261,-0.1486342,-1.049814,0.5355654,-0.13363,0.5143051,1.491798,0.257879,-0.007669786,1.238327,0.3276264,274.9865,296.6472,313.1317,True
5,0.655556,-1.219143,-0.6540489,0.3721013,-1.527108,-4.591627,-2.386648,0.2861564,1.248035,0.4430313,-1.202451,0.06009065,11.37931,15.17034,-0.4396643,-0.03262824,0.6834921,-0.5333896,-3.462796,-0.5559011,0.3451029,1.431062,0.3934247,-0.3496867,0.1246085,-0.1483211,-1.051547,0.5368629,-0.1293907,0.5143415,1.491731,0.2575765,-0.009868473,1.244458,0.3226444,274.416,297.7531,311.1643,True
5,0.6666671,-1.045204,-0.1709804,0.4441224,-1.541074,-4.596684,-2.380317,0.2836244,1.248945,0.4406571,-1.207447,-0.4570048,11.40584,15.23462,-0.4535579,-0.1788228,0.7738062,-0.520167,-3.462187,-0.5511942,0.3443727,1.432086,0.3922865,-0.4000387,0.1234991,-0.1744061,-1.05438,0.53797,-0.1239121,0.5142956,1.491581,0.2572839,-0.01237184,1.250783,0.3173723,273.9736,299.3862,308.6874,True
5,0.6777782,-0.9628066,0.2297783,0.4653544,-1.556224,-4.604462,-2.3722,0.2810476,1.249591,0.4384708,-1.212266,-0.43664,11.45889,15.38461,-0.4687361,-0.2738712,0.8567789,-0.5065663,-3.459868,-0.5476027,0.3435374,1.43301,0.391206,-0.4256141,0.1224209,-0.1751931,-1.056441,0.5391936,-0.1189698,0.5142164,1.491473,0.2570271,-0.01471399,1.257191,0.3119642,273.349,305.7945,301.509,True
5,0.6888894,-0.9735426,0.9095588,0.5212107,4.69909,-4.622834,-2.360369,0.279474,1.249235,0.4357078,-1.214551,-0.206211,11.61804,15.64174,-0.5178289,-0.3222932,0.9933254,-0.4906954,-3.452273,-0.5469744,0.342347,1.433637,0.3900726,-0.4757906,0.1341071,-0.1842456,-1.05893,0.5408377,-0.1129236,0.5137555,1.491296,0.2569418,-0.0167494,1.263315,0.3068006,272.8911,322.1317,284.209,True
5,0.7000005,-1.217178,1.872065,0.4872649,4.661388,-4.654283,-2.3396,0.2792236,1.248014,0.4325149,-1.212025,0.2309686,11.75066,15.94172,-0.5710904,-0.2394725,1.038574,-0.4796321,-3.437287,-0.5519657,0.3410398,1.434157,0.388952,-0.502288,0.1958889,-0.1690876,-1.060834,0.5452542,-0.1087459,0.5132717,1.491076,0.2569311,-0.01879461,1.268839,0.302832,273.1685,343.2331,261.9628,True
5,0.7111117,-1.351336,2.24978,0.4352254,4.632735,-4.677168,-2.321799,0.2783513,1.247561,0.4298682,-1.207177,0.440459,11.80371,16.22027,-0.6617901,-0.04035378,0.9404901,-0.4776459,-3.417634,-0.5589325,0.3396016,1.434304,0.3878319,-0.5019168,0.2491745,-0.1318287,-1.061505,0.5502889,-0.1056828,0.5127653,1.491068,0.2570403,-0.02145411,1.273688,0.3008518,274.0069,354.8112,249.4879,True
5,0.7222228,-1.603149,2.512338,0.3574412,4.606503,-4.698745,-2.298376,0.2775778,1.247288,0.427094,-1.196757,0.9481864,11.80371,16.45597,-0.7959151,0.1717156,0.7127462,-0.4821232,-3.40217,-0.5595149,0.3382871,1.434279,0.3869154,-0.4887897,0.3450798,-0.09580483,-1.062089,0.5582026,-0.1046154,0.5120515,1.490997,0.2572131,-0.02504087,1.278161,0.3018172,275.4681,356.7351,247.1986,True
5,0.7333339,-1.695962,2.525864,0.295776,4.584313,1.566819,-2.278519,0.2764903,1.247691,0.4245894,-1.198805,-0.1959806,11.64456,16.54168,-0.8687075,0.3916111,0.4175246,-0.4929692,-3.38752,-0.5601642,0.3372169,1.43394,0.3862581,-0.4545102,0.3994335,-0.07597521,-1.063118,0.5650139,-0.1040905,0.5114652,1.491007,0.2571781,-0.02962729,1.283016,0.306587,277.3326,354.2426,250.3627,True
5,0.7444451,-1.642554,2.356344,0.2194129,4.56958,1.554283,-2.264481,0.2744811,1.249581,0.4221129,-1.194178,0.4268014,11.48541,16.99164,-0.8345152,0.5403791,0.1566878,-0.5038424,-3.376237,-0.5622346,0.3365979,1.433949,0.3859704,-0.3433912,0.4165565,-0.04628954,-1.063285,0.5710645,-0.1069581,0.5108185,1.491129,0.2571943,-0.03422667,1.288662,0.3147387,279.0206,355.2337,251.5112,True
5,0.7555562,-1.425707,2.032886,0.2166482,4.558611,1.548157,-2.256438,0.2725298,1.251678,0.4203763,-1.1983,-0.380029,11.35279,17.95586,-0.6711953,0.4773443,-0.002113283,-0.5100385,-3.376111,-0.5601166,0.3363262,1.434155,0.3859804,-0.2868984,0.3856875,-0.04474452,-1.064123,0.5746256,-0.1071028,0.5103161,1.491124,0.2571223,-0.03816455,1.295515,0.3251601,280.7704,358.5772,251.3071,True
5,0.7666674,-1.145867,1.685178,0.2671065,4.549358,1.546675,-2.253131,0.27061,1.253773,0.4190617,-1.205865,-0.6870511,11.22016,19.39147,-0.5132085,0.2713069,-0.05999203,-0.5091953,-3.38528,-0.5515811,0.3359753,1.434761,0.3854659,-0.2183906,0.3005103,-0.01772682,-1.063464,0.5753313,-0.1070356,0.5099599,1.491106,0.2568312,-0.04102494,1.303809,0.3363806,282.5977,4.447079,249.0417,True
5,0.7777785,-0.9386491,1.428938,0.3121496,4.539501,1.545029,-2.248997,0.2691541,1.255419,0.4181163,-1.213462,-0.6890146,11.16711,21.29848,-0.277101,-0.2222873,-0.03698513,-0.4988085,-3.419682,-0.5265977,0.3362816,1.435847,0.385612,-0.1885132,0.2195625,-0.01693125,-1.063567,0.5751222,-0.1057946,0.5097764,1.490987,0.2563438,-0.04270026,1.313237,0.3466824,284.3911,12.26236,244.7354,True
5,0.7888896,-0.8628026,1.305484,0.3005908,4.529129,1.540392,-2.242362,0.2675734,1.257068,0.4170012,-1.218805,-0.483622,11.24668,23.76259,-0.06993097,-0.6716216,0.1567536,-0.4804257,-3.451204,-0.504236,0.3363875,1.437124,0.3852222,-0.2015398,0.1641546,-0.04232951,-1.065018,0.5752486,-0.1030691,0.5095841,1.490835,0.2558928,-0.04295317,1.322817,0.3545241,286.2847,20.62416,239.0902,True
5,0.8000008,-0.798767,1.155142,0.2028968,4.52303,1.534194,-2.236056,0.2662351,1.258303,0.416609,-1.217098,0.1587169,11.40584,26.39811,0.07964683,-0.937048,0.4386139,-0.4588818,-3.472392,-0.4907979,0.3365871,1.438589,0.3847394,-0.2876268,0.03729215,-0.1276177,-1.068765,0.5706162,-0.09479708,0.50958,1.49072,0.2551692,-0.04220364,1.331465,0.3589087,288.205,27.79485,233.4227,True
5,0.8111119,-0.7015245,0.8598912,0.06176013,4.525619,1.531243,-2.231919,0.2642125,1.259816,0.4163897,-1.212506,0.4168579,11.61804,29.07649,0.09613454,-0.9439752,0.6941732,-0.4400991,-3.47616,-0.488595,0.3365011,1.43953,0.3836007,-0.3231269,-0.02560276,-0.1623528,-1.071415,0.5678422,-0.08871442,0.5094705,1.490634,0.2548206,-0.04140352,1.338502,0.3597957,289.6919,32.45237,228.9049,True
5,0.8222231,-0.6448792,0.6691006,-0.02947453,4.526388,1.527711,-2.226922,0.2628375,1.26111,0.416306,-1.211096,0.1245772,11.80371,31.60489,0.06683421,-0.8676618,0.8234329,-0.4254533,-3.475454,-0.4885899,0.3364368,1.440475,0.3827446,-0.3534465,-0.07464895,-0.2099331,-1.075013,0.5647025,-0.08228768,0.5092774,1.490574,0.2543011,-0.04153559,1.343855,0.3580222,290.3224,34.68735,225.6761,True
5,0.8333342,-0.5870117,0.3631586,-0.1577421,4.535233,1.526775,-2.222728,0.2612252,1.262665,0.4170196,-1.213016,-0.1769033,11.88329,33.53332,0.01131427,-0.683742,0.9019458,-0.4141162,-3.463632,-0.4972918,0.3356273,1.44094,0.3815627,-0.3547515,-0.07359929,-0.2322951,-1.078174,0.5637702,-0.07805752,0.5090121,1.490461,0.2538967,-0.04272496,1.347506,0.3548032,290.0551,35.74594,223.0397,True
5,0.8444453,-0.6134958,0.2458432,-0.19788,4.537068,1.524456,-2.21532,0.2601517,1.263895,0.4173717,-1.211511,0.1383981,11.85676,34.88322,-0.05993021,-0.4697968,0.8655674,-0.4080453,-3.451375,-0.505358,0.3346794,1.441398,0.3806493,-0.344086,-0.04695612,-0.2302979,-1.080566,0.5641691,-0.07494269,0.5086036,1.490398,0.2534993,-0.04483112,1.349534,0.351072,289.2038,36.22401,220.9953,True
5,0.8555565,-0.6261404,0.1199889,-0.2508246,4.542055,1.522546,-2.208212,0.2588816,1.265312,0.4178083,-1.211624,-0.01238612,11.75066,35.39747,-0.1201683,-0.1767601,0.7504991,-0.4077912,-3.429078,-0.5223538,0.3333831,1.441965,0.3795018,-0.3334791,0.02442312,-0.2315216,-1.083377,0.5670329,-0.07299565,0.50813,1.490356,0.2531648,-0.0473326,1.350153,0.347697,288.123,35.44566,220.4252,True
5,0.8666676,-0.5342939,-0.05466637,-0.3038333,4.549415,1.521951,-2.205365,0.2577371,1.266816,0.4182439,-1.207145,0.4086761,11.56498,35.01178,-0.1562313,0.105807,0.5766692,-0.4116981,-3.408022,-0.5387543,0.3325037,1.442562,0.3787951,-0.3334545,0.09686586,-0.2262388,-1.085963,0.5706534,-0.07099774,0.5076023,1.490366,0.252811,-0.04987847,1.349759,0.3452073,286.8867,34.12772,220.7669,True
5,0.8777788,-0.4403811,-0.1802869,-0.3399157,4.5574,1.521685,-2.203654,0.2565062,1.268372,0.4185915,-1.205897,0.109633,11.37931,33.94043,-0.1265363,0.2670216,0.4639511,-0.414048,-3.389675,-0.5550411,0.331596,1.44312,0.3779075,-0.3288127,0.1363081,-0.1890243,-1.08706,0.5737395,-0.06893753,0.5070129,1.490461,0.2524405,-0.05232531,1.349096,0.3440863,285.8899,31.34385,223.0142,True
5,0.8888899,-0.3069572,-0.3569627,-0.3737998,4.568117,1.523389,-2.204674,0.2553623,1.269853,0.4191108,-1.208922,-0.2784025,11.27321,32.52625,-0.08419335,0.2938372,0.4349951,-0.4123878,-3.376903,-0.5671489,0.3309353,1.444098,0.3773048,-0.3338029,0.1342066,-0.15808,-1.087969,0.5752367,-0.06577129,0.5065099,1.490456,0.2520449,-0.05455213,1.348843,0.3443802,285.097,28.91331,225.5428,True
5,0.900001,-0.1981057,-0.4750529,-0.3864779,4.577871,1.525046,-2.205576,0.2542404,1.271253,0.4193377,-1.208588,0.03132136,11.11406,31.41204,-0.02518028,0.2119173,0.4621364,-0.4067893,-3.370019,-0.5750516,0.3303717,1.444898,0.3766615,-0.3295102,0.09591737,-0.05795927,-1.085274,0.5752133,-0.06232729,0.5058738,1.490469,0.2515435,-0.05620676,1.34913,0.3457098,284.6046,28.42237,226.6342,True
5,0.9111122,-0.1543243,-0.4887039,-0.339652,4.590718,1.526575,-2.203316,0.2527252,1.273316,0.4196818,-1.209071,-0.04685945,10.95491,30.7478,0.027849,0.05321334,0.5168345,-0.3938602,-3.359008,-0.5870994,0.3294269,1.446324,0.3750739,-0.3565016,0.0586651,0.006280914,-1.083552,0.5757501,-0.05399506,0.5048258,1.49043,0.2504091,-0.05732933,1.349881,0.3475443,284.4377,29.64802,226.2324,True
5,0.9222233,-0.1628293,-0.4780151,-0.3183569,4.596344,1.527204,-2.201158,0.2518687,1.274284,0.4197483,-1.206496,0.2334106,10.74271,30.51211,0.02432463,0.09269616,0.4839301,-0.3914644,-3.347863,-0.5975798,0.328961,1.446662,0.374253,-0.3551744,0.05336475,0.03077356,-1.082633,0.57648,-0.05038195,0.504276,1.490494,0.2498686,-0.05813644,1.350809,0.349199,284.4055,32.41097,224.4069,True
5,0.9333345,-0.1595234,-0.4970915,-0.2767663,4.602408,1.529487,-2.199182,0.2508881,1.27517,0.4195232,-1.199162,0.6659473,10.47745,30.7478,0.005706772,0.1704997,0.4426814,-0.3910485,-3.332857,-0.6107342,0.3283529,1.44712,0.3735316,-0.3367889,0.05338627,0.05614345,-1.08123,0.57724,-0.04759815,0.5037475,1.490506,0.2493565,-0.05912004,1.351698,0.3500533,284.2236,35.6338,221.8417,True
5,0.9444456,-0.1178411,-0.5192549,-0.2213892,4.608148,1.532853,-2.198828,0.2500039,1.276018,0.4193871,-1.195734,0.3054064,10.13263,31.26205,-0.002363294,0.2154064,0.3650707,-0.3920402,-3.321903,-0.6205392,0.3279081,1.447404,0.3728609,-0.2736293,0.04811642,0.08423576,-1.079365,0.5779665,-0.04703116,0.5032295,1.490567,0.2488434,-0.06004099,1.352325,0.3501648,284.1794,36.65939,220.8911,True
5,0.9555568,-0.1178411,-0.5192549,-0.2213892,4.608148,1.532853,-2.198828,0.2500039,1.276018,0.4193871,-1.192693,0.2732528,9.70822,31.84058,-0.002363294,0.2154064,0.3650707,-0.3920402,-3.321903,-0.6205392,0.3279081,1.447404,0.3728609,-0.2736293,0.04811642,0.08423576,-1.079365,0.5779665,-0.04703116,0.5032295,1.490567,0.2488434,-0.0609879,1.352705,0.3495764,284.0638,36.99043,220.5034,True
5,0.9666679,-0.08476339,-0.4945834,-0.1725059,4.61241,1.535367,-2.198916,0.2490372,1.276752,0.4186971,-1.190736,0.1740347,9.23077,32.48339,0.004888244,0.1921136,0.3191607,-0.3909467,-3.316019,-0.6263347,0.3273226,1.447826,0.3721068,-0.2213763,0.02364409,0.08795389,-1.07823,0.5774705,-0.04595418,0.5027139,1.490555,0.2483549,-0.0618016,1.352739,0.3482781,283.8231,37.23204,220.0375,True
5,0.977779,-0.07202037,-0.4486938,-0.1481365,4.61572,1.536747,-2.198413,0.2482438,1.277404,0.418345,-1.186904,0.3460084,8.700266,32.99764,0.01236798,0.1144617,0.2816413,-0.3886617,-3.316262,-0.6265214,0.3268625,1.448245,0.371577,-0.208992,0.001253039,0.04948179,-1.078885,0.5765552,-0.04361033,0.5022688,1.490532,0.2478602,-0.06225986,1.352253,0.3465667,283.633,37.07846,219.7555,True
5,0.9888902,-0.08603111,-0.3207617,-0.1015317,4.614821,1.536498,-2.196743,0.247646,1.277701,0.4178019,-1.182978,0.352881,8.196285,32.82622,0.007313654,0.01752053,0.2750521,-0.384267,-3.317983,-0.6248522,0.3262469,1.448633,0.3709118,-0.2157121,-0.01048684,0.01759607,-1.079783,0.5759835,-0.04073385,0.5018718,1.490399,0.2472882,-0.06301702,1.351474,0.344458,283.2863,37.01096,219.5229,True
5,1.000001,-0.08712742,-0.2684837,-0.06863886,4.616028,1.537463,-2.195659,0.2468951,1.278138,0.4168775,-1.177793,0.4679483,7.851457,31.96914,0.0008327737,-0.01331784,0.244124,-0.3821929,-3.317654,-0.624936,0.3256243,1.448992,0.3703282,-0.2226567,-0.02330574,-0.03452473,-1.081855,0.5750692,-0.03757587,0.5014418,1.490418,0.2468786,-0.06418826,1.35046,0.3420279,282.8469,36.65226,219.537,True
5,1.011112,-0.09142146,-0.2087319,-0.02616382,4.615624,1.538569,-2.194374,0.2461757,1.278441,0.4161937,-1.171732,0.5467599,7.665781,30.44783,-0.02285299,0.01011193,0.2155613,-0.38155,-3.313002,-0.6282261,0.3249665,1.449156,0.3696666,-0.2185973,-0.0328996,-0.05374004,-1.082967,0.5743233,-0.03491671,0.5009748,1.49051,0.2463822,-0.06562851,1.349235,0.339592,282.3533,35.49217,220.1323,True
5,1.022224,-0.09461439,-0.1820268,0.004669949,4.616154,1.54011,-2.193058,0.245512,1.279063,0.4158721,-1.167538,0.3756338,7.639258,28.47654,-0.04561789,0.04424497,0.1689076,-0.38226,-3.308669,-0.6309942,0.3243779,1.449313,0.3689301,-0.2003832,-0.03395151,-0.04434392,-1.083053,0.5738572,-0.03309803,0.5004753,1.490574,0.2460399,-0.06719135,1.347936,0.3375243,281.9603,33.30695,221.8112,True
5,1.033335,-0.08928195,-0.1510386,0.03974058,4.615591,1.541816,-2.192043,0.2447405,1.279469,0.4151051,-1.162538,0.4506788,7.745358,26.59096,-0.09824992,0.09106269,0.1224648,-0.3840944,-3.303395,-0.6329114,0.3238123,1.449484,0.3683016,-0.1831809,-0.02008297,-0.02962246,-1.082794,0.5742275,-0.03187964,0.500025,1.490563,0.2456286,-0.06871863,1.346657,0.3358668,281.6367,31.24303,223.6675,True
5,1.044446,-0.0732847,-0.1392561,0.0556566,4.616102,1.543422,-2.191838,0.2438517,1.279869,0.4141836,-1.157469,0.4561387,8.01061,24.76966,-0.1367874,0.0974002,0.0950132,-0.3847495,-3.300308,-0.6328962,0.3233301,1.449707,0.3676908,-0.1393467,0.008708812,-0.01412855,-1.082423,0.5755246,-0.03250308,0.4994743,1.490598,0.245286,-0.07010213,1.345479,0.3346207,281.399,29.15055,225.6617,True
5,1.055557,-0.07440608,-0.09127858,0.07258738,4.614761,1.54422,-2.190953,0.2430808,1.280117,0.4133651,-1.152589,0.4386865,8.355438,23.24834,-0.1322413,0.05261669,0.1183144,-0.3823724,-3.298968,-0.6329303,0.3228179,1.449945,0.367007,-0.1040772,0.04175428,-0.002814047,-1.082246,0.5773361,-0.03341175,0.4990024,1.490576,0.2449305,-0.07133463,1.344509,0.3337373,281.2287,27.25119,227.5619,True
5,1.066668,-0.09898683,-0.04657153,0.07251587,4.613602,1.544155,-2.189007,0.242203,1.280493,0.4128261,-1.148068,0.4060027,8.753316,22.027,-0.1307356,0.002442747,0.1639965,-0.3786845,-3.296929,-0.6335213,0.3222855,1.450215,0.3663619,-0.09771559,0.05773517,-0.005022679,-1.082425,0.5787231,-0.03320429,0.4986048,1.490571,0.2445476,-0.07247657,1.343764,0.3330559,281.2306,25.99358,228.9943,True
5,1.077779,-0.1150137,-0.01783179,0.07460446,4.612422,1.544423,-2.187135,0.2413581,1.280779,0.4121633,-1.14191,0.5558416,9.177716,21.14849,-0.1295443,-0.007177524,0.179947,-0.3764341,-3.293629,-0.6351538,0.321784,1.450405,0.3656948,-0.1053559,0.05984768,-0.02198438,-1.083297,0.579416,-0.03202132,0.498261,1.49054,0.2442627,-0.07358171,1.343129,0.3323767,281.3031,25.52172,229.6774,True
5,1.08889,-0.1320985,0.005587291,0.07884601,4.611084,1.544807,-2.184912,0.2405194,1.281075,0.4117742,-1.135158,0.6087826,9.496022,20.61281,-0.1157324,0.008842789,0.183094,-0.3753268,-3.288624,-0.6389185,0.3210672,1.450578,0.3650637,-0.1215811,0.04597718,-0.04523759,-1.084624,0.579314,-0.02997228,0.4978473,1.49047,0.2438252,-0.07473429,1.342522,0.3316624,281.3846,24.91024,230.3405,True
5,1.100002,-0.1150238,-0.007155703,0.08310842,4.610945,1.546062,-2.18415,0.2397212,1.281444,0.4111743,-1.129646,0.4952061,9.814323,20.2057,-0.114842,0.03445373,0.1682382,-0.3749608,-3.283524,-0.6424072,0.3203883,1.45081,0.364423,-0.1409087,0.02891545,-0.05993485,-1.085798,0.5789506,-0.02756052,0.4974461,1.490381,0.2434492,-0.07605942,1.341974,0.3309844,281.3842,23.92445,231.2657,True
5,1.111113,-0.09369148,-0.02630711,0.07992326,4.61138,1.547374,-2.183701,0.2390613,1.28182,0.4102814,-1.123823,0.5245761,10.07958,19.86287,-0.1235579,0.06216265,0.151313,-0.3750626,-3.27831,-0.6455231,0.3198543,1.451056,0.363852,-0.150433,0.0321101,-0.05343687,-1.086071,0.5794829,-0.02577221,0.4970326,1.490301,0.2431285,-0.07743647,1.341447,0.330364,281.3604,22.82344,232.3083,True
5,1.122224,-0.09263905,-0.02203772,0.07671078,4.610952,1.547808,-2.182649,0.2384792,1.282443,0.4099753,-1.119873,0.3530362,10.34483,19.58431,-0.1354818,0.07922761,0.1269303,-0.3754844,-3.274059,-0.6474935,0.3193753,1.451249,0.36323,-0.1364408,0.03958299,-0.03974054,-1.086024,0.5803152,-0.02512186,0.4966332,1.490283,0.2427936,-0.0787741,1.340931,0.3298011,281.3437,21.60316,233.5182,True
5,1.133335,-0.1043402,-0.03591758,0.07250339,4.611243,1.548844,-2.181009,0.2377543,1.283037,0.4093831,-1.114873,0.4506486,10.61008,19.28434,-0.1366757,0.07927568,0.1056312,-0.3757273,-3.271506,-0.6483218,0.3189871,1.451514,0.3625998,-0.127822,0.03959826,-0.03131771,-1.0862,0.5808869,-0.02437139,0.4963183,1.490329,0.2423649,-0.07991773,1.34033,0.329151,281.349,20.78414,234.4709,True
5,1.144446,-0.1074827,-0.07001581,0.07045963,4.612372,1.550482,-2.17946,0.2369578,1.283541,0.4087703,-1.108723,0.554696,10.90185,18.77009,-0.1311537,0.08026556,0.1396958,-0.3738769,-3.265265,-0.6528284,0.3187003,1.451791,0.3620181,-0.1107306,0.03428176,-0.02723745,-1.08639,0.581099,-0.02385633,0.4959264,1.490362,0.2420342,-0.08087254,1.339574,0.3282813,281.3131,19.92427,235.4154,True
5,1.155557,-0.1063251,-0.1211453,0.07164684,4.614455,1.552935,-2.178051,0.236114,1.284232,0.4083035,-1.102722,0.5403447,11.16711,18.23441,-0.1201934,0.05251466,0.1757832,-0.3710534,-3.2607,-0.6561409,0.3183396,1.452143,0.361428,-0.09690072,0.02257048,-0.02950862,-1.086805,0.5809485,-0.02316151,0.4955806,1.49041,0.2416103,-0.08183741,1.338766,0.3272886,281.2078,18.44125,236.791,True
5,1.166668,-0.1094195,-0.1701447,0.07922305,4.616776,1.55593,-2.176519,0.235244,1.284813,0.4073851,-1.097533,0.4663897,11.32626,17.74159,-0.08241596,-0.03161274,0.2126375,-0.3661713,-3.261561,-0.6557043,0.3180181,1.452502,0.3608363,-0.09263688,0.009782374,-0.02955078,-1.087182,0.5805159,-0.02197747,0.4953157,1.490381,0.2412157,-0.08292257,1.338,0.3261947,281.0804,16.89206,238.2492,True
5,1.17778,-0.115758,-0.2053236,0.07399268,4.619296,1.558466,-2.174777,0.2343582,1.285494,0.4069042,-1.092666,0.4378368,11.43236,17.3559,-0.07055927,-0.06673978,0.2167421,-0.3629681,-3.261487,-0.6553994,0.3176135,1.45279,0.3601739,-0.09592578,0.006581642,-0.0380374,-1.08789,0.5805074,-0.02075029,0.4949312,1.49039,0.2408509,-0.08408127,1.337299,0.3249601,280.9284,15.55406,239.5247,True
5,1.188891,-0.1434322,-0.2288552,0.05812308,4.621947,1.560488,-2.172144,0.2334016,1.285884,0.4057581,-1.087655,0.4512471,11.37931,17.22734,-0.08550206,-0.0454933,0.2243375,-0.3612125,-3.256294,-0.6586487,0.3170578,1.452985,0.3594732,-0.1066689,0.003381841,-0.04645105,-1.088803,0.5805092,-0.01917609,0.4946205,1.490347,0.2404585,-0.08523995,1.336669,0.3235179,280.7652,14.37896,240.6609,True
5,1.200002,-0.1828443,-0.2267697,0.06671476,4.623148,1.562664,-2.168475,0.2325103,1.286667,0.4052989,-1.082563,0.4586173,11.24668,17.37733,-0.1111611,0.03106299,0.2502452,-0.3601377,-3.243388,-0.6686026,0.3165376,1.453237,0.3587816,-0.1118545,-0.003003843,-0.03360424,-1.08876,0.5802462,-0.01762853,0.4942704,1.490303,0.2401395,-0.08634525,1.336096,0.3217759,280.5982,13.347,241.6203,True
5,1.211113,-0.2105343,-0.2342835,0.06358535,4.625186,1.564786,-2.164987,0.2315442,1.28755,0.4047821,-1.076931,0.50805,11.03448,17.67731,-0.1422962,0.1055323,0.2506083,-0.3603758,-3.230086,-0.6783513,0.3161059,1.45355,0.3581862,-0.1118176,-0.01152223,-0.0304065,-1.089002,0.5798329,-0.0162096,0.4939018,1.490273,0.2398686,-0.08743268,1.335595,0.3197977,280.3904,12.47216,242.299,True
5,1.222224,-0.2361031,-0.2172579,0.07743683,4.626037,1.566985,-2.16148,0.230625,1.288312,0.4038155,-1.071464,0.4928221,10.8488,18.06299,-0.146645,0.1108735,0.238929,-0.3595347,-3.222878,-0.6833109,0.3157501,1.453951,0.3576057,-0.1033595,-0.001932859,-0.03583092,-1.089602,0.5801803,-0.0154687,0.493586,1.490255,0.2395861,-0.0885562,1.335202,0.3176584,280.1729,11.4077,243.0811,True
5,1.233335,-0.2446184,-0.2097878,0.08915168,4.626959,1.569257,-2.15831,0.2296741,1.289237,0.4032288,-1.067484,0.3572335,10.66313,18.47011,-0.1239948,0.04593246,0.2503578,-0.355916,-3.221691,-0.68394,0.3156049,1.454499,0.3570805,-0.09385695,0.007657044,-0.04339658,-1.09037,0.5807,-0.01499519,0.4933488,1.49025,0.2393622,-0.08973505,1.335102,0.3155691,279.947,9.456938,244.6136,True
5,1.244446,-0.2584715,-0.1916605,0.1040433,4.627313,-4.711794,-2.154892,0.2286076,1.290031,0.4020486,-1.063648,0.3453664,10.58355,18.72723,-0.08406459,-0.06266398,0.2775528,-0.3499271,-3.224554,-0.6817887,0.3154432,1.454959,0.356518,-0.0772533,0.02042423,-0.0840641,-1.092693,0.5814347,-0.0150892,0.493104,1.490273,0.23908,-0.09089988,1.335397,0.313655,279.7462,7.887018,245.8628,True
5,1.255558,-0.2723503,-0.1618311,0.1178374,4.627202,-4.709904,-2.151253,0.2275224,1.290987,0.4011257,-1.06026,0.3043793,10.5305,18.64153,-0.07205994,-0.1106245,0.2997398,-0.3448133,-3.223645,-0.6822824,0.315185,1.455459,0.3559537,-0.0776718,0.008680169,-0.1234715,-1.095415,0.5809802,-0.01398612,0.4928675,1.490261,0.2387128,-0.09194772,1.336088,0.3119293,279.6598,7.165265,246.4001,True
5,1.266669,-0.288346,-0.1351832,0.135911,4.626582,-4.707798,-2.147352,0.2264791,1.291872,0.4003601,-1.056401,0.347961,10.45093,18.19156,-0.0811981,-0.1416911,0.3583137,-0.3385645,-3.217889,-0.6863235,0.3148333,1.455855,0.3553786,-0.08843497,-0.006251249,-0.1339932,-1.097039,0.5801774,-0.01221592,0.4925597,1.490237,0.2383614,-0.09288929,1.337131,0.3103854,279.6478,7.416587,246.0446,True
5,1.27778,-0.3011661,-0.1128285,0.1369433,4.626203,-4.70627,-2.143522,0.2254522,1.29274,0.3996091,-1.052713,0.3320877,10.39788,17.42018,-0.09938739,-0.112992,0.3606236,-0.3352036,-3.21071,-0.6913697,0.3144478,1.456199,0.3547249,-0.1000903,-0.01797134,-0.1285342,-1.098265,0.5794715,-0.01037647,0.4922551,1.490231,0.2380717,-0.09382147,1.338448,0.3089268,279.7176,8.317224,245.1314,True
5,1.288891,-0.3438123,-0.09052572,0.1401591,4.62552,-4.704731,-2.138111,0.2243962,1.293744,0.398787,-1.049259,0.3110482,10.29178,16.34883,-0.1318063,-0.03736886,0.3247801,-0.3350795,-3.200714,-0.6981834,0.3140866,1.456599,0.3540883,-0.1125395,-0.02328901,-0.0975008,-1.098194,0.5789579,-0.008449677,0.4919349,1.490197,0.2377582,-0.09477196,1.339973,0.3075301,279.7942,9.195739,244.1778,True
5,1.300002,-0.3597785,-0.09157727,0.1497917,4.625146,-4.702546,-2.133388,0.2234573,1.294866,0.3987112,-1.046265,0.2692101,10.07958,15.10606,-0.1553981,-0.02886803,0.3036417,-0.3330091,-3.195566,-0.7005687,0.3137941,1.457067,0.353471,-0.1068601,-0.0136756,-0.06453823,-1.097705,0.5792261,-0.007658985,0.4915904,1.490184,0.2374916,-0.09569402,1.341622,0.3062069,279.8707,10.05182,243.1885,True
5,1.311113,-0.3682635,-0.1032875,0.159422,4.625318,-4.699935,-2.128825,0.2223599,1.295931,0.3979926,-1.041905,0.3946711,9.867373,13.92758,-0.1604448,-0.05879505,0.3344853,-0.3283124,-3.19076,-0.7031808,0.3135671,1.457712,0.353312,-0.09418748,0.001238059,-0.07426743,-1.098812,0.5797895,-0.007311442,0.4913383,1.490218,0.2371891,-0.0966082,1.34333,0.3049821,279.9336,10.94604,242.1638,True
5,1.322224,-0.3618582,-0.1011499,0.1626002,4.625319,-4.697668,-2.125103,0.2212917,1.296978,0.3972998,-1.03988,0.1801177,9.655171,12.87765,-0.1398978,-0.08757749,0.3694504,-0.3230414,-3.184467,-0.708329,0.3133487,1.458238,0.3526859,-0.09230013,0.009753134,-0.09666282,-1.100628,0.5802847,-0.006561763,0.4911324,1.490216,0.236876,-0.09755687,1.345152,0.3038798,279.9637,11.22343,241.7283,True
5,1.333336,-0.3640187,-0.09158409,0.1551239,4.625144,-4.69607,-2.120864,0.2203202,1.297983,0.3966031,-1.037675,0.1986156,9.496022,12.02057,-0.1054601,-0.1184587,0.4107215,-0.317076,-3.177519,-0.7149192,0.3130609,1.458743,0.3519468,-0.09896433,0.003346067,-0.1221543,-1.102804,0.5800861,-0.005133776,0.4909201,1.490146,0.2365539,-0.098418,1.347094,0.3029426,279.9833,11.58793,241.2201,True
5,1.344447,-0.3640421,-0.09055416,0.1412646,4.6255,-4.69469,-2.116762,0.2193593,1.298952,0.3957963,-1.036282,0.1244658,9.442968,11.46347,-0.1042636,-0.1153163,0.434159,-0.3120277,-3.168432,-0.7224722,0.3127549,1.459157,0.3512549,-0.1184191,-0.00732968,-0.1485702,-1.105294,0.5795649,-0.002920156,0.4907568,1.490069,0.2363036,-0.09923907,1.34914,0.3020356,280.0654,12.52985,240.3054,True
5,1.355558,-0.3619093,-0.09909095,0.1338239,4.626077,-4.692907,-2.112649,0.2183738,1.299963,0.3951395,-1.033831,0.2219312,9.522545,11.07778,-0.1151403,-0.09185971,0.4097754,-0.3091914,-3.161177,-0.7276499,0.3125009,1.459534,0.3506107,-0.1280497,-0.01266277,-0.1527249,-1.107147,0.5792052,-0.0009917612,0.4905164,1.490069,0.2360239,-0.09999448,1.351199,0.301062,280.1771,13.88632,238.9817,True
5,1.366669,-0.3693254,-0.136433,0.1168775,4.628181,-4.690784,-2.1082,0.2173902,1.300922,0.3943746,-1.032187,0.1473951,9.70822,10.7778,-0.1486321,-0.0375194,0.3621638,-0.3085507,-3.153012,-0.7325674,0.3122106,1.459919,0.3500173,-0.1225957,-0.003062196,-0.1400033,-1.108227,0.5796307,3.648531E-05,0.4902841,1.490031,0.2358055,-0.1007142,1.353216,0.3000033,280.2706,15.13644,237.6985,True
5,1.37778,-0.3778385,-0.1492297,0.1115838,4.629377,-4.689032,-2.103495,0.2164544,1.302372,0.3946609,-1.030778,0.1268278,9.999999,10.5421,-0.1581213,-0.04503483,0.3728594,-0.3044824,-3.144699,-0.7385598,0.3119923,1.460268,0.34934,-0.1074543,-0.0009124614,-0.1188602,-1.108791,0.5797074,0.0006562029,0.4900453,1.489969,0.2355237,-0.1014242,1.355168,0.2988625,280.3102,16.25342,236.4982,True
5,1.388891,-0.4002613,-0.1493409,0.08179477,4.630864,-4.688228,-2.0982,0.215495,1.303452,0.3942232,-1.029237,0.1391465,10.37135,10.32783,-0.151496,-0.05362332,0.4068864,-0.299694,-3.134279,-0.7470518,0.3118144,1.460713,0.3487444,-0.1021176,0.008679118,-0.1178547,-1.110046,0.5802057,0.001338238,0.4898145,1.489838,0.2351997,-0.1021299,1.357054,0.2976425,280.3074,17.26984,235.384,True
5,1.400002,-0.3959948,-0.1557434,0.07648268,4.632127,-4.686541,-2.093847,0.2145187,1.30432,0.3933468,-1.027881,0.1222376,10.74271,9.877864,-0.1086928,-0.06526732,0.4311094,-0.2947874,-3.123633,-0.7574917,0.3116131,1.46121,0.3480933,-0.1161655,0.02357375,-0.1358273,-1.112304,0.5810088,0.002800048,0.4896435,1.489748,0.2348592,-0.1028308,1.358903,0.2963482,280.1906,17.93931,234.5064,True
5,1.411114,-0.3821715,-0.1642973,0.05304319,4.634042,-4.685637,-2.089994,0.2136486,1.30537,0.3928707,-1.026348,0.1387046,11.03448,9.106493,-0.08094162,-0.08223857,0.4340952,-0.2901466,-3.115849,-0.764825,0.3113872,1.461821,0.3472378,-0.1290399,0.02995701,-0.1442159,-1.11417,0.5816211,0.004355067,0.4894651,1.489731,0.2344446,-0.1035754,1.360872,0.2951963,280.0118,18.10369,233.9814,True
5,1.422225,-0.3683712,-0.1493993,0.04020704,4.635036,-4.684878,-2.086352,0.2128478,1.306296,0.3920019,-1.026602,-0.02474353,11.29973,7.992284,-0.04381627,-0.09056184,0.4018968,-0.2868278,-3.110804,-0.770485,0.3112543,1.462337,0.3465574,-0.1279794,0.02569608,-0.1452958,-1.115886,0.5817611,0.005568403,0.4894484,1.489703,0.2340164,-0.1043472,1.363007,0.2942567,279.9443,18.91744,233.0225,True
5,1.433336,-0.342853,-0.1355384,0.02628017,4.636004,-4.684532,-2.083409,0.2121155,1.307269,0.3914866,-1.026522,0.007246944,11.51194,6.578101,-0.02893358,-0.1245695,0.3793495,-0.2824037,-3.109149,-0.7721729,0.311117,1.463,0.3459322,-0.1268788,0.02037078,-0.1421063,-1.117324,0.5817965,0.006934871,0.4893031,1.489662,0.2336314,-0.1050147,1.365229,0.2934207,280.0109,20.52053,231.4662,True
5,1.444447,-0.3098764,-0.1216711,0.01234328,4.636961,-4.684226,-2.081046,0.2115123,1.308176,0.3908811,-1.026153,0.03328534,11.64456,5.078208,-0.04271945,-0.1320872,0.3858061,-0.2779339,-3.102287,-0.7777882,0.3108819,1.463463,0.3452337,-0.1384856,0.0001325235,-0.1323802,-1.118441,0.581066,0.009191101,0.489098,1.4896,0.2332215,-0.1055487,1.367445,0.2926376,280.0866,22.38114,229.6458,True
5,1.455558,-0.3024994,-0.0779894,0.007960847,4.63654,-4.684566,-2.077963,0.2108353,1.309033,0.3903368,-1.026248,-0.009371187,11.83024,4.006856,-0.07081996,-0.04479216,0.368083,-0.2772351,-3.086908,-0.7907184,0.3106324,1.463813,0.3446054,-0.163777,-0.02543074,-0.1075899,-1.118827,0.5797824,0.01242684,0.4888837,1.489541,0.23281,-0.1059806,1.36959,0.2918658,280.1911,24.06067,227.9739,True
5,1.466669,-0.3089158,-0.06842323,0.003688043,4.636984,-4.684443,-2.074356,0.2101647,1.309886,0.3898158,-1.026312,-0.006168155,12.04244,3.492605,-0.08686848,-0.007580072,0.376794,-0.2749682,-3.072166,-0.8033833,0.3104206,1.464208,0.3439081,-0.1835617,-0.02755465,-0.06582676,-1.118214,0.5792353,0.01521863,0.4886402,1.489464,0.2325032,-0.106332,1.371593,0.2911442,280.2702,25.55833,226.409,True
5,1.47778,-0.2972244,-0.05241862,0.003616087,4.637177,-4.68446,-2.071426,0.2095508,1.310747,0.3892858,-1.025057,0.1145366,12.36074,3.535462,-0.07879788,0.02666767,0.3214338,-0.2745762,-3.064025,-0.8105386,0.3102763,1.464565,0.3434062,-0.1778561,-0.001972474,-0.02968069,-1.1174,0.5800011,0.01661253,0.4884587,1.489398,0.232095,-0.1066516,1.37339,0.2904991,280.3497,26.85317,225.0365,True
5,1.488891,-0.2748853,-0.03960842,-0.001780994,4.637264,-4.684636,-2.069119,0.2089411,1.311503,0.3887389,-1.024035,0.09207006,12.70557,4.135417,-0.05320084,-0.005173199,0.3094841,-0.2716914,-3.058545,-0.8160152,0.3101041,1.465115,0.3428137,-0.1628944,0.02254243,-0.02453186,-1.117563,0.5812457,0.01732999,0.4883184,1.489283,0.2316175,-0.1071127,1.375036,0.2899835,280.4307,27.56486,224.2635,True
5,1.500003,-0.2397824,-0.01505062,-0.008290139,4.636776,-4.685268,-2.067745,0.2083842,1.312296,0.3886352,-1.024306,-0.02557622,13.1565,5.378185,-0.02298506,-0.05311039,0.3464675,-0.2665425,-3.050199,-0.824903,0.309942,1.465626,0.342201,-0.1536754,0.03637069,-0.05872705,-1.119368,0.5821198,0.01825597,0.4882315,1.489242,0.2311862,-0.107694,1.376594,0.2895798,280.4592,27.94014,223.9062,True
5,1.511114,-0.2142536,0.01804705,0.003304248,4.635397,-4.685553,-2.066284,0.2079111,1.312817,0.3880513,-1.02467,-0.03322402,13.71353,7.242337,-0.01221547,-0.06056147,0.3613023,-0.2629009,-3.039305,-0.8356051,0.3097558,1.466021,0.341558,-0.1530668,0.03101382,-0.1013354,-1.121738,0.5822374,0.01993243,0.4881317,1.489129,0.2307396,-0.1082933,1.378092,0.2892582,280.4837,28.30139,223.6112,True
5,1.522225,-0.2004892,0.06066787,-0.003216298,4.633732,-4.686722,-2.06451,0.2074184,1.313462,0.3876712,-1.025265,-0.054401,14.35013,9.663593,-0.01779641,-0.04983662,0.3251428,-0.2612998,-3.033094,-0.8411493,0.3094479,1.466377,0.3409393,-0.1658866,0.004376076,-0.1054374,-1.122945,0.5814379,0.0225591,0.4879898,1.48909,0.2303512,-0.1088439,1.379508,0.2890114,280.5236,28.76557,223.1649,True
5,1.533336,-0.1898739,0.0777213,-0.00753681,4.632569,-4.687621,-2.062835,0.207002,1.313991,0.3870394,-1.024894,0.03410079,15.01326,12.44911,-0.03211263,-0.01457749,0.2667287,-0.2615006,-3.027377,-0.8457558,0.309271,1.466621,0.3403249,-0.1710491,-0.00840006,-0.09046599,-1.123541,0.5809149,0.02487765,0.4879318,1.489028,0.2299471,-0.1093108,1.380794,0.2889093,280.6148,29.25139,222.6515,True
5,1.544447,-0.1696595,0.09159616,-0.009730503,4.631446,-4.688349,-2.06168,0.2067111,1.314377,0.3864524,-1.024115,0.07063475,15.64987,15.06321,-0.05687738,-0.01454778,0.2232021,-0.2606612,-3.02455,-0.8470575,0.3089736,1.466961,0.339709,-0.1589774,-0.009440452,-0.05756801,-1.123023,0.5807577,0.02631416,0.4878218,1.488981,0.2295859,-0.1097292,1.381918,0.28891,280.7854,29.5061,222.459,True
5,1.555558,-0.153703,0.1065437,-0.007663857,4.629956,-4.689161,-2.060592,0.2062701,1.31465,0.3858473,-1.023871,0.02146876,16.25995,17.50589,-0.08034263,-0.005023122,0.2233828,-0.2590297,-3.015346,-0.8542979,0.3087338,1.467126,0.339169,-0.1579244,0.003338046,-0.05865221,-1.123719,0.5812026,0.02774694,0.4877318,1.488933,0.2291949,-0.1102132,1.382947,0.2890024,280.9175,29.49562,222.5809,True
5,1.566669,-0.1622366,0.1406821,0.01783897,4.627082,-4.689476,-2.058563,0.205835,1.31496,0.3856187,-1.024135,-0.02439184,16.6313,19.58431,-0.08246762,-0.0007766634,0.226602,-0.2574105,-3.007152,-0.8612125,0.3085524,1.467264,0.3386247,-0.1579283,0.008667596,-0.0586542,-1.124381,0.5815824,0.02938425,0.4876745,1.488838,0.2288527,-0.1106717,1.383876,0.2891121,281.0258,29.53728,222.723,True
5,1.577781,-0.1846173,0.1737226,0.04336955,4.623832,-4.689611,-2.055802,0.2053302,1.315208,0.3851388,-1.023975,0.014721,16.7374,21.25562,-0.06131221,-0.002761863,0.2009126,-0.2564821,-3.002702,-0.8655995,0.3084093,1.467309,0.3381648,-0.1429748,-0.0009212866,-0.05666959,-1.124797,0.5810785,0.0305635,0.4874945,1.488741,0.2284806,-0.1110387,1.384674,0.2891678,281.1496,29.72851,222.7032,True
5,1.588892,-0.1825457,0.2046147,0.04116091,4.620728,-4.690775,-2.053895,0.2049072,1.315263,0.3845358,-1.022838,0.1035802,16.60477,22.54125,-0.04971776,-0.009040028,0.1773991,-0.2555276,-2.998664,-0.8691798,0.308193,1.46739,0.3378677,-0.1247651,0.0001618266,-0.04727469,-1.124971,0.5811967,0.03132224,0.4874066,1.488655,0.2281203,-0.1114311,1.385371,0.2891451,281.2874,29.74165,222.7568,True
5,1.600003,-0.1783447,0.2301747,0.03256438,4.617808,-4.692448,-2.052248,0.2046259,1.31554,0.3840349,-1.021884,0.08629782,16.23342,23.48404,-0.04035373,-0.01743963,0.1357792,-0.2549908,-2.99976,-0.8680393,0.3080702,1.467553,0.3374052,-0.1192321,0.004429154,-0.02815627,-1.124575,0.5812863,0.03240747,0.487318,1.488571,0.2277374,-0.1119157,1.386078,0.2890922,281.4284,29.11015,223.3689,True
5,1.611114,-0.1560244,0.2482988,0.0218288,4.614801,-4.69416,-2.051411,0.2043573,1.315645,0.383462,-1.022513,-0.05816493,15.78249,24.1697,-0.03606858,-0.07380429,0.1100608,-0.2527574,-3.004874,-0.8627702,0.30774,1.467783,0.3369188,-0.1286843,0.01827791,-0.01421207,-1.124275,0.5819529,0.03403467,0.4873369,1.488453,0.2273407,-0.1124851,1.386907,0.2890043,281.5793,28.42793,224.0881,True
5,1.622225,-0.1304474,0.2291287,0.003719471,4.613389,-4.69554,-2.051019,0.204157,1.315694,0.3826745,-1.022752,-0.02142526,15.30504,24.66253,-0.04787865,-0.06635848,0.09843601,-0.2517928,-3.003361,-0.8633542,0.307629,1.467939,0.336396,-0.1425553,0.03425312,-0.01513505,-1.124422,0.5829764,0.03569674,0.4873296,1.488371,0.2269335,-0.1129926,1.387832,0.2889169,281.725,28.26506,224.2926,True
5,1.633336,-0.1123086,0.2003672,-0.009026393,4.612546,-4.696595,-2.050506,0.2038448,1.315918,0.3821549,-1.023462,-0.06484418,14.80106,24.98393,-0.04896757,-0.05251314,0.1016736,-0.251045,-2.99925,-0.8667841,0.307404,1.468222,0.3356087,-0.1351443,0.0395657,-0.02053233,-1.124602,0.5834129,0.03650102,0.4873014,1.488332,0.2265565,-0.1133685,1.388823,0.2889093,281.864,28.38425,224.1823,True
5,1.644447,-0.06966354,0.1684765,-0.01755247,4.612081,-4.697504,-2.051098,0.2038224,1.316356,0.3821938,-1.023845,-0.03457759,14.32361,25.17677,-0.06819679,0.00172529,0.1221658,-0.2512591,-2.987318,-0.8768405,0.3072156,1.468344,0.3351986,-0.1235405,0.02784684,-0.03130244,-1.125286,0.5833484,0.03757907,0.4873047,1.488284,0.2261586,-0.1135772,1.389774,0.2890053,282.0784,28.96546,223.6777,True
5,1.655559,-0.04419374,0.2185813,-0.02197595,4.608541,-4.699753,-2.051548,0.2039035,1.316497,0.3820179,-1.023581,0.02424693,14.05836,25.47675,-0.06847815,0.03694092,0.09455374,-0.2523324,-2.983298,-0.8799963,0.3070764,1.468624,0.3346078,-0.127976,0.0001234412,-0.04933918,-1.126279,0.5822085,0.03949042,0.4872823,1.488256,0.2257469,-0.1136706,1.39056,0.2891113,282.2944,29.86253,222.9458,True
5,1.66667,-0.0367631,0.2345764,-0.02096213,4.605886,-4.701381,-2.051562,0.2038945,1.316556,0.3815417,-1.024433,-0.07833361,14.00531,25.73388,-0.05014888,0.01670049,0.1199613,-0.2506189,-2.977686,-0.8854696,0.3068946,1.469048,0.3338923,-0.1429444,-0.006271727,-0.0545005,-1.127033,0.5820861,0.04162121,0.487312,1.488214,0.2253137,-0.1137783,1.391174,0.2891885,282.3925,30.35924,222.5246,True
5,1.677781,-0.003682603,0.1941302,-0.03157399,4.605483,-4.702342,-2.052661,0.2037743,1.316482,0.3808057,-1.023992,0.04082389,14.13793,25.86243,-0.0265162,-0.008835685,0.1389276,-0.2485273,-2.9735,-0.8899352,0.3067264,1.469196,0.3333042,-0.1685693,-0.0127027,-0.06060685,-1.127805,0.5814033,0.04450462,0.4873464,1.488118,0.2248912,-0.1138211,1.391573,0.2893263,282.4064,30.35869,222.4515,True
5,1.688892,0.01238183,0.1334058,-0.0442389,4.606351,-4.702912,-2.053419,0.2037792,1.316535,0.3804586,-1.023315,0.06134096,14.40318,25.88386,-0.02464831,0.01786928,0.1102167,-0.2491153,-2.969989,-0.8931009,0.3065977,1.469131,0.3326216,-0.1760829,-0.01377092,-0.06585246,-1.128734,0.5813311,0.04670865,0.4873742,1.488042,0.2245233,-0.1138971,1.391786,0.2896625,282.5216,29.84379,222.9312,True
5,1.700003,0.0113686,0.1089071,-0.0420541,4.606188,-4.703527,-2.053566,0.2036751,1.316532,0.3799217,-1.024185,-0.08012502,14.66844,25.69102,-0.04411966,0.05941969,0.08380102,-0.2506615,-2.964684,-0.8970576,0.30659,1.46925,0.3320057,-0.1716035,-0.01910235,-0.04671335,-1.128553,0.5806178,0.04858671,0.4874688,1.487995,0.2241127,-0.114072,1.391842,0.2901161,282.6844,29.5066,223.4954,True
5,1.711114,0.02633535,0.08230881,-0.03881997,4.606375,-4.703814,-2.054391,0.2036707,1.316609,0.3795328,-1.02376,0.03938346,14.80106,25.13392,-0.08076032,0.1115962,0.04259944,-0.2534504,-2.960311,-0.8991322,0.3065748,1.469293,0.3314509,-0.1476552,-0.03611786,-0.001139753,-1.126937,0.5793412,0.04979925,0.4875318,1.487898,0.2237182,-0.1142688,1.391646,0.2904537,282.7857,29.74896,223.6178,True
5,1.722225,0.04131515,0.04931327,-0.03770439,4.606936,-4.704009,-2.055447,0.2037032,1.316611,0.3792255,-1.022882,0.07968938,14.72149,24.14827,-0.07114092,0.1031045,0.04252046,-0.2537353,-2.956752,-0.9022228,0.3064493,1.469279,0.3309519,-0.1271494,-0.03928888,0.02314382,-1.125858,0.5786754,0.05076677,0.4875551,1.487824,0.2232962,-0.1144688,1.391195,0.290549,282.7635,29.76091,223.8488,True
5,1.733337,0.02008492,0.01626517,-0.03012826,4.607687,-4.703644,-2.05497,0.2038077,1.316679,0.3787448,-1.023349,-0.043408,14.48276,22.79837,-0.02710918,0.04245685,0.06873494,-0.2512937,-2.955767,-0.9044873,0.306535,1.469338,0.3306191,-0.102681,-0.02968981,0.02074247,-1.125748,0.5787058,0.05108236,0.4875892,1.487679,0.2228622,-0.1147497,1.390625,0.2903776,282.6868,29.08667,224.627,True
5,1.744448,-0.004388594,0.00131032,-0.02898453,4.608271,-4.703668,-2.054104,0.2038759,1.316723,0.378372,-1.023247,0.009241516,14.08488,21.12706,-0.00781719,0.01587356,0.07281452,-0.2500751,-2.954816,-0.9060825,0.3065229,1.469447,0.3301206,-0.09650958,-0.01799589,-0.0006222799,-1.126318,0.5787556,0.05174495,0.4875985,1.487597,0.2224176,-0.1149973,1.389986,0.2899663,282.5577,28.27505,225.4351,True
5,1.755559,-0.03206964,-0.006183182,-0.02465261,4.608467,-4.70365,-2.052754,0.2039933,1.316721,0.3781588,-1.021164,0.1898344,13.50132,19.32719,0.006142188,0.007358519,0.08655333,-0.2491483,-2.950876,-0.9103822,0.3065687,1.469428,0.3297315,-0.09433071,-0.03503416,0.002560008,-1.126219,0.5777196,0.05311515,0.487779,1.487626,0.2220149,-0.1151522,1.389289,0.2893591,282.4149,27.62561,226.032,True
5,1.76667,-0.0735506,-0.02645603,-0.007486812,4.609107,-4.7027,-2.050282,0.2040101,1.316678,0.3778055,-1.019827,0.11984,12.86472,17.95586,-0.02272061,0.03602877,0.08572842,-0.2496266,-2.945055,-0.9147575,0.3066227,1.469417,0.3293118,-0.07929903,-0.06271546,0.0120028,-1.125842,0.5759541,0.05425152,0.4877833,1.487674,0.2216423,-0.1152581,1.38865,0.2885753,282.2517,26.8362,226.7543,True
5,1.777781,-0.0532316,-0.07328001,-0.006337173,4.610994,-4.701697,-2.050248,0.2040077,1.316902,0.3778472,-1.018493,0.120383,12.22811,17.22734,-0.03359763,0.06799674,0.06563772,-0.2509262,-2.94027,-0.9186957,0.3066857,1.469449,0.3288805,-0.06222477,-0.07657835,0.01289766,-1.125673,0.5741428,0.0549727,0.4878175,1.487669,0.221251,-0.1153452,1.388193,0.2877122,282.0728,26.11578,227.3245,True
5,1.788892,-0.02329818,-0.1243409,0.002256285,4.613555,-4.700022,-2.05077,0.2039296,1.317281,0.3775318,-1.016538,0.1771877,11.64456,17.1202,-0.02853972,0.08727178,0.03156293,-0.2527367,-2.938977,-0.9198431,0.3068147,1.469502,0.3284793,-0.04067294,-0.07441711,0.03610589,-1.124413,0.5733292,0.05510639,0.4878509,1.487648,0.2208154,-0.1153792,1.387981,0.2868916,281.9414,25.6234,227.6367,True
5,1.800003,-0.01047389,-0.1413508,0.007603534,4.6152,-4.698856,-2.050972,0.2039306,1.317603,0.37729,-1.01785,-0.1222874,11.22016,17.78444,-0.02421576,0.04576864,0.01971174,-0.2521438,-2.942047,-0.9167447,0.3069829,1.469658,0.3280649,-0.01916606,-0.06908399,0.05398434,-1.123195,0.5723798,0.05493063,0.4878913,1.487544,0.2204018,-0.1153709,1.388085,0.2861319,281.8378,25.4136,227.7157,True
5,1.811115,0.003346496,-0.1210755,0.01179185,4.615693,-4.698302,-2.051466,0.2038954,1.317904,0.3768713,-1.017469,0.03508517,10.98143,19.1772,-0.01513516,-0.02358491,0.07488237,-0.2485422,-2.940093,-0.9187714,0.3071306,1.469954,0.3276422,-0.01170322,-0.06588196,0.05496785,-1.122596,0.5716728,0.05517697,0.4880165,1.48744,0.2199409,-0.1152513,1.388405,0.285438,281.7549,26.03971,227.002,True
5,1.822226,-0.008439231,-0.08274971,0.01171793,4.615205,-4.698482,-2.050908,0.2038802,1.317995,0.3762212,-1.015649,0.1647614,11.00796,21.12706,-0.01059195,-0.04177492,0.1110352,-0.2461608,-2.93458,-0.9242,0.3072117,1.470191,0.3271594,-0.011842,-0.06481466,0.0432398,-1.122741,0.5710639,0.05576872,0.4883451,1.487496,0.2194963,-0.1150613,1.388767,0.2847189,281.7462,27.08814,225.9298,True
5,1.833337,-0.02768848,-0.02735503,0.02546704,4.613328,-4.698583,-2.049937,0.2038886,1.318124,0.3757186,-1.014215,0.1284596,11.32626,23.56975,-0.01050436,-0.01840226,0.136656,-0.2454289,-2.925541,-0.9329421,0.3072373,1.470384,0.3266547,-0.02384373,-0.06803171,0.0178101,-1.123385,0.5701591,0.05700203,0.4885147,1.487451,0.218972,-0.1148919,1.389048,0.2839646,281.7804,27.86567,225.0869,True
5,1.844448,-0.04372172,0.01313131,0.03816982,4.611712,-4.698656,-2.048834,0.2039471,1.318261,0.374903,-1.011472,0.2486623,11.88329,26.24813,-0.02446796,0.01883347,0.1378954,-0.2457208,-2.916978,-0.9404671,0.3073275,1.470511,0.3262212,-0.02823504,-0.07975981,0.006131057,-1.124016,0.5687147,0.05822442,0.4888122,1.487429,0.2185192,-0.1148501,1.389172,0.2832066,281.8446,28.26188,224.6168,True
5,1.855559,-0.05437529,0.03553422,0.05944468,4.61017,-4.697877,-2.047894,0.2039835,1.318486,0.3746393,-1.009318,0.1935961,12.54642,28.58367,-0.03641571,0.07208324,0.1285093,-0.247356,-2.906761,-0.9495256,0.3074204,1.470592,0.3257375,-0.02832653,-0.1095868,-0.0034381,-1.124497,0.5663016,0.05959036,0.4889141,1.487427,0.2180216,-0.1149838,1.389116,0.2824979,281.8886,28.00015,224.8007,True
5,1.86667,-0.06609004,0.04299363,0.06903483,4.609011,-4.697222,-2.046681,0.2039695,1.31871,0.3741145,-1.007553,0.1587674,13.2626,31.19777,-0.04391094,0.0773959,0.1243025,-0.2473853,-2.900615,-0.9548338,0.3076353,1.470604,0.3254364,-0.01543938,-0.1372203,0.008123145,-1.124572,0.5643818,0.06059464,0.4893945,1.487522,0.2175071,-0.1152489,1.388954,0.281895,281.9141,27.0281,225.7361,True
5,1.877781,-0.08531305,0.06959847,0.07114044,4.607149,-4.697207,-2.045087,0.2040428,1.318807,0.373524,-1.00617,0.124043,14.00531,34.24041,-0.04172591,0.02311675,0.1049878,-0.2457011,-2.902567,-0.9525059,0.3078051,1.470782,0.3251245,0.001835525,-0.142509,0.03028581,-1.123967,0.5626849,0.06088306,0.4893584,1.487738,0.2171302,-0.1155301,1.388754,0.2813658,281.9028,25.83873,226.9543,True
5,1.888893,-0.1109062,0.07806034,0.06477296,4.605917,-4.697287,-2.043057,0.2040418,1.318866,0.3730633,-1.004125,0.1846295,14.80106,37.69016,-0.01278959,-0.06622807,0.08648048,-0.2425048,-2.910686,-0.9454083,0.3078573,1.471092,0.3249495,0.01373778,-0.1297088,0.04826301,-1.122818,0.5614812,0.06090463,0.489433,1.487689,0.2167432,-0.1157507,1.388583,0.2808986,281.8827,24.75139,228.0528,True
5,1.900004,-0.1439118,0.0716278,0.07017481,4.603905,-4.696494,-2.038818,0.2039576,1.319147,0.3724618,-1.00171,0.2177855,15.59682,41.56846,-0.01420797,-0.001192436,0.06320482,-0.2433666,-2.904223,-0.9513158,0.3079268,1.471323,0.3242872,0.005102506,-0.07215746,0.04085805,-1.122277,0.5619653,0.06095097,0.4891909,1.487593,0.216048,-0.1159262,1.388494,0.2804432,281.9016,23.98616,228.8624,True
5,1.911115,-0.1407194,0.08123785,0.07760552,4.602287,-4.695989,-2.037418,0.2039367,1.319377,0.3719935,-0.9970854,0.4195801,16.15384,44.91108,-0.02908192,0.02747282,0.08467852,-0.2432957,-2.89534,-0.959159,0.3080346,1.471457,0.3239243,0.01580309,-0.07105079,0.04711268,-1.121889,0.5615813,0.060825,0.4891615,1.487509,0.2157023,-0.1160869,1.388525,0.2800005,281.9738,23.38042,229.4992,True
5,1.922226,-0.1407194,0.08123785,0.07760552,4.602287,-4.695989,-2.037418,0.2039367,1.319377,0.3719935,-0.9970183,0.001205201,16.49867,47.41804,-0.02908192,0.02747282,0.08467852,-0.2432957,-2.89534,-0.959159,0.3080346,1.471457,0.3239243,0.01580309,-0.07105079,0.04711268,-1.121889,0.5615813,0.060825,0.4891615,1.487509,0.2157023,-0.1163391,1.388857,0.2795753,282.0281,22.54898,230.3507,True
5,1.933337,-0.1183975,0.1228571,0.09131537,4.599061,-4.695925,-2.036878,0.2039347,1.319521,0.3714607,-0.9970524,-0.004492761,16.6313,49.15363,-0.04493508,0.05077758,0.1178565,-0.2430486,-2.883563,-0.9695222,0.3082497,1.471522,0.3235874,0.04037333,-0.0795403,0.05322861,-1.121395,0.5605052,0.0600407,0.489166,1.4876,0.2153602,-0.1164375,1.389387,0.2791585,282.0555,22.72569,230.138,True
5,1.944448,-0.09717064,0.1687209,0.09648061,4.595421,-4.696626,-2.03654,0.2040339,1.319973,0.3714943,-0.9933261,0.3386625,16.57825,49.94643,-0.03632419,0.0401274,0.1273682,-0.2420334,-2.877584,-0.975208,0.3084563,1.471544,0.3232725,0.05425535,-0.0784673,0.05627461,-1.1207,0.5595298,0.05936293,0.489204,1.487596,0.2150171,-0.1163392,1.38985,0.2788081,282.1413,23.74189,229.0141,True
5,1.955559,-0.09830508,0.19319,0.08150572,4.592678,-4.697701,-2.035471,0.2040822,1.320169,0.371501,-0.9911295,0.1957046,16.39257,49.30362,-0.01177198,0.001892593,0.1154119,-0.2404845,-2.877608,-0.9759516,0.3086086,1.471625,0.3230073,0.06279226,-0.08592463,0.05725401,-1.120083,0.5580525,0.05898982,0.4892657,1.487547,0.2146618,-0.1162883,1.390214,0.2785034,282.3441,23.98394,228.7394,True
5,1.966671,-0.1100306,0.1899557,0.07407664,4.590585,-4.698115,-2.033893,0.2040743,1.320225,0.3712082,-0.9883001,0.2549757,16.12732,47.39661,0.01478965,-0.06395358,0.06928779,-0.2385665,-2.886593,-0.9682487,0.3087319,1.471533,0.322835,0.04987218,-0.08272572,0.04671182,-1.120375,0.5574086,0.05947984,0.489381,1.487636,0.2143016,-0.1163539,1.390437,0.27825,282.5539,23.51813,229.1623,True
5,1.977782,-0.1100128,0.1814565,0.0783565,4.588472,-4.698028,-2.032557,0.2041136,1.320303,0.3712738,-0.9842303,0.3674417,15.72944,44.35398,0.01993594,-0.06812052,0.03728864,-0.2382171,-2.890556,-0.9647493,0.3087994,1.471698,0.3226054,0.037889,-0.08911315,0.02233869,-1.121024,0.5564943,0.05994057,0.4893065,1.487596,0.2140822,-0.1165594,1.390495,0.2781711,282.6527,22.72111,229.8344,True
5,1.988893,-0.1015035,0.1878606,0.07726108,4.586051,-4.698335,-2.031756,0.204185,1.320324,0.3710051,-0.980218,0.3611947,15.30504,40.58281,0.01764533,-0.0393386,0.02671452,-0.2387987,-2.889529,-0.9657818,0.308856,1.471851,0.3223853,0.03683561,-0.09231101,0.02341861,-1.120747,0.5551855,0.06013364,0.4893324,1.487638,0.2138791,-0.1169009,1.390344,0.2783354,282.7082,22.11132,230.4086,True
5,2.000004,-0.07060815,0.1793733,0.06977026,4.584301,-4.698595,-2.032065,0.2040644,1.320321,0.3703544,-0.9766983,0.316025,14.93369,37.19735,0.01863334,-0.008452801,0.0310367,-0.2392877,-2.885758,-0.9696172,0.3088745,1.472017,0.3223364,0.04120564,-0.09867734,0.03401525,-1.120253,0.5539982,0.06012725,0.4892721,1.487505,0.2135794,-0.1173188,1.389967,0.2786661,282.7827,21.4604,231.167,True
5,2.011115,-0.03545702,0.1730226,0.06120239,4.582635,-4.698994,-2.032934,0.2042287,1.320315,0.3700049,-0.9731244,0.3211941,14.61538,34.1547,0.02409498,-0.03614905,0.03839408,-0.2379076,-2.886342,-0.9694913,0.3089935,1.472177,0.3220832,0.04020808,-0.09654599,0.04042115,-1.119584,0.5528197,0.06023351,0.4893193,1.487515,0.2133434,-0.1177287,1.389369,0.2790718,282.8797,20.53867,232.2524,True
5,2.022226,-0.0259115,0.1793892,0.04519077,4.580737,-4.699955,-2.032968,0.2043665,1.320102,0.3693182,-0.9698556,0.2929448,14.29708,31.36919,0.01241592,-0.06386033,0.03094515,-0.2365334,-2.889784,-0.9658214,0.3091192,1.472092,0.3218467,0.04231265,-0.08268525,0.03825015,-1.119395,0.5525519,0.05976666,0.4893825,1.487576,0.2131245,-0.118158,1.388565,0.2794143,283.0167,19.58361,233.476,True
5,2.033337,-0.02916343,0.2060031,0.03980581,4.577779,-4.701164,-2.032699,0.2044929,1.319949,0.3689401,-0.9656217,0.3810222,14.00531,28.8408,-0.01857033,-0.04902705,0.02371063,-0.2365196,-2.889714,-0.9646342,0.3092432,1.472087,0.3215878,0.0367988,-0.0709822,0.02126111,-1.119728,0.5521085,0.05974828,0.4893549,1.487689,0.2129033,-0.1186266,1.387499,0.2795214,283.1329,18.7819,234.5552,True
5,2.044448,-0.02500368,0.2699401,0.04603724,4.572801,-4.702795,-2.032717,0.2046344,1.319605,0.3684196,-0.9595113,0.5516154,13.71353,26.52667,-0.03370096,-0.006427664,0.01112471,-0.2377952,-2.887154,-0.9662481,0.3093233,1.471987,0.321357,0.0291926,-0.05926554,0.007479081,-1.120188,0.5519833,0.05969342,0.4894269,1.487783,0.2127526,-0.1190288,1.386061,0.279342,283.1895,17.83282,235.6463,True
5,2.055559,-0.03578947,0.3701036,0.06818976,4.565745,-4.704545,-2.032286,0.2048143,1.319132,0.367331,-0.9535933,0.5324737,13.39523,24.27683,-0.03712695,0.04897692,0.002758257,-0.2398619,-2.882172,-0.9705531,0.3094225,1.471955,0.3211708,0.03885436,-0.05178179,0.01587493,-1.119985,0.5518773,0.05917757,0.4896076,1.487838,0.2125492,-0.1194976,1.384292,0.2789013,283.1974,16.33208,237.1534,True
5,2.06667,-0.04015029,0.4297601,0.07124954,4.559391,-4.70673,-2.032034,0.2050413,1.318883,0.3668485,-0.9481381,0.4904297,12.99735,22.13413,-0.02219423,0.03518392,-0.001627823,-0.2398251,-2.883004,-0.9700452,0.3095645,1.472129,0.3210745,0.05078425,-0.03152885,0.03598029,-1.118846,0.5520732,0.05811284,0.4896908,1.487795,0.212455,-0.1201076,1.382329,0.2783573,283.2011,14.04587,239.3003,True
5,2.077781,-0.03277396,0.4702347,0.06475408,4.553492,-4.709017,-2.032279,0.2052823,1.318451,0.3659256,-0.9418796,0.5640495,12.54642,20.03428,-0.01993113,0.004282752,0.003613742,-0.2387907,-2.884588,-0.9683579,0.309604,1.472139,0.3209667,0.05827812,-0.01766465,0.04014003,-1.118465,0.5524631,0.05710243,0.489753,1.487852,0.2122972,-0.1208239,1.380279,0.2778574,283.3585,11.41492,241.8372,True
5,2.088892,-0.005081911,0.4713436,0.06257264,4.548447,-4.710863,-2.03338,0.2055237,1.318324,0.3655028,-0.9359728,0.5312093,12.04244,18.02014,-0.01985631,-0.01595913,0.00569597,-0.2380408,-2.885817,-0.9668643,0.3097798,1.472172,0.3211071,0.05393932,-0.02513344,0.0327364,-1.118345,0.551752,0.05698659,0.4898169,1.48787,0.2120867,-0.1215898,1.378255,0.2774428,283.6524,8.67752,244.5881,True
5,2.100003,0.01731252,0.4532587,0.05725315,4.544399,1.57084,-2.034564,0.205662,1.318194,0.3650439,-0.930469,0.4946352,11.45889,16.07028,0.001158937,-0.01896625,-0.04344725,-0.2390762,-2.893687,-0.9599018,0.3099735,1.472046,0.3209903,0.03683432,-0.05708874,0.02653889,-1.118477,0.5500597,0.0579613,0.4899014,1.487838,0.2119553,-0.1223144,1.376346,0.2771956,283.9054,6.257946,247.0419,True
5,2.111114,0.04610725,0.4405386,0.06256025,4.540011,1.569589,-2.036297,0.2058202,1.318184,0.3646684,-0.9253931,0.4558721,10.87533,14.24898,-0.01394431,-0.03277061,-0.08173992,-0.2396994,-2.903224,-0.9500156,0.3102765,1.472062,0.3209095,0.03372944,-0.0794631,0.03404672,-1.11786,0.5480943,0.05851098,0.4900345,1.487806,0.2117774,-0.1229111,1.37455,0.2771144,284.1496,4.441036,248.9522,True
5,2.122225,0.07275089,0.4395216,0.06464744,4.535307,1.568133,-2.038232,0.2059221,1.318038,0.363879,-0.9195043,0.5304017,10.39788,12.79194,-0.03298488,-0.04565333,-0.06673415,-0.2389255,-2.905786,-0.9464763,0.3105053,1.472188,0.3208578,0.05826287,-0.06134724,0.03803321,-1.117337,0.5479416,0.05719059,0.4901902,1.487559,0.2116344,-0.1233857,1.372849,0.2771994,284.3743,3.028916,250.4557,True
5,2.133336,0.0536211,0.4096522,0.06155648,4.531867,1.567038,-2.038375,0.2063307,1.317693,0.3635609,-0.91404,0.4911121,10.07958,11.78487,-0.02070794,-0.08839252,0.002333701,-0.2355353,-2.903233,-0.9491006,0.3107639,1.472356,0.3207242,0.07720634,-0.03470611,0.01756651,-1.11782,0.5486273,0.05548004,0.4904133,1.487638,0.211477,-0.1238147,1.3712,0.2773871,284.608,1.87184,251.7466,True
5,2.144447,0.01624196,0.4297404,0.02642129,4.52734,1.563822,-2.037897,0.206653,1.31729,0.3631399,-0.9082934,0.5173617,9.94695,11.18491,0.02967664,-0.09367183,0.05101385,-0.2333835,-2.898596,-0.9557784,0.3108874,1.472288,0.3207304,0.07054698,-0.01874634,-0.006870925,-1.118604,0.5489357,0.05479321,0.490586,1.487793,0.2113268,-0.1242349,1.369554,0.277595,284.9039,0.8558399,252.9611,True
5,2.155558,-0.06587803,0.4316056,-0.02351019,4.52395,1.55979,-2.035066,0.2068946,1.317055,0.3632801,-0.9008776,0.6699585,9.999999,10.99207,0.02831406,-0.06376755,0.01806939,-0.2342346,-2.901057,-0.9536652,0.311076,1.472309,0.3205857,0.05217397,-0.03155008,-0.0311744,-1.119837,0.5481617,0.05527524,0.4906588,1.48774,0.2111943,-0.1246109,1.367809,0.2776959,285.2145,0.02575959,254.0202,True
5,2.166669,-0.08716857,0.3952814,-0.05108309,4.521914,1.556998,-2.03385,0.2070794,1.316947,0.3634295,-0.8943401,0.5886428,10.23872,11.18491,0.01643157,-0.05629332,-0.005270986,-0.2345345,-2.905275,-0.9491938,0.311121,1.472268,0.3205481,0.04249997,-0.06139034,-0.04064061,-1.120649,0.5462548,0.05588004,0.4907897,1.487829,0.2110744,-0.1248798,1.365942,0.2776791,285.4299,358.867,255.2631,True
5,2.17778,-0.04440863,0.2759696,-0.08389547,4.523877,1.555695,-2.035264,0.2071676,1.317009,0.3640354,-0.8867937,0.6819299,10.47745,11.63488,0.04739968,-0.03494603,0.01803365,-0.2340642,-2.900737,-0.9552359,0.3111013,1.472281,0.3205142,0.03084968,-0.0784394,-0.03517546,-1.120879,0.5446523,0.05659164,0.4907488,1.487883,0.2109759,-0.1252815,1.364111,0.2777443,285.5832,357.2593,256.7665,True
5,2.188891,-0.006881226,0.1065763,-0.1155105,4.529389,1.555754,-2.036633,0.2074361,1.317011,0.3646677,-0.883859,0.2598025,10.61008,12.34197,0.05901608,0.006621249,0.02338733,-0.2350634,-2.895423,-0.9614565,0.3111065,1.472248,0.3206506,0.008765809,-0.0592631,-0.007249403,-1.120006,0.544522,0.05731522,0.4907711,1.487887,0.2109408,-0.1259128,1.362572,0.2781903,285.6622,355.1408,258.7127,True
5,2.200002,-0.02592193,0.005283512,-0.1408068,4.533171,1.554858,-2.03572,0.2077685,1.317355,0.3654792,-0.8826238,0.1082645,10.6366,13.17763,0.05217033,0.04720686,-0.02973944,-0.2379811,-2.898791,-0.9584589,0.3111855,1.472071,0.3208172,0.0004939586,-0.03686909,0.01731548,-1.119141,0.5451018,0.05738872,0.4910018,1.487955,0.2108722,-0.1265143,1.361405,0.2790785,285.6655,353.6979,260.1849,True
5,2.211113,-0.00761159,-0.1513859,-0.1830715,4.54096,1.554874,-2.036174,0.2079717,1.317793,0.3662496,-0.878865,0.3399348,10.37135,13.88472,0.07094809,0.05273934,-0.09162202,-0.2401969,-2.907893,-0.950936,0.3115879,1.47203,0.3210778,0.02440203,-0.01766372,0.06179837,-1.116781,0.5454362,0.05610774,0.4909723,1.48796,0.2109241,-0.1267786,1.360379,0.2802261,285.4804,353.6324,260.5035,True
5,2.222224,0.02236236,-0.2568582,-0.2084311,4.547815,1.554889,-2.037594,0.2081563,1.318131,0.3670633,-0.8723669,0.588478,9.8939,14.14185,0.1073494,0.02618447,-0.0759297,-0.2398853,-2.910255,-0.951013,0.3118886,1.472059,0.3211644,0.0628082,-0.005913541,0.06670494,-1.115958,0.5459371,0.05379,0.491047,1.48814,0.2109454,-0.1266474,1.359239,0.2813635,285.2041,354.067,260.3745,True
5,2.233335,0.02999101,-0.3730059,-0.2262732,4.556735,1.555858,-2.0381,0.2083301,1.318577,0.3679168,-0.8701645,0.1945046,9.204244,13.88472,0.1440278,-0.04303829,-0.03796375,-0.2368562,-2.914211,-0.9500795,0.3122522,1.472159,0.3212316,0.06046527,0.01111933,0.04754382,-1.116011,0.5467625,0.05280542,0.4911516,1.488119,0.2109425,-0.1264785,1.358102,0.2824237,284.9765,353.6098,261.0522,True
5,2.244446,-0.00190111,-0.413544,-0.2282474,4.562745,1.556124,-2.036822,0.2084612,1.318738,0.3685799,-0.8683088,0.1665283,8.355438,13.1562,0.1575567,-0.0869129,0.06092246,-0.2320694,-2.905654,-0.9607189,0.3125551,1.472171,0.3212345,0.03883319,0.01322766,0.01794125,-1.116875,0.5470632,0.05317613,0.4913893,1.488,0.2108614,-0.12634,1.356988,0.2832884,284.583,352.987,261.869,True
5,2.255557,-0.03812597,-0.3826398,-0.2005564,4.565748,1.556271,-2.035177,0.2085156,1.318908,0.3692219,-0.8650016,0.2994246,7.400529,11.99914,0.1362018,0.0002860129,0.0985481,-0.2336237,-2.888957,-0.9775923,0.3127095,1.472159,0.32127,0.01474968,-0.03901063,-0.04357602,-1.119787,0.5448759,0.05490586,0.4916946,1.488018,0.2108679,-0.1262281,1.355828,0.2839018,284.1672,352.4262,262.5359,True
5,2.266668,-0.05623947,-0.3549117,-0.1750246,4.568843,1.556665,-2.033839,0.2085948,1.319167,0.3697443,-0.8607858,0.3815348,6.525197,10.49925,0.1177831,0.04928575,0.07427461,-0.2355321,-2.884399,-0.9826926,0.312943,1.472166,0.3214023,0.01783539,-0.07204758,-0.05530586,-1.120773,0.542734,0.05544435,0.4918941,1.488038,0.2109108,-0.1261741,1.354605,0.2842056,283.7359,351.6346,263.353,True
5,2.277779,-0.05944823,-0.3228687,-0.1463406,4.571165,1.556962,-2.033003,0.2088024,1.320049,0.3711834,-0.8584343,0.2109169,5.809017,8.935076,0.105995,0.04289348,0.05942338,-0.2355411,-2.882964,-0.9848753,0.3131553,1.47223,0.3215551,0.0359331,-0.08160698,-0.05656648,-1.121567,0.5418008,0.05484967,0.4919193,1.488034,0.2109232,-0.1262893,1.353472,0.2842812,283.4852,350.2083,264.6759,True
5,2.28889,-0.06160625,-0.2833998,-0.1229959,4.572969,1.557255,-2.032191,0.2088651,1.320549,0.3714509,-0.8573413,0.09757555,5.278513,7.370901,0.1060214,-0.01883076,0.03157193,-0.2339193,-2.89088,-0.9783642,0.3134151,1.472341,0.3218167,0.03510188,-0.06455486,-0.03419247,-1.121181,0.5416092,0.0545719,0.4920343,1.488067,0.2108908,-0.1265409,1.352642,0.284256,283.4119,348.4454,266.291,True
5,2.300001,-0.07016882,-0.2322107,-0.09540567,4.57384,1.557451,-2.03112,0.208809,1.320927,0.3714416,-0.8566777,0.05926272,4.907162,5.93529,0.0976503,-0.06573068,0.03151003,-0.2318186,-2.895203,-0.9750237,0.313699,1.47247,0.3219626,0.02798638,-0.06028265,-0.002157612,-1.120123,0.5408964,0.0548265,0.491875,1.487943,0.2109218,-0.1267437,1.352244,0.2842243,283.3148,346.5693,267.9485,True
5,2.311112,-0.08302948,-0.1437075,-0.05192072,4.57221,1.55762,-2.029731,0.2088014,1.321297,0.371443,-0.8556918,0.08904635,4.668433,4.906791,0.07956472,-0.07750211,0.02946017,-0.2307629,-2.896803,-0.9737289,0.3139367,1.472686,0.3220816,0.02529519,-0.05280663,0.04474624,-1.117928,0.5402455,0.05486192,0.4919548,1.487948,0.2110102,-0.1267926,1.352393,0.2843843,283.1906,345.0887,269.1802,True
5,2.322223,-0.1033675,-0.0370862,-0.001006315,4.568732,1.557727,-2.027889,0.2087533,1.321562,0.3711963,-0.854488,0.1087685,4.588861,4.178273,0.06589632,-0.09358006,0.05081025,-0.2287208,-2.896079,-0.9747159,0.3142419,1.472832,0.3221753,0.02852307,-0.05280258,0.04789951,-1.117468,0.5395926,0.05475832,0.4921908,1.488027,0.211035,-0.1267419,1.353034,0.2846779,283.1122,345.2913,269.0149,True
5,2.333334,-0.1300346,0.004465802,0.02024551,4.566959,1.557933,-2.025497,0.2087417,1.321844,0.371201,-0.8533556,0.1021546,4.668433,3.685451,0.05757298,-0.1138997,0.07211554,-0.226292,-2.895366,-0.9758419,0.3144288,1.472935,0.3221984,0.02706326,-0.05495891,0.01063121,-1.1187,0.5388353,0.05475672,0.4923224,1.488053,0.2110515,-0.1266698,1.354051,0.2849803,283.1208,346.5399,267.9162,True
5,2.344445,-0.1876249,0.05125454,0.03090437,4.564981,1.55751,-2.022179,0.2086255,1.322031,0.3712883,-0.8522366,0.101156,4.933685,3.428327,0.02242073,-0.1129512,0.07339688,-0.2247708,-2.895512,-0.9747756,0.3146384,1.472925,0.3222976,0.02249096,-0.05390112,-0.01917274,-1.119825,0.5384706,0.05480066,0.4923825,1.488012,0.2111092,-0.1265969,1.35534,0.2852151,283.282,347.989,266.5801,True
5,2.355556,-0.2025397,0.05444732,0.03303137,4.564113,1.557581,-2.01884,0.2085319,1.322352,0.3713021,-0.8511835,0.09523472,5.30504,3.299763,0.0084396,-0.06612931,0.07572881,-0.2250084,-2.889789,-0.9800566,0.3148069,1.472885,0.322294,0.021265,-0.04219435,-0.03194376,-1.120841,0.5383869,0.05481105,0.4924643,1.488077,0.2111897,-0.1265398,1.356808,0.2853234,283.488,349.3701,265.2619,True
5,2.366668,-0.2269971,0.04699732,0.05120696,4.563467,1.558576,-2.015387,0.208395,1.322881,0.3714752,-0.8497966,0.1258848,5.729441,3.042639,-0.00559517,-0.01822811,0.07060099,-0.2258526,-2.884304,-0.9848875,0.3150434,1.472931,0.3223226,0.02970621,-0.03048531,-0.03949466,-1.12145,0.5383427,0.05416044,0.4926433,1.487988,0.2112765,-0.1264853,1.358353,0.2853177,283.538,350.5811,263.9932,True
5,2.377779,-0.2216567,0.0491844,0.06181872,4.562437,1.558754,-2.013231,0.2084065,1.323944,0.3727403,-0.8495654,0.02004846,6.100796,2.785515,-0.0192911,-0.03535644,0.08662605,-0.2241956,-2.881177,-0.9872668,0.3153338,1.473057,0.3223383,0.04975718,-0.01556603,-0.05677243,-1.122734,0.5389252,0.05266055,0.4928318,1.487982,0.2113597,-0.1265082,1.35995,0.2853111,283.528,351.5698,262.8605,True
5,2.38889,-0.1971386,0.03748804,0.05647476,4.561622,1.559671,-2.009635,0.2081587,1.324733,0.3724968,-0.849501,0.00576044,6.366048,2.571245,0.008019477,-0.1270441,0.1490891,-0.2165896,-2.875938,-0.9933402,0.315964,1.473378,0.3224864,0.04506153,-0.01665429,-0.09721195,-1.126159,0.5387257,0.05188211,0.4932741,1.488012,0.2114906,-0.1265448,1.361581,0.2853498,283.5044,352.369,261.9579,True
5,2.400001,-0.2056592,0.02359337,0.04373979,4.561817,1.559793,-2.007086,0.2080954,1.325154,0.3726079,-0.8491169,0.03504321,6.525197,2.421253,0.01880369,-0.1462154,0.1606923,-0.2136319,-2.873443,-0.9963397,0.3162173,1.473483,0.3224769,0.0238006,-0.03371856,-0.09377351,-1.126995,0.5374556,0.05289517,0.4934957,1.487976,0.2115161,-0.1265816,1.363328,0.285465,283.5128,352.3216,261.8324,True
5,2.411112,-0.2237613,-0.003125129,0.01933901,4.562901,1.559625,-2.004028,0.2079887,1.325461,0.3725777,-0.8506733,-0.1426574,6.657823,2.549817,0.006826207,-0.0929571,0.1459785,-0.2138156,-2.867474,-1.001804,0.3163481,1.473551,0.3225043,0.01329086,-0.03797393,-0.0798165,-1.127549,0.5369117,0.05339292,0.4936025,1.487973,0.2115288,-0.1266304,1.365375,0.2857964,283.5223,352.1164,261.8807,True
5,2.422223,-0.2365081,-0.03619981,0.007723559,4.564433,1.559987,-2.0009,0.2079037,1.325992,0.3728976,-0.8501396,0.04996334,6.843502,3.278335,0.002300598,-0.06414217,0.1173129,-0.2137421,-2.865466,-1.003743,0.3165942,1.473768,0.3224127,0.007237878,-0.03049604,-0.04780219,-1.127129,0.5368702,0.05352661,0.4937641,1.48794,0.2115266,-0.1265469,1.367446,0.286225,283.4884,354.0543,260.0526,True
5,2.433334,-0.2268701,-0.08842614,-0.0134668,4.567088,1.560395,-1.99865,0.2078721,1.326623,0.3732078,-0.8493726,0.06943136,7.108754,4.563957,-0.008486912,-0.05135837,0.1024924,-0.2132351,-2.863727,-1.004956,0.3168198,1.474104,0.3223889,0.003192546,-0.02303645,-0.02751825,-1.126748,0.5367186,0.05365977,0.4939304,1.487939,0.211489,-0.1263591,1.369323,0.2866614,283.4562,356.4746,257.761,True
5,2.444445,-0.1937986,-0.1384851,-0.03364379,4.570364,1.560762,-1.997526,0.2079735,1.327157,0.3733258,-0.8492352,0.01195965,7.400529,6.385256,0.004433714,-0.05562625,0.12264,-0.21152,-2.857562,-1.011473,0.3170809,1.474319,0.3223298,-0.009509231,-0.0102455,-0.01992879,-1.126581,0.5371889,0.053884,0.4940992,1.487883,0.2114615,-0.1261995,1.370912,0.2870428,283.3941,358.2896,256.02,True
5,2.455556,-0.157535,-0.1693365,-0.04321338,4.573177,1.561305,-1.996984,0.2080938,1.327732,0.373436,-0.8500522,-0.07475764,7.798407,8.677952,0.02600875,-0.0705601,0.1586914,-0.2088163,-2.848677,-1.021194,0.317387,1.474524,0.3222396,-0.02350597,-0.01346298,-0.03362228,-1.12739,0.5368084,0.05476018,0.4943038,1.487884,0.2114062,-0.1261001,1.372246,0.2873678,283.2783,359.0705,255.2421,True
5,2.466667,-0.1372793,-0.2002272,-0.05914115,4.576273,1.561657,-1.995872,0.2081714,1.328466,0.3741164,-0.8511271,-0.09767491,8.302388,10.73495,0.0228723,-0.04186237,0.1832782,-0.2078539,-2.835794,-1.033952,0.3176266,1.474644,0.3221016,-0.03863096,-0.0294504,-0.05369864,-1.128778,0.5360938,0.05601,0.4944794,1.487855,0.2114105,-0.1259843,1.373335,0.2876159,283.0948,359.4838,254.8563,True
5,2.477778,-0.1137645,-0.2609451,-0.07394844,4.581374,1.562495,-1.995333,0.2081686,1.329038,0.3745234,-0.851599,-0.04257799,8.832892,12.40626,0.006714135,-0.01098854,0.1706676,-0.2079247,-2.827764,-1.0413,0.3179047,1.474818,0.321918,-0.04192971,-0.04438284,-0.06430522,-1.129833,0.5348716,0.05700709,0.4947038,1.487805,0.211421,-0.1257625,1.374127,0.2877382,282.9055,359.9557,254.4431,True
5,2.488889,-0.1083828,-0.2982134,-0.08029121,4.585821,1.562808,-1.994194,0.2082878,1.330333,0.376574,-0.8507617,0.07660652,9.389919,13.73473,-0.009288006,0.03046167,0.1889827,-0.2079593,-2.812477,-1.055613,0.3181477,1.475086,0.3217967,-0.04424411,-0.04864584,-0.08133486,-1.131507,0.5343127,0.05782308,0.4949903,1.487807,0.2114191,-0.1255102,1.374627,0.2877243,282.7335,0.1120208,254.2542,True
5,2.5,-0.09984027,-0.3077812,-0.07815214,4.589585,1.563637,-1.993273,0.2082825,1.330894,0.377044,-0.851044,-0.02669014,9.814323,14.35612,-0.00397642,0.04112531,0.1921714,-0.2075274,-2.800945,-1.067042,0.318421,1.475214,0.3216631,-0.05170651,-0.0326639,-0.0812614,-1.132306,0.5346703,0.05848408,0.495261,1.48779,0.2114179,-0.1253618,1.374923,0.2876686,282.4923,359.7673,254.4662,True
5,2.511111,-0.07960361,-0.3162829,-0.08455058,4.59328,1.564166,-1.992839,0.2083071,1.331269,0.3769972,-0.8501966,0.07762812,10.05305,14.22755,0.01720744,0.02421138,0.1632369,-0.2066954,-2.798754,-1.070114,0.3186955,1.475436,0.321593,-0.04945348,-0.02519929,-0.06957085,-1.132664,0.5346939,0.05896771,0.4955128,1.487744,0.2114038,-0.1253067,1.375067,0.287647,282.1129,358.9117,255.0507,True
5,2.522222,-0.05619295,-0.3066681,-0.08994175,4.596601,1.564357,-1.992961,0.2084225,1.331724,0.3773198,-0.8502008,-0.001218813,10.18567,13.58474,0.03854299,-0.01190164,0.1481046,-0.2050293,-2.79632,-1.07371,0.3188711,1.475622,0.3215501,-0.0515199,-0.0262582,-0.06316034,-1.133258,0.5343686,0.05978956,0.495756,1.487557,0.2113893,-0.1253515,1.375262,0.2879689,281.7401,357.3118,256.2803,True
5,2.533333,-0.04241271,-0.2650941,-0.08473346,4.598368,1.564408,-1.992867,0.2085092,1.331718,0.3768537,-0.8505007,-0.02744021,10.18567,12.57767,0.04166123,-0.04058832,0.1203158,-0.2036029,-2.79774,-1.072867,0.3190062,1.475786,0.3214378,-0.0663569,-0.02306958,-0.05554118,-1.133612,0.5341218,0.06112461,0.4959886,1.487577,0.2113311,-0.1254065,1.375525,0.2885291,281.5732,357.034,256.6677,True
5,2.544444,-0.0478079,-0.2128856,-0.0752666,4.599313,1.564194,-1.992173,0.2085392,1.331722,0.3764117,-0.8508602,-0.03277657,10.1061,11.37776,0.03412977,-0.02674953,0.1161316,-0.2032913,-2.791937,-1.078605,0.3189717,1.475977,0.3213615,-0.08430699,-0.01560901,-0.04043258,-1.133519,0.534221,0.06256564,0.4959074,1.487506,0.2113283,-0.1253774,1.375787,0.2890729,281.4865,357.6671,256.3771,True
5,2.555555,-0.05208292,-0.1894199,-0.06040244,4.600551,1.564586,-1.991407,0.2086165,1.331855,0.3765121,-0.8504586,0.03685783,10.07958,10.56353,0.007378012,0.004067887,0.1131742,-0.2037414,-2.784071,-1.085455,0.3190472,1.476015,0.321245,-0.09058154,-0.01134816,-0.02970846,-1.133447,0.5341591,0.06369562,0.4960545,1.487516,0.2113383,-0.1252343,1.375975,0.2894593,281.4149,358.5306,255.797,True
5,2.566666,-0.06062851,-0.1563358,-0.03706144,4.601006,1.564724,-1.99029,0.2088398,1.332698,0.378109,-0.8496112,0.07699686,10.13263,10.00643,-0.01312046,0.04134329,0.09102103,-0.2051561,-2.7789,-1.08965,0.3192224,1.476059,0.3211114,-0.08932392,-0.008136075,-0.01161809,-1.133046,0.5342235,0.06458991,0.4962554,1.487506,0.211338,-0.1250703,1.376027,0.2895427,281.4308,359.401,255.1654,True
5,2.577777,-0.05422474,-0.1338834,-0.008364365,4.601236,1.565828,-1.98977,0.2088743,1.332826,0.3781273,-0.8494184,0.01692011,10.26525,9.663593,-0.03897569,0.09244341,0.07106085,-0.2077415,-2.772344,-1.094701,0.3194149,1.476121,0.3211303,-0.08171087,0.0003897883,0.003217202,-1.132457,0.5343626,0.06517661,0.496426,1.487478,0.2113869,-0.1249877,1.375987,0.2892992,281.4245,359.486,255.1286,True
5,2.588888,-0.03290641,-0.1220695,0.01288406,4.601732,1.567059,-1.989924,0.2088819,1.332931,0.3780181,-0.8489828,0.03969939,10.5305,9.513605,-0.05258789,0.04336337,0.08381303,-0.2059444,-2.768428,-1.097552,0.3198028,1.47612,0.3210812,-0.07630927,0.007857867,0.01060829,-1.132146,0.5347739,0.0656874,0.4966435,1.487429,0.2114081,-0.1249299,1.375958,0.2888964,281.2806,358.1884,256.0816,True
5,2.599999,-0.01479745,-0.1049548,0.02878986,4.601945,1.568117,-1.990232,0.2089528,1.333065,0.3779876,-0.849607,-0.05740538,10.87533,9.513605,-0.04712934,0.007156145,0.08582386,-0.2045739,-2.766327,-1.099324,0.3199901,1.476227,0.3209953,-0.0583502,0.007850192,-0.004501062,-1.132779,0.534779,0.06559899,0.496842,1.487346,0.2114139,-0.1248731,1.376158,0.2887169,281.1203,356.243,257.5325,True
5,2.61111,-0.006335559,-0.06976625,0.03185249,4.601626,1.567823,-1.990381,0.2092145,1.333603,0.3789775,-0.850293,-0.06225927,11.27321,9.385041,-0.01289538,-0.05024411,0.07908286,-0.2020024,-2.769166,-1.097578,0.3201589,1.476248,0.320919,-0.05231289,0.02274167,-0.03759606,-1.134166,0.5356165,0.06558514,0.4970779,1.487266,0.2114313,-0.1247608,1.376564,0.2887009,281.1148,356.1616,257.5772,True
5,2.622221,-0.02239844,-0.01865421,0.0338864,4.600199,1.567631,-1.989661,0.2092803,1.333527,0.3789923,-0.850358,-0.005505357,11.61804,9.320763,-0.01080907,-0.05341266,0.07053883,-0.2012199,-2.76853,-1.098101,0.3202502,1.476264,0.3208728,-0.0568132,0.02272712,-0.05992041,-1.135583,0.5360064,0.06619979,0.4973047,1.487208,0.2114706,-0.1245554,1.377042,0.2886597,281.1661,357.2995,256.6158,True
5,2.633332,-0.04265698,-0.002696263,0.03920927,4.599516,1.567979,-1.988472,0.2093214,1.333504,0.3790369,-0.8498967,0.04202637,11.88329,9.385041,-0.01965302,-0.02139146,0.03550956,-0.2026037,-2.770066,-1.095944,0.3200421,1.476261,0.3206868,-0.06663429,0.0109973,-0.08218138,-1.137287,0.5358755,0.06732818,0.4974847,1.487123,0.2115085,-0.1242667,1.377484,0.2885364,281.1736,358.0617,255.8253,True
5,2.644443,-0.04797223,-0.001624847,0.04561133,4.599314,1.568739,-1.987661,0.2091236,1.333333,0.3785982,-0.8488938,0.09128989,12.04244,9.556458,-0.05086179,0.02863816,0.01131613,-0.2047561,-2.768661,-1.095602,0.3199084,1.476273,0.3205492,-0.07940385,0.01738758,-0.08097851,-1.137961,0.5363868,0.06831781,0.4974831,1.486994,0.2115049,-0.1239839,1.377899,0.2885678,281.1367,358.1061,255.5112,True
5,2.655554,-0.02340839,-0.03032784,0.05309576,4.600128,1.570018,-1.988034,0.2091237,1.333425,0.378639,-0.8483718,0.04694209,12.06897,9.942146,-0.07772574,0.07439274,-0.002256351,-0.2070645,-2.765422,-1.097006,0.3199058,1.476174,0.3204322,-0.08240771,0.02484617,-0.06283494,-1.137963,0.5368306,0.06912021,0.497601,1.486978,0.2114933,-0.1238299,1.378279,0.2887951,281.2089,358.4633,255.0792,True
5,2.666665,0.01820097,-0.07285334,0.05310066,4.601853,-4.712236,-1.989337,0.2092935,1.334371,0.380317,-0.848799,-0.03931317,12.01592,10.56353,-0.07023492,0.066953,-0.0001900829,-0.2073947,-2.76409,-1.097792,0.3199749,1.476201,0.3203099,-0.07358391,0.03659192,-0.03417272,-1.137381,0.5377579,0.06925844,0.4976669,1.48692,0.2114999,-0.1238172,1.378634,0.2890988,281.311,359.0613,254.6526,True
5,2.677776,0.04379665,-0.1058729,0.03715719,4.60395,-4.711421,-1.990573,0.2092991,1.334585,0.3804586,-0.8500906,-0.11769,11.93634,11.37776,-0.05414848,0.0403616,0.00390435,-0.2068861,-2.764609,-1.097191,0.3201181,1.476241,0.3203321,-0.06274779,0.03979377,-0.0172416,-1.136942,0.5381749,0.06937615,0.4977859,1.486849,0.2114661,-0.1238971,1.378926,0.2892534,281.3874,359.7687,254.2191,True
5,2.688887,0.0683229,-0.158108,0.003161602,4.607374,-4.710983,-1.991954,0.2092206,1.334686,0.3803928,-0.8509971,-0.082034,11.83024,12.38483,-0.0240124,-0.003287006,0.03131351,-0.2048876,-2.762454,-1.100065,0.3202966,1.476372,0.3201528,-0.05729182,0.0493975,-0.004525144,-1.136588,0.5391832,0.06946296,0.4979196,1.486825,0.2113812,-0.1238428,1.379099,0.289215,281.2994,359.5072,254.414,True
5,2.699998,0.07047047,-0.1943775,-0.01805773,4.610744,-4.710359,-1.992594,0.2092049,1.334722,0.3803511,-0.8507937,0.01910935,11.72414,13.54189,-0.002470732,-0.02459109,0.05882762,-0.2032769,-2.757532,-1.105546,0.3202885,1.476395,0.3199356,-0.06162166,0.04725456,-0.01086829,-1.136896,0.539599,0.07015672,0.49806,1.486754,0.2111714,-0.123652,1.379196,0.289243,281.073,358.6344,254.9471,True
5,2.711109,0.05981192,-0.1943864,-0.02232507,4.612763,-4.710242,-1.992917,0.209333,1.33529,0.3819137,-0.8506382,0.01377719,11.72414,14.65609,-0.014243,0.007304592,0.06750096,-0.2038485,-2.750721,-1.111535,0.3201239,1.476445,0.3197145,-0.07578065,0.03551877,-0.04054586,-1.138411,0.5398259,0.07132798,0.4981804,1.486813,0.2110479,-0.1234658,1.379135,0.2893041,280.9147,358.9888,254.5618,True
5,2.72222,0.0523595,-0.1826389,-0.007423457,4.613952,-4.70921,-1.993153,0.2092217,1.334893,0.3812492,-0.8497215,0.08358397,11.77719,15.55603,-0.0239728,0.06797254,0.07623095,-0.2057723,-2.739774,-1.12167,0.3199232,1.476425,0.3194828,-0.09511152,0.01100295,-0.05631132,-1.139649,0.5392432,0.0731581,0.4981826,1.486746,0.2110319,-0.1233738,1.378809,0.2892746,280.7612,359.8807,253.8117,True
5,2.733331,0.05554844,-0.171965,-0.00106322,4.615294,-4.70839,-1.993791,0.2092398,1.334911,0.3813457,-0.8491484,0.05163981,11.85676,16.19884,-0.04575444,0.1223504,0.0274903,-0.2090102,-2.738842,-1.121368,0.3197801,1.476287,0.3193419,-0.1046102,-0.004979037,-0.04873766,-1.139864,0.5385877,0.0748817,0.4981981,1.486709,0.2109787,-0.1233656,1.378221,0.2891429,280.5652,359.4182,254.1805,True
5,2.744442,0.05979813,-0.1602221,0.004205726,4.616597,-4.70793,-1.994595,0.2093001,1.335131,0.3816309,-0.8490626,0.007434071,11.90981,16.58453,-0.05357869,0.1309803,-0.02783275,-0.2113959,-2.74438,-1.115117,0.3197033,1.47624,0.3191452,-0.1052134,-0.006011464,-0.005060885,-1.138538,0.5385067,0.07616561,0.4980578,1.486685,0.2109566,-0.1234377,1.377552,0.2891628,280.413,357.8015,255.5667,True
5,2.755553,0.05764204,-0.1527868,-0.003265802,4.618056,-4.707583,-1.995139,0.2093055,1.335177,0.3816147,-0.8494158,-0.03231795,11.90981,16.69166,-0.0589483,0.1075728,-0.04703272,-0.2122827,-2.74902,-1.109721,0.3196966,1.47615,0.3189418,-0.0866598,0.04195495,0.0383989,-1.136433,0.5405926,0.07570408,0.4980479,1.486665,0.210901,-0.1235658,1.376843,0.2891448,280.4338,357.0173,256.5039,True
5,2.766664,0.05760866,-0.1154552,0.01260499,4.617921,-4.707251,-1.99577,0.2092617,1.335368,0.3818707,-0.8495441,-0.01149946,11.80371,16.5631,-0.05982971,0.09153906,-0.02575773,-0.2125117,-2.745584,-1.112434,0.3197083,1.476121,0.3187711,-0.0480032,0.08993389,0.06884451,-1.134652,0.5434164,0.07379699,0.4980142,1.486732,0.2107885,-0.1236527,1.376163,0.2890116,280.4128,355.9864,257.6315,True
5,2.777775,0.0543889,-0.0749132,0.03808523,4.617015,-4.706226,-1.996169,0.2091244,1.33514,0.3815072,-0.8492288,0.02884942,11.61804,16.02742,-0.05210912,0.06379926,0.002886051,-0.2121032,-2.742192,-1.115359,0.3198411,1.476235,0.3186789,-0.01608569,0.08994572,0.0653079,-1.134043,0.5443935,0.07269977,0.4980711,1.486632,0.2106295,-0.1236875,1.375587,0.2887986,280.3272,354.8605,258.7271,True
5,2.788886,0.05329518,-0.05146296,0.04442171,4.61658,-4.705666,-1.996666,0.2090804,1.335185,0.381531,-0.8492389,-0.001190288,11.35279,15.08464,-0.03590636,0.03078048,0.02188251,-0.2110092,-2.740003,-1.117638,0.3199517,1.476294,0.3185163,-0.02693637,0.04305694,0.04520912,-1.134219,0.5433174,0.07377755,0.498181,1.486594,0.2104824,-0.1237153,1.375166,0.2885511,280.2475,353.9442,259.5448,True
5,2.799997,0.06497813,-0.04185595,0.04119273,4.61651,-4.705198,-1.997549,0.2090464,1.335182,0.3814855,-0.8490536,0.01696492,11.06101,13.79901,-0.007012832,0.005286865,0.03016472,-0.210019,-2.739162,-1.119358,0.3200625,1.476454,0.3183501,-0.04736356,0.005747069,0.02627749,-1.134542,0.5419896,0.07553577,0.4983059,1.486528,0.2102437,-0.1237741,1.374948,0.2883383,280.2764,353.4583,259.944,True
5,2.811108,0.04145007,0.004959427,0.03366178,4.615129,-4.705713,-1.997344,0.209172,1.335117,0.3814652,-0.8490728,-0.001919453,10.76923,12.3634,-0.0005161688,-0.01282037,0.03753838,-0.2091274,-2.737835,-1.120857,0.3198288,1.476486,0.3181241,-0.06780757,-0.03049383,0.006273864,-1.135239,0.5403636,0.07768148,0.498304,1.486425,0.2100699,-0.1238311,1.374876,0.2880716,280.3853,353.6546,259.7759,True
5,2.822219,0.02538617,0.0443048,0.01867523,4.61371,-4.706642,-1.99726,0.2090857,1.334767,0.3804905,-0.849436,-0.03317315,10.50398,11.27062,-0.02400304,-0.00649472,0.03237838,-0.2091103,-2.736487,-1.121119,0.3196236,1.476494,0.3178046,-0.08405589,-0.03264752,-0.01912049,-1.136252,0.5400828,0.07912625,0.498395,1.486538,0.2099586,-0.1238389,1.374906,0.2877463,280.417,353.8396,259.5646,True
5,2.83333,0.02643483,0.04428302,0.009085698,4.613374,-4.707028,-1.997626,0.2090723,1.334693,0.3805242,-0.8482882,0.1052538,10.26525,10.62781,-0.04870252,0.05947107,0.03482145,-0.2114156,-2.728683,-1.127421,0.3193974,1.476483,0.3175209,-0.09265332,-0.01348327,-0.02542507,-1.136619,0.5405794,0.08023758,0.4983855,1.48658,0.2097538,-0.1237644,1.37496,0.2874081,280.3997,354.1187,259.1817,True
5,2.844441,0.02217352,0.04213451,0.008027805,4.613307,-4.707063,-1.997823,0.2090605,1.334309,0.3798716,-0.8482839,-0.0005525398,10.02653,10.41354,-0.05103025,0.08933026,0.01893198,-0.2132798,-2.725832,-1.129569,0.3190847,1.476463,0.3172922,-0.07868974,-0.004938155,-0.01386902,-1.136458,0.540966,0.08053745,0.498328,1.486634,0.2096808,-0.1236967,1.375038,0.28715,280.4623,354.4243,258.822,True
5,2.855552,-0.0225893,0.06765837,0.0208266,4.61159,-4.707101,-1.996114,0.2091888,1.333955,0.3797948,-0.8488719,-0.05356386,9.814323,10.62781,-0.05130763,0.06390592,-0.03972011,-0.2141395,-2.736249,-1.118832,0.3188579,1.476386,0.3170609,-0.06553337,0.02810268,0.02219795,-1.134843,0.5422236,0.08030602,0.4981683,1.486659,0.2095823,-0.1237363,1.375119,0.2869218,280.5401,354.9973,258.3095,True
5,2.866663,-0.05352217,0.09851156,0.02826588,4.609457,-4.707349,-1.994468,0.2092178,1.333374,0.3789587,-0.8488379,0.003595006,9.602121,11.44204,-0.05136094,0.07031067,-0.04502165,-0.2152212,-2.736349,-1.118156,0.3186909,1.476421,0.3168478,-0.0630542,0.09311653,0.05728064,-1.132942,0.545742,0.07949642,0.497951,1.486624,0.2095442,-0.1237665,1.375127,0.28675,280.5426,355.5265,257.8019,True
5,2.877774,-0.09508827,0.1667303,0.07611015,4.604976,-4.70674,-1.992164,0.2092809,1.332614,0.3777971,-0.8469998,0.1679945,9.416446,12.47054,-0.03965653,0.07886367,-0.0429422,-0.2164372,-2.735244,-1.119202,0.3186762,1.476283,0.3168302,-0.05657235,0.1058988,0.06680545,-1.131675,0.547132,0.07944662,0.4978117,1.486483,0.209466,-0.1237347,1.374982,0.2865571,280.5732,356.0739,257.3067,True
5,2.888885,-0.0823454,0.2136771,0.0972776,4.600698,-4.706731,-1.991659,0.2093162,1.3323,0.3775291,-0.8470227,-0.003374328,9.257293,13.64902,-0.04179952,0.06502956,-0.0525474,-0.2170119,-2.738376,-1.115626,0.318691,1.476212,0.3166597,-0.03630207,0.08460166,0.06873226,-1.130822,0.5473234,0.07907884,0.4977839,1.486479,0.209389,-0.1236911,1.374793,0.2863718,280.7066,355.8831,257.523,True
5,2.899997,-0.0109108,0.2170554,0.1291017,4.59773,-4.705412,-1.993944,0.2092783,1.331782,0.3760467,-0.8467318,0.02690318,9.124667,14.78466,-0.05223818,0.03086651,-0.03445691,-0.2162263,-2.738995,-1.113934,0.3186687,1.476129,0.3166361,-0.02911104,0.04091145,0.04204515,-1.131399,0.546216,0.07962851,0.4979306,1.486419,0.2092295,-0.1236772,1.374669,0.2860965,280.9467,355.8642,257.7235,True
5,2.911108,-0.1057388,0.3478285,0.160692,4.597638,-4.703582,-1.991521,0.2097022,1.331105,0.3757043,-0.8486461,-0.1750814,9.018568,15.44889,-0.02964972,-0.002128974,-0.01656551,-0.2149741,-2.739503,-1.113842,0.3186713,1.476031,0.3165681,-0.02940473,0.005739948,0.01330405,-1.13232,0.5450199,0.0804794,0.4979855,1.486383,0.2091107,-0.1236512,1.37472,0.2856155,281.2797,355.632,258.0906,True
5,2.922219,-0.1239255,0.3384455,0.1865197,4.58602,-4.704705,-1.98767,0.2094861,1.330759,0.3736808,-0.8518062,-0.2873992,8.885942,15.79173,-0.017003,-0.02650583,-0.05186202,-0.2148452,-2.749319,-1.104554,0.318577,1.476017,0.3164573,-0.02627274,-0.01344215,0.00689566,-1.13241,0.5441259,0.08107728,0.4979978,1.486367,0.209022,-0.1235696,1.374976,0.2849649,281.5396,355.7571,258.0008,True
5,2.93333,-0.1112777,0.4535952,0.2171037,4.576368,-4.705239,-1.986901,0.2096661,1.329928,0.3728142,-0.8473928,0.4057762,8.753316,15.83458,-0.03214088,-0.0243335,-0.0869175,-0.215724,-2.75841,-1.094743,0.3184708,1.476016,0.3163183,-0.02303702,-0.01236721,0.01111497,-1.132193,0.5441067,0.08126236,0.4979336,1.486424,0.2089767,-0.1232055,1.375117,0.2839631,281.6805,357.3908,256.4521,True
5,2.944441,0.00699466,0.5008011,0.2743054,4.56811,-4.703563,-1.991,0.2096138,1.329105,0.3711696,-0.8452117,0.1957516,8.594163,15.62031,-0.05056935,0.01403487,-0.1186682,-0.2181875,-2.764975,-1.087142,0.3183233,1.476046,0.3162398,-0.01762908,0.008944741,0.01956778,-1.131597,0.5450506,0.08091562,0.4978275,1.486525,0.2088213,-0.1227842,1.375162,0.2826544,281.8505,357.7277,255.9832,True
5,2.955552,0.07712614,0.6074433,0.2728489,4.557485,-4.704893,-1.994446,0.2098275,1.328449,0.3699453,-0.848456,-0.2978436,8.435014,15.23462,-0.05769031,-0.02548523,-0.08462981,-0.2166226,-2.76721,-1.084096,0.3180888,1.476024,0.3162129,-0.02520406,0.02064691,0.008991767,-1.131773,0.5456147,0.08120005,0.4977173,1.48656,0.2088223,-0.1228851,1.375639,0.2812495,282.484,356.5117,256.9773,True
5,2.966663,0.08757389,0.7139311,0.2512551,4.546527,-4.707822,-1.995893,0.2101159,1.327422,0.3679173,-0.854014,-0.5053073,8.222812,15.04178,-0.08320763,-0.06602098,-0.09734833,-0.2153192,-2.778008,-1.071708,0.3179415,1.475806,0.3160996,-0.0262578,0.02384662,0.01006238,-1.13165,0.546025,0.08134386,0.4975351,1.486544,0.2088306,-0.1228828,1.376375,0.2799452,283.0537,356.5077,256.7633,True
5,2.977774,0.06701893,0.8778914,0.2263788,4.531625,1.570458,-1.996772,0.210428,1.326624,0.3666832,-0.8531128,0.08632146,8.037136,14.84894,-0.1690634,-0.04050896,-0.1862434,-0.2184639,-2.79871,-1.046513,0.3177747,1.47554,0.3160374,-0.02065671,0.02811851,0.03557291,-1.130234,0.5463175,0.08120538,0.4974267,1.486542,0.2088873,-0.1225773,1.376938,0.2786102,283.5612,358.2727,254.9305,True
5,2.988885,0.02747473,0.9427624,0.2081679,4.519754,1.566889,-1.996203,0.2106382,1.325501,0.3648019,-0.8502222,0.262572,7.798407,14.65609,-0.1981468,0.02336258,-0.2050827,-0.2222152,-2.803915,-1.038257,0.3176918,1.475352,0.3161485,0.02729154,0.05374203,0.0392889,-1.129255,0.5476498,0.0792072,0.4972491,1.486487,0.2089472,-0.1221931,1.377037,0.2773714,284.1459,359.7145,253.3445,True
5,2.999996,-0.06519571,0.9821311,0.2497825,4.506578,1.565727,-1.992269,0.2107488,1.324708,0.3641067,-0.8487628,0.1309914,7.586205,14.39897,-0.170462,5.036592E-05,-0.2191589,-0.2229321,-2.816541,-1.025138,0.3177502,1.475112,0.3163991,0.04839727,0.07501344,0.0188333,-1.129797,0.5496164,0.07669025,0.4971924,1.486501,0.2089558,-0.1220426,1.376651,0.2764119,284.7896,359.7861,253.0866,True
5,3.011107,-0.1374409,0.9149962,0.2905603,4.497726,1.567214,-1.988045,0.210692,1.323718,0.3626096,-0.8473971,0.1240584,7.374006,13.99186,-0.1194556,-0.06995124,-0.276107,-0.222881,-2.843524,-0.9991727,0.3178256,1.474973,0.3165991,0.06302475,0.07821037,-0.00795814,-1.130707,0.5509486,0.07499222,0.4971527,1.48643,0.2089412,-0.1222745,1.375991,0.2760786,285.5218,358.6496,254.0755,True
5,3.022218,-0.1394711,0.8318381,0.2694741,4.491107,1.566733,-1.986857,0.2106464,1.322841,0.3612483,-0.8445725,0.2575375,7.24138,13.6276,-0.07984166,-0.11991,-0.2700824,-0.2218525,-2.861805,-0.9817696,0.317966,1.474979,0.3168106,0.0660347,0.05369429,-0.0260831,-1.131559,0.5505984,0.07438076,0.4971337,1.486495,0.2088823,-0.1227338,1.375234,0.2763385,286.228,357.362,255.5192,True
5,3.033329,-0.1137644,0.6847296,0.2144033,4.48867,1.566164,-1.986558,0.210767,1.322785,0.3611913,-0.8449667,-0.03764533,7.135277,13.30619,-0.004560385,-0.158248,-0.1758301,-0.2185789,-2.863714,-0.9824281,0.3180989,1.474874,0.3169396,0.05830397,0.0004205257,-0.05366622,-1.133196,0.5487954,0.07481166,0.4970499,1.486438,0.2088399,-0.1232701,1.374804,0.2770615,286.9943,355.9706,257.3116,True
5,3.04444,-0.06240095,0.4790455,0.1530507,4.489876,1.566588,-1.987586,0.2108794,1.322773,0.3609753,-0.8480805,-0.2837415,7.055701,13.0705,0.049327,-0.1636373,-0.07710658,-0.215642,-2.859006,-0.9892988,0.3181643,1.474785,0.3170438,0.04861716,-0.02729389,-0.0641946,-1.134277,0.5473516,0.07519782,0.4970551,1.486412,0.2087903,-0.123606,1.374919,0.2777437,287.6113,355.8529,258.1601,True
5,3.055551,0.003848383,0.2722977,0.07888128,4.494033,1.566666,-1.989824,0.2109722,1.323005,0.3612502,-0.8494568,-0.1234092,7.029178,12.94193,0.07064067,-0.1380346,-0.06226122,-0.2152947,-2.861879,-0.9878884,0.318295,1.474681,0.3170896,0.04332722,-0.05393309,-0.06198858,-1.134942,0.5457336,0.07554163,0.4970518,1.486389,0.2087541,-0.1236,1.375506,0.2781264,287.9096,356.704,257.7664,True
5,3.066662,0.03700682,0.1561596,0.04821744,4.495476,1.566955,-1.991135,0.211195,1.323073,0.361429,-0.851061,-0.1459398,7.029178,13.02764,0.0811535,-0.06346714,-0.04616353,-0.2168798,-2.857404,-0.9934534,0.3183048,1.474748,0.317168,0.05303023,-0.0624358,-0.05144084,-1.135298,0.5448682,0.07496718,0.4970325,1.486393,0.2087042,-0.1232507,1.376387,0.2782711,287.8648,357.7284,256.7495,True
5,3.077773,0.07763978,0.009093676,0.0005766829,4.500948,1.567524,-1.993372,0.2113667,1.323208,0.3617415,-0.8521242,-0.09623372,6.870025,13.11335,0.08215205,-0.05598897,-0.0525417,-0.2169608,-2.861391,-0.9904586,0.3183247,1.474722,0.3172677,0.05749518,-0.05284206,-0.03231099,-1.134957,0.5444261,0.07427476,0.4969312,1.486466,0.208698,-0.1226564,1.377273,0.2781846,287.6143,359.188,255.1603,True
5,3.088884,0.08520813,-0.09324424,-0.03220683,4.50507,1.567901,-1.994431,0.2115116,1.32311,0.3618939,-0.851027,0.1008057,6.472147,13.09192,0.05962642,-0.05387192,-0.07690141,-0.2173038,-2.870228,-0.9817749,0.3183756,1.474762,0.317173,0.05018186,-0.04217688,-0.01838856,-1.134704,0.5443879,0.07399753,0.4968144,1.486472,0.2086627,-0.1220103,1.377871,0.277939,287.3046,0.6335106,253.4887,True
5,3.099995,0.05763126,-0.169995,-0.03408729,4.508791,1.569334,-1.993787,0.211614,1.322914,0.3620679,-0.8515713,-0.05094223,5.888594,12.9205,0.05654763,-0.02094793,-0.04058109,-0.2175728,-2.865231,-0.9871584,0.3184194,1.474721,0.3172312,0.04804423,-0.02726883,-0.01836963,-1.134823,0.5445313,0.07349099,0.4967057,1.486519,0.2085915,-0.1214626,1.378023,0.2776142,287.1338,1.480947,252.4477,True
5,3.111106,0.03750283,-0.2211212,-0.01794121,4.51249,-4.711843,-1.993142,0.2116321,1.322919,0.3623171,-0.85017,0.1284633,5.066311,12.47054,0.05896178,0.02788842,0.03089628,-0.2176751,-2.849238,-1.003547,0.3184675,1.474528,0.3171198,0.05436122,-0.03152903,-0.02589194,-1.13545,0.5440274,0.07281136,0.4966883,1.486467,0.2085485,-0.1210737,1.377592,0.277193,286.8366,1.988143,251.8444,True
5,3.122217,0.03541138,-0.2264138,-0.003005564,4.514522,-4.710323,-1.993315,0.2115524,1.322733,0.3621328,-0.8483803,0.162369,4.058356,11.74202,0.0450601,0.05446588,0.03636736,-0.2186828,-2.844332,-1.008351,0.3184927,1.47439,0.3172004,0.04905127,-0.0400468,-0.02476775,-1.135763,0.543323,0.0727272,0.4966674,1.486586,0.2084796,-0.1209171,1.3766,0.2767017,286.5742,1.730094,252.0269,True
5,3.133328,0.03433387,-0.1847932,0.026719,4.51457,-4.708783,-1.993317,0.2114757,1.322706,0.3620038,-0.8483239,0.003848046,3.023871,10.94922,0.004227534,0.09490349,0.000495933,-0.2214946,-2.843071,-1.008246,0.3185888,1.474314,0.3172779,0.05794356,-0.05814295,0.009245915,-1.134548,0.5417311,0.07248139,0.4965987,1.486608,0.2083838,-0.1209844,1.375271,0.2761427,286.376,0.4549023,253.2504,True
5,3.144439,0.05026331,-0.1389305,0.03935796,4.514202,-4.708037,-1.994303,0.2113814,1.322646,0.3613212,-0.8491111,-0.07180282,1.98939,10.17785,-0.0009997599,0.06399158,0.0004503708,-0.2211569,-2.844148,-1.007054,0.3187364,1.474258,0.3173525,0.06449166,-0.06238301,0.02409295,-1.133875,0.5409333,0.0719381,0.496542,1.48658,0.2083142,-0.1212084,1.373905,0.2754966,286.2087,358.6953,255.0019,True
5,3.15555,0.07572365,-0.09099191,0.02320942,4.513749,-4.708528,-1.996098,0.2113564,1.322652,0.3610599,-0.8490445,0.006763524,1.061008,9.470752,0.02800839,-0.02006682,-0.004195475,-0.2186306,-2.85254,-1.000219,0.3188383,1.474342,0.3174696,0.06147637,-0.06344692,0.04117935,-1.132844,0.5399378,0.07181853,0.49652,1.486528,0.208204,-0.1214928,1.372697,0.2747478,286.1557,357.1102,256.5803,True
5,3.166661,0.06501328,-0.05587226,0.01675715,4.513395,-4.708635,-1.996615,0.2113486,1.322301,0.3605275,-0.8498216,-0.07126924,0.3713512,9.042211,0.05710053,-0.1158655,-0.0003389642,-0.2148116,-2.862984,-0.9915372,0.3188162,1.474402,0.3175039,0.05380147,-0.05174207,0.0210051,-1.1334,0.5398034,0.07149363,0.4965195,1.486506,0.2081697,-0.1217692,1.371817,0.2739162,286.225,355.7973,257.8701,True
5,3.177772,0.0244293,0.01545381,0.02304203,4.510753,-4.709367,-1.995607,0.2114407,1.32199,0.3602877,-0.8503835,-0.05080882,0.1856756,8.892222,0.05708928,-0.1062842,0.002881482,-0.2139647,-2.864487,-0.9906959,0.3186742,1.47432,0.317486,0.04285102,-0.04004654,-0.006584757,-1.134432,0.5397899,0.07136819,0.4965211,1.486535,0.2082355,-0.1219677,1.371287,0.2730015,286.2735,355.128,258.4892,True
5,3.188883,-0.0416813,0.09320323,0.05492722,4.506684,-4.709268,-1.992908,0.2114725,1.321574,0.3600917,-0.8491217,0.1156453,0.530504,8.977929,0.03020454,-0.05733724,-0.01174238,-0.2151584,-2.863908,-0.9905947,0.3184681,1.474288,0.3174281,0.03833712,-0.02088839,-0.02998371,-1.135458,0.54028,0.07081478,0.4963624,1.486666,0.2082024,-0.122029,1.370993,0.2721432,286.2385,355.0938,258.3469,True
5,3.199994,-0.08218982,0.1496861,0.08894763,4.502462,-4.708762,-1.990469,0.2115091,1.32119,0.3598099,-0.8473241,0.1632913,1.405836,9.277906,-0.03963001,0.04268198,-0.05474658,-0.2195915,-2.862195,-0.9894171,0.3183055,1.474168,0.3173027,0.04151817,-0.003837377,-0.03109559,-1.135817,0.5409477,0.06993328,0.4961942,1.486728,0.2082217,-0.1219769,1.370821,0.2714351,286.2412,355.3477,257.886,True
5,3.211105,-0.1131245,0.2232449,0.1293004,4.496874,-4.708108,-1.988041,0.211486,1.320972,0.3591313,-0.8455643,0.1594402,2.70557,9.727876,-0.07919745,0.1043196,-0.04689458,-0.2221715,-2.855318,-0.9940366,0.3183931,1.474048,0.3173773,0.05342513,0.005765133,-0.01311694,-1.135305,0.5413542,0.0687519,0.4960988,1.486757,0.2082264,-0.1219239,1.37083,0.271037,286.3893,355.2836,257.7293,True
5,3.222216,-0.08330105,0.2264875,0.1302966,4.494284,-4.707886,-1.988252,0.2114988,1.320948,0.3586595,-0.8455963,-0.004427416,4.217505,10.09213,-0.06739501,0.06389204,-0.05451663,-0.2220128,-2.85983,-0.9893382,0.3186791,1.473978,0.3174875,0.06659267,0.01110887,0.02296716,-1.133651,0.541438,0.06749249,0.4960375,1.486762,0.2082078,-0.1219153,1.371139,0.270996,286.666,355.1143,257.8239,True
5,3.233327,-0.02362398,0.1753642,0.09729232,4.494077,-4.708031,-1.990065,0.2115858,1.321141,0.3584321,-0.8453448,0.02274547,5.702918,10.17785,-0.02967581,-0.03510509,-0.03581493,-0.2189923,-2.868469,-0.9817237,0.3190429,1.474023,0.3177547,0.07206485,-0.01125101,0.03570583,-1.132935,0.5403804,0.06698409,0.495995,1.486696,0.2082393,-0.1218925,1.371803,0.2712097,287.0052,355.3445,257.7376,True
5,3.244438,0.02224708,0.07196444,0.04207435,4.497084,-4.708249,-1.991796,0.2115151,1.321315,0.3580801,-0.8472506,-0.1750493,7.055701,9.899292,0.0271581,-0.09358238,-0.005420733,-0.2162007,-2.87227,-0.980096,0.3192019,1.474032,0.3178875,0.07312623,-0.03149188,0.03464103,-1.132658,0.539161,0.0666488,0.496027,1.486683,0.2082191,-0.1218379,1.372818,0.271484,287.3663,356.0385,257.3266,True
5,3.255549,0.03504993,0.02396755,0.01127969,4.498726,-4.708538,-1.992743,0.2115792,1.321423,0.3580956,-0.8479995,-0.06779674,8.196285,9.277906,0.07537706,-0.1648218,0.002630487,-0.2126593,-2.882045,-0.972996,0.3194222,1.474125,0.3178821,0.06522478,-0.05921616,-0.007873802,-1.134372,0.5375584,0.06688689,0.496128,1.48661,0.2082,-0.12162,1.373918,0.2716482,287.4934,357.3916,256.1929,True
5,3.26666,0.02332773,0.03141093,0.01448568,4.497715,-4.708385,-1.992439,0.2115691,1.32116,0.3577244,-0.8466604,0.1217019,8.912464,8.356546,0.05419087,-0.1564168,0.02621048,-0.211022,-2.882108,-0.9727417,0.3192832,1.474123,0.3178313,0.05945731,-0.05711561,-0.04936215,-1.136287,0.5370558,0.06662643,0.4961134,1.486608,0.208194,-0.1212787,1.37474,0.2716213,287.4057,359.1168,254.5551,True
5,3.277771,-0.008673856,0.07293902,0.02722248,4.495363,-4.70866,-1.9913,0.2116473,1.320888,0.3577497,-0.8445294,0.1929032,9.442968,7.435183,0.0273323,-0.05533727,0.0426014,-0.2127408,-2.870804,-0.9831405,0.3192436,1.47413,0.3177371,0.05603514,-0.04967904,-0.07063428,-1.137698,0.5367475,0.06618461,0.4961359,1.486693,0.2081313,-0.1210175,1.375,0.2713665,287.1982,0.5102658,253.1228,True
5,3.288882,-0.02675799,0.05693441,0.02837251,4.494902,-4.708233,-1.990241,0.2117032,1.320574,0.3574698,-0.8422151,0.2093195,9.8939,6.599526,0.01640045,0.01177108,0.03217272,-0.2148031,-2.86469,-0.9889936,0.3191871,1.47407,0.3177195,0.04871191,-0.04434391,-0.05778614,-1.137984,0.5364526,0.06600378,0.496192,1.486779,0.2081237,-0.1209264,1.374631,0.2709876,287.1079,0.8027365,252.6841,True
5,3.299993,-0.02458675,0.01535592,0.01462609,4.496218,-4.707988,-1.989984,0.2117583,1.320544,0.3574312,-0.8403882,0.1649585,10.23872,5.828155,0.00964345,0.04274501,-0.01032293,-0.2168522,-2.867511,-0.9861635,0.3191935,1.473957,0.3178217,0.04160358,-0.03580485,-0.02468942,-1.137162,0.5362681,0.06585278,0.496163,1.486809,0.2081461,-0.1210667,1.373766,0.2705494,287.2135,359.9712,253.394,True
5,3.311104,0.005282185,-0.03898445,-0.006589924,4.498817,-4.707643,-1.991033,0.2118554,1.320515,0.3572624,-0.8399684,0.0368085,10.61008,5.206769,0.005260769,0.03213569,-0.03589376,-0.2173427,-2.872958,-0.9808428,0.3192673,1.47385,0.3179178,0.04183321,-0.0262021,-0.002342368,-1.136661,0.5363123,0.06542588,0.4961735,1.486818,0.2081535,-0.1213587,1.372659,0.270158,287.3412,358.4039,254.8855,True
5,3.322215,0.01700338,-0.04323232,-0.008728573,4.499222,-4.707531,-1.991548,0.2118782,1.320432,0.3571036,-0.8403088,-0.03158869,11.24668,4.992498,0.003161695,0.0161572,-0.03911525,-0.2173395,-2.876063,-0.9777647,0.3193803,1.473759,0.3179774,0.03892503,-0.01872792,0.02432674,-1.135407,0.5362872,0.06499658,0.4959827,1.486833,0.208142,-0.1216508,1.371532,0.2697855,287.3366,356.8961,256.4395,True
5,3.333326,0.004184026,-0.01340817,-0.002389266,4.498381,-4.707706,-1.991214,0.2119717,1.320283,0.3570061,-0.8412479,-0.08583964,12.09549,5.635309,0.02989461,-0.02103719,-0.04256654,-0.2163435,-2.882122,-0.9731798,0.3195383,1.473722,0.3180685,0.04639516,0.004704624,0.02637132,-1.134947,0.5370433,0.06393158,0.496056,1.486772,0.2081165,-0.121837,1.370545,0.269427,287.1897,355.7263,257.6618,True
5,3.344437,-0.02038531,0.02382507,-0.007761701,4.497037,-4.708569,-1.990336,0.2120804,1.320159,0.3569713,-0.8402987,0.08716818,13.12997,7.263766,0.03540245,-0.02853485,-0.01705803,-0.215576,-2.881415,-0.9744424,0.3196448,1.473733,0.3180661,0.04730634,0.0004418232,0.01144508,-1.135371,0.5370122,0.06336299,0.496118,1.486744,0.208128,-0.1218539,1.369709,0.2690634,287.0314,355.1547,258.2517,True
5,3.355548,-0.02467518,0.04299626,-0.006737528,4.496038,-4.709063,-1.990006,0.212254,1.319985,0.3569384,-0.8388739,0.1291087,14.27056,9.727876,0.01441955,-0.02659961,0.03634308,-0.2142369,-2.873118,-0.9819256,0.3197225,1.47381,0.3181362,0.03855261,-0.02089014,-0.010814,-1.136186,0.5358863,0.06373078,0.4962253,1.486702,0.2081056,-0.1218314,1.369069,0.2687399,287.035,354.7625,258.5818,True
5,3.366659,-0.02040529,0.05263986,0.006021075,4.494837,-4.708921,-1.98997,0.2124379,1.319908,0.357358,-0.8377916,0.09777448,15.25199,12.68481,0.006790536,0.001109708,0.02260448,-0.2151445,-2.871663,-0.9832225,0.3197633,1.473692,0.3182235,0.02665715,-0.03900817,-0.02773325,-1.137255,0.5349068,0.06429563,0.4962889,1.486715,0.2081592,-0.1218257,1.368684,0.2685304,287.1258,354.349,258.8979,True
5,3.37777,-0.01079349,0.03880909,0.00710389,4.49478,-4.708807,-1.990146,0.212639,1.319884,0.3573766,-0.8381634,-0.03487273,16.15384,16.13456,0.008713304,0.01183465,-0.005079879,-0.2161427,-2.874708,-0.9804268,0.31989,1.473619,0.3183529,0.01076285,-0.05499602,-0.02008963,-1.137164,0.5335067,0.06533693,0.4963329,1.486681,0.2082293,-0.121834,1.368612,0.2685251,287.1987,354.0345,259.1352,True
5,3.388881,0.002058562,0.003690724,0.01356578,4.495747,-4.707926,-1.990424,0.2128406,1.319893,0.3573103,-0.8385043,-0.03086635,16.71088,19.56289,0.0267182,0.003419818,-0.02758425,-0.2164724,-2.879321,-0.976914,0.3201112,1.47359,0.3185537,0.02158704,-0.02941361,-0.003186366,-1.136712,0.5341209,0.06446048,0.4964443,1.486658,0.2083282,-0.1217202,1.368803,0.268746,287.234,354.1031,259.0213,True
5,3.399992,0.00316,-0.00266379,0.02742895,4.495668,-4.707078,-1.990327,0.21302,1.319773,0.357183,-0.8385661,-0.005528273,16.9496,22.79837,0.03309243,-0.01038109,-0.0383151,-0.2164697,-2.883912,-0.9730642,0.3202686,1.47353,0.318675,0.03332719,0.004675929,-0.000130631,-1.136477,0.5354499,0.06307804,0.4965055,1.486679,0.2084208,-0.1214539,1.369178,0.2691774,287.2814,354.5576,258.5813,True
5,3.411103,0.009537864,0.04537502,0.06138939,4.492814,-4.706205,-1.990414,0.2132222,1.319655,0.3569994,-0.8386412,-0.007018606,16.89655,25.71245,0.0181047,-0.01465805,-0.05208264,-0.2168239,-2.888677,-0.9680862,0.3204839,1.473516,0.318819,0.03969645,0.032384,-0.001280112,-1.13644,0.5371131,0.06171423,0.4966367,1.486672,0.2085128,-0.1210706,1.369619,0.2696663,287.3102,355.4282,257.895,True
