loc,t,aDotS,bDotS,gDotS,aS,bS,gS,xS,yS,zS,qE,qDotE,emgA,emgB,aDotSH,bDotSH,gDotSH,aSH,bSH,gSH,xSH,ySH,zSH,aDotUB,bDotUB,gDotUB,aUB,bUB,gUB,xUB,yUB,zUB,xHand,yHand,zHand,aHand,bHand,gHand,enable
2,0,0.4026793,-1.084603,0.7325009,-1.525166,1.545189,-2.726063,0.3672819,1.22127,0.4648635,-1.159647,0.1038017,11.19363,16.7988,-0.744374,0.6207497,-0.1118798,-0.6031202,-3.608177,-0.6081171,0.3715061,1.428224,0.3975542,-0.2885901,0.7313615,0.273482,-0.9943535,0.3272856,-0.1111342,0.5188788,1.49765,0.2303011,0.06720054,1.11957,0.4020181,292.2399,287.0515,334.6812,True
2,0.01111111,0.3684037,-1.04961,0.6376823,-1.524925,1.556758,-2.729763,0.3652292,1.221082,0.4640152,-1.158272,0.124631,11.27321,16.77737,-0.745599,0.7144894,-0.1052672,-0.6103475,-3.593008,-0.6123058,0.3695177,1.427919,0.3968396,-0.2706228,0.7281951,0.2615633,-0.9926741,0.3371096,-0.1138832,0.5181044,1.497844,0.2308755,0.06575959,1.118505,0.3976262,291.4427,282.2627,338.957,True
2,0.02222222,0.3385226,-1.024137,0.5940082,-1.525552,1.568533,-2.733444,0.3630763,1.220761,0.4630747,-1.157477,0.07109077,11.32626,16.41311,-0.7153897,0.7176154,-0.04685193,-0.6135055,-3.580418,-0.6157916,0.3676946,1.427747,0.3960786,-0.1988253,0.6761699,0.1947131,-0.9932749,0.3441114,-0.1177951,0.5173231,1.498135,0.2314627,0.06487775,1.116085,0.3916424,291.9183,280.4326,339.6036,True
2,0.03333334,0.2882569,-0.9763536,0.515205,-1.524804,-4.704922,-2.735505,0.3612213,1.220528,0.4621267,-1.155922,0.1412935,11.32626,15.74888,-0.6475854,0.6515345,0.03351069,-0.613946,-3.570215,-0.6192206,0.3660392,1.427673,0.3953745,-0.1330594,0.6198441,0.1598633,-0.9932978,0.3499221,-0.1216934,0.5166289,1.498383,0.2318339,0.06435993,1.112552,0.3845438,292.9196,279.0458,339.3878,True
2,0.04444445,0.2540275,-0.9360033,0.4555267,-1.523988,-4.695411,-2.737816,0.3592445,1.220327,0.4613204,-1.155461,0.04087353,11.37931,15.02035,-0.6078116,0.5929612,0.06613206,-0.6152456,-3.562041,-0.6204814,0.3642718,1.427397,0.3947275,-0.176923,0.6123264,0.142235,-0.9928477,0.3580418,-0.1225885,0.5158285,1.498445,0.2321773,0.06432835,1.111384,0.38059,292.5617,271.0442,347.7476,True
2,0.05555556,0.2111916,-0.8765002,0.3703052,-1.522084,-4.68779,-2.739175,0.3574894,1.220227,0.4605861,-1.15375,0.1561045,11.43236,14.1847,-0.5661302,0.5280854,0.06251943,-0.6168445,-3.556344,-0.6203259,0.3627607,1.427306,0.3941717,-0.2321638,0.6132838,0.1577521,-0.9914193,0.366404,-0.1227129,0.5151907,1.498528,0.232548,0.06418575,1.111108,0.37885,292.6184,268.5301,350.7321,True
2,0.06666667,0.171544,-0.8042005,0.2946489,-1.520236,-4.681448,-2.740106,0.3559301,1.220371,0.459981,-1.153793,-0.005237641,11.45889,13.56331,-0.5277941,0.5036902,0.05262569,-0.6194901,-3.549341,-0.62139,0.3614177,1.427232,0.393584,-0.2839647,0.5886745,0.1913278,-0.9887624,0.3737997,-0.1218942,0.5146074,1.498543,0.2326729,0.06386121,1.110903,0.3782803,292.7663,268.6312,351.4144,True
2,0.07777778,0.117019,-0.739359,0.2264931,-1.518205,-4.675433,-2.74008,0.3543468,1.220544,0.4594581,-1.152991,0.07351822,11.48541,13.26334,-0.4786916,0.4846078,0.06077948,-0.6215056,-3.54151,-0.6239115,0.3601699,1.427119,0.3930211,-0.2796464,0.5226305,0.1869705,-0.9872759,0.378365,-0.1214575,0.5140305,1.498628,0.2328165,0.06331346,1.11075,0.3781437,292.9677,270.2512,350.3245,True
2,0.08888889,0.07963999,-0.7085721,0.1775237,-1.515969,-4.66881,-2.740305,0.3527117,1.220662,0.4589324,-1.152634,0.03214261,11.48541,13.22048,-0.4456641,0.4751005,0.0584138,-0.6238721,-3.534022,-0.6261297,0.3589826,1.427014,0.392451,-0.2583305,0.4736694,0.1803203,-0.9859805,0.3829579,-0.1219645,0.5135598,1.498713,0.2329466,0.0626819,1.110566,0.377939,293.1951,271.5102,349.4625,True
2,0.1,0.01449681,-0.6693056,0.1147431,-1.512698,-4.663492,-2.738534,0.3512326,1.221058,0.4585271,-1.151832,0.07326885,11.43236,13.47761,-0.3902926,0.433719,0.0408998,-0.6259957,-3.529361,-0.6273843,0.3581092,1.427127,0.3918085,-0.2286071,0.4119405,0.1618451,-0.9850149,0.3860548,-0.1220857,0.5130956,1.49883,0.2328618,0.06201206,1.110464,0.3774944,293.4106,271.978,349.2579,True
2,0.1111111,-0.07516113,-0.5895841,0.0604838,-1.510214,-4.659688,-2.73541,0.3499177,1.22167,0.4581118,-1.152184,-0.03263157,11.35279,14.09899,-0.3216637,0.3304841,0.07002141,-0.6250066,-3.526911,-0.627845,0.3574381,1.427498,0.3912613,-0.2066995,0.3353141,0.1082832,-0.9855896,0.3877401,-0.1212337,0.5127878,1.498845,0.2326565,0.06127166,1.110446,0.3767682,293.6318,271.7185,349.7162,True
2,0.1222222,-0.0997095,-0.5672575,0.04665406,-1.508097,-4.654398,-2.73393,0.3483766,1.222075,0.4574964,-1.150579,0.1472899,11.27321,14.87037,-0.2968657,0.2750838,0.09530365,-0.6243035,-3.522867,-0.6284122,0.3565986,1.42768,0.3907444,-0.2111416,0.3001685,0.08594634,-0.9854319,0.3906559,-0.1203054,0.5124584,1.498859,0.2325282,0.06044864,1.110484,0.3757984,293.7365,270.8693,350.7329,True
2,0.1333333,-0.2000527,-0.470487,0.0009017438,-1.505726,-4.6531,-2.728396,0.3472144,1.222734,0.4571152,-1.149523,0.09555539,11.19363,15.7703,-0.2496597,0.2144026,0.1236005,-0.6227861,-3.519911,-0.6294363,0.3561325,1.427991,0.3902609,-0.2166897,0.2543622,0.05934206,-0.985694,0.3922257,-0.1184673,0.5122236,1.498867,0.232331,0.05929932,1.110677,0.3747248,293.718,269.5024,352.1592,True
2,0.1444445,-0.24808,-0.4140986,-0.01186697,-1.504041,-4.650505,-2.724407,0.3459574,1.223221,0.4566753,-1.151426,-0.1743498,11.16711,16.67023,-0.2175095,0.1942016,0.143577,-0.6220154,-3.515324,-0.6318049,0.3555824,1.428138,0.3897622,-0.2148294,0.2234994,0.02946873,-0.9865031,0.3940598,-0.1171319,0.5119363,1.498775,0.2320781,0.05770063,1.111019,0.3735487,293.779,267.6949,353.8721,True
2,0.1555556,-0.3163961,-0.3183194,-0.02889739,-1.5031,-4.650549,-2.718627,0.3448668,1.22385,0.4563198,-1.148322,0.2857376,11.19363,17.33447,-0.170433,0.1591133,0.16129,-0.6204574,-3.51197,-0.6342097,0.3553813,1.428498,0.3893588,-0.201335,0.1724177,-0.01120003,-0.988037,0.394013,-0.1152954,0.5118142,1.498718,0.2317536,0.05578929,1.111331,0.3721121,293.8032,265.3171,356.0506,True
2,0.1666667,-0.3953591,-0.2310943,-0.05228167,-1.501997,-4.651084,-2.711771,0.3437101,1.224528,0.4559469,-1.149959,-0.1518741,11.22016,17.76302,-0.1371881,0.1133426,0.1780068,-0.6182454,-3.509715,-0.6355618,0.3553154,1.428807,0.3889549,-0.1716257,0.09046026,-0.03503252,-0.9889675,0.3920906,-0.1131479,0.5116127,1.498741,0.2312105,0.05366555,1.11166,0.370487,293.988,263.1212,357.8057,True
2,0.1777778,-0.4796501,-0.169444,-0.08522959,-1.500098,-4.651992,-2.703687,0.3426811,1.225297,0.4556682,-1.149146,0.07626996,11.24668,17.99871,-0.1125332,0.06651221,0.1841228,-0.6159742,-3.508466,-0.6360832,0.3553382,1.429256,0.3884866,-0.1493372,0.05535838,-0.04808643,-0.9898522,0.3915796,-0.1118155,0.5114435,1.498718,0.2308116,0.05132322,1.112024,0.3674828,294.0013,266.4911,353.0378,True
2,0.1888889,-0.5500807,-0.1056373,-0.1118064,-1.498576,-4.653582,-2.6953,0.3417108,1.226013,0.4555225,-1.148584,0.05104401,11.24668,18.04157,-0.07613204,-0.006904975,0.1847709,-0.612992,-3.509535,-0.6354883,0.3553788,1.429619,0.3881142,-0.1216683,0.008536346,-0.05801091,-0.9906171,0.3896783,-0.1102024,0.5113533,1.498698,0.2302818,0.04869151,1.112197,0.3621565,293.9971,271.0391,345.9542,True
2,0.2,-0.6151795,-0.04608685,-0.138392,-1.496996,-4.65584,-2.686224,0.3406938,1.226807,0.4553092,-1.148006,0.05299862,11.22016,17.95586,-0.0461985,-0.05051195,0.184467,-0.6101483,-3.510139,-0.635479,0.3553898,1.429947,0.3877656,-0.1014556,-0.03509695,-0.06785482,-0.9915204,0.3874544,-0.1084666,0.5112852,1.498669,0.2297447,0.04703664,1.112548,0.3555469,294.5588,271.1266,343.0932,True
2,0.2111111,-0.6578683,0.0007122941,-0.1511547,-1.495748,-4.657946,-2.677497,0.3397796,1.227605,0.4550047,-1.148405,-0.03641361,11.11406,17.89158,0.01877208,-0.0950601,0.1668791,-0.6076407,-3.512165,-0.6361541,0.3556643,1.430447,0.387527,-0.08451473,-0.06701604,-0.08297736,-0.9927173,0.3852509,-0.106841,0.5112187,1.49868,0.2291827,0.04581539,1.113618,0.349351,294.8898,268.8738,342.9103,True
2,0.2222222,-0.7112669,0.08157249,-0.1756514,-1.494935,-4.662272,-2.667604,0.3389949,1.228464,0.4548726,-1.148524,-0.01001411,11.03448,17.89158,0.03683454,-0.09606358,0.1592931,-0.605819,-3.512118,-0.6371543,0.3558947,1.430814,0.3871667,-0.08552261,-0.09364601,-0.08191702,-0.9933143,0.3830583,-0.1045839,0.5111924,1.498663,0.2286541,0.04466698,1.1157,0.3445824,294.926,267.0916,342.7848,True
2,0.2333333,-0.7646527,0.164587,-0.1895052,-1.49474,-4.667562,-2.656934,0.338219,1.229518,0.4547837,-1.149526,-0.09112436,10.98143,17.913,0.03467859,-0.07157463,0.1636291,-0.6042361,-3.509912,-0.6392793,0.3562177,1.431378,0.3866611,-0.07485045,-0.1149308,-0.08311053,-0.993986,0.3806436,-0.1026622,0.5111154,1.498681,0.2279685,0.04320677,1.118844,0.3417973,294.5978,266.1059,342.6427,True
2,0.2444444,-0.8191395,0.2443573,-0.225715,-1.493989,-4.673514,-2.645903,0.3375552,1.230711,0.4547348,-1.14924,0.02738459,10.95491,17.99871,0.04538964,-0.04815303,0.180659,-0.602284,-3.506828,-0.6426037,0.3567945,1.431973,0.3863201,-0.05676381,-0.1543052,-0.0918565,-0.9948952,0.377047,-0.1006779,0.5111545,1.498664,0.2273722,0.04135956,1.122933,0.3411289,293.8961,265.7914,342.6447,True
2,0.2555556,-0.8725331,0.2996475,-0.2608407,-1.492918,-4.679888,-2.634104,0.3367923,1.232106,0.4547474,-1.149082,0.01455979,11.06101,18.08442,0.06466328,-0.03430621,0.1997365,-0.6000049,-3.503802,-0.6464842,0.3572686,1.432514,0.3861058,-0.04395884,-0.1830433,-0.0941465,-0.9956595,0.3733956,-0.09849461,0.5110934,1.498596,0.2268114,0.03907006,1.127776,0.3424832,292.9893,266.0983,342.6791,True
2,0.2666667,-0.9077687,0.3272449,-0.2874281,-1.491517,-4.685368,-2.622894,0.3361379,1.233559,0.4547126,-1.149358,-0.02488928,11.22016,18.23441,0.08934052,-0.04601604,0.2219129,-0.5969257,-3.501591,-0.6500728,0.3580203,1.433124,0.3858755,-0.01746199,-0.2245245,-0.113643,-0.9971605,0.3686301,-0.09659099,0.5111526,1.498542,0.22616,0.03641684,1.133203,0.345522,291.9947,266.9069,342.7744,True
2,0.2777778,-0.9686189,0.3761284,-0.3246622,-1.490228,-4.692693,-2.609694,0.3354363,1.235117,0.4548421,-1.149249,0.01055206,11.37931,18.51296,0.1247363,-0.0875307,0.2428811,-0.5928452,-3.501383,-0.6527885,0.3588574,1.433955,0.3858638,0.006745309,-0.2734584,-0.1491031,-0.999577,0.3627699,-0.09427857,0.5111672,1.498494,0.2255454,0.0336045,1.139027,0.3497335,290.9437,267.9193,343.0551,True
2,0.2888889,-1.014519,0.4143793,-0.3459225,-1.489353,-4.699894,-2.596563,0.3348557,1.236648,0.4548905,-1.150313,-0.09705164,11.56498,18.92007,0.148301,-0.1173255,0.2511771,-0.5890678,-3.501126,-0.6553384,0.3597413,1.434732,0.3857524,0.02039576,-0.3138915,-0.1737845,-1.001795,0.3569337,-0.09171633,0.5112205,1.4985,0.2248163,0.03077078,1.145082,0.3545172,289.8916,269.0263,343.4402,True
2,0.3,-1.081752,0.4685915,-0.3756952,-1.488613,-4.708698,-2.581502,0.3340974,1.238446,0.455251,-1.149131,0.1093979,11.72414,19.4129,0.2048965,-0.1693971,0.2528009,-0.5845096,-3.503354,-0.6577774,0.3608257,1.435669,0.3857121,0.0373635,-0.3681761,-0.1899898,-1.003812,0.3496925,-0.08880284,0.5112899,1.498449,0.2241054,0.02813972,1.151186,0.3592542,288.826,270.1074,343.8227,True
2,0.3111111,-1.122314,0.5025961,-0.3948245,-1.487857,1.566184,-2.567064,0.3334362,1.240332,0.455548,-1.149603,-0.0438674,11.83024,19.99143,0.2370739,-0.2013299,0.2738147,-0.5794628,-3.503894,-0.6610836,0.3619039,1.436568,0.385675,0.06271309,-0.3947466,-0.2147927,-1.006615,0.3430924,-0.08687977,0.5113959,1.498338,0.2233527,0.02561293,1.157245,0.3635412,287.8809,271.0964,344.0356,True
2,0.3222222,-1.187392,0.5429682,-0.4181903,-1.487285,1.556906,-2.55079,0.3327046,1.242457,0.4559946,-1.148478,0.1038824,11.83024,20.63424,0.2929731,-0.2929097,0.3147689,-0.5717018,-3.507494,-0.6633567,0.3634347,1.437812,0.3855739,0.06799948,-0.4245581,-0.2233944,-1.008795,0.3361808,-0.0840989,0.5115592,1.498318,0.2226307,0.02321627,1.163248,0.3671411,287.0403,271.8901,344.1057,True
2,0.3333333,-1.2727,0.5865123,-0.4351603,-1.487311,1.547244,-2.532872,0.3321012,1.244837,0.4565485,-1.149548,-0.09833602,11.77719,21.34133,0.3038982,-0.3451312,0.3369493,-0.5647973,-3.510376,-0.6645828,0.3648163,1.438922,0.385457,0.06040457,-0.4522544,-0.2403778,-1.011499,0.3288372,-0.0804746,0.5116819,1.498225,0.2220192,0.02076859,1.169306,0.3700742,286.3645,272.3355,344.152,True
2,0.3444445,-1.367615,0.6258032,-0.4615904,-1.487125,1.53694,-2.513566,0.3313203,1.247382,0.4572999,-1.148552,0.09236123,11.64456,22.11271,0.3216266,-0.4528333,0.4004945,-0.554157,-3.515781,-0.6641815,0.3665686,1.440046,0.3854699,0.05265224,-0.5129602,-0.2776315,-1.015357,0.3192295,-0.07567851,0.5119435,1.498138,0.221328,0.01838582,1.175544,0.3724547,285.7041,272.4836,344.2532,True
2,0.3555556,-1.488174,0.6575197,-0.5381197,-1.485244,1.525302,-2.492186,0.330438,1.250175,0.4581783,-1.147495,0.0962381,11.51194,22.86265,0.3797087,-0.5806208,0.4381553,-0.5429621,-3.524508,-0.6628405,0.3684391,1.441374,0.3854744,0.07468185,-0.5640248,-0.3173311,-1.019642,0.3093487,-0.07204597,0.5121859,1.497976,0.2206066,0.01599234,1.182132,0.374519,285.0902,272.4427,344.3505,True
2,0.3666667,-1.530864,0.6553372,-0.5763827,-1.483351,1.514774,-2.472821,0.3297183,1.252919,0.4589667,-1.146604,0.08099438,11.37931,23.54832,0.4088468,-0.6402906,0.4729759,-0.5324942,-3.530554,-0.6630797,0.3701234,1.442625,0.3854525,0.1029532,-0.6001498,-0.3688031,-1.024807,0.2997205,-0.06921316,0.512473,1.497883,0.2199605,0.01356946,1.189301,0.3765528,284.4641,272.3138,344.4461,True
2,0.3777778,-1.575718,0.6434853,-0.6423399,-1.480304,1.503746,-2.452929,0.328863,1.255843,0.4599721,-1.145005,0.145668,11.24668,24.10542,0.4380307,-0.6882656,0.517413,-0.5212696,-3.535813,-0.664264,0.3719478,1.443933,0.385426,0.1312909,-0.6032662,-0.4085344,-1.030161,0.2913164,-0.06729888,0.5127698,1.497778,0.2191873,0.01097759,1.197236,0.3788621,283.6942,271.9029,344.8176,True
2,0.3888889,-1.616279,0.6391821,-0.6838115,-1.477705,1.492256,-2.432287,0.3282143,1.258943,0.4609716,-1.14702,-0.1855431,11.11406,24.44826,0.4681995,-0.7319548,0.5522614,-0.509492,-3.542055,-0.665112,0.3736592,1.445289,0.3854485,0.1458536,-0.6032064,-0.4406478,-1.035572,0.283206,-0.06527781,0.5130283,1.497674,0.2184958,0.008254177,1.206061,0.3817343,282.7206,271.0956,345.7049,True
2,0.4,-1.680276,0.6422575,-0.7241772,-1.475325,1.480455,-2.410037,0.3273752,1.262293,0.4622462,-1.146757,0.02560338,10.98143,24.61967,0.5028335,-0.809769,0.6061736,-0.4954801,-3.550194,-0.6647756,0.3754365,1.446634,0.3855202,0.1431903,-0.6266038,-0.4939092,-1.042495,0.2736319,-0.06197362,0.5133578,1.497532,0.217854,0.005797374,1.215635,0.3852492,281.3842,270.3053,346.824,True
2,0.4111111,-1.743207,0.6506912,-0.7709475,-1.473001,1.467948,-2.387399,0.3265405,1.265561,0.4637146,-1.145702,0.09572369,10.82228,24.61967,0.5168763,-0.8460051,0.6219651,-0.483221,-3.558333,-0.6639066,0.3773659,1.4481,0.3855376,0.1077403,-0.6735042,-0.5287172,-1.048898,0.2628232,-0.05656368,0.5137831,1.497506,0.21734,0.003638156,1.22569,0.3894013,279.8506,269.42,348.2304,True
2,0.4222222,-1.793355,0.6410944,-0.8156,-1.46992,1.455245,-2.364386,0.326005,1.269151,0.4652753,-1.143609,0.1900859,10.71618,24.49111,0.5117111,-0.8301097,0.6518691,-0.4713896,-3.562036,-0.6660649,0.3791997,1.449505,0.3854644,0.08309329,-0.6841785,-0.5433728,-1.054876,0.2535188,-0.05213058,0.5142121,1.497499,0.2167456,0.001757599,1.236019,0.3941225,278.3225,268.5192,349.7985,True
2,0.4333333,-1.820072,0.6463461,-0.8581693,-1.467397,1.442282,-2.341952,0.3251566,1.272824,0.4669261,-1.142481,0.1008328,10.66313,24.23399,0.5248474,-0.7993352,0.7147036,-0.4587556,-3.562011,-0.6722364,0.3808842,1.450859,0.3853958,0.05549181,-0.6885039,-0.5345505,-1.06009,0.2442606,-0.04727856,0.5145661,1.497222,0.2160361,-8.333707E-05,1.246543,0.39933,276.8895,267.2365,351.8285,True
2,0.4444444,-1.837149,0.6431191,-0.8869056,-1.465191,1.429682,-2.319923,0.3243691,1.276267,0.4686022,-1.141246,0.1113403,10.6366,23.86972,0.5315226,-0.7717435,0.765861,-0.4459602,-3.561038,-0.6792318,0.3826793,1.452242,0.385268,0.03948683,-0.688525,-0.5365064,-1.065717,0.2353171,-0.04285772,0.5149544,1.497093,0.215507,-0.001819378,1.257166,0.4049284,275.5135,264.9097,354.9594,True
2,0.4555556,-1.859585,0.6409252,-0.9230819,-1.46263,1.416435,-2.297141,0.3235897,1.28008,0.4705153,-1.140699,0.04802859,10.6366,23.46261,0.5287644,-0.7378354,0.8415984,-0.4323471,-3.556194,-0.6892769,0.3843418,1.453602,0.3851309,0.01693106,-0.6938856,-0.5533087,-1.072102,0.2260105,-0.03778546,0.5152918,1.496902,0.2150881,-0.003327044,1.267828,0.4107902,274.2425,260.4935,0.2284897,True
2,0.4666667,-1.896967,0.6333507,-0.9623919,-1.460383,1.403113,-2.273301,0.3230924,1.283861,0.4726677,-1.13973,0.08709791,10.71618,23.07692,0.5395911,-0.715524,0.875674,-0.4193925,-3.552696,-0.6987525,0.386099,1.45511,0.3849995,0.009457886,-0.6949552,-0.5553593,-1.077994,0.2170949,-0.0334754,0.515565,1.496698,0.2146277,-0.004701824,1.27847,0.4167908,272.9958,252.3198,9.293704,True
2,0.4777778,-1.937467,0.6183697,-0.9814754,-1.457987,1.390149,-2.249018,0.3225165,1.287991,0.4747152,-1.137426,0.2085764,10.79576,22.73409,0.5518763,-0.6954756,0.9661833,-0.4044425,-3.544063,-0.713157,0.3877224,1.456833,0.3850605,-0.002262831,-0.6811305,-0.5530891,-1.083774,0.2088896,-0.02916135,0.5157813,1.496554,0.2145746,-0.005876637,1.28894,0.4227725,271.8802,233.623,28.87294,True
2,0.4888889,-1.959808,0.6012846,-0.9867521,-1.456016,1.377778,-2.225456,0.3220318,1.292154,0.4766214,-1.134499,0.2643561,10.90185,22.39126,0.5510097,-0.6934217,0.9981599,-0.3902719,-3.538358,-0.7243745,0.3895074,1.458463,0.3850222,-0.003371537,-0.6598291,-0.5541233,-1.089756,0.2012046,-0.02558685,0.5159498,1.496329,0.2143762,-0.006896124,1.299219,0.428677,271.4312,193.0953,70.16264,True
2,0.5,-1.967251,0.5820782,-0.9770976,-1.454629,1.365891,-2.202067,0.3218301,1.296566,0.4786854,-1.132043,0.2210231,11.00796,22.027,0.552315,-0.73183,1.021494,-0.375086,-3.535913,-0.7327384,0.3913771,1.46018,0.3851449,0.009276271,-0.6235811,-0.5606247,-1.096057,0.1946841,-0.02314979,0.5161607,1.496207,0.2142556,-0.007703072,1.309393,0.434501,271.8354,158.1944,105.7376,True
2,0.5111111,-1.940607,0.5565311,-0.9867082,-1.452356,1.353606,-2.179915,0.3214257,1.30092,0.4807365,-1.130689,0.1204952,11.11406,21.66274,0.6061178,-0.8447273,1.063486,-0.3564673,-3.538405,-0.7390248,0.3934296,1.461776,0.3850994,0.035716,-0.5819781,-0.5715317,-1.102594,0.1887463,-0.02179025,0.5165833,1.496097,0.214046,-0.008353269,1.319667,0.4401901,272.5484,142.1458,122.4995,True
2,0.5222223,-1.907624,0.5458598,-1.019785,-1.449954,1.340071,-2.15833,0.3211534,1.305206,0.4827323,-1.128762,0.1737008,11.14058,21.2342,0.6639984,-0.946921,1.084166,-0.3376952,-3.543264,-0.7437849,0.395264,1.463299,0.3851125,0.06643456,-0.5851029,-0.5878585,-1.109574,0.1811685,-0.02012897,0.5168611,1.496025,0.2138636,-0.008692409,1.330122,0.4456264,273.3746,133.0865,132.2822,True
2,0.5333334,-1.895932,0.5490569,-1.031529,-1.448693,1.326856,-2.136433,0.320793,1.309209,0.4847243,-1.127744,0.08992437,11.14058,20.78423,0.6653214,-0.986388,1.109639,-0.3201274,-3.543068,-0.7511254,0.3969626,1.464772,0.3851056,0.06525695,-0.6127971,-0.6017149,-1.11647,0.1723818,-0.01675581,0.5171425,1.495852,0.21364,-0.008665134,1.340809,0.4507509,274.3406,127.3046,138.7109,True
2,0.5444446,-1.888517,0.5692783,-1.044353,-1.448315,1.31303,-2.114416,0.3206629,1.31318,0.4866724,-1.126075,0.1499568,11.11406,20.26998,0.6461736,-0.9704609,1.119412,-0.3039753,-3.538468,-0.7618151,0.3985018,1.466259,0.3851557,0.03227192,-0.6618519,-0.6056566,-1.123108,0.162359,-0.01154161,0.5173906,1.495648,0.2135501,-0.008385669,1.351651,0.4556069,275.5872,123.6939,142.8674,True
2,0.5555557,-1.875769,0.5820657,-1.055043,-1.4481,1.299181,-2.092615,0.3205128,1.317243,0.4886935,-1.123109,0.2678446,11.06101,19.75573,0.6375589,-0.9225445,1.122783,-0.2894222,-3.529396,-0.7770915,0.4000391,1.4676,0.3850446,-0.02413863,-0.68646,-0.6050615,-1.129628,0.1530688,-0.005329518,0.5175651,1.495384,0.213557,-0.007886368,1.362452,0.4603476,277.0159,121.401,145.599,True
2,0.5666668,-1.857648,0.5650262,-1.061465,-1.447047,1.285753,-2.070894,0.3206261,1.32158,0.4906223,-1.120251,0.2572071,10.98143,19.24148,0.6384804,-0.8224434,1.13687,-0.2759674,-3.509986,-0.802799,0.4016091,1.468885,0.384994,-0.06912881,-0.6460512,-0.6205149,-1.137073,0.1466129,-0.0003467436,0.5177451,1.495217,0.2136149,-0.00725036,1.373049,0.4651235,278.4174,119.4962,147.9249,True
2,0.577778,-1.823512,0.5437528,-1.047652,-1.446486,1.273239,-2.050078,0.3205933,1.325825,0.492624,-1.117651,0.2336204,10.95491,18.72723,0.6497415,-0.8428438,1.221987,-0.2573535,-3.49124,-0.8284341,0.4028907,1.470087,0.3850179,-0.06033456,-0.6023819,-0.5896878,-1.142758,0.1407971,0.002307895,0.5179154,1.495034,0.2137184,-0.00647907,1.383363,0.4700457,279.6675,118.2764,149.6207,True
2,0.5888891,-1.801102,0.5267457,-1.038088,-1.446141,1.260643,-2.029076,0.3203457,1.329977,0.4947553,-1.114854,0.2517676,10.98143,18.17013,0.6405049,-0.8451096,1.271049,-0.2395716,-3.469499,-0.8563957,0.4042235,1.471349,0.3851492,-0.04297918,-0.5778811,-0.5579,-1.14797,0.1344731,0.004720985,0.5179714,1.49485,0.213891,-0.005597577,1.393407,0.4751693,280.7422,117.776,150.7033,True
2,0.6000003,-1.776525,0.4937988,-1.016799,-1.445761,1.24862,-2.00846,0.3200795,1.333824,0.4959259,-1.11274,0.1889851,11.03448,17.61303,0.5823185,-0.7673119,1.200252,-0.2276294,-3.449195,-0.8808517,0.4051136,1.47269,0.3853812,-0.03000528,-0.5491053,-0.5356464,-1.153301,0.1288146,0.006898386,0.5179082,1.494742,0.214391,-0.004542584,1.403234,0.4804276,281.6749,117.7792,151.4037,True
2,0.6111114,-1.756193,0.4650874,-0.9848557,-1.445534,1.237604,-1.988071,0.3197195,1.337567,0.4979088,-1.109686,0.2756611,11.16711,17.0345,0.5424981,-0.7491676,1.148365,-0.2144984,-3.432148,-0.9022902,0.406117,1.474042,0.385668,-0.03722489,-0.512921,-0.5078396,-1.15802,0.1240018,0.00952666,0.5178957,1.494549,0.2147286,-0.003401419,1.412912,0.4857361,282.6187,117.6357,152.3017,True
2,0.6222225,-1.718816,0.4491678,-0.9348242,-1.446172,1.227656,-1.968742,0.319629,1.341499,0.5000226,-1.106967,0.2441414,11.29973,16.52025,0.4932767,-0.7194084,1.127471,-0.201401,-3.407039,-0.9308028,0.407066,1.475405,0.3859506,-0.02289128,-0.4117501,-0.4461227,-1.160856,0.1227748,0.009767676,0.5178444,1.494362,0.2152362,-0.002267888,1.42246,0.4909896,283.5971,117.2122,153.5783,True
2,0.6333337,-1.66548,0.4375302,-0.9008363,-1.446807,1.217538,-1.950612,0.3192286,1.345313,0.5017889,-1.104065,0.2612665,11.40584,16.04885,0.4699344,-0.7077833,1.145768,-0.1874493,-3.373056,-0.9686497,0.407859,1.476716,0.386204,-0.0505783,-0.3862484,-0.4394017,-1.165649,0.1188496,0.01292645,0.5178082,1.494212,0.2156324,-0.001059173,1.431756,0.4959104,284.6087,116.7792,154.9359,True
2,0.6444448,-1.623892,0.4194789,-0.8870426,-1.447126,1.207209,-1.932614,0.319039,1.349059,0.5037992,-1.101915,0.1923045,11.48541,15.62031,0.4393355,-0.7281941,1.187489,-0.1719113,-3.33132,-1.013474,0.4085387,1.477859,0.3864927,-0.08672184,-0.387395,-0.4336834,-1.170421,0.1140169,0.01690628,0.5178725,1.493977,0.2161222,0.0001646061,1.440791,0.5004242,285.5727,116.5732,155.8024,True
2,0.655556,-1.569528,0.3864731,-0.8860378,-1.446581,1.197129,-1.915996,0.3187735,1.352588,0.5056343,-1.100054,0.1663752,11.53846,15.25605,0.4005804,-0.7217712,1.130226,-0.1599654,-3.302666,-1.044903,0.4088551,1.478801,0.3868277,-0.1323535,-0.4056149,-0.4193373,-1.17457,0.1084538,0.02207281,0.5178546,1.493724,0.216778,0.001425028,1.449596,0.5045276,286.447,116.4277,156.428,True
2,0.6666671,-1.52473,0.3247344,-0.8966972,-1.444764,1.186966,-1.899364,0.3181978,1.35621,0.5077677,-1.097057,0.2703287,11.51194,14.95607,0.3510905,-0.6472244,1.087056,-0.1509245,-3.259045,-1.090123,0.4089258,1.479984,0.3873391,-0.1910566,-0.417439,-0.4293477,-1.179706,0.103163,0.02820953,0.5177486,1.493498,0.2175562,0.00263953,1.458161,0.5082721,287.3615,116.4759,156.7931,True
2,0.6777782,-1.487373,0.2608583,-0.9020252,-1.44218,1.177242,-1.883145,0.3176105,1.35992,0.5099518,-1.09518,0.1670918,11.45889,14.78466,0.3098878,-0.5314018,1.176022,-0.1422282,-3.166283,-1.183895,0.4089343,1.480902,0.387964,-0.2350781,-0.3599693,-0.4511994,-1.185456,0.1011529,0.03289963,0.5176338,1.493327,0.2184758,0.003863316,1.466414,0.5117718,288.2937,116.8024,156.7934,True
2,0.6888894,-1.431799,0.173623,-0.8722245,-1.438532,1.169342,-1.868226,0.3169955,1.363665,0.5122142,-1.092158,0.272899,11.43236,14.69895,0.2849712,-0.4301878,1.145533,-0.1367262,-3.089621,-1.262204,0.4090877,1.481909,0.3885334,-0.2533447,-0.3046025,-0.4562845,-1.190766,0.09972633,0.03684963,0.5175157,1.493167,0.2193756,0.005044718,1.474283,0.5151348,289.2825,117.301,156.6112,True
2,0.7000005,-1.394362,0.1161766,-0.8242749,-1.435971,1.162369,-1.852905,0.3165488,1.36729,0.5145655,-1.089443,0.2437619,11.40584,14.67752,0.2263291,-0.3245745,1.019398,-0.1345376,-3.043242,-1.308653,0.4092086,1.482863,0.3891332,-0.2117474,-0.2214534,-0.4385678,-1.194973,0.1000945,0.03747201,0.5174192,1.492987,0.2204585,0.00595134,1.481839,0.518522,290.2214,117.9986,156.2122,True
2,0.7111117,-1.382499,0.09067553,-0.7646114,-1.434492,1.15598,-1.836952,0.3159191,1.370807,0.5168834,-1.087567,0.1675019,11.45889,14.69895,0.2170854,-0.3523817,1.062011,-0.1267792,-2.950022,-1.403268,0.409121,1.483974,0.3898728,-0.149929,-0.1819402,-0.4285562,-1.199432,0.0992604,0.03746961,0.5171588,1.492883,0.2215924,0.006610456,1.489082,0.5219693,291.0107,118.7607,155.7846,True
2,0.7222228,-1.360025,0.07264695,-0.7134775,-1.433194,1.149768,-1.821534,0.3152235,1.374337,0.5191045,-1.084487,0.2786386,11.59151,14.7418,0.2065794,-0.4482698,1.054402,-0.1172265,-2.864735,-1.489968,0.4090171,1.485248,0.3906291,-0.1287339,-0.146736,-0.433033,-1.204544,0.09890341,0.03833407,0.5168844,1.492789,0.2228448,0.007157779,1.495948,0.5253682,291.655,119.4236,155.4955,True
2,0.7333339,-1.30988,0.04717064,-0.6901032,-1.431293,1.142921,-1.807521,0.3143575,1.377724,0.5213847,-1.081412,0.2773866,11.69761,14.78466,0.1865456,-0.518644,1.061829,-0.108869,-2.76065,-1.594927,0.408804,1.486404,0.3914573,-0.1661208,-0.09354463,-0.43258,-1.209316,0.09968065,0.04127181,0.5166001,1.492667,0.2241004,0.007674893,1.502521,0.5286315,292.1411,119.8884,155.3768,True
2,0.7444451,-1.267244,0.02697301,-0.6794612,-1.429347,1.136043,-1.793709,0.3135362,1.381277,0.5236504,-1.0799,0.1349175,11.75066,14.80608,0.2057256,-0.5111594,1.068111,-0.1045035,-2.641311,-1.716378,0.4084809,1.487521,0.3923502,-0.1949621,-0.06589189,-0.4354507,-1.214444,0.1000596,0.04423803,0.516425,1.49258,0.225338,0.008136446,1.509054,0.5317072,292.5439,120.2251,155.3671,True
2,0.7555562,-1.19366,-0.008065134,-0.662519,-1.426647,1.129542,-1.781864,0.3125172,1.384489,0.525965,-1.079741,0.01254592,11.77719,14.78466,0.2204061,-0.4801747,1.046782,-0.1026159,-2.528748,-1.831197,0.4079436,1.488533,0.3932741,-0.2462796,-0.04147691,-0.4476541,-1.219868,0.1005792,0.04850628,0.5160733,1.492474,0.2267323,0.008598952,1.5157,0.5345418,293.0312,120.6143,155.2815,True
2,0.7666674,-1.152049,-0.03676301,-0.6412318,-1.424032,1.12364,-1.76948,0.3114786,1.387839,0.5282207,-1.078528,0.1098631,11.67109,14.7418,0.2169697,-0.4417771,1.023456,-0.1025312,-2.418005,-1.943669,0.407145,1.489585,0.3943577,-0.2720017,-0.02339067,-0.4590845,-1.225447,0.1013627,0.05213084,0.5156628,1.492363,0.2281237,0.009111318,1.522433,0.5371667,293.7181,121.0973,155.0271,True
2,0.7777785,-1.093361,-0.0633021,-0.6104357,-1.421191,1.118332,-1.758482,0.3103317,1.390919,0.5303183,-1.078958,-0.04123508,11.53846,14.50611,0.1374053,-0.4001949,0.930333,-0.1023772,-2.339317,-2.020828,0.4062605,1.490597,0.3953261,-0.2985147,-2.288818E-05,-0.4438598,-1.229812,0.1024277,0.05597618,0.5150819,1.492455,0.2298965,0.009692254,1.529206,0.5396578,294.5207,121.5522,154.748,True
2,0.7888896,-1.03679,-0.09943494,-0.5742872,-1.417924,1.113587,-1.747829,0.309132,1.393694,0.532341,-1.077124,0.1672148,11.45889,14.07757,0.03223759,-0.3330994,0.8385081,-0.1038532,-2.277275,-2.079488,0.4052003,1.491345,0.3963912,-0.2880186,0.005249947,-0.3598093,-1.231042,0.1026123,0.05879807,0.5143244,1.492487,0.2317898,0.01034013,1.53579,0.542061,295.461,121.8668,154.6178,True
2,0.8000008,-1.009037,-0.1281584,-0.5508149,-1.414797,1.108767,-1.736434,0.3078528,1.396626,0.5344982,-1.077031,0.006130663,11.37931,13.45618,-0.04451495,-0.2523563,0.8615796,-0.1089084,-2.190137,-2.163295,0.4040496,1.492246,0.3975613,-0.2705306,0.04148221,-0.3141685,-1.233195,0.1045684,0.06056188,0.5137101,1.492451,0.2335699,0.01091601,1.54213,0.5443946,296.3198,122.0739,154.6466,True
2,0.8111119,-0.9929904,-0.1430406,-0.5284641,-1.411978,1.104073,-1.725329,0.3066726,1.399341,0.5367162,-1.076222,0.07330106,11.35279,12.68481,-0.06785434,-0.1789921,0.8991879,-0.1156941,-2.111605,-2.240005,0.4030015,1.493193,0.3986995,-0.2606809,0.07236484,-0.2854895,-1.235384,0.1064951,0.06246471,0.5130603,1.492428,0.2352276,0.01140127,1.548035,0.5465817,297.1486,122.2444,154.7771,True
2,0.8222231,-0.963061,-0.1557389,-0.4837606,-1.409357,1.100502,-1.715073,0.3053029,1.402172,0.5388741,-1.07442,0.1633467,11.43236,11.78487,-0.07751411,-0.1023566,0.9164782,-0.123527,-2.050526,-2.299416,0.4020191,1.494335,0.3998146,-0.2767219,0.1266837,-0.28207,-1.238148,0.1102205,0.06480669,0.5122625,1.492465,0.237102,0.01168006,1.553412,0.548573,297.8965,122.4791,154.8094,True
2,0.8333342,-0.9330733,-0.1876148,-0.4219896,-1.405851,1.098331,-1.705196,0.3039393,1.404852,0.5409129,-1.073678,0.06587629,11.56498,10.86351,-0.06678125,-0.09703642,0.9292006,-0.1300709,-1.984169,-2.364918,0.4010435,1.495204,0.4009867,-0.2906606,0.1756645,-0.2818834,-1.241176,0.1140483,0.06728317,0.5115185,1.492473,0.2390783,0.01160516,1.558437,0.5504199,298.464,122.8871,154.5349,True
2,0.8444453,-0.9095406,-0.1992623,-0.3836754,-1.402899,1.0956,-1.695394,0.3026327,1.407616,0.5429726,-1.073571,0.00888781,11.67109,9.942146,-0.04995829,-0.1352494,0.8895814,-0.134422,-1.924588,-2.423852,0.4000928,1.495937,0.4020855,-0.2821421,0.1905921,-0.2798342,-1.244041,0.1170482,0.06917801,0.5107845,1.492481,0.2409794,0.01128027,1.563192,0.5521668,298.8915,123.3601,154.0957,True
2,0.8555565,-0.8892164,-0.1970672,-0.3411073,-1.40052,1.09346,-1.685787,0.3011403,1.41011,0.5449266,-1.073049,0.04717502,11.72414,9.063636,-0.05728215,-0.1821562,0.898048,-0.1401403,-1.856588,-2.490185,0.3989896,1.496576,0.403326,-0.2471821,0.1885379,-0.2983301,-1.247841,0.1193458,0.0699663,0.5099776,1.492506,0.2428901,0.01076379,1.567786,0.5537989,299.244,123.7255,153.7831,True
2,0.8666676,-0.8699847,-0.2023632,-0.318741,-1.397876,1.091086,-1.676406,0.2994983,1.412535,0.5469165,-1.072535,0.04618177,11.67109,8.356546,-0.05070722,-0.1854,0.9246302,-0.1480568,-1.797877,-2.547951,0.3978263,1.497212,0.4047327,-0.2175407,0.1790366,-0.317849,-1.252088,0.1215155,0.07061718,0.5091584,1.492497,0.2448032,0.01016626,1.572197,0.5551873,299.5737,124.0423,153.5522,True
2,0.8777788,-0.8464985,-0.2087004,-0.2931972,-1.39509,1.088877,-1.667236,0.2978409,1.414747,0.5487885,-1.072024,0.04599351,11.61804,8.056565,-0.06814811,-0.1661373,0.8715194,-0.1538721,-1.763936,-2.580149,0.396674,1.49793,0.4061551,-0.1909603,0.1748255,-0.3234691,-1.255641,0.1236624,0.07119269,0.5082524,1.492346,0.2467811,0.009523271,1.576529,0.5563275,299.926,124.3904,153.22,True
2,0.8888899,-0.8155456,-0.1926395,-0.2527914,-1.393335,1.087501,-1.658886,0.2961638,1.416784,0.5506623,-1.071734,0.02572014,11.61804,8.206554,-0.09552759,-0.1457086,0.7684112,-0.1574626,-1.74324,-2.59839,0.3954577,1.498794,0.4076505,-0.2255528,0.1757845,-0.2708836,-1.256746,0.1257967,0.07421803,0.5073482,1.492237,0.2488341,0.008874118,1.580825,0.5572551,300.3654,124.6479,152.9135,True
2,0.900001,-0.787825,-0.1702109,-0.22194,-1.392128,1.086314,-1.650743,0.2946622,1.41898,0.5525014,-1.071432,0.02713635,11.61804,8.806512,-0.09693578,-0.2052123,0.7001007,-0.1601982,-1.700874,-2.63916,0.3941463,1.499473,0.408989,-0.2530818,0.2055579,-0.2513899,-1.258827,0.1294232,0.07663698,0.5065107,1.492204,0.2507167,0.008220023,1.585086,0.5580361,300.908,124.874,152.6098,True
2,0.9111122,-0.7430308,-0.1477378,-0.1815778,-1.391136,1.085657,-1.643757,0.292887,1.420739,0.5542819,-1.071636,-0.0191533,11.72414,9.792157,-0.1240098,-0.2413175,0.622419,-0.1621567,-1.666671,-2.670639,0.3927421,1.500038,0.4104884,-0.2670568,0.2151359,-0.2629586,-1.262077,0.1325186,0.0789068,0.5057327,1.492173,0.252516,0.007617679,1.589218,0.558708,301.4874,125.0334,152.3612,True
2,0.9222233,-0.7045846,-0.177501,-0.1581717,-1.388068,1.084975,-1.637069,0.2910344,1.422466,0.5560894,-1.0714,0.02138044,11.96286,11.05635,-0.14665,-0.2093198,0.5875059,-0.1667128,-1.643947,-2.69088,0.3913953,1.500734,0.4120119,-0.2693965,0.2257988,-0.2810357,-1.265567,0.1357782,0.08092867,0.5048432,1.492069,0.254478,0.007076029,1.593184,0.559329,302.0169,125.0527,152.2148,True
2,0.9333345,-0.677981,-0.1274027,-0.1444064,-1.388381,1.083928,-1.630197,0.2890537,1.424062,0.5580356,-1.071984,-0.05393696,12.28117,12.38483,-0.1777722,-0.173125,0.5654168,-0.1714293,-1.625865,-2.70576,0.3898023,1.501385,0.4135196,-0.252441,0.2332893,-0.287604,-1.268726,0.1390656,0.08219127,0.5039412,1.492103,0.2568784,0.006571938,1.597022,0.5599618,302.4956,125.0185,152.1354,True
2,0.9444456,-0.653459,-0.1198936,-0.1295518,-1.387233,1.083036,-1.623543,0.2871084,1.425572,0.5599134,-1.071885,0.009276108,12.67905,13.71331,-0.2315399,-0.1900978,0.4858184,-0.1729963,-1.604011,-2.722961,0.387762,1.50188,0.4151347,-0.2532368,0.2343305,-0.2630967,-1.270715,0.1419864,0.08414657,0.502981,1.492004,0.2589753,0.006060459,1.600608,0.560622,303.0721,124.9133,152.2078,True
2,0.9555568,-0.5969602,-0.1134015,-0.1073078,-1.385977,1.082659,-1.618712,0.2851299,1.426671,0.561662,-1.071282,0.05460705,13.07692,14.95607,-0.2509156,-0.1890022,0.4571805,-0.1759119,-1.583265,-2.73993,0.3861006,1.502502,0.4168456,-0.2744949,0.2385362,-0.2553901,-1.272938,0.1451009,0.08722332,0.5020486,1.491816,0.261483,0.005369449,1.60389,0.561318,303.6731,124.8856,152.2014,True
2,0.9666679,-0.5212913,-0.0983641,-0.07975844,-1.38537,1.082896,-1.615272,0.2830618,1.427821,0.5634391,-1.07099,0.02600087,13.39523,15.87744,-0.2509394,-0.1453666,0.4732379,-0.1811503,-1.56974,-2.750237,0.3842389,1.50306,0.4184232,-0.3276804,0.2629283,-0.2441442,-1.275078,0.149221,0.09147,0.5010107,1.491776,0.2636771,0.00440356,1.606982,0.5621989,304.1455,124.8072,152.1427,True
2,0.977779,-0.3943923,-0.127986,-0.04588646,-1.382963,1.083858,-1.615286,0.2811275,1.428908,0.5651474,-1.07227,-0.1174736,13.60743,16.47739,-0.2499945,-0.1123273,0.4647839,-0.1857065,-1.558675,-2.758439,0.3824273,1.503442,0.4200299,-0.3657226,0.2905253,-0.2106832,-1.276027,0.1535729,0.09545648,0.4998638,1.491863,0.266053,0.003277659,1.60977,0.5632547,304.5116,124.7851,152.1085,True
2,0.9888902,-0.3592876,-0.05972791,-0.02154253,-1.383951,1.084221,-1.612407,0.2792646,1.429393,0.5668645,-1.073177,-0.082273,13.76658,16.82023,-0.2957063,-0.06312506,0.3341546,-0.1850955,-1.563947,-2.748381,0.3804498,1.503938,0.4215305,-0.3496039,0.3192997,-0.1927222,-1.277143,0.1582904,0.09747463,0.4987653,1.49184,0.2678986,0.002076661,1.612069,0.5644084,304.8381,124.7272,152.1896,True
2,1.000001,-0.3006111,-0.08733785,-0.005630977,-1.381996,1.084993,-1.611106,0.2769842,1.430421,0.568491,-1.075882,-0.247263,13.87268,16.92736,-0.3141606,-0.05243075,0.2916579,-0.1865278,-1.556621,-2.751229,0.3788943,1.504477,0.4230361,-0.3251137,0.3342553,-0.1919186,-1.278934,0.1627623,0.09891699,0.4977418,1.491792,0.2699614,0.0007093232,1.613876,0.5656177,305.0751,124.6064,152.3534,True
2,1.011112,-0.2515885,-0.07446207,0.01235922,-1.381603,1.085836,-1.610189,0.2750182,1.430392,0.570358,-1.072612,0.3005178,13.97878,16.86308,-0.3434019,-0.04379958,0.2204942,-0.1864543,-1.554618,-2.748429,0.3766913,1.50471,0.4247041,-0.3017903,0.3428199,-0.1996177,-1.280937,0.1671544,0.1003982,0.4966111,1.491781,0.2718384,-0.0008375868,1.614947,0.5668198,305.3138,124.5118,152.4491,True
2,1.022224,-0.2014545,-0.08501831,0.03356965,-1.38021,1.086918,-1.609776,0.2727358,1.430821,0.572089,-1.073017,-0.04044279,14.08488,16.86308,-0.344584,0.04351076,0.2345473,-0.190465,-1.562324,-2.736702,0.3746681,1.505055,0.4264028,-0.3040526,0.3396273,-0.2123846,-1.283381,0.1711749,0.1027085,0.4954208,1.491719,0.2738454,-0.002735944,1.615555,0.5681158,305.317,124.4396,152.4454,True
2,1.033335,-0.1289046,-0.1019077,0.0728504,-1.378626,1.089129,-1.611117,0.2703691,1.431048,0.5737193,-1.07287,0.01365295,14.16445,16.86308,-0.3330727,0.05318995,0.2046661,-0.1920118,-1.563727,-2.732126,0.3727099,1.505341,0.4280298,-0.323867,0.3139921,-0.177029,-1.283919,0.1739557,0.106201,0.4941779,1.49175,0.2758551,-0.00505175,1.615894,0.5694539,305.2528,124.5603,152.2829,True
2,1.044446,-0.07239355,-0.08474231,0.1068047,-1.378306,1.091538,-1.612561,0.2679344,1.431361,0.5753009,-1.072697,0.01524142,14.19098,16.88451,-0.3227571,0.0075638,0.138431,-0.1907803,-1.557956,-2.734579,0.3704039,1.505516,0.4297435,-0.332853,0.2809084,-0.1279575,-1.283521,0.1759287,0.1095116,0.4930609,1.491745,0.2778759,-0.007511111,1.615755,0.5708184,305.1564,124.666,152.0682,True
2,1.055557,-0.04470158,-0.05804931,0.1237543,-1.378601,1.093344,-1.613184,0.2655309,1.431565,0.5767581,-1.0736,-0.08308043,14.19098,16.90593,-0.3258325,-0.0372325,0.1489623,-0.1917934,-1.543068,-2.745085,0.3683703,1.505879,0.4313865,-0.3225119,0.252106,-0.06310065,-1.281815,0.1775797,0.1122757,0.4917119,1.491965,0.2799983,-0.01024212,1.615421,0.5721929,304.9756,124.7655,151.9023,True
2,1.066668,-0.00533174,-0.007923834,0.1310913,-1.380259,1.095375,-1.614897,0.2629985,1.431803,0.5782146,-1.073115,0.04455432,14.11141,16.92736,-0.3452145,-0.07657352,0.1042429,-0.1906525,-1.532911,-2.750684,0.3661591,1.506215,0.4330254,-0.2954973,0.2670384,-0.02717304,-1.280713,0.1810089,0.1134094,0.4903975,1.492036,0.2819843,-0.01318735,1.614869,0.5734816,304.7562,124.7904,151.8219,True
2,1.077779,0.01700329,0.01234705,0.1288858,-1.381046,1.09662,-1.616005,0.2604991,1.431845,0.5796018,-1.071736,0.1250899,13.95225,16.92736,-0.3613716,-0.06802002,0.07880141,-0.190465,-1.53128,-2.747826,0.3638797,1.506642,0.434649,-0.2785002,0.2851747,-0.0284076,-1.28069,0.1848768,0.1148459,0.488872,1.492186,0.2839663,-0.01635145,1.614233,0.5746736,304.4625,124.7827,151.711,True
2,1.08889,0.04575808,0.04009669,0.1405182,-1.382461,1.098707,-1.617968,0.257861,1.431804,0.5810423,-1.072113,-0.03582107,13.76658,16.94879,-0.3691384,0.01511562,0.05775235,-0.1916704,-1.54696,-2.727978,0.3611615,1.506906,0.4363613,-0.2841173,0.2915765,-0.05390994,-1.281723,0.1885961,0.1170923,0.4875178,1.49234,0.2859781,-0.01962461,1.613647,0.5757981,304.1085,124.8366,151.4735,True
2,1.100002,0.07667066,0.07640452,0.1734323,-1.384621,1.101692,-1.620409,0.255282,1.431639,0.5823863,-1.071247,0.07921893,13.55437,17.0345,-0.37815,0.09193313,0.005810227,-0.1916549,-1.567664,-2.703191,0.3586852,1.50721,0.4379878,-0.2981801,0.2862397,-0.07400013,-1.282918,0.191824,0.1200742,0.4861262,1.492571,0.2880259,-0.02286462,1.613179,0.5769311,303.8213,124.843,151.2529,True
2,1.111113,0.1117961,0.1286849,0.1967281,-1.387848,1.104429,-1.623299,0.2526838,1.431283,0.5835178,-1.071405,-0.0154284,13.3687,17.18449,-0.3867308,0.1323872,0.009169139,-0.1931527,-1.580099,-2.686486,0.3563191,1.507618,0.4395165,-0.2949887,0.2798477,-0.07510421,-1.283342,0.1948334,0.1223765,0.4847681,1.492936,0.2900805,-0.02594048,1.612761,0.578113,303.6371,124.8324,151.0984,True
2,1.122224,0.1352144,0.1649628,0.2147461,-1.391064,1.10733,-1.62607,0.2501821,1.431265,0.5847409,-1.071331,0.006670202,13.2626,17.39876,-0.3965201,0.1164766,-0.02703164,-0.1920379,-1.586047,-2.675883,0.354021,1.507899,0.4411166,-0.2787987,0.261751,-0.05931978,-1.283212,0.1971263,0.1241837,0.4833984,1.493195,0.2920604,-0.02882278,1.61236,0.579362,303.5169,124.6168,151.1826,True
2,1.133335,0.1586185,0.1873738,0.2146686,-1.394051,1.109556,-1.629072,0.2476063,1.430911,0.585983,-1.071405,-0.007116823,13.23607,17.63445,-0.4208013,0.0844059,-0.003519837,-0.192538,-1.582698,-2.67383,0.3515959,1.508422,0.4426401,-0.2488407,0.2713809,-0.04578961,-1.282825,0.200611,0.1249132,0.4818278,1.493583,0.294039,-0.03151267,1.611895,0.5806448,303.3959,124.1714,151.5558,True
2,1.144446,0.1745715,0.1852463,0.1997293,-1.396097,1.111323,-1.631849,0.244929,1.430733,0.5872667,-1.070869,0.04877783,13.28912,17.8273,-0.4250625,0.09291452,-0.0002760738,-0.1933146,-1.589,-2.662715,0.349225,1.508841,0.4441714,-0.2412765,0.2905583,-0.03307817,-1.282377,0.2045915,0.1262149,0.4802282,1.493938,0.2959843,-0.03410355,1.611373,0.5819507,303.2585,123.6669,152.0216,True
2,1.155557,0.1990975,0.1650415,0.1965022,-1.397386,1.113321,-1.635237,0.2423197,1.430395,0.5886359,-1.070796,0.005958144,13.42175,18.02014,-0.4092529,0.1047239,-0.02378269,-0.1930717,-1.599064,-2.648915,0.346781,1.509173,0.4457791,-0.2122791,0.3150943,-0.006737944,-1.281024,0.2090327,0.1265119,0.4786057,1.494329,0.2979186,-0.03671248,1.61089,0.5832955,303.1047,123.246,152.3963,True
2,1.166668,0.2108843,0.1416324,0.2082288,-1.398295,1.116187,-1.638533,0.2396509,1.430127,0.5899808,-1.070321,0.0431708,13.63395,18.1487,-0.3912744,0.1101297,-0.04199193,-0.1928363,-1.607594,-2.636768,0.3442545,1.509462,0.4473763,-0.1822923,0.319406,0.00784211,-1.280109,0.21283,0.1263758,0.476889,1.494671,0.2997839,-0.03936565,1.610365,0.5847011,303.0311,122.9114,152.6895,True
2,1.17778,0.2119962,0.1278013,0.2199609,-1.399509,1.118971,-1.641371,0.2370418,1.429743,0.5913541,-1.070529,-0.01964025,13.84615,18.17013,-0.3808907,0.1177079,-0.08251929,-0.1915931,-1.620282,-2.620486,0.3417548,1.509742,0.4489877,-0.1554532,0.2874856,0.02137475,-1.279189,0.214859,0.1265974,0.4751408,1.495102,0.3016143,-0.04214618,1.609787,0.5861864,302.9746,122.6703,152.9017,True
2,1.188891,0.203551,0.08730855,0.2253541,-1.399221,1.1217,-1.64382,0.2343843,1.429413,0.592664,-1.070029,0.04572915,13.97878,18.04157,-0.3745938,0.1305406,-0.09531352,-0.1911894,-1.633472,-2.603759,0.339462,1.510005,0.4505684,-0.1561907,0.2491125,0.04478164,-1.277895,0.2161319,0.1280384,0.473501,1.49543,0.3034332,-0.04501718,1.608997,0.5877109,302.8915,122.4322,153.1237,True
2,1.200002,0.2025312,0.06280906,0.2285813,-1.399214,1.124332,-1.64648,0.2318419,1.429101,0.5939777,-1.069283,0.06764358,14.05836,17.76302,-0.3611832,0.1477728,-0.1592709,-0.1889081,-1.655038,-2.579201,0.336942,1.510374,0.4520774,-0.157854,0.2448149,0.08634061,-1.275321,0.218537,0.1291108,0.4716681,1.49579,0.3050408,-0.04803186,1.607986,0.5891946,302.7052,122.1623,153.3879,True
2,1.211113,0.2195965,0.03725336,0.2200531,-1.398874,1.126583,-1.649863,0.2293259,1.428745,0.5950599,-1.068662,0.05608105,14.03183,17.37733,-0.3452271,0.1488796,-0.1625694,-0.1880953,-1.668311,-2.562929,0.3342691,1.510647,0.4535182,-0.1370583,0.2426788,0.1372523,-1.271845,0.2208481,0.1293492,0.469837,1.496244,0.3066778,-0.05118048,1.606783,0.590565,302.4336,121.9612,153.5779,True
2,1.222224,0.240905,0.02235782,0.2104441,-1.398782,1.128776,-1.6536,0.2268881,1.428441,0.5962186,-1.068724,-0.006099121,13.92573,16.92736,-0.3301694,0.1445977,-0.1424319,-0.1883686,-1.676493,-2.551921,0.3317964,1.510935,0.4547989,-0.115629,0.2373882,0.1466107,-1.269584,0.223179,0.1290906,0.4680911,1.496569,0.3082511,-0.0544509,1.605464,0.591732,302.1139,121.9357,153.5745,True
2,1.233335,0.3070025,-0.0393522,0.1890658,-1.396427,1.130309,-1.659435,0.2246796,1.427983,0.5971904,-1.069415,-0.06315071,13.71353,16.43454,-0.3207362,0.1734118,-0.1573296,-0.1882913,-1.695394,-2.530159,0.3292896,1.511059,0.4559691,-0.07955129,0.2353325,0.1334328,-1.268297,0.2256952,0.1280437,0.4663089,1.496966,0.3096814,-0.05774808,1.604088,0.5926653,301.7769,121.9909,153.4188,True
2,1.244446,0.3304733,-0.07981464,0.1752228,-1.394384,1.132218,-1.664149,0.2224539,1.427711,0.5982034,-1.069693,-0.02501849,13.50132,15.94172,-0.323048,0.1841148,-0.1817864,-0.1872271,-1.714365,-2.507807,0.3269274,1.511203,0.4571853,-0.06034417,0.2044807,0.1310549,-1.266959,0.2268687,0.1277566,0.4645805,1.497209,0.3110681,-0.06099077,1.602661,0.5933784,301.492,122.0791,153.1727,True
2,1.255558,0.3464987,-0.1224122,0.1656497,-1.391817,1.133973,-1.66878,0.2203647,1.427211,0.5990553,-1.071659,-0.1798097,13.31565,15.44889,-0.309166,0.2043582,-0.1711711,-0.187894,-1.731825,-2.487804,0.3247388,1.511327,0.4582913,-0.05078789,0.1778659,0.1245424,-1.265582,0.2277501,0.1279015,0.4627884,1.497637,0.3124666,-0.06411377,1.601157,0.5939391,301.2739,122.193,152.8676,True
2,1.266669,0.3369477,-0.1330733,0.1731442,-1.390252,1.136437,-1.672625,0.2182288,1.426782,0.5998731,-1.070343,0.1216046,13.1565,14.9775,-0.2866164,0.157487,-0.1575884,-0.1868729,-1.736453,-2.480759,0.3224888,1.51145,0.4593227,-0.01995194,0.1576878,0.1156558,-1.264644,0.2287247,0.1267358,0.4609969,1.49798,0.3136508,-0.06706602,1.599355,0.5943875,301.1866,122.4148,152.4777,True
2,1.27778,0.3412537,-0.1490322,0.181675,-1.388408,1.138982,-1.677073,0.2160815,1.426348,0.6007311,-1.069792,0.04894069,13.10345,14.59181,-0.2802013,0.1511064,-0.1565799,-0.1863744,-1.748372,-2.466132,0.3202639,1.511609,0.4604483,0.0004603565,0.1332177,0.1271429,-1.262576,0.2292887,0.1258895,0.4590994,1.498437,0.314882,-0.07003015,1.597379,0.5948162,301.0249,122.6323,152.0852,True
2,1.288891,0.3540889,-0.1820345,0.1838221,-1.385497,1.141583,-1.681942,0.2138142,1.426048,0.6015086,-1.068629,0.1058593,13.0504,14.33469,-0.2557794,0.1692792,-0.1630881,-0.1862562,-1.766574,-2.446111,0.3181224,1.511753,0.4613817,0.002912998,0.1353298,0.1569478,-1.259649,0.2305785,0.1253595,0.4573276,1.498854,0.3159351,-0.07301307,1.595248,0.5952342,300.7733,122.8609,151.7105,True
2,1.300002,0.3519594,-0.2022885,0.1721365,-1.382795,1.143491,-1.686135,0.2117092,1.425645,0.6022124,-1.068959,-0.03113412,12.97082,14.22755,-0.23774,0.1714595,-0.1728031,-0.1855025,-1.782529,-2.42828,0.3159171,1.511772,0.4622641,0.002023816,0.1321193,0.1729387,-1.256945,0.2317344,0.1251094,0.4555435,1.499354,0.3170764,-0.07607813,1.593158,0.5956445,300.4042,123.0463,151.3851,True
2,1.311113,0.3423214,-0.1703401,0.172116,-1.382305,1.145521,-1.69005,0.209722,1.425093,0.6028693,-1.069295,-0.03041951,12.89124,14.29184,-0.2440754,0.1863259,-0.1599395,-0.186148,-1.797873,-2.410282,0.3138448,1.511959,0.4630394,0.008647129,0.1033651,0.1888298,-1.254185,0.2316359,0.124722,0.4537134,1.49971,0.3179674,-0.0791956,1.591158,0.5960146,300.0604,123.2556,151.0662,True
2,1.322224,0.3369593,-0.1330542,0.1806032,-1.382318,1.147858,-1.694131,0.2077978,1.424604,0.6034169,-1.068646,0.05953795,12.75862,14.48468,-0.238725,0.1916304,-0.1525064,-0.1865464,-1.811649,-2.394076,0.3118695,1.51214,0.4636981,0.03528841,0.07997398,0.1853278,-1.252293,0.2314223,0.1234474,0.4519715,1.500174,0.3187201,-0.08235244,1.589209,0.5962964,299.7914,123.5397,150.6931,True
2,1.333336,0.3337498,-0.1149358,0.1869772,-1.381894,1.150271,-1.698245,0.2059578,1.424019,0.6038761,-1.068178,0.04216747,12.51989,14.76323,-0.2399504,0.1746648,-0.1834352,-0.1852047,-1.82845,-2.374897,0.3098644,1.512118,0.4645028,0.04078229,0.07571086,0.2001823,-1.249438,0.2318206,0.1227701,0.4502462,1.50059,0.3196449,-0.08543372,1.587247,0.596501,299.5186,123.8609,150.2101,True
2,1.344447,0.3241332,-0.1021723,0.1837871,-1.381387,1.152309,-1.701851,0.2041026,1.423616,0.6043394,-1.068202,-0.002560139,12.28117,15.10606,-0.2452827,0.1852748,-0.1791209,-0.1851973,-1.844055,-2.356459,0.3079408,1.512081,0.4651678,0.01969294,0.06713855,0.2185086,-1.24649,0.2319383,0.1232199,0.4485714,1.500931,0.3203833,-0.08833095,1.585336,0.5967108,299.1787,124.0213,149.8161,True
2,1.355558,0.3123741,-0.09581202,0.168891,-1.380777,1.153761,-1.705206,0.2023614,1.423213,0.6047273,-1.068202,-1.347294E-05,12.12201,15.42747,-0.2334867,0.2321032,-0.1524329,-0.1878828,-1.862343,-2.336457,0.3061753,1.512034,0.4657631,0.008082509,0.06923889,0.2292946,-1.243474,0.2324191,0.123491,0.4469076,1.501359,0.3211908,-0.09098746,1.58353,0.596953,298.8391,124.058,149.6083,True
2,1.366669,0.2995844,-0.1043581,0.1561565,-1.379705,1.155456,-1.70853,0.2007002,1.422982,0.6050858,-1.067756,0.04085245,12.01592,15.7703,-0.2259524,0.2107842,-0.1472146,-0.187723,-1.873283,-2.323433,0.3046018,1.512197,0.4662731,0.04146083,0.06288499,0.2598191,-1.239534,0.2324981,0.1218228,0.4455145,1.501633,0.321749,-0.09341044,1.581828,0.597197,298.5756,124.0869,149.5025,True
2,1.37778,0.2889365,-0.1075709,0.156184,-1.378649,1.157378,-1.711741,0.1990058,1.422679,0.6054993,-1.067582,0.01556542,12.06897,16.006,-0.2130462,0.1745715,-0.1399345,-0.1873337,-1.880855,-2.314064,0.3029274,1.512302,0.4668481,0.07129443,0.03950415,0.2562856,-1.236852,0.2317577,0.1202886,0.4438297,1.501886,0.3224115,-0.09481374,1.581129,0.5972604,298.7823,123.721,149.8351,True
2,1.388891,0.2793539,-0.1182485,0.1487639,-1.377194,1.159097,-1.714937,0.1973982,1.422358,0.6057465,-1.06754,0.003794517,12.17507,16.15599,-0.1692071,0.1117952,-0.1361314,-0.1854572,-1.883047,-2.311664,0.3011744,1.512253,0.4672971,0.1018654,-0.001958594,0.2196976,-1.235822,0.2300534,0.1186294,0.4423499,1.502157,0.3229756,-0.09614912,1.580731,0.5973074,299.0578,123.4137,150.1057,True
2,1.400002,0.259029,-0.1044672,0.1200281,-1.376513,1.159562,-1.717266,0.1960319,1.422095,0.6059818,-1.067436,0.009481564,12.22811,16.22027,-0.1509074,0.09044403,-0.1086063,-0.1854822,-1.885322,-2.307867,0.2996938,1.512308,0.4676585,0.1139511,-0.004014455,0.1556376,-1.23628,0.2301537,0.117039,0.440989,1.502516,0.3234811,-0.09749423,1.58043,0.5973304,299.322,123.2071,150.2905,True
2,1.411114,0.248345,-0.09170336,0.1147097,-1.376128,1.1608,-1.719942,0.1945259,1.421741,0.6062486,-1.067511,-0.006866048,12.28117,16.19884,-0.1549762,0.0892975,-0.07981797,-0.18636,-1.888563,-2.302892,0.2981131,1.512293,0.4680035,0.09325882,0.001305133,0.1153844,-1.236389,0.2303748,0.1166478,0.4395452,1.502821,0.3240032,-0.09884365,1.580125,0.5973178,299.6076,123.0637,150.4536,True
2,1.422225,0.2142171,-0.07365485,0.1105028,-1.376022,1.161959,-1.721407,0.1930669,1.42144,0.6065357,-1.066973,0.04932982,12.28117,16.13456,-0.1659943,0.1309151,-0.1201319,-0.1864138,-1.909632,-2.279679,0.2965003,1.512263,0.4683988,0.06849429,0.01938644,0.09436604,-1.235798,0.2312579,0.1165311,0.4380729,1.503141,0.3244028,-0.100079,1.579801,0.5972472,299.926,123.0431,150.5325,True
2,1.433336,0.1758193,-0.05455211,0.103107,-1.376077,1.162912,-1.722367,0.1916912,1.421135,0.6067677,-1.067212,-0.02219012,12.12201,16.04885,-0.1554151,0.1714175,-0.119025,-0.188131,-1.926199,-2.262108,0.2948942,1.512363,0.4687858,0.05487353,0.01721102,0.1158249,-1.23364,0.2310226,0.1165586,0.4366221,1.503417,0.3248336,-0.1011836,1.579519,0.5972052,300.2159,123.0607,150.5301,True
2,1.444447,0.156597,-0.03328222,0.09886713,-1.376541,1.163912,-1.723646,0.1903174,1.420958,0.6070399,-1.066188,0.093931,11.90981,15.94172,-0.1351939,0.1693153,-0.1181024,-0.188522,-1.937415,-2.249878,0.2933464,1.512417,0.4691994,0.06395234,0.0203953,0.1668659,-1.229998,0.2310768,0.1154752,0.4351552,1.503676,0.3252196,-0.1022864,1.579274,0.5972856,300.5023,123.0985,150.5053,True
2,1.455558,0.1373961,-0.008805286,0.1041995,-1.377417,1.165081,-1.724859,0.1890665,1.420713,0.6071887,-1.065808,0.03405822,11.67109,15.83458,-0.1094666,0.1352497,-0.1055694,-0.1883622,-1.941418,-2.24564,0.2921014,1.512565,0.4695904,0.07166041,0.0150627,0.1891535,-1.227114,0.2306432,0.114583,0.4337355,1.503999,0.3256612,-0.1024455,1.579222,0.5972136,300.612,123.325,150.398,True
2,1.466669,0.1299063,0.002890177,0.09675011,-1.377935,1.165949,-1.726282,0.1878968,1.420558,0.6073878,-1.06633,-0.04779405,11.48541,15.72745,-0.07933223,0.07236721,-0.07504785,-0.1871702,-1.936571,-2.250143,0.2909721,1.512747,0.4698439,0.09732306,-0.005122468,0.1941855,-1.224821,0.2297883,0.1129122,0.4325525,1.504333,0.3258698,-0.1023989,1.579186,0.5971917,300.7758,123.2926,150.5809,True
2,1.47778,0.1266547,0.003920097,0.07650832,-1.377917,1.166,-1.727484,0.1867833,1.420494,0.6074588,-1.066513,-0.01614615,11.43236,15.59888,-0.05674821,0.03826868,-0.05396467,-0.1868122,-1.933257,-2.253552,0.2898712,1.512892,0.470001,0.1174072,-0.01786094,0.1779791,-1.223512,0.2289036,0.1113137,0.43133,1.504642,0.3261075,-0.1021469,1.579118,0.5972285,301.1045,122.8076,151.0071,True
2,1.488891,0.1287351,0.002817137,0.05412101,-1.377686,1.165735,-1.728925,0.185809,1.420425,0.6075475,-1.066973,-0.04181122,11.48541,15.64174,-0.05455342,0.03931346,-0.04332614,-0.1871403,-1.936051,-2.250224,0.2885726,1.512994,0.4702542,0.1181443,-0.04659255,0.1427875,-1.223389,0.2273284,0.1104677,0.43032,1.504872,0.3262374,-0.1021736,1.579166,0.5973014,301.0277,122.7861,151.3021,True
2,1.500003,0.1265889,0.00173866,0.04667144,-1.377724,1.166061,-1.730315,0.1846941,1.420385,0.6077166,-1.067098,-0.01093444,11.61804,15.85601,-0.05779425,0.0509834,-0.04009484,-0.1872181,-1.940647,-2.244294,0.2876859,1.513304,0.4703376,0.09016786,-0.06792209,0.1121827,-1.223247,0.2258836,0.1106645,0.4292157,1.505082,0.3263531,-0.1020592,1.579179,0.5974426,301.0804,122.376,151.7994,True
2,1.511114,0.1212143,0.01343133,0.03494515,-1.378195,1.165882,-1.73144,0.1839083,1.420358,0.607944,-1.067509,-0.03742703,11.80371,16.26312,-0.06416653,0.06692627,-0.03148975,-0.1882141,-1.945183,-2.238894,0.2865781,1.513482,0.4705536,0.06126077,-0.07116018,0.09864716,-1.222731,0.2248328,0.1113462,0.4281504,1.505316,0.3264556,-0.1019587,1.57918,0.5975465,301.1511,122.0464,152.1966,True
2,1.522225,0.1169556,0.005961269,0.03177974,-1.378058,1.166382,-1.732662,0.1829308,1.420426,0.6081347,-1.067466,0.004249396,12.01592,16.84165,-0.04931485,0.08824268,-0.02941127,-0.1891542,-1.952111,-2.231564,0.2856894,1.513695,0.4706719,0.02064079,-0.0871965,0.08310939,-1.222315,0.223321,0.1129577,0.4271208,1.505622,0.3265355,-0.1018473,1.579166,0.5976104,301.2577,121.7683,152.4876,True
2,1.533336,0.1094854,-0.002578646,0.01902428,-1.377831,1.166234,-1.733632,0.1821512,1.420571,0.6083548,-1.067357,0.009993951,12.14854,17.5916,-0.01309573,0.05852983,-0.04143102,-0.1884815,-1.954484,-2.23038,0.284859,1.513799,0.4707854,0.002350502,-0.1021346,0.0651931,-1.222247,0.2214685,0.1143021,0.4262984,1.505768,0.3264632,-0.1017322,1.579153,0.5976837,301.3558,121.4634,152.779,True
2,1.544447,0.1009327,-0.01113512,0.0009457348,-1.377377,1.165726,-1.734318,0.1813167,1.420706,0.6085389,-1.067387,-0.00286383,12.22811,18.36297,0.005000547,0.02448044,-0.05017196,-0.1868724,-1.954801,-2.230196,0.2840393,1.514007,0.4709091,0.0332182,-0.1020699,0.06272384,-1.221753,0.2203372,0.1132725,0.4253304,1.50596,0.3264945,-0.1016327,1.579155,0.5977781,301.4059,121.1386,153.0637,True
2,1.555558,0.08486418,-0.001604341,-0.03311992,-1.377623,1.164122,-1.734442,0.180603,1.420805,0.6087348,-1.067343,0.004191863,12.30769,19.13435,0.02856713,0.02129464,-0.03221425,-0.1872863,-1.954194,-2.231973,0.2832055,1.514316,0.4709868,0.07243514,-0.1051826,0.04418584,-1.221947,0.2189587,0.1116829,0.4244556,1.506264,0.3264604,-0.1016864,1.579228,0.5980135,301.1808,120.7978,153.5151,True
2,1.566669,0.0688424,0.006876104,-0.04695031,-1.377818,1.162991,-1.734474,0.1800318,1.421038,0.6089559,-1.067207,0.0123653,12.36074,19.84144,0.01375687,0.02544993,-0.00869607,-0.1876996,-1.953466,-2.23181,0.2823644,1.514529,0.4710393,0.08202275,-0.1040886,0.04408045,-1.221603,0.2178648,0.1108354,0.4236262,1.506478,0.3263762,-0.1016816,1.579282,0.5981977,301.0431,120.4469,153.8771,True
2,1.577781,0.05285474,0.005784787,-0.05224166,-1.377795,1.162272,-1.73448,0.1794375,1.421155,0.6091733,-1.066944,0.02410769,12.49337,20.33426,0.007384066,0.06267104,0.009543916,-0.189501,-1.957622,-2.227335,0.2814537,1.514679,0.4710674,0.06074466,-0.107323,0.04644199,-1.221105,0.2164463,0.11149,0.422848,1.506672,0.3263123,-0.1015922,1.579298,0.5982843,301.0425,120.1678,154.0849,True
2,1.588892,0.04221581,-0.007019959,-0.05540007,-1.377164,1.161613,-1.734499,0.1788707,1.421342,0.6093879,-1.066858,0.007731674,12.65252,20.61281,0.01590782,0.06801099,0.01163496,-0.1903755,-1.959798,-2.225669,0.2806638,1.514812,0.4711459,0.0267457,-0.1233761,0.05212855,-1.220566,0.2142349,0.1130504,0.4220534,1.506817,0.3262074,-0.1014892,1.579309,0.5983658,301.0537,119.8392,154.2207,True
2,1.600003,0.03155459,-0.02089961,-0.06920785,-1.376308,1.160495,-1.734325,0.1784358,1.421605,0.6095209,-1.066884,-0.00227332,12.75862,20.71995,0.02861611,0.06700643,-0.0001641605,-0.1906408,-1.963747,-2.222488,0.2800298,1.514892,0.4710994,-0.02113053,-0.1405112,0.05476894,-1.220181,0.211834,0.1156499,0.4212938,1.506912,0.3261392,-0.1013969,1.579333,0.5984659,301.0285,119.4846,154.3619,True
2,1.611114,0.03047907,-0.03689625,-0.08516458,-1.375231,1.159172,-1.73443,0.1780701,1.42181,0.6095657,-1.067026,-0.01286205,12.89124,20.6771,0.05105101,0.04468684,0.0007051565,-0.1905364,-1.962679,-2.224949,0.2794327,1.515048,0.4710021,-0.02011359,-0.1064243,0.05584674,-1.219551,0.211657,0.1158084,0.4205474,1.507002,0.326051,-0.1013466,1.579358,0.5985655,300.9872,119.201,154.5291,True
2,1.622225,0.04113319,-0.05607434,-0.09900856,-1.373717,1.157904,-1.735041,0.1777615,1.422014,0.6096926,-1.067061,-0.003020202,12.97082,20.48425,0.07030285,0.0265712,0.01117837,-0.1902818,-1.959354,-2.229169,0.2790092,1.515266,0.4709256,-0.00532137,-0.08507939,0.04824467,-1.219272,0.2114826,0.1154115,0.419853,1.507118,0.325943,-0.1013459,1.579392,0.5986534,300.8919,119.0293,154.6507,True
2,1.633336,0.04964285,-0.06033207,-0.1075446,-1.372733,1.156571,-1.735605,0.1774705,1.422236,0.6096909,-1.067488,-0.03894371,13.02387,20.31283,0.07888405,0.002097622,0.01106601,-0.1899484,-1.956638,-2.23304,0.2784494,1.51541,0.4707599,0.03177617,-0.06476335,0.03507324,-1.21927,0.2114064,0.1139202,0.4192077,1.507235,0.325772,-0.1013578,1.579429,0.5987351,300.7857,118.8899,154.756,True
2,1.644447,0.06241038,-0.06352463,-0.1182165,-1.371661,1.155166,-1.736461,0.1771237,1.422438,0.6098371,-1.068091,-0.05470973,12.97082,20.11999,0.07888489,0.009516045,0.01853349,-0.1901763,-1.955687,-2.234387,0.2780102,1.515548,0.470726,0.03486457,-0.07219919,0.02437869,-1.219443,0.210365,0.1139268,0.418639,1.507338,0.325671,-0.1013607,1.57945,0.5987944,300.7178,118.776,154.826,True
2,1.655559,0.06987467,-0.06883667,-0.1192896,-1.370601,1.153991,-1.737244,0.1767849,1.422583,0.610024,-1.068129,-0.003067632,12.86472,19.88429,0.07670827,0.009538747,0.01002529,-0.1902861,-1.957169,-2.23379,0.2774779,1.515631,0.4706786,0.01466493,-0.09035444,0.02458472,-1.219409,0.2085324,0.1149476,0.4180704,1.507419,0.3255231,-0.1014132,1.579486,0.5988511,300.5853,118.747,154.8524,True
2,1.66667,0.06986205,-0.07630445,-0.1267303,-1.369248,1.152616,-1.737615,0.1764288,1.422661,0.6102233,-1.06841,-0.02569659,12.70557,19.62717,0.06379142,0.02231442,-0.002652335,-0.1902754,-1.960954,-2.23001,0.2769624,1.515691,0.4707558,-7.743761E-05,-0.09251497,0.03966044,-1.218559,0.2074247,0.1157458,0.4174313,1.507481,0.3253832,-0.1014439,1.579504,0.5989591,300.4811,118.5562,154.984,True
2,1.677781,0.06134559,-0.06991367,-0.1203227,-1.368579,1.151653,-1.737814,0.1761289,1.422713,0.6104906,-1.068288,0.01135134,12.54642,19.32719,0.06051318,0.02661897,-0.01647938,-0.1902797,-1.966328,-2.225495,0.2762657,1.515703,0.4708924,-0.03081698,-0.08405777,0.0549201,-1.217497,0.2066128,0.1173381,0.4167923,1.507535,0.3252649,-0.1013711,1.579514,0.5990535,300.4709,118.2596,155.1632,True
2,1.688892,0.05390887,-0.04858202,-0.09689529,-1.368782,1.151261,-1.738117,0.1758572,1.422682,0.610616,-1.067871,0.03788333,12.38727,19.00578,0.06152525,0.01174426,-0.03037458,-0.1894472,-1.968643,-2.223933,0.2758251,1.515744,0.4709761,-0.05955572,-0.0617459,0.06164597,-1.216565,0.2065508,0.1190382,0.4162944,1.50755,0.3251886,-0.1011649,1.579476,0.5991067,300.6763,117.8377,155.3901,True
2,1.700003,0.04860412,-0.0443115,-0.08303969,-1.368343,1.150849,-1.73837,0.1756509,1.422646,0.6107473,-1.067587,0.0257438,12.22811,18.66295,0.07120024,0.008550279,-0.01978673,-0.1896858,-1.967901,-2.225976,0.2754691,1.515758,0.4709857,-0.06105319,-0.04786512,0.02438985,-1.21743,0.2066574,0.1197131,0.4158596,1.507609,0.3251667,-0.1009279,1.579424,0.5991487,300.932,117.3999,155.6136,True
2,1.711114,0.04755602,-0.0485716,-0.07770486,-1.367471,1.150277,-1.738722,0.1753924,1.422599,0.6107106,-1.067589,-0.000420688,12.12201,18.36297,0.09036157,-0.006288439,-0.02953001,-0.188971,-1.968931,-2.226794,0.2750854,1.515751,0.4709976,-0.03272614,-0.0286162,-0.01212654,-1.218698,0.2070015,0.1190545,0.4154139,1.507578,0.3251398,-0.100851,1.579416,0.5992232,300.9703,117.1165,155.7455,True
2,1.722225,0.05926631,-0.03896231,-0.07561646,-1.367218,1.149438,-1.739652,0.1751725,1.422543,0.6107619,-1.067598,-0.0007332086,12.06897,18.06299,0.07752883,-0.0190733,-0.04226389,-0.1879265,-1.970405,-2.225825,0.2748598,1.515761,0.4710615,-0.003112398,-0.007242613,-0.02842411,-1.219553,0.2077845,0.1178374,0.4149277,1.507582,0.3251688,-0.1007937,1.579416,0.5992917,300.9907,116.8908,155.8933,True
2,1.733337,0.07204442,-0.02722477,-0.06821407,-1.366997,1.148703,-1.74067,0.1749332,1.422402,0.6107087,-1.067775,-0.01614869,12.04244,17.8273,0.06696539,-0.03721999,-0.03691336,-0.1870871,-1.967851,-2.228974,0.2745843,1.515785,0.4710281,0.01697703,0.03114807,-0.03607348,-1.219956,0.2095297,0.1164214,0.4144924,1.507605,0.32517,-0.1007429,1.579409,0.5993322,301.0358,116.7466,156.0295,True
2,1.744448,0.07202908,-0.002704293,-0.05545963,-1.367739,1.148372,-1.74134,0.1747111,1.422217,0.6107345,-1.068438,-0.06050166,12.01592,17.61303,0.06159028,-0.02444004,-0.04004166,-0.1868575,-1.970565,-2.226835,0.2742165,1.515777,0.471086,0.02435682,0.06844503,-0.03720099,-1.220307,0.2115937,0.1152289,0.4141575,1.507654,0.3251944,-0.100696,1.579388,0.5993315,301.114,116.6958,156.1009,True
2,1.755559,0.06883476,0.01222456,-0.04482073,-1.368372,1.148035,-1.741929,0.1744807,1.422005,0.6108596,-1.068543,-0.009077118,11.96286,17.39876,0.05306469,-0.0276627,-0.04106355,-0.1861267,-1.971091,-2.226618,0.2739142,1.515801,0.4710746,0.01163338,0.08226679,-0.02959657,-1.220284,0.2130358,0.1149761,0.4137728,1.50765,0.3251927,-0.1006354,1.579359,0.599325,301.2148,116.6268,156.146,True
2,1.76667,0.05070388,0.03564016,-0.03842027,-1.369453,1.147567,-1.741793,0.1742847,1.421862,0.6108353,-1.068068,0.04342001,11.90981,17.20591,0.03275089,0.002122514,-0.04192265,-0.1866082,-1.976503,-2.220977,0.2735465,1.515646,0.4711268,0.003096541,0.08011685,-0.0316355,-1.220631,0.2138721,0.1148651,0.4134074,1.507611,0.3251855,-0.1005599,1.579322,0.5993184,301.3398,116.5346,156.1999,True
2,1.777781,0.0336475,0.05693005,-0.03308058,-1.370746,1.147136,-1.7417,0.1739993,1.421643,0.6108985,-1.067916,0.0135193,11.85676,16.99164,0.0380004,0.01915116,-0.04191818,-0.18658,-1.980377,-2.217257,0.2733417,1.515682,0.4710634,0.003095263,0.08118767,-0.03163551,-1.220865,0.2150044,0.1144105,0.4130301,1.50755,0.3251684,-0.1004889,1.579296,0.5993383,301.4328,116.3924,156.2848,True
