loc,t,aDotS,bDotS,gDotS,aS,bS,gS,xS,yS,zS,qE,qDotE,emgA,emgB,aDotSH,bDotSH,gDotSH,aSH,bSH,gSH,xSH,ySH,zSH,aDotUB,bDotUB,gDotUB,aUB,bUB,gUB,xUB,yUB,zUB,xHand,yHand,zHand,aHand,bHand,gHand,enable
3,0,0.3808554,-0.194259,0.4536829,-1.509407,-4.587261,-2.603238,0.3416761,1.223799,0.5367026,-1.068045,-0.04978814,9.257293,14.87037,-0.3800477,0.3932418,-0.2640341,-0.4967019,-3.646158,-0.3879637,0.3764621,1.421775,0.4840772,0.09189591,0.3462018,0.1712912,-1.136775,0.5541357,-0.1933519,0.5451074,1.489271,0.3528857,0.04485643,1.125088,0.4168243,292.062,271.2766,337.7904,True
3,0.01111111,0.3958529,-0.2069268,0.4654202,-1.512836,-4.582017,-2.608524,0.3417003,1.223224,0.5354974,-1.068408,-0.03283618,9.28382,14.89179,-0.3498922,0.3581636,-0.2366003,-0.4993565,-3.642206,-0.3886015,0.3760037,1.421641,0.4836009,0.06414595,0.3462228,0.1662414,-1.135874,0.5587079,-0.1950861,0.5449101,1.489489,0.3529499,0.04556368,1.123742,0.4150793,291.8748,268.1567,340.961,True
3,0.02222222,0.3958565,-0.2058521,0.4675738,-1.516429,-4.577153,-2.613342,0.3415588,1.222454,0.5339973,-1.068344,0.005943798,9.257293,14.9775,-0.2885676,0.2709821,-0.1966654,-0.5002993,-3.64291,-0.3869472,0.3754594,1.421375,0.4831796,0.05754882,0.3270696,0.1471132,-1.135521,0.5621961,-0.1969722,0.5447007,1.489592,0.3530054,0.04648319,1.122007,0.4129279,292.0553,267.5803,341.5274,True
3,0.03333334,0.3798082,-0.1931625,0.4622303,-1.519866,-4.573131,-2.617264,0.3416142,1.221846,0.5327394,-1.068413,-0.006511081,9.28382,15.10606,-0.2369099,0.2050706,-0.1566275,-0.5005976,-3.643223,-0.3858052,0.3750586,1.421242,0.4827051,0.05725515,0.2823455,0.1215115,-1.135308,0.5640362,-0.1983155,0.5444415,1.489659,0.3529892,0.0475516,1.119871,0.4102901,292.4397,267.8935,341.052,True
3,0.04444445,0.3615851,-0.1741379,0.446229,-1.523124,-4.569617,-2.621009,0.3414763,1.221163,0.5313826,-1.067839,0.05240758,9.28382,15.23462,-0.2271695,0.1891216,-0.1460641,-0.5025417,-3.640867,-0.3857575,0.3745236,1.421078,0.482223,0.04764251,0.2557193,0.1205192,-1.134444,0.5663529,-0.1994993,0.5442189,1.489743,0.3529098,0.04882641,1.117431,0.4071833,292.9454,268.0356,340.5878,True
3,0.05555556,0.3423786,-0.1732057,0.4345505,-1.526005,-4.565791,-2.624328,0.3414644,1.220609,0.5302105,-1.066846,0.09021427,9.257293,15.40604,-0.2378952,0.2093288,-0.1470328,-0.5052049,-3.636391,-0.3866622,0.3740457,1.42088,0.4816897,0.03069291,0.2557228,0.1302753,-1.133261,0.5699789,-0.2007504,0.5439795,1.489794,0.3528919,0.05013037,1.114801,0.403675,293.5211,267.9708,340.1802,True
3,0.06666667,0.3423786,-0.1732057,0.4345505,-1.526005,-4.565791,-2.624328,0.3414644,1.220609,0.5302105,-1.066597,0.02204735,9.23077,15.59888,-0.2378952,0.2093288,-0.1470328,-0.5052049,-3.636391,-0.3866622,0.3740457,1.42088,0.4816897,0.03069291,0.2557228,0.1302753,-1.133261,0.5699789,-0.2007504,0.5439795,1.489794,0.3528919,0.05141969,1.112195,0.3999976,294.1599,267.7304,339.7839,True
3,0.07777778,0.2676512,-0.1577173,0.3941791,-1.531146,-4.558947,-2.62856,0.3413712,1.219503,0.5274053,-1.063162,0.3141065,9.23077,15.7703,-0.2542165,0.2827977,-0.1649815,-0.5124699,-3.623507,-0.3919052,0.3728817,1.420692,0.4806318,0.01389149,0.2578413,0.1538842,-1.130341,0.5774053,-0.2036804,0.5435216,1.49011,0.3526139,0.05210923,1.111736,0.3981951,293.5781,263.4832,344.3184,True
3,0.08888889,0.2313808,-0.1579565,0.3793522,-1.533505,-4.555596,-2.630056,0.3412813,1.219172,0.5262232,-1.067751,-0.4221392,9.23077,15.87744,-0.2425096,0.2817711,-0.172539,-0.5156609,-3.619652,-0.3933923,0.3725091,1.420651,0.4801884,0.02446461,0.2344133,0.1473627,-1.12938,0.579823,-0.2053454,0.5433713,1.490249,0.3525345,0.05224713,1.111534,0.3968951,293.8886,266.4322,340.9113,True
3,0.1,0.1972512,-0.1678266,0.3485805,-1.534992,-4.552165,-2.631265,0.3411075,1.21908,0.5253832,-1.065991,0.1649451,9.257293,15.94172,-0.2231375,0.2573079,-0.1577701,-0.5172381,-3.617024,-0.3938815,0.3722886,1.420672,0.4796734,0.021008,0.2056693,0.1228732,-1.129024,0.5813909,-0.2061803,0.5432348,1.490395,0.3522265,0.05266009,1.111051,0.3951613,293.7375,268.1173,339.7996,True
3,0.1111111,0.1717035,-0.1786402,0.3369663,-1.536766,-4.548466,-2.632447,0.3408834,1.2189,0.5242567,-1.064878,0.1000177,9.310343,15.96315,-0.1887633,0.2371608,-0.1324919,-0.5187587,-3.613935,-0.395856,0.3720952,1.420702,0.4792948,0.01568225,0.1897008,0.1229052,-1.128132,0.5835728,-0.207211,0.5430925,1.490532,0.3520126,0.053207,1.110946,0.3938349,293.3881,266.7712,341.7487,True
3,0.1222222,0.1291428,-0.1980731,0.3222333,-1.537988,-4.544347,-2.63271,0.3404993,1.218734,0.5228853,-1.064727,0.01325796,9.336869,15.94172,-0.167268,0.2127288,-0.1209677,-0.5204877,-3.611744,-0.3968339,0.3718329,1.420666,0.4786417,0.002816245,0.1779946,0.1155656,-1.127394,0.5855644,-0.2076802,0.5429699,1.490614,0.3516834,0.05352114,1.1109,0.3925598,293.1748,266.6144,342.2372,True
3,0.1333333,0.08016662,-0.2078989,0.3159946,-1.539544,-4.540462,-2.63205,0.3400432,1.218812,0.521759,-1.064962,-0.02131651,9.363397,15.94172,-0.1457315,0.157396,-0.1137107,-0.5213042,-3.612848,-0.3950326,0.371699,1.420778,0.478148,0.004793271,0.1652218,0.1006131,-1.127184,0.5871777,-0.2085327,0.5429009,1.49071,0.3512552,0.0535964,1.110879,0.3910827,293.0675,267.2124,341.5862,True
3,0.1444445,0.02794927,-0.2135224,0.2980279,-1.540799,-4.536975,-2.630835,0.3395028,1.218949,0.5208349,-1.064341,0.05712571,9.363397,15.92029,-0.124096,0.08821639,-0.09793259,-0.5213324,-3.615295,-0.3920927,0.3714359,1.421064,0.4773669,0.001319319,0.1332838,0.07504573,-1.127419,0.5875489,-0.2085721,0.5428808,1.490718,0.3508689,0.05358123,1.110814,0.389209,293.0327,267.7216,340.968,True
3,0.1555556,-0.008282915,-0.219073,0.2821543,-1.541767,-4.53341,-2.629623,0.3389792,1.21905,0.5196645,-1.063691,0.05924484,9.363397,15.92029,-0.1302947,0.07326944,-0.07871942,-0.5216222,-3.614905,-0.3907691,0.3712285,1.421229,0.4767814,0.003263578,0.1151908,0.05796546,-1.127486,0.5883303,-0.208958,0.5428014,1.490778,0.3505647,0.0535545,1.110803,0.3870729,293.0173,267.2967,341.3626,True
3,0.1666667,-0.0829017,-0.2184543,0.2567609,-1.542198,-4.530138,-2.626671,0.3382354,1.219159,0.5180411,-1.063483,0.01873846,9.363397,15.89886,-0.160023,0.1306784,-0.0400968,-0.5221831,-3.607739,-0.394061,0.3710334,1.42157,0.4760387,-0.009512037,0.1152073,0.05914918,-1.127212,0.5900492,-0.2091013,0.542712,1.490842,0.3502727,0.05338954,1.110892,0.3845492,293.082,267.5174,340.8582,True
3,0.1777778,-0.1372674,-0.2176812,0.2430321,-1.542919,-4.526977,-2.623283,0.3375139,1.219511,0.5168436,-1.063889,-0.03689298,9.336869,15.89886,-0.1823988,0.1785317,-0.01857519,-0.5230235,-3.600726,-0.3972177,0.3709941,1.421936,0.4753711,-0.01474325,0.1152055,0.06878468,-1.126481,0.5917547,-0.2094757,0.5427088,1.490946,0.3498664,0.05338193,1.110905,0.3813084,293.4933,268.499,339.0886,True
3,0.1888889,-0.2587521,-0.2204224,0.222012,-1.543211,-4.523837,-2.616374,0.3364799,1.220428,0.5157084,-1.062648,0.1141539,9.310343,15.83458,-0.1960845,0.2295917,0.02417633,-0.5231663,-3.591655,-0.4024353,0.3710143,1.422295,0.4747629,-0.006264411,0.1152123,0.06443672,-1.126193,0.5933898,-0.2103711,0.542726,1.491057,0.3493807,0.05341078,1.110965,0.3777096,293.6666,267.9686,338.9052,True
3,0.2,-0.3524283,-0.24214,0.2170001,-1.543944,-4.519589,-2.609574,0.3353898,1.221272,0.5151649,-1.062575,0.006035381,9.310343,15.70602,-0.1702298,0.2434914,0.06980635,-0.5222805,-3.583871,-0.4079238,0.3711531,1.422803,0.4741294,0.01258435,0.09285524,0.03332882,-1.12699,0.5935583,-0.2112182,0.5428412,1.491133,0.3487973,0.05343467,1.111048,0.37369,294.1257,267.9731,337.9626,True
3,0.2111111,-0.4407137,-0.2734137,0.2173309,-1.543971,-4.514885,-2.60197,0.3339606,1.222158,0.5138335,-1.059702,0.2631553,9.310343,15.49175,-0.1421423,0.1998788,0.1025856,-0.52055,-3.580967,-0.4098504,0.3712623,1.423281,0.4735916,0.01662096,0.05878567,0.01301823,-1.127412,0.592941,-0.2112395,0.5429436,1.491171,0.3482795,0.05344961,1.111247,0.3694048,294.6974,267.6874,337.1307,True
3,0.2222222,-0.4960103,-0.3024544,0.2101143,-1.543469,-4.510088,-2.595036,0.3326127,1.222919,0.5121844,-1.060254,-0.05215521,9.336869,15.17034,-0.1224455,0.1253505,0.1396649,-0.517596,-3.581063,-0.4090823,0.3715444,1.423726,0.4730251,-0.006098896,-0.01042295,-0.01770841,-1.128129,0.5898446,-0.2090302,0.5430482,1.491075,0.3476729,0.05306851,1.112055,0.3652732,295.242,266.6993,337.0467,True
3,0.2333333,-0.5821615,-0.3390806,0.2019396,-1.542503,-4.504786,-2.585858,0.3308262,1.224033,0.5107589,-1.060387,-0.0108774,9.363397,14.80608,-0.1059912,0.06572077,0.1767871,-0.5141563,-3.580695,-0.4087555,0.3718219,1.424258,0.4723887,-0.05205134,-0.04660705,-0.03005731,-1.128456,0.5879697,-0.2060893,0.543189,1.491018,0.3470423,0.05225151,1.113852,0.3616231,295.4675,265.8676,337.0314,True
3,0.2444444,-0.6874893,-0.3757767,0.1959338,-1.541437,-4.499279,-2.575143,0.3290533,1.225115,0.5092635,-1.06184,-0.1321722,9.363397,14.37754,-0.09068442,0.009289537,0.2053955,-0.5107021,-3.581094,-0.4077569,0.3719524,1.424869,0.4717736,-0.06279673,-0.03168011,-0.0395209,-1.129165,0.5880044,-0.2049846,0.5433574,1.491092,0.3463435,0.05084243,1.116727,0.3584141,295.2389,265.4901,337.0338,True
3,0.2555556,-0.7577274,-0.3984764,0.188726,-1.540435,-4.493956,-2.564654,0.3273081,1.22648,0.5083692,-1.060475,0.1264011,9.336869,13.92758,-0.08080619,-0.02584667,0.228728,-0.5072176,-3.580999,-0.4072626,0.3720768,1.425372,0.4710991,-0.04901079,-0.02742083,-0.04604856,-1.129855,0.5876851,-0.2047872,0.5435164,1.491086,0.3456936,0.04905361,1.120548,0.3555412,294.5617,265.4029,337.0128,True
3,0.2666667,-0.8524276,-0.4255254,0.18692,-1.538992,-4.488067,-2.552086,0.3251473,1.227953,0.5067217,-1.05955,0.08391345,9.363397,13.43475,-0.1029562,-0.02593897,0.2576599,-0.5035856,-3.578637,-0.4075174,0.372153,1.426168,0.4702992,-0.05256506,-0.04975948,-0.08012023,-1.13156,0.5858673,-0.2033806,0.5436902,1.491067,0.3449557,0.04688722,1.12515,0.3528537,293.7225,265.4,336.9378,True
3,0.2777778,-0.942879,-0.4439851,0.1957196,-1.538012,-4.482246,-2.539089,0.3230481,1.229466,0.5050817,-1.060553,-0.09171331,9.336869,13.0705,-0.1369777,0.001633473,0.2792476,-0.5005251,-3.573735,-0.4090149,0.3723212,1.426936,0.469557,-0.07301667,-0.06252094,-0.1001675,-1.13303,0.5841949,-0.2011635,0.5438792,1.491074,0.3442965,0.04454678,1.130421,0.3502638,292.8118,265.3819,336.812,True
3,0.2888889,-1.027994,-0.4527393,0.2279051,-1.537887,-4.475805,-2.52506,0.3206757,1.231245,0.5031476,-1.059444,0.1029466,9.363397,12.8348,-0.188028,0.04192996,0.307363,-0.4972841,-3.566645,-0.4114256,0.3724523,1.427815,0.468812,-0.113738,-0.06780316,-0.1231981,-1.134928,0.5828069,-0.1978944,0.5441266,1.491067,0.3436015,0.04220113,1.136222,0.3477643,291.8308,265.4109,336.5962,True
3,0.3,-1.114246,-0.4466091,0.2536439,-1.538214,-4.469628,-2.510377,0.3182588,1.233097,0.5011482,-1.059764,-0.02960129,9.389919,12.72766,-0.2196837,0.0141096,0.3363519,-0.4926752,-3.564306,-0.4099135,0.3727195,1.428798,0.4678888,-0.1244478,-0.08164647,-0.1284245,-1.136139,0.5809507,-0.1954305,0.5443816,1.49109,0.3428586,0.03962516,1.142403,0.3450988,290.8424,265.5459,336.4071,True
3,0.3111111,-1.174952,-0.4414725,0.270802,-1.538256,-4.463655,-2.495339,0.3157684,1.235,0.4991095,-1.059671,0.009474687,9.442968,12.70623,-0.257662,-0.02332309,0.3696405,-0.4873265,-3.562954,-0.4070599,0.3728504,1.429824,0.4669905,-0.1223828,-0.09655562,-0.1337869,-1.137496,0.5789297,-0.193276,0.5446562,1.491082,0.3420641,0.0369617,1.148888,0.3421129,289.8607,265.8103,336.1119,True
3,0.3222222,-1.254745,-0.4609479,0.279588,-1.537461,-4.456962,-2.478973,0.3130538,1.237142,0.4971454,-1.059911,-0.02146902,9.549072,12.77051,-0.28934,-0.04048768,0.4007678,-0.4819453,-3.560085,-0.4051166,0.3730863,1.430674,0.4660177,-0.137329,-0.1008109,-0.1368394,-1.138888,0.5771524,-0.190526,0.5449669,1.49105,0.3413119,0.03423342,1.155649,0.3386159,288.9465,266.2045,335.6316,True
3,0.3333333,-1.332473,-0.4771926,0.2819195,-1.537475,-4.450403,-2.461432,0.3106896,1.242192,0.5027726,-1.060464,-0.04965096,9.70822,12.87765,-0.3580231,-0.02797666,0.4790742,-0.4746062,-3.552807,-0.4052442,0.3732326,1.431821,0.4649518,-0.1895234,-0.10078,-0.1363142,-1.140225,0.5756873,-0.1859992,0.5452547,1.491015,0.3406396,0.03156589,1.162676,0.3345657,288.0322,266.5382,335.0322,True
3,0.3444445,-1.406972,-0.4913436,0.2874638,-1.536178,-4.443632,-2.443388,0.3078165,1.244778,0.5005732,-1.060016,0.04195276,9.867373,13.00621,-0.4064807,-0.02286035,0.5540305,-0.4666114,-3.545283,-0.40569,0.3733559,1.432984,0.4638791,-0.2279004,-0.08477598,-0.1391072,-1.141736,0.5749847,-0.1818345,0.5454693,1.490893,0.3399346,0.02902946,1.169932,0.3300453,287.0718,266.6346,334.4415,True
3,0.3555556,-1.474066,-0.4905227,0.2982603,-1.535394,-4.437111,-2.424993,0.3047934,1.24746,0.4983289,-1.059653,0.03345205,9.973473,13.11335,-0.4412077,-0.03578937,0.6043569,-0.4587087,-3.539637,-0.4047544,0.3735592,1.434154,0.4627295,-0.2409207,-0.06770652,-0.1634669,-1.144285,0.5741858,-0.1784938,0.5458043,1.490849,0.3392246,0.02711356,1.177554,0.3256469,286.4586,265.1426,334.369,True
3,0.3666667,-1.51772,-0.4917552,0.3047577,-1.534702,-4.430575,-2.407115,0.3018858,1.250045,0.4961305,-1.05999,-0.03048039,10.05305,13.1562,-0.4643879,-0.05931652,0.627955,-0.4510766,-3.535706,-0.4024257,0.3736807,1.435479,0.4615848,-0.2443256,-0.05489707,-0.184727,-1.146964,0.5735502,-0.1754043,0.5461336,1.490718,0.3385558,0.02597701,1.186055,0.3227771,286.0884,263.0746,334.3663,True
3,0.3777778,-1.571039,-0.4781196,0.308013,-1.533913,-4.424633,-2.388166,0.298862,1.25293,0.4936855,-1.06055,-0.05025406,10.02653,13.1562,-0.4854807,-0.08177108,0.6472863,-0.4431569,-3.531962,-0.3996249,0.3738881,1.43672,0.4603922,-0.2486782,-0.04104331,-0.1942628,-1.149359,0.5729769,-0.1722178,0.5465441,1.49061,0.3378456,0.023661,1.195341,0.3204353,284.954,263.4792,333.8374,True
3,0.3888889,-1.624386,-0.4602372,0.3069875,-1.533306,-4.419032,-2.368472,0.2957214,1.256046,0.4913514,-1.061897,-0.1221766,10.02653,13.1562,-0.5136584,-0.119193,0.7081973,-0.4330183,-3.528383,-0.3961346,0.3739494,1.438133,0.4590719,-0.2693569,0.000553146,-0.2398317,-1.153814,0.5737226,-0.1688298,0.5469283,1.490452,0.3370769,0.02045418,1.205153,0.3179843,283.3894,265.3831,332.6309,True
3,0.4,-1.65852,-0.4497492,0.3070236,-1.532584,-4.413033,-2.348993,0.2927066,1.258994,0.4889288,-1.061674,0.02186181,10.05305,13.17763,-0.5079566,-0.1426403,0.7486268,-0.4232455,-3.524302,-0.3942347,0.374038,1.439473,0.457715,-0.2974525,0.0304248,-0.2799996,-1.158244,0.5742359,-0.1647269,0.5473258,1.490369,0.3363147,0.01708484,1.215138,0.3150542,281.7541,267.9756,330.618,True
3,0.4111111,-1.727832,-0.4469571,0.281594,-1.530601,-4.407995,-2.327517,0.2893608,1.262375,0.4864047,-1.061557,0.01092191,10.13263,13.22048,-0.5169494,-0.1160979,0.8371348,-0.4118131,-3.513687,-0.397888,0.3739552,1.440896,0.4561968,-0.3436913,0.04433469,-0.3232006,-1.163387,0.5744004,-0.159416,0.5476658,1.490246,0.3355508,0.0138885,1.225094,0.3114682,280.3489,270.3821,328.3211,True
3,0.4222222,-1.755568,-0.4396953,0.2709841,-1.529007,-4.402277,-2.307607,0.2862126,1.265605,0.4838831,-1.062389,-0.07568494,10.2122,13.34904,-0.5425408,-0.02777913,0.8714828,-0.403127,-3.497108,-0.4060812,0.3739773,1.442152,0.4545763,-0.3715276,0.04009414,-0.3367761,-1.167545,0.5738822,-0.1541906,0.5480919,1.490177,0.3347716,0.01108244,1.234972,0.307305,279.1473,272.3124,326.0745,True
3,0.4333333,-1.791903,-0.4218718,0.2486477,-1.527589,-4.397518,-2.286995,0.2830937,1.269033,0.4814014,-1.061157,0.1137755,10.37135,13.49904,-0.5680072,-0.0001806021,0.8962005,-0.3936472,-3.483942,-0.4110725,0.3738631,1.44349,0.4530864,-0.3992461,0.02946542,-0.3386375,-1.171275,0.5733319,-0.1487144,0.5483471,1.490065,0.3341186,0.008737317,1.244738,0.3026859,278.0016,274.0809,323.7693,True
3,0.4444444,-1.826064,-0.4200068,0.2199495,-1.525012,-4.393364,-2.265691,0.2797763,1.272727,0.4789708,-1.063162,-0.1838975,10.50398,13.60617,-0.6316355,0.009168923,0.93931,-0.3829769,-3.471021,-0.4139114,0.3737075,1.444949,0.4514561,-0.4248551,0.03373978,-0.3426339,-1.17515,0.5731974,-0.1431841,0.5484341,1.489976,0.3334212,0.006563312,1.25452,0.2977069,276.9398,275.2657,321.919,True
3,0.4555556,-1.836661,-0.4404052,0.1987564,-1.521522,-4.388378,-2.24586,0.2765269,1.276503,0.4764049,-1.06327,-0.00788842,10.61008,13.6276,-0.6410924,0.01232275,0.9585632,-0.3729235,-3.458248,-0.4184407,0.3735474,1.446296,0.4499168,-0.4247689,0.05184056,-0.335162,-1.178705,0.5738702,-0.1388476,0.5486722,1.489862,0.3327055,0.004713275,1.264335,0.292617,275.8423,277.2281,319.2476,True
3,0.4666667,-1.835563,-0.4564497,0.1817755,-1.518019,-4.383807,-2.225955,0.2731693,1.28023,0.4740071,-1.063056,0.01985043,10.66313,13.56331,-0.626245,0.01238379,0.9499259,-0.3637739,-3.446359,-0.4232138,0.3732553,1.44763,0.4482307,-0.4191735,0.08804971,-0.3106834,-1.1816,0.5758925,-0.1352694,0.5487719,1.489776,0.3319483,0.003004961,1.274234,0.2875866,274.7678,280.1429,315.5963,True
3,0.4777778,-1.835593,-0.4661712,0.1519755,-1.513993,-4.379894,-2.205882,0.2698954,1.284115,0.4715557,-1.064881,-0.1666854,10.61008,13.32762,-0.6219198,-0.03340074,0.940277,-0.3537557,-3.439351,-0.4230019,0.3729419,1.448979,0.4465847,-0.4084107,0.1231874,-0.3022366,-1.184947,0.5780721,-0.1320259,0.5488937,1.489636,0.3311684,0.001238457,1.284322,0.282768,273.6854,283.9709,311.0921,True
3,0.4888889,-1.840946,-0.4791344,0.113689,-1.509234,-4.376471,-2.185433,0.2664438,1.288088,0.4691906,-1.065328,-0.03926582,10.50398,13.00621,-0.618244,-0.1442007,0.9572102,-0.3413693,-3.440489,-0.4152662,0.3724293,1.450377,0.444798,-0.4095226,0.1551567,-0.3085931,-1.18899,0.5805799,-0.1283947,0.5489444,1.489551,0.3303604,-0.0004817245,1.294548,0.2782834,272.5362,292.7574,301.7701,True
3,0.5,-1.847435,-0.478298,0.06895499,-1.504361,-4.37387,-2.165002,0.2632358,1.291963,0.4667623,-1.065425,-0.008514608,10.39788,12.66338,-0.615891,-0.1591263,0.9816911,-0.329832,-3.43125,-0.4170206,0.3720833,1.451762,0.4431,-0.418083,0.158354,-0.3127655,-1.192804,0.5819238,-0.123984,0.5489838,1.489478,0.3294871,-0.00218223,1.304817,0.2741801,271.5573,317.8264,276.2623,True
3,0.5111111,-1.848595,-0.471076,0.02746072,-1.499804,-4.371201,-2.144768,0.2600015,1.295798,0.4641559,-1.065274,0.01401746,10.26525,12.27769,-0.614606,-0.1048296,1.032856,-0.3179942,-3.412546,-0.4279074,0.3715087,1.453206,0.4411852,-0.4384504,0.1381484,-0.3242937,-1.196883,0.582458,-0.1186137,0.5489365,1.489325,0.3286188,-0.003922292,1.315082,0.2704477,271.3567,10.17634,223.5776,True
3,0.5222223,-1.828462,-0.4529303,0.01455826,-1.49577,-4.369022,-2.124932,0.2567748,1.299812,0.4617896,-1.065513,-0.02175431,10.2122,11.95629,-0.6200075,-0.04521719,1.048923,-0.3074023,-3.391185,-0.4409465,0.3711254,1.454758,0.4392929,-0.460881,0.130713,-0.3294048,-1.200923,0.5833523,-0.1130041,0.5489248,1.489045,0.3276811,-0.00575558,1.325321,0.2670568,272.1216,45.33969,188.171,True
3,0.5333334,-1.786989,-0.4346925,0.01020756,-1.492435,-4.366256,-2.106509,0.2537767,1.303718,0.4593232,-1.065901,-0.03521596,10.2122,11.78487,-0.6180573,0.001692981,1.045747,-0.2978778,-3.369123,-0.4550256,0.3705581,1.456378,0.4372573,-0.4992625,0.129671,-0.3322147,-1.204884,0.5843953,-0.1064529,0.5487807,1.488873,0.326751,-0.007571589,1.33548,0.2639889,273.2277,58.66765,174.73,True
3,0.5444446,-1.751893,-0.4271312,-0.001618937,-1.488366,-4.364353,-2.08855,0.2507573,1.307699,0.4570177,-1.066494,-0.05379766,10.23872,11.72059,-0.6092145,-0.03451771,1.073352,-0.285665,-3.355052,-0.4621343,0.3701186,1.457853,0.4353018,-0.5099348,0.127542,-0.3342353,-1.208677,0.585361,-0.1008992,0.5485419,1.488741,0.3258533,-0.009343047,1.345544,0.2611158,274.385,64.08154,169.2875,True
3,0.5555557,-1.706177,-0.4164307,-0.03156085,-1.483745,-4.363184,-2.071385,0.2479044,1.311975,0.4544308,-1.067953,-0.1329496,10.23872,11.74202,-0.6024233,-0.1474126,1.080669,-0.2723242,-3.352705,-0.4578887,0.369606,1.459291,0.4334364,-0.5025469,0.1104989,-0.3417966,-1.212845,0.5855653,-0.09587886,0.5483104,1.488621,0.3248711,-0.01097377,1.355504,0.2583713,275.5,66.66415,166.6807,True
3,0.5666668,-1.681723,-0.4174857,-0.05504777,-1.479039,-4.362244,-2.054074,0.2449486,1.315944,0.4521966,-1.068543,-0.05292679,10.23872,11.78487,-0.5807163,-0.2389716,1.094288,-0.2588007,-3.350848,-0.4541491,0.3689964,1.46081,0.4314845,-0.4920197,0.1009142,-0.3536286,-1.217132,0.5859454,-0.09100581,0.5480868,1.488537,0.323977,-0.0123104,1.365263,0.2556742,276.6388,68.07355,165.254,True
3,0.577778,-1.64981,-0.4206628,-0.08173943,-1.473846,-4.361582,-2.036704,0.2422169,1.31993,0.4497709,-1.069247,-0.0642468,10.1061,11.8063,-0.562368,-0.2676928,1.113307,-0.2453847,-3.341212,-0.4578128,0.3684361,1.4624,0.429564,-0.4824598,0.09024903,-0.3558727,-1.221282,0.5861452,-0.08598708,0.5478509,1.488478,0.3229678,-0.01344923,1.374786,0.2529173,277.7562,69.56689,163.6949,True
3,0.5888891,-1.611587,-0.401399,-0.1010797,-1.469602,-4.361517,-2.020294,0.2393737,1.32377,0.4475796,-1.068944,0.02812052,9.973473,11.8063,-0.5311956,-0.2708166,1.148219,-0.2318356,-3.326385,-0.4673488,0.3677224,1.464025,0.4275022,-0.4939381,0.1158144,-0.3333656,-1.22443,0.5881225,-0.0808605,0.5474077,1.488251,0.3218877,-0.01448765,1.384065,0.2500429,278.8483,71.26672,161.86,True
3,0.6000003,-1.560637,-0.3575906,-0.1087221,-1.466901,-4.361047,-2.005146,0.2366872,1.327353,0.4449983,-1.068623,0.02885266,9.787797,11.82773,-0.5236705,-0.2729384,1.157753,-0.2187781,-3.311813,-0.4759569,0.3672563,1.465457,0.425561,-0.4960274,0.1328535,-0.330135,-1.228112,0.5899526,-0.07594776,0.547163,1.488165,0.3208807,-0.0154531,1.393033,0.2471211,279.9214,72.73837,160.1621,True
3,0.6111114,-1.529953,-0.312735,-0.1143036,-1.464525,-4.361609,-1.989266,0.2339434,1.331029,0.4427588,-1.069371,-0.06870522,9.602121,11.82773,-0.4691585,-0.228065,1.201038,-0.2054895,-3.283772,-0.499956,0.3665624,1.466789,0.4234414,-0.5129921,0.1935868,-0.3245767,-1.231772,0.5943295,-0.07112557,0.5466939,1.488054,0.3197668,-0.01636951,1.401703,0.244185,280.9187,74.00044,158.6646,True
3,0.6222225,-1.49516,-0.2403149,-0.138037,-1.46324,-4.363149,-1.973738,0.2315045,1.334309,0.4398077,-1.070376,-0.09151789,9.442968,11.8063,-0.4478626,-0.2013637,1.211546,-0.1928224,-3.255313,-0.5234992,0.3659866,1.468167,0.4213336,-0.5141108,0.2298144,-0.331986,-1.235958,0.5980493,-0.06660965,0.5462501,1.488029,0.3186414,-0.01728023,1.410082,0.2413277,281.8778,74.7523,157.6717,True
3,0.6333337,-1.48904,-0.1924549,-0.1638165,-1.461724,-4.3656,-1.957003,0.228816,1.337799,0.4375391,-1.069497,0.08084579,9.389919,11.84915,-0.4532193,-0.1822175,1.214799,-0.180337,-3.22469,-0.5482351,0.365311,1.469512,0.4191737,-0.4864385,0.213828,-0.333342,-1.239879,0.5997262,-0.06258775,0.5457395,1.487911,0.3174553,-0.01820409,1.418134,0.2385663,282.8011,74.89332,157.3496,True
3,0.6444448,-1.457459,-0.1189518,-0.1876182,-1.461306,-4.368607,-1.941324,0.2263447,1.340885,0.4348664,-1.069505,-0.001791302,9.363397,11.91343,-0.4489073,-0.1811711,1.222214,-0.1673855,-3.192702,-0.5748785,0.3645142,1.470916,0.4170184,-0.469279,0.1818529,-0.3207576,-1.243033,0.6004466,-0.05818741,0.5452816,1.487838,0.3163161,-0.01925172,1.425936,0.2359243,283.6334,75.0082,157.1093,True
3,0.655556,-1.426696,-0.09010655,-0.1909174,-1.46041,-4.370064,-1.926386,0.2237085,1.343961,0.4320474,-1.068143,0.1244586,9.416446,12.02057,-0.4434527,-0.1960754,1.233885,-0.1540031,-3.156501,-0.605764,0.3637689,1.472248,0.4148517,-0.4572059,0.144529,-0.2836242,-1.244835,0.6006066,-0.05359292,0.544601,1.487725,0.3151293,-0.02043251,1.433538,0.2334174,284.4301,75.16173,156.9025,True
3,0.6666671,-1.351354,-0.03660288,-0.2147554,-1.460577,-4.37359,-1.913466,0.2211866,1.346861,0.4300091,-1.068896,-0.07007564,9.522545,12.14913,-0.432925,-0.1917926,1.21995,-0.1421169,-3.116262,-0.6410818,0.3629985,1.473515,0.4127958,-0.4740314,0.1487853,-0.2621409,-1.247139,0.602573,-0.04831028,0.5439606,1.487688,0.3139853,-0.02179396,1.44109,0.2311611,285.1473,75.51434,156.4591,True
3,0.6777782,-1.3153,-0.01099271,-0.2362353,-1.459842,-4.376789,-1.899451,0.218947,1.350026,0.4274492,-1.069347,-0.04062388,9.602121,12.25627,-0.3982432,-0.1692629,1.170687,-0.1325295,-3.071066,-0.6824699,0.3622016,1.474665,0.4107163,-0.4962376,0.1871356,-0.2480373,-1.249667,0.6060905,-0.04313549,0.5432475,1.487649,0.3127677,-0.0232172,1.448598,0.2292308,285.9226,75.49255,156.5449,True
3,0.6888894,-1.2676,0.02960396,-0.2599553,-1.460268,-4.38091,-1.886562,0.2167286,1.352851,0.4253843,-1.071291,-0.1777662,9.734747,12.3634,-0.3551521,-0.1658991,1.097903,-0.1238412,-3.032879,-0.7177347,0.3614355,1.47586,0.4087687,-0.4917604,0.2244194,-0.2288734,-1.251777,0.6101239,-0.03910533,0.542557,1.487591,0.3115933,-0.0245954,1.455996,0.2275442,286.7536,75.25949,156.9204,True
3,0.7000005,-1.21241,0.07135415,-0.2655444,-1.461319,-4.384324,-1.87426,0.2147317,1.355519,0.4227841,-1.069951,0.1237023,9.867373,12.49196,-0.3234984,-0.1923908,1.046507,-0.1144003,-2.996228,-0.7516674,0.3605484,1.477034,0.4067426,-0.472439,0.2318483,-0.2152181,-1.253859,0.6129344,-0.03543789,0.5418906,1.487548,0.3103912,-0.02584523,1.463105,0.2262163,287.6318,75.09334,157.1815,True
3,0.7111117,-1.16671,0.09177291,-0.2721324,-1.46199,-4.387975,-1.862467,0.2126052,1.358191,0.4207513,-1.070573,-0.05846612,9.973473,12.68481,-0.2780785,-0.2262706,0.9832841,-0.1055176,-2.964384,-0.7816972,0.359786,1.478168,0.4048977,-0.4404228,0.2158286,-0.2091759,-1.256127,0.6145579,-0.03218031,0.5411369,1.48746,0.3091254,-0.02708626,1.470005,0.2251193,288.4023,75.03226,157.4263,True
3,0.7222228,-1.091092,0.0920791,-0.2797678,-1.46193,-4.39142,-1.852536,0.2107701,1.360614,0.418715,-1.07074,-0.0149103,10.02653,12.94193,-0.2249185,-0.243132,0.9636902,-0.09619871,-2.913744,-0.8314043,0.3588596,1.47933,0.4025519,-0.4405322,0.2115765,-0.219832,-1.259,0.6167822,-0.02797651,0.5403861,1.487367,0.307929,-0.02828197,1.476652,0.2242863,289.1589,74.87286,157.7998,True
3,0.7333339,-1.036811,0.1019006,-0.282071,-1.462456,-4.394947,-1.842653,0.2087828,1.363014,0.4167204,-1.07082,-0.007533194,10.05305,13.26334,-0.2092683,-0.2185547,0.9305644,-0.08914132,-2.849772,-0.8933502,0.3579936,1.480336,0.4004989,-0.449157,0.2158661,-0.2314735,-1.262177,0.6194754,-0.02353489,0.5396668,1.487199,0.306705,-0.02945755,1.483041,0.2235724,289.8948,74.50404,158.4732,True
3,0.7444451,-0.9463748,0.1289156,-0.2802747,-1.463598,-4.398364,-1.834975,0.2071952,1.364986,0.4142282,-1.07215,-0.1219525,10.1061,13.37047,-0.212088,-0.183347,0.8592309,-0.08422247,-2.790903,-0.949288,0.3572427,1.481026,0.3982356,-0.4426912,0.2105503,-0.2251595,-1.264558,0.6218542,-0.01964428,0.5388594,1.486975,0.3054907,-0.030582,1.489103,0.2229288,290.6083,74.3082,158.9372,True
3,0.7555562,-0.9262267,0.1578442,-0.2655388,-1.465673,-4.401566,-1.824696,0.2054733,1.367171,0.4122107,-1.07177,0.03534302,10.13263,13.19906,-0.209132,-0.1375296,0.8485851,-0.07922851,-2.697762,-1.039766,0.356417,1.481863,0.396198,-0.4310088,0.2030794,-0.2284736,-1.267188,0.6238191,-0.01588016,0.5379815,1.486839,0.3042603,-0.03159086,1.494683,0.2223116,291.3354,74.23675,159.2545,True
3,0.7666674,-0.9157355,0.2134385,-0.2295775,-1.469674,-4.403934,-1.814708,0.2039287,1.369045,0.4101419,-1.07325,-0.136158,10.18567,12.74909,-0.178323,-0.1480617,0.840896,-0.07306223,-2.599689,-1.136248,0.355592,1.482712,0.3940618,-0.3980886,0.1988232,-0.2373137,-1.270069,0.6261182,-0.01302446,0.5371166,1.486669,0.3028784,-0.03264554,1.499825,0.221611,291.9854,74.07166,159.6678,True
3,0.7777785,-0.9168324,0.2391533,-0.1923851,-1.472919,-4.405577,-1.804034,0.2024278,1.370978,0.4080644,-1.070165,0.2827908,10.18567,12.06342,-0.1591813,-0.1788734,0.8258076,-0.06701046,-2.501985,-1.2325,0.3547557,1.483499,0.3920143,-0.38223,0.1892328,-0.2491999,-1.273243,0.6279058,-0.009829462,0.5363458,1.48656,0.3016043,-0.03371126,1.504407,0.2207606,292.5653,73.80553,160.189,True
3,0.7888896,-0.8931984,0.2063202,-0.1720634,-1.4739,-4.407049,-1.794699,0.2008309,1.372888,0.4058485,-1.069519,0.05617683,10.26525,11.31348,-0.1445133,-0.2139648,0.7766753,-0.06132248,-2.411048,-1.322158,0.3538775,1.484232,0.3901644,-0.3697375,0.1945917,-0.2780743,-1.277278,0.6304765,-0.006777745,0.535484,1.486427,0.3003097,-0.03493321,1.508699,0.2197254,292.8408,73.54232,160.5691,True
3,0.8000008,-0.85131,0.1373335,-0.1558897,-1.472831,-4.408023,-1.78651,0.1994002,1.374746,0.4038219,-1.06842,0.1000855,10.37135,10.47782,-0.1665028,-0.1798919,0.6990986,-0.05937677,-2.330971,-1.399513,0.3529002,1.484864,0.388222,-0.3719931,0.2063121,-0.2918999,-1.281043,0.6331272,-0.003390204,0.5345612,1.486325,0.2990382,-0.03614499,1.512877,0.2186038,292.9631,73.14678,161.0511,True
3,0.8111119,-0.8373251,0.09898284,-0.1706763,-1.47212,-4.410333,-1.777488,0.1978166,1.376676,0.4015865,-1.069375,-0.08831817,10.47745,9.577887,-0.1744587,-0.1457981,0.6459187,-0.05828168,-2.240464,-1.48766,0.3519953,1.485585,0.3864429,-0.3793615,0.2095065,-0.2811492,-1.283604,0.635757,0.000490288,0.5337019,1.486048,0.2979298,-0.03721293,1.517137,0.2173763,293.1016,72.84573,161.5202,True
3,0.8222231,-0.8028682,0.033209,-0.1406537,-1.470207,-4.410501,-1.769626,0.196319,1.378748,0.3991933,-1.070298,-0.08377934,10.58355,8.656524,-0.1683233,-0.0999735,0.6299149,-0.05832269,-2.129573,-1.596876,0.3511174,1.486017,0.3846252,-0.3832357,0.1892289,-0.2363201,-1.284204,0.6373747,0.0048118,0.5326744,1.485977,0.2968528,-0.03794958,1.52144,0.2159846,293.4601,72.83804,161.7436,True
3,0.8333342,-0.7734538,-0.1029494,-0.1252334,-1.464625,-4.410158,-1.762065,0.1949816,1.380939,0.3968003,-1.06934,0.08802935,10.66313,8.013712,-0.1547799,-0.05197565,0.6096085,-0.06000528,-2.030099,-1.694941,0.3502877,1.486527,0.3827734,-0.3531453,0.1657386,-0.2100161,-1.285605,0.6383095,0.007334079,0.5317444,1.48596,0.2955236,-0.03827923,1.525644,0.214378,294.0196,73.03672,161.6683,True
3,0.8444453,-0.7245961,-0.3072674,-0.1244895,-1.454231,-4.409467,-1.755779,0.1934667,1.38356,0.3943775,-1.069835,-0.04631343,10.79576,7.756588,-0.1165919,-0.07104126,0.5784011,-0.0590785,-1.940473,-1.784675,0.3496467,1.487064,0.3809075,-0.2965539,0.1475953,-0.1913646,-1.286671,0.6397219,0.008811069,0.5308538,1.485996,0.2941754,-0.03846839,1.529884,0.21249,294.6081,73.24413,161.4694,True
3,0.8555565,-0.6685071,-0.4474809,-0.0910004,-1.445267,-4.407688,-1.750188,0.1921712,1.386136,0.3924968,-1.069814,0.002103971,10.95491,7.94943,-0.1037513,-0.1444862,0.5579997,-0.0563461,-1.830964,-1.893276,0.3490291,1.487681,0.378999,-0.2548327,0.1315615,-0.1747719,-1.288088,0.640479,0.009876067,0.5300061,1.485938,0.2927985,-0.03846793,1.53406,0.2102523,295.1852,73.40074,161.3582,True
3,0.8666676,-0.4928238,-0.622144,-0.0139885,-1.432809,-4.402648,-1.751477,0.1905719,1.38858,0.3898339,-1.070661,-0.07778303,11.14058,8.420825,-0.1502463,-0.2096458,0.57854,-0.05488668,-1.68342,-2.037436,0.3483672,1.488204,0.3770123,-0.262241,0.09323515,-0.1726417,-1.290284,0.6403357,0.01260208,0.5290194,1.485986,0.2907903,-0.03820541,1.538012,0.2074713,295.7753,73.9626,160.9169,True
3,0.8777788,-0.4615814,-0.4524904,0.0118416,-1.434379,-4.402352,-1.746915,0.1894853,1.390385,0.3881662,-1.070884,-0.01993906,11.35279,8.999357,-0.1670508,-0.2022729,0.6159485,-0.05722814,-1.545225,-2.172961,0.3474611,1.488876,0.3750184,-0.3049061,0.08153877,-0.1775357,-1.292261,0.6408576,0.0171204,0.528053,1.485838,0.2893634,-0.03768843,1.541612,0.2039682,296.3534,75.02804,159.8015,True
3,0.8888899,-0.5627885,0.2285961,-0.05044986,-1.4588,-4.409563,-1.736664,0.1880028,1.390316,0.3856192,-1.076665,-0.5290202,11.59151,9.727876,-0.1685833,-0.1906426,0.6979967,-0.06251398,-1.39121,-2.324994,0.3464608,1.489552,0.3728919,-0.355947,0.0773142,-0.1728365,-1.294657,0.6416199,0.02213966,0.5271552,1.485574,0.2877259,-0.03687438,1.544721,0.1998307,296.8408,75.94841,158.5652,True
3,0.900001,-0.724887,0.7552884,-0.03099237,-1.484944,-4.414015,-1.722206,0.1865658,1.390569,0.3834972,-1.071254,0.4985779,11.80371,10.5421,-0.1930739,-0.1417313,0.7248458,-0.06879105,-1.296797,-2.416065,0.3451778,1.490051,0.3706388,-0.3738999,0.106062,-0.1609462,-1.296257,0.6436751,0.02606675,0.526192,1.485576,0.2863414,-0.03589509,1.546965,0.1950508,297.4354,76.58004,157.2914,True
3,0.9111122,-0.9390393,1.446559,-0.0845212,-1.525273,-4.422874,-1.703346,0.1851553,1.389356,0.3809333,-1.065304,0.5386948,11.90981,11.46347,-0.2048733,-0.05124593,0.7505723,-0.07731423,-1.242859,-2.467243,0.3439319,1.490507,0.368597,-0.3739023,0.1273778,-0.1630716,-1.298267,0.6460273,0.02948332,0.5250847,1.485409,0.2850628,-0.03552233,1.548893,0.190435,297.5336,76.54895,155.8142,True
3,0.9222233,-1.036722,1.814436,-0.1572212,-1.556001,-4.431223,-1.688129,0.1835425,1.389884,0.3793502,-1.060195,0.4626433,11.93634,12.42768,-0.183933,0.041508,0.744095,-0.08603342,-1.218224,-2.490318,0.3425512,1.490683,0.3666058,-0.3534849,0.1656936,-0.1483224,-1.299302,0.6492805,0.0318016,0.523733,1.485367,0.2837477,-0.03672821,1.551693,0.1874571,297.1471,75.28591,155.2851,True
3,0.9333345,-1.042648,1.665994,-0.2354143,-1.566739,-4.437263,-1.676918,0.1819455,1.391084,0.377661,-1.056282,0.355297,11.83024,13.26334,-0.172214,0.07788916,0.6215209,-0.089291,-1.215824,-2.490982,0.341342,1.490721,0.3646834,-0.2932455,0.1709452,-0.0924712,-1.29851,0.6514109,0.03227245,0.5223534,1.485328,0.282707,-0.03941294,1.556052,0.187273,296.5218,73.16631,156.3816,True
3,0.9444456,-1.063479,1.286382,-0.298748,-1.56815,-4.442848,-1.664058,0.1804079,1.393694,0.3765457,-1.060253,-0.3655583,11.69761,14.27041,-0.1506686,0.0226752,0.487082,-0.08918021,-1.194444,-2.511295,0.3401506,1.49106,0.3632276,-0.1916106,0.1761759,-0.05087668,-1.29786,0.6535679,0.03043913,0.5209602,1.485283,0.2815995,-0.04310473,1.562344,0.1907645,296.1115,70.03008,159.5786,True
3,0.9555568,-0.9576915,0.7371583,-0.2934769,-1.558471,-4.444477,-1.656723,0.1792258,1.396772,0.3759472,-1.065349,-0.4622907,11.45889,14.99893,-0.1231329,-0.1348254,0.3983371,-0.08707152,-1.119865,-2.58511,0.3395153,1.491616,0.3618307,-0.1192337,0.1995735,-0.05903363,-1.298765,0.6566837,0.02866999,0.5198645,1.485294,0.2803407,-0.04680537,1.570088,0.197799,296.5472,67.26042,163.9984,True
3,0.9666679,-0.8466327,0.4490311,-0.2754858,-1.553462,-4.446406,-1.650926,0.1781664,1.399327,0.3748248,-1.064567,0.0748879,11.16711,15.47032,-0.07599682,-0.2433316,0.3872421,-0.08758444,-1.035006,-2.670361,0.3387924,1.492363,0.360369,-0.1015048,0.2134561,-0.09861817,-1.301071,0.6598246,0.02853604,0.5188364,1.485181,0.2789631,-0.0493568,1.577964,0.2068328,298.0552,65.7527,168.5755,True
3,0.977779,-0.660055,0.1664298,-0.2928589,-1.546876,-4.449736,-1.649562,0.1776507,1.40207,0.3749478,-1.070063,-0.5033761,10.87533,15.72745,0.06007248,-0.3782325,0.4351278,-0.09029181,-0.9150068,-2.795177,0.3386011,1.493127,0.3589926,-0.1169816,0.1868791,-0.1538868,-1.30454,0.6610999,0.03002048,0.5178645,1.485088,0.2776012,-0.05048902,1.585646,0.2158,299.9035,65.07838,172.6144,True
3,0.9888902,-0.4733094,0.05616769,-0.3652847,-1.542832,-4.455873,-1.650702,0.1770356,1.404373,0.374131,-1.071982,-0.1715129,10.6366,15.79173,0.2036548,-0.4247258,0.5267068,-0.09705571,-0.8243549,-2.89244,0.3385596,1.493951,0.35726,-0.1721831,0.09964846,-0.2386699,-1.310338,0.6594929,0.03402934,0.5169916,1.485059,0.2760804,-0.04996733,1.592504,0.2227695,301.9302,65.00007,175.5334,True
3,1.000001,-0.4768753,0.09415615,-0.4517193,-1.545843,-4.464241,-1.64465,0.1761423,1.405836,0.3740149,-1.075934,-0.3605516,10.50398,15.68459,0.2679187,-0.3840991,0.5944472,-0.1051086,-0.7795187,-2.941809,0.338079,1.494751,0.3556087,-0.2313193,-0.008926336,-0.2893462,-1.315335,0.6560984,0.03906564,0.516081,1.485021,0.2745776,-0.04830731,1.598289,0.2266094,303.714,65.16117,176.8865,True
3,1.011112,-0.6022983,0.2221316,-0.5393128,-1.552235,-4.473927,-1.633413,0.1750932,1.407368,0.3736782,-1.077913,-0.1787001,10.4244,15.34176,0.3081813,-0.2520149,0.7657789,-0.1194247,-0.7705875,-2.955243,0.338001,1.49597,0.3535557,-0.25647,-0.08662208,-0.3498929,-1.321277,0.6527057,0.04360367,0.515047,1.485046,0.2730777,-0.04613101,1.602641,0.2272332,305.0633,65.99863,176.1734,True
3,1.022224,-0.6918577,0.2119364,-0.5880548,-1.5541,-4.481819,-1.62203,0.1740531,1.409257,0.374048,-1.069926,0.730763,10.37135,14.65609,0.292502,-0.1914064,0.8330563,-0.1301327,-0.7513385,-2.976786,0.3376677,1.496822,0.3518906,-0.2588291,-0.114303,-0.3744328,-1.32648,0.6509111,0.0466498,0.5140401,1.484886,0.2714663,-0.04450183,1.60553,0.2252087,305.9947,67.25478,173.9259,True
3,1.033335,-0.6795592,0.05732977,-0.634306,-1.548874,-4.489902,-1.614986,0.1729616,1.411584,0.3745048,-1.063404,0.5898187,10.3183,13.77759,0.2700617,-0.05516434,0.8855327,-0.1420711,-0.7657765,-2.96446,0.3371563,1.497637,0.3500366,-0.2266784,-0.1239377,-0.354513,-1.329796,0.6492906,0.04842719,0.5129302,1.484887,0.2699008,-0.04432734,1.607545,0.2219056,306.0311,68.43323,170.9809,True
3,1.044446,-0.611572,-0.1619965,-0.675085,-1.53938,-4.498152,-1.610226,0.1721566,1.413909,0.3747821,-1.062797,0.05123855,10.29178,13.47761,0.2847481,0.02371335,0.8876181,-0.1521251,-0.7716709,-2.962304,0.3367249,1.498283,0.3485007,-0.2024884,-0.09416754,-0.2823029,-1.330799,0.6494426,0.04965437,0.5118229,1.485085,0.2684572,-0.0457417,1.609579,0.2188201,305.1954,69.53004,168.2509,True
3,1.055557,-0.5587783,-0.31208,-0.7033428,-1.531199,-4.506389,-1.605394,0.1717103,1.416075,0.3752043,-1.067489,-0.428898,10.34483,13.34904,0.3259797,0.08136976,0.8735186,-0.1617599,-0.7780747,-2.960694,0.336257,1.498846,0.3470209,-0.1802754,-0.05164833,-0.1929874,-1.330022,0.6502227,0.05070339,0.5108571,1.485139,0.2667832,-0.04794226,1.611919,0.2169901,304.0764,70.83418,166.1315,True
3,1.066668,-0.5522597,-0.3569191,-0.7329978,-1.525413,-4.515289,-1.599132,0.1711414,1.418036,0.3755088,-1.070362,-0.2591689,10.47745,13.13477,0.364978,0.06342328,0.8092964,-0.1684508,-0.7702349,-2.973775,0.3357626,1.499286,0.3456609,-0.1723875,-0.04848667,-0.1483154,-1.330359,0.6498724,0.05252419,0.5098468,1.485182,0.2653768,-0.0500772,1.614352,0.216678,303.412,72.42023,164.7274,True
3,1.077779,-0.5811598,-0.3529934,-0.7819487,-1.521948,-4.52553,-1.591063,0.1706931,1.419965,0.375942,-1.070312,0.006215052,10.71618,12.89908,0.3894082,0.01996922,0.6354365,-0.1693909,-0.7616105,-2.987427,0.3355755,1.499859,0.3443336,-0.172959,-0.08901852,-0.09507605,-1.329813,0.6473278,0.05512424,0.5088812,1.485204,0.2637088,-0.0516386,1.616555,0.2176558,303.3014,73.85435,164.037,True
3,1.08889,-0.5715644,-0.3797759,-0.8276671,-1.516626,-4.536179,-1.584482,0.1700876,1.421836,0.3764784,-1.068586,0.1574901,10.98143,12.66338,0.434658,-0.05543333,0.5274401,-0.1712929,-0.7419218,-3.013092,0.3351854,1.500628,0.3430984,-0.1715921,-0.1518943,-0.05567563,-1.328793,0.6436754,0.05838581,0.5079191,1.485185,0.262363,-0.05263114,1.618648,0.2195923,303.4888,74.85094,163.8533,True
3,1.100002,-0.5340669,-0.4382484,-0.8456216,-1.50997,-4.546096,-1.579194,0.1695652,1.423969,0.3780055,-1.066511,0.1884331,11.35279,13.19906,0.5168747,-0.09033173,0.5406671,-0.1776829,-0.7255154,-3.037523,0.3348056,1.501311,0.3418088,-0.1715815,-0.1614853,-0.05461054,-1.329451,0.6415479,0.060723,0.5068527,1.485133,0.2607441,-0.05336178,1.621066,0.2221873,303.7953,75.56813,163.8804,True
3,1.111113,-0.4419433,-0.561483,-0.8613034,-1.499086,-4.556166,-1.576822,0.1689127,1.425732,0.37867,-1.067803,-0.1195991,11.83024,14.69895,0.5892629,-0.05069739,0.5508308,-0.1844931,-0.7260643,-3.045836,0.3342621,1.501935,0.34038,-0.1888771,-0.1465544,-0.08321276,-1.33091,0.6407691,0.0635313,0.5059636,1.484836,0.2589037,-0.05397455,1.624108,0.2252902,304.1533,76.2971,163.893,True
3,1.122224,-0.3907552,-0.5676,-0.849682,-1.492741,-4.56485,-1.573711,0.1685272,1.427201,0.3791435,-1.069174,-0.1244897,12.38727,16.90593,0.6123414,0.006917059,0.5283409,-0.1896123,-0.734633,-3.044651,0.3337548,1.50256,0.3391042,-0.2029654,-0.150759,-0.1022113,-1.333071,0.6390773,0.06690553,0.5050205,1.484902,0.2573333,-0.05439063,1.627569,0.2287322,304.7023,77.22037,163.7414,True
3,1.133335,-0.3343012,-0.5298909,-0.8138322,-1.488258,-4.57337,-1.571212,0.1684913,1.429172,0.3804824,-1.072006,-0.258351,13.02387,19.37004,0.5938003,0.04205024,0.4837605,-0.1935101,-0.7417386,-3.043443,0.3331709,1.503149,0.337738,-0.1934191,-0.1955013,-0.1012531,-1.334028,0.6354637,0.06980092,0.5040478,1.485098,0.2556257,-0.05453573,1.63104,0.2323059,305.458,78.17941,163.6158,True
3,1.144446,-0.266232,-0.4986486,-0.8024037,-1.483776,-4.581883,-1.569807,0.1681075,1.43042,0.380837,-1.071049,0.08915995,13.5809,22.09128,0.5047488,0.03971934,0.3959927,-0.195027,-0.7415902,-3.046154,0.332662,1.503576,0.3363729,-0.1612786,-0.2423975,-0.07601012,-1.333837,0.6315209,0.07189097,0.5030288,1.485111,0.2538996,-0.0544961,1.633941,0.2355066,306.45,79.06383,163.7236,True
3,1.155557,-0.2076226,-0.4908567,-0.782341,-1.478292,-4.5902,-1.568358,0.1676819,1.43154,0.3808422,-1.071038,-2.789931E-05,14.00531,24.6411,0.4393805,0.07576662,0.3592203,-0.1981839,-0.7505909,-3.040208,0.3322324,1.504114,0.335006,-0.1343839,-0.2424479,-0.05070721,-1.333794,0.6286247,0.07318127,0.5020774,1.485179,0.2523232,-0.05452761,1.63621,0.2380519,307.0913,79.68707,163.7625,True
3,1.166668,-0.1895487,-0.4747351,-0.7675366,-1.473502,-4.598385,-1.566027,0.1672777,1.432702,0.3811185,-1.071659,-0.05702715,14.32361,26.89094,0.3999898,0.08096904,0.3648382,-0.2026122,-0.7536234,-3.040624,0.331654,1.504648,0.3336129,-0.1172227,-0.2147635,-0.03803974,-1.333585,0.6273144,0.07466412,0.5010849,1.485156,0.2504723,-0.05481263,1.638021,0.2400011,307.3619,80.36546,163.4238,True
3,1.17778,-0.1906779,-0.4533724,-0.7516389,-1.469207,-4.606237,-1.562834,0.1667326,1.434071,0.3816507,-1.071162,0.04541745,14.50928,28.66938,0.3894013,0.07347834,0.3712988,-0.2069175,-0.754322,-3.043904,0.3310606,1.505068,0.3322833,-0.1063271,-0.182844,-0.01681147,-1.333163,0.6262004,0.07569103,0.5001309,1.485252,0.2488687,-0.05546527,1.639305,0.2413538,307.6193,81.11558,163.0525,True
3,1.188891,-0.1703585,-0.4413273,-0.6952751,-1.464804,-4.612086,-1.561002,0.1660886,1.435215,0.3818004,-1.069753,0.1279151,14.56233,29.22648,0.3828991,0.09370869,0.364971,-0.2108963,-0.7605866,-3.041816,0.3303834,1.505447,0.3310101,-0.1084516,-0.2062726,-0.01360334,-1.3333,0.623123,0.07781144,0.4991471,1.485301,0.2472286,-0.05655618,1.640064,0.242077,307.7478,81.9782,162.5397,True
3,1.200002,-0.1447052,-0.4389305,-0.659126,-1.459992,-4.618211,-1.559654,0.1653503,1.436381,0.3820558,-1.068403,0.122226,14.42971,28.86222,0.3837581,0.1256865,0.3511398,-0.2144857,-0.7710586,-3.035793,0.3297035,1.505805,0.3297136,-0.1158383,-0.2211906,-0.006083697,-1.333365,0.6200725,0.08000482,0.4981127,1.48545,0.245657,-0.05807971,1.640513,0.242322,307.583,82.95927,161.6815,True
3,1.211113,-0.1192736,-0.3864436,-0.6178591,-1.457615,-4.623626,-1.558668,0.1645787,1.437248,0.3820574,-1.069209,-0.07480625,14.2175,27.70516,0.3686408,0.1480224,0.331023,-0.2177203,-0.7805368,-3.030221,0.3288062,1.506305,0.3285594,-0.1240908,-0.2403761,0.0227457,-1.332359,0.6167709,0.0825279,0.4971269,1.485558,0.2440605,-0.05990766,1.640955,0.2423531,307.194,83.95184,160.6863,True
3,1.222224,-0.09831952,-0.3021502,-0.6054846,-1.457071,-4.630178,-1.557411,0.1640096,1.437987,0.3819859,-1.06959,-0.03441679,13.87268,26.05528,0.3128976,0.126584,0.2749569,-0.2189827,-0.7826958,-3.029639,0.327842,1.506851,0.3272693,-0.1226817,-0.2436172,0.05681356,-1.330849,0.6135848,0.08456948,0.4961628,1.485723,0.2425177,-0.06175011,1.641392,0.2423193,306.8485,84.79865,159.9129,True
3,1.233335,-0.08696315,-0.2265022,-0.6122302,-1.456852,-4.637436,-1.555827,0.1634158,1.438394,0.3816276,-1.069618,-0.002490542,13.55437,24.57681,0.2485059,0.08490446,0.1922977,-0.2182535,-0.7807201,-3.03225,0.3267692,1.507507,0.3259404,-0.1192127,-0.2329824,0.08342541,-1.329134,0.611333,0.08629628,0.4951452,1.485793,0.2411165,-0.0634769,1.641832,0.2423176,306.6449,85.58114,159.2415,True
3,1.244446,-0.1000398,-0.1605118,-0.6124786,-1.457399,-4.644353,-1.553527,0.1627404,1.438872,0.3816605,-1.069177,0.04016627,13.2626,23.46261,0.216392,0.1316726,0.1893747,-0.2207942,-0.7930191,-3.021879,0.3256528,1.508145,0.3245339,-0.1351991,-0.193557,0.07936602,-1.328485,0.610407,0.08848086,0.4939933,1.485948,0.2396309,-0.06502925,1.642295,0.2424846,306.5399,86.16178,158.7471,True
3,1.255558,-0.09896448,-0.1562026,-0.6007907,-1.455538,-4.650746,-1.551649,0.1620791,1.439511,0.3813076,-1.06837,0.07298225,13.02387,22.90551,0.2408067,0.2031035,0.2084366,-0.2243585,-0.8115816,-3.007215,0.3247528,1.508537,0.3231332,-0.1888185,-0.1221073,0.03949065,-1.329338,0.6115072,0.09207773,0.49297,1.486198,0.2381999,-0.06641722,1.642822,0.2429974,306.5231,86.6693,158.3702,True
3,1.266669,-0.05300234,-0.1707517,-0.5624847,-1.453232,-4.655693,-1.552033,0.161492,1.440169,0.3812392,-1.066874,0.1354887,12.78515,22.99121,0.2340801,0.2478489,0.1818884,-0.2260198,-0.8288346,-2.992766,0.3238041,1.508839,0.3218012,-0.2027938,-0.1167511,0.0268504,-1.329507,0.6103821,0.09500561,0.491868,1.486371,0.2367866,-0.06769895,1.643423,0.243959,306.6089,87.15462,158.1061,True
3,1.27778,0.009138171,-0.2075865,-0.5359074,-1.449741,-4.662111,-1.554218,0.1614545,1.441931,0.3842769,-1.066317,0.04904454,12.57294,23.6126,0.220059,0.2808422,0.1734863,-0.228072,-0.8465382,-2.977379,0.3227376,1.509071,0.320585,-0.1888076,-0.1370301,0.04159997,-1.328852,0.6078359,0.09720085,0.490808,1.486519,0.2353773,-0.06896876,1.644214,0.2453923,306.7036,87.5243,158.0805,True
3,1.288891,-0.01129315,-0.1349868,-0.4765102,-1.450686,-4.665554,-1.552793,0.161019,1.442171,0.3840213,-1.067283,-0.08979579,12.33422,24.49111,0.2202661,0.2499344,0.1862398,-0.2309829,-0.851946,-2.974841,0.3217633,1.509443,0.3194358,-0.1299556,-0.1551995,0.06869026,-1.327373,0.605344,0.09740511,0.4897188,1.486591,0.2338994,-0.07020449,1.64512,0.2470634,306.8196,87.82674,158.3677,True
3,1.300002,-0.01683736,-0.05389217,-0.4513346,-1.453225,-4.671223,-1.551951,0.1605684,1.443367,0.3871341,-1.067868,-0.05401409,12.06897,25.36962,0.2137895,0.2296914,0.1671001,-0.2325334,-0.8591003,-2.970015,0.3207757,1.509821,0.3182142,-0.08925271,-0.1520589,0.08959106,-1.325829,0.6034477,0.09742749,0.4884837,1.486795,0.2324457,-0.07132032,1.645875,0.2488571,306.8786,88.3336,158.1844,True
3,1.311113,-0.01830855,0.05813453,-0.409185,-1.457955,-4.674254,-1.551363,0.1599186,1.443434,0.3869421,-1.062187,0.5182987,11.77719,25.94815,0.2125601,0.2126668,0.1362008,-0.2332807,-0.8667032,-2.965058,0.3198151,1.510307,0.3170986,-0.08278453,-0.1478017,0.09698625,-1.324658,0.6019179,0.09857052,0.487394,1.487082,0.2309897,-0.07238943,1.646402,0.2510957,306.9102,88.9341,157.604,True
3,1.322224,0.004756074,0.1520717,-0.387266,-1.462553,-4.678089,-1.551722,0.1590231,1.443239,0.3863881,-1.060606,0.1385849,11.45889,26.2267,0.2251999,0.1903748,0.1062474,-0.2336594,-0.8732907,-2.961689,0.3187656,1.510491,0.3159099,-0.1169316,-0.1637612,0.09198281,-1.324174,0.5993177,0.1016779,0.4863508,1.487272,0.229507,-0.07361618,1.646909,0.2536343,306.8318,89.02785,157.6667,True
3,1.333336,0.04198301,0.1639401,-0.3905852,-1.464838,-4.682586,-1.552989,0.1583419,1.443388,0.3861806,-1.058609,0.1802331,11.08753,26.24813,0.2111369,0.202076,0.08292005,-0.2342394,-0.8847468,-2.952348,0.3178502,1.510717,0.3147004,-0.1318506,-0.1946349,0.09423687,-1.323355,0.5960118,0.1045291,0.4852722,1.487354,0.2279122,-0.07508465,1.647648,0.2567705,306.6976,89.07116,157.7393,True
3,1.344447,0.04980496,0.08733055,-0.3764327,-1.463395,-4.686434,-1.553401,0.1577526,1.443625,0.3860457,-1.057448,0.1031168,10.74271,25.69102,0.2175131,0.2447108,0.09995553,-0.2369654,-0.9016281,-2.938483,0.3169651,1.510737,0.3133659,-0.1318444,-0.2351126,0.09739003,-1.322627,0.591819,0.1069025,0.4841148,1.487493,0.2264962,-0.07672548,1.648447,0.2601261,306.7004,88.48145,159.1396,True
3,1.355558,0.04378707,0.02026427,-0.3505998,-1.460432,-4.689769,-1.553283,0.1569226,1.443213,0.3819275,-1.05613,0.1178848,10.4244,24.8768,0.219311,0.2394281,0.05306036,-0.2363747,-0.9128554,-2.930037,0.316158,1.510739,0.3122637,-0.09112532,-0.2415633,0.1204126,-1.32081,0.5885042,0.1071941,0.4829899,1.487628,0.2251184,-0.07851231,1.649,0.2632047,306.8215,87.90903,160.7925,True
3,1.366669,0.0459696,0.0160836,-0.3335417,-1.460507,-4.692914,-1.553523,0.1563842,1.443427,0.3815994,-1.052745,0.3065092,10.15915,23.91258,0.2033934,0.1680238,0.03074284,-0.2356466,-0.9108586,-2.933662,0.3154016,1.510877,0.311552,-0.04199159,-0.2288161,0.132716,-1.319145,0.5863434,0.1065645,0.4818767,1.487835,0.223824,-0.08040637,1.649049,0.2656534,306.8661,87.77496,161.8435,True
3,1.37778,0.05540422,0.06307563,-0.3113965,-1.462882,-4.695739,-1.554172,0.1557421,1.443608,0.380847,-1.049458,0.2959759,9.973473,22.90551,0.2078819,0.1445834,0.05200442,-0.2371918,-0.9131742,-2.9338,0.3143799,1.511083,0.3105795,-0.01757031,-0.2139196,0.122898,-1.31835,0.5841606,0.1064458,0.4807672,1.488068,0.2225523,-0.08241756,1.648564,0.2670217,306.8016,87.73917,162.9425,True
3,1.388891,0.04563671,0.1121121,-0.2934723,-1.465825,-4.698377,-1.554107,0.155073,1.443837,0.3804967,-1.047133,0.2084131,9.8939,22.17699,0.2122991,0.1349664,0.0658022,-0.2384701,-0.9160363,-2.933916,0.3133846,1.511496,0.3099551,-0.02931424,-0.1989856,0.1198389,-1.31723,0.5823648,0.1077078,0.4796136,1.488157,0.2212448,-0.08456689,1.647615,0.2665698,306.5764,87.82632,163.8357,True
3,1.400002,0.03063297,0.1514753,-0.2830329,-1.467867,-4.702435,-1.553737,0.1545796,1.443766,0.3795197,-1.044891,0.2014969,9.814323,21.59846,0.2004504,0.1605122,0.05845231,-0.2393633,-0.9271851,-2.924984,0.3123651,1.511697,0.3087966,-0.0443998,-0.2032275,0.1029365,-1.316936,0.5797207,0.1094048,0.4784896,1.488322,0.2200441,-0.08669465,1.646374,0.2647831,306.0191,88.34148,163.0295,True
3,1.411114,0.03155687,0.1877396,-0.2735988,-1.4712,-4.705149,-1.553854,0.1539831,1.443928,0.3790457,-1.041478,0.3084848,9.814323,21.16991,0.2111409,0.1786454,0.07117151,-0.2411311,-0.9368729,-2.918293,0.3114259,1.511873,0.3078289,-0.03390627,-0.1936242,0.08686212,-1.316674,0.5778608,0.1099358,0.4773587,1.488505,0.2188761,-0.08879801,1.645195,0.2624346,305.394,88.93358,161.5011,True
3,1.422225,0.04431484,0.1963444,-0.2672661,-1.473842,-4.707863,-1.554455,0.1533854,1.444019,0.3785257,-1.038384,0.2782387,9.973473,20.89137,0.2261583,0.1456693,0.07103432,-0.2420206,-0.9378788,-2.920442,0.3103419,1.511877,0.3068318,-0.0002123639,-0.1840275,0.04604894,-1.317753,0.576103,0.1091009,0.4761799,1.488639,0.2177179,-0.09081011,1.644269,0.2602756,304.8781,89.51385,160.0208,True
3,1.433336,0.05718965,0.1750903,-0.2682656,-1.475134,-4.710911,-1.555226,0.1527288,1.444141,0.3780413,-1.035726,0.2384813,10.2122,20.6771,0.1621269,0.1571931,0.05979993,-0.2428079,-0.9463684,-2.911971,0.3092951,1.511958,0.3058751,0.01035051,-0.1637841,0.03530555,-1.317821,0.5748777,0.108918,0.475044,1.488938,0.2164693,-0.09262435,1.643588,0.2587546,304.5361,90.04349,158.9748,True
3,1.444447,0.05830343,0.1697902,-0.258667,-1.476454,1.569611,-1.55573,0.1519132,1.444028,0.3771086,-1.033103,0.2357272,10.5305,20.22713,0.1484327,0.1390236,0.07160994,-0.2441831,-0.9486715,-2.911199,0.3082951,1.512064,0.3049307,-0.007617548,-0.1712323,0.05039595,-1.316967,0.5727027,0.1102077,0.4738776,1.489106,0.2153261,-0.09426007,1.643226,0.2581547,304.3136,90.26068,158.503,True
3,1.455558,0.04549728,0.1825835,-0.241657,-1.478764,1.567483,-1.555578,0.1511811,1.443943,0.3764491,-1.030039,0.275754,10.79576,19.54146,0.1515118,0.1379823,0.05560485,-0.2446646,-0.954658,-2.907182,0.3075216,1.512351,0.3040504,-0.01890345,-0.1755319,0.09311864,-1.314876,0.5701922,0.1113526,0.4726594,1.489255,0.2141812,-0.09575029,1.643064,0.2585042,304.2516,90.24899,158.6115,True
3,1.466669,-0.001538288,0.2325769,-0.2108883,-1.483035,1.566335,-1.5539,0.1504154,1.443897,0.3759265,-1.026309,0.3362535,11.00796,18.6201,0.165257,0.1263186,0.03525702,-0.2446795,-0.9589263,-2.905487,0.3065852,1.512459,0.3031147,-0.01431139,-0.1606451,0.1250467,-1.312651,0.5687179,0.1116951,0.4714605,1.489395,0.2130554,-0.09721711,1.642968,0.2596186,304.3291,90.12532,159.1799,True
3,1.47778,-0.01225878,0.2592826,-0.1832865,-1.486853,1.565102,-1.553275,0.1497199,1.443875,0.3755045,-1.022071,0.3822052,11.16711,17.57017,0.1738158,0.1625487,0.05546509,-0.2465544,-0.9691195,-2.897763,0.3056591,1.51259,0.3022585,-0.02254414,-0.1500208,0.1528375,-1.310277,0.5669652,0.1126304,0.4704568,1.489652,0.211973,-0.09878287,1.642812,0.2611647,304.4111,89.82696,160.1223,True
3,1.488891,0.001642464,0.2508567,-0.1747537,-1.489392,1.563481,-1.553596,0.1490024,1.443919,0.3749702,-1.017039,0.4547831,11.32626,16.62738,0.172835,0.1859588,0.07573327,-0.2487041,-0.9785002,-2.890638,0.3047219,1.512738,0.3015535,-0.03207419,-0.1542744,0.1593228,-1.308548,0.5649545,0.1138592,0.4693315,1.489758,0.2109182,-0.1004973,1.642601,0.2628747,304.3138,89.40278,161.1318,True
3,1.500003,0.01025381,0.2274484,-0.1768051,-1.491058,1.561384,-1.553891,0.1479052,1.443447,0.3746245,-1.014736,0.2046752,11.32626,15.83458,0.1524599,0.1582207,0.04497099,-0.2484495,-0.9820276,-2.888351,0.3038802,1.51291,0.3006766,-0.03441726,-0.1894153,0.140137,-1.307986,0.5614472,0.1151974,0.4682477,1.489966,0.2099423,-0.1023188,1.642491,0.26456,304.0037,88.89194,162.1214,True
3,1.511114,0.009136066,0.238083,-0.1800439,-1.494078,1.559294,-1.553803,0.1471872,1.443315,0.3741314,-1.012662,0.1859422,11.32626,15.02035,0.1247885,0.1474818,0.04410311,-0.2491936,-0.9864389,-2.884511,0.3029824,1.512999,0.2999389,-0.03246332,-0.210701,0.1241178,-1.307495,0.5583169,0.1162875,0.4671265,1.490174,0.2089558,-0.1040749,1.642427,0.2660705,303.7177,88.50906,162.9613,True
3,1.522225,-0.009229927,0.2955573,-0.1738639,-1.499533,1.557594,-1.552698,0.1464933,1.442992,0.3737023,-1.009542,0.2814274,11.32626,14.20613,0.1098644,0.1399893,0.03993371,-0.2497257,-0.9919764,-2.879814,0.3020214,1.513082,0.2992423,-0.02199033,-0.1915149,0.1048541,-1.307163,0.5566589,0.1166052,0.4659953,1.490324,0.2080717,-0.1057167,1.642244,0.2672651,303.6526,88.33863,163.5478,True
3,1.533336,-0.03709384,0.337018,-0.1654657,-1.504776,1.556164,-1.551221,0.1457833,1.442873,0.373343,-1.005904,0.3279631,11.37931,13.32762,0.1257611,0.1230116,0.02061965,-0.2494892,-0.9957495,-2.878279,0.3013159,1.513183,0.2985954,-0.003778312,-0.1339995,0.1111174,-1.305605,0.5571619,0.1159072,0.4649113,1.490395,0.2072484,-0.1073299,1.641778,0.2681057,303.703,88.24965,163.884,True
3,1.544447,-0.01994758,0.3136856,-0.1579451,-1.507489,1.5547,-1.551271,0.1451796,1.442686,0.3730552,-1.00164,0.3850054,11.59151,12.49196,0.1471567,0.1102817,0.02577719,-0.2501337,-0.9981256,-2.878504,0.3005504,1.513249,0.2980313,0.001588622,-0.1063076,0.1132202,-1.304298,0.5567509,0.1158222,0.4638217,1.490501,0.2064221,-0.1090044,1.641168,0.2686615,303.5488,88.08606,164.1096,True
3,1.555558,-0.002812454,0.2892441,-0.1610704,-1.509787,1.552792,-1.551616,0.144527,1.442618,0.3727174,-0.9980766,0.3205785,11.80371,11.69916,0.157801,0.08476742,0.01396091,-0.2500847,-0.9993182,-2.879426,0.2996795,1.513297,0.2974389,0.005627362,-0.08605368,0.08976273,-1.304133,0.5562539,0.1158009,0.4627764,1.490601,0.205678,-0.1107281,1.640607,0.269116,303.201,87.80033,164.335,True
3,1.566669,0.008977594,0.2657861,-0.1780421,-1.512007,1.550151,-1.551961,0.1438623,1.442456,0.3725216,-0.996672,0.1239834,12.01592,11.0135,0.1354812,0.06551828,0.01198197,-0.250147,-0.999626,-2.880037,0.2988183,1.51334,0.2968991,-0.0009606276,-0.09348419,0.07064629,-1.304155,0.5549124,0.11637,0.461841,1.490715,0.204994,-0.1123987,1.640237,0.2695881,302.819,87.56503,164.571,True
3,1.577781,0.005006325,0.1954141,-0.1852008,-1.511875,1.54776,-1.55156,0.1431637,1.442801,0.3722742,-0.9943253,0.2117532,12.22811,10.37069,0.1184515,0.0814485,0.02170407,-0.2510764,-1.00549,-2.874987,0.297778,1.513438,0.2962861,0.005303387,-0.1147865,0.05992046,-1.303906,0.5527188,0.1167543,0.4608418,1.490794,0.2043366,-0.1138467,1.639891,0.2700844,302.6176,87.50959,164.7525,True
3,1.588892,0.01807011,0.1337091,-0.1796432,-1.511446,1.54582,-1.552007,0.1424999,1.443055,0.3722234,-0.9915918,0.2461811,12.41379,9.706447,0.1161672,0.1187268,0.01642476,-0.2517992,-1.015557,-2.866458,0.2969681,1.513518,0.2958703,0.009619625,-0.1169217,0.0652001,-1.303136,0.5512355,0.1168246,0.4598809,1.490834,0.2037473,-0.1151583,1.63955,0.2706075,302.5659,87.52902,164.8674,True
3,1.600003,0.04199075,0.01981793,-0.1813428,-1.507994,1.543654,-1.55299,0.1418692,1.443343,0.372174,-0.9883758,0.2905602,12.44032,9.020782,0.1471349,0.09965245,0.01830675,-0.2521694,-1.017545,-2.86725,0.2962114,1.513629,0.29548,0.002046723,-0.1041294,0.05250525,-1.303005,0.5503716,0.1172137,0.4589124,1.490957,0.203172,-0.1164572,1.639227,0.2712094,302.5487,87.58198,164.9339,True
3,1.611114,0.05815688,-0.04186836,-0.1779311,-1.506165,1.541533,-1.552879,0.1417673,1.443128,0.372201,-0.9870144,0.1208581,12.41379,8.292264,0.1525373,0.06025077,0.01077502,-0.2517763,-1.014425,-2.872326,0.2953793,1.51377,0.2951636,-0.01077477,-0.09453487,0.04838429,-1.30265,0.5494867,0.1180409,0.4579988,1.491137,0.2026355,-0.1178423,1.63905,0.2718215,302.439,87.72422,164.9784,True
3,1.622225,0.05291013,-0.06107554,-0.1799702,-1.504736,1.539431,-1.553224,0.1411916,1.443095,0.3722258,-0.9858255,0.1067347,12.30769,7.6066,0.1323156,0.01971991,-0.002953298,-0.2509955,-1.009889,-2.877344,0.2945513,1.513702,0.2948825,-0.0191611,-0.07535829,0.06020441,-1.301587,0.5492238,0.1185309,0.4570161,1.491211,0.2021656,-0.1191817,1.63887,0.2723793,302.3419,87.93004,165.0024,True
3,1.633336,0.03158505,-0.05583292,-0.1778212,-1.504332,1.537494,-1.552753,0.1405661,1.443167,0.3722329,-0.9831864,0.2394526,12.20159,6.920932,0.1152226,0.0505533,0.002529734,-0.2517151,-1.016591,-2.871625,0.2938138,1.513835,0.2945828,-0.02447097,-0.06577881,0.06132839,-1.30099,0.548553,0.1191578,0.4560291,1.491263,0.201745,-0.1203334,1.638424,0.2727663,302.2856,88.28278,164.8919,True
3,1.644447,0.01047762,-0.08787646,-0.1723862,-1.502034,1.534645,-1.552274,0.1399657,1.444025,0.372169,-0.9821653,0.09054334,12.14854,6.170985,0.1034611,0.07714437,0.007966535,-0.2525007,-1.023341,-2.865828,0.2930276,1.513885,0.2942276,-0.02245026,-0.05405095,0.04960026,-1.300873,0.54836,0.1193802,0.4550631,1.491332,0.2014217,-0.1212153,1.637664,0.2729982,302.1666,88.59453,164.6883,True
3,1.655559,0.005301594,-0.1176936,-0.1647898,-1.499753,1.533036,-1.552221,0.1389731,1.444285,0.3722363,-0.9802681,0.1721874,12.28117,5.378185,0.08747195,0.09201032,0.01341418,-0.2531004,-1.029363,-2.860351,0.29216,1.513946,0.2939544,-0.01304851,-0.02741266,0.02929599,-1.301113,0.5488945,0.1190449,0.4540067,1.491526,0.2011032,-0.1221433,1.636965,0.2731237,302.0595,88.84874,164.4323,True
3,1.66667,0.004427471,-0.15707,-0.1539743,-1.496557,1.531512,-1.552121,0.1383899,1.444618,0.3721852,-0.9793077,0.08580972,12.46684,4.628239,0.09413448,0.06430852,0.03784074,-0.2542131,-1.026682,-2.864295,0.2914546,1.513971,0.2937148,0.02627166,0.005596927,0.01721244,-1.30119,0.5502095,0.1170315,0.4531252,1.491621,0.2008049,-0.1232843,1.636626,0.2732112,301.8662,89.08456,164.186,True
3,1.677781,0.001308468,-0.1730638,-0.154968,-1.494237,1.529596,-1.552045,0.1375821,1.445072,0.3721793,-0.9788874,0.03731968,12.62599,3.985428,0.08363733,0.02806086,0.04321506,-0.2546408,-1.022668,-2.868766,0.2908658,1.514055,0.2934787,0.04740978,0.006654527,0.00101565,-1.301787,0.5502191,0.1158643,0.4523201,1.491763,0.2004659,-0.124629,1.636784,0.2732763,301.695,89.53536,163.8083,True
3,1.688892,0.002327065,-0.1783442,-0.1528442,-1.492813,1.527395,-1.5511,0.1371639,1.445089,0.3722456,-0.978202,0.06200255,12.7321,3.59974,0.0975512,-0.0006588772,0.03882729,-0.2545684,-1.018635,-2.874309,0.2901596,1.514287,0.2933028,0.05558689,-0.01675558,-0.03105358,-1.303442,0.5492714,0.1153868,0.4514985,1.491871,0.2002106,-0.1258929,1.637058,0.2733258,301.6921,89.88239,163.5551,True
3,1.700003,0.003469308,-0.1910729,-0.1410735,-1.490287,1.526191,-1.551073,0.1364947,1.445508,0.3722169,-0.9776576,0.0488726,12.75862,3.342617,0.1093819,-0.001693413,0.05365816,-0.2557359,-1.017648,-2.876909,0.2895107,1.514479,0.2929835,0.03725956,-0.03802994,-0.05113119,-1.304911,0.5481909,0.1159144,0.4506633,1.491962,0.1999013,-0.1269333,1.637244,0.2732962,301.72,90.18811,163.3606,True
3,1.711114,0.002439879,-0.1974502,-0.1378546,-1.488006,1.524587,-1.550996,0.1356649,1.446095,0.3722079,-0.9763314,0.1205795,12.59947,3.364045,0.1124814,0.00897257,0.04511872,-0.2560459,-1.019181,-2.876788,0.2887665,1.514553,0.2926569,0.008608958,-0.03696609,-0.0401909,-1.304956,0.5476976,0.1169133,0.449818,1.491974,0.1995745,-0.1278122,1.637352,0.2732202,301.76,90.51653,163.0599,True
3,1.722225,-0.004053351,-0.1718887,-0.1326239,-1.487044,1.523291,-1.55059,0.1349692,1.446447,0.3721004,-0.9766882,-0.03381037,12.28117,3.749732,0.09437487,0.008917727,0.04632653,-0.2566296,-1.019156,-2.877103,0.2878784,1.514735,0.292315,-0.01141276,-0.03164612,-0.01867753,-1.304464,0.5474505,0.1178063,0.4489374,1.492132,0.1992562,-0.1284658,1.637338,0.2731933,301.7529,90.81365,162.7457,True
3,1.733337,-0.01790326,-0.1676522,-0.1240885,-1.485389,1.522256,-1.549846,0.1341011,1.446854,0.3720131,-0.9764123,0.02534441,11.75066,4.435397,0.06458468,0.02798018,0.05829199,-0.2580241,-1.020975,-2.875176,0.2871394,1.514902,0.2920427,-0.00787178,-0.01677225,0.01432389,-1.303227,0.5475412,0.1176497,0.4480016,1.492234,0.1989787,-0.1291351,1.637456,0.2731654,301.7724,91.0923,162.5103,True
3,1.744448,-0.03499201,-0.1559843,-0.1198504,-1.484081,1.520963,-1.548764,0.133423,1.447226,0.3720088,-0.9757375,0.0612897,11.00796,5.378185,0.04752681,0.04176743,0.06162724,-0.2590025,-1.023452,-2.872842,0.286372,1.515095,0.2917321,0.004040638,-0.01892518,0.03337701,-1.302326,0.5471856,0.1172401,0.44708,1.492413,0.1987233,-0.1299408,1.637774,0.2731199,301.817,91.34855,162.3049,True
3,1.755559,-0.04462228,-0.134713,-0.1136046,-1.482749,1.518893,-1.548107,0.1331146,1.447946,0.3718257,-0.9750882,0.05865988,10.26525,6.14956,0.03904842,0.04280763,0.06914429,-0.260063,-1.024606,-2.871791,0.2855049,1.515357,0.2913115,-0.0002273722,-0.01892615,0.03342275,-1.30202,0.5468308,0.1175895,0.4461985,1.492559,0.1984615,-0.1308004,1.638178,0.273083,301.8611,91.4973,162.1958,True
3,1.76667,-0.06183044,-0.08997395,-0.09672523,-1.483328,1.518333,-1.546765,0.1325109,1.448237,0.3716187,-0.9745694,0.04688524,9.549072,6.792371,0.05076301,0.05562152,0.07333063,-0.2612753,-1.027456,-2.870094,0.2847855,1.515538,0.2909138,-0.006584289,-0.007202241,0.03562537,-1.30154,0.5471569,0.1177338,0.4453303,1.492707,0.1982031,-0.13169,1.638626,0.2730366,301.8972,91.66006,162.0799,True
3,1.777781,-0.07050566,-0.05055901,-0.08941677,-1.484241,1.517647,-1.545722,0.131609,1.448378,0.3715146,-0.9749129,-0.03180034,8.859415,7.328047,0.04978783,0.06200501,0.08824953,-0.2628673,-1.029853,-2.868282,0.2840632,1.515746,0.2905653,-0.01626055,0.003461706,0.02615314,-1.301424,0.547509,0.1181639,0.4444335,1.492814,0.1979251,-0.1324954,1.639079,0.2729996,301.8375,91.88136,161.9018,True
3,1.788892,-0.06739356,-0.0259912,-0.07887395,-1.484802,1.517073,-1.545155,0.1309341,1.448585,0.371346,-0.9740655,0.07772788,8.249334,7.73516,0.0390026,0.05772398,0.0680805,-0.2629632,-1.031421,-2.866887,0.2834103,1.51597,0.2902832,-0.01535234,0.001348453,0.01015822,-1.301963,0.5475902,0.1181831,0.4436024,1.492915,0.1977017,-0.1331394,1.639586,0.2730041,301.7495,92.12794,161.7074,True
3,1.800003,-0.06212499,-0.009961627,-0.07256025,-1.485284,1.516509,-1.544611,0.1303931,1.448904,0.3711343,-0.9742344,-0.01613997,7.798407,7.842295,0.04741509,0.04178925,0.04669755,-0.2627102,-1.031395,-2.867737,0.2827577,1.516202,0.289958,-0.01434961,-0.011433,0.004813097,-1.302097,0.5469486,0.1184582,0.4428058,1.493066,0.197464,-0.1336422,1.640188,0.2730735,301.7792,92.10252,161.7491,True
3,1.811115,-0.05474841,0.01139002,-0.06947074,-1.486098,1.515823,-1.544305,0.1298502,1.449186,0.3708966,-0.9746909,-0.0415642,7.533155,7.756588,0.04854361,0.02262122,0.04667687,-0.26318,-1.029408,-2.870316,0.2821872,1.516374,0.2896004,-0.01229341,-0.009300838,-0.002667192,-1.302402,0.5468934,0.1185645,0.4420981,1.493225,0.1972103,-0.1340903,1.640872,0.2732107,301.9454,91.96111,161.9123,True
3,1.822226,-0.04836865,0.01461805,-0.0684305,-1.486428,1.515101,-1.543938,0.129313,1.449584,0.3707371,-0.9746892,0.00042937,7.480105,7.563743,0.05087429,0.03005999,0.07649478,-0.2652152,-1.029631,-2.870734,0.2816116,1.516576,0.2892449,-0.0100434,0.008797627,0.007980913,-1.301878,0.547558,0.1184332,0.4413401,1.493351,0.1969318,-0.1344775,1.641526,0.2733822,302.1078,91.84696,162.0971,True
3,1.833337,-0.05591603,0.03376139,-0.06850109,-1.487415,1.514319,-1.542849,0.1289346,1.450012,0.3706083,-0.9748427,-0.01411402,7.612731,7.328047,0.04244713,0.04919817,0.09787674,-0.2672898,-1.032722,-2.867848,0.2810612,1.516863,0.2888532,-0.003595999,0.01837383,0.01324804,-1.301524,0.548044,0.1181778,0.44061,1.493443,0.1966264,-0.1348392,1.642136,0.2735465,302.2076,91.78409,162.2533,True
3,1.844448,-0.06338038,0.03048465,-0.08019473,-1.487721,1.512985,-1.541736,0.1285233,1.450487,0.3704948,-0.9747063,0.01247026,7.877984,7.392329,0.05112281,0.06517784,0.1244566,-0.2697692,-1.034839,-2.866711,0.2805211,1.517198,0.2886252,-0.001607795,0.01412442,-0.0006255824,-1.302033,0.5481105,0.1181144,0.4398925,1.493571,0.196311,-0.1352193,1.642708,0.2736913,302.2797,91.74801,162.3647,True
3,1.855559,-0.06759419,0.01874433,-0.08226969,-1.487574,1.511932,-1.540764,0.1281357,1.450839,0.3703532,-0.9739047,0.07314743,8.116709,7.6066,0.06916645,0.05672656,0.1126013,-0.2707391,-1.035254,-2.867673,0.2798635,1.517423,0.2882783,-0.003834066,-0.009300543,-0.00914868,-1.302563,0.5472029,0.1183954,0.4391555,1.493798,0.1961064,-0.1356523,1.643267,0.2738177,302.3061,91.74915,162.4048,True
3,1.86667,-0.06758621,0.01553492,-0.08545349,-1.48764,1.51085,-1.539942,0.1278634,1.451192,0.3701515,-0.9738264,0.006568055,8.381961,7.82087,0.06359006,0.0492798,0.07535145,-0.2702491,-1.036451,-2.867133,0.2792634,1.517595,0.2880013,-0.01125776,-0.0252785,-0.004828309,-1.302598,0.5463598,0.1190113,0.4384801,1.493997,0.1957986,-0.1361079,1.643872,0.2739586,302.2646,91.77235,162.4041,True
3,1.877781,-0.06344991,0.04110517,-0.08876319,-1.489044,1.50986,-1.539182,0.1276492,1.451505,0.3699658,-0.9739585,-0.01210103,8.620689,7.992284,0.0570844,0.04289234,0.05728134,-0.2704179,-1.037788,-2.866239,0.2786498,1.517841,0.2876995,-0.01956505,-0.03275548,0.01762389,-1.301689,0.545603,0.1198012,0.4377593,1.494246,0.1954029,-0.1365365,1.644532,0.2741343,302.2525,91.87415,162.3597,True
3,1.888893,-0.07208215,0.06555951,-0.09098655,-1.490679,1.508784,-1.53797,0.1273774,1.451817,0.369813,-0.9741294,-0.01552913,8.859415,8.056565,0.06239371,0.04184517,0.05404729,-0.2711066,-1.038799,-2.866192,0.2780603,1.518172,0.287297,-0.02156207,-0.04022815,0.03148209,-1.30106,0.5447585,0.120304,0.4370486,1.494371,0.1950588,-0.1368542,1.645163,0.2743249,302.2886,91.95098,162.3769,True
3,1.900004,-0.09009893,0.04095319,-0.09830116,-1.490451,1.507498,-1.536165,0.1271136,1.452129,0.3697953,-0.9741902,-0.005395747,9.045091,7.94943,0.06673402,0.03439525,0.0614658,-0.2720552,-1.03828,-2.867613,0.2774876,1.518486,0.286967,-0.0300239,-0.03063985,0.0369031,-1.300466,0.5446313,0.1209296,0.4363477,1.494462,0.19471,-0.1370479,1.645755,0.2745093,302.3291,91.96071,162.4494,True
3,1.911115,-0.06535865,-0.01648837,-0.1034237,-1.488335,1.506092,-1.536238,0.1267947,1.452519,0.3696082,-0.9737401,0.04115679,9.098145,7.713735,0.06135638,0.04610437,0.0593871,-0.2729335,-1.041284,-2.865215,0.2768846,1.518627,0.2865098,-0.02892816,-0.02211567,0.03903016,-1.29998,0.5447051,0.1211533,0.4356486,1.494591,0.1943996,-0.1371601,1.646367,0.2747241,302.369,91.88532,162.5544,True
3,1.922226,0.004291738,-0.1174644,-0.1201582,-1.483598,1.504086,-1.538533,0.1265059,1.452734,0.3695934,-0.9731478,0.05383237,9.045091,7.349473,0.06571485,0.06846985,0.08174536,-0.2749634,-1.045253,-2.862264,0.2764314,1.518706,0.2861311,-0.02662004,-0.01361763,0.05606605,-1.298686,0.5446338,0.1214452,0.4351893,1.494606,0.1940379,-0.1372453,1.647054,0.2750007,302.4372,91.84109,162.635,True
3,1.933337,0.01604828,-0.1206559,-0.1255507,-1.481872,1.501534,-1.53905,0.1265291,1.453303,0.3693895,-0.975003,-0.1700811,8.912464,6.878078,0.04787998,0.08115628,0.1234386,-0.2780383,-1.046649,-2.860926,0.2761955,1.518482,0.2857327,0.0001506396,-0.01365147,0.06964536,-1.297536,0.5442528,0.1206702,0.4347555,1.494606,0.193701,-0.1372945,1.647784,0.2752901,302.5505,91.95915,162.6507,True
3,1.944448,-0.005282565,-0.1111193,-0.1159679,-1.481043,1.500573,-1.538223,0.1261793,1.453345,0.3693738,-0.9773567,-0.2137373,8.779839,6.342402,0.02127657,0.09490752,0.133241,-0.280107,-1.049777,-2.857206,0.2759101,1.518489,0.2855487,0.02467616,-0.0243239,0.07258435,-1.296698,0.5434957,0.1197669,0.4342836,1.494664,0.1933365,-0.1372966,1.64835,0.2754642,302.8116,92.25583,162.5859,True
3,1.955559,-0.02550967,-0.1005119,-0.1011112,-1.479891,1.499308,-1.537413,0.1258189,1.453602,0.3693962,-0.9755915,0.1628265,8.594163,6.042425,0.03718404,0.08857404,0.1213937,-0.2811531,-1.051352,-2.856624,0.2755736,1.51852,0.2853658,0.03501256,-0.05200247,0.042624,-1.297473,0.5419735,0.1194457,0.4338526,1.494807,0.1931059,-0.1373481,1.648453,0.2754438,303.1232,92.678,162.3252,True
3,1.966671,-0.0511681,-0.06746265,-0.06925473,-1.480316,1.499668,-1.535921,0.1254617,1.453814,0.369319,-0.9736922,0.1719853,8.514586,5.742445,0.06886022,0.07911785,0.07853645,-0.2806551,-1.053704,-2.856396,0.2753392,1.51861,0.2853241,-0.01100389,-0.1009531,0.02492807,-1.298165,0.5392563,0.1218002,0.4334498,1.494811,0.1927531,-0.1376828,1.648323,0.2753151,303.1647,92.97402,162.0069,True
3,1.977782,0.01188321,-0.1108512,-0.06703231,-1.477692,1.499128,-1.538153,0.1248454,1.453707,0.3693931,-0.973526,0.01385657,8.514586,5.249625,0.1155492,0.03136578,0.03447291,-0.2792687,-1.050374,-2.862381,0.27514,1.518761,0.2851863,-0.05858092,-0.1169416,0.06268045,-1.296422,0.5370654,0.1247478,0.432944,1.494722,0.1923833,-0.1382994,1.648102,0.2751685,303.0297,93.11885,161.7699,True
3,1.988893,0.05549689,-0.1054405,-0.09162889,-1.47673,1.497282,-1.540015,0.1247385,1.453892,0.3692343,-0.9727777,0.06849216,8.56764,4.563957,0.1217969,-0.02503426,-0.008236799,-0.2772899,-1.044769,-2.869199,0.2748434,1.5191,0.2849317,-0.07327092,-0.1116216,0.08413767,-1.294905,0.5358467,0.126293,0.4325109,1.494694,0.1920578,-0.1391181,1.647958,0.2750383,302.7819,93.26762,161.57,True
3,2.000004,0.09153,-0.07129514,-0.1152716,-1.477132,1.495201,-1.542089,0.1247124,1.453846,0.3690445,-0.976505,-0.3413416,8.779839,3.642597,0.1009557,-0.06881545,0.0355603,-0.2784239,-1.035009,-2.87905,0.2744871,1.519418,0.2844608,-0.06503288,-0.07325374,0.05319294,-1.29529,0.5363535,0.1264501,0.4322159,1.494677,0.1917377,-0.1399234,1.647929,0.2749085,302.5468,93.33083,161.5293,True
3,2.011115,0.09779137,-0.03722972,-0.120796,-1.477278,1.493017,-1.543183,0.1246435,1.454069,0.3689139,-0.9764997,0.003390297,9.098145,2.635524,0.06490912,-0.02847955,0.07528543,-0.2810146,-1.037174,-2.876496,0.2739454,1.519484,0.2840018,-0.06652419,-0.04550952,0.009558078,-1.296543,0.5369074,0.1271449,0.4318172,1.494778,0.1913397,-0.1405707,1.647672,0.2747416,302.5897,93.56847,161.3612,True
3,2.022226,0.08687867,0.02669561,-0.1082711,-1.479855,1.492308,-1.543748,0.1243015,1.453655,0.3688416,-0.976382,0.01022259,9.522545,2.035569,0.01664327,0.1119754,0.09068328,-0.2842557,-1.056962,-2.855948,0.273383,1.51943,0.2835841,-0.07317059,-0.0263046,-0.01699056,-1.297642,0.5374686,0.128016,0.431421,1.494773,0.191045,-0.1411371,1.647187,0.2746269,302.5721,93.83216,161.0849,True
3,2.033337,0.04410608,0.05968985,-0.07854098,-1.482048,1.492232,-1.54185,0.1239952,1.452483,0.3690157,-0.9751425,0.113052,9.999999,1.949859,-0.006224185,0.1928957,0.05896726,-0.2851713,-1.074173,-2.838626,0.2729267,1.519312,0.2834067,-0.07738367,-0.02844164,-0.01162997,-1.297563,0.5368736,0.1292326,0.4309869,1.494755,0.1907823,-0.1417065,1.646566,0.2747127,302.4661,94.02284,160.8352,True
3,2.044448,0.03139822,0.04582711,-0.06887305,-1.482078,1.491829,-1.541693,0.1236507,1.452302,0.3689535,-0.9741827,0.08668309,10.45093,2.121276,-0.01184027,0.1886526,0.0185232,-0.2845763,-1.082008,-2.830771,0.2725224,1.519225,0.2832901,-0.07915208,-0.04765111,0.02565678,-1.296143,0.5353968,0.1305481,0.4305083,1.494814,0.1905284,-0.1423877,1.646024,0.2750723,302.2941,94.13062,160.7126,True
3,2.055559,0.04879051,-0.02861174,-0.0557848,-1.478995,1.49167,-1.543028,0.1228219,1.452516,0.3689675,-0.9715979,0.2357572,10.8488,3.042639,0.0144795,0.1440462,-0.04243062,-0.2820288,-1.083598,-2.830474,0.2723462,1.519223,0.2833407,-0.04748343,-0.04029613,0.1020509,-1.292494,0.5346362,0.1301822,0.4301011,1.494879,0.1902153,-0.143026,1.645434,0.2757417,302.2105,93.92385,160.9552,True
3,2.06667,0.08848763,-0.0858825,-0.03642612,-1.475942,1.491893,-1.545433,0.1225987,1.452585,0.3688128,-0.9732453,-0.1524757,11.16711,4.328262,0.04752761,0.04298213,-0.08111829,-0.2791557,-1.075921,-2.839398,0.2721052,1.519287,0.2833531,-0.02271042,-0.04139789,0.128432,-1.290227,0.5339361,0.1296712,0.4297045,1.494889,0.1899219,-0.1435157,1.644794,0.2766111,302.0957,93.60706,161.4494,True
3,2.077781,0.1151232,-0.08575754,-0.03433933,-1.474978,1.491567,-1.54765,0.1223822,1.452518,0.3686447,-0.9750221,-0.1608704,11.40584,5.84958,0.06380586,-0.02941557,-0.07171401,-0.2778577,-1.066092,-2.850137,0.2718465,1.519449,0.2832165,-0.03363625,-0.05841213,0.102962,-1.290246,0.5325974,0.1309194,0.4294084,1.494841,0.1896532,-0.1440742,1.644472,0.2774084,302.0108,93.55693,161.8684,True
3,2.088892,0.1287895,-0.04208493,-0.0431043,-1.475748,1.490151,-1.549525,0.1222307,1.452789,0.3684833,-0.9761322,-0.1003121,11.59151,7.52089,0.04498859,-0.03483854,-0.02577707,-0.2788383,-1.063239,-2.852663,0.2714495,1.519548,0.2828388,-0.06598903,-0.09138013,0.06596621,-1.291181,0.5304188,0.1333911,0.4291156,1.494802,0.1893852,-0.144743,1.644361,0.2778607,302.0467,93.70742,162.103,True
3,2.100003,0.1244317,-0.02080736,-0.04532041,-1.476256,1.489572,-1.550734,0.1218495,1.452637,0.3683932,-0.9758802,0.02360576,11.67109,9.085064,0.005588278,0.08750006,0.02788988,-0.2822455,-1.077953,-2.837347,0.2709774,1.519466,0.2825375,-0.09615678,-0.08812776,0.03218538,-1.29203,0.5297044,0.135711,0.4288129,1.494739,0.1891973,-0.1452857,1.644047,0.2778343,302.0876,93.83623,162.1763,True
3,2.111114,0.1191358,-0.02828047,-0.0431448,-1.47561,1.489223,-1.551713,0.1214396,1.452583,0.3683341,-0.9753774,0.04549678,11.69761,10.24212,-0.01909225,0.1609186,0.03559867,-0.2840086,-1.09103,-2.823783,0.2706205,1.519425,0.2822671,-0.08333079,-0.05510568,0.03421685,-1.291426,0.530329,0.1359477,0.4286003,1.49468,0.188961,-0.145811,1.643562,0.2774274,302.0462,93.939,161.9857,True
3,2.122225,0.1171872,-0.06768059,-0.03764318,-1.473471,1.488994,-1.552935,0.1209971,1.452497,0.3682947,-0.9744213,0.08689547,11.61804,10.94922,-0.03420715,0.1513108,0.004809052,-0.2835633,-1.096986,-2.817138,0.2702362,1.519418,0.2821755,-0.05990128,-0.03700639,0.03186565,-1.291139,0.5305462,0.1356995,0.4282565,1.494709,0.1887925,-0.1464489,1.643094,0.2769025,301.9349,94.10621,161.5521,True
3,2.133336,0.1321244,-0.07293217,-0.03550644,-1.472494,1.488761,-1.55482,0.1206958,1.452396,0.3681781,-0.9739968,0.03805419,11.43236,11.18491,-0.02678108,0.1119408,-0.0165941,-0.2824176,-1.096958,-2.817309,0.2698971,1.519433,0.2820497,-0.0312526,-0.02423629,0.01987384,-1.291278,0.5305914,0.1350904,0.4279022,1.49475,0.1886702,-0.1471591,1.642602,0.2764436,301.8512,94.24586,161.1766,True
3,2.144447,0.1213577,-0.05172412,-0.0483648,-1.472755,1.48781,-1.555735,0.1204613,1.452279,0.3682232,-0.9741726,-0.01632477,11.14058,11.09921,0.01787756,0.02902829,-0.06280923,-0.2793059,-1.090382,-2.825444,0.2695751,1.519701,0.2819538,-0.03232308,-0.01677809,0.01882591,-1.291096,0.5306017,0.1355221,0.4275308,1.494835,0.1885152,-0.1479191,1.642082,0.2760779,301.7807,94.41962,160.9174,True
3,2.155558,0.1138021,-0.0283817,-0.05489653,-1.472509,1.486118,-1.556651,0.1207253,1.452434,0.3681803,-0.9748235,-0.05932818,10.76923,11.05635,0.03617203,-0.01353415,-0.05552781,-0.27854,-1.085356,-2.831241,0.2690326,1.519777,0.2818928,-0.04836199,-0.008248875,0.01260456,-1.291147,0.5306347,0.1366391,0.4272014,1.49494,0.1883416,-0.1486702,1.641464,0.2757584,301.7057,94.63618,160.7166,True
3,2.166669,0.1147842,-0.02293529,-0.03577676,-1.473121,1.485943,-1.556738,0.1210498,1.451853,0.3680136,-0.973942,0.08104866,10.55703,10.88493,0.01261781,0.06414521,-0.03823648,-0.2798705,-1.097138,-2.819176,0.268571,1.51974,0.2816193,-0.05973471,0.005581275,0.04576372,-1.289449,0.5309364,0.1375837,0.4268056,1.495064,0.1880903,-0.1493873,1.640746,0.2755102,301.5883,94.79441,160.5282,True
3,2.17778,0.111733,-0.04313694,-0.0197404,-1.471465,1.485719,-1.558318,0.1206661,1.451555,0.3679528,-0.9738898,0.003980342,10.58355,10.56353,-0.01309686,0.129041,-0.03053035,-0.2810093,-1.109999,-2.805759,0.2681857,1.519721,0.2814498,-0.05213581,-0.006160358,0.06059118,-1.288311,0.5302917,0.1380396,0.4263858,1.495093,0.1878808,-0.1500652,1.640059,0.2754537,301.3457,94.95319,160.2847,True
3,2.188891,0.0999764,-0.02501614,-0.005941114,-1.47183,1.486345,-1.55937,0.1194559,1.451437,0.3678713,-0.9729587,0.08519349,10.82228,10.07071,-0.02697827,0.1258023,-0.03681223,-0.280955,-1.114271,-2.801004,0.2679899,1.519682,0.2813461,-0.03732701,-0.03706048,0.05189167,-1.288297,0.528678,0.1383533,0.4260152,1.495203,0.1876633,-0.1504923,1.639398,0.2756611,301.0626,95.15157,160.0946,True
3,2.200002,0.09132497,0.004778987,-0.004992006,-1.472843,1.486326,-1.560104,0.1191466,1.451205,0.3676872,-0.9744027,-0.1326987,11.32626,9.320763,-0.01422264,0.0736654,-0.06252068,-0.2792511,-1.113157,-2.802287,0.2677826,1.51967,0.2812896,-0.02138273,-0.05624438,0.04958206,-1.28804,0.5272747,0.1384399,0.4256694,1.495275,0.1874509,-0.1505765,1.638738,0.2760523,300.9378,95.1324,160.266,True
3,2.211113,0.09764281,0.0239985,-0.00188383,-1.473701,1.486503,-1.561528,0.1186143,1.451079,0.3674884,-0.9739766,0.04020147,11.90981,8.720805,0.01340688,0.04820465,-0.08192951,-0.2777443,-1.114621,-2.801876,0.267554,1.519692,0.2811379,-0.01280137,-0.04986043,0.05482836,-1.287277,0.5268978,0.1383893,0.4253327,1.495314,0.1872022,-0.1507957,1.638342,0.2764248,301.1306,95.05614,160.5578,True
3,2.222224,0.1060788,0.04104826,-0.009427601,-1.47475,1.486182,-1.562955,0.1184503,1.450937,0.3672719,-0.9736554,0.02889474,12.49337,8.313689,0.03595634,0.01417752,-0.07253983,-0.2769496,-1.111736,-2.805841,0.2673491,1.519862,0.28092,-0.01076495,-0.03920114,0.04523276,-1.287057,0.5268562,0.1385478,0.4250759,1.495318,0.1869729,-0.151458,1.638283,0.2766773,301.3318,94.76545,160.9607,True
3,2.233335,0.1220619,0.03251628,-0.02964291,-1.474922,1.485368,-1.564748,0.1183346,1.450685,0.3672774,-0.9743074,-0.05984084,13.0504,8.120848,0.03076809,0.008822905,-0.05652394,-0.2769767,-1.111896,-2.805765,0.2669586,1.520102,0.2806616,-0.01750615,-0.02957915,0.01015194,-1.288163,0.526953,0.1390008,0.4247232,1.495395,0.1867235,-0.1522139,1.638201,0.276814,301.323,94.54845,161.235,True
3,2.244446,0.1475906,0.03791328,-0.03929324,-1.47553,1.484592,-1.567215,0.1181748,1.450438,0.3671439,-0.9744166,-0.009426212,13.55437,8.120848,0.008325465,0.05455164,-0.04672806,-0.2775461,-1.119638,-2.797613,0.2666587,1.520203,0.2803047,-0.01245385,-0.0231608,-0.01759121,-1.289304,0.5271299,0.1389073,0.4244691,1.495477,0.1864309,-0.1529596,1.638003,0.2768471,301.2233,94.46211,161.3495,True
3,2.255557,0.1731007,0.05394191,-0.04583951,-1.476008,1.48308,-1.570175,0.1185525,1.450703,0.3669612,-0.9747723,-0.03258982,13.71353,8.485106,-0.008745402,0.1269166,-0.01990946,-0.2794482,-1.132687,-2.784376,0.2663506,1.520307,0.2799222,-0.01555106,-0.03169372,-0.006915939,-1.289091,0.5263366,0.1394151,0.4242202,1.495555,0.1861622,-0.1535301,1.637569,0.2768334,301.0869,94.50739,161.2924,True
3,2.266668,0.1785326,0.02945058,-0.04998533,-1.475576,1.482673,-1.572273,0.118263,1.450278,0.3670309,-0.975379,-0.05524916,13.81963,9.342188,-0.009747379,0.1524635,-0.0007036924,-0.2810407,-1.140751,-2.776498,0.2661233,1.520495,0.2796092,-0.018654,-0.02424002,0.001644796,-1.288758,0.5262976,0.1397161,0.4239449,1.495657,0.1858599,-0.1539413,1.636897,0.2768522,301.0041,94.64377,161.1139,True
3,2.277779,0.2107888,-0.04183385,-0.06144208,-1.472698,1.481565,-1.575595,0.1182061,1.450218,0.3670318,-0.9758403,-0.04181853,13.74005,10.30641,0.003092147,0.1524996,0.0066543,-0.2818573,-1.145517,-2.772494,0.2659792,1.520674,0.2793746,-0.01943981,-0.01681071,0.0293586,-1.287447,0.526185,0.1400596,0.4238153,1.495729,0.1854568,-0.1543261,1.636114,0.2769544,300.8723,94.71267,161.019,True
3,2.28889,0.2418151,-0.07260223,-0.06667144,-1.471124,1.480803,-1.579356,0.1181294,1.449846,0.3670814,-0.9747393,0.1008118,13.50132,11.12063,0.01878572,0.1195682,-0.04570121,-0.2795014,-1.149275,-2.769654,0.2657527,1.520759,0.2791955,-0.02894447,-0.03385216,0.03795612,-1.286902,0.5251649,0.1408844,0.4236478,1.495847,0.1850407,-0.15473,1.6353,0.2771829,300.7253,94.84475,160.9145,True
3,2.300001,0.2662725,-0.07046535,-0.09015357,-1.470362,1.478943,-1.583097,0.1181843,1.449393,0.3670783,-0.9757417,-0.09270097,13.34218,11.54917,0.02192312,0.08231342,-0.06919431,-0.2778125,-1.149812,-2.7695,0.2654418,1.520714,0.2789428,-0.04276602,-0.07006872,0.04338963,-1.286586,0.5229772,0.1424967,0.4234542,1.495998,0.1846137,-0.1552393,1.634403,0.277494,300.6834,94.9464,160.913,True
3,2.311112,0.2565263,-0.04291703,-0.1147611,-1.470879,1.476768,-1.585426,0.1181715,1.448884,0.3671968,-0.9760821,-0.0303218,13.23607,11.61346,0.02272743,0.09832378,-0.09582488,-0.2766502,-1.158636,-2.761116,0.2650043,1.520632,0.2787714,-0.04997339,-0.09353083,0.07007143,-1.285228,0.5208159,0.1439417,0.4231697,1.496089,0.1841753,-0.1558582,1.633324,0.2777727,300.6529,95.19805,160.8233,True
3,2.322223,0.2416649,-0.05901936,-0.1285146,-1.469671,1.474875,-1.587404,0.1180688,1.448463,0.3673847,-0.9759548,0.01166926,13.20955,11.84915,0.04155503,0.1452802,-0.1225585,-0.2757725,-1.172824,-2.748586,0.264576,1.520652,0.2785726,-0.0454858,-0.07650582,0.0913503,-1.283578,0.5202879,0.1444243,0.4228432,1.496166,0.1837304,-0.1565723,1.631944,0.2780174,300.5622,95.40004,160.7013,True
3,2.333334,0.2375657,-0.1016861,-0.1357648,-1.467088,1.473553,-1.589483,0.1177827,1.448072,0.3675594,-0.9743606,0.1454558,13.23607,12.3634,0.05303453,0.1442849,-0.1535504,-0.2737964,-1.182374,-2.740238,0.2642874,1.520716,0.2782769,-0.03564657,-0.05948599,0.1157738,-1.281482,0.519976,0.144652,0.4224003,1.496281,0.1833186,-0.1574294,1.630308,0.2783257,300.361,95.6261,160.4622,True
3,2.344445,0.2387715,-0.1347198,-0.1388194,-1.46438,1.471921,-1.59202,0.1177278,1.447712,0.3676932,-0.9737284,0.05651538,13.28912,13.09192,0.05726476,0.1261984,-0.1653163,-0.2720366,-1.188383,-2.735232,0.2639745,1.520719,0.2780473,-0.02387134,-0.03712568,0.1199385,-1.279953,0.5200952,0.1444765,0.4220504,1.496363,0.182925,-0.1584799,1.628633,0.2788274,300.023,95.87875,160.1815,True
3,2.355556,0.2432169,-0.1805344,-0.1450079,-1.460854,1.470364,-1.594617,0.1177223,1.447445,0.3678799,-0.9737327,-0.0007478824,13.18302,13.99186,0.05726121,0.1123392,-0.1749488,-0.2698102,-1.194009,-2.730786,0.2638554,1.520595,0.2780061,-0.01979934,-0.02326433,0.1007294,-1.279601,0.5201926,0.1446381,0.4218221,1.496403,0.1825805,-0.1596549,1.627045,0.279498,299.6642,96.22139,159.957,True
3,2.366668,0.2561533,-0.2145594,-0.1438102,-1.457297,1.468938,-1.597758,0.1177006,1.447197,0.368067,-0.9742493,-0.04718823,13.12997,15.06321,0.04875179,0.1378593,-0.167441,-0.2688168,-1.204996,-2.720925,0.2636298,1.520405,0.2779174,-0.006114151,-0.0296532,0.08460106,-1.279331,0.5194992,0.1444166,0.4215984,1.496369,0.182198,-0.1608357,1.62555,0.280193,299.3472,96.58674,159.838,True
3,2.377779,0.2711318,-0.2304761,-0.1437567,-1.454176,1.467528,-1.601049,0.1178533,1.446958,0.3680725,-0.9743484,-0.008645194,13.12997,16.22027,0.05949298,0.1453373,-0.1526007,-0.2684909,-1.213509,-2.713737,0.2632952,1.520388,0.2776549,-0.001131942,-0.03495117,0.05152289,-1.279853,0.5189498,0.1445327,0.4213642,1.496373,0.1818295,-0.1618552,1.624073,0.2807984,299.0703,96.98215,159.6965,True
3,2.38889,0.2658013,-0.2305009,-0.1437417,-1.451603,1.466114,-1.603599,0.1178182,1.446446,0.3680141,-0.9748325,-0.0442525,13.1565,17.48446,0.05739787,0.1357397,-0.1536874,-0.2669382,-1.220543,-2.707702,0.2627861,1.520367,0.2772567,-0.003353657,-0.03707346,0.0419577,-1.279668,0.5184024,0.1447425,0.4210118,1.496482,0.1814685,-0.1626794,1.622616,0.2812363,298.8486,97.43746,159.4307,True
3,2.400001,0.2582465,-0.2081625,-0.1438268,-1.449937,1.464549,-1.606055,0.1177953,1.446023,0.3679831,-0.9749486,-0.01032395,13.23607,18.66295,0.04335591,0.164471,-0.1674071,-0.2659843,-1.233757,-2.694969,0.2624317,1.520262,0.276967,-0.006406925,-0.03282323,0.05584208,-1.278613,0.5180328,0.145028,0.4206436,1.496577,0.1809943,-0.1633297,1.621179,0.2814764,298.6872,97.8756,159.1033,True
3,2.411112,0.2560894,-0.1996172,-0.1364038,-1.447994,1.463348,-1.608656,0.1177478,1.445651,0.3679137,-0.974131,0.07475498,13.34218,19.28434,0.03901313,0.1772447,-0.1737754,-0.2648588,-1.245927,-2.683596,0.2621095,1.520384,0.2764816,0.000316117,-0.03818845,0.08879054,-1.276679,0.5170528,0.1450483,0.420236,1.496767,0.1804624,-0.1638405,1.619737,0.2815206,298.5843,98.2607,158.7785,True
3,2.422223,0.2581758,-0.1878668,-0.131132,-1.446277,1.462144,-1.611412,0.1176903,1.445324,0.3678708,-0.9739286,0.0177884,13.3687,19.49861,0.02953129,0.1921118,-0.1534505,-0.2651358,-1.256643,-2.673256,0.2618183,1.520364,0.2761621,0.008107174,-0.05526627,0.122787,-1.274406,0.5155308,0.145113,0.4198113,1.49684,0.1799271,-0.1643316,1.618329,0.2814097,298.5182,98.59791,158.4346,True
3,2.433334,0.2645298,-0.1760567,-0.1173347,-1.44477,1.461528,-1.614394,0.117532,1.444945,0.3677371,-0.9740182,-0.008252543,13.34218,19.37004,0.0404039,0.192118,-0.1258455,-0.2654996,-1.26457,-2.666594,0.2615352,1.520334,0.2757812,-0.001341458,-0.06805769,0.1377869,-1.272618,0.5140235,0.1459687,0.4195086,1.496963,0.1793511,-0.1648765,1.617022,0.2812332,298.4251,98.91914,158.0518,True
3,2.444445,0.2634169,-0.1632542,-0.1120614,-1.44339,1.460552,-1.6171,0.117444,1.444622,0.3676436,-0.9741827,-0.01494069,13.2626,19.04864,0.04475589,0.1782771,-0.1194978,-0.2652242,-1.271406,-2.660632,0.2612123,1.520345,0.275481,-0.01401563,-0.08510391,0.1496166,-1.270848,0.5121839,0.1470973,0.4191516,1.497064,0.1788063,-0.1654737,1.615802,0.2810494,298.3153,99.2477,157.6722,True
3,2.455556,0.261195,-0.1419453,-0.1089538,-1.442472,1.459504,-1.619735,0.1173708,1.444244,0.367455,-0.9743324,-0.01361254,13.0504,18.9415,0.03617758,0.1644173,-0.1333064,-0.2638793,-1.279935,-2.652537,0.2607345,1.520409,0.2750838,-0.02474125,-0.1010749,0.1443818,-1.269725,0.5102145,0.1484209,0.4188955,1.497112,0.1782458,-0.1661109,1.614633,0.280906,298.2086,99.54242,157.3521,True
3,2.466667,0.2621539,-0.1153651,-0.1165609,-1.441467,1.457328,-1.62262,0.1175596,1.44443,0.3672955,-0.9740895,0.02231815,12.89124,18.83437,0.03295001,0.1463073,-0.1450161,-0.2625334,-1.286849,-2.646117,0.2603451,1.52047,0.2747416,-0.03233265,-0.1096118,0.1273856,-1.26878,0.5086201,0.1492598,0.4185293,1.497222,0.1777263,-0.1667805,1.613459,0.2808084,298.1059,99.75063,157.1532,True
3,2.477778,0.2557222,-0.104718,-0.111272,-1.440674,1.456304,-1.6251,0.1174888,1.444163,0.3671303,-0.973983,0.009511223,12.70557,18.77009,0.03202237,0.147352,-0.1258264,-0.2627858,-1.293566,-2.639917,0.2599399,1.520545,0.2742488,-0.03784054,-0.1074311,0.1136198,-1.268382,0.5072615,0.1504761,0.4181365,1.497298,0.1772692,-0.1674713,1.612257,0.2807741,297.97,99.97191,156.9567,True
3,2.488889,0.2472308,-0.1078939,-0.1005763,-1.439424,1.455938,-1.627523,0.1169932,1.44367,0.3673353,-0.9743585,-0.03440712,12.49337,18.79152,0.03723644,0.1825138,-0.1258392,-0.2631011,-1.307081,-2.627438,0.2594543,1.520517,0.2738478,-0.03790653,-0.09463548,0.1061828,-1.267553,0.5064697,0.1511344,0.4176744,1.497417,0.1767819,-0.1681825,1.611084,0.2808257,297.7459,100.2385,156.7226,True
3,2.5,0.236619,-0.111058,-0.08243675,-1.438003,1.455722,-1.629759,0.1167866,1.443411,0.3670335,-0.9738333,0.04831272,12.28117,18.83437,0.0414457,0.1889224,-0.1301266,-0.2628908,-1.317825,-2.617682,0.2589714,1.520524,0.2734518,-0.03360021,-0.05523199,0.1083066,-1.266088,0.506986,0.1512377,0.4172045,1.497626,0.1762621,-0.1689004,1.610044,0.2810218,297.4899,100.6224,156.3871,True
3,2.511111,0.2332852,-0.08124464,-0.08468314,-1.438139,1.45481,-1.632117,0.1164078,1.442907,0.3668315,-0.9736367,0.0175312,12.12201,18.79152,0.03076194,0.1718586,-0.140705,-0.2620982,-1.325956,-2.609805,0.2585319,1.520602,0.2729805,-0.00351201,-0.03184093,0.1314573,-1.263863,0.5069717,0.1501943,0.4168287,1.497862,0.1758201,-0.16958,1.609055,0.2813565,297.3811,100.8255,156.2578,True
3,2.522222,0.2246682,-0.05997697,-0.08476342,-1.438112,1.453842,-1.634213,0.1161636,1.442648,0.3665533,-0.97346,0.01610294,12.01592,18.42726,0.01598302,0.1515636,-0.1310234,-0.2616305,-1.331642,-2.604023,0.2580515,1.520731,0.2725301,0.01566726,-0.02439629,0.1312705,-1.262406,0.5067227,0.1494401,0.4163933,1.498061,0.1752813,-0.1702986,1.608064,0.281756,297.3593,100.8228,156.3845,True
3,2.533333,0.2160559,-0.04082192,-0.08269817,-1.43835,1.453039,-1.636131,0.1157221,1.442412,0.3664017,-0.9737092,-0.02287989,11.93634,17.67731,-0.001895994,0.1557478,-0.09785244,-0.2627586,-1.337766,-2.597466,0.2574508,1.520844,0.2720766,0.021015,-0.02439684,0.1333497,-1.26092,0.5062107,0.1492276,0.4159535,1.498244,0.1746941,-0.1710484,1.607045,0.2820659,297.263,100.8151,156.5964,True
3,2.544444,0.2118535,-0.05038162,-0.07199684,-1.437433,1.452665,-1.638298,0.1153959,1.442278,0.3661406,-0.9735356,0.01614005,11.85676,16.60596,-0.005049318,0.1780962,-0.08289507,-0.2638553,-1.347682,-2.58773,0.2569248,1.520919,0.2716081,-0.01406746,-0.04675221,0.142206,-1.259262,0.5045925,0.1510979,0.4155242,1.498322,0.1740537,-0.1718494,1.606009,0.282281,297.1271,100.8498,156.6848,True
3,2.555555,0.1949234,-0.06853694,-0.0580706,-1.435396,1.452162,-1.640029,0.115636,1.442619,0.3656783,-0.9733694,0.01505691,11.69761,15.38461,-0.01132816,0.1940406,-0.06045778,-0.2654735,-1.356648,-2.578736,0.2564189,1.520791,0.2710521,-0.05430983,-0.07125147,0.1681606,-1.256762,0.5024577,0.1538165,0.4150364,1.498398,0.1734514,-0.17271,1.605036,0.2824203,296.9319,100.969,156.6179,True
3,2.566666,0.1672753,-0.07398465,-0.0527142,-1.433959,1.451271,-1.641102,0.1154463,1.442525,0.3653896,-0.9736107,-0.02212761,11.56498,14.07757,-0.009262457,0.2068411,-0.06258497,-0.2663816,-1.367185,-2.56843,0.2559008,1.520758,0.270555,-0.04888206,-0.07766054,0.1787499,-1.254679,0.5009505,0.1546285,0.4145492,1.498518,0.172893,-0.1736247,1.604184,0.2825113,296.7385,101.0983,156.5186,True
3,2.577777,0.1428066,-0.08047144,-0.04945463,-1.432827,1.450916,-1.641772,0.1151955,1.442485,0.3650208,-0.9732873,0.02978768,11.43236,12.68481,-0.01241539,0.2217356,-0.05082878,-0.2678522,-1.377039,-2.558747,0.255473,1.520777,0.2700896,-0.02331199,-0.07022036,0.1784977,-1.252836,0.500125,0.154262,0.4140778,1.498669,0.1723166,-0.1744417,1.603383,0.2824898,296.4953,101.2788,156.4449,True
3,2.588888,0.148296,-0.1123556,-0.03972087,-1.43067,1.451193,-1.643842,0.1143557,1.44208,0.3648171,-0.9727398,0.04989442,11.27321,11.14206,-0.01658073,0.1929563,-0.04868504,-0.2682048,-1.381538,-2.553959,0.2550558,1.520898,0.2696993,0.01936788,-0.0489483,0.1834114,-1.250618,0.4999809,0.152569,0.413605,1.498881,0.1717453,-0.1750291,1.602656,0.2822651,296.2399,101.6572,156.2024,True
3,2.599999,0.1558521,-0.1336144,-0.0364433,-1.428454,1.451039,-1.645824,0.1140545,1.442106,0.3644423,-0.9723579,0.03461674,11.11406,9.556458,-0.005714595,0.1450442,-0.04028521,-0.2680961,-1.382232,-2.553547,0.2546853,1.521022,0.2692769,0.02446299,-0.04040749,0.1599301,-1.249644,0.499691,0.1521549,0.413158,1.499037,0.1711752,-0.1754664,1.602077,0.2818689,296.1503,101.9828,155.8985,True
3,2.61111,0.1484139,-0.1400408,-0.03746099,-1.426791,1.45083,-1.647075,0.1135805,1.44182,0.3641543,-0.97378,-0.1301686,10.92838,8.185129,0.01254544,0.1078179,-0.03618792,-0.267963,-1.383052,-2.553545,0.254186,1.521112,0.2687442,0.005016565,-0.04783414,0.1334904,-1.249142,0.4985804,0.1531975,0.4127131,1.499129,0.1705501,-0.1758575,1.601691,0.2813312,296.2307,102.1369,155.6997,True
3,2.622221,0.1324001,-0.1337389,-0.04172611,-1.425437,1.450322,-1.647932,0.1132398,1.441698,0.3637786,-0.9739835,-0.01742893,10.66313,7.113777,0.0167757,0.09718566,-0.04475151,-0.267685,-1.386734,-2.550345,0.2536695,1.521167,0.2682261,-0.006746966,-0.05634552,0.1293373,-1.248012,0.4974083,0.153992,0.4122794,1.499257,0.1699662,-0.1763089,1.601306,0.2806618,296.4699,102.1992,155.5704,True
3,2.633332,0.113203,-0.1210413,-0.03646396,-1.424112,1.449604,-1.648856,0.1133746,1.442125,0.3632758,-0.9732964,0.06288099,10.47745,6.449537,0.007057302,0.1312515,-0.04783896,-0.268803,-1.396952,-2.540148,0.253155,1.521261,0.2675765,-0.005649602,-0.05208503,0.1325359,-1.246327,0.4967239,0.1542314,0.4117719,1.499361,0.1693845,-0.176811,1.60078,0.2798922,296.5988,102.3885,155.2973,True
3,2.644443,0.1057628,-0.1210233,-0.02473506,-1.422791,1.449848,-1.64981,0.1130501,1.442112,0.3629084,-0.9729444,0.03168722,10.34483,6.085279,-0.0184983,0.1769615,-0.02736502,-0.2712792,-1.407255,-2.529089,0.2526482,1.521287,0.2670455,-0.008714836,-0.05103768,0.1453522,-1.244389,0.495748,0.1547065,0.4112798,1.499495,0.1687975,-0.1774016,1.6001,0.2791097,296.6096,102.6451,154.9176,True
3,2.655554,0.09195922,-0.1295709,-0.01720984,-1.421092,1.450227,-1.650408,0.112166,1.4418,0.3626385,-0.973126,-0.01672179,10.29178,5.892437,-0.03745228,0.1864643,0.006875031,-0.273724,-1.412027,-2.523337,0.2521603,1.521195,0.2665012,-0.02243301,-0.06595585,0.1593261,-1.242367,0.4941547,0.15589,0.4107559,1.499589,0.168263,-0.1780488,1.599412,0.2784075,296.405,102.8949,154.5662,True
3,2.666665,0.08027941,-0.1371203,-0.02145401,-1.418894,1.449474,-1.65099,0.1120773,1.442013,0.3622959,-0.9731526,-0.002162193,10.3183,5.956715,-0.03420815,0.1864679,0.01324946,-0.2751706,-1.417171,-2.518191,0.2516929,1.521237,0.2659426,-0.02769917,-0.0670173,0.1647022,-1.240552,0.4930923,0.1566285,0.4102592,1.499746,0.1677957,-0.1785194,1.599036,0.277968,296.3307,104.4428,153.2014,True
3,2.677776,0.06855666,-0.1371866,-0.02463277,-1.417307,1.449202,-1.651309,0.1116759,1.441995,0.3618886,-0.9728911,0.0239442,10.34483,6.235267,-0.03000401,0.1662547,-0.002779707,-0.2754209,-1.421808,-2.513537,0.2511618,1.521246,0.2655022,-0.02215874,-0.04680518,0.1849058,-1.237838,0.4927207,0.1568463,0.4097507,1.499823,0.1673155,-0.1786117,1.598983,0.2778189,296.3534,105.1129,152.7491,True
3,2.688887,0.06852021,-0.1382501,-0.02467153,-1.415816,1.448456,-1.651487,0.1116773,1.441587,0.3614826,-0.9731366,-0.02253607,10.39788,6.685236,-0.0333609,0.1502974,-0.03046636,-0.2751738,-1.428349,-2.506711,0.2506705,1.521269,0.2650027,-0.01688694,-0.02549276,0.1784835,-1.236018,0.4929453,0.1567909,0.409207,1.499933,0.1667542,-0.1784322,1.599059,0.2778682,296.5648,105.2021,152.9245,True
3,2.699998,0.07065184,-0.1339188,-0.01084463,-1.414485,1.448908,-1.652432,0.1113585,1.441549,0.3610625,-0.9729539,0.01700179,10.4244,7.242337,-0.03654535,0.1428294,-0.03258005,-0.2756143,-1.433405,-2.501399,0.2502126,1.521334,0.2645822,-0.007561907,-0.002035448,0.1507113,-1.235185,0.4936836,0.15627,0.4088075,1.500056,0.1662822,-0.1783221,1.599134,0.2779597,296.7195,105.1056,153.2066,True
3,2.711109,0.07600075,-0.13176,-0.004498406,-1.41269,1.448813,-1.653772,0.1106735,1.441955,0.3606842,-0.9729854,-0.002954659,10.50398,7.82087,-0.04072247,0.1385542,-0.02189197,-0.2767429,-1.437266,-2.496983,0.2497313,1.521438,0.2640553,-0.01100525,-0.0009540413,0.1262449,-1.234628,0.4934501,0.156609,0.4084231,1.500146,0.1658044,-0.1782323,1.599184,0.2780301,296.8466,105.1263,153.4263,True
3,2.72222,0.08773163,-0.1349084,-0.005566778,-1.411065,1.448856,-1.655168,0.1103468,1.441997,0.3602245,-0.9736773,-0.06314999,10.45093,8.356546,-0.03945145,0.1257526,-0.000604786,-0.2778811,-1.438314,-2.495683,0.2493315,1.521482,0.2635312,-0.008925531,-0.01266965,0.1219514,-1.233516,0.4926795,0.1568812,0.408001,1.500216,0.165329,-0.1780819,1.599197,0.277996,297.0593,105.2944,153.4067,True
3,2.733331,0.08984565,-0.1274582,-0.003495714,-1.409428,1.448623,-1.656372,0.1098086,1.442125,0.3598847,-0.9742796,-0.05448987,10.4244,8.956501,-0.04152403,0.133192,0.01114411,-0.279437,-1.442007,-2.49152,0.2489472,1.52155,0.2630107,-0.01432056,-0.0233142,0.1155993,-1.232555,0.4917628,0.1575012,0.407616,1.500222,0.1648805,-0.1780355,1.599221,0.277907,297.1651,105.7403,153.1833,True
3,2.744442,0.07484841,-0.1083029,0.004968992,-1.409032,1.449074,-1.656609,0.1090443,1.441857,0.3596787,-0.9743564,-0.00661101,10.45093,9.599312,-0.05204336,0.1405967,0.03147282,-0.2814083,-1.444836,-2.487903,0.2485287,1.521619,0.2625141,-0.02600909,-0.01478312,0.1178558,-1.231158,0.4917346,0.1581955,0.407229,1.500332,0.1644802,-0.1780758,1.599259,0.2778499,297.1613,106.2615,152.9487,True
3,2.755553,0.06950425,-0.1019021,0.01240558,-1.408167,1.449538,-1.657242,0.1086334,1.441761,0.3592958,-0.9741742,0.01661492,10.55703,10.32783,-0.06806991,0.1394918,0.02519744,-0.282408,-1.449515,-2.482038,0.248068,1.521625,0.2620897,-0.0398399,-0.001996302,0.1190681,-1.229799,0.4918866,0.1590416,0.4068363,1.500442,0.1640606,-0.1780696,1.599342,0.2778122,297.2648,106.6136,152.8802,True
3,2.766664,0.06949136,-0.0997344,0.01879538,-1.407286,1.450145,-1.657973,0.1082918,1.441465,0.3589814,-0.9730839,0.09956496,10.79576,11.14206,-0.0734669,0.133102,0.01351541,-0.2830519,-1.453809,-2.476933,0.2476956,1.521578,0.2615933,-0.04095763,0.001199434,0.1137553,-1.228745,0.4916995,0.159555,0.4065006,1.500555,0.163636,-0.1780129,1.599452,0.2777743,297.4098,106.839,152.8698,True
3,2.777775,0.0662719,-0.09550159,0.0155855,-1.406362,1.450299,-1.658653,0.1079447,1.441303,0.3586113,-0.9734237,-0.03190868,11.03448,11.91343,-0.07474288,0.128864,-0.01630797,-0.2829225,-1.459955,-2.470168,0.2473076,1.521495,0.2612364,-0.03241064,0.006518325,0.1158048,-1.227377,0.4917069,0.1596459,0.4061532,1.500625,0.1632895,-0.1779206,1.599574,0.2777387,297.6134,106.991,152.8922,True
3,2.788886,0.0620093,-0.0976473,0.01667566,-1.405234,1.450732,-1.659069,0.1077275,1.441109,0.3582261,-0.9736267,-0.01809528,11.22016,12.62053,-0.06843091,0.1331516,-0.02486846,-0.2836091,-1.465508,-2.464302,0.247012,1.521426,0.2608557,-0.02172197,0.01395758,0.1188968,-1.225982,0.4917745,0.1595204,0.4059076,1.500698,0.1629517,-0.1778521,1.599664,0.2776868,297.8239,107.2446,152.8667,True
3,2.799997,0.05137023,-0.09657291,0.02947004,-1.404275,1.451563,-1.659423,0.1074417,1.440952,0.3578637,-0.9737156,-0.007988634,11.37931,13.22048,-0.0576417,0.1150656,-0.01431223,-0.2841614,-1.466835,-2.462778,0.2466981,1.521412,0.2605038,-0.01010555,0.02354782,0.1081351,-1.225065,0.4922641,0.1590672,0.4056257,1.500765,0.1626284,-0.1777524,1.599722,0.2776219,298.0454,107.5492,152.8621,True
3,2.811108,0.05349089,-0.0976273,0.02841368,-1.403294,1.452041,-1.659997,0.1072722,1.440812,0.3575437,-0.973461,0.023383,11.43236,13.64902,-0.0554605,0.1076143,-0.01007418,-0.2848421,-1.469381,-2.459731,0.2463929,1.521384,0.2601695,-0.01126357,0.02888496,0.09856883,-1.224152,0.4926064,0.1591478,0.4053115,1.500857,0.1623142,-0.1776748,1.599767,0.2775394,298.2418,107.8188,152.8185,True
3,2.822219,0.06734122,-0.09864044,0.02626741,-1.402185,1.452367,-1.66127,0.1070505,1.440666,0.3571658,-0.9733641,0.008655606,11.32626,13.88472,-0.05327327,0.1054832,-0.003700681,-0.2856602,-1.4721,-2.456587,0.2461743,1.521363,0.2598231,-0.00708304,0.03741276,0.09001195,-1.223362,0.4932494,0.1588424,0.4050941,1.500887,0.1619749,-0.1776102,1.599799,0.277432,298.4217,108.1248,152.7322,True
3,2.83333,0.07681523,-0.09109698,0.0283423,-1.402123,1.452676,-1.661374,0.1074483,1.440118,0.3568652,-0.9736996,-0.03066996,11.14058,13.86329,-0.05318473,0.09057026,0.002681151,-0.2862717,-1.473097,-2.454974,0.2458926,1.521344,0.2594244,-0.008143447,0.03315619,0.09108354,-1.222221,0.4933664,0.1589995,0.404929,1.500845,0.1616626,-0.1775741,1.599825,0.2773097,298.5737,108.4542,152.6093,True
3,2.844441,0.0841888,-0.07620736,0.01442,-1.40177,1.452489,-1.66252,0.1070679,1.440286,0.3565748,-0.9744864,-0.07161533,10.92838,13.58474,-0.05639646,0.08630216,-0.001558777,-0.2866232,-1.475628,-2.451828,0.2457017,1.521315,0.2590766,-0.02221273,0.02147203,0.06990781,-1.222144,0.4932448,0.1597393,0.4047647,1.500904,0.1613724,-0.1775476,1.599837,0.2771702,298.7257,108.801,152.4477,True
3,2.855552,0.09374484,-0.07086526,0.007993168,-1.401163,1.452455,-1.663887,0.1069592,1.440124,0.3562684,-0.973403,0.09963349,10.71618,13.09192,-0.04898489,0.08952839,-0.005874228,-0.2871931,-1.479381,-2.44791,0.2454553,1.521345,0.258713,-0.02334839,0.01508158,0.0635244,-1.221656,0.4930269,0.1601335,0.4046417,1.500986,0.161046,-0.1774314,1.599837,0.2770045,298.9838,109.0633,152.3203,True
3,2.866663,0.09158298,-0.06341032,0.009039763,-1.400767,1.452846,-1.664878,0.106651,1.440214,0.3559487,-0.9744059,-0.0925983,10.68966,12.53482,-0.0490144,0.08421036,-0.0122655,-0.2874989,-1.482167,-2.444722,0.2451978,1.52132,0.2583699,-0.02442968,0.01615671,0.06140436,-1.221017,0.4932684,0.1602693,0.4044766,1.501082,0.1608086,-0.1784148,1.599855,0.2769813,299.8444,108.3737,153.2921,True
3,2.877774,0.09684671,-0.04954294,0.00790552,-1.40064,1.452911,-1.666149,0.1064955,1.440009,0.3556657,-0.9746994,-0.02597912,10.66313,11.97771,-0.04482205,0.08316702,-0.02188588,-0.2876406,-1.485856,-2.440829,0.244943,1.521277,0.2580724,-0.03617217,0.03640348,0.05834186,-1.22035,0.4942715,0.1607857,0.4042959,1.501093,0.1605029,-0.1805063,1.598727,0.2754855,298.7822,102.8491,157.2583,True
3,2.888885,0.1032079,-0.04419836,0.004684873,-1.400348,1.453027,-1.66748,0.1062487,1.439937,0.355402,-0.974211,0.04478494,10.6366,11.39919,-0.03948886,0.07892424,-0.02192536,-0.2880187,-1.488297,-2.438151,0.2446507,1.521276,0.2578115,-0.03611721,0.04279096,0.06367615,-1.219312,0.4948128,0.1610256,0.4040402,1.501141,0.1603038,-0.1790658,1.600181,0.2732642,299.1181,107.4073,152.7737,True
3,2.899997,0.09249061,-0.03148187,-0.0006812736,-1.400433,1.452829,-1.668107,0.1061384,1.439768,0.3551817,-0.9744384,-0.02124854,10.61008,10.79923,-0.03628441,0.07360876,-0.02301953,-0.2882153,-1.490599,-2.435663,0.2444481,1.521217,0.2575338,-0.02424336,0.041706,0.07846583,-1.217951,0.4950612,0.1607266,0.4038549,1.501185,0.1600792,-0.1783323,1.600464,0.2723683,299.9268,108.6625,151.4627,True
3,2.911108,0.08395407,-0.02833387,-0.002809233,-1.400192,1.452812,-1.668785,0.1059304,1.439597,0.3548558,-0.9744741,-0.003078276,10.47745,10.2207,-0.03307354,0.06190255,-0.02518085,-0.288203,-1.492018,-2.433968,0.2441917,1.52106,0.2572803,-0.01778537,0.03636513,0.08585621,-1.216696,0.4950058,0.1607934,0.4036002,1.501184,0.159842,-0.17806,1.600428,0.2718102,300.2962,109.2302,150.8275,True
3,2.922219,0.07651472,-0.03047028,0.00253996,-1.399817,1.453115,-1.66948,0.105776,1.439441,0.3546495,-0.9737875,0.0627185,10.29178,9.770729,-0.04167501,0.06933958,-0.03256679,-0.2883937,-1.496239,-2.429148,0.2439472,1.520952,0.2570453,-0.02094002,0.04275937,0.08908743,-1.215522,0.4956297,0.1608637,0.4034613,1.501185,0.1595914,-0.1778885,1.600418,0.2716179,300.5176,109.5492,150.5973,True
3,2.93333,0.07226846,-0.03156384,0.006773081,-1.398961,1.452829,-1.670172,0.1060756,1.439774,0.3542619,-0.9737359,0.004185303,10.05305,9.427898,-0.04918531,0.08530182,-0.03355522,-0.2892385,-1.501258,-2.423545,0.2437752,1.520839,0.2567589,-0.01779006,0.04489039,0.08479941,-1.214641,0.4960673,0.1608597,0.4032801,1.501216,0.1593902,-0.1799023,1.59893,0.2707766,299.9326,102.9762,155.9699,True
3,2.944441,0.06052678,-0.02413041,0.01314954,-1.399021,1.453233,-1.670458,0.1059782,1.439686,0.3539784,-0.9737321,0.0004173567,9.787797,9.170771,-0.04068623,0.06509833,-0.04535491,-0.2885386,-1.503266,-2.421524,0.2436455,1.520756,0.2565374,-0.006240699,0.03211803,0.06869047,-1.214417,0.4959865,0.1605239,0.4031876,1.501209,0.1591887,-0.1787856,1.600216,0.2689491,299.9858,106.1367,152.9311,True
3,2.955552,0.05201342,-0.02306012,0.02062217,-1.399013,1.453901,-1.670917,0.1055422,1.439342,0.3538744,-0.9738584,-0.01151204,9.496022,8.999357,-0.03201387,0.03955109,-0.03586124,-0.2881231,-1.502391,-2.422263,0.2435534,1.520766,0.2562916,-0.007475188,0.02893514,0.05272057,-1.214352,0.4961405,0.1606786,0.4031701,1.501204,0.1590159,-0.1781081,1.600346,0.2680256,300.5947,107.1951,151.9112,True
3,2.966663,0.05623627,-0.01451247,0.02165042,-1.399179,1.454249,-1.671724,0.1052989,1.439086,0.3536174,-0.9733859,0.04333638,9.336869,8.849365,-0.0212095,0.02039571,-0.02423443,-0.2880262,-1.500734,-2.424032,0.243479,1.520772,0.2560701,-0.01614254,0.03747905,0.0379021,-1.21433,0.4969689,0.1608927,0.4031241,1.501161,0.1588113,-0.1779889,1.600302,0.2677463,300.7588,107.6392,151.5354,True
3,2.977774,0.06045502,-0.005985587,0.01841055,-1.399419,1.454318,-1.672548,0.1052174,1.438981,0.3533027,-0.9735143,-0.01213168,9.257293,8.999357,-0.02753239,0.02143227,-0.01459805,-0.288316,-1.50107,-2.4232,0.2433395,1.520768,0.2558286,-0.01838119,0.0396267,0.02727359,-1.214236,0.4976108,0.1609726,0.4031157,1.501098,0.1587045,-0.1779536,1.60034,0.2678206,300.7851,107.6904,151.6362,True
3,2.988885,0.05938395,-0.004921371,0.01841667,-1.399466,1.454671,-1.673193,0.1050396,1.438748,0.3530495,-0.9739872,-0.04304857,9.257293,9.213628,-0.03709193,0.02778402,-0.008122709,-0.2887809,-1.502027,-2.421527,0.2432412,1.520719,0.2555895,-0.02052981,0.04283205,0.02516421,-1.21394,0.4982498,0.1610131,0.4030988,1.501069,0.1586123,-0.1778302,1.600417,0.2680116,300.8546,107.5272,151.9724,True
3,2.999996,0.05831556,-0.003856121,0.0194788,-1.399517,1.45491,-1.673828,0.1048831,1.438637,0.3527803,-0.9741167,-0.01146041,9.310343,9.406469,-0.05305818,0.02879736,-0.005871193,-0.2890446,-1.502905,-2.419508,0.243072,1.520698,0.2553585,-0.02161095,0.05135715,0.02305241,-1.213629,0.4991039,0.1609934,0.4030144,1.501059,0.1585002,-0.1776112,1.600412,0.2679956,301.0874,107.5076,152.0375,True
3,3.011107,0.06372225,-0.02300799,0.01850193,-1.398696,1.455376,-1.674738,0.1046699,1.438438,0.3525379,-0.9738956,0.02026657,9.336869,9.513605,-0.06056245,0.03197505,-0.01113357,-0.2891277,-1.504726,-2.41691,0.2429298,1.520675,0.2551296,-0.0238133,0.05775841,0.0156249,-1.21354,0.5000184,0.1610145,0.4028887,1.501101,0.1583252,-0.1775711,1.600425,0.2678879,301.1905,107.7209,151.8172,True
3,3.022218,0.06481994,-0.03259516,0.01748176,-1.398046,1.455633,-1.675415,0.1046273,1.438184,0.3522706,-0.9738839,0.0008910053,9.363397,9.62074,-0.06378216,0.04474661,-0.00896712,-0.2897796,-1.507281,-2.413627,0.2428031,1.520632,0.2549438,-0.02374104,0.06947064,0.02202731,-1.212921,0.5011874,0.1608994,0.4028161,1.501091,0.1582119,-0.1775814,1.600416,0.2675717,301.3046,108.1513,151.3948,True
3,3.033329,0.05950398,-0.0326022,0.02069033,-1.39779,1.456093,-1.676042,0.1045142,1.438071,0.3520064,-0.9741289,-0.02239919,9.310343,9.642169,-0.05955686,0.03518368,-0.01753235,-0.2894568,-1.508685,-2.411782,0.2426782,1.520569,0.2547414,-0.01515669,0.0641271,0.0283286,-1.212284,0.5015494,0.1606259,0.4027842,1.501124,0.1581006,-0.1775602,1.60038,0.267311,301.4266,108.6608,150.9836,True
3,3.04444,0.0477905,-0.03046258,0.03348707,-1.397694,1.457032,-1.67626,0.1044494,1.437821,0.351748,-0.9739563,0.01599467,9.177716,9.642169,-0.0605449,0.02345581,-0.01221019,-0.2893439,-1.508114,-2.411618,0.2426001,1.520544,0.2546237,-0.01099738,0.05987196,0.0186961,-1.21232,0.50208,0.160456,0.4027526,1.501148,0.158042,-0.1774675,1.600339,0.2670633,301.6254,109.1201,150.6441,True
3,3.055551,0.03495696,-0.01771675,0.03771094,-1.397996,1.457617,-1.676317,0.1043754,1.437701,0.3514433,-0.973852,0.009396787,8.965518,9.492177,-0.06164011,0.02771575,-0.01432908,-0.2894989,-1.509924,-2.409151,0.2425822,1.520448,0.2544553,-0.0142613,0.05987808,0.01233754,-1.212295,0.502784,0.1605433,0.4027001,1.501127,0.1578636,-0.1775007,1.600311,0.2668478,301.7001,109.6329,150.2871,True
3,3.066662,0.02748858,-0.01563343,0.03765382,-1.397582,1.457176,-1.67638,0.1047565,1.438155,0.3516624,-0.97338,0.04309871,8.726789,9.085064,-0.05635078,0.02880495,-0.01863183,-0.2894734,-1.512126,-2.406556,0.2425455,1.520334,0.2543299,-0.01112116,0.04602545,0.006966937,-1.212361,0.5027005,0.1604826,0.4026432,1.501075,0.157891,-0.1774592,1.600297,0.2667771,301.791,109.8343,150.2022,True
3,3.077773,0.01783477,0.0003173351,0.04079333,-1.398213,1.457652,-1.676334,0.1047657,1.438111,0.3513896,-0.9732938,0.007593897,8.461537,8.82794,-0.03711629,-0.003088944,-0.02413193,-0.2884161,-1.510364,-2.408449,0.2425295,1.5203,0.2541823,-0.008969622,0.0289763,0.01012516,-1.212189,0.5023857,0.1606246,0.4026332,1.501062,0.1577795,-0.1799277,1.597961,0.2664267,301.2926,103.9512,155.5287,True
3,3.088884,0.01569314,0.006684277,0.04286419,-1.39809,1.457722,-1.6767,0.1047997,1.43819,0.3511379,-0.9735478,-0.023261,8.169763,8.635095,-0.02327809,-0.02008271,-0.03277703,-0.2873924,-1.509959,-2.409027,0.2424805,1.520378,0.2539916,0.004902134,0.0342875,0.01212077,-1.211903,0.5029045,0.1599404,0.4028447,1.501159,0.1576226,-0.1789011,1.599671,0.2645878,300.7108,107.5019,152.3264,True
3,3.099995,0.01989769,0.01840713,0.03961066,-1.39867,1.458001,-1.677097,0.1048269,1.438195,0.3508403,-0.9733806,0.01558879,7.931033,8.442253,-0.02638979,-0.01371353,-0.0188986,-0.2876054,-1.509494,-2.409103,0.2424441,1.520424,0.2537627,0.01547097,0.05453033,0.002444974,-1.212012,0.5043008,0.1589132,0.4029281,1.501187,0.1574578,-0.1784988,1.600005,0.2638932,300.9275,108.3227,151.4604,True
3,3.111106,0.02950895,0.01632223,0.03748025,-1.398977,1.45842,-1.678077,0.1045248,1.437898,0.3506851,-0.9738951,-0.04716205,7.745358,8.249411,-0.04544691,-0.005269688,0.0004296501,-0.2883341,-1.508656,-2.408727,0.2424423,1.520424,0.2535415,0.01546065,0.05239524,0.001383389,-1.211883,0.5047229,0.1586075,0.4029762,1.501173,0.1573789,-0.1782731,1.600067,0.2636993,301.0893,108.2446,151.3471,True
3,3.122217,0.03377987,0.01305653,0.02253097,-1.398535,1.457576,-1.678707,0.1045854,1.437919,0.350467,-0.9739787,-0.007217896,7.639258,8.077994,-0.06667266,0.01382086,0.01871735,-0.2893945,-1.508682,-2.407337,0.2423997,1.520329,0.2533243,-0.02179934,0.02258701,0.005993057,-1.211802,0.5038729,0.1604352,0.4030035,1.501153,0.1572649,-0.1779885,1.600109,0.2637113,301.3213,107.8503,151.5847,True
3,3.133328,0.02954564,0.006641244,0.02150008,-1.398409,1.45779,-1.678927,0.1046199,1.437875,0.3502436,-0.9745274,-0.05015089,7.612731,8.077994,-0.06993093,0.03298809,0.0187564,-0.2902073,-1.510994,-2.404216,0.2423832,1.520174,0.2531762,-0.04282981,0.008722574,0.03390112,-1.210425,0.5031669,0.1618339,0.402974,1.501091,0.1571443,-0.1776212,1.600134,0.2637453,301.6457,107.3836,151.896,True
3,3.144439,0.01466783,-0.0008784952,0.02050381,-1.398311,1.458288,-1.678688,0.104393,1.437528,0.3501327,-0.9744117,0.01096582,7.665781,8.292264,-0.04771521,0.04266284,0.001549462,-0.2902617,-1.514585,-2.401073,0.2424478,1.520114,0.2530828,-0.01290199,0.0289387,0.04214032,-1.209514,0.5041936,0.1605604,0.4030213,1.5011,0.1570413,-0.1774201,1.60013,0.263739,301.8634,107.4005,151.9738,True
3,3.15555,0.006170982,-0.008396907,0.01522295,-1.397945,1.458337,-1.678491,0.1044844,1.437452,0.349942,-0.9737678,0.05870688,7.771884,8.635095,-0.01794147,0.00868604,-0.02001132,-0.288872,-1.514232,-2.402251,0.2425391,1.520085,0.2529635,0.02839336,0.05131856,0.01830345,-1.209355,0.5052074,0.1588767,0.4029989,1.501109,0.156919,-0.1773062,1.600079,0.2637212,301.9544,107.4788,151.941,True
3,3.166661,0.001877534,0.001129906,0.01195225,-1.397799,1.457806,-1.678561,0.1047484,1.437524,0.3497214,-0.9732149,0.05011538,7.931033,8.999357,-0.01043854,-0.02218057,-0.02755219,-0.2875117,-1.511829,-2.404737,0.2426151,1.520077,0.2528291,0.03557982,0.05451842,-0.01158394,-1.210787,0.5064663,0.1574634,0.4031101,1.50117,0.1567936,-0.177285,1.600064,0.2636635,302.0111,107.6225,151.8515,True
3,3.177772,-0.004588604,0.0181506,0.0129513,-1.398595,1.457895,-1.678307,0.1049093,1.437423,0.3495255,-0.9733518,-0.01289511,8.063659,9.449324,-0.0008337661,-0.02853826,-0.02763177,-0.2868747,-1.511158,-2.405591,0.24278,1.520052,0.2526362,0.02363855,0.03003875,-0.03172671,-1.211919,0.5060139,0.1578647,0.4032497,1.501166,0.1565981,-0.1772367,1.600054,0.2635875,302.1028,107.8019,151.7479,True
3,3.188883,-0.007821416,0.02662296,0.007566928,-1.398893,1.457436,-1.678195,0.1050998,1.437392,0.34951,-0.973812,-0.04183674,8.222812,9.792157,0.0002218243,-0.0008455599,-0.01802292,-0.2877407,-1.513423,-2.403504,0.2429023,1.520134,0.2524838,0.001409203,-0.005122042,-0.01555395,-1.211651,0.5045574,0.1590943,0.4034838,1.50113,0.1564574,-0.1772389,1.600029,0.2635213,302.1472,107.9628,151.636,True
3,3.199994,0.005024991,0.008513575,-0.005154422,-1.398307,1.456967,-1.678609,0.1052215,1.437477,0.3493385,-0.9734802,0.03074245,8.461537,9.963574,0.002385815,0.01406577,-0.007372719,-0.2884571,-1.514595,-2.402487,0.2429822,1.520167,0.2523005,-0.004682817,-0.008342139,0.01433443,-1.210555,0.5041125,0.1595156,0.4035845,1.501134,0.1562343,-0.1772941,1.600002,0.2634885,302.1246,108.0576,151.5511,True
3,3.211105,0.03392872,-0.02445774,-0.01998982,-1.396534,1.456037,-1.680102,0.1053044,1.437569,0.3493471,-0.9737188,-0.02210956,8.726789,9.942146,-0.005011868,0.007645702,-0.00199486,-0.2883884,-1.513673,-2.403007,0.2431376,1.520196,0.2521465,-0.0001939749,-0.004109975,0.03666715,-1.20943,0.5040578,0.1593359,0.4036826,1.501085,0.1560359,-0.1773436,1.599987,0.263496,302.0858,108.0648,151.5376,True
3,3.222216,0.04256906,-0.0532042,-0.0273138,-1.395186,1.455943,-1.680803,0.1051832,1.43739,0.3494537,-0.9743026,-0.05311405,9.045091,9.599312,0.0004385416,0.001258497,0.01180782,-0.2887058,-1.511676,-2.405116,0.2432598,1.520206,0.251972,-0.004558125,-0.01368579,0.02711399,-1.20951,0.5035635,0.1597143,0.4037684,1.501043,0.1558158,-0.1773677,1.599981,0.2635268,302.0572,108.0125,151.5768,True
3,3.233327,0.03937346,-0.05429803,-0.03050037,-1.394464,1.45556,-1.681096,0.1053475,1.437365,0.3494184,-0.975468,-0.1061992,9.416446,9.063636,0.01230187,-0.00404696,0.0287598,-0.2892566,-1.50881,-2.40845,0.2433904,1.520197,0.2517962,-0.01741917,-0.04136977,0.02082326,-1.209862,0.5020662,0.1608416,0.403771,1.500974,0.1556048,-0.1773607,1.599976,0.2635288,302.0702,108.0252,151.5807,True
3,3.244438,0.02549319,-0.04904023,-0.03261214,-1.394195,1.455514,-1.680791,0.1053459,1.437152,0.3494084,-0.9745433,0.08535006,9.761274,8.463681,0.01002692,0.006611012,0.01387111,-0.2892715,-1.511015,-2.406366,0.2434817,1.520123,0.2516887,-0.02474949,-0.05202721,0.03366859,-1.209222,0.5009953,0.1616821,0.4038262,1.50086,0.1554298,-0.1772277,1.599963,0.2634521,302.2235,108.0676,151.5233,True
3,3.255549,-0.008637042,-0.04067982,-0.03473202,-1.393971,1.455034,-1.679427,0.1054078,1.437046,0.3494031,-0.9739872,0.04993948,9.999999,7.842295,0.0130554,0.01942233,-0.002119943,-0.2892933,-1.514233,-2.40338,0.2434819,1.520118,0.2516191,-0.01935173,-0.0318007,0.04002639,-1.208483,0.5012131,0.1617042,0.4038492,1.500808,0.1552715,-0.1770146,1.599939,0.2633234,302.4703,108.111,151.4325,True
3,3.26666,-0.02036624,-0.04073817,-0.03683172,-1.39352,1.454831,-1.678731,0.1055103,1.436963,0.3494112,-0.9732858,0.06379288,10.13263,7.349473,0.02042533,0.02265099,-0.01282393,-0.2891932,-1.516274,-2.401962,0.2436594,1.520001,0.2515304,0.009070378,0.0214794,0.002504827,-1.209292,0.5035912,0.1597881,0.4040913,1.500687,0.1550765,-0.1768804,1.599904,0.2632019,302.6481,108.1949,151.3106,True
3,3.277771,-0.01715484,-0.0428354,-0.03256562,-1.392979,1.45467,-1.678613,0.1056264,1.436923,0.3493793,-0.9723265,0.08729631,10.1061,7.113777,0.03003781,0.01202783,-0.01397148,-0.2889029,-1.516131,-2.402728,0.2438818,1.520031,0.2514303,0.0236724,0.0182997,-0.0274771,-1.210592,0.5038567,0.1590648,0.4043247,1.500715,0.1549313,-0.1768173,1.599882,0.263121,302.7433,108.2816,151.2146,True
3,3.288882,-0.006490222,-0.04811123,-0.03361201,-1.392336,1.454479,-1.678752,0.1059422,1.436976,0.3493564,-0.9729998,-0.06217995,10.05305,7.306619,0.04294766,-0.01137892,-0.006622541,-0.2884912,-1.512808,-2.406773,0.2442195,1.519979,0.2513597,0.02132504,-0.01363624,-0.04666249,-1.211946,0.5026894,0.1593995,0.4045715,1.50064,0.1548836,-0.1768584,1.599831,0.26309,302.6927,108.3041,151.1902,True
3,3.299993,0.01371262,-0.04381666,-0.04750356,-1.391971,1.453602,-1.679421,0.1061969,1.436995,0.3493564,-0.9737784,-0.07050169,9.94695,7.992284,0.03440025,-0.0007536672,-0.005483673,-0.2886968,-1.51374,-2.405983,0.244427,1.519922,0.251255,0.003516443,-0.03176391,-0.01560443,-1.211264,0.5014923,0.1603412,0.4046993,1.50057,0.1547208,-0.176916,1.599813,0.2630808,302.6509,108.3416,151.1442,True
