loc,t,aDotS,bDotS,gDotS,aS,bS,gS,xS,yS,zS,qE,qDotE,emgA,emgB,aDotSH,bDotSH,gDotSH,aSH,bSH,gSH,xSH,ySH,zSH,aDotUB,bDotUB,gDotUB,aUB,bUB,gUB,xUB,yUB,zUB,xHand,yHand,zHand,aHand,bHand,gHand,enable
5,0,0.485268,-0.5449027,0.5693358,4.647265,-4.621747,-2.483041,0.3362028,1.218292,0.4897988,-0.8899576,0.01379872,11.03448,14.39897,-0.6250992,0.5741365,0.03076288,-0.5742947,-3.651828,-0.4434755,0.3822205,1.420783,0.4559186,-0.3513132,0.6296799,0.1398716,-1.035673,0.4080566,-0.1121271,0.5401673,1.4915,0.3036933,0.02843348,1.126122,0.3968351,290.1458,286.5287,334.4005,True
5,0.01111111,0.4542774,-0.5079913,0.5243675,4.646871,-4.615501,-2.48683,0.3349734,1.217579,0.4871466,-0.8897989,0.01434969,11.08753,14.4204,-0.6037236,0.5464974,0.0316831,-0.5761067,-3.642802,-0.4449463,0.3805118,1.420598,0.4544995,-0.3502549,0.6115707,0.1398856,-1.034695,0.4155278,-0.1120059,0.5396056,1.49149,0.3034327,0.02874592,1.122973,0.3892792,292.7529,293.1835,325.4459,True
5,0.02222222,0.4275395,-0.475328,0.4741183,4.646583,-4.610125,-2.490252,0.3339335,1.217028,0.4853137,-0.8891816,0.0562742,11.22016,14.54896,-0.5726609,0.5082125,0.04425352,-0.5770761,-3.635002,-0.4461892,0.3791375,1.420414,0.4530923,-0.3450418,0.6073098,0.1270554,-1.034464,0.4232402,-0.1122624,0.5391321,1.491457,0.3031476,0.03008991,1.11783,0.3780152,294.1728,291.0529,324.6687,True
5,0.03333334,0.4114956,-0.4585332,0.4388768,4.646396,-4.604158,-2.493882,0.3327481,1.216472,0.4836013,-0.8881232,0.09619137,11.37931,14.7418,-0.5448431,0.4805815,0.05365089,-0.5782836,-3.626678,-0.4479226,0.377457,1.420206,0.451695,-0.3376296,0.6094441,0.1227394,-1.033909,0.4314505,-0.1129495,0.5385989,1.491457,0.3028862,0.03225982,1.111847,0.3650704,295.9099,286.4346,325.6609,True
5,0.04444445,0.4007787,-0.4440712,0.3652906,4.647928,-4.599856,-2.497606,0.3317307,1.216111,0.4820755,-0.8876801,0.0398615,11.51194,15.06321,-0.4988393,0.433811,0.06719356,-0.5785488,-3.620502,-0.4492143,0.3760223,1.420017,0.4503436,-0.3164154,0.5956009,0.1118975,-1.033732,0.4386092,-0.11388,0.5381196,1.491413,0.302531,0.03351665,1.110165,0.3582468,293.6753,273.5328,338.5478,True
5,0.05555556,0.403924,-0.4379928,0.311996,4.649352,-4.594802,-2.501834,0.3306,1.215697,0.4805367,-0.8880284,-0.03200513,11.64456,15.40604,-0.4679634,0.4007847,0.06065883,-0.5795715,-3.61374,-0.4503618,0.3745676,1.419809,0.4489882,-0.3077812,0.5786059,0.11287,-1.033345,0.4456393,-0.1142243,0.5377905,1.491334,0.30217,0.03383439,1.109631,0.3540355,294.3692,276.4395,334.6397,True
5,0.06666667,0.4017445,-0.4232443,0.2842137,4.650077,-4.590041,-2.505992,0.3295808,1.215318,0.4789116,-0.8881802,-0.01347593,11.72414,15.7703,-0.4445252,0.3732597,0.03699742,-0.581457,-3.609302,-0.4501107,0.3730831,1.419697,0.4476461,-0.3035933,0.5732291,0.1149732,-1.032566,0.4528508,-0.1147809,0.5372989,1.491306,0.3017981,0.0339274,1.108834,0.3507388,295.0335,279.7653,330.5802,True
5,0.07777778,0.3696952,-0.3959478,0.2329269,4.651502,-4.586308,-2.509009,0.3286055,1.214981,0.4769831,-0.8888268,-0.05893087,11.83024,16.09171,-0.4392214,0.373274,0.03271027,-0.583016,-3.602128,-0.4513163,0.3716021,1.419575,0.4461381,-0.2834547,0.5604491,0.1041447,-1.032371,0.4598247,-0.1157183,0.5368402,1.491341,0.3013911,0.03397152,1.10853,0.3495844,294.8287,278.5841,331.9569,True
5,0.08888889,0.3590401,-0.3960133,0.2265387,4.652253,-4.58133,-2.512381,0.3275996,1.214649,0.4753234,-0.8888449,-0.001123008,11.85676,16.30598,-0.4360408,0.3818033,0.03376507,-0.5846368,-3.594243,-0.4530913,0.3702459,1.419499,0.4447055,-0.2770875,0.5476673,0.1008932,-1.03201,0.4665774,-0.1163034,0.5363277,1.491361,0.3010426,0.03388488,1.108252,0.3494326,294.9209,279.9015,331.1075,True
5,0.1,0.3163731,-0.3740155,0.1880822,4.653692,-4.577535,-2.514496,0.3265962,1.214174,0.4729815,-0.8876864,0.1058746,11.83024,16.41311,-0.4285547,0.4031129,0.04759496,-0.5859881,-3.585006,-0.4562988,0.3690051,1.419457,0.4433818,-0.2706776,0.5466036,0.1018888,-1.03165,0.4736614,-0.117194,0.5358355,1.49144,0.3006711,0.03378003,1.107846,0.3492515,295.0126,281.752,329.933,True
5,0.1111111,0.2929025,-0.36566,0.1709965,4.654842,-4.573569,-2.516752,0.3256589,1.213942,0.4712229,-0.8880955,-0.03821387,11.80371,16.41311,-0.4166683,0.4126894,0.08057504,-0.5861633,-3.575596,-0.4599836,0.3679299,1.419491,0.4420066,-0.2642979,0.5466041,0.1007607,-1.031359,0.4808333,-0.1181264,0.5353355,1.491593,0.3002667,0.03366177,1.107491,0.3486543,295.0096,282.8414,329.5049,True
5,0.1222222,0.2576896,-0.3455873,0.1581087,4.655612,-4.570308,-2.518165,0.3247096,1.213956,0.4696236,-0.8869829,0.1022593,11.72414,16.28455,-0.4112159,0.4137475,0.1029164,-0.5865527,-3.566548,-0.4631181,0.3668027,1.41953,0.4406798,-0.2547234,0.5274318,0.09854668,-1.030975,0.4869594,-0.1187655,0.534812,1.491632,0.2998123,0.03355497,1.107211,0.3476067,294.86,283.154,329.8427,True
5,0.1333333,0.2139475,-0.3223226,0.1526816,4.655999,-4.56666,-2.51896,0.3236679,1.213396,0.466687,-0.8872055,-0.02113013,11.61804,16.09171,-0.4015603,0.4009869,0.1049829,-0.5873005,-3.559265,-0.4653072,0.3657416,1.419502,0.4393954,-0.2547162,0.5007957,0.1006916,-1.030214,0.4925552,-0.1186393,0.5343559,1.491673,0.2992215,0.03337553,1.107006,0.3462266,294.6581,282.8958,330.7346,True
5,0.1444445,0.1627647,-0.3043503,0.1525945,4.656254,-4.563415,-2.518856,0.3225501,1.213461,0.4649873,-0.8866068,0.05520814,11.53846,15.89886,-0.378032,0.3467223,0.0973404,-0.587431,-3.555338,-0.4651799,0.364733,1.419554,0.4381506,-0.2547075,0.4752287,0.1006944,-1.029625,0.4977967,-0.1184992,0.533862,1.49171,0.2986996,0.03314127,1.106913,0.3447895,294.4463,282.3213,331.7849,True
5,0.1555556,0.09774498,-0.2906978,0.1514711,4.656644,-4.559939,-2.517797,0.3214058,1.213545,0.4634819,-0.8862275,0.03435637,11.48541,15.72745,-0.3619824,0.2998907,0.08974807,-0.5875669,-3.552039,-0.4643762,0.3637139,1.419555,0.4369593,-0.2430705,0.4400744,0.09100202,-1.029442,0.5021436,-0.1183895,0.5333701,1.491681,0.2981741,0.03274032,1.106865,0.3433535,294.3488,281.8611,332.7368,True
5,0.1666667,0.0295684,-0.2856266,0.1429353,4.65757,-4.556419,-2.516208,0.3200545,1.213782,0.4618931,-0.8856204,0.05551685,11.48541,15.55603,-0.3501793,0.263708,0.08858003,-0.5876105,-3.548089,-0.4640683,0.3626239,1.419705,0.4356575,-0.2312844,0.4177071,0.09729628,-1.028588,0.506841,-0.1186691,0.532876,1.491745,0.2975955,0.0322139,1.106779,0.3417573,294.3089,281.4514,333.7824,True
5,0.1777778,-0.01412035,-0.2836525,0.1365442,4.658412,-4.553084,-2.514421,0.3187526,1.214057,0.4600909,-0.8850324,0.05364355,11.51194,15.40604,-0.35434,0.2413158,0.09710547,-0.5872419,-3.54376,-0.4635208,0.3614943,1.419845,0.4342678,-0.2163934,0.400665,0.0939673,-1.028112,0.5115514,-0.1191757,0.5324484,1.491756,0.2970529,0.03156719,1.106818,0.3401929,294.329,280.813,334.8699,True
5,0.1888889,-0.09399182,-0.2967509,0.1227974,4.660088,-4.549172,-2.510684,0.3171613,1.214497,0.4584718,-0.8849199,0.01017516,11.56498,15.32033,-0.3795786,0.2443882,0.1569154,-0.5851125,-3.536058,-0.464773,0.3604733,1.42003,0.4327991,-0.1951869,0.3804335,0.08099231,-1.028162,0.5158179,-0.1199632,0.5319654,1.491834,0.2964907,0.03075567,1.106951,0.3387179,294.4642,280.1172,335.8621,True
5,0.2,-0.1738384,-0.3183714,0.1048374,4.662196,-4.545364,-2.505843,0.3153212,1.215076,0.4568141,-0.8851975,-0.02499465,11.61804,15.23462,-0.379292,0.2593841,0.2016388,-0.5836051,-3.528,-0.4672564,0.3594572,1.420154,0.4313822,-0.1952484,0.3782976,0.07567347,-1.0279,0.5207221,-0.1201584,0.531486,1.491864,0.2958345,0.02978516,1.107132,0.3371841,294.6952,279.2733,336.8842,True
5,0.2111111,-0.2493923,-0.3496392,0.07843833,4.664925,-4.540842,-2.500717,0.3133045,1.215223,0.4544036,-0.8838318,0.1254139,11.67109,15.17034,-0.3781726,0.2539047,0.2229691,-0.5817393,-3.520999,-0.4687952,0.3586139,1.420294,0.429915,-0.1952965,0.3708331,0.07034598,-1.027725,0.5252917,-0.1202585,0.5309818,1.491912,0.2951808,0.02873014,1.10734,0.3354897,294.949,278.2906,338.0768,True
5,0.2222222,-0.3164285,-0.3862005,0.04990955,4.668354,-4.536626,-2.49504,0.3112181,1.216185,0.4532473,-0.8831766,0.05927422,11.69761,15.12749,-0.3833556,0.24322,0.2432303,-0.5798149,-3.514484,-0.4698514,0.357685,1.420511,0.4284859,-0.1762497,0.3548589,0.05526256,-1.028045,0.5292036,-0.1209874,0.5304918,1.491926,0.2944689,0.02748143,1.107631,0.3336172,295.3102,276.9868,339.525,True
5,0.2333333,-0.3675015,-0.4120176,0.02983265,4.671901,-4.532543,-2.489129,0.3090624,1.217036,0.4517484,-0.88355,-0.03405793,11.75066,15.08464,-0.3821636,0.229349,0.2623955,-0.5775437,-3.508132,-0.4707747,0.3567092,1.420777,0.4270933,-0.1666351,0.3442077,0.05731248,-1.027727,0.5332436,-0.1216239,0.5299851,1.49193,0.2937634,0.02598719,1.107981,0.3315259,295.8078,275.494,341.1763,True
5,0.2444444,-0.4537083,-0.446474,0.005555451,4.67626,-4.528187,-2.481024,0.3065626,1.218205,0.4503276,-0.8837039,-0.01322747,11.75066,15.02035,-0.3754747,0.2112155,0.3060184,-0.5739485,-3.501219,-0.472652,0.3558444,1.421121,0.4256516,-0.1527609,0.3282377,0.06039666,-1.027187,0.5370294,-0.1223081,0.5294924,1.491873,0.2929592,0.02368847,1.108467,0.3291599,295.5838,273.3901,343.4305,True
5,0.2555556,-0.5197139,-0.4712572,-0.01345433,4.680496,-4.523865,-2.472893,0.3042603,1.219373,0.4491603,-0.8841136,-0.03689509,11.77719,14.91322,-0.3646083,0.1920314,0.3368428,-0.5702962,-3.494729,-0.474321,0.3550464,1.421572,0.4243517,-0.1432548,0.3122616,0.0507265,-1.027312,0.5403721,-0.1227874,0.5289876,1.491876,0.2921762,0.02079049,1.109163,0.3265861,295.3923,270.2161,346.3367,True
5,0.2666667,-0.6101585,-0.5100549,-0.04726401,4.685913,-4.519138,-2.463198,0.3015995,1.220484,0.4472983,-0.8826264,0.1367379,11.80371,14.80608,-0.3398759,0.1856678,0.3739805,-0.5662424,-3.487068,-0.4779445,0.3542725,1.422036,0.4229014,-0.1499607,0.2813612,0.01563281,-1.028686,0.5425664,-0.1218271,0.5286185,1.491901,0.2913516,0.01541355,1.110139,0.3226666,294.1281,272.3337,343.4807,True
5,0.2777778,-0.7048741,-0.5498659,-0.07257322,4.691953,-4.514422,-2.451972,0.2986835,1.222077,0.4459238,-0.8831351,-0.0471438,11.83024,14.63467,-0.3246765,0.1707443,0.4196788,-0.5614934,-3.479491,-0.4810881,0.3535339,1.42243,0.4214342,-0.1512261,0.2696438,-0.00673038,-1.029849,0.5455435,-0.1215757,0.5282549,1.491905,0.2904077,0.01093561,1.110476,0.314262,295.4926,278.7471,333.2569,True
5,0.2888889,-0.7868273,-0.574714,-0.09154503,4.697484,-4.509544,-2.440837,0.2957413,1.223433,0.4439094,-0.882407,0.0676129,11.90981,14.48468,-0.3042154,0.107939,0.4301595,-0.5565213,-3.476529,-0.4809336,0.3528894,1.422957,0.4199688,-0.1482059,0.2568593,-0.02699671,-1.031101,0.5481957,-0.121426,0.5278303,1.49191,0.2894685,0.008698273,1.110928,0.3038076,296.1484,277.0692,331.2697,True
5,0.3,-0.8646171,-0.5697455,-0.1181788,4.703185,-4.50632,-2.428639,0.2926433,1.22524,0.4424117,-0.881582,0.07545086,12.01592,14.31326,-0.2815204,0.02594203,0.4512569,-0.5504045,-3.475924,-0.4790537,0.3520408,1.423696,0.4185233,-0.1398697,0.2355528,-0.0483806,-1.032556,0.5502197,-0.1211901,0.5274934,1.492004,0.2885039,0.007659495,1.112124,0.2930363,296.6292,273.2034,331.6724,True
5,0.3111111,-0.9072647,-0.5614175,-0.1320565,4.708429,-4.503033,-2.417319,0.2897128,1.227066,0.4410164,-0.8824331,-0.07782716,12.12201,14.16327,-0.2726678,-0.02626644,0.486312,-0.5437354,-3.473294,-0.4784694,0.3513378,1.424209,0.41716,-0.1388994,0.1993288,-0.06116986,-1.033772,0.551092,-0.1202228,0.5270742,1.491998,0.2874444,0.006845201,1.114504,0.2832921,296.9524,269.8324,331.9889,True
5,0.3222222,-0.9637852,-0.5403163,-0.141744,-1.569796,-4.500434,-2.404623,0.2864732,1.229149,0.4394193,-0.8822749,0.01581487,12.20159,14.05614,-0.2678542,-0.1008828,0.5490704,-0.534743,-3.472255,-0.4765961,0.3505933,1.42504,0.4156139,-0.1602119,0.1662937,-0.06203798,-1.034469,0.5519271,-0.1180246,0.5265389,1.492024,0.286453,0.005380543,1.118207,0.2753766,296.8095,267.4255,332.0921,True
5,0.3333333,-1.016055,-0.5128427,-0.1557118,-1.565183,-4.498169,-2.391931,0.2832648,1.231341,0.4379637,-0.8838882,-0.1471351,12.25464,13.949,-0.2815078,-0.1254334,0.5725667,-0.5277107,-3.469236,-0.4755785,0.349831,1.425677,0.4140606,-0.1792666,0.1513736,-0.04908216,-1.034692,0.5532402,-0.1160536,0.5260352,1.492017,0.2854321,0.002813358,1.12326,0.2698614,296.2345,265.7949,332.1918,True
5,0.3444445,-1.069432,-0.4768938,-0.178265,-1.560357,-4.496792,-2.378502,0.2801029,1.233777,0.4366362,-0.8833823,0.04803396,12.25464,13.90615,-0.2931027,-0.09460169,0.6078168,-0.5206767,-3.4621,-0.478084,0.3490736,1.426388,0.4123814,-0.2015056,0.1630753,-0.03289408,-1.034541,0.5558094,-0.114305,0.5255681,1.49207,0.2843139,-0.0008212165,1.129493,0.2669004,295.1955,265.0924,332.3319,True
5,0.3555556,-1.129272,-0.4100298,-0.1946036,-1.556738,-4.49701,-2.364118,0.2768962,1.236036,0.4348426,-0.8839623,-0.05310044,12.25464,13.90615,-0.2802593,-0.07221135,0.6269364,-0.5142015,-3.454935,-0.4817672,0.3483647,1.427067,0.4106348,-0.2059006,0.1886361,-0.04671483,-1.036011,0.5590524,-0.113546,0.5251533,1.492058,0.283067,-0.005505118,1.136636,0.2661496,293.9177,265.2675,332.5262,True
5,0.3666667,-1.190229,-0.3261784,-0.2216827,-1.55373,-4.498478,-2.349151,0.2737656,1.23857,0.4337137,-0.8839421,0.002853238,12.25464,13.92758,-0.2823252,-0.08074591,0.6343978,-0.5072235,-3.450173,-0.4827379,0.3475423,1.427824,0.4089005,-0.1997741,0.1811789,-0.07660151,-1.038059,0.5608285,-0.1124482,0.5246951,1.492074,0.2819169,-0.01080121,1.144405,0.2670577,292.4894,266.0265,332.7864,True
5,0.3777778,-1.253292,-0.2486641,-0.2370157,-1.551211,-4.500509,-2.333082,0.2704529,1.241003,0.4318435,-0.8836283,0.02906923,12.28117,13.97043,-0.3213969,-0.0841051,0.691079,-0.4982679,-3.4433,-0.4839552,0.3467375,1.428828,0.4072988,-0.2042111,0.1715971,-0.09680028,-1.039988,0.5625395,-0.1108717,0.524262,1.491903,0.2807217,-0.01637662,1.152504,0.2689304,291.0287,267.1807,333.009,True
5,0.3888889,-1.290706,-0.198685,-0.2362212,-1.548893,-4.501726,-2.31756,0.2671757,1.243694,0.4305813,-0.8836885,-0.005248446,12.33422,14.03471,-0.3244075,-0.08306964,0.7241229,-0.4898235,-3.435855,-0.4868248,0.345877,1.429746,0.4053681,-0.2280095,0.1737157,-0.1370685,-1.043119,0.5644515,-0.1084056,0.5236993,1.491858,0.2794981,-0.0220519,1.160686,0.2710466,289.6549,268.642,332.9678,True
5,0.4,-1.326039,-0.130564,-0.2302037,-1.547827,-4.504097,-2.301353,0.2638924,1.246324,0.4286609,-0.8832853,0.03736858,12.41379,14.09899,-0.3199647,-0.09906062,0.748585,-0.4808401,-3.429583,-0.4889007,0.3451045,1.430734,0.4035263,-0.2494863,0.1896833,-0.1549846,-1.045666,0.5673077,-0.1062332,0.5231328,1.491928,0.2783735,-0.02759955,1.168824,0.2729215,288.4432,270.1139,332.7039,True
5,0.4111111,-1.348505,-0.09014703,-0.2282923,-1.546118,-4.50588,-2.285942,0.2607765,1.249058,0.4268315,-0.8844337,-0.1048217,12.51989,14.14185,-0.3048089,-0.1416539,0.7729619,-0.4711941,-3.425575,-0.4895234,0.3444307,1.431863,0.4016111,-0.2601155,0.2003321,-0.1516975,-1.0475,0.5701178,-0.1043837,0.5225196,1.49192,0.2771533,-0.03302057,1.176865,0.2740695,287.3909,271.4359,332.3703,True
5,0.4222222,-1.372127,-0.0210091,-0.2361329,-1.545881,-4.509577,-2.26977,0.2577311,1.25175,0.4248946,-0.8845125,-0.005820416,12.57294,14.16327,-0.291753,-0.1959713,0.7962737,-0.4609601,-3.423187,-0.4888251,0.3437418,1.432916,0.3998115,-0.2719373,0.1960636,-0.1633092,-1.049837,0.5721788,-0.1020411,0.5219342,1.492034,0.275882,-0.03804915,1.184827,0.2742842,286.4441,272.5007,331.9389,True
5,0.4333333,-1.411664,0.02458739,-0.2534061,-1.544946,-4.513074,-2.252959,0.2548999,1.254511,0.4232035,-0.8858142,-0.1187037,12.59947,14.1847,-0.2893892,-0.2375309,0.820724,-0.4504236,-3.420447,-0.4880192,0.342997,1.43396,0.3979714,-0.2773526,0.1822116,-0.1739126,-1.052252,0.5736526,-0.09953324,0.5213006,1.492062,0.2746553,-0.04272233,1.192745,0.2734349,285.5787,273.4774,331.3079,True
5,0.4444444,-1.44049,0.05327165,-0.2524875,-1.544333,-4.515906,-2.23594,0.2519501,1.257638,0.4216826,-0.8856907,0.01263482,12.51989,14.1847,-0.2816953,-0.2897277,0.8387429,-0.4391526,-3.419856,-0.485653,0.3422146,1.435046,0.3961346,-0.2902239,0.1566949,-0.1876379,-1.055002,0.5750549,-0.09683333,0.5207432,1.491789,0.273103,-0.04690031,1.200629,0.2716343,284.702,274.1104,330.6507,True
5,0.4555556,-1.43524,0.08092839,-0.2622333,-1.543773,-4.519585,-2.220095,0.2490363,1.260493,0.419518,-0.8854371,0.02331398,12.44032,14.20613,-0.2678499,-0.3322804,0.8226439,-0.4293479,-3.420734,-0.4821704,0.3412817,1.436123,0.3941896,-0.2945266,0.1503081,-0.1929335,-1.057557,0.5766223,-0.09424687,0.5199908,1.491914,0.271883,-0.05071999,1.208519,0.2691889,283.8654,274.5334,329.8444,True
5,0.4666667,-1.421463,0.1129274,-0.260277,-1.544038,-4.523011,-2.204966,0.2461634,1.263314,0.4176049,-0.8856151,-0.01619431,12.36074,14.22755,-0.2742116,-0.3493348,0.8205355,-0.4193371,-3.420184,-0.4794079,0.340376,1.437267,0.3922119,-0.2997306,0.1534999,-0.1790319,-1.059127,0.5785497,-0.09174617,0.5192397,1.491932,0.2705743,-0.05423848,1.216503,0.2665192,283.0809,274.5412,329.2413,True
5,0.4777778,-1.388702,0.2154191,-0.2363658,-1.547735,-4.528055,-2.190673,0.2434547,1.265858,0.4152112,-0.8872124,-0.1456184,12.30769,14.22755,-0.2826968,-0.3227424,0.8397824,-0.4093039,-3.414475,-0.4811139,0.3395374,1.438349,0.3903372,-0.3040724,0.1534911,-0.1875162,-1.061589,0.5801939,-0.08902016,0.5185902,1.492073,0.2692432,-0.05770047,1.224729,0.2639335,282.306,274.5821,328.6786,True
5,0.4888889,-1.374274,0.4063948,-0.1905488,-1.556303,-4.534487,-2.175941,0.241015,1.268105,0.4129183,-0.8883389,-0.1015493,12.25464,14.24898,-0.3019046,-0.2706087,0.8580496,-0.3998007,-3.405352,-0.4855108,0.3389123,1.439353,0.3882771,-0.3170276,0.1311137,-0.2076362,-1.06457,0.5807318,-0.08539532,0.5178457,1.492109,0.2678421,-0.06120925,1.233172,0.2616252,281.3574,275.2801,327.6895,True
5,0.5,-1.398366,0.6601397,-0.1440396,-1.569158,-4.543584,-2.159655,0.2384938,1.270056,0.4102838,-0.889402,-0.09641664,12.30769,14.24898,-0.3337741,-0.2408881,0.8870226,-0.3895267,-3.396058,-0.4892735,0.338094,1.440494,0.3862331,-0.323449,0.1172655,-0.2107698,-1.067027,0.5814982,-0.08191431,0.5171297,1.492098,0.2664549,-0.06471031,1.241701,0.2597556,280.3309,277.2321,325.6219,True
5,0.5111111,-1.424366,0.8296595,-0.1077099,4.70217,-4.551562,-2.143067,0.2360082,1.272305,0.4083207,-0.8890628,0.03182774,12.36074,14.29184,-0.3399518,-0.2430727,0.9254092,-0.3779537,-3.38836,-0.4924172,0.3373809,1.441578,0.3843153,-0.3352724,0.1108674,-0.222379,-1.069847,0.5824534,-0.07825885,0.5164409,1.492065,0.2650535,-0.06820987,1.250164,0.258404,279.4029,281.4807,321.4355,True
5,0.5222223,-1.473968,1.06205,-0.05787456,4.684736,-4.561489,-2.125324,0.2335871,1.273921,0.4056585,-0.8874505,0.147121,12.41379,14.37754,-0.3172602,-0.2707528,0.968932,-0.3653782,-3.38156,-0.4959637,0.3366152,1.442613,0.3823917,-0.339672,0.09914634,-0.2383188,-1.073041,0.5829833,-0.07459114,0.5157208,1.492018,0.2636023,-0.07177762,1.258485,0.2576436,278.7921,288.2725,314.8316,True
5,0.5333334,-1.52867,1.203632,-0.04692161,4.669903,-4.57073,-2.106718,0.2312863,1.27574,0.4029403,-0.8870116,0.0389236,12.44032,14.48468,-0.2841169,-0.3228697,0.967633,-0.3533402,-3.380323,-0.4949812,0.3358826,1.443551,0.3804064,-0.3322262,0.05972549,-0.2405193,-1.075811,0.5820116,-0.07055806,0.5150775,1.491922,0.2620666,-0.0756424,1.266754,0.2575113,278.5601,296.0772,307.3257,True
5,0.5444446,-1.551132,1.238769,-0.03965586,4.656799,-4.578621,-2.088745,0.2287554,1.277735,0.4002314,-0.8859378,0.09812474,12.38727,14.61324,-0.2500153,-0.3398226,0.9620956,-0.3416958,-3.376971,-0.496508,0.3348911,1.444407,0.3785565,-0.3364618,0.04267932,-0.2383494,-1.078411,0.5816919,-0.06645652,0.5142596,1.491862,0.2606287,-0.07964767,1.275092,0.2580517,278.5257,303.685,300.134,True
5,0.5555557,-1.542439,1.175947,-0.03502357,4.647699,-4.583702,-2.072326,0.2262083,1.280199,0.3978031,-0.8851975,0.06720634,12.28117,14.76323,-0.2443058,-0.3024331,0.8608916,-0.335227,-3.373075,-0.4974393,0.3339335,1.445359,0.3767531,-0.3363542,0.05226667,-0.2255644,-1.080505,0.582636,-0.0630775,0.5135283,1.491719,0.2591472,-0.08378146,1.283654,0.2591872,278.7709,312.5003,291.9963,True
5,0.5666668,-1.501793,1.114293,-0.02826923,4.63862,-4.588415,-2.057347,0.2238013,1.282618,0.3954015,-0.8861061,-0.08344711,12.14854,14.82751,-0.2556221,-0.314062,0.74057,-0.3295827,-3.377115,-0.4903671,0.3329177,1.44643,0.3750279,-0.3319028,0.07570112,-0.2032319,-1.082127,0.5843176,-0.06031793,0.5126932,1.491734,0.2577622,-0.08781299,1.292527,0.260709,279.0654,321.0374,284.3556,True
5,0.577778,-1.379126,1.059404,0.003955841,4.629416,-4.591979,-2.046539,0.2212211,1.284854,0.3926096,-0.8881781,-0.1883579,11.96286,14.80608,-0.2685035,-0.3566802,0.7065123,-0.3207714,-3.382297,-0.4819334,0.3320583,1.447549,0.3733294,-0.3189875,0.07890296,-0.188433,-1.083768,0.5853352,-0.05769739,0.5119107,1.491714,0.2563233,-0.09155276,1.301727,0.2623104,279.3028,329.3722,276.978,True
5,0.5888891,-1.250658,1.231508,0.04769391,4.611036,-4.599312,-2.037591,0.2193908,1.286788,0.3901145,-0.8899342,-0.1589014,11.80371,14.67752,-0.2438912,-0.438635,0.6881945,-0.3106908,-3.393125,-0.4698676,0.3312031,1.448711,0.3714747,-0.3052533,0.08210216,-0.2013403,-1.086513,0.5862915,-0.05526885,0.511097,1.491648,0.254823,-0.09471272,1.31111,0.2636494,279.4875,337.8473,269.3674,True
5,0.6000003,-1.185303,1.496033,0.07493311,4.587479,-4.609574,-2.02777,0.2175733,1.287704,0.3870666,-0.8941329,-0.3827906,11.69761,14.44182,-0.1710514,-0.5290274,0.7175241,-0.2985286,-3.406517,-0.4577396,0.3300301,1.449763,0.3694577,-0.3259,0.04800434,-0.2480275,-1.090862,0.5854078,-0.0505191,0.5102066,1.491522,0.2532129,-0.09727374,1.320441,0.2644701,279.8435,346.7096,261.1806,True
5,0.6111114,-1.168746,1.717876,0.1036049,4.562901,-4.619248,-2.0161,0.2158711,1.288378,0.384465,-0.8955124,-0.1233136,11.61804,14.03471,-0.1806235,-0.4992404,0.7335965,-0.2886307,-3.406895,-0.4548615,0.3287975,1.450719,0.367254,-0.3559186,0.02989091,-0.270127,-1.094497,0.5850577,-0.04539758,0.5092875,1.491404,0.2517014,-0.09931484,1.329297,0.2646258,280.553,355.207,253.0305,True
5,0.6222225,-1.118937,1.787163,0.0956744,4.542314,-4.62825,-2.006626,0.21399,1.289245,0.3815188,-0.8935598,0.1786395,11.59151,13.45618,-0.2020762,-0.3576448,0.7711344,-0.2799819,-3.389549,-0.4684261,0.3272735,1.451316,0.3651326,-0.3900412,0.02029039,-0.2740824,-1.097745,0.5847836,-0.03971998,0.5082052,1.49131,0.2503211,-0.1010362,1.337296,0.264471,281.8029,1.259377,246.8567,True
5,0.6333337,-1.033749,1.792233,0.01252943,4.525908,-4.63914,-1.999995,0.2124402,1.289777,0.3786092,-0.8907645,0.253274,11.56498,12.72766,-0.2185189,-0.2138562,0.7575127,-0.2739376,-3.368762,-0.4852365,0.326009,1.451795,0.3631687,-0.4090947,0.03200409,-0.2600646,-1.100178,0.5855922,-0.03498302,0.5071341,1.491319,0.2490344,-0.1029618,1.344241,0.2644686,283.2825,4.818276,243.0159,True
5,0.6444448,-1.097859,1.861795,-0.09007549,4.506809,-4.652548,-1.988024,0.2110561,1.29058,0.3761911,-0.8922144,-0.1346616,11.51194,11.91343,-0.2461833,-0.01569483,0.6651694,-0.2735333,-3.33906,-0.5099935,0.3245512,1.45199,0.3612955,-0.3745703,0.07569417,-0.2103065,-1.101075,0.5880726,-0.03312972,0.5058889,1.491282,0.2477562,-0.1052934,1.350217,0.264994,284.6152,6.213214,241.5299,True
5,0.655556,-1.172419,1.854021,-0.1113082,4.4888,-4.662664,-1.974554,0.2098021,1.291372,0.3736186,-0.8943257,-0.1921057,11.45889,11.09921,-0.2811336,0.02268046,0.5322403,-0.2726448,-3.333465,-0.5111746,0.3232442,1.45238,0.3595884,-0.3273073,0.09809336,-0.165985,-1.101535,0.5901738,-0.03203224,0.5046865,1.491229,0.2463448,-0.1079192,1.355299,0.2661149,285.6225,7.32898,240.7679,True
5,0.6666671,-1.073003,1.748141,-0.0457564,4.473197,-4.667465,-1.967244,0.2083645,1.292767,0.3717961,-0.8881104,0.5690473,11.43236,10.39211,-0.2953131,-0.0688819,0.4342291,-0.268918,-3.343015,-0.4982742,0.3220316,1.452843,0.3580346,-0.2522789,0.1247548,-0.114454,-1.101132,0.592721,-0.03298138,0.5034009,1.491126,0.2450538,-0.1105668,1.35937,0.2679145,286.4228,8.445358,240.1451,True
5,0.6777782,-1.005472,1.598438,0.01258916,4.46036,-4.670524,-1.959198,0.207086,1.293551,0.3693864,-0.8863213,0.1586507,11.43236,9.835011,-0.2740719,-0.1369682,0.3924977,-0.2644854,-3.350695,-0.4885417,0.3209071,1.453315,0.3564973,-0.2139276,0.1556595,-0.1126643,-1.102401,0.5956768,-0.03301761,0.5022583,1.490956,0.2436721,-0.1134483,1.362931,0.2706743,287.2863,7.7116,241.4122,True
5,0.6888894,-0.8902975,1.590818,0.1127344,4.441891,-4.673378,-1.954163,0.2058536,1.294941,0.3682227,-0.8934666,-0.6536093,11.51194,9.449324,-0.1866733,-0.2453721,0.3514175,-0.2592513,-3.368534,-0.4724336,0.3199474,1.453902,0.3551383,-0.2130544,0.1492706,-0.1350481,-1.10478,0.5971785,-0.03124767,0.501153,1.490841,0.2423737,-0.1161733,1.366602,0.2742883,288.2632,6.316241,243.7428,True
5,0.7000005,-0.7591135,1.54363,0.1853902,4.4259,-4.674998,-1.950729,0.2045853,1.295678,0.3654065,-0.8935944,-0.005774387,11.64456,9.256481,-0.08934787,-0.3399597,0.376343,-0.251576,-3.383153,-0.4606254,0.3190795,1.454522,0.3537056,-0.2230542,0.1045216,-0.182896,-1.108337,0.5967952,-0.02826732,0.5001205,1.490679,0.2409298,-0.1181735,1.370571,0.2781301,289.36,6.661839,244.7885,True
5,0.7111117,-0.6600209,1.548382,0.2268921,4.408051,-4.678277,-1.947552,0.2032664,1.296692,0.3633089,-0.8958879,-0.2108358,11.75066,9.235053,-0.01437128,-0.4303479,0.4088544,-0.2431083,-3.400881,-0.445399,0.3180748,1.454783,0.3521693,-0.2265211,0.05871487,-0.2158806,-1.111624,0.5958429,-0.02530189,0.4989754,1.490592,0.2395847,-0.1193742,1.374789,0.2814485,290.5493,8.062921,244.6844,True
5,0.7222228,-0.5515951,1.640729,0.1155636,4.388906,-4.689112,-1.948223,0.2018929,1.297167,0.3614988,-0.8972179,-0.1204275,11.77719,9.342188,0.01347154,-0.3940988,0.4502774,-0.2359683,-3.401635,-0.4456725,0.3171815,1.455021,0.3506074,-0.2298975,-0.02118497,-0.2392831,-1.115027,0.5924026,-0.02106667,0.4979228,1.490436,0.2381458,-0.1200923,1.379277,0.283988,291.9234,9.646613,243.9406,True
5,0.7333339,-0.539857,1.622289,0.05174375,4.373174,-4.697514,-1.945253,0.2004576,1.297465,0.3590448,-0.8961489,0.09792344,11.69761,9.577887,0.002843261,-0.334498,0.4823536,-0.2294633,-3.395693,-0.450899,0.3160929,1.455157,0.3490291,-0.2267554,-0.06166555,-0.2467599,-1.117786,0.5902215,-0.01768792,0.4968318,1.490329,0.2366841,-0.1205774,1.383676,0.2853423,293.2782,11.69461,242.524,True
5,0.7444451,-0.5929824,1.578315,0.02114451,4.358517,-4.703865,-1.93891,0.1995238,1.297972,0.3577542,-0.896534,-0.03702389,11.56498,9.877864,-0.06790078,-0.2611347,0.4391488,-0.2260129,-3.390834,-0.4525091,0.3149092,1.455112,0.3476284,-0.1946031,-0.0829606,-0.2268019,-1.119521,0.588352,-0.01589028,0.495699,1.490099,0.2353251,-0.1213986,1.387803,0.2857067,294.3461,13.11797,241.0316,True
5,0.7555562,-0.6308145,1.382459,0.0670085,4.348962,-4.705212,-1.93119,0.1985147,1.298144,0.3563282,-0.8927326,0.3466406,11.27321,10.13499,-0.08901078,-0.1971574,0.3157557,-0.2260246,-3.393415,-0.4483557,0.313827,1.455078,0.3463519,-0.1699148,-0.07335481,-0.205716,-1.121083,0.5879946,-0.01466789,0.4946046,1.489897,0.2339637,-0.1228464,1.391194,0.2858497,295.1388,14.23622,239.3611,True
5,0.7666674,-0.6325835,1.254836,0.1039418,4.338545,-4.70674,-1.924831,0.1975923,1.298795,0.3552389,-0.8890553,0.3331363,10.95491,10.56353,-0.08313631,-0.1374256,0.251861,-0.2254318,-3.390455,-0.4505349,0.3129015,1.455111,0.3451149,-0.1388014,-0.05097597,-0.1814902,-1.122224,0.5881374,-0.01438054,0.4934518,1.489692,0.2326503,-0.1247645,1.393615,0.2862267,295.7448,14.44088,238.7542,True
5,0.7777785,-0.5670116,1.026087,0.1265106,4.333924,-4.705995,-1.920323,0.1965641,1.299543,0.3541245,-0.8888753,0.01404051,10.58355,11.2492,-0.04645802,-0.09144732,0.1664719,-0.2260422,-3.390127,-0.4515432,0.3122087,1.455224,0.3441606,-0.09802814,-0.0136681,-0.1477643,-1.12291,0.5893493,-0.01506071,0.4924126,1.489501,0.2312698,-0.1266396,1.395286,0.2871076,296.2072,13.57148,239.562,True
5,0.7888896,-0.5079335,0.8300338,0.0946077,4.330661,-4.70707,-1.917158,0.1957647,1.300528,0.3543136,-0.890152,-0.1164447,10.23872,12.14913,0.01722935,-0.1455576,0.1010766,-0.2252257,-3.405728,-0.4385552,0.31171,1.455545,0.3432624,-0.08834107,-0.01153688,-0.1371973,-1.124116,0.5891848,-0.01434458,0.491322,1.489362,0.2299345,-0.1280758,1.396613,0.2882789,296.6424,12.60499,240.9518,True
5,0.8000008,-0.3879558,0.5485201,-0.007196367,4.335354,-4.709309,-1.917668,0.1949083,1.301631,0.3539872,-0.892772,-0.2387702,9.999999,13.32762,0.0578053,-0.1848669,0.09973885,-0.2228762,-3.417208,-0.4293311,0.3113193,1.455821,0.342298,-0.05411166,-0.04135101,-0.1225788,-1.124814,0.5875809,-0.01418826,0.4903701,1.489197,0.2285583,-0.1290952,1.398084,0.2895631,297.1255,11.93023,242.2363,True
5,0.8111119,-0.1996355,0.1977538,-0.1395058,4.345559,-4.711627,-1.922488,0.1942254,1.303042,0.3551583,-0.8933254,-0.04888265,9.94695,14.67752,0.1938202,-0.3038975,0.1723648,-0.2157858,-3.438737,-0.4148379,0.3110226,1.456205,0.3412485,-0.0488366,-0.06798444,-0.1300796,-1.126492,0.5856457,-0.01302552,0.4893394,1.489125,0.2271688,-0.1296982,1.399847,0.2906299,297.4292,12.08036,242.6066,True
5,0.8222231,-0.09233942,-0.1253619,-0.2442478,4.357781,1.570209,-1.92522,0.1936104,1.304193,0.3564575,-0.8959955,-0.2444016,10.02653,16.19884,0.3682678,-0.3898364,0.2746257,-0.2070512,-3.457957,-0.406001,0.3105388,1.456725,0.3399835,-0.03536029,-0.1169856,-0.1728079,-1.129817,0.5823123,-0.01153042,0.488467,1.488898,0.2256434,-0.130087,1.401887,0.2915107,297.4556,12.79262,242.0833,True
5,0.8333342,-0.09497751,-0.3590232,-0.3068583,4.370616,1.569061,-1.924532,0.1927382,1.304746,0.356817,-0.8996899,-0.3364276,10.26525,17.84872,0.4163253,-0.3343599,0.3202085,-0.2018111,-3.456257,-0.413517,0.3097495,1.456961,0.3384876,-0.05290081,-0.1628093,-0.2301768,-1.134297,0.5785336,-0.008761267,0.4875207,1.488772,0.2242305,-0.1303432,1.403834,0.292104,297.0804,14.36219,240.5981,True
5,0.8444453,-0.1085636,-0.4689048,-0.3296671,4.379073,1.567819,-1.923059,0.1918354,1.305578,0.3576238,-0.8972264,0.2270307,10.61008,19.56289,0.3486319,-0.1086906,0.3197398,-0.2010857,-3.422466,-0.4482734,0.3087614,1.457223,0.3369377,-0.08393279,-0.1692174,-0.2458816,-1.137346,0.5763625,-0.005935654,0.4865497,1.488698,0.2229424,-0.1305157,1.405124,0.2924356,296.4181,16.28931,238.5078,True
5,0.8555565,-0.1008068,-0.5914763,-0.343899,4.390678,1.567498,-1.922252,0.190761,1.306094,0.3578672,-0.8926122,0.4188181,11.00796,21.10564,0.283215,0.0690352,0.3256047,-0.2006489,-3.385832,-0.4848322,0.3077612,1.457504,0.3356075,-0.1073345,-0.1575074,-0.2414113,-1.139869,0.5748468,-0.003343599,0.4854864,1.488672,0.2216372,-0.1308806,1.405437,0.2925128,295.7747,17.89958,236.7864,True
5,0.8666676,-0.04098414,-0.659484,-0.3403527,4.400238,1.567347,-1.923914,0.1898958,1.306873,0.3578711,-0.8907794,0.1638106,11.32626,22.06985,0.2122727,0.2691451,0.3038249,-0.2029563,-3.337498,-0.5321084,0.3068763,1.457539,0.3342535,-0.1017317,-0.154309,-0.2105677,-1.141187,0.5730938,-0.001697499,0.4844608,1.488612,0.2203231,-0.1317888,1.404903,0.2923144,295.1715,18.44351,236.2583,True
5,0.8777788,0.0304569,-0.6870332,-0.3455607,4.409651,1.566578,-1.926877,0.18912,1.307655,0.3576527,-0.8913041,-0.04917597,11.53846,22.41268,0.205577,0.2968332,0.2644706,-0.2034218,-3.320167,-0.5513095,0.3060353,1.457798,0.3332186,-0.04342675,-0.1478978,-0.1226618,-1.139636,0.5714769,-0.002309493,0.4833464,1.488662,0.2190039,-0.1332715,1.403923,0.2919901,294.5637,17.76351,236.9722,True
5,0.8888899,0.02280675,-0.6125315,-0.3545042,4.41494,1.563924,-1.927562,0.1883593,1.308572,0.3574429,-0.8935603,-0.2059799,11.64456,22.15556,0.1896287,0.2158494,0.2335957,-0.2018133,-3.319179,-0.5538867,0.3054027,1.458006,0.3320825,-0.02392289,-0.1478868,-0.08661038,-1.139567,0.5696786,-0.001918541,0.4822357,1.488556,0.2176268,-0.13496,1.402697,0.291427,293.8691,16.92505,238.0076,True
5,0.900001,0.1165549,-0.6111798,-0.3449711,4.42223,1.562981,-1.932371,0.1873079,1.309505,0.3570814,-0.8944024,-0.07564288,11.59151,21.40561,0.1889372,0.1082257,0.2516083,-0.1972231,-3.322294,-0.5529013,0.3047652,1.458431,0.3311446,-0.01731415,-0.1414916,-0.06216709,-1.139405,0.5681933,-0.001341434,0.4810948,1.488549,0.2162967,-0.136506,1.401361,0.2905324,293.2383,16.10806,239.0151,True
5,0.9111122,0.1111044,-0.5578439,-0.3303469,4.427341,1.561612,-1.93376,0.1865073,1.310086,0.3571677,-0.8911043,0.3016345,11.40584,20.18427,0.2177919,0.03693384,0.2353941,-0.1943847,-3.326149,-0.5526118,0.3040731,1.458754,0.3300748,-0.02227505,-0.1233879,-0.02164057,-1.138384,0.5673088,-0.0005707154,0.4799203,1.488545,0.2150347,-0.1378706,1.400001,0.2893229,292.6669,15.33613,239.7964,True
5,0.9222233,0.03071311,-0.3456951,-0.2675717,4.424035,1.559546,-1.93181,0.1856719,1.310237,0.3562825,-0.8948733,-0.3475071,11.16711,18.8558,0.2647693,-0.03643411,0.2201353,-0.1914078,-3.333983,-0.5496831,0.3030097,1.459108,0.3290472,-0.04126433,-0.1084799,-0.0001644008,-1.137621,0.5665961,0.0007930894,0.4787558,1.488613,0.2136922,-0.1393061,1.39893,0.2880959,292.1611,14.14333,240.8069,True
5,0.9333345,-0.05601651,-0.1527522,-0.2057384,4.419295,1.557816,-1.928614,0.1845912,1.310247,0.3553531,-0.8913068,0.3289076,10.92838,17.52732,0.2261459,0.01569274,0.1959063,-0.1913247,-3.321227,-0.5633243,0.3019362,1.45936,0.3279235,-0.06682736,-0.1212835,-0.0009931289,-1.137694,0.5643994,0.003219762,0.4775258,1.488638,0.2124143,-0.1406496,1.398065,0.2869031,291.6833,13.70481,241.0852,True
5,0.9444456,-0.1276685,-0.02908782,-0.1584604,4.416345,1.556154,-1.925573,0.1834932,1.310592,0.3546124,-0.8870537,0.3855127,10.71618,16.34883,0.1533559,0.09649554,0.1708321,-0.1925902,-3.301062,-0.5822467,0.3009583,1.459485,0.3268061,-0.08802463,-0.1543151,0.009851933,-1.137219,0.5612707,0.006277071,0.4763277,1.488691,0.2111824,-0.1419078,1.397386,0.2859291,291.4117,13.14086,241.3918,True
5,0.9555568,-0.1554149,-0.00561358,-0.1394018,4.415871,1.555,-1.923172,0.1823967,1.311033,0.353925,-0.885614,0.1287599,10.6366,15.68459,0.08301263,0.1059021,0.1691167,-0.1919042,-3.287967,-0.593528,0.3000086,1.45955,0.3257565,-0.08356754,-0.178818,0.03006824,-1.135995,0.5580544,0.008210259,0.4750715,1.488727,0.2099156,-0.1432659,1.3972,0.2854128,291.5999,12.10582,242.2796,True
5,0.9666679,-0.1511717,0.005179271,-0.1170876,4.415958,1.554387,-1.922003,0.1812981,1.311712,0.3535175,-0.8860252,-0.03808286,10.61008,15.34176,0.06063924,0.08454973,0.1596382,-0.1906371,-3.283373,-0.5980549,0.2991406,1.459719,0.3247395,-0.05032075,-0.1905226,0.0542738,-1.134478,0.5551718,0.008753544,0.4738704,1.488719,0.2087426,-0.144703,1.397742,0.2854163,291.9071,11.32975,243.1319,True
5,0.977779,-0.1426552,0.009515069,-0.1075282,4.415983,1.55348,-1.920972,0.1803892,1.312269,0.3528678,-0.8872135,-0.1080096,10.58355,15.29891,0.08194576,-0.001647338,0.1210815,-0.1889811,-3.296853,-0.5864486,0.2982912,1.459949,0.3238192,0.01444332,-0.1564125,0.03025646,-1.134927,0.554642,0.006452839,0.472816,1.48869,0.2076447,-0.1459983,1.399049,0.2858455,292.0709,11.37811,243.3428,True
5,0.9888902,-0.1458844,0.02010714,-0.1171779,4.416088,1.551538,-1.919771,0.179582,1.312863,0.3522651,-0.8889365,-0.1565101,10.55703,15.49175,0.1075326,-0.05482712,0.100643,-0.1872192,-3.307412,-0.5781813,0.2974083,1.460206,0.3229015,0.03121481,-0.1393676,-0.0007823315,-1.135921,0.5535164,0.005906092,0.4716533,1.488698,0.2064967,-0.1469473,1.400959,0.2865122,292.1449,12.36138,242.6719,True
5,1.000001,-0.1479923,0.008312471,-0.1298947,4.416966,1.549777,-1.918532,0.178611,1.313454,0.3518209,-0.8889781,-0.002827133,10.55703,15.83458,0.1342187,-0.05903107,0.1079513,-0.1854141,-3.30597,-0.5822424,0.2965131,1.460405,0.3218813,0.03820869,-0.1234052,-0.0509108,-1.138162,0.5523152,0.005928729,0.4705632,1.488753,0.2053647,-0.1475159,1.403194,0.2872332,292.2938,13.99901,241.3122,True
5,1.011112,-0.1425926,-0.0225708,-0.1329201,4.418571,1.548586,-1.917424,0.1776364,1.314256,0.3521206,-0.8880258,0.08644368,10.4244,15.96315,0.1459367,-0.05900118,0.1078845,-0.1840511,-3.305419,-0.5848376,0.2956072,1.460625,0.3208988,0.03373976,-0.1276753,-0.07537127,-1.13982,0.5504481,0.006407832,0.4694878,1.488757,0.2042329,-0.14779,1.405414,0.2878332,292.5303,15.86295,239.6921,True
5,1.022224,-0.1200775,-0.08221261,-0.1400554,4.422075,1.547905,-1.917088,0.1764652,1.314857,0.3518498,-0.8872982,0.06510792,10.2122,15.85601,0.1565935,-0.03874448,0.1163655,-0.1829054,-3.298015,-0.5942362,0.2946409,1.460922,0.3199379,0.03363524,-0.1426042,-0.08601983,-1.141032,0.54791,0.007362043,0.4684829,1.48877,0.203037,-0.1480596,1.407408,0.2882693,292.7135,17.50741,238.1978,True
5,1.033335,-0.1029217,-0.1258775,-0.148358,4.425327,1.546669,-1.91696,0.1753195,1.315711,0.3521507,-0.8867336,0.05037984,9.999999,15.51318,0.1558714,-0.04199441,0.1749586,-0.1794241,-3.289197,-0.6046129,0.2934464,1.461255,0.3188713,0.02951359,-0.1522027,-0.07000177,-1.141285,0.5455905,0.008247543,0.4673285,1.488832,0.2018578,-0.1485865,1.409056,0.2885694,292.7554,18.67276,237.0392,True
5,1.044446,-0.1071665,-0.1344638,-0.1578958,4.427765,1.545248,-1.916013,0.1742426,1.316222,0.3518364,-0.8866175,0.009346588,9.761274,15.02035,0.1504689,-0.002596319,0.179289,-0.1783562,-3.276415,-0.6186928,0.2923576,1.461417,0.3178298,0.01791266,-0.1575326,-0.05711309,-1.141513,0.5434871,0.009308014,0.4661936,1.488842,0.2007103,-0.1494464,1.410283,0.2888012,292.6686,19.40229,236.2777,True
5,1.055557,-0.1338415,-0.1186686,-0.1782044,4.42923,1.542914,-1.914272,0.1730327,1.316758,0.352195,-0.8854946,0.1015849,9.602121,14.50611,0.1257595,0.06338844,0.1731107,-0.1786028,-3.257617,-0.6376867,0.2911382,1.461621,0.3168621,-0.02037793,-0.1703281,-0.05037372,-1.141855,0.5409839,0.01194028,0.465021,1.488924,0.1995604,-0.1506172,1.41098,0.288874,292.5066,19.9586,235.7832,True
5,1.066668,-0.1391534,-0.1250862,-0.1813644,4.431387,1.541339,-1.912978,0.1718739,1.317421,0.3519642,-0.8834765,0.1829475,9.469496,14.05614,0.109537,0.08255608,0.1391319,-0.1792068,-3.248653,-0.647175,0.289935,1.461881,0.3159323,-0.05111225,-0.1692755,-0.03305188,-1.141718,0.5388964,0.01432674,0.4636844,1.489091,0.198508,-0.1520613,1.411157,0.2888398,292.2855,19.9958,235.7652,True
5,1.077779,-0.1199396,-0.1432202,-0.194056,4.434359,1.539544,-1.912797,0.1708114,1.318141,0.3517826,-0.8814104,0.1868482,9.28382,13.69188,0.0998418,0.07083561,0.1136098,-0.1790544,-3.246667,-0.6501114,0.2889455,1.462061,0.3150082,-0.04652689,-0.1436977,0.004190683,-1.140493,0.5381584,0.01498587,0.4623776,1.489163,0.1974957,-0.1536803,1.410906,0.2887519,292.0562,19.51978,236.2243,True
5,1.08889,-0.09968802,-0.1474024,-0.1876445,4.436685,1.538522,-1.912697,0.1697699,1.318853,0.3518977,-0.8812507,0.01272641,9.071617,13.41333,0.09895515,0.05802439,0.13917,-0.1773069,-3.237504,-0.6601835,0.2879821,1.462314,0.3141148,-0.02604237,-0.1128187,0.0317044,-1.139227,0.5375381,0.01467668,0.461078,1.489211,0.19649,-0.1554954,1.410503,0.2888283,291.785,18.52093,237.1592,True
5,1.100002,-0.09964217,-0.1655002,-0.1854128,4.439635,1.537435,-1.911925,0.1685975,1.319576,0.3517861,-0.8817604,-0.04693645,8.832892,13.24191,0.1356371,0.002662554,0.1943047,-0.1727491,-3.231813,-0.6686747,0.2870983,1.462491,0.3132749,0.003866333,-0.07020387,0.04314972,-1.138433,0.5380667,0.01348518,0.4599032,1.489289,0.1955297,-0.1572634,1.410145,0.2890476,291.5305,17.57636,238.25,True
5,1.111113,-0.1507942,-0.1592132,-0.1800912,4.44173,1.536289,-1.908749,0.1673442,1.320179,0.3513048,-0.8815452,0.01967359,8.488064,13.1562,0.158172,-0.02818827,0.2090602,-0.1696439,-3.227849,-0.6751094,0.2862199,1.462649,0.312418,0.0121274,-0.05741402,0.01431014,-1.139254,0.53797,0.01303244,0.4587443,1.48937,0.1945937,-0.1588023,1.409932,0.2893367,291.2903,16.98599,239.0452,True
5,1.122224,-0.1816946,-0.1549869,-0.1726425,4.443752,1.53521,-1.905971,0.166001,1.320839,0.3512022,-0.8802967,0.1135281,8.143235,13.32762,0.1689791,-0.05693701,0.2228222,-0.1665983,-3.223869,-0.6811873,0.2852357,1.462917,0.3115361,0.005403403,-0.080865,-0.02291781,-1.140794,0.5358915,0.01422874,0.4577181,1.489463,0.193625,-0.1601192,1.409946,0.2896523,291.132,16.73026,239.472,True
5,1.133335,-0.2125984,-0.1474425,-0.1481866,4.445127,1.534394,-1.902774,0.1648197,1.322287,0.3525155,-0.8773842,0.2650543,7.824934,13.77759,0.1777086,-0.05907986,0.2579216,-0.162904,-3.211658,-0.6955279,0.2841744,1.463196,0.3110142,-0.004591495,-0.1309371,-0.07076704,-1.143136,0.5326107,0.01589747,0.4565752,1.489437,0.1926215,-0.1613765,1.410273,0.2899182,291.0339,16.85447,239.5589,True
5,1.144446,-0.2317979,-0.1335277,-0.1280142,4.446262,1.534045,-1.89961,0.1635075,1.323045,0.3523803,-0.8773454,0.001300944,7.533155,14.44182,0.1689743,-0.04096222,0.2281642,-0.1619527,-3.204454,-0.704229,0.2829746,1.463485,0.3102045,-0.0154788,-0.1533159,-0.09836382,-1.14509,0.5299986,0.01742906,0.4554405,1.489481,0.1916521,-0.1627009,1.411051,0.2900953,290.958,17.00066,239.5809,True
5,1.155557,-0.248911,-0.113434,-0.1472811,4.447444,1.532079,-1.896693,0.1622225,1.323721,0.3521399,-0.8769949,0.03223295,7.347479,15.25605,0.1421393,-0.04206148,0.1920954,-0.1608661,-3.203511,-0.7058895,0.281783,1.463807,0.309459,-0.04009905,-0.1714272,-0.1119902,-1.146777,0.5274985,0.01976225,0.45425,1.489421,0.1907694,-0.1640715,1.412375,0.2902886,290.7871,16.95701,239.5037,True
5,1.166668,-0.2318819,-0.1145502,-0.1643319,4.449526,1.530029,-1.895168,0.1608733,1.324463,0.351717,-0.877095,-0.009398063,7.320952,16.54168,0.1123131,-0.04427037,0.1912,-0.1588192,-3.197437,-0.712203,0.2805912,1.464263,0.3086367,-0.04762027,-0.167172,-0.1193834,-1.148385,0.5256082,0.02125549,0.4529981,1.48947,0.1899247,-0.1653814,1.414316,0.2907622,290.6048,16.92535,239.2795,True
5,1.17778,-0.1710863,-0.1464131,-0.1737712,4.452809,1.528689,-1.895663,0.1595075,1.32544,0.351748,-0.8769305,0.01510563,7.506632,18.3844,0.1028201,-0.06880376,0.1965536,-0.1559632,-3.195252,-0.7152494,0.2794479,1.46467,0.30795,-0.04662402,-0.1533192,-0.1257822,-1.149987,0.5243872,0.02228799,0.4517313,1.489494,0.1891234,-0.166429,1.416648,0.2914103,290.653,18.01869,238.2686,True
5,1.188891,-0.1518558,-0.1783684,-0.1831666,4.456112,1.527668,-1.89458,0.1582469,1.326243,0.352484,-0.8782455,-0.120331,7.877984,20.78423,0.122225,-0.1156442,0.2155779,-0.1516479,-3.196622,-0.7159911,0.2781709,1.465087,0.3070335,-0.03925757,-0.1160331,-0.1343819,-1.151871,0.5243428,0.02244352,0.4504795,1.489611,0.188359,-0.1672749,1.419135,0.2921316,290.7969,19.83721,236.6882,True
5,1.200002,-0.1721295,-0.1667478,-0.1917439,4.458333,1.525781,-1.892439,0.1569403,1.326761,0.3524404,-0.8804219,-0.1980791,8.381961,23.6126,0.1446721,-0.03894645,0.2538877,-0.1495988,-3.167183,-0.7481871,0.2768014,1.465609,0.30633,-0.04675508,-0.09045362,-0.1375206,-1.15361,0.5243365,0.02325446,0.4491473,1.489715,0.1875565,-0.1680298,1.421511,0.2928008,290.9229,21.85694,234.9088,True
5,1.211113,-0.1775513,-0.1272851,-0.1802395,4.458825,1.524278,-1.890441,0.1554162,1.327237,0.3516927,-0.8788559,0.1445128,8.965518,26.76237,0.1196947,0.07501198,0.2221849,-0.1518774,-3.138193,-0.7773216,0.2753536,1.465665,0.3053288,-0.06806598,-0.05211141,-0.1362656,-1.155103,0.5251881,0.02440388,0.4477631,1.489826,0.186759,-0.1687962,1.423476,0.2933464,290.9466,23.68669,233.138,True
5,1.222224,-0.1349388,-0.124984,-0.1685555,4.460523,1.523242,-1.890543,0.1541778,1.327901,0.3515735,-0.877152,0.1541977,9.549072,29.65502,0.09170061,0.1378157,0.1989708,-0.1535344,-3.114132,-0.8011342,0.2740837,1.465885,0.3044744,-0.07104964,-0.0286702,-0.1117365,-1.155455,0.5257867,0.02502892,0.4464498,1.489845,0.1858747,-0.1697318,1.424888,0.2938492,290.8948,24.86974,231.8805,True
5,1.233335,-0.09766123,-0.1249147,-0.1707038,4.462649,1.521919,-1.890986,0.1530326,1.328451,0.3507483,-0.8771494,-0.0009878019,10.1061,32.14056,0.08204212,0.1143668,0.1713215,-0.15267,-3.108665,-0.8075807,0.2729129,1.466202,0.3037159,-0.04485219,-0.03823531,-0.04166799,-1.153645,0.5250123,0.02498817,0.4451336,1.489864,0.1850381,-0.170985,1.425815,0.2943349,290.8875,25.40837,231.4566,True
5,1.244446,-0.1052494,-0.07600372,-0.1826824,4.462652,1.519395,-1.890047,0.1519128,1.328871,0.3502159,-0.8790519,-0.1742123,10.61008,34.13327,0.1037376,0.0259726,0.1998725,-0.1484142,-3.105644,-0.8124058,0.2717756,1.466535,0.3028617,-0.03715166,-0.0680611,-0.01617313,-1.153191,0.5230897,0.02588885,0.443845,1.489953,0.1842132,-0.1725268,1.426379,0.2946971,290.9077,25.35886,231.7772,True
5,1.255558,-0.1233621,-0.08045258,-0.2082157,4.464569,1.51662,-1.888828,0.1506659,1.329121,0.3500695,-0.8788474,0.01948668,10.98143,35.31176,0.129759,-0.05283841,0.2380056,-0.1431763,-3.101322,-0.8194352,0.2704324,1.466941,0.3020167,-0.05527727,-0.0733906,-0.01814139,-1.15358,0.5221292,0.02751844,0.4425218,1.490057,0.1835716,-0.1740566,1.426549,0.2948087,290.8286,25.20706,232.2006,True
5,1.266669,-0.1660493,-0.05608502,-0.2157725,4.465031,1.514098,-1.886098,0.1493202,1.329372,0.3502247,-0.8761001,0.2499201,11.24668,35.71887,0.128573,-0.004906878,0.2391291,-0.142518,-3.079452,-0.8423656,0.2689138,1.467165,0.301146,-0.1054784,-0.05316512,-0.03154517,-1.154496,0.5223594,0.03030358,0.4410861,1.490179,0.1827981,-0.1755258,1.426326,0.2945648,290.7029,25.03143,232.5797,True
5,1.27778,-0.1842194,-0.02834328,-0.1999382,4.464997,1.512197,-1.883895,0.1478743,1.32962,0.3500543,-0.874287,0.1625126,11.35279,35.1832,0.1048317,0.08453465,0.2233821,-0.144289,-3.050197,-0.8718984,0.2674791,1.467336,0.3001211,-0.1386548,-0.02760862,-0.04615729,-1.155395,0.5230783,0.03279709,0.4396992,1.490217,0.1820557,-0.1771045,1.425891,0.2941641,290.5032,24.50208,233.0408,True
5,1.288891,-0.1671826,-0.02382014,-0.1615847,4.464961,1.512078,-1.882527,0.1468092,1.330187,0.3507652,-0.8714129,0.2603633,11.27321,33.70473,0.06048823,0.1952759,0.1587655,-0.1492191,-3.026229,-0.8946306,0.2660968,1.467404,0.2992926,-0.1535269,0.00434988,-0.0396381,-1.155646,0.5244302,0.0344669,0.438397,1.490349,0.1813419,-0.178864,1.425391,0.2938732,290.1824,23.92339,233.3803,True
5,1.300002,-0.1341321,-0.03002326,-0.1423927,4.465764,1.511304,-1.882275,0.1456157,1.330671,0.3506181,-0.8703029,0.09802971,11.08753,31.49775,0.05296951,0.1760918,0.1385512,-0.1495008,-3.017262,-0.9039655,0.2648111,1.46765,0.2985919,-0.1192537,0.006495692,-0.01863458,-1.155006,0.5245388,0.03458754,0.4369731,1.490428,0.1806934,-0.1808219,1.425047,0.293953,289.9248,23.07488,234.0257,True
5,1.311113,-0.08081773,-0.05125805,-0.1518963,4.467804,1.509728,-1.883574,0.1442615,1.33133,0.3494694,-0.8696776,0.0548954,10.8488,29.11935,0.07231126,0.1111575,0.1383771,-0.1475737,-3.012553,-0.9101497,0.2635638,1.467919,0.2978661,-0.07873425,0.003325194,-0.01473993,-1.155136,0.5245149,0.03411003,0.435509,1.490538,0.1800642,-0.1827321,1.424947,0.2944265,289.8014,22.21581,234.8607,True
5,1.322224,-0.06058801,-0.04804192,-0.157252,4.468798,1.507977,-1.884035,0.1430666,1.331842,0.3493149,-0.8683876,0.1156398,10.58355,26.89094,0.08732932,0.07816909,0.1414534,-0.1463343,-3.004726,-0.9193858,0.2623659,1.468112,0.2971158,-0.06153693,0.02784102,0.003214585,-1.15451,0.5258226,0.03376196,0.4340281,1.490714,0.1794314,-0.1842839,1.425072,0.295192,289.7819,21.68373,235.5433,True
5,1.333336,-0.06596261,-0.02897691,-0.178693,4.469296,1.504562,-1.883951,0.1420941,1.333066,0.3510215,-0.8670629,0.1180017,10.3183,24.91965,0.1171886,0.0228727,0.1231205,-0.1447492,-3.006549,-0.91976,0.2610105,1.468437,0.2962525,-0.05929875,0.04595425,0.01597895,-1.153844,0.5270396,0.03387727,0.4326229,1.490833,0.1788342,-0.1855711,1.42534,0.2959561,289.898,22.08491,235.651,True
5,1.344447,-0.08090386,-0.02058101,-0.193647,4.470126,1.502049,-1.883088,0.140592,1.333175,0.3502207,-0.86313,0.356131,10.05305,23.16263,0.1151404,0.0154034,0.1337753,-0.1435955,-2.997255,-0.9302246,0.2596345,1.468721,0.295471,-0.05636535,0.04915176,-0.01281575,-1.154956,0.5278037,0.03417422,0.4312284,1.491015,0.1781716,-0.1867974,1.425564,0.2963795,290.0172,23.09581,235.1793,True
5,1.355558,-0.08725113,-0.03980154,-0.1988628,4.471874,1.500026,-1.882331,0.1392533,1.333605,0.3502376,-0.8586372,0.4051689,9.787797,21.68417,0.1012728,0.04412219,0.1434695,-0.1436839,-2.980587,-0.9473807,0.25832,1.468969,0.2945702,-0.05766395,0.03849994,-0.03943457,-1.156211,0.5279461,0.03477822,0.4298395,1.491068,0.177413,-0.1881641,1.425638,0.2965741,289.9158,23.33257,234.8303,True
5,1.366669,-0.04772789,-0.08114518,-0.1794813,4.474568,1.499431,-1.883164,0.137912,1.333892,0.3493903,-0.8544065,0.3808564,9.575595,20.69852,0.0712993,0.1239311,0.155443,-0.1457196,-2.952725,-0.9746796,0.2570724,1.469233,0.2938001,-0.06000793,0.02252127,-0.06391694,-1.157727,0.5277563,0.0356038,0.4284772,1.491212,0.1767502,-0.1898496,1.425633,0.297038,289.6633,22.95342,234.824,True
5,1.37778,0.0002741888,-0.1054927,-0.1729788,4.476997,1.4984,-1.885031,0.1366897,1.334516,0.349375,-0.8508842,0.3162774,9.310343,20.05571,0.09994987,0.1410617,0.1435739,-0.1468398,-2.937227,-0.9920011,0.2558859,1.46946,0.2931745,-0.06322267,0.01400159,-0.06601603,-1.158453,0.5277099,0.03647465,0.427079,1.491292,0.1760988,-0.1917365,1.425386,0.2976607,289.6086,23.02855,234.8812,True
5,1.388891,0.02909246,-0.1384098,-0.1706567,4.47961,1.497589,-1.886324,0.1359033,1.335017,0.350251,-0.8489337,0.1729363,8.912464,19.6486,0.1201985,0.1208834,0.135976,-0.1466582,-2.928292,-1.002902,0.2546149,1.469562,0.2923896,-0.06298664,-0.001971453,-0.04045335,-1.15802,0.5271512,0.03739611,0.4256175,1.491411,0.1753891,-0.1936517,1.424839,0.2982425,289.5803,23.03246,235.2765,True
5,1.400002,-0.03282164,-0.088535,-0.1783583,4.47961,1.495145,-1.884411,0.1348341,1.33532,0.3501627,-0.8458626,0.2764053,8.435014,19.39147,0.1373931,0.08256942,0.1443599,-0.145333,-2.919003,-1.014194,0.2533581,1.469881,0.2915807,-0.05425019,0.0001626126,-0.01709873,-1.15754,0.5272378,0.03759185,0.4241765,1.491512,0.1747887,-0.195439,1.423888,0.2984119,289.5326,22.93133,235.8505,True
5,1.411114,-0.04993564,-0.059824,-0.1785083,4.479941,1.4931,-1.883572,0.1333608,1.335243,0.3488512,-0.8409773,0.4410793,7.824934,18.96293,0.1395864,0.06447284,0.1475232,-0.1446555,-2.907322,-1.027291,0.2519279,1.470248,0.2908685,-0.04224968,0.01934961,0.01475175,-1.156293,0.5282654,0.0371985,0.4226507,1.49172,0.1740649,-0.1971342,1.422537,0.2981627,289.2881,22.20466,236.607,True
5,1.422225,-0.06171164,-0.03420372,-0.1637312,4.48014,1.4917,-1.882969,0.1320872,1.335219,0.3483984,-0.8328674,0.734625,7.29443,18.8558,0.106245,0.1091618,0.1136739,-0.146852,-2.896382,-1.038136,0.2504451,1.4704,0.2901525,-0.04197758,0.03639331,0.04564228,-1.154776,0.5292326,0.03724457,0.4211775,1.491916,0.1733696,-0.1987549,1.420843,0.2977606,288.9332,20.90721,237.5987,True
5,1.433336,-0.08949392,0.007429548,-0.1341167,4.479122,1.490861,-1.881297,0.1309192,1.33491,0.34708,-0.8292983,0.3171497,6.896552,19.19863,0.07600567,0.151748,0.06168761,-0.1499674,-2.892009,-1.042379,0.2490676,1.470504,0.2894912,-0.03745974,0.03533271,0.07436351,-1.153076,0.529527,0.03744378,0.4197335,1.492104,0.1726534,-0.2006736,1.419166,0.2974564,288.7312,19.27856,239.1478,True
5,1.444447,-0.07996665,0.02779543,-0.1203711,4.478065,1.489697,-1.880787,0.1300413,1.335541,0.3482306,-0.825475,0.3442464,6.657823,19.97,0.0587566,0.1836826,0.04051359,-0.1526321,-2.882927,-1.051528,0.2478614,1.470602,0.2887931,-0.01669496,-0.003008811,0.1306348,-1.149904,0.5280011,0.03750343,0.4183486,1.492379,0.1719456,-0.2028063,1.417613,0.2971363,288.6653,18.16837,240.4882,True
5,1.455558,-0.01600995,0.01849077,-0.09585483,4.478421,1.489593,-1.882863,0.1290693,1.335721,0.3467855,-0.8202595,0.4710248,6.551723,21.19134,0.04043305,0.2209416,0.02041131,-0.1560767,-2.873743,-1.060445,0.2467291,1.47073,0.2882626,-0.01114984,-0.02111416,0.1540204,-1.147585,0.5270696,0.03782355,0.4169157,1.492556,0.1712971,-0.2048613,1.416155,0.2967078,288.6497,17.26111,241.6084,True
5,1.466669,0.0234763,-0.002623491,-0.08407266,4.47927,1.488569,-1.884892,0.1283255,1.336879,0.3480186,-0.8169619,0.2946368,6.737399,22.96979,0.04695246,0.175147,0.0224608,-0.1562487,-2.870344,-1.064523,0.2457396,1.470914,0.2876563,-0.003317721,-0.03176268,0.1954937,-1.144206,0.526223,0.03800704,0.4155511,1.492674,0.1705911,-0.2066971,1.414864,0.2961206,288.6111,15.89583,242.9389,True
5,1.47778,0.03299424,0.03161957,-0.06083239,4.477931,1.488274,-1.88581,0.1274903,1.337006,0.3476541,-0.8155579,0.1230547,7.135277,24.61967,0.0514545,0.1080359,0.03408274,-0.1549267,-2.869642,-1.065933,0.244684,1.47125,0.2870705,0.005295001,-0.04241284,0.2050061,-1.141634,0.5252574,0.03807814,0.4142448,1.492762,0.1698554,-0.2082867,1.413919,0.2956943,288.4797,14.32455,244.2773,True
5,1.488891,-0.01404441,0.1029217,-0.05268462,4.474893,1.486807,-1.884394,0.1263055,1.336447,0.346173,-0.8110907,0.4043344,7.692308,25.96957,0.05702445,0.06648488,0.05744315,-0.1536585,-2.863641,-1.072667,0.2436319,1.471464,0.2865162,0.006118558,-0.05625957,0.1772983,-1.140742,0.5240646,0.03846963,0.4129227,1.492996,0.1691885,-0.2095148,1.413144,0.2952434,288.3991,13.67899,244.9216,True
5,1.500003,-0.04612958,0.1583275,-0.03699651,4.471481,1.48578,-1.883074,0.1253314,1.336353,0.3458142,-0.8055647,0.4985865,8.381961,26.86951,0.0784096,0.05588135,0.06582805,-0.1535643,-2.856501,-1.081347,0.2425951,1.471526,0.285759,0.00251808,-0.06371905,0.1325919,-1.140886,0.523004,0.03911438,0.4116394,1.493185,0.1684895,-0.2106304,1.412521,0.2950165,288.2538,13.09714,245.2753,True
5,1.511114,-0.06433429,0.1944662,-0.04252002,4.46868,1.484066,-1.882136,0.1241336,1.335865,0.3443408,-0.7984993,0.6389157,8.938992,26.86951,0.05790652,0.1155074,0.04895226,-0.1566653,-2.847914,-1.08967,0.2413401,1.471546,0.2852924,-0.01373032,-0.09248441,0.1018435,-1.140861,0.5208668,0.04080948,0.4103482,1.493314,0.167901,-0.2117051,1.411839,0.2949265,288.4366,13.38014,245.103,True
5,1.522225,-0.04185612,0.1508658,-0.03802973,4.468739,1.483698,-1.882559,0.1230905,1.33587,0.3437858,-0.794307,0.3752472,9.416446,26.67667,0.03127419,0.1441903,0.06191573,-0.1585316,-2.833554,-1.103281,0.2402643,1.471666,0.2848783,0.01296121,-0.09460426,0.1079991,-1.139438,0.5195759,0.04029363,0.4090759,1.493521,0.167304,-0.2130123,1.411059,0.2948107,288.7805,13.54759,245.2092,True
5,1.533336,-0.005499585,0.09879672,-0.03566272,4.469348,1.482895,-1.883981,0.1224373,1.336867,0.3456156,-0.7905818,0.3350274,9.814323,26.5481,0.01733223,0.1079707,0.02999729,-0.1587873,-2.837682,-1.098991,0.2391774,1.471586,0.2845438,0.05664093,-0.07967342,0.1086709,-1.13823,0.5190873,0.03846297,0.4078287,1.49364,0.166719,-0.2145073,1.41023,0.2946475,289.0267,13.15666,245.7945,True
5,1.544447,0.02983966,0.01993862,-0.05440874,4.472079,1.482649,-1.885616,0.1215046,1.336776,0.3448143,-0.7882749,0.2053731,10.13263,26.44097,0.02985689,0.08461934,-0.02442987,-0.1598738,-2.848748,-1.088761,0.2380865,1.471569,0.2841654,0.06734508,-0.06156167,0.1149602,-1.136883,0.5188803,0.03748319,0.406634,1.49373,0.1661639,-0.2160911,1.409303,0.2943047,289.1542,12.74034,246.4333,True
5,1.555558,0.04382521,-0.04195667,-0.07963778,4.475073,1.481773,-1.886796,0.1207632,1.336903,0.3449876,-0.7852,0.2766343,10.4244,26.59096,0.06489141,0.05492029,-0.0587525,-0.1604901,-2.860005,-1.079571,0.2370858,1.471728,0.2837622,0.05466269,-0.07221694,0.125728,-1.135187,0.5175563,0.03787761,0.4053944,1.493901,0.165601,-0.2176056,1.408276,0.2938273,288.9784,11.61556,247.3575,True
5,1.566669,0.03215506,-0.06555372,-0.101864,4.476889,1.480563,-1.886969,0.11986,1.336515,0.3446639,-0.7813603,0.3457337,10.68966,27.5766,0.09611998,0.04749371,-0.004610438,-0.159958,-2.848448,-1.093,0.2360717,1.471813,0.2834392,0.02602223,-0.07755455,0.1387718,-1.133219,0.5162762,0.03904647,0.4040516,1.494055,0.1650722,-0.2189812,1.407201,0.2935938,288.6649,10.23911,248.3326,True
5,1.577781,0.02582617,-0.09440936,-0.1155481,4.47924,1.4795,-1.887277,0.1189875,1.33653,0.3449376,-0.7764803,0.4402849,10.92838,28.92651,0.1089082,0.08586009,0.01346309,-0.1615133,-2.837941,-1.104986,0.2350771,1.471735,0.2830219,0.02189863,-0.04879029,0.1558559,-1.130916,0.5166699,0.03884726,0.4029185,1.494039,0.1645274,-0.2201374,1.405862,0.2934161,288.4818,10.03796,248.6147,True
5,1.588892,0.04081181,-0.1413541,-0.1397655,4.482093,1.478519,-1.888054,0.118366,1.336763,0.3465252,-0.7711034,0.485074,11.11406,30.4264,0.1044349,0.1093092,-0.01205894,-0.1637727,-2.839007,-1.104808,0.2341174,1.471852,0.282665,0.03480299,-0.0242821,0.1706486,-1.128634,0.5172025,0.03780757,0.4019111,1.494226,0.1639574,-0.2212518,1.404219,0.2932673,288.3348,9.895026,248.8781,True
5,1.600003,0.06219683,-0.1754326,-0.1470444,4.485555,1.477689,-1.889618,0.1175577,1.336901,0.3468432,-0.767049,0.3639082,11.27321,31.88343,0.09575003,0.1338052,-0.02902991,-0.1662707,-2.837375,-1.107172,0.2330312,1.47196,0.2823346,0.05826195,-0.02320703,0.1736324,-1.126675,0.5167882,0.03660861,0.4007804,1.494286,0.1633661,-0.2225192,1.402317,0.2931415,288.2399,9.258404,249.5909,True
5,1.611114,0.1134431,-0.2297276,-0.1648776,4.490091,1.476741,-1.89263,0.116789,1.337193,0.3470769,-0.7635011,0.3186765,11.37931,32.61195,0.08804836,0.127433,-0.07373036,-0.1681312,-2.846287,-1.099073,0.2321159,1.471987,0.2820132,0.05264513,-0.062626,0.1395929,-1.126329,0.5145813,0.0371258,0.3996999,1.494404,0.1628244,-0.2239507,1.400309,0.2931624,288.0145,7.648308,251.0284,True
5,1.622225,0.1486867,-0.2627173,-0.171107,4.494673,1.476099,-1.895647,0.1159563,1.337157,0.3462965,-0.7602787,0.2891788,11.45889,32.69767,0.09443441,0.1391625,-0.06842738,-0.1700577,-2.843699,-1.102825,0.2310047,1.472212,0.2816668,0.02573072,-0.09779012,0.1068148,-1.126318,0.512075,0.03888322,0.3986323,1.494423,0.1623788,-0.2253833,1.398309,0.2935582,287.7165,5.692947,252.7512,True
5,1.633336,0.1657259,-0.2583667,-0.1626186,4.497817,1.475547,-1.898232,0.1153454,1.337359,0.3465047,-0.7574611,0.2521458,11.43236,31.92629,0.1268494,0.1359763,0.009148046,-0.1701195,-2.824878,-1.123922,0.2300013,1.472336,0.2812214,-0.0170164,-0.1276353,0.09015134,-1.125937,0.5094135,0.04162095,0.3973619,1.494415,0.1619029,-0.2267433,1.396337,0.2942085,287.516,4.432515,254.1902,True
5,1.644447,0.1463759,-0.1827763,-0.1609064,4.497925,1.473649,-1.89967,0.1143635,1.337054,0.345125,-0.7531308,0.3906089,11.35279,30.29783,0.1078708,0.138022,0.04441869,-0.1707752,-2.811342,-1.137831,0.2290143,1.472406,0.2808046,-0.04672619,-0.1042133,0.1042601,-1.124364,0.5089213,0.04328249,0.3962808,1.494416,0.1614895,-0.2279641,1.394288,0.2948305,287.3746,4.025249,255.0987,True
5,1.655559,0.1132528,-0.1401925,-0.1515375,4.498443,1.472328,-1.900054,0.113394,1.337045,0.3452444,-0.7480298,0.459727,11.16711,28.00514,0.08877858,0.134757,0.0573126,-0.1715779,-2.80301,-1.146318,0.2280004,1.472503,0.2805192,-0.04882137,-0.08077545,0.1096076,-1.122912,0.5087937,0.04396426,0.395098,1.494493,0.1610396,-0.2290703,1.392027,0.2950615,287.2874,3.748336,255.8877,True
5,1.66667,0.06630872,-0.10499,-0.1197484,4.498864,1.472212,-1.899174,0.1120033,1.336424,0.3436568,-0.7418597,0.5570495,10.98143,25.56246,0.06209259,0.1293745,0.04680702,-0.1727156,-2.799466,-1.149485,0.2267899,1.472375,0.2802851,-0.01792623,-0.05626371,0.1103972,-1.121579,0.5089185,0.04304201,0.3939577,1.494531,0.1607494,-0.2302213,1.389592,0.2948526,287.268,2.816054,257.0776,True
5,1.677781,0.04712061,-0.09425902,-0.09742542,4.499624,1.472118,-1.899073,0.1108825,1.336348,0.3437016,-0.7361728,0.5121785,10.76923,23.07692,0.04901619,0.09744625,-0.01813293,-0.173784,-2.812048,-1.137201,0.2255169,1.472209,0.2801478,0.02978749,-0.05624324,0.0854712,-1.121396,0.5081791,0.04154904,0.3927538,1.494618,0.1604333,-0.2316818,1.387105,0.2942055,287.3448,1.324436,258.6558,True
5,1.688892,0.03215415,-0.06645343,-0.0698718,4.499575,1.472338,-1.898962,0.1098386,1.335928,0.3426511,-0.7305727,0.5047305,10.58355,20.54853,0.04899329,0.09105757,-0.02452624,-0.1746341,-2.812332,-1.13748,0.2243,1.472164,0.279911,0.04460116,-0.05731238,0.07361607,-1.121041,0.5072413,0.04095276,0.3916517,1.494681,0.1601274,-0.2334543,1.384731,0.2933085,287.3623,359.4716,260.4287,True
5,1.700003,0.02780375,-0.02591748,-0.05731409,4.498752,1.471738,-1.899321,0.1087618,1.335687,0.342175,-0.7267884,0.3388079,10.4244,17.99871,0.04465569,0.0442072,-0.05863952,-0.1744088,-2.82426,-1.126032,0.2230956,1.47213,0.279757,0.03614748,-0.05198545,0.0811464,-1.119913,0.5068009,0.04102733,0.3904505,1.494577,0.1598666,-0.2354116,1.38256,0.2920755,287.3823,357.8106,262.0709,True
5,1.711114,0.005343428,0.01344859,-0.05538946,4.497673,1.470772,-1.898923,0.1077361,1.335273,0.3411617,-0.7224069,0.3947451,10.26525,15.51318,0.04145342,0.03248683,-0.06502426,-0.1747694,-2.829428,-1.121294,0.2219175,1.472044,0.2795231,0.01172439,-0.03708385,0.09095185,-1.118531,0.5068097,0.04185104,0.3891345,1.494626,0.1596487,-0.2372506,1.380659,0.2906648,287.3438,356.0912,263.5645,True
5,1.722225,0.005257974,0.04223749,-0.05447104,4.496215,1.46977,-1.899029,0.1069565,1.335478,0.3422439,-0.7180793,0.3891421,10.18567,13.28477,0.01486878,0.05903079,-0.04460441,-0.1761979,-2.823851,-1.126015,0.2207403,1.472042,0.2793057,-0.02345871,-0.004074287,0.08913591,-1.117558,0.5080392,0.04286997,0.3879236,1.494674,0.1595581,-0.238805,1.378985,0.2891261,287.3641,354.8712,264.572,True
5,1.733337,0.02230473,0.04665323,-0.03426525,4.495458,1.469855,-1.89986,0.1058578,1.335403,0.3421786,-0.7125911,0.4953028,10.05305,11.31348,-0.03498133,0.05780187,-0.008098187,-0.1762325,-2.816455,-1.131235,0.2195555,1.471981,0.2790952,0.004087064,0.01723573,0.07183781,-1.117382,0.5089577,0.04129045,0.3866881,1.494664,0.159369,-0.2401936,1.377519,0.2876554,287.4055,354.0109,265.1686,True
5,1.744448,0.05112674,0.03416178,0.001965474,4.49522,1.470377,-1.901413,0.10489,1.336218,0.3439691,-0.7084072,0.3752764,9.840847,9.513605,-0.04139376,0.0758958,-0.003782094,-0.1775806,-2.811984,-1.134995,0.2184083,1.471764,0.2789805,0.03702938,0.001268134,0.06194745,-1.117141,0.508271,0.04010854,0.385508,1.49468,0.1592135,-0.2414773,1.376227,0.286436,287.4364,352.9487,265.8306,True
5,1.755559,0.05859213,0.03316806,0.01155439,4.49474,1.470748,-1.902256,0.1038712,1.336115,0.3439887,-0.7048924,0.3153182,9.575595,7.906577,-0.01372053,0.0312528,-0.02849265,-0.1771753,-2.821301,-1.126668,0.2173098,1.471814,0.2788997,0.06987199,0.005543169,0.04248162,-1.11725,0.5085447,0.03820864,0.3844063,1.494693,0.159143,-0.2427122,1.375163,0.285871,287.4489,351.6073,266.6517,True
5,1.76667,0.04794002,0.02664168,-0.01293776,4.494819,1.469025,-1.902693,0.1029846,1.336775,0.3457282,-0.7012582,0.3265882,9.204244,6.342402,0.0002777586,-0.00494193,-0.01901979,-0.1758624,-2.823823,-1.124664,0.2161295,1.471725,0.2787354,0.0675517,0.009803073,0.02119502,-1.117718,0.508885,0.03743286,0.3832355,1.494729,0.1590228,-0.2439563,1.374261,0.2859744,287.4969,350.6971,267.3146,True
5,1.777781,0.04475143,0.01907604,-0.03100402,4.495157,1.468107,-1.903268,0.1019631,1.336732,0.3459134,-0.6960496,0.4704113,8.859415,4.971073,0.001310293,-0.002798604,-0.02328664,-0.1762096,-2.825417,-1.123057,0.214952,1.471714,0.2786064,0.02027817,0.004461017,-0.02312308,-1.119518,0.5088685,0.03900093,0.3821468,1.494609,0.158993,-0.245181,1.373464,0.2867751,287.551,350.1199,267.8547,True
5,1.788892,0.0448043,-0.008670889,-0.04681199,4.495852,1.467455,-1.903865,0.1008774,1.336787,0.3473492,-0.6907744,0.4754983,8.541114,3.749732,0.01947474,0.004693134,-0.009535179,-0.1764515,-2.822692,-1.126497,0.2135144,1.471541,0.2784083,-0.006459467,0.004454794,-0.03460452,-1.120253,0.5090298,0.03987578,0.3809749,1.494706,0.1589396,-0.2463499,1.372597,0.2879944,287.6568,350.1218,268.095,True
5,1.800003,0.036335,-0.03543038,-0.06583333,4.497569,1.466544,-1.904155,0.0996981,1.336785,0.3476563,-0.686915,0.3462737,8.275862,2.721234,-0.01584129,0.05360918,-0.01461297,-0.1785623,-2.819313,-1.128406,0.2121905,1.471392,0.2782085,-0.001066701,0.00552235,-0.02719555,-1.120291,0.5091342,0.03966432,0.3797721,1.49474,0.1588819,-0.2475922,1.371688,0.2896764,287.725,349.7582,268.662,True
5,1.811115,0.02684677,-0.08023745,-0.07517703,4.500188,1.466042,-1.904193,0.09853891,1.337429,0.3492441,-0.6831354,0.3402461,8.090186,1.864152,-0.04261608,0.08018655,-0.02721751,-0.1804883,-2.818979,-1.127402,0.2107557,1.471318,0.2780085,0.02034097,0.03748854,-0.01460526,-1.119915,0.5108247,0.03787281,0.3784972,1.494851,0.1588244,-0.2488304,1.370635,0.2915508,287.7929,349.793,269.0172,True
5,1.822226,0.02905415,-0.1079271,-0.0739719,4.502547,1.465891,-1.904705,0.09695193,1.336856,0.3483675,-0.6791391,0.3602408,8.037136,1.199912,-0.05756348,0.09825189,-0.02391687,-0.1819397,-2.81604,-1.129183,0.209317,1.471161,0.2778263,0.05453354,0.08011677,-0.00106246,-1.11937,0.5135242,0.03492123,0.3771819,1.494807,0.1586661,-0.2501405,1.369415,0.293469,287.8554,349.7206,269.4745,True
5,1.833337,0.03550729,-0.1334842,-0.07489824,4.505053,1.465859,-1.905321,0.09574959,1.336877,0.3487322,-0.675791,0.3013441,8.143235,0.814225,-0.04482471,0.1110706,-0.02611259,-0.1835855,-2.8142,-1.130964,0.2080126,1.47102,0.2777429,0.07587642,0.09504325,0.004073363,-1.119108,0.5151314,0.03277446,0.3758549,1.494761,0.1586483,-0.2515615,1.368074,0.2951817,287.8956,349.1534,270.4427,True
5,1.844448,0.03985168,-0.1665494,-0.08217893,4.508348,1.46568,-1.906018,0.09430492,1.336472,0.3479371,-0.6736274,0.1938078,8.355438,0.7285181,-0.01158472,0.07704747,-0.003969453,-0.1830923,-2.811734,-1.134334,0.2066856,1.470776,0.2775698,0.08124654,0.08226454,0.00828664,-1.118904,0.5157178,0.03145566,0.374379,1.494811,0.1585648,-0.2531177,1.366766,0.2966126,287.8788,348.3614,271.6206,True
5,1.855559,0.03350303,-0.1868648,-0.09271479,4.511473,1.465253,-1.906253,0.09297046,1.33653,0.3483605,-0.6714798,0.1934796,8.620689,0.8570817,0.001368657,0.05256378,0.01403856,-0.1825687,-2.808635,-1.137833,0.2053543,1.47062,0.2774451,0.07073621,0.05243567,0.02330014,-1.118078,0.515213,0.03131132,0.3730027,1.494821,0.1584797,-0.2547153,1.365417,0.297369,287.8786,348.3524,272.166,True
5,1.86667,0.02504929,-0.2178274,-0.1000009,4.515352,1.465048,-1.906243,0.09132484,1.336256,0.3475683,-0.6695017,0.1780244,8.859415,1.092777,-0.01878567,0.03651955,0.02160252,-0.1821687,-2.806198,-1.139262,0.2039739,1.470399,0.2772861,0.05388057,0.0332525,0.04369154,-1.116897,0.5147973,0.03152703,0.3716285,1.494807,0.1583731,-0.2562297,1.364042,0.2973598,287.8303,347.9863,272.7871,True
5,1.877781,0.01124903,-0.2381073,-0.1009447,4.518951,1.465044,-1.905872,0.08972678,1.336356,0.3480325,-0.6672444,0.2039323,9.045091,1.457036,-0.029506,0.03224385,0.007811546,-0.1825794,-2.807808,-1.136981,0.2024752,1.470242,0.2770917,0.05621911,0.0321898,0.06603801,-1.115471,0.515175,0.03053447,0.3701499,1.494753,0.1583061,-0.2577561,1.362637,0.2965747,287.6862,347.2506,273.491,True
5,1.888893,-0.0005089804,-0.229667,-0.112683,4.521268,1.464444,-1.905504,0.08843604,1.336297,0.348707,-0.6655176,0.1553607,9.204244,1.79987,-0.03276934,0.04609115,0.0025193,-0.1835642,-2.806291,-1.138009,0.2009183,1.470108,0.2769325,0.05082137,0.04071594,0.05862558,-1.115142,0.5160978,0.02976535,0.3687375,1.494659,0.1582487,-0.2593911,1.36132,0.2953382,287.4968,345.8636,274.5163,True
5,1.900004,-0.02081656,-0.2084442,-0.117058,4.523315,1.463539,-1.904629,0.08676335,1.336073,0.3478694,-0.6639607,0.1403892,9.28382,2.078422,-0.02089043,0.05354851,0.03334997,-0.1837288,-2.79712,-1.147249,0.1994167,1.469907,0.2768345,0.0452715,0.05030087,0.03417232,-1.115553,0.5171061,0.02901381,0.3672627,1.494613,0.1582277,-0.2612038,1.360154,0.2938481,287.276,344.443,275.5303,True
5,1.911115,-0.03036496,-0.2255297,-0.1201527,4.526615,1.463202,-1.904039,0.08500901,1.336136,0.3484213,-0.6628118,0.103334,9.310343,2.271264,-0.0004723221,0.05357307,0.06412735,-0.1835302,-2.786285,-1.158647,0.1977619,1.469697,0.2766559,0.04833445,0.04817242,0.01922631,-1.115899,0.5176275,0.02814216,0.3657546,1.49453,0.158236,-0.2630685,1.359241,0.292492,287.0597,342.6524,276.6702,True
5,1.922226,-0.03458739,-0.2436774,-0.1221739,4.530441,1.463133,-1.903534,0.08318755,1.335669,0.3474033,-0.6614211,0.1259112,9.310343,2.292693,-0.001514679,0.05889289,0.07052801,-0.1839328,-2.780049,-1.164681,0.1960496,1.469489,0.2765017,0.04714379,0.06201842,0.006457027,-1.116078,0.518836,0.02723455,0.3641049,1.494529,0.15839,-0.2648111,1.35861,0.2915993,286.9252,341.4747,277.3745,True
5,1.933337,-0.05267945,-0.2522672,-0.1263759,4.533862,1.462682,-1.902425,0.08134326,1.335668,0.347919,-0.6610845,0.02937114,9.336869,2.185558,-0.01226972,0.07486117,0.0599492,-0.1851717,-2.775783,-1.168375,0.1941839,1.46937,0.2762847,0.04392295,0.07373336,0.004356675,-1.116013,0.520127,0.02629605,0.3624934,1.49448,0.1583884,-0.2665915,1.358283,0.2911782,286.8072,341.1176,277.6447,True
5,1.944448,-0.05808457,-0.2310326,-0.1414647,4.53625,1.460355,-1.901889,0.08016905,1.336553,0.3501287,-0.6606898,0.0355231,9.389919,1.992712,-0.02625736,0.09827076,0.04726775,-0.1868436,-2.771647,-1.171609,0.1923165,1.469213,0.276083,0.0299039,0.09396726,-0.01362933,-1.116701,0.5219963,0.02561189,0.3608054,1.494468,0.1585078,-0.2684014,1.358206,0.2912261,286.5761,341.3395,277.5211,True
5,1.955559,-0.0005722623,-0.2331576,-0.168156,4.54242,1.45717,-1.903898,0.07710767,1.336927,0.3515604,-0.6595414,0.1044172,9.442968,1.714163,-0.01872607,0.1898522,0.1016459,-0.1918589,-2.73835,-1.203931,0.1885297,1.468711,0.2756569,0.03220432,0.141903,0.007656839,-1.116172,0.5267956,0.02297882,0.3571803,1.49435,0.1586924,-0.2701779,1.358201,0.2914711,286.312,342.1767,276.9665,True
5,1.966671,0.01331591,-0.2490919,-0.1659451,4.546081,1.456575,-1.904617,0.07545635,1.336944,0.3520682,-0.6595222,0.0006502047,9.549072,1.392758,-0.01347792,0.20266,0.09416874,-0.1941098,-2.730161,-1.211975,0.1867559,1.468371,0.2755227,0.05599858,0.1461766,0.04792646,-1.114265,0.5286797,0.02075907,0.3553449,1.494232,0.1588418,-0.2723037,1.358329,0.2921071,286.0193,341.7386,277.1508,True
5,1.977782,0.01121758,-0.2554169,-0.1509895,4.54945,1.456622,-1.904646,0.07320496,1.336157,0.3512273,-0.6611436,-0.1483286,9.70822,1.457036,-0.0229327,0.1344578,0.08670758,-0.1928794,-2.728367,-1.213121,0.1849197,1.46797,0.2754579,0.08396941,0.1429926,0.07857043,-1.112418,0.5302731,0.01830337,0.3534371,1.494041,0.1589682,-0.2749633,1.358667,0.2937424,285.6553,340.4484,277.9048,True
5,1.988893,-0.01654153,-0.2277181,-0.1383424,4.551421,1.456113,-1.903559,0.07120538,1.335693,0.3513925,-0.6602647,0.0811968,9.920423,1.949859,-0.02502663,0.09930073,0.0771009,-0.1926877,-2.725381,-1.215742,0.1830689,1.46768,0.2754152,0.09145907,0.1366012,0.08169637,-1.111471,0.5316868,0.01638537,0.3516073,1.493895,0.1590734,-0.2770402,1.358884,0.2961532,285.4254,340.8637,277.6996,True
5,2.000004,-0.03366052,-0.1947615,-0.1417035,4.55303,1.454954,-1.902861,0.06926292,1.335079,0.3509917,-0.6591627,0.09961522,10.18567,2.871222,-0.01989919,0.0737921,0.03123781,-0.1929822,-2.731732,-1.209441,0.1810849,1.46732,0.2753954,0.07963823,0.1312698,0.07008382,-1.111049,0.5331394,0.01524473,0.3497409,1.493715,0.1591802,-0.2786576,1.358787,0.2987489,285.3186,342.9272,276.6268,True
5,2.011115,-0.03366052,-0.1947615,-0.1417035,4.55303,1.454954,-1.902861,0.06926292,1.335079,0.3509917,-0.657838,0.1205055,10.50398,4.178273,-0.01989919,0.0737921,0.03123781,-0.1929822,-2.731732,-1.209441,0.1810849,1.46732,0.2753954,0.07963823,0.1312698,0.07008382,-1.111049,0.5331394,0.01524473,0.3497409,1.493715,0.1591802,-0.2802984,1.35827,0.3007999,285.2982,345.2532,275.4888,True
5,2.022226,-0.03698763,-0.1480371,-0.1643238,4.554111,1.452663,-1.902667,0.06738347,1.334188,0.3498588,-0.6591808,-0.1232762,10.82228,5.763873,-0.004160278,0.08558846,-0.003996205,-0.1948411,-2.73522,-1.206462,0.1790291,1.467088,0.275332,0.04098016,0.1163348,0.03527251,-1.111883,0.5339538,0.01578322,0.3478447,1.493446,0.1593883,-0.2817183,1.357436,0.3020152,285.4268,345.3884,275.9648,True
5,2.033337,0.002408873,-0.1415868,-0.1707765,4.556071,1.451021,-1.904297,0.06570366,1.333985,0.3502071,-0.6589939,0.01881995,11.11406,7.456608,-0.001752242,0.1089767,0.05353817,-0.195802,-2.718802,-1.222687,0.177015,1.466652,0.2752397,0.00453642,0.1014062,0.01003581,-1.112529,0.5346645,0.016661,0.3459054,1.493156,0.159611,-0.2824358,1.356483,0.3023368,285.5669,344.3238,277.2193,True
5,2.044448,0.05889323,-0.1433598,-0.1367557,4.557702,1.450499,-1.906939,0.06425634,1.334436,0.3520029,-0.6599926,-0.09093455,11.35279,9.213628,-0.009329975,0.144117,0.04935646,-0.1982798,-2.711523,-1.229387,0.1749264,1.466062,0.2751508,0.007700197,0.1227074,0.006811615,-1.112457,0.536896,0.01538215,0.3438526,1.492847,0.1598673,-0.2837738,1.355682,0.3019843,285.5033,343.79,277.7783,True
5,2.055559,0.07165085,-0.1228873,-0.100657,4.558339,1.450813,-1.908144,0.06246749,1.333936,0.3522577,-0.6628554,-0.2601404,11.53846,10.92779,-0.02219039,0.1621813,0.04304366,-0.2002718,-2.708356,-1.231941,0.1729324,1.465585,0.2752736,0.05015796,0.164271,-0.008485496,-1.112997,0.5404719,0.01186012,0.3418442,1.492602,0.1600068,-0.2856669,1.355034,0.301145,285.3453,343.3786,277.9598,True
5,2.06667,0.05346567,-0.08665504,-0.08913025,4.558434,1.450126,-1.908078,0.06032816,1.333001,0.3511536,-0.6648965,-0.1840929,11.67109,12.32055,-0.03391816,0.1483122,0.03563947,-0.2014207,-2.705366,-1.234083,0.17094,1.464996,0.2752459,0.08623861,0.187717,-0.02372296,-1.113711,0.5435775,0.008275773,0.3398692,1.492354,0.1602113,-0.287726,1.354509,0.3002552,285.1271,341.9638,278.6213,True
5,2.077781,0.01390618,-0.02492733,-0.08305776,4.556884,1.448834,-1.907035,0.05839291,1.3323,0.3513341,-0.6641386,0.07088476,11.75066,13.41333,-0.03709964,0.1099464,0.0185639,-0.201188,-2.708544,-1.230679,0.1689499,1.464588,0.2753248,0.1406048,0.1834792,-0.01994806,-1.113783,0.5456877,0.003986752,0.3378886,1.492168,0.1604333,-0.2896473,1.354062,0.2997915,284.9533,340.5729,279.2246,True
5,2.088892,-0.0330957,0.02822068,-0.08869806,4.555289,1.446137,-1.905545,0.05664364,1.332206,0.3527405,-0.6629753,0.1058315,11.77719,14.16327,-0.04348205,0.07478672,0.004719814,-0.2008934,-2.710959,-1.22762,0.1669641,1.463996,0.2752631,0.1640897,0.1419375,-0.01696243,-1.113873,0.5457315,0.001322792,0.3358401,1.491883,0.1605592,-0.2915153,1.35357,0.2997219,284.9031,340.9868,278.7625,True
5,2.100003,-0.04378175,0.039866,-0.0972788,4.554918,1.444534,-1.90492,0.05474076,1.331764,0.3530641,-0.6622691,0.06406663,11.75066,14.59181,-0.04032577,0.0950321,0.0068614,-0.202535,-2.706505,-1.231604,0.1648929,1.463468,0.2750187,0.1417345,0.121684,-0.01569659,-1.114047,0.546473,0.0002969425,0.3337985,1.491541,0.1606178,-0.2935269,1.352986,0.2997946,284.9502,342.0043,278.0782,True
5,2.111114,0.008656705,-0.05698347,-0.09783034,4.559765,1.444053,-1.906813,0.0508413,1.330048,0.3509784,-0.6621055,0.01490343,11.64456,14.7418,0.04788745,0.1315048,-0.01278562,-0.206396,-2.703155,-1.238231,0.1608937,1.46264,0.2746105,0.0855255,0.1429722,0.01357982,-1.112868,0.5506874,-0.001877528,0.329764,1.491002,0.1607561,-0.2956538,1.352432,0.3001259,285.072,341.6293,278.3602,True
5,2.122225,0.05670807,-0.1091688,-0.1156801,4.563235,1.443279,-1.909187,0.04928407,1.329634,0.3510959,-0.6643751,-0.2071774,11.56498,14.84894,0.08499943,0.143345,-0.03749125,-0.2087279,-2.70611,-1.237633,0.1588627,1.462188,0.2743762,0.07434342,0.1578843,0.07440563,-1.110023,0.5532238,-0.003435478,0.3276995,1.490826,0.1608481,-0.2982387,1.352143,0.3010886,285.0721,341.0137,278.7945,True
5,2.133336,0.09939344,-0.1453437,-0.1304612,4.566231,1.441512,-1.911886,0.04799077,1.329525,0.352304,-0.6662356,-0.1681114,11.45889,14.7418,0.07213037,0.1955056,-0.02777369,-0.2125575,-2.69863,-1.24503,0.1567622,1.461787,0.2741728,0.07687187,0.1472297,0.1180599,-1.107238,0.5545906,-0.005060006,0.3256022,1.490592,0.1608753,-0.3014653,1.351916,0.3024284,284.8743,342.5027,277.8113,True
5,2.144447,0.106912,-0.1697977,-0.1250033,4.569245,1.441278,-1.913398,0.04631504,1.32896,0.3524613,-0.6676806,-0.1308182,11.35279,14.46325,0.0155836,0.1794042,-0.04983528,-0.214417,-2.702634,-1.23932,0.1546558,1.461339,0.2739127,0.08902237,0.1195374,0.1648264,-1.10382,0.5550025,-0.006722884,0.3234083,1.490395,0.1609204,-0.3037474,1.351316,0.303422,284.7161,344.0812,276.9748,True
5,2.155558,0.1016831,-0.2113046,-0.1162588,4.573095,1.441454,-1.914105,0.04440793,1.328008,0.3520408,-0.6679613,-0.02473902,11.24668,13.99186,-0.0656368,0.211182,-0.07916334,-0.2180586,-2.705727,-1.232791,0.1524443,1.460508,0.2736387,0.0840417,0.1206058,0.2032284,-1.100227,0.5566633,-0.008245946,0.3212233,1.490233,0.1609557,-0.3051797,1.350282,0.3040029,284.5231,344.0664,277.1587,True
5,2.166669,0.1016831,-0.2113046,-0.1162588,4.573095,1.441454,-1.914105,0.04440793,1.328008,0.3520408,-0.6669418,0.09332098,11.11406,13.37047,-0.0656368,0.211182,-0.07916334,-0.2180586,-2.705727,-1.232791,0.1524443,1.460508,0.2736387,0.0840417,0.1206058,0.2032284,-1.100227,0.5566633,-0.008245946,0.3212233,1.490233,0.1609557,-0.3062304,1.348902,0.3045124,284.3558,343.023,277.9788,True
5,2.17778,0.0974927,-0.2357035,-0.09587944,4.576548,1.442296,-1.914916,0.0425612,1.327322,0.352143,-0.6653684,0.1429969,11.00796,12.64195,-0.07434237,0.2559133,-0.09079342,-0.2226903,-2.705438,-1.23208,0.1503159,1.459977,0.2734807,0.08959821,0.1621584,0.2308763,-1.096746,0.5604374,-0.01112163,0.3191413,1.490047,0.1609309,-0.3071054,1.347291,0.3049657,284.3966,341.7889,279.2164,True
5,2.188891,0.1156209,-0.2323317,-0.06927244,4.578942,1.44337,-1.916776,0.04047555,1.326108,0.3508759,-0.666063,-0.06458155,10.90185,11.89201,-0.08514091,0.3048913,-0.09387618,-0.227818,-2.702577,-1.233704,0.1483041,1.459537,0.2732155,0.1152536,0.1994497,0.2423647,-1.093752,0.5643565,-0.01505805,0.3171568,1.489984,0.1609192,-0.307657,1.34572,0.3052295,284.5718,340.5126,280.7563,True
5,2.200002,0.1422345,-0.2225961,-0.05123506,4.581184,1.444127,-1.91902,0.03865585,1.32508,0.3493321,-0.6664816,-0.03746201,10.76923,11.16349,-0.09669876,0.2899285,-0.07252114,-0.2303815,-2.69937,-1.235366,0.1462914,1.459283,0.2730999,0.1331944,0.1909296,0.2230279,-1.091954,0.5663149,-0.01800084,0.3151557,1.489735,0.1609664,-0.3089472,1.344321,0.3052053,284.4286,340.2131,281.3619,True
5,2.211113,0.1635154,-0.2129758,-0.05449823,4.583348,1.444208,-1.921554,0.03712133,1.324514,0.3491783,-0.6676359,-0.1052872,10.61008,10.47782,-0.1061703,0.2345117,-0.07784668,-0.2314974,-2.702467,-1.230902,0.1443616,1.458787,0.2727766,0.1318368,0.1653653,0.1889471,-1.09102,0.567606,-0.02008929,0.3132072,1.489639,0.1610289,-0.3108564,1.343032,0.3048012,284.2382,340.3418,281.4129,True
5,2.222224,0.1688114,-0.2055953,-0.06838556,4.585871,1.443871,-1.923524,0.03535506,1.323419,0.3475726,-0.6680481,-0.03682677,10.45093,9.920717,-0.1210096,0.2472431,-0.05857792,-0.2347204,-2.698248,-1.233123,0.1423098,1.458262,0.2724371,0.1179178,0.1483111,0.1816176,-1.08912,0.5688533,-0.02134896,0.3111709,1.489468,0.1609993,-0.3130362,1.341641,0.3037664,284.1328,341.0654,280.9389,True
5,2.233335,0.1602762,-0.1981169,-0.06096458,4.587925,1.444094,-1.925054,0.03363129,1.322643,0.3474631,-0.6681616,-0.0102676,10.26525,9.513605,-0.1155354,0.2738556,-0.02130201,-0.2383135,-2.688376,-1.241672,0.1403284,1.457784,0.2720497,0.1295553,0.1483183,0.1729962,-1.087373,0.5708624,-0.0240534,0.3093088,1.489324,0.1609383,-0.3150898,1.340008,0.3020209,284.0521,340.7676,281.1695,True
5,2.244446,0.1474663,-0.1809931,-0.03868384,4.589395,1.444976,-1.926105,0.03171542,1.321421,0.3458128,-0.6674367,0.06626928,10.15915,9.792157,-0.1570627,0.3120814,-0.0007784069,-0.2425698,-2.679161,-1.247548,0.1383113,1.457197,0.2717834,0.154076,0.1504594,0.1749064,-1.085407,0.5729659,-0.02756105,0.3074438,1.489103,0.1608245,-0.316921,1.338153,0.2999075,283.9377,339.3519,282.1383,True
5,2.255557,0.1378681,-0.166977,-0.004665598,4.59029,1.446507,-1.927119,0.02994806,1.320634,0.3457453,-0.6669221,0.04640695,10.15915,10.92779,-0.1614573,0.3174165,-0.02099009,-0.2464021,-2.677806,-1.246847,0.1364588,1.456631,0.2716892,0.1615105,0.1302231,0.1716446,-1.083599,0.5739681,-0.03002661,0.3055583,1.488921,0.1606948,-0.3186848,1.336111,0.2976725,283.8181,337.7308,283.2808,True
5,2.266668,0.1282881,-0.1690032,0.01128891,4.591657,1.446925,-1.928234,0.02885482,1.32114,0.3482487,-0.6664816,0.0399273,10.2122,12.8348,-0.1370466,0.275967,-0.05526258,-0.2485672,-2.682543,-1.241577,0.1346,1.455973,0.2715726,0.1347653,0.0844019,0.1569709,-1.082319,0.5733505,-0.03035498,0.3036853,1.48868,0.1605465,-0.3205014,1.334018,0.2956545,283.7786,336.0172,284.5417,True
5,2.277779,0.1293406,-0.1647632,0.007003341,4.59326,1.447462,-1.929648,0.0272781,1.320395,0.348176,-0.6665275,-0.004421444,10.39788,15.38461,-0.1167013,0.2302191,-0.05862059,-0.2498418,-2.683813,-1.239753,0.1327325,1.455331,0.2713096,0.1104735,0.04817163,0.1784971,-1.079565,0.5728149,-0.03061863,0.3018532,1.488432,0.1604185,-0.3223853,1.331964,0.2938349,283.8395,334.7143,285.6527,True
5,2.28889,0.1186185,-0.1382078,-0.000593856,4.594162,1.447467,-1.930636,0.02543777,1.318815,0.3467066,-0.666561,-0.002964652,10.55703,17.913,-0.08590093,0.1973078,-0.0897191,-0.2515819,-2.689182,-1.234532,0.1309384,1.454621,0.2711959,0.0854809,0.02366092,0.2415769,-1.074652,0.5722404,-0.03041863,0.3000121,1.488147,0.1602592,-0.3241937,1.33015,0.2924618,283.9706,332.0995,287.6406,True
5,2.300001,0.1153714,-0.1212265,-0.009207059,4.595169,1.44749,-1.931721,0.02385336,1.3177,0.3462412,-0.6669216,-0.03291715,10.66313,20.2057,-0.0838832,0.2026566,-0.1067706,-0.2544619,-2.692608,-1.230349,0.1291064,1.454,0.2710364,0.08364165,0.04177136,0.2746246,-1.070612,0.5737193,-0.03210733,0.2981773,1.487905,0.1601169,-0.3257497,1.328835,0.2921024,284.0612,329.1211,289.8555,True
5,2.311112,0.1280962,-0.09887303,-0.01786245,4.595671,1.447149,-1.933568,0.0224795,1.316815,0.3462112,-0.6665056,0.03834316,10.68966,22.28412,-0.08833298,0.2133296,-0.1344361,-0.2579783,-2.698236,-1.223753,0.1271856,1.453381,0.2709095,0.08477375,0.07799846,0.2842068,-1.06716,0.5762619,-0.03426982,0.2964017,1.487642,0.1600583,-0.3271864,1.3279,0.2926022,283.9545,329.4564,289.7375,True
5,2.322223,0.1781224,-0.09659429,-0.02325381,4.596019,1.446509,-1.936832,0.02181304,1.317234,0.3496075,-0.6665988,-0.008877941,10.66313,23.95543,-0.095898,0.2601824,-0.1311493,-0.2627304,-2.696634,-1.223808,0.1255307,1.452962,0.270793,0.06539235,0.1014266,0.2620102,-1.065061,0.5784256,-0.03545413,0.2946027,1.487385,0.1599638,-0.3286203,1.327053,0.2934039,283.8047,331.9772,288.0308,True
5,2.333334,0.218633,-0.1092884,-0.02427505,4.597651,1.44682,-1.940567,0.02060166,1.316542,0.3497114,-0.6673626,-0.06969236,10.47745,24.70538,-0.07012692,0.2410488,-0.1046859,-0.2646959,-2.69532,-1.225215,0.1238385,1.452453,0.2705781,0.05893628,0.1088798,0.2546078,-1.062562,0.5801229,-0.03679983,0.2928196,1.487051,0.1598625,-0.3299956,1.326124,0.2941573,283.7284,333.755,286.8386,True
5,2.344445,0.2676985,-0.1433834,-0.04755515,4.60055,1.446603,-1.945106,0.0192585,1.315512,0.3494165,-0.6687639,-0.1275749,10.18567,24.57681,-0.04884869,0.2123618,-0.1218779,-0.2665856,-2.699499,-1.22131,0.1221883,1.451799,0.2703836,0.07808083,0.1078221,0.2512404,-1.059892,0.581556,-0.03896977,0.2911066,1.486738,0.1598451,-0.3311815,1.325081,0.2949006,283.7384,333.17,287.2432,True
5,2.355556,0.2762237,-0.1509445,-0.06989047,4.602944,1.445874,-1.948563,0.01809779,1.314636,0.3495433,-0.6693051,-0.04856211,9.787797,23.67688,-0.06176436,0.2325794,-0.1356347,-0.27033,-2.702434,-1.217316,0.1205317,1.451176,0.270139,0.07906997,0.1067548,0.2427136,-1.057445,0.5829564,-0.04056074,0.2893745,1.486497,0.1597388,-0.3320716,1.324025,0.2961651,283.7701,331.4213,288.443,True
5,2.366668,0.2772881,-0.1531565,-0.08266595,4.605121,1.445322,-1.951599,0.01650432,1.313481,0.3482654,-0.6698074,-0.04586739,9.363397,22.24127,-0.09695926,0.2740207,-0.1236714,-0.2747615,-2.700329,-1.217161,0.1188026,1.450657,0.2699866,0.07560875,0.09609766,0.2129144,-1.056124,0.5838166,-0.04163187,0.2877638,1.48635,0.1596875,-0.3329065,1.32277,0.2976709,283.6696,331.931,288.2996,True
5,2.377779,0.2858252,-0.1584451,-0.07944627,4.60722,1.445316,-1.955071,0.01521227,1.312594,0.3484483,-0.6684337,0.1257985,9.018568,20.93422,-0.1044234,0.2878461,-0.1193574,-0.2785949,-2.699914,-1.216224,0.1171184,1.449986,0.2699022,0.07766138,0.09184165,0.2043771,-1.054129,0.5849968,-0.04309794,0.2860365,1.486053,0.1595657,-0.33384,1.321037,0.2989688,283.4884,333.3532,287.5938,True
5,2.38889,0.2858514,-0.1690536,-0.0687327,4.609605,1.445995,-1.958096,0.01379615,1.311175,0.3472247,-0.6676742,0.06815201,8.726789,19.67002,-0.07141852,0.2889961,-0.1216794,-0.2820032,-2.700916,-1.215593,0.1154893,1.449128,0.2699516,0.08077225,0.07587488,0.1947638,-1.052287,0.5856169,-0.04433604,0.2844172,1.485634,0.1594429,-0.3350037,1.318748,0.2997955,283.4637,333.9445,287.6381,True
5,2.400001,0.2656381,-0.1861738,-0.07181461,4.612469,1.446222,-1.960153,0.01261792,1.310173,0.3472135,-0.6679815,-0.02867023,8.514586,18.40583,-0.06821704,0.2868739,-0.1217001,-0.2853886,-2.70157,-1.214317,0.1138348,1.448385,0.269855,0.07983752,0.06734227,0.2086233,-1.049466,0.5861443,-0.04549505,0.28277,1.485318,0.159405,-0.3364962,1.315977,0.2998915,283.5772,333.2076,288.8076,True
5,2.411112,0.2517991,-0.1915559,-0.076037,4.614989,1.446183,-1.962471,0.01142803,1.309217,0.3474452,-0.6675496,0.03976718,8.355438,17.14163,-0.05883497,0.2901286,-0.1569094,-0.2896033,-2.707402,-1.208391,0.1122288,1.447625,0.2698634,0.06606786,0.08012055,0.2183368,-1.046723,0.5878494,-0.04657363,0.2810849,1.485102,0.1595409,-0.3380513,1.312862,0.2993058,283.7335,331.3328,290.7334,True
5,2.422223,0.248612,-0.1936977,-0.07388977,4.617483,1.446465,-1.965197,0.009970069,1.307778,0.3460951,-0.6661876,0.1237601,8.249334,15.87744,-0.04820099,0.2603397,-0.1729737,-0.2921275,-2.712728,-1.203037,0.1105025,1.446913,0.269882,0.07038505,0.08438395,0.2246954,-1.044025,0.5892513,-0.04822639,0.2792749,1.484834,0.1595807,-0.3395568,1.309515,0.2980156,283.8846,329.1699,292.8041,True
5,2.433334,0.2411154,-0.1766653,-0.07291388,4.619053,1.446283,-1.967629,0.008800119,1.306837,0.3461809,-0.6658403,0.03021197,8.143235,14.57039,-0.03530905,0.2188298,-0.1752265,-0.2938606,-2.718366,-1.197835,0.108876,1.446254,0.26986,0.09803541,0.09079032,0.2191183,-1.041856,0.5908592,-0.05109141,0.2775711,1.484592,0.1595562,-0.3409805,1.306179,0.2963597,284.0569,326.0539,295.4011,True
5,2.444445,0.2282438,-0.1437372,-0.0826688,4.620069,1.445486,-1.969754,0.007582575,1.305818,0.3457713,-0.6656443,0.01716771,8.169763,13.28477,-0.04591915,0.2006913,-0.1751809,-0.2960386,-2.722162,-1.193273,0.107359,1.445558,0.269819,0.1192699,0.09718918,0.2114712,-1.039857,0.5924821,-0.05394659,0.2759287,1.484347,0.1595597,-0.3423766,1.303053,0.2947141,284.2165,323.4208,297.5385,True
5,2.455556,0.1983363,-0.1107957,-0.08496246,4.620589,1.44457,-1.97104,0.006373912,1.304909,0.3458376,-0.6643628,0.1161142,8.408487,12.042,-0.0544993,0.1942878,-0.1900564,-0.2988589,-2.7283,-1.186631,0.105776,1.444918,0.2697899,0.1501889,0.09615003,0.2133223,-1.037516,0.5940617,-0.05761136,0.2743027,1.484008,0.1595728,-0.3437707,1.300152,0.2931305,284.3182,321.8273,298.8817,True
5,2.466667,0.1844075,-0.07564357,-0.07768759,4.62072,1.444014,-1.972668,0.004992068,1.303568,0.3446333,-0.6626994,0.149989,8.779839,10.88493,-0.05969793,0.2166175,-0.156976,-0.3021122,-2.725965,-1.187989,0.104215,1.44431,0.2696991,0.1609284,0.07484074,0.2217484,-1.034727,0.5942169,-0.05984975,0.2727081,1.48376,0.1595438,-0.3451068,1.297525,0.2918473,284.4561,320.3122,300.044,True
5,2.477778,0.1811982,-0.06707542,-0.0681453,4.621323,1.443793,-1.974589,0.00373736,1.302687,0.3447204,-0.6603606,0.2114373,9.336869,9.877864,-0.04657951,0.2251139,-0.09738907,-0.30441,-2.719427,-1.194329,0.1026851,1.443743,0.2697549,0.1471106,0.06421469,0.2229346,-1.03225,0.5953277,-0.06172888,0.2711638,1.483401,0.1593764,-0.3464304,1.295194,0.2910305,284.5999,319.1431,300.9343,True
5,2.488889,0.1822553,-0.05957061,-0.05858916,4.621977,1.443934,-1.976739,0.002390116,1.301606,0.3440359,-0.6590381,0.1179373,9.867373,9.213628,-0.04647711,0.2123123,-0.0856792,-0.3062694,-2.718935,-1.194297,0.1011955,1.443084,0.2697749,0.1269944,0.06314357,0.2369674,-1.029195,0.5964339,-0.06299894,0.2695589,1.483285,0.1596169,-0.3477804,1.293172,0.2907683,284.726,318.6275,301.4225,True
5,2.5,0.1780011,-0.06061029,-0.05218852,4.62276,1.443897,-1.978558,0.001161158,1.30079,0.3440797,-0.6576122,0.1280775,10.39788,8.956501,-0.05933869,0.1878021,-0.110131,-0.3082013,-2.723783,-1.188555,0.09974164,1.442477,0.2698274,0.1185784,0.06100984,0.2487617,-1.026063,0.5973587,-0.06448126,0.268041,1.483045,0.1596203,-0.3491242,1.29135,0.2908267,284.7767,318.9018,301.4283,True
5,2.511111,0.1609631,-0.06278521,-0.05109771,4.623875,1.443775,-1.979765,-0.000274986,1.299693,0.3428161,-0.6560362,0.1417558,10.92838,9.085064,-0.06354137,0.1515771,-0.118669,-0.3093097,-2.728259,-1.183651,0.09818968,1.441834,0.2700171,0.1121659,0.06424537,0.2445566,-1.023605,0.5991968,-0.06666478,0.2666389,1.482687,0.1595082,-0.350403,1.28963,0.291088,284.7905,319.1269,301.4581,True
5,2.522222,0.1449305,-0.05314364,-0.04260744,4.623472,1.443591,-1.980344,-0.001064837,1.299151,0.3442307,-0.6537986,0.2020275,11.40584,9.535033,-0.06989743,0.144103,-0.1143739,-0.3110125,-2.729564,-1.181336,0.09667864,1.441215,0.2700665,0.124999,0.06104552,0.2497658,-1.020765,0.5999085,-0.06886562,0.2652498,1.482591,0.1595697,-0.3516226,1.287877,0.2913434,284.7925,319.383,301.4791,True
5,2.533333,0.1267829,-0.02961324,-0.0182237,4.622715,1.443973,-1.981074,-0.002290636,1.298411,0.344238,-0.6512313,0.2317152,11.67109,10.24212,-0.08480474,0.1547111,-0.1110898,-0.3133912,-2.730705,-1.179013,0.09522381,1.440741,0.2700899,0.1378766,0.05999739,0.2592384,-1.017627,0.6010613,-0.07154183,0.2639277,1.48236,0.15992,-0.3528408,1.286033,0.2915084,284.8297,319.4439,301.6797,True
5,2.544444,0.1321547,-0.03696355,-8.19955E-05,4.623684,1.444868,-1.984205,-0.005050689,1.296615,0.3428729,-0.6489298,0.2076159,11.80371,10.7778,-0.09659053,0.1483024,-0.1270129,-0.3175409,-2.736929,-1.170766,0.09248352,1.439797,0.2701557,0.1056809,0.09304628,0.2328888,-1.013507,0.6055319,-0.07549449,0.2612701,1.481785,0.1601379,-0.3540678,1.284084,0.2914413,284.9395,318.9483,302.2721,True
5,2.555555,0.1406944,-0.04225963,0.00313543,4.624353,1.445232,-1.986082,-0.006298482,1.295694,0.3419943,-0.6490715,-0.0154061,11.77719,11.0135,-0.09330878,0.1355147,-0.1195915,-0.3188608,-2.73896,-1.16807,0.0911192,1.439284,0.2702091,0.07775535,0.1218103,0.2075665,-1.012275,0.6085733,-0.07719439,0.2600705,1.481655,0.1603618,-0.355475,1.282176,0.2914129,285.1113,318.2259,302.8459,True
5,2.566666,0.1332765,-0.05932789,0.002170958,4.625513,1.445743,-1.987258,-0.007359654,1.295059,0.3418429,-0.64775,0.1203382,11.64456,10.88493,-0.1145896,0.1482321,-0.1077396,-0.3211549,-2.738649,-1.166266,0.08983582,1.438595,0.2702088,0.08071359,0.1377896,0.1819707,-1.011314,0.6111524,-0.0795369,0.2588856,1.481495,0.1606197,-0.3575554,1.280205,0.2911935,285.174,318.5495,302.7462,True
5,2.577777,0.1194112,-0.05289806,0.009558527,4.625546,1.445405,-1.988075,-0.008124441,1.295435,0.3440518,-0.6466869,0.0954584,11.53846,10.24212,-0.1517194,0.1470432,-0.08409815,-0.3227123,-2.737653,-1.164513,0.08859369,1.438105,0.27033,0.09765214,0.1399235,0.1701016,-1.0099,0.6131167,-0.08231857,0.2576302,1.48135,0.1608772,-0.3592263,1.278145,0.2906459,285.3399,318.0838,303.3256,True
5,2.588888,0.1013178,-0.05498163,0.02556244,4.625832,1.446454,-1.988475,-0.009398371,1.294784,0.3440027,-0.6450794,0.1456986,11.48541,9.363616,-0.1622022,0.1150418,-0.06915454,-0.3229749,-2.738103,-1.161909,0.08730456,1.437563,0.2704093,0.1348344,0.12719,0.1569786,-1.008704,0.6148828,-0.0861546,0.2565479,1.481165,0.1611636,-0.3604672,1.276055,0.2897422,285.5121,317.1503,304.2574,True
5,2.599999,0.04807594,-0.05391237,0.04903827,4.625737,1.448059,-1.987217,-0.01110616,1.293859,0.3436058,-0.643832,0.1124259,11.45889,8.377972,-0.1675964,0.08309823,-0.09792442,-0.3235815,-2.744432,-1.154145,0.08608246,1.436901,0.2705014,0.1667181,0.1165367,0.1481676,-1.007416,0.6158883,-0.08957516,0.2554242,1.48125,0.1615326,-0.3613828,1.274125,0.2887656,285.8025,315.0813,305.7737,True
5,2.61111,0.04807594,-0.05391237,0.04903827,4.625737,1.448059,-1.987217,-0.01110616,1.293859,0.3436058,-0.6429233,0.08186557,11.48541,7.263766,-0.1675964,0.08309823,-0.09792442,-0.3235815,-2.744432,-1.154145,0.08608246,1.436901,0.2705014,0.1667181,0.1165367,0.1481676,-1.007416,0.6158883,-0.08957516,0.2554242,1.48125,0.1615326,-0.362219,1.272672,0.2883453,286.1646,312.8954,307.1804,True
5,2.622221,-0.03504255,-0.03697547,0.06605362,4.62543,1.450036,-1.984022,-0.01356119,1.292521,0.3428507,-0.6419805,0.08532624,11.53846,6.192414,-0.1291322,0.06508306,-0.09071298,-0.3255501,-2.749273,-1.14792,0.08377185,1.435947,0.2706516,0.1206232,0.1367792,0.1166174,-1.006107,0.6206868,-0.09369826,0.2535005,1.480721,0.1619866,-0.3629881,1.271729,0.2884224,286.3554,312.3464,307.6461,True
5,2.633332,-0.06384756,-0.0156608,0.08087131,4.624446,1.451137,-1.982325,-0.01466608,1.29187,0.3423243,-0.6394953,0.2264412,11.59151,5.528174,-0.1084316,0.06080057,-0.01200076,-0.3250282,-2.741031,-1.155126,0.08291623,1.435217,0.2707052,0.1026256,0.144224,0.1295628,-1.004403,0.6230053,-0.0955172,0.2525319,1.4805,0.1623006,-0.3637447,1.271273,0.2887608,286.2819,313.0722,307.356,True
5,2.644443,-0.06384756,-0.0156608,0.08087131,4.624446,1.451137,-1.982325,-0.01466608,1.29187,0.3423243,-0.6394473,0.002481509,11.64456,5.249625,-0.1084316,0.06080057,-0.01200076,-0.3250282,-2.741031,-1.155126,0.08291623,1.435217,0.2707052,0.1026256,0.144224,0.1295628,-1.004403,0.6230053,-0.0955172,0.2525319,1.4805,0.1623006,-0.3656497,1.271152,0.2889344,286.0421,314.7479,306.2971,True
5,2.655554,-0.1043335,-0.01677247,0.08406709,4.623886,1.452505,-1.978844,-0.01645297,1.292349,0.3448126,-0.641425,-0.1806217,11.69761,5.335332,-0.123334,0.07459883,-0.007668413,-0.327229,-2.740516,-1.152607,0.08116561,1.434119,0.2709172,0.1353933,0.1506837,0.09942697,-1.00343,0.6282442,-0.1024451,0.2506574,1.480052,0.1627312,-0.3671975,1.271339,0.2887246,285.9999,315.2311,305.9458,True
5,2.666665,-0.1043335,-0.01677247,0.08406709,4.623886,1.452505,-1.978844,-0.01645297,1.292349,0.3448126,-0.638519,0.2672591,11.72414,5.678166,-0.123334,0.07459883,-0.007668413,-0.327229,-2.740516,-1.152607,0.08116561,1.434119,0.2709172,0.1353933,0.1506837,0.09942697,-1.00343,0.6282442,-0.1024451,0.2506574,1.480052,0.1627312,-0.3680762,1.271759,0.2882438,285.8655,315.4433,305.5996,True
5,2.677776,-0.121408,-0.005112067,0.08081838,4.623262,1.453116,-1.976853,-0.01755422,1.29204,0.3448269,-0.6412753,-0.2545017,11.75066,5.956715,-0.1114966,0.00752525,-0.01738974,-0.3253983,-2.744757,-1.147742,0.08027059,1.433886,0.2710459,0.1790168,0.1442907,0.09370372,-1.002713,0.629682,-0.1065757,0.24988,1.480029,0.1629758,-0.3692406,1.272387,0.2875344,285.7442,315.9732,304.9397,True
5,2.688887,-0.1331648,0.009692911,0.06689808,4.622641,1.45315,-1.975103,-0.01864848,1.291372,0.3440084,-0.639752,0.1417151,11.72414,6.170985,-0.1083576,-0.01056015,-0.0398012,-0.325188,-2.749367,-1.142653,0.0794526,1.433705,0.2712421,0.1980055,0.1293839,0.07223023,-1.002743,0.6307662,-0.1099617,0.2490562,1.480086,0.16348,-0.3697039,1.273145,0.286801,285.6266,315.4804,304.8183,True
5,2.699998,-0.07351463,0.002183852,0.0285177,4.62257,1.452285,-1.975329,-0.01983801,1.291406,0.3453746,-0.63945,0.02613506,11.72414,6.685236,-0.05114591,-0.0723011,0.05887592,-0.3205785,-2.743086,-1.149433,0.0780248,1.432885,0.2711263,0.1668809,0.07399583,0.04375262,-1.002681,0.6312282,-0.1131308,0.2477641,1.479892,0.1636686,-0.3701822,1.274144,0.286693,285.5722,314.6797,304.825,True
5,2.711109,-0.07987722,-0.01393599,0.007308689,4.623576,1.452135,-1.974267,-0.02088609,1.290623,0.3446896,-0.6396306,-0.01656914,11.72414,7.542318,-0.08017914,-0.01908858,0.03779037,-0.3222398,-2.741926,-1.148466,0.07726434,1.432428,0.2711248,0.1156737,0.08887742,0.03675621,-1.002711,0.6328705,-0.1135559,0.2472207,1.479888,0.163785,-0.3711309,1.275281,0.287186,285.3575,315.5207,303.8892,True
5,2.72222,-0.09903876,-0.02580516,-0.01178759,4.624577,1.451634,-1.972533,-0.02169997,1.290297,0.3448052,-0.6416349,-0.1831134,11.77719,8.785087,-0.1126175,0.0384085,-0.0248305,-0.3254474,-2.746473,-1.142248,0.07643831,1.43219,0.2711563,0.08392277,0.125087,0.06261389,-1.001424,0.6361886,-0.1151751,0.2466797,1.480014,0.1640401,-0.372511,1.276377,0.2881451,285.0921,317.1328,302.5225,True
5,2.733331,-0.08946461,-0.01936628,-0.01079627,4.624416,1.451035,-1.97189,-0.02212796,1.290654,0.3462458,-0.6404849,0.1066305,11.77719,10.07071,-0.1117939,0.04909378,-0.06425862,-0.3268887,-2.751865,-1.136194,0.07560992,1.432237,0.2713034,0.05310582,0.1175993,0.07141294,-1.000466,0.6373113,-0.1153737,0.2461289,1.479977,0.1641507,-0.3735862,1.277105,0.289205,284.7079,318.9973,301.1633,True
5,2.744442,-0.04574344,-0.03410705,0.002038335,4.625019,1.451777,-1.972746,-0.02253225,1.290519,0.3464062,-0.6395592,0.08351792,11.75066,11.31348,-0.07956859,0.04061309,-0.02183951,-0.3265435,-2.748311,-1.139771,0.07499027,1.432043,0.2713742,0.02963271,0.09737563,0.06522837,-1.000182,0.6382622,-0.1156552,0.2455828,1.479969,0.1642592,-0.3745028,1.277277,0.2900533,284.4364,320.4386,300.2202,True
5,2.755553,-0.02227557,-0.04894388,0.003142044,4.62588,1.451815,-1.973282,-0.02266654,1.291037,0.3479245,-0.6405467,-0.09092972,11.67109,12.53482,-0.0474616,0.06089603,0.009945443,-0.3271608,-2.743553,-1.145099,0.07471722,1.431665,0.27142,0.02984878,0.1016201,0.08972943,-0.9985517,0.6397428,-0.1168481,0.2450623,1.479916,0.1645632,-0.3752495,1.277031,0.290705,284.4846,320.0462,300.6319,True
5,2.766664,-0.006266142,-0.06277286,1.150556E-05,4.627025,1.452188,-1.973751,-0.02283725,1.290933,0.3480566,-0.6421962,-0.1500091,11.53846,13.73473,-0.03043178,0.05242419,0.003447535,-0.327604,-2.743779,-1.145092,0.07454184,1.431479,0.2714803,0.06320754,0.1058994,0.1267137,-0.9960638,0.6416993,-0.1196923,0.2446227,1.479885,0.1647005,-0.3757191,1.276627,0.2914026,284.7167,318.7562,301.7078,True
5,2.777775,-0.003066091,-0.07128572,-0.005286992,4.62773,1.451921,-1.973557,-0.02286485,1.291165,0.3496678,-0.6417824,0.03888952,11.37931,14.80608,-0.02182098,0.02368299,0.006569514,-0.3268737,-2.743907,-1.144945,0.074341,1.431277,0.2714593,0.1207876,0.07717372,0.1304441,-0.9947578,0.6419641,-0.1230261,0.2442612,1.479771,0.1646922,-0.3758872,1.276125,0.29208,284.8675,317.8729,302.5436,True
5,2.788886,0.008642833,-0.06488966,-0.008522933,4.628283,1.452011,-1.974097,-0.0234341,1.290537,0.3489573,-0.6414527,0.02949458,11.22016,15.49175,-0.04558219,0.01516654,-0.05083091,-0.3279576,-2.750841,-1.136837,0.07405737,1.431221,0.2715771,0.1612538,0.04308289,0.1268841,-0.9934278,0.6411695,-0.1256117,0.243926,1.479809,0.1647866,-0.3758818,1.275633,0.2928379,284.9711,317.0663,303.3159,True
5,2.799997,0.02461853,-0.06162694,-0.003225833,4.628751,1.452368,-1.974837,-0.02345273,1.290317,0.3490818,-0.6405446,0.08272125,11.14058,15.85601,-0.04884386,0.00452669,-0.06893864,-0.328371,-2.755032,-1.132384,0.07379222,1.431184,0.2716177,0.1613408,0.01967218,0.1343402,-0.9916829,0.6412769,-0.1274583,0.2436504,1.47982,0.1647458,-0.3758242,1.275156,0.2935837,284.9921,316.6711,303.76,True
5,2.811108,0.05124183,-0.05517709,-0.002204673,4.629189,1.452751,-1.976285,-0.02366158,1.289828,0.3483653,-0.6410932,-0.05093583,11.11406,16.006,-0.04152647,0.003507733,-0.09134801,-0.3290964,-2.759748,-1.127552,0.07377657,1.431162,0.2716911,0.1219665,-0.008056659,0.1378958,-0.989873,0.640118,-0.1268525,0.2435951,1.4797,0.1647897,-0.3759108,1.274764,0.2944229,285.007,316.5225,303.9641,True
5,2.822219,0.09707399,-0.06355658,0.00420092,4.629974,1.453387,-1.978889,-0.02339074,1.289686,0.3484576,-0.6412647,-0.01524455,11.24668,16.22027,-0.00621495,0.01422395,-0.05958176,-0.3295443,-2.757627,-1.13062,0.07383418,1.431082,0.2717195,0.06537351,-0.002754526,0.1245643,-0.9889302,0.6405085,-0.1259012,0.2436068,1.47969,0.1650293,-0.3761941,1.274355,0.2950549,284.9487,317.2502,303.627,True
5,2.83333,0.1173637,-0.0848231,0.005381554,4.631609,1.45439,-1.980673,-0.02315539,1.288991,0.3475256,-0.641817,-0.05054015,11.48541,16.52025,0.01092781,-0.005982408,-0.04904159,-0.3288583,-2.758933,-1.129897,0.07394448,1.430842,0.271744,0.03113239,0.01851786,0.1099546,-0.9883246,0.6414746,-0.1255963,0.2436633,1.47969,0.1651053,-0.3763522,1.27386,0.2952897,284.9187,317.7769,303.4199,True
5,2.844441,0.1120091,-0.07315343,0.006380036,4.63257,1.454783,-1.981619,-0.02347854,1.287882,0.3445878,-0.6428146,-0.09098285,11.77719,17.05592,-0.01791674,0.01418917,-0.0541844,-0.3299726,-2.760139,-1.12748,0.07402959,1.430761,0.271733,-0.002426416,0.03767194,0.05272955,-0.989791,0.6425169,-0.12498,0.2437827,1.479851,0.1651905,-0.3763405,1.273201,0.2949817,284.8954,317.9645,303.3897,True
5,2.855552,0.1024003,-0.06461307,0.01380701,4.632738,1.455455,-1.982243,-0.02337584,1.28754,0.3445849,-0.6418447,0.08920611,12.12201,17.87015,-0.04150119,0.01201738,-0.07855861,-0.3308615,-2.765127,-1.121244,0.07402501,1.430722,0.2717962,0.0002566371,0.0291643,-0.004815578,-0.9915886,0.6425672,-0.1252929,0.2439963,1.479784,0.1650867,-0.3759686,1.272292,0.2941875,284.8373,317.7475,303.5295,True
5,2.866663,0.0842467,-0.04440572,0.0158389,4.632507,1.455634,-1.982564,-0.02325416,1.28719,0.3446345,-0.6406127,0.1116197,12.44032,18.92007,-0.04888307,0.004530773,-0.0689373,-0.3307838,-2.766723,-1.118969,0.07406014,1.430746,0.2718413,0.02128278,-0.01557215,-0.03802692,-0.9928392,0.640389,-0.1250519,0.2442091,1.479795,0.1651924,-0.3755469,1.271031,0.29283,284.7439,317.9752,303.4862,True
5,2.877774,0.07678416,-0.04018908,0.01049463,4.632814,1.455737,-1.983324,-0.02304581,1.286928,0.3445568,-0.6400881,0.04703722,12.65252,20.14142,-0.04039354,-0.005019359,-0.07644847,-0.3309824,-2.769875,-1.11566,0.07403889,1.430717,0.2718973,0.03080716,-0.03262525,-0.04557145,-0.9934438,0.638965,-0.1249292,0.2443721,1.4798,0.1652825,-0.375457,1.269446,0.2907468,284.7913,317.7372,303.8298,True
5,2.888885,0.07996211,-0.03598019,-0.000183871,4.633194,1.455489,-1.984356,-0.02282622,1.286712,0.3445616,-0.6396838,0.0366489,12.81167,21.16991,-0.02137858,-0.02091939,-0.1095893,-0.3312674,-2.777455,-1.108787,0.07411027,1.430701,0.2719064,0.007252414,-0.01024415,-0.05707666,-0.9944819,0.6400999,-0.1247475,0.2446688,1.479755,0.1652079,-0.3755172,1.267774,0.2883895,285.0693,315.7644,305.0988,True
5,2.899997,0.09382869,-0.04774186,-0.0150308,4.634181,1.455353,-1.985909,-0.02244142,1.286705,0.344769,-0.6400892,-0.03736081,12.91777,21.96272,-0.005363554,0.002537845,-0.09261649,-0.3321207,-2.777659,-1.109092,0.07421932,1.430662,0.2719774,-0.04405617,0.03341463,-0.07365886,-0.9960702,0.6422146,-0.1236162,0.2449119,1.479771,0.1653364,-0.3756211,1.266269,0.2862976,285.4184,313.4262,306.5244,True
5,2.911108,0.1162513,-0.07436053,-0.02128779,4.636031,1.455741,-1.987859,-0.02220646,1.286793,0.3447948,-0.6403768,-0.02592088,12.97082,22.47696,-0.01169736,0.04936178,-0.05843628,-0.3338821,-2.772842,-1.113043,0.07455531,1.430544,0.271908,-0.08337943,0.04937025,-0.06264789,-0.9965203,0.643289,-0.1220103,0.245178,1.479753,0.1653998,-0.3756173,1.265088,0.2848278,285.6599,311.6578,307.6277,True
5,2.922219,0.124785,-0.07858405,-0.01913586,4.636873,1.456025,-1.989506,-0.02206427,1.286891,0.3450599,-0.6408796,-0.04580189,13.02387,22.73409,-0.02637131,0.04608337,-0.01787576,-0.3335796,-2.769594,-1.115275,0.07472265,1.430567,0.2719367,-0.0724806,0.02383666,-0.03825023,-0.9962044,0.6430592,-0.121662,0.2454121,1.47971,0.1655333,-0.3754357,1.264275,0.284151,285.7687,310.6806,308.2689,True
5,2.93333,0.1098566,-0.07222604,-0.02022239,4.63737,1.456065,-1.990168,-0.02189246,1.286914,0.3450847,-0.6412668,-0.03510314,13.10345,22.54125,-0.03164581,0.03754517,-0.01145596,-0.3336733,-2.768967,-1.115235,0.07489896,1.430606,0.2719162,-0.04678346,0.009983014,-0.02463742,-0.9960356,0.6423359,-0.1216572,0.245645,1.479734,0.1656246,-0.375035,1.263792,0.2842578,285.7548,310.3568,308.5842,True
5,2.944441,0.0682029,-0.02650915,-0.01937961,4.636228,1.455315,-1.989564,-0.02184132,1.286922,0.3452394,-0.640862,0.0371616,13.20955,22.36983,-0.03900944,0.01301417,-0.00611323,-0.3329132,-2.77009,-1.113479,0.07501364,1.430785,0.2719777,-0.01241471,0.004700324,0.004882419,-0.9949927,0.6428428,-0.1230759,0.2458941,1.479677,0.16572,-0.3745733,1.263537,0.2849652,285.6512,310.5448,308.6567,True
5,2.955552,0.04155674,-0.02337744,-0.01940971,4.63664,1.454848,-1.989119,-0.02142715,1.287019,0.3452263,-0.6397232,0.1036634,13.2626,22.36983,-0.04218987,0.005549785,-0.003968251,-0.3327652,-2.770069,-1.112692,0.07518351,1.430929,0.2719884,-0.02298466,0.008937541,0.01456351,-0.9945442,0.6428972,-0.1224066,0.2461869,1.479752,0.165801,-0.3741952,1.263415,0.2860632,285.5741,311.1397,308.4453,True
5,2.966663,0.01706159,-0.02337946,-0.009802558,4.636837,1.455132,-1.988467,-0.02124825,1.287087,0.3453326,-0.6383176,0.1277056,13.31565,22.60553,-0.04327991,-0.005099583,-0.01037295,-0.3326294,-2.771972,-1.110154,0.0753414,1.430963,0.2721689,-0.05594566,0.01427959,0.02125402,-0.9942486,0.6439452,-0.1211352,0.246417,1.479866,0.1658244,-0.3739733,1.263382,0.2873122,285.5747,311.8539,308.1628,True
5,2.977774,-0.01380571,-0.02869744,0.004103478,4.637048,1.455854,-1.987381,-0.02126625,1.28725,0.3454585,-0.6385089,-0.01837117,13.28912,23.39833,-0.04224429,0.02046413,-0.003962609,-0.3335673,-2.769942,-1.111641,0.07551676,1.430922,0.2722406,-0.08364168,0.02919857,0.02257277,-0.9940717,0.645309,-0.1199834,0.2466844,1.479903,0.1658521,-0.3739008,1.263489,0.2885515,285.6673,312.4207,307.9842,True
5,2.988885,-0.03508856,-0.03399711,0.01799729,4.637273,1.456739,-1.986161,-0.02118346,1.287357,0.3455434,-0.6385845,-0.006537213,13.20955,24.42683,-0.02503208,0.03539128,0.03216862,-0.3337798,-2.764173,-1.117389,0.07576132,1.430888,0.2723193,-0.07720193,0.04729702,0.02890351,-0.9936728,0.64649,-0.1199677,0.2469276,1.479859,0.166059,-0.3737064,1.263745,0.2895898,285.674,312.725,308.0244,True
5,2.999996,-0.08509174,-0.05314931,0.04264883,4.637784,1.458522,-1.983427,-0.02124605,1.287422,0.3457026,-0.638373,0.019512,13.0504,25.56246,-0.02588937,0.04067961,0.07053054,-0.3334448,-2.757671,-1.123272,0.07620856,1.430852,0.2723584,-0.03247473,0.04624932,0.02743351,-0.9933937,0.6470147,-0.1213725,0.2472339,1.480017,0.1665289,-0.3735211,1.264158,0.2902987,285.6279,313.0253,307.9697,True
5,3.011107,-0.1000029,-0.05098416,0.05544387,4.637759,1.459782,-1.9818,-0.02128813,1.287452,0.3458331,-0.6381744,0.01778016,12.83819,26.80523,-0.02468474,0.01616676,0.08541012,-0.3323321,-2.754867,-1.125504,0.07653838,1.431017,0.2724557,0.02058324,0.03240892,0.003512064,-0.9941431,0.6465505,-0.1231752,0.2476686,1.479975,0.1667817,-0.3734396,1.264722,0.2905902,285.5578,313.3353,307.7863,True
5,3.022218,-0.1149161,-0.04557905,0.07566471,4.637434,1.461302,-1.979894,-0.02127787,1.2876,0.3459022,-0.6364811,0.1543381,12.57294,28.02657,-0.02343683,-0.04881706,0.08746811,-0.3293995,-2.75578,-1.124481,0.07697225,1.431306,0.2726278,0.03737485,0.0387987,-0.02433936,-0.9953383,0.6470257,-0.1243366,0.2480896,1.480029,0.1671157,-0.3733989,1.265382,0.2904325,285.4357,313.6228,307.4844,True
5,3.033329,-0.1170695,-0.03488961,0.0830715,4.636928,1.462411,-1.978512,-0.02111688,1.287794,0.345901,-0.6369754,-0.04696986,12.30769,28.77651,-0.01488341,-0.09352186,0.07352445,-0.3270617,-2.758442,-1.122012,0.07739627,1.431491,0.2726932,0.0254075,0.04942915,-0.05086836,-0.9968872,0.6476378,-0.1244943,0.2486109,1.480109,0.1673331,-0.3734591,1.266135,0.289858,285.3205,313.6914,307.2573,True
5,3.04444,-0.1170981,-0.02426672,0.07768607,4.636545,1.462976,-1.977188,-0.02098784,1.288075,0.3458655,-0.63621,0.06992362,12.09549,28.94793,-0.01581883,-0.09567616,0.09483161,-0.3252524,-2.754929,-1.125202,0.07783768,1.431587,0.2727249,-0.01849812,0.06005276,-0.07496777,-0.9985059,0.6484896,-0.1231936,0.2491058,1.480243,0.1673212,-0.3735291,1.266937,0.2889778,285.1894,313.7797,306.887,True
5,3.055551,-0.1128832,-0.0115752,0.0595119,4.636247,1.462985,-1.976023,-0.02069807,1.288456,0.3458118,-0.6356971,0.04533961,11.96286,28.51939,-0.03309753,-0.02752698,0.08753458,-0.3269776,-2.749888,-1.128774,0.07824153,1.431681,0.2727582,-0.05689574,0.0589576,-0.07994919,-0.9996351,0.6488573,-0.1214753,0.2497227,1.48023,0.167444,-0.3735209,1.267732,0.2879164,285.095,313.84,306.4945,True
5,3.066662,-0.10545,-0.006288923,0.04883444,4.636014,1.463278,-1.975008,-0.02036884,1.288827,0.3458214,-0.6344763,0.11015,11.88329,27.64088,-0.05131358,-0.03393912,0.06738872,-0.3264972,-2.750658,-1.126791,0.0786792,1.431867,0.2727449,-0.05681865,0.04297371,-0.0714207,-1.000013,0.6486188,-0.1206894,0.2502583,1.480269,0.1674564,-0.3733876,1.268458,0.2868174,285.0067,313.8588,306.1342,True
5,3.077773,-0.0904992,-0.02223913,0.04784722,4.636529,1.464075,-1.97444,-0.01993647,1.289243,0.3458462,-0.633035,0.1295653,11.85676,26.61238,-0.05869775,-0.03184884,0.08127674,-0.3255139,-2.747394,-1.128975,0.07928067,1.432137,0.2728441,-0.03228137,-0.000704689,-0.06951149,-1.000537,0.6465278,-0.1200702,0.250881,1.480234,0.1675835,-0.3731981,1.269065,0.2858461,284.9411,313.754,305.9144,True
5,3.088884,-0.08515719,-0.03401448,0.0351242,4.637206,1.464347,-1.973559,-0.01952296,1.289621,0.345876,-0.631435,0.1438471,11.88329,25.66959,-0.04481963,-0.07014751,0.07157286,-0.3235469,-2.748645,-1.127557,0.07973889,1.432418,0.2728717,-0.03032284,-0.009245289,-0.08870687,-1.002137,0.6455241,-0.1192311,0.2515496,1.480328,0.1677392,-0.3729289,1.269521,0.2851455,284.9112,313.5536,305.8494,True
5,3.099995,-0.07870644,-0.06282698,0.02356128,4.638726,1.464881,-1.972854,-0.01911542,1.289964,0.3459339,-0.6299516,0.1329747,11.96286,24.8768,-0.03613754,-0.1127498,0.08000019,-0.3204747,-2.749415,-1.126741,0.08031043,1.432726,0.2729318,-0.04848605,0.01634626,-0.09386647,-1.003457,0.6472157,-0.1190571,0.2522922,1.48016,0.1676607,-0.3725677,1.269802,0.2847712,284.9093,313.3777,305.8865,True
5,3.111106,-0.07122275,-0.07669322,0.01827416,4.640093,1.46502,-1.972267,-0.01863861,1.290461,0.3459997,-0.6274881,0.2225066,12.09549,24.23399,-0.04049547,-0.08505952,0.07579195,-0.3202329,-2.747215,-1.128178,0.08091533,1.433,0.2729347,-0.06343838,0.03762896,-0.09692889,-1.004724,0.6480908,-0.1183256,0.2530265,1.480255,0.1677582,-0.3721031,1.269875,0.2846755,284.903,313.2154,306.0525,True
5,3.122217,-0.06799222,-0.08942071,0.02686446,4.641181,1.466105,-1.97157,-0.01820388,1.290765,0.346132,-0.6253523,0.1917318,12.22811,23.80544,-0.02128158,-0.04561992,0.1002194,-0.3200944,-2.740761,-1.134711,0.08149326,1.433195,0.2729993,-0.06668007,0.0578918,-0.1011588,-1.006131,0.6499088,-0.1185101,0.2538975,1.480233,0.167881,-0.3716429,1.269735,0.2848097,284.9189,312.9673,306.3845,True
5,3.133328,-0.07329256,-0.1010589,0.04079941,4.64185,1.467717,-1.970277,-0.01775315,1.290961,0.3463464,-0.6229443,0.2166925,12.36074,23.67688,-0.02252238,-0.01790806,0.08321605,-0.3205631,-2.738436,-1.136554,0.08218002,1.433323,0.2730491,-0.06983071,0.04721877,-0.09687066,-1.00706,0.6496189,-0.1174883,0.2546085,1.480331,0.1679933,-0.3712052,1.269392,0.2850968,284.9602,312.5475,306.9303,True
5,3.144439,-0.08712096,-0.106365,0.0504269,4.642754,1.469099,-1.968698,-0.01719382,1.291257,0.3464262,-0.6201746,0.2494075,12.49337,23.76259,-0.03439005,-0.03068854,0.05131296,-0.3201311,-2.741326,-1.132998,0.08288521,1.433544,0.2730854,-0.0696896,0.02273812,-0.08302012,-1.007463,0.6492351,-0.1165586,0.2554392,1.480465,0.1680882,-0.3707723,1.268887,0.2854662,285.0612,312.0278,307.5898,True
5,3.15555,-0.1052591,-0.08929811,0.06203068,4.642838,1.469797,-1.96692,-0.01653734,1.291831,0.3464622,-0.6167088,0.3126787,12.62599,23.99829,-0.04392621,-0.04030906,0.05562416,-0.3189396,-2.740102,-1.133369,0.08370465,1.433848,0.2731528,-0.06422868,-0.0007109269,-0.06922283,-1.007691,0.6479871,-0.1153463,0.2561439,1.480619,0.1682067,-0.3703247,1.268249,0.2857955,285.1911,311.63,308.1432,True
5,3.166661,-0.1084993,-0.06906001,0.06298463,4.642657,1.470453,-1.965635,-0.01599136,1.292115,0.3465786,-0.6133319,0.3039755,12.75862,24.29826,-0.03421249,-0.07757682,0.06193088,-0.3166019,-2.73956,-1.133732,0.08454165,1.434114,0.2732003,-0.04496124,-0.02303569,-0.06086561,-1.007899,0.6473753,-0.1152976,0.2569901,1.480665,0.1683078,-0.3698496,1.267538,0.2859529,285.3677,311.2241,308.6957,True
5,3.177772,-0.1181227,-0.05416947,0.06290479,4.642543,1.471114,-1.963981,-0.01546314,1.292483,0.3465259,-0.609955,0.304042,12.89124,24.42683,-0.01918363,-0.08607627,0.07781605,-0.3148464,-2.737188,-1.136335,0.08529323,1.434366,0.2733219,-0.03850411,-0.0166556,-0.05346763,-1.008243,0.647132,-0.1149665,0.2579215,1.480887,0.168437,-0.3693189,1.266865,0.2858605,285.6026,310.5531,309.4502,True
5,3.188883,-0.1277573,-0.03289749,0.06067463,4.641939,1.471706,-1.962249,-0.01514509,1.292936,0.346566,-0.6072146,0.245794,13.07692,24.4054,-0.02773893,-0.08822536,0.0725395,-0.3136794,-2.736695,-1.136023,0.08603111,1.434641,0.2734182,-0.0599164,-0.007050805,-0.06499649,-1.009513,0.647786,-0.1139228,0.2588385,1.481141,0.1687374,-0.3687631,1.266378,0.2855555,285.8615,309.7641,310.1944,True
5,3.199994,-0.1266985,-0.03076999,0.05959342,4.64202,1.472361,-1.960827,-0.01470259,1.293463,0.3465869,-0.603581,0.3278187,13.20955,24.06256,-0.05449728,-0.07016915,0.05886124,-0.3133337,-2.736266,-1.134981,0.08673656,1.434944,0.2734804,-0.0759678,0.005711831,-0.07230341,-1.010508,0.648003,-0.1126935,0.2598161,1.481492,0.1690943,-0.3682436,1.266094,0.2851181,286.0101,309.2874,310.5413,True
5,3.211105,-0.1266955,-0.02646607,0.06703629,4.641731,1.473475,-1.959447,-0.01426521,1.293925,0.3466449,-0.600048,0.317861,13.28912,23.39833,-0.04913158,-0.06377427,0.06948727,-0.3124298,-2.733819,-1.136887,0.08755952,1.435279,0.2735724,-0.0813904,0.00357797,-0.08290713,-1.011799,0.6477999,-0.1114866,0.2607161,1.481599,0.1693275,-0.367826,1.266006,0.2846023,286.1074,309.0053,310.6818,True
5,3.222216,-0.1288146,-0.02853877,0.07770002,4.641589,1.474718,-1.957848,-0.01376155,1.294502,0.3467584,-0.5968671,0.2857676,13.34218,22.41268,-0.03616275,-0.07548273,0.09603625,-0.3104479,-2.729715,-1.140891,0.08841035,1.435528,0.2736497,-0.07510951,0.00143237,-0.09467657,-1.013102,0.6471959,-0.1104882,0.2615272,1.481656,0.1695249,-0.3675575,1.266105,0.2840731,286.1838,308.7921,310.7432,True
5,3.233327,-0.134164,-0.0200159,0.08086413,4.64115,1.475807,-1.956009,-0.01317206,1.294919,0.3467858,-0.5934039,0.3117924,13.31565,21.27705,-0.03924739,-0.08083254,0.1141618,-0.3087019,-2.725434,-1.144316,0.08929041,1.435901,0.2737463,-0.06464365,0.008882921,-0.1150132,-1.015032,0.6472042,-0.1101555,0.2625335,1.481626,0.1697822,-0.3672664,1.266326,0.2835643,286.1987,308.6085,310.7852,True
5,3.244438,-0.1480789,0.008744072,0.08497228,4.639671,1.476301,-1.953822,-0.01262251,1.295391,0.3469293,-0.5895557,0.3466981,13.2626,19.90572,-0.04220845,-0.1330591,0.1311733,-0.3048084,-2.724057,-1.145033,0.0901849,1.436182,0.2738883,-0.04890325,0.02486377,-0.1396546,-1.017395,0.6478039,-0.1103441,0.263501,1.481763,0.1700988,-0.3668785,1.26659,0.2830869,286.2013,308.5554,310.716,True
5,3.255549,-0.1705002,0.02894563,0.08696846,4.638483,1.476369,-1.95109,-0.01186392,1.295896,0.3469524,-0.5857229,0.3451701,13.23607,18.25584,-0.04767076,-0.09684741,0.1259185,-0.304443,-2.719854,-1.148154,0.0910944,1.436402,0.2740567,-0.0448877,0.03122912,-0.16633,-1.020121,0.6475984,-0.109849,0.264619,1.481838,0.1703651,-0.3663686,1.266844,0.2826418,286.221,308.509,310.6646,True
5,3.26666,-0.1928892,0.03416666,0.07844087,4.637846,1.476871,-1.948151,-0.01130384,1.29624,0.3470471,-0.5818607,0.3479493,13.20955,16.37026,-0.04140119,-0.09680896,0.1045789,-0.3034092,-2.719893,-1.147885,0.09194675,1.43656,0.2742097,-0.03852537,0.03123176,-0.1695841,-1.02218,0.6477453,-0.1097047,0.2656226,1.481883,0.1706138,-0.3657824,1.267059,0.2822417,286.2803,308.4893,310.5878,True
5,3.277771,-0.2035257,0.02449961,0.06997475,4.637858,1.477359,-1.945516,-0.01065901,1.296687,0.3470714,-0.5779177,0.3554289,13.18302,14.31326,-0.03931992,-0.1234163,0.0853665,-0.3010491,-2.722253,-1.145152,0.09290412,1.436687,0.2743735,-0.04387256,0.008843722,-0.1716577,-1.023891,0.6464998,-0.1082239,0.2666708,1.481852,0.170783,-0.3652057,1.267271,0.2819489,286.4229,308.4508,310.5183,True
5,3.288882,-0.1928381,0.006311178,0.05089702,4.638312,1.477568,-1.943787,-0.01002482,1.297157,0.3472159,-0.5744652,0.3105506,13.23607,12.25627,-0.02670544,-0.1158977,0.05973406,-0.3002512,-2.724007,-1.143518,0.09379834,1.436946,0.2744894,-0.08781052,-0.0007762648,-0.2010871,-1.027055,0.645523,-0.1053616,0.2676582,1.481795,0.1709826,-0.3646221,1.267529,0.2817992,286.5586,308.3214,310.5813,True
5,3.299993,-0.1832272,-0.01193228,0.02328901,4.63926,1.477198,-1.942084,-0.009346724,1.297619,0.3473439,-0.5716012,0.2572186,13.28912,10.5421,0.01829034,-0.1328575,0.09568155,-0.2975188,-2.719856,-1.149137,0.0946717,1.437269,0.2745256,-0.09957049,0.01093255,-0.2041723,-1.029384,0.6458126,-0.1039615,0.2686424,1.481847,0.1711049,-0.3641109,1.267862,0.2817842,286.6231,308.212,310.687,True
5,3.311104,-0.180027,-0.01520414,0.008399229,4.639579,1.477061,-1.940274,-0.008708388,1.298116,0.347542,-0.569362,0.2004779,13.28912,9.277906,0.03661676,-0.1296516,0.136068,-0.2951059,-2.712526,-1.157003,0.09567407,1.437576,0.2745886,-0.09314382,0.03649348,-0.1989102,-1.031582,0.6468633,-0.1036875,0.2697795,1.481846,0.1712725,-0.3635962,1.268265,0.2818571,286.6249,308.1207,310.812,True
5,3.322215,-0.1800218,-0.01841767,0.00522106,4.639886,1.47711,-1.938282,-0.008122593,1.298604,0.3478246,-0.5663606,0.270728,13.2626,8.463681,0.04102841,-0.1136888,0.1690845,-0.2933269,-2.703957,-1.165774,0.09652993,1.437715,0.2746494,-0.08764465,0.04714713,-0.178714,-1.032858,0.6476337,-0.1032153,0.2706966,1.481822,0.1714666,-0.3630452,1.268672,0.2820118,286.5554,308.076,310.8659,True
5,3.333326,-0.1863717,-0.03440676,0.007446725,4.640702,1.477682,-1.936019,-0.007655919,1.298983,0.3479211,-0.5632975,0.2758491,13.1565,8.163701,-0.002926618,-0.09991489,0.1288686,-0.2926793,-2.704718,-1.163419,0.09735489,1.437766,0.27475,-0.09916948,0.03968157,-0.1583625,-1.033866,0.6476781,-0.101823,0.2714655,1.481776,0.1716788,-0.362467,1.26901,0.2822741,286.4915,308.0178,310.9128,True
5,3.344437,-0.1959414,-0.0418792,0.008559655,4.641342,1.47804,-1.933477,-0.007152081,1.299421,0.3481536,-0.5605315,0.2491161,13.02387,8.056565,-0.007192329,-0.09033783,0.1321009,-0.2914478,-2.700683,-1.167078,0.09816977,1.437857,0.2748985,-0.09797765,0.02586923,-0.1466592,-1.03529,0.6478804,-0.1010656,0.2723963,1.481506,0.171643,-0.3619094,1.269283,0.2826485,286.5124,307.951,310.9908,True
5,3.355548,-0.1959414,-0.0418792,0.008559655,4.641342,1.47804,-1.933477,-0.007152081,1.299421,0.3481536,-0.5580755,0.2212242,12.89124,8.056565,-0.007192329,-0.09033783,0.1321009,-0.2914478,-2.700683,-1.167078,0.09816977,1.437857,0.2748985,-0.09797765,0.02586923,-0.1466592,-1.03529,0.6478804,-0.1010656,0.2723963,1.481506,0.171643,-0.3614212,1.269528,0.2830904,286.5661,307.8592,311.17,True
5,3.366659,-0.229962,-0.07070181,0.009820472,4.643219,1.479176,-1.927364,-0.006247014,1.300095,0.3486562,-0.5583349,-0.02659534,12.75862,8.142276,0.02779904,-0.09766965,0.1031348,-0.2887516,-2.6985,-1.170701,0.09971023,1.437972,0.2751977,-0.03047292,0.01740199,-0.1057333,-1.036519,0.6482344,-0.102634,0.2740958,1.481342,0.1719112,-0.3611223,1.269781,0.2834913,286.5704,307.8528,311.3447,True
5,3.37777,-0.2310554,-0.06332754,-0.004072873,4.643895,1.478788,-1.924818,-0.005911976,1.300565,0.3487782,-0.5514166,0.631927,12.62599,8.227983,0.02556308,-0.1136282,0.07756542,-0.2872176,-2.700551,-1.168913,0.1004359,1.438128,0.2753804,0.01552647,0.02700569,-0.08484688,-1.036802,0.648854,-0.1047791,0.2749596,1.481474,0.1720259,-0.3609312,1.269948,0.2837752,286.5149,307.9986,311.2976,True
5,3.388881,-0.2182718,-0.07088583,-0.02750927,4.645396,1.477707,-1.922906,-0.005154431,1.301325,0.3488774,-0.552125,-0.07100806,12.59947,7.928005,0.01276152,-0.1424079,0.06270164,-0.2847936,-2.703306,-1.165939,0.1012699,1.438361,0.2754226,0.02421357,0.03980778,-0.06680919,-1.036965,0.6500803,-0.1059174,0.2758215,1.481444,0.1722713,-0.3605194,1.270282,0.2839376,286.6964,307.1433,312.1249,True
5,3.399992,-0.1916225,-0.08367343,-0.04131511,4.647006,1.477281,-1.9216,-0.004579872,1.301841,0.3490269,-0.551865,0.02433317,12.57294,7.370901,-0.004247949,-0.1318062,0.07346397,-0.2833763,-2.700742,-1.167844,0.1019313,1.43862,0.2753792,-0.003395862,0.03023404,-0.05803353,-1.037394,0.6504382,-0.1051887,0.2766221,1.481403,0.1724088,-0.3601175,1.270961,0.2840426,286.7543,306.5805,312.6361,True
5,3.411103,-0.1713497,-0.09431772,-0.04551238,4.648512,1.477466,-1.920409,-0.00409779,1.302228,0.3492606,-0.551554,0.02756274,12.57294,6.599526,-0.006191224,-0.1148069,0.11398,-0.2816202,-2.692976,-1.175155,0.102832,1.438777,0.275367,-0.03951422,0.03553129,-0.04598849,-1.037614,0.650862,-0.1037043,0.2775092,1.481458,0.172549,-0.3597554,1.271991,0.2841603,286.6959,306.4099,312.7431,True
