loc,t,aDotS,bDotS,gDotS,aS,bS,gS,xS,yS,zS,qE,qDotE,emgA,emgB,aDotSH,bDotSH,gDotSH,aSH,bSH,gSH,xSH,ySH,zSH,aDotUB,bDotUB,gDotUB,aUB,bUB,gUB,xUB,yUB,zUB,xHand,yHand,zHand,aHand,bHand,gHand,enable
2,0,-0.0004705582,-0.1478318,0.2280396,-1.462736,-4.653121,-2.623775,0.3630391,1.238446,0.5096405,-1.152257,0.02116037,11.85676,13.00621,-0.2368642,0.1657287,-0.03641482,-0.4625218,-3.526147,-0.5554467,0.3963634,1.436114,0.4450545,-0.02127208,0.201517,0.05311805,-1.129642,0.4654213,-0.1161759,0.5650038,1.491723,0.3032961,0.06204613,1.151081,0.4109075,288.8421,263.6649,349.4169,True
2,0.01111111,0.005903913,-0.1468023,0.2205871,-1.463876,-4.650065,-2.624635,0.3619701,1.237552,0.507549,-1.153868,-0.1472714,11.64456,12.9205,-0.2283028,0.1604282,-0.03328448,-0.4636404,-3.523497,-0.5555553,0.3954051,1.436001,0.4445298,-0.02648158,0.2121571,0.06490034,-1.128736,0.4684811,-0.1170225,0.5642357,1.491943,0.3030825,0.06105282,1.150774,0.4089961,288.9839,263.9282,349.0186,True
2,0.02222222,0.01861596,-0.1340355,0.2077113,-1.465026,-4.648208,-2.625492,0.3609356,1.237321,0.5067441,-1.154293,-0.03729121,11.51194,12.85623,-0.2229319,0.1487257,-0.03226927,-0.4645943,-3.521497,-0.5550366,0.3943487,1.435936,0.4439917,-0.04338097,0.2046895,0.07997303,-1.127585,0.4708723,-0.1169778,0.5634568,1.492067,0.3028622,0.060133,1.150409,0.4067956,289.0898,263.9463,348.7558,True
2,0.03333334,0.03133324,-0.1212499,0.1990986,-1.466281,-4.646399,-2.626416,0.3600171,1.236952,0.505728,-1.154988,-0.0632982,11.43236,12.8348,-0.2218327,0.1455251,-0.02801289,-0.4654662,-3.518789,-0.5549367,0.393205,1.435919,0.4434466,-0.05593929,0.1865516,0.1035049,-1.125959,0.4726303,-0.1167402,0.5626981,1.492093,0.3025804,0.05931572,1.150016,0.4044316,289.1098,263.8825,348.5666,True
2,0.04444445,0.04621176,-0.1127269,0.1926323,-1.467264,-4.644372,-2.627764,0.3590278,1.23653,0.5043161,-1.15533,-0.03060739,11.35279,12.89908,-0.2132838,0.1412956,-0.02701321,-0.4664916,-3.516234,-0.5551865,0.3921548,1.435868,0.442843,-0.06423028,0.1694847,0.1280668,-1.123924,0.4743921,-0.1164659,0.5619406,1.492216,0.3022857,0.05859104,1.149507,0.4018492,289.0434,263.8755,348.3733,True
2,0.05555556,0.05256851,-0.1084919,0.1830098,-1.468235,-4.642591,-2.628741,0.3581594,1.236147,0.503315,-1.155523,-0.01740953,11.24668,13.00621,-0.2058356,0.1466444,-0.02599889,-0.4676745,-3.513077,-0.555995,0.3911058,1.435758,0.4422762,-0.07263021,0.1620173,0.1409279,-1.122154,0.4764249,-0.1162925,0.5611153,1.492329,0.3021269,0.05800836,1.148923,0.3992924,289.1079,263.6854,348.092,True
2,0.06666667,0.07063474,-0.1010456,0.1712377,-1.46918,-4.640684,-2.630472,0.3572848,1.235343,0.5013611,-1.155995,-0.04296967,11.16711,13.13477,-0.2016384,0.159444,-0.02921512,-0.4692229,-3.509338,-0.5572353,0.3900726,1.43557,0.4416511,-0.07361649,0.157749,0.149457,-1.120381,0.4784754,-0.1162845,0.5603661,1.492454,0.301815,0.05748821,1.148293,0.3969314,289.2047,263.5771,347.7935,True
2,0.07777778,0.1026076,-0.1116461,0.1584458,-1.469574,-4.638654,-2.632891,0.3564998,1.234962,0.5003841,-1.155728,0.02477056,11.16711,13.26334,-0.1963731,0.1669164,-0.03350224,-0.4706663,-3.506008,-0.5580952,0.3890332,1.435353,0.4410365,-0.07141075,0.1556043,0.1579548,-1.118577,0.480556,-0.1164326,0.5596691,1.492658,0.301687,0.0569529,1.147612,0.3947941,289.2802,263.5269,347.6021,True
2,0.08888889,0.1367569,-0.1361573,0.1372363,-1.46935,-4.635529,-2.636055,0.3558025,1.234271,0.4987874,-1.156438,-0.06517413,11.19363,13.3919,-0.191114,0.1807846,-0.03672563,-0.4724203,-3.501999,-0.5597088,0.3879802,1.435145,0.4404349,-0.06287225,0.1524046,0.1599911,-1.117014,0.4825274,-0.1168829,0.558968,1.492779,0.3014171,0.05639913,1.146876,0.392892,289.3201,263.6093,347.4421,True
2,0.1,0.1463493,-0.1436394,0.1255378,-1.469329,-4.633423,-2.638223,0.3551201,1.233864,0.4978199,-1.157143,-0.06395163,11.19363,13.47761,-0.1838806,0.2042608,-0.05699681,-0.4751314,-3.497871,-0.5615677,0.3869717,1.434959,0.4398203,-0.05429834,0.153451,0.1652236,-1.11536,0.4845232,-0.1174393,0.5582945,1.492897,0.3010082,0.05584449,1.146014,0.391076,289.3123,263.7735,347.3423,True
2,0.1111111,0.1537669,-0.13944,0.112721,-1.469239,-4.631558,-2.64037,0.3547322,1.233518,0.4966671,-1.157712,-0.05161228,11.19363,13.58474,-0.1829664,0.2287752,-0.0665677,-0.4777274,-3.492914,-0.5639331,0.3858773,1.435074,0.4392633,-0.04893477,0.1566323,0.1694376,-1.113531,0.4867459,-0.1179874,0.5575258,1.493065,0.3007631,0.05547104,1.144997,0.3893517,289.3438,263.761,347.3326,True
2,0.1222222,0.1643929,-0.1330647,0.106299,-1.469584,-4.629523,-2.642913,0.3541656,1.232773,0.4951928,-1.156714,0.09154697,11.11406,13.69188,-0.1788157,0.2437099,-0.07510848,-0.4804204,-3.488292,-0.5661902,0.3848943,1.434985,0.4386771,-0.04574353,0.1491696,0.1693954,-1.11185,0.4884641,-0.118329,0.5567873,1.493155,0.3004088,0.05530067,1.143734,0.3876141,289.3976,263.6526,347.4064,True
2,0.1333333,0.1846334,-0.1329903,0.1062594,-1.469906,-4.627675,-2.645839,0.3535972,1.232369,0.4942596,-1.156483,0.02020626,11.03448,13.79901,-0.1596122,0.2522863,-0.06885857,-0.4825403,-3.48348,-0.569415,0.3840365,1.434945,0.4382343,-0.04049139,0.1342622,0.161862,-1.110546,0.4897363,-0.118688,0.5560605,1.493331,0.3000393,0.05525311,1.142282,0.3859212,289.6297,263.4991,347.3897,True
2,0.1444445,0.2357682,-0.1338953,0.1040671,-1.470301,-4.625282,-2.650501,0.3531719,1.231767,0.4929526,-1.156773,-0.02663285,10.92838,13.90615,-0.1103269,0.2193953,-0.04476145,-0.4830314,-3.480872,-0.5721413,0.3831616,1.434855,0.4377019,-0.0320308,0.1172141,0.1564313,-1.109082,0.4906749,-0.1189906,0.5552125,1.493457,0.2996204,0.0552901,1.140746,0.3842938,289.9167,263.41,347.3752,True
2,0.1555556,0.2517021,-0.1242766,0.09866045,-1.470611,-4.623918,-2.653943,0.3527099,1.231369,0.492064,-1.157112,-0.03082964,10.79576,14.01328,-0.05988383,0.1534755,-0.02389323,-0.4823198,-3.481719,-0.5725783,0.3822016,1.434855,0.4372292,-0.02353857,0.1108228,0.1542096,-1.107602,0.492062,-0.1195621,0.5544568,1.493639,0.2992001,0.05525426,1.13915,0.3826631,290.1672,263.4144,347.3219,True
2,0.1666667,0.2654883,-0.1125382,0.09432068,-1.47101,-4.62261,-2.657194,0.352487,1.231092,0.4912729,-1.158652,-0.1406817,10.66313,14.07757,-0.04372498,0.1066467,-0.01979209,-0.4822148,-3.482505,-0.5718992,0.3811734,1.434766,0.4367228,-0.02650389,0.09375124,0.1787166,-1.10493,0.4929592,-0.1194992,0.553673,1.493758,0.2987547,0.05522216,1.137554,0.3810559,290.4226,263.4032,347.2442,True
2,0.1777778,0.2771509,-0.1040388,0.08147097,-1.471012,-4.621663,-2.660755,0.3521397,1.230726,0.4904008,-1.157465,0.1095625,10.58355,14.12042,-0.07384424,0.1374536,-0.04725019,-0.4847347,-3.480107,-0.5723655,0.3801164,1.434605,0.4361725,-0.05171676,0.06495348,0.2162177,-1.101287,0.4931642,-0.1181498,0.5528445,1.493923,0.29848,0.05533241,1.135909,0.3794514,290.5995,263.3837,347.1732,True
2,0.1888889,0.2824174,-0.09882399,0.05695418,-1.470558,-4.620707,-2.664168,0.3518992,1.230412,0.4895444,-1.156924,0.04820644,10.58355,14.14185,-0.09986506,0.2098415,-0.07682014,-0.4888594,-3.473502,-0.5761304,0.3792005,1.43444,0.4355938,-0.072648,0.06597857,0.2547678,-1.097485,0.4944798,-0.1171924,0.5520833,1.493993,0.2981455,0.05551967,1.134224,0.3779399,290.8653,263.3022,347.0492,True
2,0.2,0.281306,-0.0978779,0.03457986,-1.469725,-4.619955,-2.667335,0.351695,1.230345,0.4887581,-1.157087,-0.01534177,10.6366,14.12042,-0.1122844,0.3536167,-0.1107208,-0.4955738,-3.461496,-0.5850754,0.3783278,1.434447,0.4349995,-0.08604138,0.09574798,0.3007427,-1.09292,0.4973499,-0.1170776,0.5511591,1.494154,0.2978716,0.05578082,1.132583,0.376613,291.1856,263.1974,346.9519,True
2,0.2111111,0.2557071,-0.09810015,0.01228584,-1.468862,-4.618769,-2.66957,0.3513486,1.230358,0.4878519,-1.15684,0.02269365,10.76923,14.09899,-0.1050566,0.4154322,-0.1149808,-0.5004032,-3.451379,-0.5930948,0.3776798,1.434463,0.4344678,-0.05846998,0.1404933,0.2866766,-1.090568,0.5011622,-0.119047,0.5503642,1.494367,0.2975121,0.05599226,1.131009,0.3755025,291.4597,263.0736,346.9609,True
2,0.2222222,0.2087424,-0.08668643,-0.01110872,-1.467898,-4.618373,-2.670374,0.3511803,1.23096,0.4876971,-1.156482,0.03242452,10.87533,14.03471,-0.06617683,0.3813874,-0.05885798,-0.5008399,-3.445701,-0.5987271,0.3772554,1.43486,0.4340866,-0.02263476,0.114947,0.2490092,-1.089052,0.5016912,-0.1201751,0.5495694,1.494566,0.2971754,0.05618763,1.129522,0.3746129,291.7171,262.9411,347.0581,True
2,0.2333333,0.1297642,-0.06155518,-0.03985472,-1.466702,-4.619123,-2.669173,0.35098,1.231381,0.4870498,-1.155431,0.09591369,10.92838,13.92758,-0.02952689,0.3196766,-0.02829611,-0.5010471,-3.442755,-0.602292,0.3767568,1.435174,0.4336469,-0.03741178,0.04688253,0.1574565,-1.089965,0.4996354,-0.1183003,0.5488876,1.494611,0.2967687,0.05633651,1.128174,0.3739166,291.9993,262.8176,347.2157,True
2,0.2444444,0.06037057,-0.03099502,-0.05585229,-1.466168,-4.620107,-2.667405,0.3506458,1.232029,0.487143,-1.154046,0.1258268,10.92838,13.82044,0.05635652,0.1952856,0.007190928,-0.4989448,-3.444822,-0.603961,0.3763785,1.435544,0.4336019,-0.07555746,0.003316432,0.07148919,-1.091706,0.4978722,-0.115403,0.5481847,1.494724,0.2963707,0.05638624,1.127065,0.3733482,292.3576,262.6676,347.3821,True
2,0.2555556,-0.06021552,0.01210643,-0.08248377,-1.465279,-4.622435,-2.662266,0.3502243,1.232724,0.4866831,-1.152269,0.161677,10.82228,13.69188,0.1724373,0.08064482,-0.04807803,-0.4992026,-3.451938,-0.6034571,0.3763419,1.436003,0.4335644,-0.07577202,-0.008374862,0.0501717,-1.091677,0.4974395,-0.1143708,0.5475461,1.494827,0.2959361,0.05635688,1.12641,0.3729882,292.7676,262.4369,347.5441,True
2,0.2666667,-0.1967971,0.05620304,-0.1122736,-1.464456,-4.625099,-2.655272,0.3496315,1.233776,0.4871101,-1.151956,0.02757382,10.66313,13.56331,0.1872236,0.05941296,-0.07483886,-0.5008761,-3.453537,-0.6044689,0.3759632,1.43622,0.4334545,-0.04402208,-0.02647191,0.02959772,-1.091776,0.4965065,-0.1146163,0.5469187,1.494973,0.2955124,0.05603144,1.12638,0.3728576,293.0815,262.2225,347.713,True
2,0.2777778,-0.3472979,0.1193996,-0.1464113,-1.463643,-4.62946,-2.645898,0.3487875,1.234799,0.4867942,-1.149291,0.2440152,10.5305,13.43475,0.1882105,0.002983168,-0.1100404,-0.5020165,-3.459542,-0.6013181,0.3762146,1.436746,0.4334271,-0.02829521,-0.06799424,0.004889846,-1.092264,0.4941018,-0.113738,0.5463598,1.495145,0.2950559,0.05535053,1.127115,0.3730376,293.21,262.1203,347.796,True
2,0.2888889,-0.5042199,0.1847766,-0.1974914,-1.464863,-4.634992,-2.634764,0.3484175,1.241292,0.5025895,-1.147962,0.1200142,10.4244,13.30619,0.1799792,-0.009844914,-0.07589698,-0.5014498,-3.459413,-0.6030446,0.3762692,1.437169,0.433316,-0.01572964,-0.1159137,-0.01553137,-1.092813,0.4906832,-0.1124309,0.5458171,1.495247,0.2946038,0.05413701,1.128736,0.3735097,293.2125,262.0636,347.9228,True
2,0.3,-0.6130924,0.2268292,-0.2305336,-1.463601,-4.640277,-2.623684,0.3474131,1.242693,0.5028763,-1.146645,0.1202629,10.37135,13.1562,0.1633083,0.0145596,-0.01503223,-0.500441,-3.455424,-0.6077648,0.3767955,1.437889,0.4333563,0.004742965,-0.2095734,-0.09680913,-1.095874,0.4842558,-0.1101396,0.5453755,1.495272,0.2942042,0.05235691,1.131408,0.3743409,293.0536,261.991,348.0907,True
2,0.3111111,-0.8318523,0.3002745,-0.2944314,-1.462008,-4.647468,-2.607019,0.3463035,1.244441,0.5033269,-1.146012,0.05783523,10.39788,13.04907,0.19603,-0.04293734,0.06244652,-0.4964521,-3.456191,-0.6104226,0.3774576,1.438782,0.4335983,0.02037649,-0.2446917,-0.1310979,-1.098042,0.4797321,-0.1088535,0.5449607,1.495311,0.2937589,0.05060193,1.135492,0.3762035,293.2997,260.2776,348.0951,True
2,0.3222222,-0.9459975,0.3231277,-0.3273745,-1.460144,-4.653601,-2.592243,0.3455077,1.246325,0.5036228,-1.147171,-0.1054813,10.47745,12.98479,0.253313,-0.1621137,0.1226678,-0.4904339,-3.462077,-0.6098983,0.378334,1.439728,0.4337778,0.04657142,-0.2925935,-0.174027,-1.100746,0.4739564,-0.1076255,0.5446915,1.495337,0.2932296,0.04923332,1.141887,0.381588,293.609,258.4767,347.1866,True
2,0.3333333,-1.111372,0.3680786,-0.3752612,-1.457997,-4.661486,-2.573634,0.3441925,1.248321,0.5038371,-1.143193,0.3654665,10.55703,12.98479,0.3170769,-0.2908638,0.1892155,-0.4829366,-3.469916,-0.6086434,0.3792747,1.440828,0.4340234,0.05544907,-0.3415172,-0.2444851,-1.105251,0.467369,-0.1055943,0.5444159,1.495384,0.2926576,0.0462429,1.149881,0.3891457,292.2422,259.7472,347.4696,True
2,0.3444445,-1.216981,0.402724,-0.3986783,-1.456743,-4.66865,-2.556373,0.3429288,1.250466,0.5042486,-1.145891,-0.2489322,10.6366,13.02764,0.3634388,-0.3993898,0.2175564,-0.4759314,-3.479432,-0.6056542,0.3800983,1.441874,0.4342275,0.05275944,-0.3766129,-0.2999021,-1.109739,0.4608833,-0.1031293,0.5442066,1.495457,0.2920911,0.04211989,1.158911,0.3972317,290.2476,261.9543,348.6361,True
2,0.3555556,-1.395248,0.4763773,-0.4509436,-1.45541,-4.678877,-2.533927,0.3413052,1.252977,0.5047097,-1.144026,0.1740727,10.6366,13.09192,0.4187553,-0.5782187,0.2734921,-0.4651083,-3.495361,-0.5979297,0.381237,1.443238,0.4343035,0.05351046,-0.397879,-0.3308284,-1.113842,0.4548402,-0.101068,0.5439699,1.495496,0.2914233,0.0379214,1.168435,0.4044068,288.1009,263.8221,349.8986,True
2,0.3666667,-1.4721,0.5058059,-0.4754573,-1.454172,-4.687582,-2.514643,0.3398886,1.255346,0.505199,-1.146409,-0.2186244,10.58355,13.02764,0.4306819,-0.6080186,0.2893626,-0.457922,-3.504393,-0.5947819,0.3820641,1.444333,0.4344394,0.05725965,-0.4478966,-0.3809982,-1.119014,0.4467854,-0.09829355,0.5438469,1.495543,0.2908306,0.03380902,1.178069,0.409872,286.2716,264.9877,350.7037,True
2,0.3777778,-1.555359,0.5244042,-0.5297341,-1.451843,-4.697396,-2.493419,0.3380303,1.258254,0.5059295,-1.143253,0.291542,10.50398,12.8348,0.4219198,-0.6358148,0.3884892,-0.4470393,-3.509696,-0.5944045,0.3832067,1.445773,0.4343283,0.0314981,-0.467038,-0.3999446,-1.123554,0.4398595,-0.09477764,0.5436965,1.495623,0.2901924,0.03009709,1.187599,0.4134641,284.7032,265.3765,351.1305,True
2,0.3888889,-1.616143,0.5303755,-0.5680009,-1.449559,-4.706321,-2.472825,0.3362967,1.261166,0.5065999,-1.147217,-0.3641594,10.45093,12.47054,0.3861799,-0.5973213,0.464275,-0.4387409,-3.512717,-0.595327,0.3842182,1.447081,0.4343452,0.04760972,-0.4787805,-0.3862736,-1.126781,0.43325,-0.09301995,0.5435396,1.495635,0.2895658,0.02647066,1.197083,0.4154898,283.489,264.8718,351.657,True
2,0.4,-1.7058,0.5575418,-0.6073991,-1.447603,1.566192,-2.44957,0.3344592,1.264294,0.5072064,-1.147134,0.01186224,10.4244,11.97771,0.3619122,-0.5785671,0.5104135,-0.4289623,-3.51175,-0.5987031,0.3852835,1.448532,0.4341438,0.05164596,-0.4968677,-0.4087106,-1.131537,0.4259673,-0.09065107,0.543355,1.495629,0.2890513,0.02321542,1.206535,0.4164249,282.2675,263.4993,352.6414,True
2,0.4111111,-1.813696,0.6122651,-0.6682056,-1.445874,1.553346,-2.424581,0.3327722,1.267937,0.508086,-1.148669,-0.1400696,10.45093,11.50632,0.3433812,-0.6106556,0.5840241,-0.4172918,-3.515943,-0.5980411,0.3864764,1.449872,0.4339373,0.05473638,-0.5065544,-0.3873945,-1.135136,0.4193007,-0.08836688,0.5432061,1.495675,0.2883945,0.02002941,1.216003,0.4168307,281.1471,261.1523,354.3951,True
2,0.4222222,-1.853201,0.6161735,-0.7097043,-1.443633,1.542009,-2.401371,0.3308566,1.271257,0.5089912,-1.147422,0.1159758,10.47745,11.07778,0.3388133,-0.6480253,0.6703247,-0.4041523,-3.519238,-0.5986328,0.3875069,1.451286,0.433598,0.05297571,-0.5182028,-0.3810422,-1.138005,0.4121481,-0.08603369,0.542999,1.495625,0.2877579,0.01696605,1.225537,0.4172211,280.044,258.2057,356.7839,True
2,0.4333333,-1.904395,0.5975512,-0.7755739,-1.439857,1.530167,-2.377177,0.3289734,1.274737,0.5101147,-1.146863,0.05084131,10.50398,10.67066,0.3468867,-0.6704417,0.7437432,-0.3909116,-3.521353,-0.6007758,0.3882915,1.452555,0.4333725,0.05406442,-0.5267287,-0.3778628,-1.14152,0.4050585,-0.08365415,0.5428835,1.495637,0.2871027,0.01378498,1.23533,0.4180873,279.1044,254.8881,359.6437,True
2,0.4444444,-1.923543,0.5781204,-0.8148911,-1.436494,1.519068,-2.354303,0.3271013,1.278052,0.5111899,-1.149466,-0.2375887,10.50398,10.37069,0.3523076,-0.6459547,0.7671586,-0.3798184,-3.521351,-0.604786,0.3892269,1.453846,0.4330404,0.03379709,-0.518199,-0.3808503,-1.145386,0.398684,-0.08074278,0.5428641,1.495562,0.2864144,0.01048333,1.245686,0.4199048,278.2442,250.929,3.362028,True
2,0.4555556,-1.909639,0.5224833,-0.8795321,-1.431023,1.507692,-2.331867,0.3249815,1.28182,0.512568,-1.149764,-0.02464073,10.4244,10.26355,0.3413227,-0.5628993,0.7587706,-0.3712367,-3.516354,-0.6127582,0.3898022,1.45512,0.432822,-0.02051583,-0.5213737,-0.3781869,-1.149005,0.3919471,-0.07601833,0.5427368,1.495495,0.2858112,0.007278804,1.256603,0.4228402,277.1302,245.365,9.09826,True
2,0.4666667,-1.909626,0.509568,-0.9072008,-1.427597,1.495876,-2.309082,0.3233286,1.285334,0.5137861,-1.151748,-0.1809394,10.34483,10.37069,0.3207615,-0.5086175,0.7387245,-0.3628775,-3.512773,-0.6189522,0.3903748,1.456397,0.4325459,-0.07066453,-0.5181514,-0.3862075,-1.153102,0.3853374,-0.07095886,0.5425636,1.495476,0.2851954,0.004321456,1.267948,0.426851,275.8979,237.0724,17.95148,True
2,0.4777778,-1.91925,0.5104908,-0.9274409,-1.42448,1.483664,-2.28545,0.3215445,1.289115,0.5151157,-1.153056,-0.1175001,10.26525,10.64924,0.2863355,-0.4309586,0.7273134,-0.3553483,-3.50544,-0.6277031,0.3907847,1.457663,0.4323864,-0.1314977,-0.5042648,-0.3983808,-1.157658,0.3793071,-0.06526955,0.5424643,1.495425,0.2846923,0.001708289,1.279493,0.4316911,274.6972,224.174,31.73305,True
2,0.4888889,-1.912926,0.5210551,-0.9488145,-1.422056,1.470956,-2.262339,0.3197177,1.29292,0.5165014,-1.153332,-0.02427894,10.23872,11.05635,0.2915754,-0.4096283,0.72516,-0.3464453,-3.500981,-0.6353751,0.3913039,1.4589,0.4321101,-0.1485465,-0.4893432,-0.3992611,-1.161851,0.3735996,-0.06072833,0.5422869,1.495435,0.2841518,-0.0006330721,1.29101,0.4370667,273.9187,204.314,52.62263,True
2,0.5,-1.889552,0.5071961,-0.9765165,-1.418337,1.457563,-2.239572,0.3183933,1.297046,0.5180545,-1.152966,0.03406695,10.26525,11.42061,0.3118442,-0.3989477,0.7335443,-0.3371413,-3.495845,-0.6443406,0.392113,1.460138,0.4317439,-0.1292347,-0.4627323,-0.3866345,-1.165333,0.3688232,-0.0582428,0.5421247,1.495528,0.2835789,-0.002606429,1.302323,0.4426773,273.688,181.3595,76.67012,True
2,0.5111111,-1.879946,0.4954478,-0.9892567,-1.415441,1.445504,-2.2175,0.3166668,1.30067,0.5194778,-1.153881,-0.08369201,10.37135,11.76344,0.3305218,-0.4447396,0.7908982,-0.3249701,-3.491871,-0.652304,0.3924216,1.461205,0.4314885,-0.08425388,-0.4467941,-0.3636248,-1.168299,0.3639186,-0.0569517,0.5418871,1.495489,0.2831564,-0.004467142,1.313476,0.4482513,274.0031,161.9085,97.18067,True
2,0.5222223,-1.868136,0.4708978,-1.007275,-1.412086,1.433721,-2.1958,0.3147101,1.304124,0.5209708,-1.154741,-0.07776515,10.5305,12.08485,0.3312026,-0.4842275,0.865433,-0.3114823,-3.485337,-0.6621753,0.3927632,1.462235,0.4312453,-0.05730659,-0.4404427,-0.3319166,-1.170582,0.3587866,-0.05519002,0.5416149,1.495445,0.2827101,-0.006180758,1.324485,0.4536044,274.6985,148.5206,111.5075,True
2,0.5333334,-1.850004,0.4570377,-1.022151,-1.40905,1.421335,-2.174019,0.3129512,1.307553,0.5225537,-1.155516,-0.07026605,10.74271,12.40626,0.3110757,-0.50027,0.8740931,-0.3001207,-3.480716,-0.6693045,0.3930165,1.463242,0.4310122,-0.07392734,-0.4127839,-0.290177,-1.172312,0.3547084,-0.05229649,0.5413072,1.49535,0.2822995,-0.007561776,1.335314,0.4586504,275.6716,140.0591,120.77,True
2,0.5444446,-1.833975,0.4538891,-1.028583,-1.406723,1.409042,-2.152723,0.3112175,1.310915,0.5239704,-1.156032,-0.04655218,10.95491,12.72766,0.2756791,-0.5078132,0.838131,-0.2903123,-3.479409,-0.6723976,0.393198,1.464269,0.4308221,-0.1045747,-0.3787072,-0.2663936,-1.174311,0.351343,-0.04880216,0.541066,1.495288,0.2818704,-0.00878766,1.345914,0.463284,276.8323,133.2533,128.3094,True
2,0.5555557,-1.796682,0.4518897,-1.02864,-1.404663,1.39669,-2.132152,0.3095496,1.314242,0.5255301,-1.156143,-0.009794294,11.11406,13.04907,0.257321,-0.5014416,0.8073864,-0.2809379,-3.476422,-0.6774895,0.393283,1.465337,0.4305737,-0.1607238,-0.3307827,-0.2370272,-1.175927,0.3490492,-0.04432485,0.5407221,1.495232,0.2814989,-0.00997885,1.356171,0.467445,278.12,128.5098,133.6596,True
2,0.5666668,-1.740226,0.4724453,-1.009704,-1.404063,1.384212,-2.112563,0.3081839,1.317548,0.5268445,-1.156624,-0.04397258,11.27321,13.34904,0.2466966,-0.4695386,0.825605,-0.2705543,-3.465135,-0.6907281,0.3933251,1.466448,0.4304366,-0.1882569,-0.2977695,-0.2217945,-1.177787,0.3464397,-0.04036527,0.5404029,1.495219,0.2811975,-0.01109495,1.366022,0.4712023,279.3671,125.8222,136.7913,True
2,0.577778,-1.672091,0.5069455,-0.9748521,-1.404856,1.372152,-2.093885,0.3070247,1.320924,0.5280943,-1.157355,-0.06652769,11.35279,13.6276,0.2497919,-0.406666,0.8373604,-0.2614143,-3.447116,-0.7110845,0.393262,1.467564,0.4301858,-0.1883839,-0.2743194,-0.2356192,-1.180883,0.3436674,-0.0372523,0.5399681,1.495143,0.2808599,-0.01211418,1.375491,0.4746715,280.5121,124.2984,138.6589,True
2,0.5888891,-1.626306,0.5253362,-0.9515886,-1.405662,1.360119,-2.075238,0.3057563,1.324279,0.5294521,-1.158276,-0.0837113,11.40584,13.86329,0.2487293,-0.3502345,0.8629831,-0.2521651,-3.425206,-0.7349257,0.3933879,1.468731,0.4300532,-0.1884433,-0.2647243,-0.2419973,-1.18372,0.3406194,-0.03404079,0.5394307,1.495075,0.2806633,-0.01296406,1.384615,0.4780064,281.5577,123.3785,139.8659,True
2,0.6000003,-1.559214,0.5459592,-0.9230479,-1.407229,1.34867,-2.05869,0.3047746,1.327407,0.5306749,-1.158941,-0.06026313,11.45889,14.09899,0.2491562,-0.3193872,0.9343882,-0.2411141,-3.396542,-0.7653315,0.3934981,1.46988,0.4299145,-0.1831376,-0.256201,-0.2452434,-1.186511,0.3377666,-0.03120133,0.538982,1.495016,0.2805388,-0.01351508,1.393442,0.4813363,282.4682,122.549,141.0116,True
2,0.6111114,-1.505904,0.5580181,-0.8934061,-1.40869,1.337772,-2.042264,0.3041061,1.330389,0.5314105,-1.158688,0.02329612,11.48541,14.31326,0.2642328,-0.3353293,0.9502417,-0.2303975,-3.376997,-0.7877561,0.3936727,1.470863,0.4297786,-0.1575623,-0.2572755,-0.2444238,-1.188959,0.334613,-0.02920742,0.5384809,1.494995,0.2804098,-0.01379564,1.402081,0.4847581,283.3135,121.664,142.2724,True
2,0.6222225,-1.481384,0.5635386,-0.872171,-1.410458,1.326629,-2.024747,0.3031287,1.333441,0.5325761,-1.160245,-0.1428931,11.51194,14.4204,0.2975048,-0.3608118,0.9712732,-0.2189097,-3.355065,-0.8136937,0.3939626,1.471819,0.429703,-0.120282,-0.2807281,-0.2448187,-1.191569,0.3301958,-0.02765107,0.5380236,1.494974,0.280457,-0.01390288,1.410632,0.4883335,284.1752,120.8153,143.5682,True
2,0.6333337,-1.453767,0.5691446,-0.8369601,-1.413579,1.316244,-2.007221,0.302639,1.336121,0.5340452,-1.159974,0.02574355,11.51194,14.44182,0.3074439,-0.3948905,1.003132,-0.2065084,-3.330146,-0.8418902,0.3942171,1.472663,0.4296107,-0.102338,-0.3052163,-0.2609933,-1.194828,0.3255326,-0.02537247,0.537627,1.494942,0.2804148,-0.01363167,1.418939,0.4920197,285.0793,119.7201,145.246,True
2,0.6444448,-1.434578,0.574761,-0.7890171,-1.416829,1.306998,-1.990244,0.3017992,1.338912,0.5352316,-1.158402,0.1429693,11.48541,14.37754,0.3150659,-0.4044695,1.021174,-0.1951543,-3.300633,-0.8745168,0.3943627,1.473663,0.4296513,-0.1174027,-0.3094513,-0.2768282,-1.198319,0.3216762,-0.0221575,0.5372781,1.49482,0.2803421,-0.01305879,1.426949,0.4956915,285.9799,118.6974,146.9509,True
2,0.655556,-1.404656,0.5794409,-0.7304966,-1.420568,1.29856,-1.974352,0.3007711,1.341795,0.5368967,-1.157744,0.0587077,11.45889,14.27041,0.3099494,-0.435378,1.036104,-0.183104,-3.270065,-0.9078463,0.3945053,1.474635,0.4297047,-0.1462884,-0.305166,-0.2893218,-1.201872,0.3181142,-0.01824452,0.5368712,1.494666,0.2803574,-0.01246022,1.434826,0.499358,286.8369,117.9835,148.2151,True
2,0.6666671,-1.380039,0.5722437,-0.6932422,-1.423635,1.290236,-1.958718,0.2997591,1.34458,0.5380468,-1.157791,-0.004775214,11.45889,14.14185,0.2958235,-0.4481694,0.9967861,-0.1729047,-3.244849,-0.9354047,0.3946196,1.475547,0.429796,-0.1505224,-0.2891707,-0.2871315,-1.20492,0.3154213,-0.01550945,0.5364424,1.494516,0.2803342,-0.01169083,1.442586,0.5030321,287.6184,117.1992,149.4696,True
2,0.6777782,-1.324525,0.5661342,-0.6380342,-1.425541,1.283619,-1.944436,0.2987526,1.346868,0.5385506,-1.158488,-0.06377681,11.48541,13.97043,0.2942585,-0.4576839,0.9243515,-0.1641509,-3.225876,-0.9573563,0.394718,1.476425,0.4299865,-0.141903,-0.2721391,-0.2786753,-1.207677,0.3127374,-0.0133704,0.5360138,1.494418,0.2804744,-0.01095042,1.450403,0.5066485,288.3915,116.332,150.8495,True
2,0.6888894,-1.291472,0.5685188,-0.6114668,-1.429436,1.275538,-1.929817,0.2978851,1.349279,0.539567,-1.158493,-0.000105911,11.43236,13.79901,0.3034455,-0.5033919,0.8507534,-0.1541022,-3.212279,-0.9746237,0.3946781,1.477216,0.4301693,-0.1333726,-0.2700084,-0.2787511,-1.210702,0.3095374,-0.01111763,0.5355685,1.494284,0.2805684,-0.01028155,1.458274,0.510156,289.2332,115.4404,152.2571,True
2,0.7000005,-1.235002,0.579512,-0.5849925,-1.433852,1.268008,-1.917351,0.2970012,1.351365,0.5404813,-1.15923,-0.06778996,11.37931,13.6276,0.2902998,-0.5055284,0.8029075,-0.1454773,-3.192225,-0.9971253,0.3946725,1.477989,0.4303563,-0.1333722,-0.2689432,-0.2787499,-1.213701,0.3064084,-0.008577509,0.5351127,1.494168,0.2807727,-0.009526133,1.465973,0.5133634,290.1495,114.5645,153.8028,True
2,0.7111117,-1.166748,0.5756762,-0.5679882,-1.438601,1.260376,-1.905819,0.296497,1.353935,0.5421143,-1.158804,0.03922569,11.27321,13.49904,0.2579093,-0.475764,0.7573619,-0.1381099,-3.166212,-1.024684,0.3945727,1.478753,0.430582,-0.1481815,-0.2572405,-0.2689961,-1.216271,0.3036345,-0.005498629,0.5346245,1.494029,0.2810454,-0.008570922,1.47319,0.5160013,291.1257,113.8155,155.1998,True
2,0.7222228,-1.095239,0.5579686,-0.5414099,-1.442299,1.253576,-1.895118,0.2959056,1.356137,0.5430055,-1.16038,-0.1446763,11.22016,13.47761,0.2364256,-0.4641074,0.7415516,-0.1299005,-3.133713,-1.058772,0.3945185,1.479604,0.4307618,-0.1586808,-0.2327673,-0.2550015,-1.218494,0.3015295,-0.002733469,0.5340983,1.493895,0.2814066,-0.007590653,1.479993,0.5181982,292.0208,113.3218,155.9951,True
2,0.7333339,-1.032239,0.5362542,-0.5049744,-1.448311,1.247427,-1.88547,0.2952532,1.358418,0.5449798,-1.160965,-0.05257203,11.22016,13.60617,0.1786662,-0.4195383,0.7281557,-0.1235653,-3.093028,-1.099087,0.3944012,1.480377,0.4310293,-0.1672078,-0.2018711,-0.255946,-1.221374,0.3002217,-0.0001161138,0.5335836,1.493782,0.2817435,-0.006598013,1.486343,0.5201882,292.8485,113.0002,156.333,True
2,0.7444451,-0.9905452,0.5109432,-0.4836417,-1.451455,1.24144,-1.87516,0.2946628,1.360555,0.5459855,-1.161101,-0.01253673,11.22016,13.86329,0.1709263,-0.3886629,0.7058688,-0.1173495,-3.051595,-1.141806,0.3943828,1.481149,0.4312055,-0.1682763,-0.1507308,-0.258017,-1.224421,0.3003433,0.001736647,0.5331399,1.49371,0.2821934,-0.005647322,1.492325,0.5223057,293.5439,112.8285,156.4449,True
2,0.7555562,-0.934972,0.4836863,-0.461192,-1.455463,1.235471,-1.866234,0.2940441,1.362582,0.546977,-1.161406,-0.02836024,11.24668,14.1847,0.1781999,-0.3587968,0.6930534,-0.1118235,-3.003559,-1.191808,0.3942574,1.481943,0.4313536,-0.1459793,-0.1272922,-0.2656629,-1.227605,0.2996538,0.002898585,0.5326567,1.493608,0.282604,-0.004755808,1.497918,0.5246549,294.1785,112.6517,156.695,True
2,0.7666674,-0.8986538,0.4700989,-0.4334933,-1.458901,1.230415,-1.856985,0.293306,1.364581,0.547941,-1.160118,0.1176991,11.35279,14.48468,0.2026206,-0.3427495,0.6875538,-0.1061131,-2.949146,-1.24902,0.3940682,1.482697,0.431567,-0.1205523,-0.1049151,-0.2807944,-1.231143,0.2991469,0.003540673,0.5321835,1.49347,0.2830529,-0.004015445,1.503213,0.5274254,294.7395,112.259,157.2358,True
2,0.7777785,-0.8495191,0.4556554,-0.3929733,-1.463365,1.225992,-1.848923,0.2925397,1.366416,0.5487485,-1.160745,-0.05888617,11.43236,14.78466,0.1939422,-0.3331748,0.6705803,-0.1008395,-2.894426,-1.305332,0.3938462,1.483472,0.4318037,-0.1346147,-0.0889121,-0.3030092,-1.235228,0.2985285,0.005750031,0.5317014,1.49333,0.2834647,-0.003356227,1.508149,0.5304307,295.1788,111.9433,158.0464,True
2,0.7888896,-0.8004116,0.4517603,-0.3525845,-1.467352,1.222114,-1.841368,0.2918065,1.368077,0.5496283,-1.159848,0.08225555,11.53846,15.08464,0.1713908,-0.3119397,0.6569122,-0.09648419,-2.833962,-1.36653,0.3936145,1.484236,0.4320872,-0.169861,-0.08569399,-0.3122472,-1.239044,0.2976562,0.009121859,0.5312077,1.493218,0.2839313,-0.002760977,1.512749,0.5335036,295.5572,111.6419,158.9424,True
2,0.8000008,-0.765206,0.4584829,-0.3175036,-1.472265,1.218264,-1.833652,0.2911579,1.369383,0.550096,-1.160312,-0.04354765,11.56498,15.40604,0.1466209,-0.2630121,0.6443536,-0.09393289,-2.765572,-1.435328,0.3934445,1.48485,0.4323964,-0.2145752,-0.09313442,-0.3096817,-1.242326,0.2963622,0.0133696,0.5307211,1.493091,0.2845001,-0.002275877,1.517107,0.5364627,295.8549,111.2563,159.9038,True
2,0.8111119,-0.7428596,0.4832251,-0.2888913,-1.477887,1.214309,-1.82577,0.2903695,1.370624,0.5506275,-1.160289,0.002225991,11.51194,15.64174,0.1334908,-0.2182804,0.6157238,-0.09239464,-2.703161,-1.498517,0.3932394,1.485479,0.4327359,-0.2133361,-0.09421988,-0.2926557,-1.245072,0.2952697,0.015955,0.5302213,1.492936,0.2850516,-0.001839168,1.521225,0.5391482,296.1504,110.7819,160.8668,True
2,0.8222231,-0.7268621,0.4919159,-0.2655123,-1.482985,1.210815,-1.817923,0.2897848,1.372064,0.5512965,-1.159585,0.06393424,11.43236,15.7703,0.1362623,-0.2288692,0.5549712,-0.08931763,-2.658081,-1.545012,0.3930722,1.486089,0.4330685,-0.1663443,-0.08999006,-0.2803301,-1.247844,0.2943396,0.01659575,0.5297264,1.492818,0.2856243,-0.001385876,1.52504,0.5414526,296.48,110.3277,161.7138,True
2,0.8333342,-0.721339,0.4516253,-0.2344165,-1.486435,1.208252,-1.809838,0.2891135,1.373466,0.5517952,-1.158883,0.06323303,11.35279,15.81315,0.1415435,-0.2735714,0.5293278,-0.08474711,-2.59938,-1.605306,0.3928933,1.48675,0.4334171,-0.1407296,-0.09213835,-0.2752571,-1.250788,0.2931917,0.0176999,0.5292374,1.492746,0.2861621,-0.0009023841,1.528576,0.54334,296.8109,109.8877,162.448,True
2,0.8444453,-0.7125719,0.3942637,-0.2053823,-1.488531,1.206517,-1.802034,0.2885186,1.37514,0.5524361,-1.15842,0.04164019,11.29973,15.79173,0.1350117,-0.2991471,0.5037897,-0.0807758,-2.537266,-1.668315,0.3926966,1.487528,0.4338288,-0.1442403,-0.06334676,-0.3082155,-1.255329,0.2934602,0.01930712,0.5287673,1.492696,0.2867389,-0.0004824768,1.532029,0.5449106,297.1051,109.5298,162.948,True
2,0.8555565,-0.6907801,0.2773959,-0.1558556,-1.487654,1.206771,-1.795224,0.2878149,1.376632,0.5530961,-1.157746,0.06099392,11.27321,15.81315,0.1294819,-0.2948834,0.477197,-0.07831185,-2.477801,-1.728898,0.3924882,1.488177,0.4342322,-0.164494,-0.05695016,-0.3101505,-1.258939,0.2930063,0.02192847,0.5284672,1.492634,0.2872565,-7.645506E-05,1.53552,0.5462462,297.363,109.2852,163.2737,True
2,0.8666676,-0.6443925,0.1479439,-0.08073929,-1.485437,1.209089,-1.789983,0.2870144,1.378424,0.5536783,-1.157644,0.008726194,11.35279,15.81315,0.1122536,-0.2874697,0.4570856,-0.07623991,-2.41452,-1.792611,0.3922764,1.488844,0.4345429,-0.1716188,-0.06656951,-0.2770704,-1.260938,0.2919837,0.02424489,0.5280276,1.492563,0.2877469,0.0003599743,1.539101,0.5473102,297.6423,109.1332,163.5494,True
2,0.8777788,-0.6238174,0.06830986,-0.04417579,-1.483879,1.210138,-1.7839,0.2862197,1.3801,0.5539761,-1.158242,-0.05481944,11.40584,15.79173,0.101589,-0.2694005,0.465702,-0.07532964,-2.336395,-1.871177,0.3921078,1.489401,0.4348955,-0.1586425,-0.08364099,-0.2569754,-1.263099,0.2904502,0.02602015,0.5275712,1.492473,0.2882895,0.0008764965,1.542763,0.5480193,298.0038,109.0624,163.762,True
2,0.8888899,-0.6434082,-0.09983245,0.004597075,-1.477864,1.213015,-1.776327,0.285531,1.381901,0.5543811,-1.159409,-0.1064556,11.45889,15.7703,0.06428078,-0.2439507,0.4723889,-0.07543244,-2.260097,-1.946709,0.3918356,1.489946,0.4352851,-0.1382788,-0.0996467,-0.2444141,-1.265477,0.2886953,0.02726464,0.5271899,1.492355,0.2888651,0.001482302,1.546311,0.5481709,298.503,108.9877,163.9881,True
2,0.900001,-0.6791988,-0.1977193,0.0562759,-1.473285,1.216447,-1.768203,0.2846386,1.383653,0.554764,-1.15844,0.08917681,11.45889,15.7703,0.006480962,-0.2164083,0.4462058,-0.07556453,-2.202938,-2.001942,0.3916365,1.490531,0.435607,-0.1510912,-0.1038922,-0.2496344,-1.268664,0.2875559,0.0295033,0.5267701,1.49226,0.2894204,0.001984212,1.549668,0.5476089,299.061,108.8906,164.1399,True
2,0.9111122,-0.7003909,-0.2264005,0.07138291,-1.471213,1.218103,-1.760206,0.2837783,1.385403,0.5554852,-1.156392,0.1861766,11.32626,15.79173,-0.03639454,-0.1781716,0.4263104,-0.07668626,-2.151255,-2.05166,0.3914085,1.490989,0.4360068,-0.1775833,-0.1038959,-0.2365993,-1.270956,0.2864946,0.03251746,0.5263643,1.492183,0.2900109,0.002258075,1.552784,0.5463505,299.5719,108.9933,163.9293,True
2,0.9222233,-0.6809803,-0.2751771,0.1067356,-1.467287,1.221344,-1.753856,0.2825113,1.387408,0.5559142,-1.155469,0.0828999,11.14058,15.53461,-0.05894518,-0.1366874,0.4201196,-0.0786996,-2.099586,-2.101857,0.3912016,1.491482,0.4363372,-0.1550118,-0.0954033,-0.2165601,-1.272589,0.2857353,0.03367914,0.525915,1.492001,0.2906382,0.002271907,1.555688,0.5443509,299.9547,109.4001,163.2527,True
2,0.9333345,-0.6283972,-0.3964577,0.1029483,-1.45947,1.223881,-1.748956,0.2810873,1.389744,0.5561543,-1.155704,-0.02211024,10.98143,15.2132,-0.05336058,-0.1271109,0.4584371,-0.08128393,-2.026442,-2.174332,0.3911749,1.49209,0.4366779,-0.1282823,-0.07731505,-0.2104219,-1.274861,0.2854537,0.03391136,0.5255617,1.492011,0.2912095,0.001999164,1.558621,0.5417703,300.2401,109.863,162.206,True
2,0.9444456,-0.5574588,-0.5965924,0.08565985,-1.44692,1.226697,-1.745501,0.2795596,1.392425,0.5565383,-1.157218,-0.1381071,10.87533,14.91322,-0.01245728,-0.1600434,0.5039111,-0.08325201,-1.936466,-2.265234,0.3910754,1.492636,0.4369621,-0.09844914,-0.06027611,-0.213901,-1.277488,0.2853754,0.03368846,0.5253106,1.491825,0.2918704,0.001545197,1.561776,0.5390353,300.5358,110.3109,160.954,True
2,0.9555568,-0.5250786,-0.7019548,0.1073852,-1.43498,1.230613,-1.740879,0.2781127,1.395012,0.5559049,-1.158739,-0.1380284,10.82228,14.61324,-0.01001298,-0.2399425,0.5123456,-0.08320408,-1.840604,-2.360779,0.3909687,1.493366,0.4372001,-0.09882343,-0.06662361,-0.2522573,-1.281605,0.2845099,0.0350006,0.5250522,1.4917,0.2924352,0.0009587947,1.565117,0.5363213,300.9712,110.7105,159.952,True
2,0.9666679,-0.5314999,-0.7009522,0.09779939,-1.4276,1.232621,-1.734905,0.2770082,1.39786,0.5559423,-1.159955,-0.1102175,10.95491,14.31326,-0.03942502,-0.3572303,0.523115,-0.08239234,-1.718656,-2.480666,0.3906454,1.494116,0.4373124,-0.1385475,-0.07296656,-0.2838324,-1.285715,0.2836172,0.03810717,0.5247133,1.491567,0.2930291,0.0002078563,1.56838,0.5335806,301.5699,111.3759,158.9734,True
2,0.977779,-0.5318565,-0.584806,0.1089556,-1.425135,1.234592,-1.729081,0.2757458,1.400196,0.5556221,-1.158334,0.1486782,11.11406,13.97043,-0.07019216,-0.3754424,0.5329137,-0.08471995,-1.627069,-2.570077,0.3899843,1.494996,0.4374983,-0.1771865,-0.06012708,-0.3164824,-1.290362,0.2836397,0.04102653,0.5244108,1.491422,0.2935636,-0.0007687425,1.571227,0.5306486,302.174,112.1766,158.018,True
2,0.9888902,-0.5260522,-0.4133156,0.09960604,-1.426474,1.235096,-1.723493,0.2743587,1.402062,0.5554037,-1.156714,0.1463609,11.27321,13.56331,-0.1121519,-0.3105678,0.5066372,-0.08807713,-1.588337,-2.605919,0.389113,1.495752,0.4376185,-0.271173,-0.01852041,-0.3442987,-1.295151,0.2851543,0.0463635,0.5239921,1.491395,0.2942736,-0.002016479,1.573648,0.5273612,302.4432,112.8799,157.0475,True
2,1.000001,-0.4635677,0.0226244,0.1059629,-1.441412,1.2344,-1.720469,0.2730701,1.402613,0.5546899,-1.156564,0.01252602,11.40584,13.19906,-0.1700293,-0.180783,0.5146285,-0.09437177,-1.57514,-2.615172,0.3881138,1.496506,0.4376903,-0.321153,-0.002543017,-0.3352666,-1.298425,0.2857344,0.05123256,0.5235041,1.491312,0.294919,-0.003470011,1.576068,0.5240286,302.3969,113.571,155.6771,True
2,1.011112,-0.4121882,0.5594801,0.05857001,-1.465119,1.229863,-1.717132,0.2718541,1.402167,0.5541117,-1.156925,-0.03305741,11.45889,13.11335,-0.2206585,-0.05309148,0.4916593,-0.1000821,-1.581188,-2.605045,0.3870325,1.496889,0.437865,-0.3451769,0.01657893,-0.2870776,-1.300072,0.286654,0.05553783,0.5228516,1.49128,0.295748,-0.004834649,1.578711,0.5210649,302.3419,113.9671,154.4558,True
2,1.022224,-0.3928334,1.090705,-0.0313345,-1.493173,1.222371,-1.712485,0.2708247,1.401356,0.5534847,-1.159507,-0.2359525,11.45889,13.22048,-0.2484256,-0.01908751,0.4982799,-0.1052593,-1.558362,-2.624094,0.3860711,1.497113,0.4379525,-0.3028167,0.03245336,-0.2033001,-1.299549,0.287545,0.05718925,0.5219846,1.491183,0.2965961,-0.005818901,1.581643,0.518976,302.4253,113.8802,153.7021,True
2,1.033335,-0.4867778,1.431075,-0.06690696,-1.518839,1.217006,-1.703831,0.2697216,1.401134,0.5535626,-1.159577,-0.004583117,11.37931,13.37047,-0.2771449,-0.001080006,0.5112866,-0.1108424,-1.534066,-2.64428,0.3851404,1.497192,0.4382615,-0.2574338,0.05153881,-0.1365964,-1.298848,0.2887606,0.05837676,0.5212476,1.491037,0.2975736,-0.006074618,1.584741,0.5185193,302.6799,112.7821,153.9824,True
2,1.044446,-0.6891646,1.451913,-0.01974636,-1.535085,1.216751,-1.689873,0.2684038,1.401741,0.5539212,-1.157996,0.1436658,11.27321,13.41333,-0.2881364,0.0127556,0.4719642,-0.1145676,-1.520037,-2.654567,0.3844899,1.497331,0.4385285,-0.1788024,0.1036205,-0.048872,-1.296359,0.2917137,0.05693759,0.520474,1.491053,0.2984772,-0.005573354,1.588,0.5205348,303.0678,111.0688,155.2122,True
2,1.055557,-0.783218,1.268701,0.04733271,-1.543605,1.218723,-1.678353,0.2671502,1.40274,0.554862,-1.15331,0.4266517,11.16711,13.3919,-0.2852664,0.004284233,0.4239948,-0.1171194,-1.505765,-2.665691,0.3837335,1.497657,0.4388883,-0.1155325,0.1632107,-0.007869758,-1.294932,0.2955835,0.0550787,0.5197404,1.490953,0.2991054,-0.004423696,1.591554,0.5254828,303.4181,109.1087,157.4124,True
2,1.066668,-0.7767497,0.9675447,0.1126977,-1.544291,1.222343,-1.670529,0.2660175,1.404623,0.5551581,-1.147544,0.5240982,11.14058,13.34904,-0.2301687,-0.04770263,0.3628207,-0.1176957,-1.479614,-2.690995,0.3832042,1.498026,0.439347,-0.06996249,0.1855989,-0.03385543,-1.29622,0.2983996,0.05368773,0.5192017,1.490806,0.299628,-0.002800142,1.59569,0.5329666,303.582,106.8895,160.9043,True
2,1.077779,-0.6161494,0.7208543,0.08057462,-1.545657,1.221605,-1.669072,0.2652994,1.406618,0.5560329,-1.150104,-0.2371804,11.14058,13.13477,-0.06579828,-0.2091132,0.3380417,-0.1174667,-1.410806,-2.764069,0.3829075,1.498669,0.4397805,-0.07306379,0.1665372,-0.1339909,-1.300843,0.2998809,0.05416976,0.518838,1.49061,0.3002388,-0.000697427,1.600505,0.5414582,303.6604,104.6547,165.428,True
2,1.08889,-0.4111987,0.5463752,-0.01806702,-1.545933,1.217888,-1.67077,0.2647329,1.408126,0.555999,-1.154773,-0.4238631,11.08753,12.74909,0.02290374,-0.3771442,0.3084771,-0.1168664,-1.329522,-2.847546,0.3826557,1.499146,0.4399374,-0.09825712,0.1389257,-0.2040944,-1.305278,0.300754,0.05600947,0.5184283,1.490424,0.3011155,0.001946791,1.605638,0.5490941,304.0888,102.7879,169.9729,True
2,1.100002,-0.3044599,0.4462515,-0.0891424,-1.547641,1.214604,-1.67055,0.2640418,1.40936,0.5564539,-1.161822,-0.6409035,10.98143,12.06342,0.04229385,-0.4559158,0.3050683,-0.1181037,-1.26112,-2.91645,0.382166,1.499688,0.4401076,-0.176872,0.07299715,-0.2896998,-1.311356,0.2997183,0.06088705,0.5180348,1.490197,0.3016863,0.004787178,1.610716,0.5543113,304.9329,101.6698,173.3329,True
2,1.111113,-0.2807184,0.3127719,-0.1578132,-1.545431,1.210886,-1.667982,0.2631554,1.410517,0.5566523,-1.165192,-0.3034166,10.74271,10.99207,0.04079473,-0.4538729,0.3934947,-0.1242833,-1.212219,-2.965127,0.3814914,1.50015,0.4400899,-0.2017131,0.05599707,-0.3203576,-1.31542,0.3002791,0.06400854,0.5176366,1.489874,0.3024504,0.007411398,1.61513,0.5567586,306.1878,101.5177,174.5396,True
2,1.122224,-0.3549001,0.19101,-0.1709413,-1.543581,1.209053,-1.661362,0.2621293,1.411648,0.5576112,-1.162614,0.237139,10.47745,9.792157,0.03773075,-0.4134378,0.4297686,-0.1295543,-1.180331,-2.996977,0.3807133,1.500487,0.4401624,-0.1965183,0.06560241,-0.3342448,-1.319288,0.3017665,0.06545091,0.5170753,1.48985,0.303087,0.009327164,1.618262,0.5568387,307.5421,102.0025,174.0497,True
2,1.133335,-0.4207069,0.109696,-0.1885855,-1.541492,1.206364,-1.654367,0.2609665,1.412492,0.5584638,-1.159161,0.31288,10.37135,9.085064,0.01932386,-0.2686378,0.4481391,-0.1351794,-1.188145,-2.988842,0.3797636,1.500854,0.4402463,-0.1825587,0.0868911,-0.3204943,-1.322086,0.3037684,0.06679181,0.5164554,1.489776,0.3036528,0.009914762,1.620272,0.5554312,308.5107,102.6463,172.6961,True
2,1.144446,-0.4526847,0.1052231,-0.2097969,-1.542527,1.203451,-1.64848,0.2600525,1.413328,0.5593517,-1.154356,0.4364668,10.39788,9.020782,-0.02802905,-0.1249657,0.4422179,-0.1401931,-1.204401,-2.970808,0.3787531,1.501215,0.4405336,-0.1726388,0.1241417,-0.2875171,-1.323879,0.3066607,0.06761686,0.5156186,1.489834,0.3042376,0.008950042,1.62147,0.5532263,308.8535,103.4969,170.9205,True
2,1.155557,-0.4676514,0.1103705,-0.2300683,-1.543356,1.199924,-1.642652,0.2591497,1.414077,0.560168,-1.153575,0.06792793,10.58355,9.599312,-0.04966933,-0.08558638,0.4125823,-0.1437473,-1.203233,-2.97065,0.3777182,1.501544,0.4407649,-0.1665664,0.1549419,-0.2097527,-1.323305,0.3093393,0.06885283,0.5148607,1.489845,0.304678,0.006708147,1.622366,0.5508599,308.5328,104.331,169.0128,True
2,1.166668,-0.4526453,0.07192442,-0.2544199,-1.542426,1.196491,-1.638106,0.2586023,1.415116,0.5610638,-1.15489,-0.1202507,11.06101,10.90636,-0.0725254,-0.05897704,0.3573833,-0.145799,-1.200789,-2.971469,0.3769253,1.501883,0.4410431,-0.1495746,0.1558843,-0.1044377,-1.320871,0.3110396,0.06975405,0.5139919,1.489748,0.3050952,0.003930455,1.623172,0.5488198,307.8747,105.1951,167.1213,True
2,1.17778,-0.3979802,-0.03881244,-0.2816649,-1.538267,1.19299,-1.635342,0.2579454,1.416578,0.5619688,-1.155288,-0.03510772,11.61804,12.42768,-0.0388177,-0.04498631,0.3102763,-0.1476089,-1.198132,-2.974895,0.3760699,1.502266,0.4414692,-0.1501145,0.132386,-0.05012649,-1.319542,0.3116535,0.0712875,0.513177,1.489691,0.3056521,0.001380547,1.624064,0.5476094,307.1879,105.9416,165.5007,True
2,1.188891,-0.3261303,-0.1824723,-0.2970911,-1.531286,1.189604,-1.633718,0.2571324,1.418242,0.5627069,-1.156652,-0.1244848,12.20159,14.09899,0.01250771,-0.09597725,0.3162423,-0.1509347,-1.175491,-2.999061,0.3753127,1.50267,0.4417787,-0.149726,0.1035713,-0.008607458,-1.318356,0.3116482,0.07312588,0.5123218,1.489576,0.3061659,-0.0004223133,1.625158,0.5475079,306.6828,106.5665,164.4054,True
2,1.200002,-0.2768674,-0.2579487,-0.2989327,-1.525978,1.186753,-1.632051,0.2562542,1.4195,0.5636632,-1.158498,-0.167833,12.78515,15.92029,0.0426591,-0.1811244,0.3265935,-0.1542391,-1.140773,-3.034789,0.3744332,1.503078,0.4420528,-0.1628541,0.1036148,-0.04363759,-1.320032,0.3130129,0.07507052,0.5115266,1.489442,0.3066418,-0.001252126,1.626545,0.5484802,306.4633,107.0897,163.9397,True
2,1.211113,-0.2436549,-0.3090692,-0.3030029,-1.519743,1.18386,-1.630144,0.2552351,1.420418,0.5641692,-1.159561,-0.09614646,13.20955,17.72016,0.03403488,-0.2120185,0.2989255,-0.1563052,-1.118335,-3.05705,0.3734518,1.503422,0.4422181,-0.182695,0.1026303,-0.1094843,-1.323177,0.3145005,0.07763727,0.5107948,1.489351,0.3070385,-0.001303128,1.628266,0.5502146,306.6334,107.5308,164.0809,True
2,1.222224,-0.2512878,-0.2633223,-0.3095889,-1.518353,1.180449,-1.62684,0.2542879,1.421157,0.5650535,-1.159219,0.0316316,13.39523,18.87722,0.02005312,-0.1662557,0.3001305,-0.1595814,-1.114921,-3.060136,0.3723517,1.50377,0.4424827,-0.2022638,0.0792471,-0.1487373,-1.326002,0.3149015,0.08040616,0.51008,1.48935,0.307555,-0.0009318651,1.630149,0.5522423,307.131,107.8844,164.5521,True
2,1.233335,-0.2577308,-0.2399269,-0.2968884,-1.515529,1.178133,-1.623542,0.2532113,1.422264,0.5656648,-1.158561,0.0595895,13.3687,19.19863,0.00499174,-0.07151065,0.318438,-0.1639847,-1.127984,-3.046827,0.3711744,1.504217,0.4427323,-0.2077654,0.05690114,-0.1646795,-1.328175,0.3150735,0.08299928,0.5092595,1.48925,0.3079474,-0.0004579979,1.631922,0.5542142,307.7744,108.0307,165.1698,True
2,1.244446,-0.2181689,-0.262022,-0.2670076,-1.51181,1.176613,-1.622421,0.2523354,1.422921,0.5667202,-1.156846,0.1561191,13.12997,18.6201,-0.00800091,-0.007642046,0.3175211,-0.1674644,-1.135873,-3.038515,0.3699608,1.504662,0.443038,-0.2109453,0.03878777,-0.1625373,-1.329831,0.3150084,0.08540145,0.5083404,1.489276,0.3085382,-0.0001953994,1.633393,0.5558326,308.3611,108.1871,165.6097,True
2,1.255558,-0.1797424,-0.2821168,-0.2659138,-1.507845,1.173875,-1.621486,0.2513762,1.423883,0.5674927,-1.156469,0.03317921,12.75862,17.3559,-0.04353515,0.01360108,0.2741213,-0.1692125,-1.14,-3.032783,0.3687459,1.505129,0.4433653,-0.196705,0.05898003,-0.1221633,-1.329643,0.3164127,0.08693144,0.5072889,1.48928,0.3090377,-0.0003615613,1.634777,0.5571656,308.6696,108.3214,165.7385,True
2,1.266669,-0.1295362,-0.3191971,-0.2647463,-1.503236,1.171284,-1.621482,0.2507492,1.424897,0.5685153,-1.158446,-0.1811151,12.41379,15.87744,-0.05753723,0.01357561,0.2539836,-0.1714841,-1.138331,-3.033313,0.3676633,1.505572,0.4436266,-0.1823682,0.09727864,-0.0732556,-1.328761,0.3188669,0.08798818,0.5063303,1.489342,0.3096273,-0.000933982,1.636114,0.5581299,308.7795,108.5463,165.6782,True
2,1.27778,-0.09635128,-0.3605748,-0.2550142,-1.49776,1.169053,-1.621119,0.249804,1.425629,0.5692689,-1.15869,-0.02091014,12.09549,14.4204,-0.06515798,0.007178221,0.2295233,-0.1731561,-1.135835,-3.034735,0.3664385,1.505879,0.443985,-0.1575425,0.1313294,-0.0414966,-1.328041,0.3214559,0.08838473,0.5053124,1.489467,0.31024,-0.001739069,1.637076,0.5586624,308.9069,108.91,165.3655,True
2,1.288891,-0.08140975,-0.3539887,-0.2284371,-1.494125,1.167467,-1.620613,0.2487654,1.426458,0.5702758,-1.159285,-0.05452118,11.83024,13.43475,-0.06007336,0.03810598,0.2082102,-0.1748871,-1.143474,-3.026738,0.3652597,1.506153,0.4443099,-0.1424993,0.1440962,-0.02884541,-1.327837,0.3235371,0.08906197,0.5043267,1.489529,0.310869,-0.002857947,1.637749,0.558859,308.9639,109.4438,164.7728,True
2,1.300002,-0.0729104,-0.3357195,-0.2018999,-1.491015,1.16637,-1.619933,0.2476929,1.427123,0.5710976,-1.158612,0.06165905,11.59151,13.04907,-0.04621702,0.04773753,0.2123665,-0.1773127,-1.146993,-3.023276,0.3640224,1.506439,0.4447079,-0.1297332,0.1440895,-0.03109601,-1.328069,0.3250628,0.08970965,0.5033489,1.489576,0.3114352,-0.004192503,1.638071,0.5588614,308.9697,110.0671,163.9945,True
2,1.311113,-0.07406925,-0.2886352,-0.1584424,-1.489483,1.16627,-1.619103,0.2465037,1.427488,0.5717661,-1.158019,0.05337499,11.37931,13.30619,-0.04317316,0.05841195,0.1953114,-0.1790278,-1.151166,-3.01881,0.3628746,1.506655,0.4451056,-0.1149354,0.1323816,-0.04297481,-1.328875,0.3262246,0.09015919,0.5023395,1.489614,0.3120396,-0.005776438,1.63812,0.5587707,308.9364,110.644,163.2411,True
2,1.322224,-0.07742532,-0.2363627,-0.1405722,-1.488614,1.165391,-1.618037,0.2453728,1.427898,0.572418,-1.1575,0.04681764,11.19363,14.46325,-0.0455144,0.03606062,0.1569498,-0.1792121,-1.148164,-3.021199,0.3617368,1.507127,0.4455202,-0.1204669,0.09405446,-0.06320902,-1.330352,0.3260242,0.09173524,0.5013336,1.489683,0.3126183,-0.007608368,1.638127,0.5587529,308.7987,111.0788,162.5624,True
2,1.333336,-0.0541958,-0.1625959,-0.1058117,-1.489538,1.165365,-1.618165,0.2440566,1.428134,0.5728543,-1.157033,0.04229156,11.03448,15.85601,-0.0315283,-0.007577877,0.1578722,-0.1808915,-1.138006,-3.031347,0.360541,1.507512,0.4459114,-0.1280444,0.030151,-0.07386053,-1.331612,0.3243162,0.09378055,0.5002992,1.489727,0.3132355,-0.009516282,1.638113,0.5588645,308.5899,111.3755,162.0752,True
2,1.344447,-0.02651491,-0.1527774,-0.09526462,-1.489019,1.164297,-1.618872,0.2429247,1.428462,0.5738823,-1.15668,0.03184565,10.95491,17.31305,-0.03912797,-0.03527574,0.1269845,-0.1808803,-1.130174,-3.038404,0.3591172,1.507793,0.4463696,-0.1333986,0.02589945,-0.07700708,-1.332484,0.3246983,0.09528018,0.4992551,1.489796,0.313807,-0.01134075,1.638105,0.559114,308.3639,111.5325,161.796,True
2,1.355558,0.01385488,-0.1174373,-0.08698326,-1.488871,1.163605,-1.620385,0.2416402,1.428686,0.5743642,-1.157644,-0.08844659,10.95491,18.7058,-0.0563869,-0.0299761,0.0994186,-0.181023,-1.129305,-3.038041,0.357801,1.50811,0.4467349,-0.1356974,0.03763835,-0.09508315,-1.334147,0.3257902,0.09651695,0.4981876,1.489887,0.314466,-0.01298762,1.63822,0.559535,308.1633,111.6538,161.6104,True
2,1.366669,0.03715722,-0.07354479,-0.07126559,-1.490279,1.162973,-1.621422,0.2404663,1.42889,0.5749302,-1.158227,-0.05270601,10.98143,19.62717,-0.05448713,0.009446409,0.08451623,-0.1813618,-1.136446,-3.030417,0.3564072,1.508543,0.4470718,-0.1229077,0.06958313,-0.09516286,-1.334857,0.3277217,0.09696969,0.4970594,1.489983,0.3149917,-0.01438874,1.638442,0.5601584,308.0979,111.6839,161.5349,True
2,1.37778,0.05305553,-0.04251939,-0.05546151,-1.490883,1.162873,-1.622558,0.2392214,1.428984,0.5754189,-1.158782,-0.05054893,11.03448,20.2057,-0.05249501,0.07335962,0.09096292,-0.1830652,-1.151903,-3.014796,0.3549954,1.508763,0.4474051,-0.09289068,0.116428,-0.07729328,-1.33481,0.3308052,0.09620935,0.4958944,1.490137,0.315522,-0.01557405,1.638683,0.5610473,308.173,111.7626,161.4581,True
2,1.388891,0.07742826,0.009915024,-0.02912279,-1.493136,1.163231,-1.62443,0.237905,1.429065,0.5756128,-1.158053,0.06686011,11.14058,20.26998,-0.06555064,0.1116922,0.06871853,-0.1832622,-1.165817,-2.999936,0.3535716,1.508937,0.4477797,-0.07982355,0.123851,-0.04863988,-1.334158,0.332379,0.09633639,0.4946689,1.49032,0.3161805,-0.01664371,1.63886,0.5621605,308.2831,111.7133,161.6233,True
2,1.400002,0.07306024,0.05584911,0.001571531,-1.495334,1.164297,-1.625146,0.2365075,1.429046,0.5759482,-1.157751,0.02678891,11.29973,19.79858,-0.07522887,0.09568654,0.05065437,-0.1830529,-1.166775,-2.997737,0.3522576,1.509078,0.4482954,-0.09431829,0.08971682,-0.004861884,-1.332859,0.3321007,0.09801231,0.4933787,1.490436,0.3167603,-0.0176945,1.638985,0.5634704,308.3214,111.5354,161.9677,True
2,1.411114,0.05695255,0.09953762,0.01418107,-1.498063,1.164724,-1.625252,0.2350027,1.428897,0.5761311,-1.158184,-0.03998644,11.45889,18.98436,-0.08379987,0.07437202,0.03471997,-0.1830529,-1.167286,-2.996106,0.350843,1.509152,0.4487438,-0.1141555,0.07156803,0.03686163,-1.331095,0.3321618,0.0999708,0.4920819,1.490513,0.3174078,-0.0187938,1.639024,0.564835,308.2966,111.2874,162.467,True
2,1.422225,0.04092741,0.1219346,0.03221764,-1.500123,1.165588,-1.625228,0.233556,1.428775,0.5765166,-1.156814,0.1255086,11.64456,18.44868,-0.09912686,0.0701221,-0.02272221,-0.18054,-1.172243,-2.989483,0.3493535,1.509351,0.4492478,-0.1055064,0.07262185,0.04955739,-1.330175,0.3330737,0.1005671,0.4908161,1.490652,0.3179431,-0.02001299,1.638983,0.5661258,308.2354,110.9461,163.0574,True
2,1.433336,0.03449518,0.146538,0.05341525,-1.503032,1.16657,-1.625496,0.2320734,1.428583,0.5766847,-1.155974,0.07560737,11.75066,18.1487,-0.09287848,0.08080935,-0.0387319,-0.1799168,-1.179848,-2.981279,0.3480009,1.509403,0.4496665,-0.05555355,0.08328276,0.0373608,-1.330045,0.3345256,0.09908477,0.489594,1.490789,0.3183851,-0.02140386,1.638895,0.5672371,308.1378,110.5954,163.5958,True
2,1.444447,0.06320893,0.1615579,0.05543041,-1.505287,1.167225,-1.627243,0.2308213,1.428517,0.5768282,-1.15572,0.02269061,11.72414,18.25584,-0.06741374,0.07663,-0.0527821,-0.178859,-1.184133,-2.976987,0.3467196,1.509583,0.4500685,-0.02281102,0.07585248,0.0082675,-1.330874,0.3352562,0.09799448,0.488383,1.490951,0.3188548,-0.022937,1.638803,0.5681136,308.0199,110.3462,163.9469,True
2,1.455558,0.103647,0.168044,0.04040659,-1.507727,1.166788,-1.629794,0.2295669,1.428347,0.5769701,-1.156003,-0.02593828,11.61804,18.57724,-0.05650023,-0.002171062,-0.0486835,-0.1781159,-1.170298,-2.990322,0.3452511,1.509809,0.4502926,-0.04122217,0.05458695,-0.02140495,-1.332088,0.3352938,0.09912392,0.4871236,1.491185,0.3193045,-0.02451705,1.638713,0.5687399,307.8863,110.1541,164.1348,True
2,1.466669,0.1089219,0.1754647,0.02544725,-1.510117,1.166357,-1.63104,0.2282884,1.428076,0.5770688,-1.157501,-0.1368048,11.45889,18.74866,-0.07652886,-0.02464071,-0.02515465,-0.1780755,-1.163222,-2.995393,0.343864,1.509897,0.4506276,-0.06464464,0.04501465,-0.020111,-1.331984,0.3356648,0.1005149,0.4858642,1.491375,0.3197556,-0.0260458,1.638631,0.5691311,307.7486,109.9424,164.2867,True
2,1.47778,0.08115241,0.2009796,0.03497086,-1.513255,1.16694,-1.631064,0.2267387,1.427815,0.577414,-1.158377,-0.07909065,11.19363,19.07007,-0.07551316,0.02328714,-0.01338344,-0.1787397,-1.173889,-2.984101,0.3422275,1.509956,0.4508791,-0.06753057,0.06628552,0.01083725,-1.33067,0.337026,0.1011019,0.4844209,1.491521,0.3202758,-0.02745124,1.638471,0.5693467,307.687,109.8289,164.3117,True
2,1.488891,0.05557095,0.2105055,0.04030372,-1.515959,1.167452,-1.630975,0.2251902,1.427712,0.5775743,-1.15693,0.1326761,10.87533,19.26291,-0.07573038,0.08401048,-0.02077571,-0.1786171,-1.191344,-2.966341,0.3405252,1.510179,0.4512973,-0.06942863,0.09502147,0.03326179,-1.329288,0.3390276,0.1013354,0.4830082,1.491673,0.3207917,-0.02877699,1.638161,0.5695546,307.7397,109.7953,164.2264,True
2,1.500003,0.02892565,0.2221985,0.05522227,-1.518853,1.168541,-1.630491,0.2235804,1.427565,0.5778761,-1.155362,0.1420734,10.5305,19.22005,-0.08665828,0.1553463,-0.03019919,-0.1786986,-1.213671,-2.943085,0.3390742,1.510416,0.4518156,-0.05858933,0.1237655,0.05130135,-1.327815,0.3414813,0.1009562,0.4815224,1.491904,0.3213828,-0.0301394,1.637805,0.5699138,307.7819,109.7014,164.1933,True
2,1.511114,0.0396131,0.221248,0.06905571,-1.521565,1.16957,-1.631407,0.2220839,1.42762,0.5780218,-1.155134,0.01983379,10.18567,19.00578,-0.0760572,0.1277041,-0.04841452,-0.1777234,-1.216834,-2.939496,0.3376255,1.510573,0.45223,-0.04454339,0.1098945,0.0713886,-1.326337,0.3420211,0.1008289,0.4800339,1.492021,0.321862,-0.03164085,1.637631,0.5705094,307.7342,109.4465,164.3731,True
2,1.522225,0.06097906,0.1999687,0.05953408,-1.523029,1.16988,-1.632938,0.2207239,1.427728,0.5782008,-1.154809,0.02971686,9.920423,18.49153,-0.06296439,0.04357262,-0.04116226,-0.1768547,-1.203547,-2.952474,0.3361368,1.510763,0.452672,-0.02205257,0.08536843,0.08391737,-1.325076,0.3419129,0.1002795,0.4786493,1.492216,0.3223968,-0.03322095,1.63767,0.5712684,307.622,109.1668,164.7025,True
2,1.533336,0.06844512,0.1860581,0.03720682,-1.524839,1.169277,-1.634014,0.2192982,1.428023,0.5784914,-1.156024,-0.1116207,9.70822,18.10585,-0.05933052,-0.03315122,-0.01144252,-0.1772792,-1.186979,-2.968166,0.3346293,1.511086,0.4529827,-0.01781699,0.08324101,0.08174611,-1.324118,0.3427813,0.1002185,0.4772481,1.49245,0.3229423,-0.03477602,1.637876,0.5720908,307.4908,108.8526,165.1126,True
2,1.544447,0.06100093,0.1796112,0.03193582,-1.526635,1.169575,-1.634429,0.2177617,1.428049,0.5787826,-1.156341,-0.02851689,9.522545,17.46304,-0.06670083,-0.01617095,0.008846295,-0.1776392,-1.187526,-2.966529,0.3330377,1.511402,0.4533355,-0.02359375,0.1078019,0.03496446,-1.325017,0.3450473,0.1000587,0.475872,1.492685,0.3234146,-0.03622083,1.638116,0.5728688,307.4215,108.5788,165.514,True
2,1.555558,0.001265956,0.2017823,0.02873846,-1.529873,1.169407,-1.632308,0.2161696,1.428029,0.5792453,-1.155206,0.1032227,9.336869,16.43454,-0.07520015,0.01892268,0.02599137,-0.1785969,-1.193897,-2.95918,0.3313939,1.511624,0.4536362,-0.02614453,0.1078543,-0.007623753,-1.326333,0.3464603,0.1001402,0.4745989,1.492943,0.3239658,-0.03759906,1.638272,0.573574,307.4418,108.463,165.7281,True
2,1.566669,-0.03934176,0.2410802,0.0328913,-1.533864,1.16967,-1.630612,0.2145033,1.428092,0.5795245,-1.153489,0.1552784,9.151194,15.14892,-0.0881352,0.09450925,0.03576453,-0.1800286,-1.213648,-2.938295,0.3298239,1.511869,0.4540217,-0.01882348,0.09828137,-0.02155424,-1.32678,0.3472786,0.09982274,0.4731962,1.493307,0.324466,-0.03904514,1.638408,0.5743062,307.4945,108.4006,165.8106,True
2,1.577781,-0.05423928,0.2367734,0.03400389,-1.536345,1.169936,-1.629508,0.2129671,1.428244,0.5798674,-1.14992,0.3242623,8.938992,13.88472,-0.0913846,0.1275189,0.04220395,-0.1809394,-1.226423,-2.924612,0.3283468,1.51204,0.4544108,0.007731623,0.0886953,-0.02928424,-1.327324,0.3479601,0.09865814,0.471834,1.493729,0.324945,-0.04058801,1.63848,0.575106,307.5364,108.2377,165.9476,True
2,1.588892,-0.02214139,0.2007261,0.03943134,-1.537801,1.17031,-1.630563,0.2116449,1.428635,0.5804803,-1.149109,0.07064769,8.753316,12.87765,-0.09141246,0.09026243,0.02298734,-0.1805804,-1.225711,-2.924296,0.3270416,1.512384,0.4549129,0.02812937,0.0780247,-0.01351474,-1.32678,0.3485468,0.09749992,0.4704695,1.494138,0.3254158,-0.04225499,1.638709,0.5760576,307.4325,107.9836,166.1633,True
2,1.600003,0.02388758,0.1348049,0.03432722,-1.537095,1.170636,-1.632554,0.2104832,1.429185,0.5807698,-1.14875,0.03173086,8.700266,12.23484,-0.0573716,0.004093062,-0.01573277,-0.1783082,-1.210514,-2.939409,0.3259784,1.512966,0.4553764,0.04458648,0.04280638,0.03635015,-1.324753,0.3476143,0.09664798,0.4691561,1.494688,0.3258319,-0.04390383,1.639139,0.5771223,307.2764,107.6806,166.5194,True
2,1.611114,0.0368166,0.0836633,0.01854113,-1.536608,1.170003,-1.633312,0.2093836,1.429561,0.5810328,-1.149735,-0.09118351,8.700266,11.76344,-0.03700137,-0.05229602,-0.0212667,-0.1776467,-1.198187,-2.95185,0.324654,1.513448,0.4556782,0.02329326,0.02896215,0.03867775,-1.324283,0.3474782,0.09728102,0.4678017,1.495129,0.32634,-0.04540069,1.63964,0.5781826,307.1594,107.4778,166.8395,True
2,1.622225,0.03686243,0.06657637,0.01010177,-1.536806,1.169919,-1.63372,0.2082253,1.430032,0.5813758,-1.149369,0.03303027,8.859415,11.18491,-0.01786607,-0.04586527,-0.02247386,-0.1771758,-1.19553,-2.954739,0.3234141,1.513887,0.4559786,-0.01064599,0.03747124,0.05393404,-1.323176,0.3480381,0.09848476,0.4663982,1.495496,0.3267376,-0.04672053,1.640038,0.5791566,307.146,107.3604,167.0905,True
2,1.633336,0.001741472,0.05797879,0.01231394,-1.537684,1.16974,-1.632573,0.2070744,1.430248,0.5818508,-1.146528,0.2580727,9.071617,10.94922,-0.02119573,0.04252158,-0.005287558,-0.1784195,-1.214283,-2.935895,0.3220801,1.514143,0.4561677,-0.01803225,0.04492329,0.06040477,-1.322263,0.3487697,0.09864055,0.4650521,1.495864,0.3271747,-0.04796987,1.64016,0.5799243,307.2031,107.339,167.291,True
2,1.644447,-0.01955983,0.05574803,0.007046072,-1.53822,1.169773,-1.631794,0.2056616,1.430497,0.5823197,-1.144509,0.1814599,9.363397,11.09921,-0.02762585,0.1095703,0.02039479,-0.1799855,-1.231108,-2.918421,0.3206374,1.514342,0.4565036,0.000151448,0.03958179,0.06766907,-1.321375,0.3489027,0.09791698,0.4636894,1.496223,0.3275964,-0.04931443,1.640081,0.5805088,307.1938,107.3852,167.3302,True
2,1.655559,-0.03231212,0.0450475,0.006051608,-1.538394,1.169755,-1.630972,0.2044517,1.430647,0.5824325,-1.141728,0.2522172,9.681698,11.59203,-0.02748714,0.1393507,0.05345045,-0.1820899,-1.241398,-2.907838,0.3194371,1.514627,0.4567392,0.06081735,0.01080796,0.06277999,-1.320879,0.3479357,0.09544823,0.4624412,1.496542,0.3279026,-0.05083059,1.639987,0.5809965,307.0904,107.3936,167.2689,True
2,1.66667,-0.02800721,0.02801934,0.001840104,-1.538386,1.169296,-1.630778,0.203326,1.430978,0.5827556,-1.141014,0.06261193,9.999999,12.34197,-0.0167635,0.08080851,0.03944914,-0.1818257,-1.235546,-2.913762,0.3184123,1.51478,0.4571443,0.08198658,0.009752598,0.04872245,-1.320797,0.3480175,0.09383754,0.4612207,1.496881,0.3282411,-0.05245811,1.639992,0.5814721,306.9237,107.3773,167.1775,True
2,1.677781,-0.00658317,-0.01886506,-0.01609635,-1.536609,1.168648,-1.631341,0.202509,1.431451,0.583097,-1.1403,0.06460308,10.23872,13.0705,0.006489013,0.02021172,-0.008732451,-0.1797463,-1.227403,-2.922412,0.3174537,1.51505,0.4574409,0.07969943,-0.0008810386,0.03275567,-1.320925,0.3477136,0.09315764,0.4600661,1.497162,0.3285673,-0.05410759,1.640123,0.5819322,306.7826,107.347,167.177,True
2,1.688892,-0.004409443,-0.04131193,-0.03198277,-1.535249,1.167806,-1.631293,0.2015668,1.431811,0.5831835,-1.140308,-0.001691833,10.37135,13.64902,0.03638851,-0.003133137,-0.008974819,-0.1795796,-1.223879,-2.927263,0.316397,1.515343,0.4576547,0.06903204,-0.01685641,0.03177668,-1.32069,0.3469189,0.09295311,0.4588567,1.497459,0.3288701,-0.05562045,1.640271,0.5822855,306.6433,107.3516,167.2103,True
2,1.700003,-0.01174584,-0.08509479,-0.04880813,-1.532774,1.16694,-1.630987,0.2006501,1.432275,0.5835636,-1.140538,-0.02136769,10.45093,14.03471,0.04703628,0.02988492,0.008023613,-0.1803328,-1.229743,-2.921924,0.3152868,1.515526,0.4578764,0.02220802,-0.01791742,0.03648921,-1.320261,0.3465405,0.09431558,0.4575969,1.497699,0.3291886,-0.05695298,1.640453,0.5825429,306.5343,107.4691,167.0993,True
2,1.711114,-0.01708958,-0.07978435,-0.04775786,-1.531973,1.166506,-1.63057,0.199734,1.432526,0.5838709,-1.139438,0.1003836,10.47745,14.24898,0.03631715,0.06181354,0.01134077,-0.1809794,-1.239377,-2.912492,0.3141895,1.515829,0.4581091,0.001112107,-0.01260798,0.05801187,-1.318867,0.3465042,0.09499309,0.4563853,1.497972,0.3293679,-0.0580668,1.640586,0.5826937,306.4938,107.6846,166.897,True
2,1.722225,-0.01502093,-0.05415494,-0.03508697,-1.532322,1.166672,-1.630486,0.1988419,1.432735,0.5841687,-1.138619,0.07374904,10.50398,14.29184,0.02567758,0.1064885,0.03490739,-0.1826811,-1.252045,-2.899592,0.3132005,1.516023,0.4583409,0.006774429,-0.01052244,0.09204486,-1.316751,0.3461639,0.09479202,0.4552043,1.498235,0.3295538,-0.05906442,1.640735,0.5827656,306.5181,107.8953,166.7051,True
2,1.733337,-0.002374266,-0.009353761,-0.02891738,-1.533536,1.166559,-1.630862,0.1979343,1.432818,0.5841026,-1.138079,0.04855973,10.5305,14.16327,0.03210643,0.1011825,0.03698812,-0.1834758,-1.256476,-2.895944,0.3123124,1.51629,0.4586306,0.03355363,-0.02119875,0.1077521,-1.315058,0.3454113,0.0937486,0.4540575,1.498516,0.3296449,-0.06002713,1.640952,0.5827999,306.5756,108.1196,166.4518,True
2,1.744448,0.02202243,0.02482744,-0.02591235,-1.534829,1.16642,-1.631965,0.1971577,1.433102,0.5841594,-1.138059,0.001231341,10.55703,13.97043,0.0277839,0.06281938,0.01671634,-0.1825522,-1.252317,-2.899806,0.3117868,1.516661,0.4588592,0.04105388,-0.05530149,0.1129672,-1.31381,0.3434398,0.09355285,0.4530576,1.49881,0.3297648,-0.06093609,1.641214,0.5828569,306.6206,108.1886,166.2899,True
2,1.755559,0.04951682,0.09422642,-0.01029954,-1.538074,1.16665,-1.633472,0.1964085,1.433166,0.5841992,-1.138271,-0.01955586,10.5305,13.79901,0.05778554,-0.004216705,0.01323472,-0.182352,-1.239465,-2.914071,0.3113279,1.517069,0.4590552,0.04424441,-0.08086745,0.1129025,-1.312752,0.3416447,0.09344234,0.4521539,1.499096,0.329911,-0.06177039,1.641499,0.582983,306.6517,108.0903,166.3192,True
2,1.76667,0.0364719,0.1708854,-0.01702512,-1.54268,1.165762,-1.63343,0.1958642,1.432956,0.584553,-1.138731,-0.0420601,10.4244,13.64902,0.06420555,-0.04891358,-0.001779467,-0.1815216,-1.230497,-2.923871,0.3106111,1.517339,0.4591293,0.03662986,-0.08297745,0.09699479,-1.312302,0.340561,0.09355951,0.4511333,1.499326,0.330004,-0.06253222,1.641756,0.5831807,306.6729,107.9516,166.4678,True
2,1.777781,0.01176223,0.22829,-0.02576315,-1.54713,1.164887,-1.632681,0.1951291,1.432837,0.5846891,-1.138844,-0.01021243,10.29178,13.71331,0.06305437,-0.02869267,-0.001765845,-0.1812883,-1.231728,-2.922908,0.3095756,1.517473,0.4593582,0.01397271,-0.0605683,0.06741999,-1.312485,0.3407139,0.09413582,0.4501925,1.499587,0.3300829,-0.06325157,1.64198,0.5834903,306.6785,107.8214,166.5927,True
2,1.788892,-0.0310939,0.3124068,-0.009043142,-1.553686,1.16467,-1.630934,0.1944624,1.432529,0.5851038,-1.137047,0.1641793,10.2122,13.77759,0.05327326,0.03201061,-0.004804807,-0.1817618,-1.245154,-2.910096,0.3088502,1.517611,0.4593439,0.00212686,-0.07226709,0.05473731,-1.312381,0.3394629,0.09481066,0.4492725,1.499778,0.3301044,-0.06389531,1.642088,0.5840133,306.6954,107.6095,166.7122,True
2,1.800003,-0.05781719,0.3507275,0.004690198,-1.558797,1.165003,-1.629612,0.1938186,1.432569,0.585233,-1.135975,0.09640715,10.2122,14.16327,0.04899551,0.08201535,0.01658967,-0.1830311,-1.255945,-2.89957,0.3081699,1.517837,0.4595013,0.01264979,-0.08823759,0.04183125,-1.31247,0.3378312,0.09474568,0.4483667,1.499997,0.3301423,-0.06444524,1.64215,0.5849361,306.6648,107.3719,166.8552,True
2,1.811115,-0.04172813,0.3134779,-0.005843122,-1.561323,1.164072,-1.629719,0.1933944,1.43277,0.5853791,-1.134863,0.1010044,10.3183,14.89179,0.0521042,0.08524267,0.004859529,-0.1830188,-1.261683,-2.894717,0.3075928,1.517973,0.4596224,0.03395069,-0.09250226,0.04161923,-1.31206,0.3366708,0.09396324,0.447468,1.500192,0.3302245,-0.06490852,1.642336,0.5863068,306.5892,107.0651,167.1982,True
2,1.822226,-0.0117652,0.2623621,-0.02270212,-1.56234,1.163286,-1.63061,0.1929874,1.433065,0.5855083,-1.135257,-0.0366452,10.50398,15.92029,0.05748137,0.07245126,0.01011322,-0.1830625,-1.262183,-2.894694,0.3072422,1.518154,0.4597318,0.05849018,-0.09997579,0.04562822,-1.311583,0.3351206,0.0929121,0.4466624,1.500403,0.3302231,-0.06518508,1.64275,0.5880923,306.4604,106.5312,167.89,True
2,1.833337,0.05134554,0.1665628,-0.05755311,-1.561182,1.161218,-1.633337,0.1928832,1.433645,0.5856245,-1.136813,-0.1418928,10.8488,17.09878,0.07467691,0.03946152,0.01952724,-0.1833224,-1.257822,-2.900144,0.3068641,1.518386,0.4597898,0.07145863,-0.1074551,0.0646695,-1.310328,0.3335955,0.09215896,0.4458719,1.500608,0.3301766,-0.06522236,1.643413,0.5900216,306.367,105.9952,168.843,True
2,1.844448,0.05783974,0.1346117,-0.05953557,-1.561667,1.160738,-1.634144,0.1925996,1.433933,0.5858417,-1.137685,-0.07857348,11.22016,18.1487,0.1015107,0.01501391,0.03741188,-0.1841714,-1.252874,-2.907055,0.3065044,1.518676,0.4599054,0.07687728,-0.1074664,0.07419915,-1.309369,0.3322954,0.09150195,0.4451581,1.500829,0.3300977,-0.06501196,1.644117,0.5917852,306.434,105.7538,169.6275,True
2,1.855559,0.05150028,0.1089515,-0.0743338,-1.561933,1.159207,-1.634349,0.1922892,1.434048,0.5856652,-1.139377,-0.1543082,11.53846,18.98436,0.1411867,-0.02750197,0.05518352,-0.1850476,-1.242688,-2.920082,0.3058605,1.518981,0.4598577,0.06087044,-0.1063912,0.071161,-1.308796,0.3310847,0.09166361,0.4444008,1.50104,0.3299506,-0.06469433,1.644726,0.5931692,306.6129,105.6962,170.1645,True
2,1.86667,0.02369483,0.1397545,-0.07975347,-1.564925,1.157829,-1.6337,0.1921022,1.433847,0.5858753,-1.137329,0.1883022,11.80371,19.67002,0.1281885,0.02041787,0.04362898,-0.1855946,-1.252016,-2.912019,0.3054597,1.519252,0.4598656,0.02052648,-0.1181187,0.08539257,-1.307599,0.3291489,0.09323993,0.4437774,1.501217,0.3297687,-0.06445061,1.645091,0.5941004,306.8524,105.8256,170.3296,True
2,1.877781,0.01832722,0.1503753,-0.08298732,-1.566921,1.156643,-1.633719,0.1919081,1.433835,0.5860705,-1.136286,0.09342252,11.88329,20.22713,0.125903,0.05771179,0.03729395,-0.1861667,-1.261829,-2.903745,0.3051369,1.519189,0.4598956,0.01962329,-0.1319837,0.1024285,-1.306124,0.3270552,0.09358002,0.443076,1.50139,0.3296118,-0.0644637,1.645258,0.5946409,307.0085,105.7932,170.4574,True
2,1.888893,0.01941245,0.1365,-0.09465882,-1.568154,1.154883,-1.633973,0.1918105,1.433784,0.5861475,-1.135298,0.08969633,11.83024,20.78423,0.1073746,0.1035266,-0.00298731,-0.1855866,-1.277569,-2.888971,0.3047749,1.519212,0.4598637,0.02828275,-0.1490484,0.1172416,-1.304502,0.3245715,0.09365459,0.4424114,1.501538,0.3293934,-0.06474724,1.645252,0.594854,307.0396,105.8223,170.3997,True
2,1.900004,0.02284268,0.04581416,-0.1262,-1.565338,1.152752,-1.634314,0.1919432,1.434192,0.5863888,-1.135897,-0.0554327,11.69761,20.80565,0.1082514,0.1206055,-0.02215294,-0.1851584,-1.289508,-2.878458,0.304515,1.519211,0.4599144,0.02725678,-0.1618285,0.1214983,-1.303219,0.3222344,0.094,0.4418227,1.501583,0.3292148,-0.06517703,1.645177,0.5949873,306.9315,105.835,170.1632,True
2,1.911115,0.02959326,-0.07247193,-0.139539,-1.560459,1.15092,-1.634793,0.1919864,1.434721,0.5864146,-1.136232,-0.0300455,11.48541,20.16284,0.1158318,0.10251,-0.01263902,-0.1856111,-1.291806,-2.87781,0.3042828,1.519415,0.4599066,0.02623899,-0.1703548,0.1268262,-1.301831,0.31986,0.09442104,0.4412294,1.50163,0.3290854,-0.06563684,1.645105,0.5951909,306.788,105.889,169.9321,True
2,1.922226,0.03191534,-0.1299647,-0.1339635,-1.557307,1.14979,-1.635107,0.1921425,1.435015,0.5865135,-1.136329,-0.008743085,11.24668,18.9415,0.1278814,0.05989576,0.01597724,-0.1865033,-1.285887,-2.885466,0.3043266,1.51939,0.4599435,0.03587058,-0.1671777,0.1309898,-1.300508,0.3177284,0.09424767,0.4407392,1.501593,0.3288808,-0.06602134,1.645002,0.595502,306.6513,106.0796,169.7268,True
2,1.933337,0.02123248,-0.1139678,-0.1222964,-1.556501,1.148875,-1.634966,0.1921963,1.435167,0.5867307,-1.13644,-0.01010463,11.08753,17.50589,0.1363999,0.05567232,0.01272094,-0.1867121,-1.289203,-2.884096,0.3043114,1.519591,0.45976,0.04642867,-0.1607792,0.1213077,-1.299634,0.3160086,0.09382423,0.4402149,1.501651,0.3286209,-0.06634117,1.644902,0.5958236,306.5213,106.493,169.4907,True
2,1.944448,-0.001394775,-0.03519018,-0.1194175,-1.558875,1.147394,-1.634122,0.1923811,1.435046,0.5868404,-1.13624,0.01828255,10.98143,15.89886,0.1612674,0.02798899,0.05192726,-0.1884266,-1.283425,-2.892411,0.3044814,1.519819,0.4596734,0.07065044,-0.1596939,0.09231012,-1.299823,0.3140944,0.09260423,0.4399381,1.501676,0.3283558,-0.06661783,1.644779,0.595979,306.4256,106.9355,169.2717,True
2,1.955559,-0.006758775,-0.03314868,-0.1353961,-1.558461,1.145378,-1.633839,0.1924826,1.435215,0.5870636,-1.135742,0.04538405,10.92838,14.20613,0.1646817,0.0109302,0.07425307,-0.1898365,-1.279588,-2.898169,0.3045028,1.519987,0.4596095,0.06597348,-0.1681686,0.05080051,-1.300923,0.3118922,0.0926804,0.4396614,1.501669,0.3281703,-0.06682543,1.644633,0.5959476,306.3529,107.1921,169.0486,True
2,1.966671,-0.004562294,-0.0619604,-0.1501898,-1.556591,1.143247,-1.633919,0.1926495,1.435512,0.587188,-1.13503,0.06475887,10.90185,12.25627,0.1720089,0.01418047,0.05610134,-0.1900357,-1.281752,-2.898342,0.3043553,1.520204,0.4593368,0.04538663,-0.1723889,0.01583302,-1.302281,0.3097957,0.09349933,0.439423,1.501581,0.3278759,-0.06639572,1.644425,0.5960252,306.5052,106.7204,169.2109,True
2,1.977782,0.009501716,-0.1365515,-0.1647977,-1.552164,1.141152,-1.634509,0.19281,1.435879,0.5874209,-1.135602,-0.05276569,10.8488,9.963574,0.1835897,0.01424453,0.03683687,-0.1897193,-1.283207,-2.899372,0.3041196,1.520357,0.4592056,0.002453178,-0.1563581,-0.01675008,-1.303567,0.3087305,0.09521733,0.4390551,1.50163,0.3275402,-0.06634621,1.644449,0.5963665,306.3923,107.3527,168.6944,True
2,1.988893,0.01815767,-0.1823644,-0.173136,-1.548514,1.139191,-1.63501,0.1929823,1.436101,0.5874395,-1.136091,-0.04424861,11.08753,9.920717,0.1643819,0.03335935,0.04019685,-0.1905215,-1.287905,-2.8959,0.303879,1.520504,0.4590816,-0.0305659,-0.1435659,-0.01641025,-1.303869,0.3075866,0.09704399,0.4387226,1.501614,0.3272543,-0.06628164,1.644751,0.5968094,306.3614,107.7373,168.4184,True
2,2.000004,0.01700327,-0.1514589,-0.1689989,-1.54783,1.137661,-1.63517,0.1931419,1.43616,0.5875587,-1.136642,-0.05003443,11.35279,11.07778,0.1195159,0.092885,0.04699203,-0.1921748,-1.303562,-2.880209,0.3037178,1.520525,0.4588373,-0.06523614,-0.1382855,0.03294023,-1.301944,0.3060051,0.09933165,0.4383951,1.501531,0.3269932,-0.0661452,1.645105,0.5973651,306.4077,107.8885,168.4509,True
2,2.011115,0.02122977,-0.1375684,-0.1626839,-1.546705,1.136051,-1.635476,0.1932866,1.436297,0.5876155,-1.136557,0.008072212,11.51194,12.85623,0.0992953,0.1375489,0.06637987,-0.1944896,-1.317416,-2.867239,0.3036218,1.520627,0.4586494,-0.06814553,-0.1436461,0.06279656,-1.300415,0.3039635,0.1007679,0.4380378,1.501486,0.3267353,-0.06598428,1.645305,0.5978683,306.5169,108.1569,168.467,True
2,2.022226,0.03405713,-0.1471144,-0.1615922,-1.54454,1.134532,-1.636398,0.1934957,1.436463,0.5876286,-1.136136,0.03837756,11.61804,15.19177,0.1046825,0.1141303,0.06524181,-0.1952315,-1.318601,-2.867491,0.3036727,1.520723,0.458405,-0.06480365,-0.1244889,0.07663298,-1.299223,0.3030398,0.1015538,0.4378006,1.501505,0.3264511,-0.06585775,1.645299,0.5981852,306.5952,108.4135,168.4005,True
2,2.033337,0.04464085,-0.1246997,-0.1585207,-1.543647,1.132864,-1.637165,0.1935938,1.436616,0.5875638,-1.136209,-0.00696699,11.67109,17.95586,0.1241974,0.05025102,0.08526551,-0.1964779,-1.308809,-2.87924,0.3036216,1.520872,0.458169,-0.04144344,-0.09572679,0.06791332,-1.298849,0.3028533,0.1012379,0.4377236,1.501442,0.3261318,-0.06580671,1.645201,0.59839,306.5945,108.5075,168.3127,True
2,2.044448,0.04029648,-0.09806456,-0.1532975,-1.543238,1.131474,-1.637317,0.1936268,1.436796,0.58745,-1.136795,-0.05352695,11.83024,20.91279,0.1167207,0.01616269,0.06822759,-0.1964103,-1.303878,-2.885182,0.3035542,1.520988,0.4580066,-0.0267757,-0.07439415,0.04222474,-1.299291,0.3027824,0.1010291,0.4375183,1.50151,0.3258185,-0.06584138,1.645071,0.5985153,306.5438,108.6544,168.1723,True
2,2.055559,0.01774221,-0.02986932,-0.1333162,-1.545223,1.130553,-1.636711,0.1935115,1.436652,0.5873728,-1.136634,0.01501561,12.12201,23.97686,0.1017856,0.01293743,0.06301573,-0.1970809,-1.304299,-2.885442,0.3032885,1.521141,0.457675,-0.04749514,-0.05409178,-0.006552096,-1.301103,0.3030958,0.1022931,0.437371,1.501673,0.3254821,-0.06595697,1.644886,0.5985445,306.4879,108.927,167.9421,True
2,2.06667,-0.003709674,0.0244353,-0.1185983,-1.546864,1.129621,-1.635928,0.1934853,1.436535,0.5873914,-1.135928,0.06442336,12.44032,26.44097,0.07252504,0.05660155,0.01214548,-0.1960465,-1.317622,-2.872108,0.303022,1.521213,0.4576075,-0.06353419,-0.05301822,-0.01278885,-1.301539,0.3024892,0.1037586,0.4371598,1.501708,0.325217,-0.06617831,1.644716,0.5985519,306.4217,109.1309,167.7368,True
2,2.077781,0.006984941,0.02993342,-0.08773497,-1.547339,1.129833,-1.636381,0.1933921,1.436677,0.5872443,-1.135092,0.07586549,12.54642,26.91236,0.07642377,0.08011177,-0.02938966,-0.1950185,-1.328988,-2.862113,0.302879,1.521359,0.4573665,-0.07602452,-0.09246781,0.01818363,-1.30041,0.2997212,0.105781,0.4368663,1.501897,0.3250377,-0.06647359,1.644626,0.5986047,306.335,109.2194,167.6021,True
2,2.088892,0.04861022,0.01843144,-0.06646805,-1.54684,1.129623,-1.638233,0.1933422,1.436855,0.5870867,-1.134919,0.01530184,12.91777,27.898,0.06805207,0.02895838,-0.03045921,-0.1943777,-1.322236,-2.869318,0.3027827,1.521619,0.4571612,-0.06084547,-0.09037193,0.04466877,-1.299155,0.2986261,0.106176,0.4366413,1.502115,0.324805,-0.06672616,1.644626,0.5987867,306.247,109.1534,167.5848,True
2,2.100003,0.07204504,0.02387557,-0.05693412,-1.547267,1.12948,-1.639751,0.1933259,1.437028,0.5868604,-1.136203,-0.1173919,13.2626,28.56224,0.05972431,0.004407912,-0.01338456,-0.1946329,-1.317777,-2.874063,0.3026336,1.52195,0.4569287,-0.06506462,-0.06694106,0.04792666,-1.298669,0.2986826,0.1069906,0.4364767,1.502237,0.3246081,-0.06683749,1.644729,0.5991014,306.1543,109.0525,167.6911,True
2,2.111114,0.08682087,0.06975653,-0.05077491,-1.54953,1.128956,-1.641134,0.1931836,1.437078,0.586576,-1.137726,-0.1382439,13.52785,28.56224,0.03358871,-0.01598644,0.04644216,-0.1969717,-1.310463,-2.880839,0.3023734,1.522384,0.4565625,-0.07493307,-0.04453752,0.01928771,-1.299295,0.2989856,0.1081198,0.4362845,1.502429,0.324254,-0.06680936,1.644897,0.5994074,306.1253,108.9471,167.9552,True
2,2.122225,0.07604478,0.1134325,-0.04241145,-1.552185,1.128805,-1.64162,0.1929954,1.437055,0.586354,-1.137393,0.03141807,13.63395,27.98372,0.008049224,0.006294444,0.05943539,-0.1981221,-1.313394,-2.877242,0.3021467,1.522581,0.4563329,-0.08586758,-0.04130503,-0.009375922,-1.300504,0.2987167,0.1094905,0.4361503,1.502565,0.3240066,-0.06671183,1.644981,0.5995915,306.1978,108.9131,168.1727,True
2,2.133336,0.06108184,0.1315054,-0.03502172,-1.553793,1.128333,-1.641672,0.1928068,1.437017,0.5860875,-1.137039,0.0317971,13.50132,27.10521,-0.01785721,0.05100858,0.02986499,-0.1982383,-1.324914,-2.864984,0.3018762,1.522702,0.4560483,-0.08381917,-0.04556011,-0.01685631,-1.300959,0.2980542,0.110629,0.4360043,1.502656,0.3236969,-0.06666869,1.644993,0.5996806,306.2673,108.8325,168.3265,True
2,2.144447,0.04193225,0.132576,-0.01900375,-1.555226,1.128665,-1.641523,0.1927223,1.437012,0.585923,-1.135993,0.09538445,13.28912,26.41954,-0.02775592,0.0563577,-0.01053634,-0.1969796,-1.330539,-2.858824,0.3017786,1.522862,0.455857,-0.0667012,-0.03598398,-0.009558301,-1.300784,0.2979748,0.1108091,0.4359063,1.50282,0.3234639,-0.06675059,1.64499,0.5997987,306.308,108.6733,168.4529,True
2,2.155558,0.04198656,0.1198193,-0.01253815,-1.556117,1.128882,-1.642033,0.1926253,1.437104,0.5857089,-1.135187,0.07252166,13.0504,25.86243,-0.01724096,0.05109492,-0.03191776,-0.1961216,-1.333822,-2.855774,0.3016925,1.522984,0.4558079,-0.03581724,-0.007228296,-0.0108904,-1.300803,0.2989202,0.1099558,0.4357399,1.503024,0.323343,-0.0669536,1.644988,0.6000142,306.2921,108.4829,168.6193,True
2,2.166669,0.0495086,0.1038792,-0.003970859,-1.55643,1.128893,-1.642773,0.1925057,1.437239,0.5853612,-1.134489,0.06280319,12.7321,25.09107,-0.00541063,0.03407855,-0.02349624,-0.196324,-1.333001,-2.856929,0.3016205,1.523139,0.4555964,-0.001613159,0.01086602,0.0005122045,-1.300364,0.299713,0.1087185,0.4355986,1.503307,0.3231254,-0.06722285,1.644951,0.6002876,306.2173,108.364,168.7851,True
2,2.17778,0.04644566,0.065516,-0.00378058,-1.555929,1.12907,-1.643331,0.1923996,1.437326,0.5852141,-1.134371,0.00949253,12.36074,23.67688,0.00975989,-0.03299931,-0.01517656,-0.1956305,-1.320258,-2.870026,0.3013871,1.523379,0.4554422,0.01338257,-0.006192768,0.008864905,-1.300093,0.298994,0.1082309,0.4354023,1.503403,0.3228879,-0.0674978,1.644878,0.6005498,306.0922,108.2273,168.9912,True
2,2.188891,0.0262116,0.05901145,-0.01011455,-1.556086,1.128549,-1.642912,0.1922427,1.437361,0.5849283,-1.133573,0.07195222,12.22811,22.73409,0.004541885,-0.05112721,-0.007695995,-0.1956502,-1.31456,-2.875492,0.3011122,1.523593,0.4551272,-0.01447553,-0.013625,-0.006848251,-1.300738,0.2986144,0.1094668,0.4352661,1.503561,0.3227348,-0.06778444,1.644764,0.6007338,305.9931,108.1127,169.2096,True
2,2.200002,-0.003658886,0.07167883,-0.01328996,-1.557279,1.128544,-1.642038,0.1919345,1.437358,0.5848377,-1.132003,0.1417521,12.14854,22.17699,-0.02557654,0.001010943,-0.02658548,-0.1952214,-1.324582,-2.864407,0.3007482,1.523718,0.4549377,-0.04655555,-0.005079003,-0.0193037,-1.301284,0.2989515,0.1109212,0.4350411,1.503668,0.3224981,-0.06812413,1.644565,0.6007884,305.9399,108.0719,169.348,True
2,2.211113,-0.01430081,0.06736509,-0.01432576,-1.557702,1.128164,-1.641543,0.1917689,1.43742,0.5845788,-1.129402,0.2352991,12.06897,21.91986,-0.04384151,0.07978524,-0.01675318,-0.1964326,-1.341569,-2.846792,0.3004816,1.52386,0.4547176,-0.05396227,-0.008280215,-0.0139079,-1.301274,0.2987357,0.1118115,0.4348765,1.503764,0.322264,-0.06876277,1.64396,0.6010428,305.6967,108.6913,169.0762,True
2,2.222224,-0.005604388,0.01198323,-0.01728472,-1.556008,1.128102,-1.641788,0.1915874,1.437651,0.5845072,-1.127104,0.2068402,11.93634,21.81273,-0.03851391,0.07873503,-0.01679432,-0.1964923,-1.345613,-2.842576,0.3001955,1.52395,0.4545825,-0.03898341,-0.01149154,-0.007667704,-1.301181,0.2984104,0.111754,0.4346843,1.503781,0.3220568,-0.06985,1.642838,0.6020341,304.9988,109.804,168.5988,True
2,2.233335,0.01585816,-0.03696319,-0.01818392,-1.553792,1.12787,-1.642726,0.191516,1.437875,0.5843477,-1.125596,0.1348673,11.61804,21.44847,-0.02229412,0.03296299,-0.003115197,-0.1966286,-1.338871,-2.849605,0.3001634,1.523944,0.4543774,-0.01650386,-0.01683834,0.003826751,-1.300753,0.2979477,0.1113587,0.4344548,1.50382,0.3218274,-0.0709592,1.64219,0.6029926,304.6902,108.7704,169.5885,True
2,2.244446,0.05028317,-0.1337821,-0.01143067,-1.549008,1.128284,-1.64459,0.1914522,1.43811,0.584204,-1.124356,0.1108885,11.24668,21.06278,0.005729476,-0.006408807,0.02539214,-0.1974239,-1.330535,-2.858815,0.3002724,1.523963,0.4541817,0.009231136,-0.005143646,0.0206303,-1.299968,0.2982518,0.1104085,0.4343595,1.503879,0.3216035,-0.07180725,1.641933,0.6034046,304.5307,107.8956,170.2628,True
2,2.255557,0.05886881,-0.1572218,-0.01772155,-1.546548,1.128252,-1.64548,0.191349,1.438221,0.5841269,-1.122893,0.131101,10.8488,20.5271,0.01002164,-0.02343363,0.02214769,-0.1974015,-1.326822,-2.862762,0.3002146,1.523935,0.4539123,0.02843465,-0.01367768,0.02362513,-1.29971,0.2977469,0.1096684,0.4342829,1.503865,0.3213723,-0.07246273,1.641772,0.6032448,304.4867,108.0156,170.1316,True
2,2.266668,0.06096686,-0.1540693,-0.02733254,-1.544877,1.127754,-1.6462,0.1911771,1.438243,0.5838888,-1.121425,0.131396,10.34483,19.77716,0.009921499,-0.03406109,0.004022958,-0.1965791,-1.324398,-2.865238,0.3000892,1.524012,0.4536722,0.02605895,-0.02856259,-0.0008719517,-1.300613,0.296999,0.1096471,0.4341874,1.503843,0.3211367,-0.07298002,1.641641,0.6027184,304.6552,108.6025,169.7096,True
