loc,t,aDotS,bDotS,gDotS,aS,bS,gS,xS,yS,zS,qE,qDotE,emgA,emgB,aDotSH,bDotSH,gDotSH,aSH,bSH,gSH,xSH,ySH,zSH,aDotUB,bDotUB,gDotUB,aUB,bUB,gUB,xUB,yUB,zUB,xHand,yHand,zHand,aHand,bHand,gHand,enable
1,0,-0.4000996,-0.3471055,0.303795,-1.469256,-4.396577,-2.558392,0.3419002,1.248017,0.4883139,-0.9092959,-0.02199931,10.58355,15.04178,-0.2134764,-0.01994054,0.1528187,-0.4714845,-3.454737,-0.5422041,0.3967233,1.442782,0.4385872,-0.005844817,-0.04002471,-0.08704708,-1.100742,0.5377818,-0.08961217,0.5666056,1.495034,0.3081534,0.06716801,1.1145,0.3844318,304.2749,235.0788,31.90269,True
1,0.01111111,-0.4256418,-0.3546461,0.3038754,-1.469754,-4.391203,-2.553355,0.340454,1.248394,0.4871151,-0.9098125,-0.04676557,10.55703,14.82751,-0.2478604,0.004504889,0.1179518,-0.4718195,-3.453478,-0.5399191,0.3963699,1.442921,0.4381275,-0.004652385,-0.02405592,-0.07425824,-1.101112,0.5380555,-0.08970565,0.566354,1.495025,0.3079133,0.06535137,1.115864,0.3768447,301.5499,240.1131,24.78659,True
1,0.02222222,-0.4724977,-0.3558481,0.3103621,-1.470489,-4.385839,-2.5472,0.3390956,1.248841,0.485868,-0.909804,0.001409116,10.61008,14.61324,-0.268251,0.009801954,0.0978889,-0.4711473,-3.45231,-0.5376118,0.3960314,1.443163,0.4375091,0.001688752,-0.007020094,-0.07962864,-1.102117,0.5382993,-0.09008515,0.5661206,1.49504,0.3076687,0.06242504,1.116615,0.3631689,296.5265,250.3458,8.534831,True
1,0.03333334,-0.5076655,-0.354926,0.3040361,-1.470893,-4.380837,-2.540951,0.3376175,1.249285,0.484684,-0.9096815,0.01126677,10.79576,14.4204,-0.2777767,-0.005146146,0.100059,-0.469869,-3.452033,-0.5344874,0.3956645,1.443328,0.4369872,0.001635186,0.0004416052,-0.08494838,-1.103245,0.5384758,-0.09018981,0.5659457,1.494971,0.3074198,0.06351042,1.116149,0.3444901,296.1004,258.4734,352.6103,True
1,0.04444445,-0.5257504,-0.3614339,0.2955921,-1.470975,-4.375496,-2.535269,0.3362861,1.249616,0.4835193,-0.9088666,0.07468776,10.98143,14.1847,-0.2754461,-0.02436364,0.1181436,-0.4672734,-3.451514,-0.5322239,0.3954899,1.443511,0.4364002,0.002402354,0.00365757,-0.1147923,-1.105648,0.5382504,-0.09019621,0.5658827,1.494848,0.3071134,0.06762213,1.114826,0.3248118,296.5942,255.0353,348.702,True
1,0.05555556,-0.5172512,-0.3668136,0.2753559,-1.470489,-4.370634,-2.53033,0.3347964,1.250122,0.4823782,-0.9090769,-0.01964488,11.11406,13.90615,-0.2731564,-0.0318501,0.1372891,-0.4651264,-3.45023,-0.5303904,0.3951261,1.443669,0.4358225,-0.009627357,0.00900724,-0.1455569,-1.108236,0.5382328,-0.08967795,0.5657916,1.494724,0.3068585,0.07222388,1.114636,0.3078422,297.0872,248.3278,349.4599,True
1,0.06666667,-0.501251,-0.3860704,0.2466624,-1.469267,-4.365355,-2.526047,0.3334007,1.250662,0.4812746,-0.9099861,-0.08259569,11.27321,13.60617,-0.2613103,-0.04036944,0.1531747,-0.4627988,-3.448985,-0.5288215,0.3947821,1.443799,0.4352961,-0.01508426,0.01009498,-0.1582854,-1.110385,0.53833,-0.0893352,0.5656928,1.494607,0.306659,0.07689723,1.114806,0.293991,297.9345,247.5965,345.0915,True
1,0.07777778,-0.5044524,-0.3968155,0.2264714,-1.467964,-4.360401,-2.520869,0.3320005,1.251141,0.4802253,-0.911119,-0.1027157,11.37931,13.30619,-0.2516332,-0.04249202,0.1648206,-0.4605926,-3.44752,-0.527719,0.394351,1.443867,0.4346771,-0.01298589,0.0154242,-0.161498,-1.112322,0.5385656,-0.08937462,0.565558,1.494511,0.3063967,0.08011898,1.115422,0.2841192,298.432,245.821,343.3159,True
1,0.08888889,-0.4970109,-0.4150789,0.1881907,-1.465592,-4.355367,-2.516087,0.330673,1.251669,0.4791114,-0.911966,-0.07653812,11.48541,13.0705,-0.2540255,-0.007301897,0.1446634,-0.4604206,-3.444301,-0.5275368,0.3939606,1.443909,0.4341617,-0.0235121,0.02181147,-0.1485983,-1.113423,0.5390344,-0.0889613,0.5654937,1.494485,0.3061502,0.08117858,1.116588,0.2784732,298.5549,244.4027,342.9854,True
1,0.1,-0.4863666,-0.418287,0.1775315,-1.46419,-4.350517,-2.511512,0.3293794,1.252142,0.4781709,-0.9112362,0.06732128,11.56498,12.89908,-0.2488978,0.03215072,0.1340485,-0.4603327,-3.439672,-0.5290828,0.3935264,1.444022,0.4335756,-0.02970975,0.02818653,-0.1293538,-1.114236,0.5395613,-0.08863399,0.5653378,1.494397,0.3059018,0.08012895,1.118292,0.276765,298.3282,243.917,343.4658,True
1,0.1111111,-0.4618919,-0.4171944,0.1646961,-1.462602,-4.345909,-2.507655,0.3280997,1.252662,0.4772954,-0.9115825,-0.03226613,11.53846,12.77051,-0.2405575,0.05563813,0.1191133,-0.4603876,-3.436003,-0.5298865,0.3930754,1.444201,0.432977,-0.04327293,0.04307232,-0.1004415,-1.114426,0.5406645,-0.08808485,0.5651842,1.494259,0.3055317,0.07737876,1.120456,0.2781464,297.9057,244.3177,344.4425,True
1,0.1222222,-0.4331849,-0.4107645,0.1528897,-1.461017,-4.341311,-2.504118,0.3268941,1.253197,0.4764445,-0.9119031,-0.02891755,11.40584,12.68481,-0.2297995,0.03755406,0.1264614,-0.4588435,-3.434415,-0.5289917,0.3926679,1.444428,0.4324775,-0.0558118,0.05371115,-0.0758021,-1.114594,0.5418203,-0.08752453,0.565046,1.494236,0.3051112,0.07365203,1.122965,0.2814729,297.3486,245.1563,345.8209,True
1,0.1333333,-0.3991743,-0.3979478,0.1335957,-1.459332,-4.337512,-2.501205,0.3257774,1.253653,0.4756486,-0.9126669,-0.06962212,11.27321,12.72766,-0.2136636,0.00669457,0.1348112,-0.4568349,-3.434207,-0.527319,0.3922587,1.44461,0.4318857,-0.06540985,0.05051646,-0.07677326,-1.115498,0.5422477,-0.08667551,0.5649501,1.494135,0.3048167,0.06967989,1.12566,0.2855134,296.7232,246.2739,347.1802,True
1,0.1444445,-0.3662136,-0.3915696,0.1068715,-1.456991,-4.333776,-2.498736,0.3246008,1.254004,0.4745736,-0.9129961,-0.02958837,11.14058,12.87765,-0.2006943,-0.02951059,0.1474422,-0.4541414,-3.434776,-0.5246811,0.3918381,1.444801,0.4312479,-0.07504497,0.05051814,-0.08093702,-1.116632,0.5427044,-0.08565126,0.564744,1.493958,0.3044665,0.06605307,1.128334,0.2891405,296.0822,247.3137,348.3898,True
1,0.1555556,-0.3332391,-0.3872733,0.08867933,-1.454784,-4.330154,-2.496506,0.3235275,1.254439,0.4738538,-0.9135963,-0.05477796,11.00796,13.1562,-0.1994981,-0.02634564,0.167684,-0.4519187,-3.431937,-0.5249469,0.3913734,1.44494,0.4306149,-0.08277397,0.04947755,-0.1074952,-1.118763,0.5431311,-0.08466695,0.5646625,1.493843,0.3041713,0.06317835,1.130782,0.2915034,295.4922,248.0085,349.3496,True
1,0.1666667,-0.2896036,-0.3851265,0.06303627,-1.452164,-4.326414,-2.49522,0.3225535,1.254836,0.4731283,-0.913917,-0.02897042,11.00796,13.54189,-0.1973634,0.009841114,0.185846,-0.4502217,-3.426505,-0.5274963,0.3908092,1.445075,0.4300225,-0.09895744,0.06547844,-0.1275603,-1.120944,0.5443457,-0.08355401,0.5645083,1.493698,0.3040588,0.06120499,1.132814,0.2921364,294.9828,248.2237,350.0087,True
1,0.1777778,-0.2427851,-0.380796,0.04055826,-1.44952,-4.323282,-2.494439,0.3215988,1.255288,0.4726524,-0.9139601,-0.00390948,11.03448,13.90615,-0.1933269,0.0429087,0.1698965,-0.4498175,-3.422086,-0.5292894,0.3902593,1.445123,0.4293938,-0.1053705,0.08039352,-0.1296197,-1.122583,0.5456739,-0.08275826,0.564351,1.493537,0.3038306,0.06011131,1.134291,0.290941,294.6208,247.8723,350.4257,True
1,0.1888889,-0.1917182,-0.368969,0.02656002,-1.447108,-4.320276,-2.494267,0.3208258,1.255702,0.472204,-0.9146195,-0.06049635,11.06101,14.20613,-0.1913228,0.05678628,0.15819,-0.4491629,-3.418276,-0.5306324,0.3897372,1.445266,0.428798,-0.1096419,0.09424338,-0.13063,-1.12421,0.5472044,-0.0820464,0.5642376,1.493423,0.3036132,0.05991449,1.135226,0.2882669,294.462,247.0538,350.5737,True
1,0.2,-0.1630467,-0.3497435,0.01364275,-1.44501,-4.317918,-2.493623,0.3199517,1.256147,0.4717844,-0.9149471,-0.02963245,11.11406,14.44182,-0.1777013,0.0824289,0.1389689,-0.4491187,-3.413875,-0.5328959,0.3892222,1.445439,0.4282558,-0.1074579,0.1016953,-0.1253211,-1.12555,0.5485885,-0.08154359,0.5641114,1.493326,0.3034263,0.06045417,1.135664,0.2846443,294.4549,245.8837,350.566,True
1,0.2111111,-0.1184107,-0.3262216,-0.0003928319,-1.442881,-4.31592,-2.494061,0.3193195,1.256413,0.4713566,-0.9152278,-0.02574232,11.19363,14.61324,-0.1489743,0.09849507,0.1409264,-0.4485919,-3.408714,-0.5368552,0.3887675,1.445666,0.4277527,-0.1148314,0.1080825,-0.1167197,-1.12664,0.5501167,-0.08065064,0.5638982,1.493192,0.3032184,0.06145094,1.135691,0.2807248,294.5775,244.5788,350.4311,True
1,0.2222222,-0.07805149,-0.3005838,-0.01655881,-1.440834,-4.31438,-2.494581,0.3187615,1.256796,0.471071,-0.9144906,0.06732395,11.19363,14.63467,-0.1285565,0.07935749,0.1577911,-0.4466941,-3.405464,-0.5389322,0.3883009,1.445852,0.4273763,-0.1252705,0.1197845,-0.09636132,-1.127122,0.552006,-0.07983358,0.563755,1.49302,0.3030145,0.06257764,1.135405,0.2770789,294.7847,243.3785,350.2415,True
1,0.2333333,-0.04933862,-0.2941582,-0.03155546,-1.43831,-4.312486,-2.495334,0.3181223,1.25713,0.4707789,-0.9151708,-0.06301097,11.16711,14.54896,-0.1187982,0.06337605,0.1747369,-0.4445892,-3.402218,-0.5409021,0.3878717,1.446028,0.4269354,-0.1400225,0.1187058,-0.0802329,-1.127536,0.5534108,-0.07835846,0.5636225,1.492902,0.3028128,0.06343367,1.134935,0.2740959,295.0641,242.4064,350.0923,True
1,0.2444444,-0.01319672,-0.2834965,-0.05616651,-1.435433,-4.310921,-2.496425,0.3176306,1.257402,0.470567,-0.9150275,0.01343589,11.06101,14.35612,-0.1049777,0.06342486,0.1725151,-0.4433843,-3.398365,-0.5434622,0.3876091,1.446154,0.4263561,-0.1452655,0.1250931,-0.07165296,-1.128224,0.555163,-0.07732541,0.5635639,1.492854,0.3027182,0.0639468,1.134392,0.2720803,295.3,241.6676,350.0996,True
1,0.2555556,0.01545626,-0.2589332,-0.06484955,-1.433375,-4.309961,-2.497759,0.3171144,1.257687,0.4703841,-0.9148097,0.01943963,10.95491,14.12042,-0.09240979,0.07203775,0.1458092,-0.4433439,-3.395162,-0.5458029,0.3871978,1.446286,0.4259961,-0.1537663,0.1144385,-0.06944551,-1.128968,0.5560525,-0.0757158,0.5634108,1.492719,0.302587,0.06405064,1.133854,0.2711315,295.5194,241.1807,350.2569,True
1,0.2666667,0.03139409,-0.2428896,-0.0617522,-1.431691,-4.308497,-2.498909,0.316617,1.258095,0.4701469,-0.9148086,-0.0002982421,10.87533,13.88472,-0.08830074,0.06783921,0.1233979,-0.4432256,-3.393126,-0.5466253,0.3867364,1.446433,0.4256015,-0.1570091,0.1101811,-0.07369119,-1.130203,0.5571588,-0.07428116,0.5631973,1.492557,0.302388,0.06372088,1.133351,0.2711371,295.6925,240.848,350.645,True
1,0.2777778,0.03661525,-0.2012905,-0.05232105,-1.431274,-4.307748,-2.4996,0.3160784,1.258296,0.4699938,-0.9147831,0.002092923,10.79576,13.69188,-0.09062526,0.07853273,0.1010647,-0.4435974,-3.389965,-0.5483454,0.3862951,1.446612,0.4252875,-0.1550832,0.1059371,-0.09395595,-1.132018,0.5581388,-0.07303027,0.5630398,1.492435,0.3022611,0.06307599,1.132895,0.2719165,295.8183,240.6864,351.1455,True
1,0.2888889,0.03121843,-0.1767803,-0.04602101,-1.430368,-4.307016,-2.499879,0.3155502,1.258505,0.4697521,-0.9141993,0.05317817,10.76923,13.49904,-0.06616734,0.05946086,0.0870043,-0.4431841,-3.389227,-0.5490184,0.3858439,1.446689,0.4249709,-0.1466183,0.1059538,-0.09831286,-1.133488,0.5595628,-0.07212187,0.5629033,1.492417,0.3020201,0.06220194,1.132492,0.2731905,295.9444,240.8063,351.5714,True
1,0.3,0.00761993,-0.1224921,-0.03447681,-1.43066,-4.307206,-2.499067,0.3152128,1.258677,0.4694092,-0.9134994,0.06330682,10.76923,13.28477,-0.04290218,0.04361824,0.05697916,-0.4435239,-3.389569,-0.5488642,0.3854601,1.446971,0.42467,-0.1359117,0.1176673,-0.09308441,-1.13449,0.5614242,-0.07177858,0.5627623,1.492332,0.3018894,0.06123148,1.13216,0.2746049,296.0879,241.0864,351.9479,True
1,0.3111111,-0.02343289,-0.06499538,-0.01654619,-1.431814,-4.307991,-2.497602,0.3147476,1.25886,0.4690721,-0.9128315,0.06044097,10.79576,13.02764,-0.0481023,0.02973063,0.06870833,-0.442506,-3.388428,-0.549228,0.3850695,1.4472,0.4243836,-0.1251322,0.1101898,-0.08040894,-1.134836,0.562463,-0.07118683,0.5623375,1.492039,0.3017745,0.06023172,1.131907,0.2758353,296.203,241.4416,352.2116,True
1,0.3222222,-0.04803272,-0.02988052,-0.007056827,-1.432526,-4.308547,-2.496169,0.3141918,1.259147,0.4687302,-0.9117098,0.1019948,10.87533,12.72766,-0.05755029,0.02860037,0.08794728,-0.4412591,-3.385736,-0.550648,0.3847002,1.447354,0.4240627,-0.1293111,0.08995309,-0.07187303,-1.135594,0.5628951,-0.06970531,0.5622556,1.492061,0.3017612,0.05931072,1.131761,0.2766585,296.2958,241.7023,352.4379,True
1,0.3333333,-0.0896422,-0.007636136,-0.0006662086,-1.433228,-4.308784,-2.4936,0.3135373,1.259627,0.4682727,-0.9110419,0.06025162,10.95491,12.42768,-0.07551152,0.03808005,0.1136613,-0.4397753,-3.381556,-0.5528738,0.3843369,1.447467,0.4238193,-0.137694,0.05585204,-0.05796751,-1.135688,0.5622742,-0.06764456,0.5620253,1.491983,0.3016644,0.05852304,1.131804,0.2769586,296.4016,241.9935,352.4422,True
1,0.3444445,-0.1419023,-0.001487656,-0.01657255,-1.432435,-4.309228,-2.490097,0.3128121,1.260152,0.4677303,-0.9110749,-0.00337649,11.00796,12.17056,-0.09041049,0.04441721,0.1201696,-0.4388911,-3.378115,-0.5544084,0.3840279,1.447446,0.4234231,-0.1482504,0.04305871,-0.04828878,-1.135995,0.5623387,-0.06562162,0.5616014,1.491808,0.3015311,0.05780111,1.132125,0.2767003,296.4926,242.241,352.2729,True
1,0.3555556,-0.2207952,-0.002954807,-0.04837042,-1.431143,-4.310215,-2.484722,0.3117385,1.260675,0.4672596,-0.9100543,0.09354313,11.03448,11.91343,-0.1055611,0.0263387,0.07869494,-0.4391547,-3.379297,-0.5516906,0.3836709,1.447465,0.4231079,-0.1130366,0.05903001,-0.04329943,-1.136265,0.5636011,-0.06617236,0.5612438,1.491889,0.3014636,0.05712913,1.132782,0.2759557,296.5161,242.2918,352.1202,True
1,0.3666667,-0.3370359,0.01033453,-0.08761527,-1.429699,-4.312051,-2.476961,0.3103307,1.261324,0.4668021,-0.9092644,0.07152977,11.00796,11.69916,-0.1099407,0.002942182,0.05311353,-0.4390604,-3.381205,-0.5484783,0.3833477,1.447568,0.4228966,-0.09075364,0.07288282,-0.05309714,-1.137265,0.5648788,-0.06659314,0.5610115,1.491824,0.3012769,0.05641492,1.133828,0.2748004,296.4853,242.1609,352.0387,True
1,0.3777778,-0.3647809,0.01552132,-0.09503707,-1.428906,-4.312942,-2.472041,0.3094594,1.261871,0.4663494,-0.9077555,0.137668,10.90185,11.5706,-0.1279763,-0.01416348,0.05640699,-0.4380138,-3.381583,-0.5460769,0.3829055,1.447764,0.4226141,-0.06104521,0.07289182,-0.0651161,-1.138444,0.5656882,-0.06732551,0.5607687,1.491796,0.3011732,0.05549864,1.13528,0.2733667,296.3531,241.7319,352.125,True
1,0.3888889,-0.4703416,0.03426781,-0.1108873,-1.428141,-4.314898,-2.46288,0.3078085,1.262732,0.4658771,-0.9058657,0.1720986,10.82228,11.50632,-0.1339779,-0.06431485,0.08937559,-0.4350007,-3.383679,-0.5424784,0.3824196,1.44803,0.4224758,-0.04837327,0.06652073,-0.07698035,-1.139878,0.5662132,-0.06740221,0.5607523,1.491917,0.3010166,0.05408103,1.137171,0.2718248,296.164,241.1776,352.2226,True
1,0.4,-0.5141031,0.04996905,-0.1193517,-1.427811,-4.316497,-2.455709,0.3064466,1.263473,0.4654074,-0.90898,-0.2856766,10.76923,11.46347,-0.1317993,-0.06538504,0.09575057,-0.4335499,-3.383629,-0.5411639,0.3820171,1.44821,0.422195,-0.04316533,0.06759567,-0.08875091,-1.141326,0.5669757,-0.06741846,0.5605111,1.491882,0.3008993,0.05210122,1.139647,0.2704176,295.9272,240.7277,352.306,True
1,0.4111111,-0.5780745,0.06362964,-0.128894,-1.427043,-4.318581,-2.446805,0.3048229,1.26449,0.4648528,-0.9058418,0.2899826,10.76923,11.44204,-0.1104461,-0.0589506,0.1051968,-0.432198,-3.382825,-0.5414507,0.3814738,1.448627,0.421869,-0.05485304,0.07185766,-0.08437161,-1.142213,0.5680872,-0.06659713,0.5601954,1.491707,0.300777,0.04999175,1.142691,0.2693963,295.4143,240.4258,352.4662,True
1,0.4222222,-0.6111298,0.07200218,-0.1363092,-1.426275,-4.320346,-2.439118,0.303398,1.265471,0.4642386,-0.9079824,-0.1980352,10.82228,11.37776,-0.1199,-0.06008106,0.1233695,-0.4301692,-3.381918,-0.5406215,0.380995,1.448797,0.4215586,-0.05270395,0.0580207,-0.08227188,-1.143018,0.5684242,-0.06620245,0.5599223,1.491775,0.300555,0.04740493,1.146237,0.268632,294.9182,240.3004,352.6064,True
1,0.4333333,-0.6623311,0.08455947,-0.1479777,-1.425612,-4.322781,-2.429546,0.3016467,1.266648,0.463577,-0.9071978,0.07413586,10.92838,11.3349,-0.1515675,-0.09538426,0.1490943,-0.4268147,-3.383434,-0.5364733,0.3805134,1.44911,0.4211924,-0.06359418,0.03353875,-0.10562,-1.144919,0.5677473,-0.06486049,0.5596446,1.491758,0.3004479,0.04462675,1.150232,0.2681623,294.2571,240.1963,352.8842,True
1,0.4444444,-0.7146565,0.1077273,-0.1735374,-1.424815,-4.326003,-2.419462,0.2999038,1.267725,0.4629157,-0.9087723,-0.1444135,11.03448,11.29205,-0.1641589,-0.1242108,0.1640466,-0.4235454,-3.385482,-0.5322801,0.3800153,1.449397,0.4207857,-0.07873602,0.03460682,-0.1288866,-1.146928,0.5678879,-0.06362824,0.5590036,1.491762,0.300426,0.04165427,1.154564,0.2678719,293.5674,240.1113,353.2437,True
1,0.4555556,-0.7691159,0.1319556,-0.191636,-1.424509,-4.329527,-2.408508,0.2980681,1.268757,0.4623203,-0.907665,0.1028731,11.11406,11.2492,-0.1766542,-0.1573253,0.1907008,-0.4196609,-3.38803,-0.5276811,0.3795055,1.449657,0.4203558,-0.07668295,0.06763227,-0.1374023,-1.148874,0.5697715,-0.0637124,0.5586303,1.491778,0.3003123,0.03867757,1.159091,0.2676872,292.7926,239.9967,353.679,True
1,0.4666667,-0.8107572,0.144487,-0.2171733,-1.423445,-4.333294,-2.397508,0.2960967,1.269888,0.4616985,-0.9076266,0.00289259,11.14058,11.20634,-0.1946499,-0.1542229,0.2089464,-0.4163458,-3.387702,-0.5251477,0.3788565,1.449743,0.4198647,-0.06694661,0.07932793,-0.1225687,-1.149644,0.5709301,-0.0637686,0.5581644,1.491636,0.3001928,0.03552865,1.1637,0.2674411,292.0832,239.892,354.0584,True
1,0.4777778,-0.8449012,0.1517344,-0.2341602,-1.422481,-4.336571,-2.386736,0.2941251,1.271001,0.4609976,-0.9073645,0.02442538,11.08753,11.20634,-0.2170468,-0.1095825,0.2251713,-0.4138403,-3.383247,-0.5260025,0.3781321,1.44996,0.4192424,-0.05620385,0.09423101,-0.114144,-1.150744,0.5724694,-0.06422346,0.5576909,1.491603,0.3000367,0.03222706,1.168357,0.2671198,291.395,239.7169,354.433,True
1,0.4888889,-0.8332145,0.1506273,-0.2490865,-1.421275,-4.340058,-2.377223,0.2919515,1.272241,0.4602754,-0.907878,-0.04677897,11.03448,11.3349,-0.2225311,-0.04569763,0.2317251,-0.4122158,-3.376262,-0.5296811,0.3774074,1.45017,0.4186418,-0.0817981,0.1070099,-0.1170676,-1.152246,0.5740269,-0.06310387,0.5572445,1.49155,0.2998226,0.02879094,1.173064,0.2667402,290.7386,239.5314,354.7687,True
1,0.5,-0.8172561,0.1430932,-0.2703645,-1.419712,-4.343358,-2.368309,0.2900175,1.273448,0.4595444,-0.9086029,-0.06550258,11.00796,11.61346,-0.209961,-0.01366948,0.2167809,-0.411019,-3.372227,-0.5313688,0.3767884,1.450529,0.4180741,-0.08923525,0.112303,-0.114837,-1.153201,0.5750444,-0.06228255,0.5566972,1.491352,0.2996097,0.02527369,1.177831,0.2663353,290.0893,239.2099,355.2371,True
1,0.5111111,-0.8237497,0.1513918,-0.2841846,-1.418604,-4.347241,-2.358347,0.2880203,1.274859,0.4588418,-0.9103633,-0.1601315,11.00796,12.02057,-0.2097425,-0.03075884,0.2401838,-0.4076346,-3.369767,-0.5313379,0.3760032,1.450888,0.417392,-0.09774648,0.108041,-0.113689,-1.154428,0.5761214,-0.06136908,0.5562155,1.49135,0.2993276,0.02177353,1.18264,0.2659108,289.43,238.8475,355.7727,True
1,0.5222223,-0.8365418,0.1664304,-0.2885511,-1.417767,-4.351451,-2.347805,0.2861816,1.276263,0.4581182,-0.9113582,-0.08948936,11.11406,12.44911,-0.2245065,-0.03723598,0.2594488,-0.4042455,-3.366874,-0.530874,0.3752395,1.451225,0.416791,-0.09987766,0.09948235,-0.1147058,-1.155303,0.5764063,-0.06049956,0.5556169,1.491278,0.2990634,0.01836748,1.187418,0.2654904,288.7266,238.3883,356.3984,True
1,0.5333334,-0.8611804,0.1982546,-0.2790248,-1.418221,-4.355922,-2.336488,0.2843078,1.277679,0.4573343,-0.9106301,0.06727134,11.22016,12.87765,-0.2318905,-0.03408571,0.2712256,-0.4011003,-3.3629,-0.5316681,0.3744483,1.451559,0.4160631,-0.1030088,0.0941508,-0.1082862,-1.156356,0.5772814,-0.05957545,0.5550507,1.491292,0.2987521,0.01519314,1.192048,0.2651286,288.0313,237.8763,357.0573,True
1,0.5444446,-0.8782127,0.2068326,-0.275868,-1.417919,-4.359927,-2.325634,0.2822593,1.278982,0.4566183,-0.9101742,0.04119097,11.32626,13.28477,-0.2383855,-0.02662082,0.2606313,-0.3990523,-3.359662,-0.5317672,0.3736934,1.452,0.4152858,-0.110348,0.0972939,-0.09858996,-1.156687,0.5779067,-0.0586729,0.5544397,1.491469,0.2984381,0.01211432,1.19653,0.264807,287.4833,237.4771,357.5745,True
1,0.5555557,-0.881439,0.2153466,-0.2748442,-1.417816,-4.364038,-2.315189,0.2801922,1.280287,0.4558182,-0.9096271,0.04988493,11.43236,13.69188,-0.2394015,-0.02557306,0.2680978,-0.3961697,-3.355965,-0.532498,0.3729061,1.452369,0.4145758,-0.1092827,0.104751,-0.09859484,-1.157849,0.5793775,-0.05810059,0.5538628,1.491484,0.2981219,0.009062813,1.200958,0.2645253,287.0515,237.2328,357.9541,True
1,0.5666668,-0.8719088,0.2206132,-0.2855211,-1.41747,-4.368433,-2.305135,0.2779949,1.281564,0.4550457,-0.9102205,-0.05445087,11.48541,14.05614,-0.2273146,-0.07885616,0.2966811,-0.3910703,-3.35612,-0.5303025,0.3719767,1.452721,0.4138305,-0.1089902,0.108949,-0.07193183,-1.157389,0.5802799,-0.05762655,0.5532649,1.491575,0.2978265,0.00591641,1.205471,0.2642308,286.6516,237.1482,358.2106,True
1,0.577778,-0.8665318,0.2132277,-0.2961971,-1.416534,-4.372541,-2.295169,0.2758667,1.282896,0.4540226,-0.9109353,-0.06474306,11.37931,14.33469,-0.2325901,-0.08632924,0.3009759,-0.3875144,-3.353669,-0.5297192,0.3710612,1.452911,0.4130917,-0.1065934,0.1120971,-0.04743083,-1.156908,0.5813465,-0.05722494,0.5527372,1.491542,0.2974443,0.00266786,1.210121,0.2639014,286.1565,236.8467,358.692,True
1,0.5888891,-0.8558905,0.1960403,-0.3046123,-1.415489,-4.376348,-2.285401,0.2737615,1.284344,0.453254,-0.9115782,-0.0581635,11.27321,14.46325,-0.2476573,-0.05865964,0.2915474,-0.3850702,-3.349244,-0.5305717,0.3701055,1.453292,0.4122565,-0.1235836,0.1206148,-0.0419254,-1.157265,0.5830837,-0.05600362,0.5520706,1.491535,0.2970748,-0.0006410696,1.214895,0.2635494,285.5575,236.4067,359.2978,True
1,0.6000003,-0.8483545,0.1822559,-0.2971122,-1.414788,-4.379635,-2.275867,0.2716905,1.285889,0.4522927,-0.9117593,-0.01603511,11.11406,14.46325,-0.2488561,-0.03733288,0.2862741,-0.3825855,-3.344105,-0.5321521,0.3692333,1.453729,0.4113257,-0.1331603,0.136558,-0.04180324,-1.157686,0.5847614,-0.05503902,0.5515451,1.491497,0.2967529,-0.003991857,1.219726,0.2632075,284.8874,235.8398,0.03249341,True
1,0.6111114,-0.8280253,0.1674906,-0.2800466,-1.414197,-4.382473,-2.2669,0.2696673,1.287424,0.4513776,-0.9119574,-0.0180223,10.98143,14.4204,-0.2425557,-0.03941727,0.2723764,-0.3800981,-3.341604,-0.5319813,0.3683198,1.45415,0.4104714,-0.1268448,0.1557396,-0.04930922,-1.158619,0.5873324,-0.0548454,0.5508655,1.491554,0.2963662,-0.007285579,1.224537,0.2628846,284.2339,235.1279,0.9432068,True
1,0.6222225,-0.8205644,0.1739605,-0.2704985,-1.414265,-4.385923,-2.257486,0.2677459,1.288873,0.4503307,-0.9121401,-0.01656125,10.95491,14.4204,-0.2361731,-0.05533521,0.2659397,-0.3769374,-3.33925,-0.5315086,0.3674642,1.454468,0.4095833,-0.1227168,0.155736,-0.06424905,-1.159652,0.5888662,-0.05451304,0.5502273,1.491628,0.2960448,-0.01041917,1.229294,0.2626032,283.6481,234.3975,1.866937,True
1,0.6333337,-0.8121279,0.1941969,-0.2759247,-1.414478,-4.390304,-2.248081,0.2656593,1.290341,0.4492693,-0.9126318,-0.04484086,10.95491,14.37754,-0.2476122,-0.08737861,0.2915275,-0.3723637,-3.338389,-0.5291765,0.3665259,1.454918,0.4086504,-0.1079863,0.1461635,-0.08251673,-1.161281,0.5902041,-0.0543418,0.5495411,1.49171,0.2956123,-0.01338309,1.233988,0.2622863,283.1149,233.8054,2.692888,True
1,0.6444448,-0.8132099,0.1952499,-0.2833938,-1.414047,-4.394575,-2.238257,0.2635779,1.291807,0.448179,-0.9122834,0.03219344,10.87533,14.33469,-0.2513569,-0.1375648,0.3436552,-0.3659375,-3.338388,-0.5261741,0.3654646,1.455439,0.4076147,-0.09944854,0.1323061,-0.08259591,-1.161985,0.5911262,-0.05407415,0.5488092,1.491812,0.2951236,-0.01615166,1.238586,0.261869,282.5814,233.2231,3.500517,True
1,0.655556,-0.8132111,0.2016484,-0.2652771,-1.414622,-4.397752,-2.228812,0.2614016,1.293123,0.446768,-0.9123441,-0.005891228,10.74271,14.37754,-0.2476609,-0.1366235,0.4150088,-0.3592088,-3.332006,-0.5295099,0.364398,1.455855,0.4065504,-0.09945224,0.1291113,-0.08260207,-1.163032,0.5925393,-0.05347254,0.548215,1.491751,0.294627,-0.01885542,1.243092,0.2612922,282.0724,232.6696,4.210402,True
1,0.6666671,-0.812139,0.2166994,-0.2440557,-1.4157,-4.401171,-2.219349,0.2590494,1.294372,0.4456182,-0.911893,0.04132322,10.50398,14.48468,-0.2612977,-0.1314094,0.4481397,-0.3534601,-3.326416,-0.5313752,0.3633538,1.456274,0.4054945,-0.1067286,0.1312361,-0.06441347,-1.163218,0.594338,-0.05269863,0.5475928,1.49188,0.2940493,-0.02166588,1.247535,0.2605888,281.5935,231.8995,5.037702,True
1,0.6777782,-0.8142174,0.2157409,-0.2206138,-1.416573,-4.404059,-2.209742,0.2567711,1.295717,0.4446487,-0.9120411,-0.01396413,10.05305,14.67752,-0.277208,-0.1463782,0.4514169,-0.3480576,-3.324473,-0.5295917,0.3622416,1.456586,0.4044304,-0.1181335,0.1439902,-0.03444864,-1.162544,0.5965601,-0.05202858,0.5466815,1.491951,0.2935162,-0.02460207,1.251947,0.2598239,281.1379,231.0182,5.994995,True
1,0.6888894,-0.8088365,0.2137263,-0.1950427,-1.41771,-4.406528,-2.200613,0.2543301,1.296877,0.4435112,-0.9120815,-0.003482022,9.628648,14.87037,-0.2974429,-0.1230409,0.4633191,-0.3430316,-3.318302,-0.5313544,0.3609847,1.45684,0.4035146,-0.1308263,0.1482367,-0.02578386,-1.162509,0.5984227,-0.05097423,0.5456252,1.491868,0.2930298,-0.02762849,1.256347,0.2589578,280.6438,230.3915,6.768625,True
1,0.7000005,-0.8034457,0.2009984,-0.185403,-1.418163,-4.409029,-2.191584,0.2520181,1.298062,0.4423497,-0.9118519,0.02097309,9.204244,15.02035,-0.2996257,-0.1166561,0.4601448,-0.3381725,-3.313858,-0.5321363,0.3597538,1.457024,0.402559,-0.1339598,0.1567524,-0.02040724,-1.162541,0.6005895,-0.0503886,0.5447873,1.491877,0.2925177,-0.03064983,1.260726,0.2580383,280.1422,229.7786,7.468555,True
1,0.7111117,-0.7862751,0.1809357,-0.1597867,-1.418696,-4.410573,-2.183221,0.2495427,1.299074,0.4410851,-0.9122354,-0.03525584,8.832892,15.17034,-0.2904256,-0.1080063,0.4089607,-0.3352531,-3.311679,-0.5312921,0.3583586,1.457239,0.4014683,-0.1317577,0.1748546,-0.01295308,-1.162514,0.6032866,-0.05003574,0.543789,1.491842,0.2920816,-0.03356684,1.265098,0.2571257,279.6582,229.0014,8.296991,True
1,0.7222228,-0.7724237,0.1852788,-0.1513068,-1.419775,-4.413099,-2.174667,0.2471381,1.300252,0.4398923,-0.9123633,-0.01136247,8.620689,15.32033,-0.2969845,-0.1292818,0.3759405,-0.3313473,-3.313029,-0.5264819,0.3570072,1.457569,0.4004509,-0.1349296,0.1844226,-0.01077405,-1.162578,0.6055703,-0.04940643,0.5428664,1.491895,0.291554,-0.03641582,1.269444,0.2561936,279.1298,228.0257,9.352592,True
1,0.7333339,-0.7500927,0.1992249,-0.1471521,-1.421161,-4.415887,-2.16661,0.2447344,1.301224,0.4386013,-0.9128363,-0.04323292,8.541114,15.34176,-0.322514,-0.1634314,0.3664672,-0.3266085,-3.315282,-0.5198869,0.3554458,1.457823,0.3992534,-0.1369959,0.2025273,-0.004346251,-1.162557,0.6087192,-0.04904051,0.5418448,1.491933,0.2910142,-0.03916324,1.273715,0.2552314,278.5845,226.6897,10.79369,True
1,0.7444451,-0.7298577,0.2025145,-0.1440238,-1.422168,-4.418699,-2.158669,0.2425189,1.302058,0.4371972,-0.9127585,0.007401486,8.541114,15.27748,-0.3426723,-0.1613961,0.3783305,-0.321622,-3.312851,-0.5178146,0.3539445,1.458027,0.39801,-0.1529345,0.2227509,-0.0009597316,-1.162431,0.6118621,-0.04821786,0.5409867,1.49196,0.2905648,-0.0418591,1.277851,0.2541737,278.0367,225.2505,12.32197,True
1,0.7555562,-0.707508,0.2122068,-0.1377189,-1.423702,-4.421357,-2.151054,0.2401537,1.302951,0.4359586,-0.9131676,-0.03756565,8.647213,15.14892,-0.3448984,-0.1156076,0.3848265,-0.317836,-3.304894,-0.5213963,0.3523735,1.45834,0.3967733,-0.1636199,0.2397979,-0.004033495,-1.162749,0.615413,-0.0474341,0.5399176,1.491988,0.2900283,-0.04455102,1.281853,0.2530518,277.5565,223.9367,13.65731,True
1,0.7666674,-0.665957,0.2273892,-0.1101738,-1.426131,-4.423301,-2.144674,0.2378752,1.303801,0.4346092,-0.9131995,-0.002697566,8.753316,14.95607,-0.3026479,-0.01639591,0.3772576,-0.3162099,-3.289497,-0.5340258,0.3507139,1.458579,0.395472,-0.1840053,0.2525999,-0.01978489,-1.163576,0.6189198,-0.04629506,0.5387295,1.491967,0.2893434,-0.0472316,1.285687,0.2519343,277.0735,222.4589,15.15878,True
1,0.7777785,-0.6020393,0.2383438,-0.09224144,-1.428405,-4.425299,-2.139752,0.2357412,1.304581,0.4330623,-0.9133438,-0.0133312,8.753316,14.78466,-0.2825855,-0.01521838,0.3526168,-0.3133955,-3.285009,-0.5357902,0.3491504,1.458796,0.3941021,-0.1998398,0.2728263,-0.005754843,-1.163298,0.6229557,-0.04518745,0.537523,1.491992,0.2887664,-0.04985125,1.289308,0.2508673,276.6208,220.787,16.8731,True
1,0.7888896,-0.5371151,0.239521,-0.119012,-1.42951,-4.428634,-2.135454,0.2335195,1.30542,0.4317408,-0.9142931,-0.08679609,8.700266,14.61324,-0.2964716,-0.03228708,0.3399007,-0.3099275,-3.282646,-0.5342504,0.3474647,1.459022,0.3926053,-0.200891,0.2845364,-0.003608719,-1.163463,0.6267267,-0.04433897,0.5363841,1.492223,0.2881076,-0.05246041,1.292736,0.2498645,276.2189,219.578,18.1271,True
1,0.8000008,-0.5105084,0.2277431,-0.1541681,-1.4297,-4.432244,-2.130019,0.2312211,1.306299,0.4304883,-0.9155671,-0.1159306,8.647213,14.46325,-0.3281345,-0.03566349,0.3805969,-0.3048009,-3.274752,-0.5370419,0.3457132,1.459139,0.3911474,-0.1922879,0.2866858,0.0004987307,-1.163612,0.6302566,-0.04377811,0.535199,1.492277,0.2874784,-0.05498279,1.295952,0.2488995,275.8027,219.0257,18.81686,True
1,0.8111119,-0.4667974,0.1818187,-0.2158447,-1.427771,-4.436301,-2.125671,0.2286675,1.307038,0.4293001,-0.9160901,-0.04718703,8.56764,14.31326,-0.3451189,-0.02828181,0.3924497,-0.3006395,-3.266798,-0.5402164,0.3438514,1.459166,0.3896048,-0.1837435,0.2781312,0.006869445,-1.16331,0.6332199,-0.04325586,0.5337521,1.492324,0.2867498,-0.0573896,1.298864,0.2479227,275.39,217.9126,20.08281,True
1,0.8222231,-0.4593278,0.1593201,-0.2498406,-1.426794,-4.439901,-2.120194,0.2261304,1.307664,0.428359,-0.9145897,0.1371031,8.56764,14.1847,-0.3388878,0.007960707,0.3860867,-0.2977861,-3.256562,-0.5464362,0.341932,1.459187,0.3880942,-0.1878277,0.2834499,0.02502993,-1.162568,0.6370313,-0.04243774,0.5323888,1.492287,0.286128,-0.05983679,1.301398,0.2469953,275.0828,215.4471,22.55939,True
1,0.8333342,-0.4571899,0.145391,-0.2700253,-1.425898,-4.443663,-2.11462,0.2235667,1.308319,0.4272676,-0.9151804,-0.05550645,8.620689,14.05614,-0.3207822,0.04846451,0.4030828,-0.294454,-3.242068,-0.5572907,0.339983,1.459191,0.386579,-0.1939181,0.32071,0.0549528,-1.161159,0.6423635,-0.04221324,0.530915,1.492344,0.285382,-0.06254794,1.303605,0.2461959,274.9467,212.4698,25.48446,True
1,0.8444453,-0.4508224,0.148581,-0.2764435,-1.425842,-4.447408,-2.109201,0.221017,1.308921,0.42624,-0.9137449,0.1315577,8.726789,13.88472,-0.2930813,0.08899347,0.4221386,-0.2911687,-3.225487,-0.5707189,0.337887,1.459092,0.3850513,-0.1925349,0.3579785,0.08586704,-1.159495,0.6482673,-0.04252935,0.5294402,1.492476,0.2846682,-0.06557593,1.305488,0.2456532,274.898,208.7648,29.15231,True
1,0.8555565,-0.4486485,0.1379483,-0.2732051,-1.42537,-4.450593,-2.103787,0.2183693,1.309475,0.4252911,-0.9132571,0.04327368,8.832892,13.71331,-0.2760897,0.08906054,0.4145616,-0.28804,-3.214183,-0.5790644,0.3358113,1.459032,0.3835213,-0.1912863,0.3632896,0.1039698,-1.157898,0.6529771,-0.04231816,0.5279225,1.492532,0.2839053,-0.06885533,1.307133,0.2454453,274.8905,207.1505,30.85583,True
1,0.8666676,-0.4421912,0.1252142,-0.266776,-1.424717,-4.453481,-2.098709,0.2158228,1.309707,0.4240282,-0.9132043,0.004479186,8.938992,13.52046,-0.2357977,0.1020069,0.392991,-0.2858829,-3.203081,-0.5883594,0.3335686,1.458828,0.3820179,-0.1890777,0.3579596,0.1113987,-1.15667,0.6570978,-0.0419573,0.5263026,1.492641,0.2830715,-0.07231445,1.308701,0.2455156,274.9031,207.1502,31.13523,True
1,0.8777788,-0.4241121,0.1327127,-0.2700444,-1.424484,-4.457065,-2.094075,0.2133592,1.310221,0.4230106,-0.9129838,0.02006216,8.965518,13.32762,-0.1803846,0.07981384,0.3861647,-0.2824969,-3.194503,-0.5962471,0.3314086,1.458637,0.3805215,-0.1856331,0.3504813,0.1358606,-1.154494,0.6611861,-0.04167288,0.524588,1.492736,0.2822492,-0.0758068,1.310321,0.2457862,274.8817,207.5506,31.11963,True
1,0.8888899,-0.3986576,0.1411925,-0.2796789,-1.424603,-4.460879,-2.089893,0.2107536,1.310493,0.4221184,-0.913117,-0.01248321,9.045091,13.13477,-0.1546256,0.04684216,0.3987024,-0.278238,-3.186197,-0.6033088,0.3291731,1.458404,0.37905,-0.1885522,0.3494042,0.1625215,-1.152018,0.6656536,-0.04134345,0.5228642,1.492672,0.281466,-0.07922862,1.312057,0.2461133,274.7756,207.0107,32.11721,True
1,0.900001,-0.3762864,0.1487492,-0.2979071,-1.424219,-4.465473,-2.08579,0.2081216,1.310871,0.4216933,-0.9135346,-0.03812946,9.098145,12.96336,-0.1492829,0.04578443,0.4007947,-0.274802,-3.175224,-0.6121814,0.326847,1.458207,0.3775702,-0.1947516,0.3408706,0.1828117,-1.149637,0.6697379,-0.04048431,0.5211012,1.492811,0.2807107,-0.08246238,1.313884,0.2463307,274.5894,205.3756,34.20398,True
1,0.9111122,-0.3497586,0.16043,-0.3278405,-1.423803,-4.470707,-2.082106,0.2054585,1.310998,0.4208972,-0.9138775,-0.03116854,9.151194,12.79194,-0.1654304,0.08090608,0.3924547,-0.2726624,-3.160357,-0.6241435,0.3245258,1.457918,0.3760371,-0.2009919,0.3365965,0.1977862,-1.147092,0.6738057,-0.0397309,0.5192764,1.492829,0.2798641,-0.08550055,1.315799,0.2464059,274.4053,202.8627,36.98391,True
1,0.9222233,-0.3338226,0.1593358,-0.3470408,-1.423182,-4.475384,-2.078126,0.2028745,1.311077,0.4201517,-0.913884,-0.0005198333,9.204244,12.64195,-0.1612519,0.1160646,0.3967525,-0.2705495,-3.143335,-0.6388454,0.3222808,1.457864,0.3745534,-0.1986676,0.3440476,0.2169454,-1.144354,0.678465,-0.03955673,0.5175111,1.492857,0.278975,-0.08844655,1.317736,0.2464084,274.2225,198.8802,41.0174,True
1,0.9333345,-0.2986868,0.160493,-0.3545759,-1.422712,-4.47997,-2.075319,0.2002704,1.311019,0.4193735,-0.9141508,-0.0245964,9.28382,12.51339,-0.1337943,0.1183456,0.3635384,-0.2690586,-3.132386,-0.6488709,0.3198476,1.457556,0.3729622,-0.1887464,0.3663913,0.2498897,-1.140668,0.6838713,-0.04006939,0.5156485,1.492865,0.2781274,-0.09142729,1.31963,0.2465136,274.0932,193.683,46.15851,True
1,0.9444456,-0.2423301,0.1819286,-0.3686412,-1.42279,-4.485253,-2.073691,0.1978488,1.310826,0.4180202,-0.9135671,0.05339687,9.363397,12.40626,-0.134259,0.1280556,0.3028296,-0.2691763,-3.124993,-0.6544457,0.317395,1.457321,0.3713551,-0.1878113,0.3855908,0.237112,-1.138716,0.6895262,-0.04035648,0.5138127,1.49296,0.2771316,-0.09455873,1.321378,0.2468141,273.9662,187.858,52.0486,True
1,0.9555568,-0.200795,0.1820519,-0.3740545,-1.42248,-4.490093,-2.072145,0.1954132,1.310747,0.4172759,-0.9144171,-0.07837008,9.496022,12.29912,-0.1375912,0.1504355,0.2933088,-0.2683715,-3.111056,-0.6662414,0.3148769,1.45713,0.3697932,-0.1977544,0.3856203,0.2020561,-1.13783,0.6942799,-0.03982704,0.5118954,1.493036,0.2762618,-0.09778866,1.322884,0.2473248,273.8632,182.9124,57.22314,True
1,0.9666679,-0.1368402,0.176982,-0.3677668,-1.422217,-4.49427,-2.072167,0.1931832,1.310697,0.4169488,-0.9154968,-0.09821852,9.628648,12.21341,-0.1357453,0.1867048,0.2688608,-0.2686773,-3.096029,-0.6792805,0.3122951,1.456719,0.3681633,-0.2217316,0.3622432,0.1490091,-1.138203,0.6978905,-0.03797721,0.5097965,1.493123,0.2754319,-0.101069,1.324061,0.2479747,273.7456,178.6762,61.85675,True
1,0.977779,-0.09527659,0.1771655,-0.3593314,-1.422161,-4.498428,-2.072006,0.1910062,1.310512,0.4161975,-0.9152358,0.02437536,9.734747,12.14913,-0.1300687,0.1943759,0.170828,-0.2713026,-3.092617,-0.6812803,0.3097972,1.456377,0.3666189,-0.2291016,0.3419955,0.157589,-1.136255,0.7013015,-0.03667572,0.5076289,1.49316,0.2746251,-0.104333,1.324794,0.2486633,273.6405,175.3641,65.62775,True
1,0.9888902,-0.01757423,0.2073424,-0.3425844,-1.423464,-4.502867,-2.073733,0.1890852,1.309919,0.4150882,-0.9162222,-0.09080968,9.787797,12.08485,-0.1335375,0.2072091,0.1378494,-0.2726827,-3.084572,-0.687404,0.3073992,1.456046,0.3654118,-0.215159,0.3515894,0.1670375,-1.134222,0.7062445,-0.03690263,0.5055817,1.493211,0.2738533,-0.1074608,1.32504,0.2494181,273.6349,174.4798,66.80582,True
1,1.000001,0.008966118,0.2362024,-0.3395576,-1.424764,-4.507572,-2.073929,0.1870093,1.309679,0.4144263,-0.9156768,0.05030397,9.734747,12.042,-0.1073668,0.2393527,0.08659177,-0.2755882,-3.07506,-0.6962067,0.3049769,1.455715,0.3640437,-0.1661011,0.3878059,0.1719042,-1.13237,0.7125168,-0.03952717,0.503388,1.493428,0.2729967,-0.1103628,1.324801,0.2502858,273.654,175.1965,66.31934,True
1,1.011112,0.03864427,0.2875059,-0.3249282,-1.427607,-4.512694,-2.074672,0.1851517,1.309069,0.413569,-0.9170132,-0.1230121,9.575595,11.99914,-0.09791169,0.2224011,0.05879564,-0.2770689,-3.070152,-0.7002817,0.3026078,1.455478,0.3626556,-0.113947,0.3771701,0.1671024,-1.130945,0.7169857,-0.0419376,0.5011696,1.493572,0.2721379,-0.1131917,1.324163,0.2511437,273.6147,177.2612,64.6179,True
1,1.022224,0.06307494,0.3153433,-0.3112504,-1.429912,-4.517351,-2.075431,0.1831832,1.30854,0.4124937,-0.9151554,0.1705898,9.336869,11.95629,-0.09776761,0.1904181,0.06831271,-0.276843,-3.06509,-0.703825,0.2999903,1.45573,0.3607728,-0.08522297,0.3175232,0.1625024,-1.129388,0.7187214,-0.04267849,0.4988618,1.493719,0.2712216,-0.1159392,1.323122,0.2519068,273.5187,179.8069,62.46038,True
1,1.033335,0.1238009,0.3381048,-0.2709941,-1.433172,-4.520955,-2.078537,0.1813958,1.307948,0.4115727,-0.9150733,0.005577176,9.018568,11.91343,-0.08683253,0.1499266,0.09052892,-0.2756169,-3.05996,-0.7081622,0.2976826,1.455583,0.3594413,-0.08206108,0.2802435,0.1603051,-1.127786,0.720858,-0.04261324,0.496502,1.493732,0.2703614,-0.1187758,1.321854,0.2525572,273.4976,185.2233,57.3046,True
1,1.044446,0.1834927,0.3501913,-0.2349506,-1.436132,-4.524307,-2.082171,0.1796242,1.3075,0.4110003,-0.9146552,0.03811547,8.673739,11.89201,-0.07013276,0.1319713,0.03497194,-0.2774433,-3.06146,-0.7063276,0.2954342,1.455453,0.3581791,-0.1033011,0.2600002,0.167955,-1.125795,0.7235989,-0.04164705,0.4940909,1.493932,0.2694013,-0.1216483,1.320505,0.253147,273.4793,191.409,51.37537,True
1,1.055557,0.2122648,0.3546048,-0.2233111,-1.438718,-4.528208,-2.085069,0.1777455,1.306693,0.4100325,-0.9163937,-0.159594,8.381961,11.84915,-0.03848725,0.1247074,-0.01320341,-0.2796814,-3.06311,-0.7054383,0.2929423,1.455147,0.356904,-0.1030102,0.2663682,0.1967217,-1.122693,0.7273337,-0.04209552,0.4916733,1.494123,0.2683988,-0.1245144,1.319196,0.2536476,273.4831,197.6662,45.42427,True
1,1.066668,0.2229539,0.3525556,-0.2148058,-1.440966,-4.532262,-2.087331,0.1757439,1.305583,0.4088628,-0.9165839,-0.01630963,8.143235,11.8063,-0.02892262,0.1470923,-0.005769812,-0.281021,-3.055181,-0.7129112,0.2904342,1.454512,0.355696,-0.08274558,0.2440022,0.1986296,-1.120509,0.7298627,-0.04299993,0.4891497,1.494151,0.2673893,-0.1270892,1.317874,0.2540928,273.4404,202.7606,40.58756,True
1,1.077779,0.2240582,0.3515682,-0.1977589,-1.443529,-4.535588,-2.089438,0.1737429,1.30464,0.4079654,-0.9153865,0.109082,8.01061,11.72059,-0.04872902,0.1365704,-0.1004683,-0.285102,-3.06192,-0.7051896,0.2878689,1.454,0.3544967,-0.04452239,0.1896955,0.1843435,-1.119083,0.7304308,-0.0441616,0.4866079,1.494139,0.2662985,-0.1294273,1.316476,0.2544921,273.3724,206.3411,37.19542,True
1,1.08889,0.2219907,0.3667091,-0.1435005,-1.447459,-4.537782,-2.091486,0.17179,1.303497,0.4069865,-0.9142014,0.1070599,8.01061,11.61346,-0.06610537,0.1440571,-0.1440152,-0.2887021,-3.064615,-0.7011634,0.2853118,1.453671,0.3536584,-0.01690147,0.163068,0.1776471,-1.117428,0.7315208,-0.04526149,0.4841048,1.494264,0.265357,-0.1318171,1.314965,0.254789,273.2714,208.4444,35.30904,True
1,1.100002,0.2252317,0.376467,-0.1073382,-1.451319,-4.540211,-2.093861,0.1698634,1.302271,0.405633,-0.9135346,0.05996195,8.090186,11.65631,-0.04387435,0.149483,-0.1612138,-0.2916907,-3.064777,-0.7012468,0.2826382,1.453118,0.3526828,0.02379504,0.1683917,0.1985437,-1.114672,0.7342472,-0.04794409,0.4814589,1.494366,0.2645113,-0.1343864,1.313313,0.254965,273.2064,210.9163,33.04333,True
1,1.111113,0.2456212,0.3575345,-0.06788135,-1.454589,-4.541454,-2.097133,0.1679578,1.301092,0.4047081,-0.9130626,0.04258763,8.196285,11.84915,-0.04740143,0.1676602,-0.2005706,-0.2958676,-3.066196,-0.6992729,0.2800408,1.452389,0.3515868,0.03769729,0.1833014,0.203742,-1.112329,0.7372182,-0.05013108,0.4788715,1.494465,0.2635942,-0.137028,1.311553,0.2550575,273.2186,215.7603,28.37205,True
1,1.122224,0.2499173,0.3501164,-0.06253994,-1.457308,-4.543997,-2.099741,0.1660968,1.300005,0.4037609,-0.9132128,-0.01410019,8.302388,12.21341,-0.04662898,0.199683,-0.2282185,-0.3007716,-3.065072,-0.6997426,0.277262,1.451822,0.3505282,0.05471109,0.1992878,0.2003953,-1.110304,0.7405499,-0.05272793,0.4761262,1.494626,0.2626569,-0.1396161,1.309736,0.2550168,273.2376,222.686,21.6972,True
1,1.133335,0.2798806,0.3086522,-0.06774801,-1.458505,-4.545772,-2.103727,0.1642586,1.29876,0.4028397,-0.9138158,-0.05511585,8.328911,12.72766,-0.02762452,0.1923394,-0.256064,-0.3049516,-3.068331,-0.6969492,0.2745793,1.451189,0.3495009,0.07611282,0.1971492,0.2097653,-1.107776,0.7431356,-0.05542677,0.4734285,1.494727,0.2617915,-0.1420639,1.307881,0.2547588,273.2867,228.9063,15.74374,True
1,1.144446,0.3054741,0.2926883,-0.08371761,-1.460023,-4.548572,-2.107669,0.1623601,1.297467,0.4015596,-0.9131777,0.05863778,8.302388,13.26334,-0.02652594,0.177436,-0.258238,-0.308197,-3.071022,-0.694145,0.2719449,1.450475,0.3484514,0.09630036,0.1918333,0.2052908,-1.105803,0.7454939,-0.05806863,0.4707425,1.494826,0.2608385,-0.1442624,1.305952,0.2542992,273.3672,233.0617,11.69977,True
1,1.155557,0.3129592,0.2798936,-0.09219934,-1.461639,-4.551091,-2.111122,0.1604719,1.296317,0.4006872,-0.9141849,-0.0928048,8.196285,13.82044,-0.03612393,0.1529253,-0.2699385,-0.3111946,-3.076277,-0.6883041,0.2693102,1.449671,0.3473947,0.1217043,0.1737358,0.1890392,-1.10437,0.7470178,-0.06100317,0.4679782,1.494953,0.2599726,-0.1463393,1.303977,0.2537252,273.4909,235.3278,9.409775,True
1,1.166668,0.3216168,0.2512217,-0.07823572,-1.463145,-4.552423,-2.114827,0.1584754,1.294916,0.3997359,-0.9141369,0.005048029,8.01061,14.33469,-0.04798657,0.1997627,-0.2697659,-0.3160075,-3.072492,-0.6908919,0.2665719,1.449058,0.3464868,0.1515132,0.1780002,0.1866153,-1.102476,0.7496098,-0.06481361,0.4650867,1.495036,0.2590194,-0.1483441,1.301883,0.2531294,273.552,236.0392,8.6664,True
1,1.17778,0.3313108,0.2353741,-0.05581376,-1.465085,-4.553388,-2.118737,0.1566032,1.29372,0.3988986,-0.9133534,0.07134619,7.798407,14.82751,-0.02034676,0.2062563,-0.2752765,-0.3201967,-3.072544,-0.6915672,0.2639077,1.44844,0.3456016,0.1836396,0.1865164,0.202275,-1.099877,0.7526194,-0.06930184,0.4622168,1.4951,0.2580914,-0.1504655,1.299629,0.2525697,273.6322,237.3591,7.329702,True
1,1.188891,0.3462861,0.2355565,-0.02601693,-1.467672,-4.554145,-2.123003,0.1548018,1.292466,0.3980548,-0.9131979,0.01350971,7.612731,15.10606,0.002945125,0.1669889,-0.3138721,-0.3242292,-3.081116,-0.6842763,0.2612808,1.447761,0.3446665,0.1994776,0.1694822,0.1882518,-1.098311,0.7542681,-0.07279698,0.4593816,1.495237,0.2571301,-0.1527065,1.297228,0.2521454,273.8032,239.5707,5.115738,True
1,1.200002,0.3579992,0.2388217,-0.02072527,-1.470134,-4.555734,-2.127161,0.1529693,1.291174,0.397259,-0.913199,-0.0002760943,7.506632,15.19177,0.01761076,0.1383677,-0.3619772,-0.3290527,-3.090827,-0.6755907,0.2586413,1.44713,0.3438001,0.2004708,0.1588377,0.1797094,-1.09676,0.7560663,-0.07595468,0.456653,1.495383,0.2562895,-0.1550003,1.294685,0.2518334,274.0193,242.4788,2.310899,True
1,1.211113,0.3558663,0.2345155,-0.0292243,-1.471897,-4.557594,-2.1309,0.1511421,1.289924,0.3964336,-0.9133779,-0.01643378,7.453578,15.10606,0.01976931,0.179877,-0.3395397,-0.3335503,-3.08893,-0.6776736,0.2560002,1.446442,0.3428869,0.2102833,0.1343177,0.2019629,-1.093796,0.7570471,-0.07908523,0.4538378,1.495538,0.2553124,-0.1572129,1.292049,0.2515888,274.3163,245.9256,359.0276,True
1,1.222224,0.3452285,0.2259281,-0.03556012,-1.473406,-4.559385,-2.134156,0.1493114,1.28861,0.395479,-0.9132112,0.01524167,7.453578,14.89179,0.02297771,0.1979764,-0.3299443,-0.3379461,-3.088476,-0.6784331,0.2533699,1.445693,0.3420279,0.2371678,0.1257766,0.2272519,-1.090519,0.7586938,-0.08335029,0.4508965,1.495672,0.2543876,-0.1593074,1.289369,0.2513565,274.6235,249.1677,355.9489,True
1,1.233335,0.345231,0.2270079,-0.03236928,-1.475442,-4.560972,-2.137863,0.1474997,1.287394,0.3947196,-0.9126573,0.05041213,7.480105,14.67752,0.00916487,0.2032455,-0.3223806,-0.3420745,-3.089061,-0.677505,0.2508243,1.445004,0.3411658,0.2470992,0.1076391,0.2612282,-1.086536,0.7597344,-0.08690774,0.4480631,1.495765,0.2534389,-0.1613807,1.286694,0.2511326,274.9133,251.4423,353.7826,True
1,1.244446,0.3558749,0.2323806,-0.02921516,-1.477627,-4.56255,-2.142116,0.1457577,1.28632,0.3942168,-0.9120251,0.05731302,7.533155,14.48468,0.02319953,0.1989775,-0.2979881,-0.3453997,-3.089347,-0.6779476,0.2482549,1.444476,0.3403211,0.2547098,0.1044305,0.2760668,-1.083078,0.7613595,-0.09074375,0.4452428,1.495865,0.2524364,-0.1635036,1.284071,0.2509329,275.1902,252.8913,352.4319,True
1,1.255558,0.3601364,0.231321,-0.03134378,-1.479554,-4.564263,-2.146086,0.1440336,1.285283,0.3939085,-0.9123526,-0.03045549,7.586205,14.29184,0.03511643,0.1776706,-0.2789366,-0.3480597,-3.091037,-0.6771657,0.2457789,1.443877,0.339541,0.2727328,0.1065673,0.2673633,-1.08054,0.7630721,-0.09521253,0.4424888,1.495991,0.2514973,-0.165678,1.281554,0.2507524,275.4705,254.2243,351.2128,True
1,1.266669,0.3644143,0.2174243,-0.04620766,-1.480654,-4.566177,-2.150103,0.1423326,1.284283,0.3933024,-0.912889,-0.04871673,7.665781,14.09899,0.05207717,0.1298538,-0.312171,-0.351451,-3.099507,-0.6703512,0.2434449,1.44299,0.3388214,0.2864831,0.09272897,0.2586917,-1.078145,0.7639993,-0.09910768,0.4397694,1.496074,0.2506399,-0.1677994,1.279177,0.2506235,275.7555,255.728,349.7862,True
1,1.27778,0.3526935,0.2109336,-0.06000291,-1.48188,-4.568322,-2.153428,0.14056,1.28332,0.3928869,-0.9125881,0.02781007,7.798407,13.90615,0.05720019,0.1331229,-0.3399007,-0.3562218,-3.104212,-0.6666944,0.240997,1.442328,0.3380842,0.3056403,0.08421599,0.2563627,-1.075413,0.7651903,-0.1037003,0.4369838,1.49616,0.2497704,-0.1697837,1.276929,0.2506095,276.009,257.0445,348.4934,True
1,1.288891,0.332474,0.192666,-0.08012326,-1.482288,-4.570484,-2.156252,0.1387777,1.282394,0.3923426,-0.9125284,0.005125671,7.877984,13.73473,0.07312137,0.1427692,-0.3442557,-0.3605803,-3.106802,-0.6656044,0.2385167,1.44165,0.337332,0.3269664,0.07569149,0.2582709,-1.072583,0.7661945,-0.1085049,0.4343382,1.496304,0.2488501,-0.1716883,1.274801,0.2507493,276.2151,258.0838,347.5038,True
1,1.300002,0.3111658,0.1850653,-0.09602329,-1.482978,-4.572793,-2.158836,0.1369768,1.281518,0.3919268,-0.9118088,0.06571399,7.931033,13.58474,0.07326603,0.1469817,-0.3218789,-0.3637532,-3.107796,-0.6655053,0.2360324,1.440997,0.3366029,0.3386739,0.06079197,0.257078,-1.069779,0.7670096,-0.1129993,0.4316329,1.496419,0.2478249,-0.1736148,1.272766,0.2510091,276.3708,258.7954,346.92,True
1,1.311113,0.2824404,0.1700176,-0.1033554,-1.483307,-4.574719,-2.160757,0.1352997,1.280728,0.391546,-0.9112448,0.0510407,7.984083,13.47761,0.05540881,0.1660139,-0.276974,-0.36655,-3.105123,-0.6679876,0.2337475,1.440551,0.3358622,0.3366395,0.03202151,0.266664,-1.066465,0.7666797,-0.1165255,0.429034,1.496518,0.2468803,-0.1756521,1.270826,0.2513747,276.5304,259.4657,346.4047,True
1,1.322224,0.2718881,0.1508711,-0.08833545,-1.483992,-4.575717,-2.163447,0.1337103,1.279892,0.3911564,-0.9110419,0.01818366,8.116709,13.3919,0.06736901,0.1904664,-0.2312029,-0.3693219,-3.100986,-0.6729544,0.2315376,1.440027,0.335108,0.3219942,0.02242149,0.2945048,-1.062277,0.7672539,-0.1197224,0.4263648,1.496593,0.2459457,-0.177807,1.268991,0.2518071,276.7056,259.9362,346.1249,True
1,1.333336,0.2676427,0.1519522,-0.08085945,-1.485216,-4.577022,-2.16633,0.1320734,1.278876,0.3903706,-0.9104602,0.05320358,8.355438,13.30619,0.08021647,0.1936811,-0.2206327,-0.3723792,-3.099761,-0.6754032,0.2293704,1.439494,0.3344262,0.2923722,0.02773267,0.3150501,-1.058188,0.7683718,-0.1225563,0.423901,1.496674,0.2450604,-0.1799943,1.267279,0.2523026,276.8953,260.4329,345.8178,True
1,1.344447,0.2473918,0.1497138,-0.0893304,-1.48586,-4.578965,-2.168278,0.1305462,1.278195,0.3900723,-0.9112293,-0.07068951,8.647213,13.26334,0.09317285,0.1787706,-0.2026474,-0.3747153,-3.100029,-0.6766048,0.2273343,1.438977,0.3338752,0.2711349,0.02987364,0.32165,-1.054659,0.7695874,-0.1255308,0.4215384,1.496696,0.2441738,-0.1820623,1.265717,0.2528247,277.0925,261.01,345.4636,True
1,1.355558,0.2250348,0.1421169,-0.1009802,-1.485869,-4.581075,-2.170004,0.1289884,1.277472,0.3894284,-0.9116512,-0.03778546,8.912464,13.26334,0.09433728,0.1840672,-0.1856106,-0.3774695,-3.098219,-0.679276,0.2253449,1.438538,0.3333824,0.2656836,0.03415193,0.3099954,-1.051684,0.770694,-0.1288216,0.4190517,1.496828,0.2433486,-0.1839203,1.264278,0.2532609,277.191,261.9993,344.7644,True
1,1.366669,0.1963403,0.1174779,-0.1093364,-1.485389,-4.582574,-2.171027,0.1275708,1.276972,0.3891852,-0.9108884,0.0700452,9.124667,13.32762,0.1007238,0.1617365,-0.1963516,-0.3801311,-3.100101,-0.6788366,0.2235053,1.438104,0.3329465,0.2782885,0.02670541,0.292816,-1.049078,0.7710763,-0.1324803,0.416802,1.496964,0.2426989,-0.1856537,1.262888,0.2534801,277.2232,263.0695,343.9422,True
1,1.37778,0.1889791,0.08976295,-0.1070626,-1.484908,-4.583425,-2.172816,0.1262321,1.276529,0.3890655,-0.9107068,0.0160074,9.310343,13.41333,0.1071081,0.1394078,-0.2060301,-0.3827687,-3.102749,-0.6776304,0.2216427,1.437537,0.3324933,0.288818,0.01819476,0.2809865,-1.046352,0.7714261,-0.1362154,0.4146175,1.497014,0.2419558,-0.1873334,1.261555,0.2535274,277.3183,263.326,343.7645,True
1,1.388891,0.1901134,0.07595947,-0.09741709,-1.48479,-4.584276,-2.174918,0.1249567,1.276057,0.3888464,-0.9101161,0.0540622,9.469496,13.52046,0.1177012,0.1107192,-0.2274659,-0.3854942,-3.107596,-0.6748083,0.2199926,1.43711,0.3321834,0.3011909,0.006547004,0.2371446,-1.045399,0.7717819,-0.1404972,0.4127867,1.496824,0.2410798,-0.1890197,1.260303,0.2534598,277.441,262.9553,344.138,True
1,1.400002,0.1847819,0.07808645,-0.09528235,-1.485196,-4.585738,-2.176707,0.1237262,1.275567,0.3888874,-0.9109502,-0.07656246,9.496022,13.67045,0.1380921,0.04262754,-0.2352028,-0.3868838,-3.115569,-0.6694883,0.2182739,1.436853,0.3318799,0.2955584,0.001239568,0.20737,-1.044024,0.7718011,-0.1435702,0.4107063,1.497085,0.2405462,-0.190594,1.259189,0.2533888,277.6187,262.3028,344.7237,True
1,1.411114,0.168797,0.07587187,-0.1016313,-1.485075,-4.587288,-2.177903,0.1224732,1.275077,0.3886871,-0.9115052,-0.04991731,9.496022,13.79901,0.1480048,0.004248828,-0.2055171,-0.3870985,-3.120251,-0.6671418,0.2167407,1.436469,0.3315041,0.2706583,-0.01790716,0.1681904,-1.043417,0.7708973,-0.1452381,0.408967,1.497132,0.2399397,-0.1919812,1.258226,0.2533737,277.7388,261.9064,345.0789,True
1,1.422225,0.1389932,0.06186157,-0.1153632,-1.484238,-4.588985,-2.178288,0.1212315,1.274622,0.3884859,-0.911379,0.0119489,9.496022,13.90615,0.1257045,0.03396495,-0.1818667,-0.3890191,-3.119344,-0.6686257,0.2151879,1.436105,0.3311689,0.2373436,-0.03280053,0.1397585,-1.042551,0.770022,-0.1463173,0.407217,1.497198,0.2394946,-0.1932213,1.257366,0.2534322,277.7715,261.8745,345.0942,True
1,1.433336,0.1241382,0.04690912,-0.1120717,-1.483578,-4.589904,-2.179057,0.1200098,1.274208,0.3884091,-0.9108639,0.0469782,9.496022,13.97043,0.1118409,0.07969441,-0.1635709,-0.3914469,-3.116453,-0.6720785,0.2136798,1.435803,0.3308272,0.2138555,-0.0264037,0.1346786,-1.041114,0.7701939,-0.1480539,0.4055054,1.497182,0.2389762,-0.1944379,1.256566,0.2536204,277.7638,262.0257,344.9258,True
1,1.444447,0.1083823,0.008667946,-0.07246353,-1.482746,-4.588744,-2.179952,0.1189744,1.273826,0.3879144,-0.9101571,0.06434658,9.602121,13.97043,0.1054687,0.1105424,-0.1474875,-0.3937952,-3.113542,-0.6758078,0.2123966,1.435621,0.3305593,0.2063836,-0.01895489,0.1336996,-1.039595,0.7703782,-0.1501754,0.4037358,1.497158,0.2384295,-0.1957704,1.255806,0.2539261,277.757,262.0143,345.0033,True
1,1.455558,0.1095315,-0.002946906,-0.05111671,-1.48256,-4.588581,-2.181252,0.1179661,1.273485,0.3876708,-0.9105923,-0.04019014,9.70822,13.92758,0.1086989,0.1041564,-0.1453917,-0.3955641,-3.114155,-0.6765449,0.2110999,1.435367,0.330312,0.2009613,-0.006164059,0.1241773,-1.038583,0.7710116,-0.15256,0.4022599,1.497137,0.2379866,-0.1972185,1.255101,0.2543341,277.797,261.7144,345.4182,True
1,1.466669,0.1170238,-0.002846801,-0.03408778,-1.482657,-4.588376,-2.182828,0.1171279,1.273233,0.3874764,-0.9107782,-0.01644343,9.814323,13.84187,0.1236816,0.07226114,-0.1498269,-0.3969117,-3.117984,-0.6748961,0.2101045,1.435147,0.3301079,0.1953951,-0.01255003,0.1007895,-1.038207,0.7705071,-0.1542287,0.4008944,1.497188,0.2375402,-0.1986065,1.254451,0.2547801,277.8473,261.8097,345.5463,True
1,1.47778,0.1223392,0.0003624614,-0.0341171,-1.482412,-4.588883,-2.184344,0.1162542,1.272805,0.3869519,-0.9114227,-0.05873312,9.920423,13.69188,0.1322656,0.04246754,-0.1542057,-0.3979897,-3.122257,-0.6727371,0.2089733,1.434938,0.3299117,0.1941279,-0.0221274,0.08162896,-1.037726,0.7698226,-0.1559073,0.3994556,1.497198,0.2370591,-0.1997504,1.25383,0.2550234,277.8965,262.217,345.4692,True
1,1.488891,0.121232,0.01100233,-0.03629153,-1.48257,-4.589583,-2.185576,0.1154864,1.272543,0.3867149,-0.9118445,-0.0380513,9.973473,13.52046,0.1345962,-0.004418537,-0.1457912,-0.3979998,-3.127862,-0.6690284,0.2079915,1.434979,0.3298149,0.1896087,-0.04874086,0.05608642,-1.03783,0.7680504,-0.1569414,0.398266,1.497257,0.2365947,-0.200408,1.253529,0.2550431,277.89,263.3231,344.4928,True
1,1.500003,0.111658,0.005630383,-0.03837952,-1.482097,-4.589901,-2.186394,0.1146811,1.272327,0.386452,-0.9119185,-0.006447839,9.920423,13.37047,0.1283063,-0.02788164,-0.1415415,-0.398639,-3.132367,-0.6660539,0.2069335,1.434851,0.3296018,0.1746471,-0.08279051,0.04980704,-1.037329,0.7663186,-0.1576605,0.3971401,1.497138,0.235934,-0.200945,1.253366,0.254872,277.7197,262.6338,345.26,True
1,1.511114,0.1073936,0.01097427,-0.03093677,-1.482304,-4.590162,-2.187416,0.1139149,1.272075,0.3862329,-0.9116762,0.02216684,9.840847,13.22048,0.1219793,-0.05133565,-0.1426084,-0.3990177,-3.137774,-0.6622161,0.2059769,1.434705,0.3293314,0.1363846,-0.09771046,0.05870736,-1.036156,0.7646335,-0.1570208,0.3960473,1.497142,0.2354522,-0.2015257,1.253202,0.2546296,277.5233,261.2965,346.6407,True
1,1.522225,0.09996385,0.00993478,-0.01813845,-1.482424,-4.590073,-2.188265,0.1131296,1.27167,0.3856344,-0.9112474,0.03906763,9.787797,13.09192,0.09531689,-0.02479972,-0.1349175,-0.4004952,-3.138439,-0.6617569,0.2050632,1.434462,0.3290684,0.09291179,-0.0827809,0.07726208,-1.03477,0.7649051,-0.1569995,0.3950047,1.497017,0.2350185,-0.2021416,1.253054,0.2544751,277.3958,260.5528,347.3708,True
1,1.533336,0.08934157,0.002449821,-0.01595347,-1.482181,-4.590022,-2.188878,0.1123532,1.271453,0.3854342,-0.9114722,-0.02079672,9.787797,12.98479,0.0601615,0.05279197,-0.1004322,-0.4024276,-3.131937,-0.6672321,0.2041044,1.434329,0.3287346,0.07278034,-0.06361295,0.08813301,-1.033412,0.7650893,-0.1572083,0.3938918,1.496991,0.2346036,-0.2028335,1.252933,0.2544082,277.3113,260.6923,347.2259,True
1,1.544447,0.08197293,-0.01776097,-0.003074279,-1.481624,-4.589293,-2.189461,0.1117745,1.271513,0.3856781,-0.9113742,0.009191518,9.920423,12.89908,0.0314014,0.1133757,-0.07242158,-0.4044436,-3.125311,-0.6727512,0.2032398,1.434229,0.328491,0.06442198,-0.03588532,0.1020718,-1.032201,0.7666588,-0.1588192,0.3929556,1.497019,0.2343309,-0.2035704,1.252798,0.254374,277.2145,261.541,346.4464,True
1,1.555558,0.0777327,-0.02309762,-0.001977082,-1.481274,-4.58902,-2.190181,0.1110595,1.271361,0.3855021,-0.9112086,0.01513458,10.13263,12.81337,0.018694,0.1175727,-0.05954123,-0.4055052,-3.122831,-0.6747968,0.2024498,1.434081,0.3282092,0.07932324,-0.02309855,0.1008664,-1.031147,0.7670648,-0.1604083,0.3920494,1.49702,0.2340693,-0.204293,1.252635,0.254277,277.1185,262.4109,345.7081,True
1,1.566669,0.06919206,-0.02638611,-0.01686126,-1.480524,-4.589431,-2.19065,0.1105736,1.2715,0.3856356,-0.9111941,0.001247379,10.34483,12.81337,0.02303202,0.1186326,-0.04785463,-0.4064575,-3.12087,-0.6770469,0.2018967,1.434035,0.3279748,0.1025457,-0.007071111,0.07825127,-1.03137,0.7680628,-0.1629769,0.3912765,1.497065,0.2337897,-0.2048626,1.252527,0.254161,277.0821,262.6622,345.4556,True
1,1.577781,0.05208815,-0.0190703,-0.03496771,-1.479995,-4.590269,-2.190648,0.1099641,1.271432,0.3851039,-0.9114626,-0.02448441,10.55703,12.89908,0.03907529,0.09524742,-0.04907694,-0.4070503,-3.121391,-0.6775724,0.2011939,1.433999,0.3277438,0.1161848,-0.001730062,0.05787459,-1.031445,0.7682424,-0.1647794,0.3904951,1.497081,0.2334716,-0.2052806,1.252489,0.2540533,277.0654,262.5636,345.4702,True
1,1.588892,0.03714902,-0.01702883,-0.04346817,-1.479489,-4.590856,-2.190494,0.1093959,1.271487,0.3849816,-0.9113817,0.007681735,10.74271,13.0705,0.03929,0.04515948,-0.04065565,-0.4064293,-3.12441,-0.675314,0.2006495,1.43405,0.3274925,0.1062914,-0.01021983,0.02706215,-1.032289,0.7678394,-0.1655229,0.3899467,1.497125,0.2331378,-0.2057423,1.252463,0.2539302,277.0247,262.3763,345.5854,True
1,1.600003,0.03289516,-0.02025506,-0.04771144,-1.478816,-4.591222,-2.1908,0.1088343,1.271572,0.3848033,-0.9110232,0.03273184,10.8488,13.30619,0.02978658,0.02913789,-0.03529667,-0.4065284,-3.125041,-0.6746591,0.2000324,1.434031,0.3272803,0.07736421,-0.02618132,0.01029919,-1.032584,0.7668929,-0.1649205,0.3893082,1.497169,0.2328272,-0.2062298,1.252451,0.2538336,277.0093,262.4711,345.4279,True
1,1.611114,0.02228913,-0.02985224,-0.04125609,-1.478141,-4.591018,-2.190706,0.1083539,1.271701,0.3847241,-0.910922,0.009073887,10.87533,13.64902,0.02777982,0.01525985,-0.02359109,-0.4061965,-3.125397,-0.6745489,0.1996003,1.433999,0.3271255,0.01123282,-0.06133306,0.002432936,-1.032573,0.7645519,-0.1614597,0.3888837,1.497153,0.2325735,-0.2068992,1.252443,0.2537244,276.9948,262.749,345.1961,True
1,1.622225,0.01167484,-0.03839726,-0.03800648,-1.477343,-4.5909,-2.190529,0.1079372,1.271843,0.3845639,-0.9114684,-0.04994297,10.8488,14.05614,0.02990562,0.02165296,-0.02146283,-0.4066796,-3.124664,-0.6756671,0.1991496,1.434016,0.3269482,0.009136546,-0.06238624,0.004574941,-1.032446,0.7640833,-0.1615655,0.3883823,1.497183,0.2323287,-0.207599,1.252461,0.2536202,277.0164,263.1434,344.8113,True
1,1.633336,-0.003258574,-0.03419756,-0.04012444,-1.476844,-4.591189,-2.189925,0.1075987,1.271999,0.3844731,-0.9111707,0.02772939,10.76923,14.54896,0.04473973,0.02597857,-0.03114536,-0.4075174,-3.124905,-0.6765066,0.1988025,1.434113,0.3267956,0.03773348,-0.0474614,-0.01169007,-1.033136,0.7639557,-0.1629159,0.3879632,1.497272,0.2320955,-0.2082351,1.252481,0.2535048,277.034,263.4521,344.4918,True
1,1.644447,-0.01187068,-0.009736582,-0.04234494,-1.477097,-4.592137,-2.189435,0.1073778,1.272116,0.3842919,-0.9111511,0.00158567,10.68966,15.10606,0.05119512,0.0206599,-0.02480578,-0.4075542,-3.124888,-0.6773377,0.1985551,1.434226,0.3265882,0.05897193,-0.03999119,-0.01829464,-1.033532,0.7638539,-0.1643322,0.3875746,1.497314,0.2317655,-0.2087211,1.25251,0.2533611,277.0732,263.5781,344.3538,True
1,1.655559,-0.01511786,0.009445196,-0.03815899,-1.477532,-4.592767,-2.18925,0.1072607,1.272441,0.3844607,-0.9108767,0.02516613,10.6366,15.51318,0.05449592,0.01531851,-0.01205514,-0.4072719,-3.124396,-0.6785167,0.1982356,1.434407,0.3264523,0.05461257,-0.04957325,-0.02784372,-1.03404,0.7627073,-0.1642366,0.3872491,1.497377,0.2315075,-0.2090952,1.252561,0.2531684,277.1095,263.3148,344.6024,True
1,1.66667,-0.01089165,0.01689865,-0.04246121,-1.477546,-4.59355,-2.189215,0.1071042,1.272704,0.3844569,-0.9111441,-0.02454246,10.61008,15.85601,0.06432985,-0.008138537,0.01339797,-0.4058514,-3.12457,-0.6794019,0.1981358,1.434674,0.3263617,0.02360155,-0.07301179,-0.03818273,-1.034374,0.7604936,-0.1620102,0.3869868,1.497509,0.2312896,-0.2094235,1.252647,0.252961,277.1718,262.9821,344.9006,True
1,1.677781,-0.01726495,0.0104699,-0.04668517,-1.477009,-4.594068,-2.188813,0.1068798,1.272772,0.3843687,-0.9115542,-0.03723032,10.66313,16.13456,0.06977937,-0.01028243,0.030401,-0.4050476,-3.123364,-0.681455,0.1979214,1.434829,0.3262668,-0.0009316877,-0.08898842,-0.04113444,-1.03465,0.7586327,-0.1601519,0.3867758,1.497556,0.2310176,-0.2097295,1.252759,0.2528025,277.2444,262.9496,344.8505,True
1,1.688892,-0.02465065,-0.01623421,-0.05720761,-1.475564,-4.59423,-2.188298,0.1067449,1.273054,0.38451,-0.9118221,-0.0241191,10.66313,16.34883,0.09117614,-0.01344076,0.04196699,-0.4041933,-3.122506,-0.6840329,0.1978799,1.434992,0.3262265,0.0002680197,-0.1039059,-0.02837612,-1.034362,0.7568488,-0.1593875,0.3865547,1.497516,0.2306778,-0.2099711,1.252885,0.2527221,277.3799,263.5826,344.11,True
1,1.700003,-0.03633874,-0.03122277,-0.06458504,-1.474228,-4.59464,-2.187361,0.1065482,1.273376,0.3847558,-0.9114967,0.02996939,10.71618,16.49882,0.07720271,0.004642755,0.032514,-0.4045161,-3.121253,-0.6855384,0.1977145,1.435101,0.3261981,-0.004941486,-0.1177826,-0.01661049,-1.033784,0.7545425,-0.1579561,0.3862914,1.4976,0.2305403,-0.2102257,1.252969,0.2526804,277.4083,262.9864,344.5159,True
1,1.711114,-0.04803302,-0.03872529,-0.06559379,-1.47319,-4.594851,-2.186384,0.1063614,1.273587,0.3849218,-0.9113678,0.01153568,10.74271,16.58453,0.07296559,0.008880503,0.03787825,-0.4042018,-3.119796,-0.6875584,0.1975944,1.435197,0.3261604,-0.0186258,-0.1103356,-0.0004852302,-1.033109,0.7534698,-0.1567201,0.3861222,1.497594,0.2303839,-0.2103415,1.252931,0.2528897,277.3131,264.5002,342.9282,True
1,1.722225,-0.05868686,-0.04089382,-0.06663191,-1.472393,-4.595272,-2.18526,0.1062183,1.273798,0.3851264,-0.9110434,0.02965885,10.76923,16.58453,0.07616147,-0.006008141,0.032504,-0.4036835,-3.120275,-0.6879534,0.1975513,1.435428,0.3265817,-0.01214774,-0.09117359,0.009051755,-1.032598,0.7529979,-0.1564154,0.3860883,1.49769,0.2301836,-0.2105937,1.253042,0.252808,277.4699,263.8149,343.5326,True
1,1.733337,-0.06723437,-0.03561095,-0.06983305,-1.47171,-4.595903,-2.184122,0.1061563,1.274016,0.3853002,-0.9110578,-0.001485924,10.76923,16.54168,0.08576127,-0.0198193,0.02814882,-0.4031131,-3.121405,-0.6882104,0.1975275,1.435555,0.3266442,0.003776062,-0.08051702,0.003568139,-1.032651,0.7523547,-0.156666,0.3859816,1.497719,0.2300317,-0.2109056,1.253197,0.2526912,277.5481,262.6519,344.5456,True
1,1.744448,-0.05980745,-0.03348584,-0.07838416,-1.470823,-4.596822,-2.183585,0.1062876,1.274427,0.3856602,-0.9110546,0.0003960121,10.76923,16.60596,0.09756061,-0.05065188,0.02589111,-0.4019813,-3.123229,-0.6880682,0.1977286,1.435516,0.3265588,0.01321924,-0.0687983,-0.01036167,-1.033042,0.7516872,-0.1568021,0.3861207,1.497697,0.2298117,-0.2112695,1.253356,0.252593,277.5965,261.5881,345.4966,True
1,1.755559,-0.04384104,-0.03559921,-0.08693424,-1.469676,-4.597576,-2.183474,0.1063959,1.274668,0.3857551,-0.9111739,-0.01084415,10.74271,16.62738,0.09965336,-0.05275767,0.01948015,-0.4016271,-3.124182,-0.6883552,0.1978675,1.435817,0.3267293,0.004447334,-0.07837091,-0.03478064,-1.03404,0.7500795,-0.1557252,0.3863026,1.497665,0.2296958,-0.2115027,1.253478,0.252587,277.7921,261.4557,345.4885,True
1,1.76667,-0.03641449,-0.02812545,-0.08911249,-1.469024,-4.598401,-2.183237,0.1064982,1.274933,0.3859181,-0.911901,-0.06628457,10.74271,16.60596,0.09428316,-0.04318205,0.01740571,-0.4014316,-3.12428,-0.6891177,0.1979866,1.435984,0.3267884,-0.02127507,-0.09435004,-0.04943473,-1.034681,0.7479417,-0.1534593,0.3864501,1.497675,0.2295175,-0.2116528,1.253595,0.2526904,277.9265,261.6922,345.1317,True
1,1.777781,-0.02257557,-0.02593978,-0.08702141,-1.468281,-4.599104,-2.183246,0.1066051,1.2752,0.3861012,-0.9124112,-0.04611463,10.74271,16.58453,0.088992,-0.03575351,0.02597786,-0.4009773,-3.123541,-0.6905755,0.198165,1.436209,0.3268642,-0.03730579,-0.100755,-0.05460042,-1.035143,0.7460776,-0.1516159,0.3864822,1.49747,0.2293744,-0.2117524,1.253639,0.2527134,278.0125,261.4364,345.2614,True
1,1.788892,-0.0150964,-0.02908935,-0.08276309,-1.467539,-4.599413,-2.183346,0.1068351,1.275453,0.3862927,-0.9123122,0.00938587,10.74271,16.54168,0.08807923,-0.04536832,0.04301745,-0.3996728,-3.123055,-0.69204,0.1983347,1.436451,0.3268919,-0.05118664,-0.1103408,-0.05766013,-1.035664,0.7441611,-0.1495724,0.3866646,1.497402,0.2293172,-0.2117113,1.253792,0.2528998,278.0121,260.3799,346.3359,True
1,1.800003,-0.006585568,-0.02583979,-0.0796138,-1.466904,-4.600238,-2.183354,0.1071125,1.27602,0.3870466,-0.912481,-0.01560158,10.76923,16.49882,0.08177721,-0.03368801,0.06013512,-0.3988318,-3.120573,-0.6951508,0.198583,1.436653,0.3268702,-0.05433494,-0.1050188,-0.05336292,-1.03595,0.7429098,-0.148312,0.3868693,1.497353,0.2292984,-0.2117148,1.253905,0.2536005,277.9428,254.1516,352.9864,True
1,1.811115,-0.01085566,-0.02265416,-0.07855347,-1.466304,-4.600852,-2.18305,0.1073168,1.276219,0.387279,-0.9124991,-0.001542695,10.76923,16.45597,0.07223426,-0.03372979,0.06659332,-0.3978646,-3.119729,-0.6964121,0.1988183,1.436812,0.3269386,-0.04679046,-0.09648395,-0.04490157,-1.035945,0.7423295,-0.1478025,0.3871912,1.497151,0.2290106,-0.211743,1.254142,0.2546107,277.9604,254.4437,352.9295,True
1,1.822226,-0.02576047,-0.02160354,-0.0700091,-1.465808,-4.601215,-2.182132,0.1075702,1.276518,0.387671,-0.9124022,0.008829766,10.74271,16.37026,0.05519747,-0.02631998,0.07099544,-0.3971865,-3.117853,-0.6982118,0.1991446,1.436857,0.3268893,-0.04573306,-0.08581616,-0.04597478,-1.03651,0.7417761,-0.1471271,0.3875846,1.497096,0.2288728,-0.2116877,1.254357,0.2557885,277.9773,255.4839,352.1357,True
1,1.833337,-0.03639342,-0.02481806,-0.06571205,-1.465168,-4.601466,-2.181334,0.1077407,1.276738,0.387939,-0.9120166,0.03515577,10.68966,16.28455,0.05407997,-0.0188578,0.06675658,-0.3967849,-3.116742,-0.6997868,0.1994034,1.43701,0.3270004,-0.04384355,-0.07514889,-0.06942546,-1.038038,0.7409856,-0.1463021,0.387881,1.497018,0.228842,-0.2115769,1.254641,0.2570736,278.0208,256.2533,351.54,True
1,1.844448,-0.04486081,-0.03866934,-0.05923918,-1.464227,-4.601253,-2.180491,0.1079504,1.276914,0.388154,-0.9113423,0.06137756,10.61008,16.19884,0.06886552,-0.03686476,0.0399924,-0.3964754,-3.119144,-0.6989115,0.1998236,1.437087,0.3270373,-0.05019613,-0.08155538,-0.06510539,-1.038432,0.7393537,-0.1446118,0.3882781,1.497111,0.2289755,-0.2115223,1.254957,0.2583091,278.0022,255.7,352.4061,True
1,1.855559,-0.04372534,-0.0503471,-0.04960766,-1.463222,-4.600929,-2.180269,0.1082357,1.277112,0.3881536,-0.9114344,-0.008911539,10.45093,16.09171,0.0687748,-0.04109365,0.0250668,-0.3963055,-3.120642,-0.698283,0.2001252,1.437247,0.327157,-0.06196715,-0.08581097,-0.07030843,-1.039106,0.7379801,-0.142844,0.388612,1.497074,0.228992,-0.2114782,1.255344,0.2593762,277.9859,255.7723,352.6124,True
1,1.86667,-0.03195013,-0.06091776,-0.03999846,-1.462306,-4.60044,-2.180362,0.1085593,1.277368,0.3883479,-0.9114312,0.0004484563,10.26525,15.92029,0.06979814,-0.04001989,0.01973517,-0.3959897,-3.121326,-0.6983829,0.200491,1.437408,0.3273058,-0.07371026,-0.07943243,-0.07231644,-1.0399,0.736825,-0.1410144,0.3889039,1.497021,0.2291236,-0.2114321,1.255792,0.2601541,277.9294,255.8711,352.7389,True
1,1.877781,-0.02022423,-0.06196693,-0.0432107,-1.461306,-4.600418,-2.180669,0.1088491,1.277409,0.3879321,-0.9120885,-0.06005063,10.1061,15.68459,0.06345515,-0.05283194,0.02081871,-0.3950799,-3.122986,-0.6973871,0.2009718,1.437621,0.3274131,-0.06929297,-0.07092112,-0.05744183,-1.039972,0.7361988,-0.1401401,0.3892491,1.496965,0.2291729,-0.2112876,1.256266,0.2605669,277.8496,255.7356,353.0291,True
1,1.888893,-0.0159876,-0.055565,-0.04431241,-1.460674,-4.600607,-2.180624,0.109222,1.277676,0.3880558,-0.9124587,-0.03328732,9.973473,15.40604,0.04970171,-0.0550297,0.03369359,-0.3940317,-3.123097,-0.6974142,0.2014183,1.437801,0.3274977,-0.0606895,-0.06242892,-0.0490058,-1.040128,0.7352645,-0.139212,0.3897203,1.497064,0.2292657,-0.2109652,1.256711,0.260589,277.7594,255.3108,353.491,True
1,1.900004,-0.01495113,-0.04810892,-0.04649339,-1.459992,-4.601173,-2.180416,0.1095763,1.277963,0.3881679,-0.9127042,-0.02229539,9.920423,15.08464,0.04334801,-0.05292996,0.04013184,-0.3932323,-3.123024,-0.6977663,0.2018531,1.437953,0.3275666,-0.05649134,-0.05924587,-0.05544125,-1.040922,0.7341638,-0.1382122,0.3901703,1.497042,0.2292993,-0.2102915,1.256874,0.2606361,277.6657,255.216,353.5994,True
1,1.911115,-0.02134642,-0.05028474,-0.05179733,-1.459062,-4.601432,-2.179935,0.1098981,1.278233,0.3883407,-0.9123324,0.03410895,9.973473,14.80608,0.02849268,-0.02318862,0.0615984,-0.3926501,-3.119088,-0.7012582,0.2022639,1.438039,0.327635,-0.06197066,-0.05710572,-0.07029857,-1.042148,0.7333295,-0.1368873,0.3906412,1.497056,0.229383,-0.2096422,1.256749,0.2605915,277.6685,254.4372,354.4167,True
1,1.922226,-0.02881015,-0.04709969,-0.04966994,-1.458465,-4.601692,-2.179309,0.1102241,1.278463,0.3885021,-0.9121183,0.01925155,10.02653,14.52753,0.02528694,-0.008299623,0.06697344,-0.3922272,-3.116947,-0.703413,0.2027127,1.438225,0.3278158,-0.05774704,-0.06137794,-0.0735383,-1.042869,0.731981,-0.1356084,0.3911449,1.497115,0.2294695,-0.209249,1.256596,0.2604367,277.7986,255.3594,353.3942,True
1,1.933337,-0.03841212,-0.03857862,-0.04222979,-1.458257,-4.60181,-2.178505,0.110597,1.278785,0.3887012,-0.9117827,0.03052469,10.1061,14.22755,0.02317478,-0.01682632,0.065906,-0.3913654,-3.116699,-0.7038399,0.2031736,1.438394,0.3278925,-0.05768147,-0.06883912,-0.06715164,-1.043266,0.7306781,-0.1343107,0.3916541,1.497145,0.2295542,-0.209069,1.256509,0.2603649,277.9575,256.1649,352.4531,True
1,1.944448,-0.05011456,-0.04610051,-0.04750581,-1.457184,-4.602021,-2.177554,0.1109675,1.279127,0.3887331,-0.9116229,0.01436143,10.15915,13.949,0.01568864,-0.01365165,0.06276599,-0.390829,-3.116145,-0.7043092,0.2036475,1.438623,0.328109,-0.05967654,-0.06885844,-0.05327528,-1.04316,0.7296351,-0.1329349,0.3921249,1.497219,0.2296891,-0.208963,1.256582,0.2603612,278.0685,255.7082,352.8131,True
1,1.955559,-0.0554244,-0.0514521,-0.04853476,-1.456227,-4.602022,-2.176839,0.1115025,1.279673,0.3893387,-0.911461,0.01474924,10.1061,13.73473,0.01560739,0.01829987,0.0649634,-0.3909712,-3.11221,-0.7080978,0.2042472,1.438849,0.3282466,-0.05740302,-0.04862768,-0.0394374,-1.043172,0.7297707,-0.1324598,0.3927655,1.497199,0.2297695,-0.2088248,1.256772,0.2604349,278.169,254.3822,354.0986,True
1,1.966671,-0.05965516,-0.05891471,-0.04636324,-1.455238,-4.601892,-2.176068,0.1119639,1.280085,0.3895659,-0.9113731,0.007976213,10.05305,13.56331,0.02091864,0.0183141,0.06386192,-0.3905345,-3.110776,-0.7097266,0.2048433,1.439143,0.3284235,-0.0509696,-0.03692857,-0.03416827,-1.04333,0.7294781,-0.1317759,0.393363,1.497299,0.22982,-0.2085925,1.257144,0.2605326,278.2209,253.749,354.7382,True
1,1.977782,-0.0660343,-0.06320136,-0.04739865,-1.454222,-4.601899,-2.175159,0.1126396,1.280568,0.3899994,-0.9116421,-0.02462331,10.05305,13.45618,0.02526768,0.008723743,0.07233372,-0.3895768,-3.109406,-0.7114131,0.2055859,1.439411,0.3285942,-0.04996984,-0.04333088,-0.04058457,-1.044015,0.7282892,-0.1306651,0.3941752,1.497293,0.2298534,-0.2082228,1.257711,0.2606478,278.2281,253.0262,355.4324,True
1,1.988893,-0.06922945,-0.06213805,-0.04526602,-1.45342,-4.601867,-2.17428,0.1132119,1.28102,0.3902607,-0.9116576,-0.001126669,10.07958,13.3919,0.03280351,-0.001922809,0.07971954,-0.3884119,-3.108094,-0.7131631,0.2064569,1.439881,0.3287885,-0.0500461,-0.06036844,-0.04698214,-1.044509,0.7268248,-0.1292046,0.3948595,1.497357,0.2298999,-0.2076516,1.25847,0.2608297,278.1817,251.9839,356.362,True
1,2.000004,-0.07564498,-0.05363542,-0.04422748,-1.452899,-4.602089,-2.173236,0.113898,1.281379,0.3902175,-0.9115776,0.007284271,10.1061,13.28477,0.0350036,-0.01577184,0.08393954,-0.3871847,-3.107409,-0.7142457,0.2073034,1.440181,0.3289843,-0.05016129,-0.07316276,-0.05764053,-1.045285,0.7250049,-0.1276288,0.3956652,1.497361,0.2299807,-0.2069855,1.259363,0.2611085,278.0536,251.6754,356.6423,True
1,2.011115,-0.08631998,-0.05049957,-0.04954548,-1.45212,-4.602444,-2.171852,0.114619,1.281978,0.3905058,-0.9116416,-0.005878703,10.23872,13.22048,0.03510571,-0.03495882,0.0902916,-0.3856246,-3.10738,-0.7146087,0.2083247,1.440527,0.3291745,-0.043934,-0.08913192,-0.07369506,-1.046432,0.723038,-0.1263598,0.3965175,1.49739,0.2300568,-0.2062201,1.260316,0.2614772,277.9014,250.9512,357.3585,True
