loc,t,aDotS,bDotS,gDotS,aS,bS,gS,xS,yS,zS,qE,qDotE,emgA,emgB,aDotSH,bDotSH,gDotSH,aSH,bSH,gSH,xSH,ySH,zSH,aDotUB,bDotUB,gDotUB,aUB,bUB,gUB,xUB,yUB,zUB,xHand,yHand,zHand,aHand,bHand,gHand,enable
3,0,0.3049447,-0.5705138,0.4615563,4.680458,-4.57589,-2.511718,0.347733,1.236893,0.489274,-0.8950698,0.09955151,10.68966,13.99186,-0.4870801,0.3916039,0.08933608,-0.5284404,-3.629578,-0.4927737,0.390276,1.43653,0.4468334,-0.2263565,0.4614016,-0.06916628,-1.076596,0.4344921,-0.1298773,0.537006,1.493358,0.29829,0.04652605,1.132949,0.3859789,289.8787,274.7827,346.5816,True
3,0.01111111,0.2888417,-0.5686405,0.4147146,4.681762,-4.569161,-2.514148,0.3465764,1.236727,0.4884796,-0.8952035,-0.01297046,10.76923,13.99186,-0.4422465,0.3746718,0.09645237,-0.5290268,-3.622347,-0.4955863,0.3891394,1.436458,0.446312,-0.2318818,0.4550275,-0.08829616,-1.078853,0.4397216,-0.1295276,0.5367568,1.49318,0.2986107,0.04741663,1.130626,0.3786232,293.2067,285.5466,332.0959,True
3,0.02222222,0.2630092,-0.5562831,0.3369954,4.683724,-4.56342,-2.516015,0.3454485,1.237122,0.4888372,-0.8946096,0.05453741,10.76923,13.97043,-0.416656,0.3875131,0.1058998,-0.5299733,-3.612672,-0.5002394,0.3880728,1.436372,0.4458654,-0.2350232,0.4582271,-0.08293631,-1.080228,0.4455994,-0.1295918,0.5364648,1.492968,0.2988706,0.04960942,1.126171,0.3677023,294.847,283.7132,329.9666,True
3,0.03333334,0.2458392,-0.5404703,0.3124715,4.684692,-4.557409,-2.518046,0.3443641,1.237052,0.4881372,-0.8949319,-0.02977016,10.71618,13.92758,-0.4060701,0.3811693,0.0940975,-0.5312505,-3.605171,-0.5023947,0.3870275,1.436348,0.4454081,-0.2294948,0.4603574,-0.06276993,-1.081141,0.4517018,-0.1300118,0.5361527,1.492855,0.2990906,0.05239313,1.120904,0.3554014,296.6083,278.8297,330.6658,True
3,0.04444445,0.2458392,-0.5404703,0.3124715,4.684692,-4.557409,-2.518046,0.3443641,1.237052,0.4881372,-0.894527,0.0374446,10.68966,13.90615,-0.4060701,0.3811693,0.0940975,-0.5312505,-3.605171,-0.5023947,0.3870275,1.436348,0.4454081,-0.2294948,0.4603574,-0.06276993,-1.081141,0.4517018,-0.1300118,0.5361527,1.492855,0.2990906,0.05531888,1.115734,0.3437141,298.5041,274.547,330.858,True
3,0.05555556,0.169727,-0.4578801,0.2718509,4.68529,-4.547897,-2.519373,0.3422673,1.237091,0.487035,-0.8926692,0.169649,10.71618,13.82044,-0.3569517,0.298274,0.07227024,-0.5327089,-3.596326,-0.5033143,0.3850561,1.436376,0.444705,-0.1994272,0.4166868,-0.03970897,-1.082786,0.4610122,-0.1304917,0.5354564,1.49278,0.2996912,0.05668867,1.113073,0.3360558,298.3927,268.8555,333.9692,True
3,0.06666667,0.1247374,-0.406983,0.2611039,4.684876,-4.54412,-2.519131,0.3412797,1.237016,0.486423,-0.8955534,-0.2648924,10.74271,13.73473,-0.3301629,0.2504173,0.07304937,-0.5325412,-3.593423,-0.5030093,0.3841164,1.436377,0.4444106,-0.1801848,0.3868629,-0.0346044,-1.083445,0.4647132,-0.1308779,0.5350763,1.492782,0.2998986,0.0575482,1.112287,0.3319319,299.5021,268.7708,332.2836,True
3,0.07777778,0.08825503,-0.3571385,0.2471701,4.684272,-4.540289,-2.518933,0.340003,1.237107,0.4860485,-0.8942261,0.123979,10.76923,13.6276,-0.2895282,0.1834518,0.06410629,-0.532074,-3.593091,-0.5014514,0.383106,1.436427,0.4440403,-0.172552,0.3527822,-0.01769492,-1.083834,0.4682927,-0.1306272,0.534751,1.492694,0.3000896,0.05749214,1.111713,0.3297511,299.8759,270.3169,330.5636,True
3,0.08888889,0.07638226,-0.3274038,0.236427,4.68397,-4.536811,-2.519275,0.3390022,1.237044,0.4854667,-0.8931512,0.09706122,10.79576,13.54189,-0.2767579,0.1515717,0.04690463,-0.5324218,-3.592254,-0.4995544,0.3821661,1.436414,0.4437356,-0.1702412,0.3378544,-0.0006856062,-1.083681,0.4720211,-0.1305535,0.5343934,1.492637,0.3002949,0.05708078,1.111643,0.3293349,299.9844,270.6455,330.7119,True
3,0.1,0.06123958,-0.284925,0.2192504,4.683493,-4.534266,-2.519378,0.3381124,1.236965,0.4849157,-0.8934053,-0.02376539,10.8488,13.45618,-0.2769034,0.1441711,0.02132729,-0.5336783,-3.59014,-0.498177,0.381247,1.436363,0.4433494,-0.1829609,0.3282714,0.006861236,-1.084165,0.476145,-0.1297295,0.534179,1.49252,0.3004341,0.05603445,1.111905,0.3300226,299.8481,271.1366,331.0288,True
3,0.1111111,0.05037863,-0.2488313,0.2031762,4.682976,-4.531371,-2.519494,0.337311,1.236997,0.4843588,-0.8942815,-0.0795721,10.92838,13.37047,-0.2791647,0.1505985,0.004307613,-0.535142,-3.587252,-0.4974596,0.3804137,1.436327,0.4430149,-0.1798053,0.3240151,0.002567668,-1.084685,0.4800378,-0.1296539,0.5338968,1.492451,0.3006301,0.05457276,1.112495,0.3313071,299.6377,271.7652,331.2936,True
3,0.1222222,0.03740266,-0.2138002,0.1860226,4.682443,-4.529563,-2.519389,0.3365145,1.236946,0.4839163,-0.8943534,-0.005734146,11.06101,13.26334,-0.2865996,0.1494953,0.007556748,-0.5355915,-3.584246,-0.496605,0.3797346,1.436327,0.4426167,-0.1630751,0.3240561,-0.02851193,-1.086675,0.4839047,-0.1302339,0.5338043,1.492335,0.3008177,0.05305766,1.113268,0.332658,299.2745,272.4665,331.5258,True
3,0.1333333,0.02552362,-0.1883717,0.1667738,4.682311,-4.527529,-2.519261,0.3356842,1.236926,0.4834917,-0.8945745,-0.02008163,11.16711,13.11335,-0.2778179,0.1292081,0.03728556,-0.5346013,-3.581734,-0.4959951,0.3791776,1.436292,0.4423015,-0.1549561,0.3198492,-0.06804758,-1.089436,0.4876502,-0.1303782,0.533667,1.492216,0.301039,0.05173711,1.114073,0.3336543,298.9075,273.1404,331.6373,True
3,0.1444445,0.01256813,-0.1597446,0.14645,4.681996,-4.52625,-2.518936,0.3350081,1.236845,0.4831073,-0.8945345,0.003984272,11.24668,12.96336,-0.2604176,0.1014735,0.07758988,-0.5327515,-3.579311,-0.4957829,0.3785928,1.436277,0.4419646,-0.1626689,0.3124092,-0.09354378,-1.091733,0.4909424,-0.1298342,0.5335759,1.492074,0.3012054,0.05075643,1.114791,0.3339867,298.6174,273.6152,331.6639,True
3,0.1555556,-0.002461082,-0.1406927,0.1346941,4.681724,-4.524557,-2.518406,0.3341418,1.236793,0.4826188,-0.8946879,-0.01395384,11.29973,12.77051,-0.2506447,0.08441651,0.09772856,-0.5314908,-3.576947,-0.4953221,0.3779656,1.4362,0.441648,-0.1631343,0.3092446,-0.1382975,-1.095178,0.4942172,-0.1293788,0.5332567,1.491837,0.3013067,0.05005009,1.115317,0.3335542,298.4326,273.8082,331.5894,True
3,0.1666667,-0.01220234,-0.1173864,0.1122533,4.68164,-4.523835,-2.517912,0.333588,1.236723,0.4822757,-0.8946549,0.003238629,11.27321,12.5991,-0.2346988,0.07702911,0.0890834,-0.5311393,-3.575289,-0.4947229,0.3775189,1.436115,0.4413567,-0.1570621,0.29862,-0.1703281,-1.098534,0.4970574,-0.1291359,0.533213,1.491625,0.301388,0.04957036,1.115609,0.3324274,298.3438,273.715,331.472,True
3,0.1777778,-0.01125208,-0.1057607,0.0887688,4.681949,-4.522894,-2.51771,0.3332941,1.236694,0.4820297,-0.8946251,0.002843397,11.19363,12.44911,-0.2029262,0.08144949,0.06330755,-0.5319968,-3.573709,-0.4948473,0.377184,1.436008,0.4411426,-0.1518129,0.2911686,-0.1768045,-1.101173,0.500079,-0.1287918,0.5332008,1.491309,0.3014379,0.0492452,1.115676,0.3308056,298.3559,273.4669,331.2955,True
3,0.1888889,-0.01558753,-0.09732001,0.07276599,4.682195,-4.522084,-2.517368,0.3328303,1.236664,0.4817157,-0.8947933,-0.01534057,11.08753,12.34197,-0.1774675,0.06880268,0.04073665,-0.5324703,-3.573263,-0.4941123,0.3768584,1.435971,0.4408977,-0.1433093,0.2688022,-0.1801049,-1.103511,0.5021752,-0.1285273,0.5331291,1.491142,0.3014555,0.04896518,1.115573,0.3288966,298.4456,273.1023,331.1399,True
3,0.2,-0.01355741,-0.08677129,0.04821614,4.682921,-4.521533,-2.51741,0.3324721,1.236876,0.4814379,-0.8952514,-0.04161093,10.98143,12.29912,-0.1646689,0.04968667,0.03315796,-0.5322242,-3.573203,-0.4928052,0.3765199,1.435934,0.4405997,-0.1346105,0.250716,-0.1642574,-1.105481,0.5048138,-0.1284744,0.5335977,1.49138,0.3014488,0.04886363,1.115407,0.3270297,298.5494,272.6707,331.0009,True
3,0.2111111,-0.006103581,-0.08896068,0.03120764,4.683365,-4.520017,-2.51795,0.3321084,1.236687,0.4811203,-0.8952653,-0.0008752267,10.87533,12.29912,-0.1464226,0.02628979,0.0425721,-0.5312969,-3.573268,-0.4917343,0.3763011,1.435946,0.4403508,-0.1441421,0.2240757,-0.1599194,-1.10726,0.5062624,-0.1272019,0.5336261,1.491272,0.3014228,0.04895027,1.115236,0.3254566,298.6325,272.2543,330.9102,True
3,0.2222222,-0.004066353,-0.07730477,0.01304669,4.684012,-4.519914,-2.517975,0.3318823,1.236719,0.4809136,-0.8957143,-0.04102895,10.76923,12.3634,-0.1196286,0.005034275,0.05726645,-0.529928,-3.573132,-0.4913612,0.3760941,1.435947,0.4401097,-0.1480933,0.1824916,-0.1311456,-1.107771,0.5066608,-0.1255534,0.5333341,1.491064,0.301327,0.04898509,1.115079,0.3242795,298.7369,271.9213,330.8893,True
3,0.2333333,-0.003030765,-0.07201044,0.006630879,4.684577,-4.519359,-2.518118,0.3316073,1.23676,0.4806545,-0.8963225,-0.05522695,10.71618,12.47054,-0.09818976,-0.01090415,0.06987446,-0.5285613,-3.57305,-0.4910723,0.3758245,1.435966,0.439842,-0.1383795,0.1665,-0.1195281,-1.108777,0.5080035,-0.1250359,0.5330893,1.490848,0.3013134,0.04893133,1.114977,0.3235572,298.7917,271.6686,330.9771,True
3,0.2444444,-0.0009788676,-0.06140282,-0.007264616,4.685224,-4.519432,-2.518173,0.331487,1.236778,0.4804258,-0.895824,0.04600289,10.68966,12.62053,-0.07912475,0.0008890405,0.05912906,-0.5282881,-3.572047,-0.4916382,0.375634,1.435796,0.439537,-0.1264779,0.1430565,-0.1026204,-1.109424,0.5087458,-0.1243845,0.5330231,1.490707,0.3011665,0.04879395,1.114871,0.3232186,298.7404,271.6017,331.054,True
3,0.2555556,-0.002105224,-0.0476095,-0.01367372,4.685381,-4.518885,-2.518297,0.3312927,1.236757,0.4801826,-0.895897,-0.007087701,10.66313,12.72766,-0.07078504,0.01907361,0.0399451,-0.5288553,-3.570586,-0.4923554,0.375407,1.435872,0.43923,-0.1166765,0.1344942,-0.08246574,-1.109553,0.5096802,-0.1239025,0.5326822,1.490401,0.3009913,0.04857403,1.114754,0.3232189,298.7291,271.6073,331.1423,True
3,0.2666667,-0.006444038,-0.02844448,-0.01160789,4.685259,-4.519172,-2.518083,0.3311622,1.236818,0.4799075,-0.8958229,0.006890169,10.68966,12.79194,-0.06770072,0.03827583,0.0325131,-0.5292399,-3.568474,-0.4935218,0.3752587,1.435969,0.4389548,-0.09406356,0.1238348,-0.05926521,-1.109589,0.5108412,-0.1241203,0.5325989,1.490324,0.3007545,0.04828823,1.114642,0.3234576,298.7341,271.6366,331.2928,True
3,0.2777778,-0.01282942,-0.02953527,-0.01052231,4.685536,-4.518853,-2.517708,0.3309582,1.236927,0.4796333,-0.8959151,-0.008489579,10.74271,12.8348,-0.06540159,0.03076892,0.05485708,-0.5279579,-3.567196,-0.493921,0.3751369,1.436079,0.4386771,-0.06737839,0.1184918,-0.05526048,-1.109999,0.5116783,-0.1247683,0.5325305,1.490104,0.3006501,0.04799866,1.114548,0.3238397,298.7366,271.7037,331.454,True
3,0.2888889,-0.02344147,-0.03278793,-0.005087233,4.685204,-4.51728,-2.517248,0.3307492,1.237009,0.4793241,-0.8955902,0.02979208,10.82228,12.81337,-0.06728726,0.01365539,0.08359586,-0.5261192,-3.566052,-0.4940893,0.3750257,1.436204,0.4384487,-0.07786316,0.06414572,-0.04134584,-1.109839,0.5103614,-0.1229845,0.5324343,1.490014,0.3004751,0.04771417,1.114478,0.3242142,298.7471,271.8446,331.572,True
3,0.3,-0.037216,-0.04881857,-0.002861437,4.685795,-4.516356,-2.516351,0.3304372,1.237216,0.4789925,-0.8954522,0.01238833,10.90185,12.77051,-0.06295713,-0.005513933,0.08458982,-0.5249037,-3.566399,-0.4932632,0.3749543,1.436288,0.4381833,-0.1011149,0.03638396,-0.02620361,-1.109358,0.5091994,-0.1207112,0.532506,1.490063,0.3003561,0.04742967,1.11446,0.3244721,298.788,271.9792,331.6662,True
3,0.3111111,-0.05632055,-0.06809736,-0.008067556,4.686858,-4.515335,-2.51503,0.3300931,1.237448,0.478657,-0.8954538,-0.0001633305,10.92838,12.72766,-0.06944861,0.006207176,0.075069,-0.524721,-3.565137,-0.4933762,0.3748425,1.436373,0.4378974,-0.1116278,0.05337213,-0.01327793,-1.108914,0.5100394,-0.1198207,0.5325544,1.490142,0.3002713,0.04716535,1.114529,0.3245173,298.8188,272.0327,331.7917,True
3,0.3222222,-0.1105472,-0.1014123,-0.0205934,4.688815,-4.513854,-2.511868,0.3296491,1.237963,0.4781964,-0.8950799,0.03423506,10.98143,12.68481,-0.08548065,0.03703201,0.08270703,-0.5243828,-3.561383,-0.4950601,0.3746934,1.436602,0.4377129,-0.1009436,0.07574551,-0.009107281,-1.10907,0.5118553,-0.1198505,0.532539,1.49006,0.3001416,0.04696288,1.114715,0.3242322,298.8264,272.0537,331.888,True
3,0.3333333,-0.1466632,-0.1271492,-0.02147506,4.690444,-4.512095,-2.50905,0.3291365,1.238445,0.4777267,-0.8947289,0.03188792,11.03448,12.66338,-0.104337,0.05606753,0.1308506,-0.5229612,-3.556447,-0.4978417,0.3745248,1.436822,0.4374733,-0.07774474,0.07788366,-0.0327777,-1.110313,0.5123276,-0.1200297,0.5328162,1.489916,0.2999823,0.04673319,1.115023,0.3235992,298.8137,271.896,332.0022,True
3,0.3444445,-0.238125,-0.1541139,-0.005174872,4.691655,-4.509684,-2.503345,0.3280528,1.23914,0.4771373,-0.8930634,0.1521969,11.14058,12.66338,-0.1168878,0.005881637,0.1510294,-0.519384,-3.556633,-0.4956894,0.3744113,1.437127,0.4372096,-0.04426908,0.07049277,-0.09384824,-1.113396,0.5124932,-0.1206779,0.5328811,1.489841,0.2998652,0.04643612,1.115483,0.3227012,298.7889,271.5828,332.1389,True
3,0.3555556,-0.3306711,-0.183252,0.0015487,4.693243,-4.507305,-2.496905,0.3271281,1.23979,0.4765451,-0.8935214,-0.04293133,11.27321,12.66338,-0.1424738,-0.01548081,0.1383751,-0.5179603,-3.55733,-0.4926808,0.3743475,1.437377,0.436779,-0.05409594,0.05771086,-0.1193006,-1.115085,0.5123164,-0.1198313,0.5329049,1.489854,0.2996509,0.04597294,1.116206,0.3216082,298.81,271.1249,332.3692,True
3,0.3666667,-0.3923889,-0.2005713,-0.0003681928,4.694989,-4.505117,-2.490503,0.3259491,1.240541,0.4759593,-0.8911177,0.2205184,11.40584,12.68481,-0.1904999,-0.01666684,0.1248437,-0.5170538,-3.556941,-0.4891947,0.374164,1.437748,0.4363942,-0.05834337,0.05238129,-0.1181965,-1.11647,0.5126048,-0.1191695,0.5329763,1.48984,0.2995255,0.04526818,1.117276,0.3203759,298.7783,270.7357,332.5349,True
3,0.3777778,-0.4795895,-0.2425782,-0.0180822,4.697833,-4.502094,-2.482698,0.324338,1.241469,0.4752867,-0.8906431,0.04187281,11.56498,12.74909,-0.236032,-0.006263047,0.1709803,-0.514185,-3.552922,-0.4886488,0.3740397,1.43815,0.4358876,-0.07412606,0.05127074,-0.09885623,-1.11678,0.512847,-0.1178872,0.5332423,1.489727,0.299391,0.04407335,1.118819,0.3189642,298.7577,270.4049,332.6798,True
3,0.3888889,-0.5677908,-0.3057841,-0.02488773,4.701073,-4.498852,-2.47465,0.3227479,1.242567,0.4746511,-0.891279,-0.05786821,11.67109,12.81337,-0.2940081,-0.009849936,0.2619129,-0.508831,-3.54759,-0.488138,0.3740419,1.438624,0.4354255,-0.07504281,0.05444838,-0.08499073,-1.1173,0.5134826,-0.1174417,0.5331895,1.489725,0.2992318,0.04254676,1.120995,0.317446,298.5778,270.0677,332.8178,True
3,0.4,-0.6293645,-0.3465942,-0.02584219,4.705037,-4.494265,-2.464618,0.3207819,1.243944,0.4739246,-0.8905898,0.06398571,11.77719,12.87765,-0.3286067,-0.01973599,0.3409582,-0.5029917,-3.542624,-0.4877611,0.3741281,1.439153,0.4350309,-0.07296205,0.04378897,-0.09034583,-1.118475,0.5133138,-0.1166393,0.5332856,1.489644,0.299062,0.04069114,1.123818,0.3158905,298.1828,269.7583,332.8922,True
3,0.4111111,-0.735603,-0.4088624,-0.02209841,4.708784,-4.48855,-2.45317,0.3187419,1.24541,0.473151,-0.8908945,-0.02799405,11.80371,12.9205,-0.3290269,-0.09765059,0.4004479,-0.4958103,-3.543132,-0.483727,0.3742359,1.439748,0.4346335,-0.06255358,0.02144139,-0.117105,-1.120638,0.5123772,-0.1160707,0.5333663,1.489568,0.2988913,0.03847229,1.127241,0.3143191,297.6378,269.3996,333.0163,True
3,0.4222222,-0.8450814,-0.465799,-0.02161626,-1.569671,-4.483206,-2.440026,0.3162906,1.247203,0.4723272,-0.8896407,0.1154544,11.80371,12.94193,-0.3169715,-0.1647642,0.4183282,-0.4893202,-3.54544,-0.478635,0.3743318,1.440313,0.4342163,-0.05851825,0.006531923,-0.1395221,-1.122743,0.5113868,-0.1150459,0.5334197,1.489395,0.2987463,0.03605372,1.131222,0.3127739,296.968,269.0407,333.1783,True
3,0.4333333,-0.9535478,-0.513162,-0.02649621,-1.564734,-4.478151,-2.426089,0.3137361,1.249068,0.4714963,-0.8888417,0.0725714,11.77719,12.94193,-0.3091817,-0.2350816,0.4330361,-0.4824471,-3.549463,-0.4720522,0.3744642,1.44096,0.433708,-0.06307183,0.01292794,-0.1682302,-1.125507,0.511268,-0.1141489,0.533488,1.489234,0.2985804,0.03340742,1.135723,0.3111529,296.2727,268.6588,333.4397,True
3,0.4444444,-1.05658,-0.5850016,-0.03023151,-1.55852,-4.471783,-2.410927,0.3108734,1.251228,0.4705722,-0.8879357,0.08287362,11.77719,12.94193,-0.315347,-0.2436918,0.4628868,-0.4756012,-3.549332,-0.4684343,0.3744906,1.441698,0.4331417,-0.07523477,0.01615287,-0.2117836,-1.129357,0.5111629,-0.1128965,0.5336752,1.489161,0.2982752,0.03056518,1.140764,0.3093154,295.5563,268.2498,333.7536,True
3,0.4555556,-1.148024,-0.6280488,-0.03408104,-1.552732,-4.465724,-2.395585,0.3082194,1.253583,0.4695187,-0.8879986,-0.005628369,11.77719,12.96336,-0.3235827,-0.2480683,0.5012863,-0.4682668,-3.54778,-0.4660476,0.3744495,1.442417,0.4326236,-0.08501229,0.006562371,-0.230859,-1.132267,0.5102739,-0.1112642,0.5339735,1.489063,0.2981174,0.02739501,1.146383,0.3071818,294.8089,267.6467,334.1521,True
3,0.4666667,-1.204427,-0.6400192,-0.0339,-1.547373,-4.460551,-2.380949,0.3054984,1.255783,0.4685555,-0.8877557,0.02308616,11.85676,12.96336,-0.3316382,-0.2514459,0.5695133,-0.4591519,-3.544851,-0.4647219,0.3743625,1.44323,0.4318984,-0.104285,-0.01154962,-0.2413316,-1.135195,0.509087,-0.1089515,0.5340948,1.488935,0.2978337,0.02396872,1.152616,0.3048075,293.9453,266.9323,334.5586,True
3,0.4777778,-1.284334,-0.6371669,-0.03265581,-1.542305,-4.455808,-2.3643,0.3025216,1.25832,0.4675086,-0.8885046,-0.06796414,11.93634,12.96336,-0.3645077,-0.2122349,0.6071179,-0.4515837,-3.539044,-0.4651,0.3742347,1.443994,0.4310906,-0.1192477,-0.02327347,-0.2465062,-1.137789,0.5080578,-0.1067451,0.5341513,1.488895,0.2976215,0.0204145,1.159477,0.3022105,292.9778,266.1131,335.055,True
3,0.4888889,-1.329142,-0.623521,-0.0347335,-1.537432,-4.451654,-2.348288,0.2996165,1.260823,0.466471,-0.8901845,-0.1523588,11.98939,12.94193,-0.4007202,-0.1761715,0.6255531,-0.4445865,-3.53261,-0.4651965,0.3741063,1.444864,0.43031,-0.1447815,-0.02222515,-0.2430497,-1.140342,0.5075194,-0.1039687,0.5342144,1.488828,0.2973588,0.01699534,1.166934,0.2994568,291.8704,265.3779,335.4474,True
3,0.5,-1.393123,-0.605676,-0.02718198,-1.533091,-4.447374,-2.331113,0.2966633,1.263688,0.4652116,-0.8891485,0.0965584,12.04244,12.9205,-0.4558621,-0.1530187,0.6707239,-0.4362727,-3.525206,-0.4651842,0.3739913,1.445843,0.4294465,-0.1648815,-0.003073454,-0.2279034,-1.142212,0.5080549,-0.1017578,0.5342169,1.488754,0.297107,0.01371646,1.174792,0.2966298,290.6086,264.8054,335.5977,True
3,0.5111111,-1.446481,-0.5921229,-0.04202829,-1.5278,-4.443732,-2.313813,0.2935817,1.266537,0.4639115,-0.890421,-0.1167119,11.98939,12.89908,-0.4885458,-0.1479141,0.7242221,-0.4268067,-3.517947,-0.4652641,0.3738718,1.44687,0.4285359,-0.1713481,0.02675817,-0.2331431,-1.145114,0.509204,-0.1000864,0.5342978,1.488638,0.296804,0.01036912,1.18293,0.2937697,289.4009,264.2421,335.7091,True
3,0.5222223,-1.477496,-0.5667061,-0.04631542,-1.523357,-4.440667,-2.296567,0.2905566,1.26942,0.4626968,-0.8901381,0.02747094,11.93634,12.87765,-0.4680387,-0.1383834,0.7635257,-0.4174606,-3.510248,-0.4682239,0.3737541,1.447908,0.4277365,-0.1790006,0.04274549,-0.2511539,-1.148506,0.5098768,-0.09814841,0.5343022,1.4885,0.2965033,0.007009406,1.191254,0.2909833,288.2025,263.6962,335.8557,True
3,0.5333334,-1.519241,-0.5350652,-0.07294656,-1.518553,-4.438388,-2.278599,0.2873912,1.272563,0.4612198,-0.8906697,-0.04846422,11.88329,12.81337,-0.3982326,-0.1617715,0.8301234,-0.4061262,-3.503216,-0.4731447,0.3733822,1.448959,0.4265962,-0.1941924,0.05234186,-0.2765551,-1.15244,0.5103503,-0.09552732,0.5343872,1.488474,0.2961576,0.003583929,1.199733,0.2882521,287.0849,263.1533,336.1144,True
3,0.5444446,-1.564146,-0.5194355,-0.1123176,-1.512809,-4.437051,-2.259783,0.284108,1.275787,0.4599457,-0.8914548,-0.07080094,11.83024,12.74909,-0.4257403,-0.1693735,0.854794,-0.3959657,-3.496064,-0.4740914,0.3730063,1.44993,0.4254897,-0.2209555,0.05553323,-0.2890641,-1.156142,0.510762,-0.09230729,0.5343803,1.488397,0.2957916,9.43807E-05,1.208328,0.2855918,285.9471,262.4087,336.597,True
3,0.5555557,-1.60688,-0.5058923,-0.138863,-1.507555,-4.435437,-2.240901,0.2808757,1.278997,0.4586728,-0.8914303,0.003223289,11.80371,12.66338,-0.5225424,-0.1165292,0.8928734,-0.3863858,-3.481969,-0.4782185,0.3726456,1.450961,0.4243886,-0.2380984,0.06405307,-0.2984681,-1.159728,0.5114706,-0.08949366,0.5344287,1.488437,0.2955689,-0.003404266,1.217008,0.2830643,284.821,261.752,337.0085,True
3,0.5666668,-1.629302,-0.4942719,-0.1388556,-1.502671,-4.433587,-2.222427,0.2776498,1.282174,0.4574375,-0.8911858,0.02267347,11.85676,12.55624,-0.5525256,-0.01122269,0.9199529,-0.3783526,-3.459861,-0.491504,0.3722118,1.451925,0.4232914,-0.2455656,0.07363373,-0.2994495,-1.163123,0.5123838,-0.0869823,0.5343109,1.488341,0.2951679,-0.007034841,1.22578,0.2806579,283.7419,260.9082,337.6412,True
3,0.577778,-1.649672,-0.4645728,-0.143161,-1.498423,-4.432195,-2.20372,0.2743447,1.285709,0.4560688,-0.8916471,-0.04194411,11.90981,12.49196,-0.5398765,0.0005548298,0.9071199,-0.3698801,-3.446789,-0.4983118,0.3719082,1.452978,0.4219308,-0.2507775,0.07254268,-0.2876749,-1.165918,0.5127929,-0.08414577,0.5342225,1.488244,0.2948692,-0.01078754,1.234687,0.2784556,282.6795,259.662,338.6734,True
3,0.5888891,-1.655069,-0.4507715,-0.1463823,-1.493593,-4.430887,-2.185259,0.2712397,1.289129,0.4547102,-0.8926085,-0.08717169,12.01592,12.44911,-0.5356771,-0.02069315,0.8878667,-0.3613489,-3.437077,-0.5016117,0.3715145,1.454002,0.4207711,-0.2645248,0.07785651,-0.2768801,-1.168753,0.5137323,-0.08105171,0.5342025,1.488121,0.2944613,-0.01450112,1.243759,0.2765023,281.5928,258.5151,339.6994,True
3,0.6000003,-1.64881,-0.4295005,-0.1624617,-1.488921,-4.430526,-2.167147,0.2679896,1.292681,0.4534168,-0.8929451,-0.02975165,12.09549,12.47054,-0.5312355,-0.08564603,0.8844982,-0.3510835,-3.432389,-0.5003132,0.3711171,1.455159,0.4194047,-0.2837302,0.07998326,-0.2798763,-1.172024,0.5145589,-0.07763115,0.5339752,1.487969,0.2939804,-0.01808295,1.25298,0.2747289,280.4875,257.6697,340.5396,True
3,0.6111114,-1.641483,-0.4146461,-0.1870298,-1.483934,-4.430652,-2.149194,0.2649132,1.296223,0.4521725,-0.8935891,-0.05840416,12.12201,12.53482,-0.5053638,-0.1154632,0.9151516,-0.3401672,-3.422014,-0.5053548,0.3705589,1.456271,0.4181983,-0.2987499,0.07785252,-0.2903788,-1.175647,0.5151084,-0.07407503,0.5337622,1.487879,0.2935302,-0.02154514,1.262369,0.2730052,279.402,256.8628,341.4159,True
3,0.6222225,-1.636277,-0.3987287,-0.2084111,-1.479053,-4.4311,-2.131337,0.2617752,1.299804,0.4509153,-0.894372,-0.07090436,12.06897,12.66338,-0.4656466,-0.1335262,0.9521259,-0.3289643,-3.409806,-0.5130753,0.3700023,1.457303,0.416887,-0.312575,0.08422999,-0.2881035,-1.178824,0.5160262,-0.07060972,0.5334809,1.487687,0.2930894,-0.02478619,1.27187,0.271266,278.2564,255.5348,342.7811,True
3,0.6333337,-1.628885,-0.3881519,-0.2190555,-1.474181,-4.430886,-2.113908,0.2588652,1.303271,0.4491675,-0.8948647,-0.04431704,11.96286,12.81337,-0.4689656,-0.1260518,0.9393795,-0.3199511,-3.39763,-0.5192163,0.3695061,1.458377,0.4155755,-0.3250798,0.1001752,-0.2602632,-1.180757,0.5176018,-0.06729249,0.5331568,1.487558,0.292634,-0.02788702,1.281425,0.2695033,277.075,253.4933,344.7463,True
3,0.6444448,-1.61507,-0.3881461,-0.232938,-1.468975,-4.431338,-2.096652,0.2558398,1.306937,0.4478612,-0.8951843,-0.02878786,11.85676,12.98479,-0.4827785,-0.128237,0.9437292,-0.3101773,-3.384804,-0.5256342,0.3689744,1.45946,0.4142976,-0.3313714,0.1214749,-0.2495272,-1.183255,0.5196945,-0.06432573,0.5327942,1.487545,0.292207,-0.03083145,1.290943,0.2677845,275.8909,250.4678,347.6367,True
3,0.655556,-1.599091,-0.3881298,-0.239348,-1.463769,-4.431372,-2.079489,0.2528401,1.31069,0.4463933,-0.8956786,-0.04493103,11.77719,13.1562,-0.4750831,-0.1581052,0.9659813,-0.2987199,-3.373435,-0.5313584,0.3684552,1.460586,0.4130261,-0.3302172,0.1310537,-0.2420799,-1.185888,0.521344,-0.06152967,0.5324633,1.487542,0.2917147,-0.0336843,1.300356,0.2661099,274.7416,246.4431,351.6095,True
3,0.6666671,-1.585309,-0.3753017,-0.2436944,-1.459165,-4.432106,-2.062417,0.2498531,1.314347,0.4450693,-0.8960142,-0.03030249,11.75066,13.28477,-0.4747562,-0.2039739,0.9925066,-0.286537,-3.363828,-0.535363,0.3679109,1.461673,0.4116776,-0.3280966,0.1342531,-0.2420948,-1.188627,0.5229117,-0.05850219,0.5321041,1.487463,0.2912216,-0.03637492,1.309578,0.2643794,273.6637,240.421,357.6878,True
3,0.6777782,-1.555631,-0.3443004,-0.2428069,-1.455213,-4.43312,-2.045636,0.2471226,1.31811,0.4434967,-0.8961058,-0.0080853,11.69761,13.41333,-0.4797276,-0.2456221,1.025473,-0.2736915,-3.353249,-0.5399474,0.3673428,1.462759,0.4103673,-0.3240364,0.1364119,-0.262378,-1.19242,0.5244451,-0.05564302,0.5318426,1.487359,0.2907157,-0.03894247,1.318592,0.2625776,272.7742,229.5104,8.567634,True
3,0.6888894,-1.551454,-0.3262,-0.2428693,-1.451012,-4.434149,-2.028214,0.2443849,1.321777,0.4419057,-0.8962634,-0.01443067,11.64456,13.56331,-0.4537733,-0.272275,1.069979,-0.2601072,-3.339395,-0.5491289,0.3666679,1.463912,0.4090629,-0.3283978,0.1225697,-0.272999,-1.195897,0.5251734,-0.05207998,0.5314305,1.487237,0.2902019,-0.04142161,1.327428,0.2606923,272.1439,211.3267,26.66435,True
3,0.7000005,-1.549443,-0.2974157,-0.2397927,-1.447796,-4.435514,-2.01075,0.2414985,1.325442,0.4405465,-0.8965707,-0.02798468,11.56498,13.71331,-0.4053882,-0.3212483,1.116405,-0.245283,-3.327542,-0.5577131,0.3659399,1.465039,0.4076655,-0.3788089,0.1129906,-0.3065896,-1.200587,0.5260041,-0.04631876,0.530977,1.48719,0.2897003,-0.04380895,1.33613,0.2587919,271.8576,185.7959,52.0734,True
3,0.7111117,-1.547341,-0.2910401,-0.2387496,-1.44368,-4.436511,-1.993298,0.2387794,1.329228,0.4390633,-0.8959278,0.05900934,11.45889,13.86329,-0.3907953,-0.273204,1.091916,-0.2349574,-3.30706,-0.5736513,0.3651846,1.466187,0.4062581,-0.3981962,0.1193905,-0.3266315,-1.204994,0.52752,-0.04173546,0.53039,1.48711,0.2891877,-0.04606064,1.344747,0.2569105,271.9638,159.2005,78.6079,True
3,0.7222228,-1.539852,-0.2909559,-0.2259848,-1.439876,-4.437136,-1.976181,0.2359967,1.332949,0.437629,-0.8958431,0.007140418,11.35279,14.03471,-0.4094564,-0.1932827,1.050676,-0.2266568,-3.280321,-0.5942324,0.3644938,1.467455,0.404902,-0.39604,0.1321871,-0.3234495,-1.208607,0.5295656,-0.03817748,0.52987,1.487051,0.2887027,-0.04822787,1.353355,0.2550352,272.4222,139.3046,98.43775,True
3,0.7333339,-1.523964,-0.2523976,-0.1910169,-1.438102,-4.437539,-1.959518,0.2335029,1.336751,0.4361024,-0.8958315,0.001097905,11.24668,14.1847,-0.3966809,-0.1836618,1.054881,-0.2156505,-3.255551,-0.6142485,0.3638115,1.468663,0.4035079,-0.3777207,0.1588106,-0.3012433,-1.211327,0.5323663,-0.03555959,0.5291663,1.48705,0.2881422,-0.05034947,1.362046,0.2532124,273.0584,126.4855,111.1569,True
3,0.7444451,-1.516644,-0.2043038,-0.1603329,-1.437324,-4.438011,-1.94282,0.230892,1.340444,0.4345043,-0.8961313,-0.02739638,11.08753,14.31326,-0.3627933,-0.3072877,1.124677,-0.1990383,-3.242888,-0.623821,0.3631594,1.469729,0.4021745,-0.3444814,0.1705532,-0.280269,-1.213909,0.5349624,-0.03384638,0.5285246,1.487044,0.287611,-0.05233776,1.370853,0.2514501,273.8228,118.1298,119.4711,True
3,0.7555562,-1.519897,-0.1936947,-0.1635429,-1.434829,-4.439207,-1.925534,0.2283016,1.344223,0.4328203,-0.8965724,-0.04009902,10.95491,14.37754,-0.3776183,-0.3520552,1.117231,-0.1858546,-3.22788,-0.633765,0.3625325,1.470727,0.4006474,-0.3209457,0.1407491,-0.2730882,-1.216912,0.5355691,-0.03119653,0.5278229,1.486969,0.2868538,-0.05412228,1.379777,0.2497276,274.6263,111.7347,125.8551,True
3,0.7666674,-1.532608,-0.2258241,-0.1910789,-1.430192,-4.440917,-1.90813,0.2255924,1.347788,0.4307101,-0.8965361,0.003544595,10.87533,14.35612,-0.3986435,-0.3745662,1.148215,-0.1720482,-3.204482,-0.6517133,0.3617232,1.471742,0.3991866,-0.3163792,0.09704699,-0.2454786,-1.218765,0.5350975,-0.02771232,0.5270415,1.486945,0.286195,-0.05563518,1.388816,0.2480104,275.4072,105.9388,131.6551,True
3,0.7777785,-1.544187,-0.2685673,-0.2111206,-1.425107,-4.44228,-1.89063,0.2227703,1.351578,0.429147,-0.895988,0.05004018,10.8488,14.29184,-0.3931012,-0.3490688,1.195112,-0.1589817,-3.161688,-0.6896149,0.3609249,1.472778,0.3977206,-0.3226234,0.08533186,-0.2315775,-1.220923,0.5359148,-0.02418763,0.5262316,1.486771,0.2855976,-0.05699757,1.397965,0.2462162,276.2878,101.1107,136.4808,True
3,0.7888896,-1.546228,-0.2845123,-0.2004307,-1.420957,-4.443238,-1.873253,0.2202762,1.355597,0.4277515,-0.8958725,0.0100994,10.87533,14.20613,-0.3728614,-0.3128373,1.211035,-0.1470198,-3.113821,-0.7335075,0.3601304,1.473969,0.3962193,-0.335256,0.1044873,-0.2154508,-1.222805,0.5378567,-0.0206853,0.525327,1.486666,0.2848737,-0.05831138,1.407181,0.2442825,277.3663,98.23705,139.3772,True
3,0.8000008,-1.535611,-0.2619934,-0.1749791,-1.418544,-4.443726,-1.856378,0.21765,1.359355,0.4261422,-0.895743,0.01180549,10.95491,14.07757,-0.350404,-0.3202567,1.222582,-0.134152,-3.065782,-0.7778039,0.3593351,1.475205,0.39483,-0.3512566,0.1439083,-0.2163303,-1.225471,0.5410646,-0.01742213,0.5244626,1.486604,0.284178,-0.05962399,1.416346,0.2421714,278.5944,96.86891,140.724,True
3,0.8111119,-1.501604,-0.2190733,-0.1315422,-1.417611,-4.443502,-1.841133,0.2153631,1.36295,0.4242895,-0.8958235,-0.007432269,11.03448,13.949,-0.3159234,-0.3479584,1.271286,-0.1199562,-3.003429,-0.8372619,0.3584915,1.476404,0.3933575,-0.3739315,0.1652302,-0.244848,-1.229132,0.5436661,-0.01344843,0.5236368,1.48655,0.2834833,-0.06083301,1.42538,0.2400133,279.7079,96.25312,141.1516,True
3,0.8222231,-1.45693,-0.1953785,-0.1168347,-1.416119,-4.443911,-1.82659,0.2129642,1.366524,0.4226072,-0.8962794,-0.04159239,11.14058,13.90615,-0.2930717,-0.408702,1.313608,-0.104756,-2.932173,-0.9056865,0.3576221,1.477509,0.3918281,-0.3815028,0.1588688,-0.2586471,-1.232611,0.5452937,-0.009782856,0.5227633,1.486531,0.2827833,-0.06182431,1.4343,0.2379283,280.6391,95.54894,141.6453,True
3,0.8333342,-1.422865,-0.1995338,-0.1296801,-1.41328,-4.44523,-1.811686,0.2107486,1.370119,0.4212267,-0.8977846,-0.1373424,11.27321,13.90615,-0.3030827,-0.4139163,1.24868,-0.09413528,-2.867912,-0.9659344,0.356831,1.478532,0.3902473,-0.3837745,0.1407704,-0.2735576,-1.236125,0.5462036,-0.005813681,0.5218501,1.486474,0.2821112,-0.0626154,1.443138,0.2359044,281.5068,94.15037,142.9442,True
3,0.8444453,-1.374922,-0.2132577,-0.1521178,-1.409915,-4.446971,-1.797699,0.2083945,1.373701,0.4195278,-0.89855,-0.06897057,11.37931,13.92758,-0.3087225,-0.3595625,1.230731,-0.0854928,-2.75923,-1.070306,0.3558781,1.479677,0.3884819,-0.3837955,0.134403,-0.27677,-1.239406,0.5477152,-0.002117213,0.5209207,1.486364,0.2814546,-0.06310824,1.451777,0.2338931,282.4279,92.41008,144.6683,True
3,0.8555565,-1.337623,-0.2227083,-0.1617472,-1.406773,-4.4484,-1.783463,0.2059937,1.377171,0.4178042,-0.8981218,0.03943493,11.45889,13.949,-0.3031538,-0.3245232,1.2851,-0.07646149,-2.585829,-1.239863,0.3549177,1.480841,0.386857,-0.3858938,0.1525094,-0.2724669,-1.242282,0.5502462,0.001486843,0.5199016,1.486297,0.2807257,-0.06342776,1.460101,0.2318686,283.4577,91.28493,145.6837,True
3,0.8666676,-1.307837,-0.2129934,-0.160796,-1.404301,-4.449665,-1.769283,0.203653,1.380528,0.4158587,-0.8987572,-0.05873512,11.53846,13.97043,-0.2965158,-0.3033062,1.331979,-0.07015619,-2.372232,-1.44974,0.3538808,1.481861,0.3850527,-0.3806405,0.1759686,-0.2778141,-1.245509,0.5534967,0.004598214,0.5188282,1.486104,0.2800186,-0.0637261,1.468078,0.2298977,284.4844,90.94955,145.8208,True
3,0.8777788,-1.283357,-0.2129177,-0.1693812,-1.401542,-4.451358,-1.755329,0.2012132,1.383878,0.4143183,-0.8982347,0.04808875,11.61804,13.99186,-0.3171004,-0.3064558,1.282041,-0.06592709,-2.186561,-1.630682,0.3528562,1.48289,0.3831902,-0.3892638,0.1802484,-0.2840845,-1.248708,0.5560344,0.008758338,0.5177355,1.486008,0.279268,-0.06423865,1.475748,0.2279784,285.4708,90.79433,145.8186,True
3,0.8888899,-1.269565,-0.2150659,-0.1896501,-1.398554,-4.453782,-1.740856,0.1989789,1.387324,0.4129753,-0.8979162,0.028471,11.77719,14.07757,-0.3194802,-0.3244678,1.236205,-0.06361493,-1.989053,-1.824121,0.3516178,1.484001,0.381345,-0.3925367,0.1855768,-0.2915047,-1.252158,0.5584393,0.01248277,0.5164938,1.48596,0.2784262,-0.06501586,1.483119,0.2260992,286.3133,90.50926,146.0506,True
3,0.900001,-1.244055,-0.2204066,-0.2216526,-1.395319,-4.456951,-1.727211,0.196546,1.390492,0.4116006,-0.8979391,-0.002482348,11.98939,14.20613,-0.2982998,-0.2775572,1.240441,-0.06706478,-1.773545,-2.036432,0.3503312,1.485258,0.3796315,-0.4065524,0.1941187,-0.3040966,-1.255653,0.5612995,0.01685967,0.5153054,1.486005,0.2775567,-0.06597673,1.490214,0.224227,287.0207,90.25012,146.3241,True
3,0.9111122,-1.205734,-0.2149429,-0.2260345,-1.392583,-4.459174,-1.714583,0.1942101,1.393454,0.4099903,-0.897334,0.05521495,12.22811,14.31326,-0.2591036,-0.2539181,1.222128,-0.07231601,-1.596362,-2.211336,0.3490091,1.486221,0.3779438,-0.4126793,0.2132625,-0.2773847,-1.257866,0.5644802,0.02064935,0.5140086,1.485909,0.276649,-0.06699584,1.497051,0.2224412,287.6558,90.33398,146.1845,True
3,0.9222233,-1.16107,-0.2052115,-0.2400354,-1.390137,-4.46206,-1.702459,0.1918877,1.396356,0.4086821,-0.8980206,-0.06337705,12.51989,14.44182,-0.2192556,-0.2088772,1.148459,-0.07840772,-1.482196,-2.324118,0.3474556,1.486975,0.3761277,-0.4295322,0.2345643,-0.2634194,-1.260764,0.5679774,0.02462811,0.512655,1.48551,0.2752898,-0.06799657,1.503739,0.2208547,288.2652,90.70572,145.7218,True
3,0.9333345,-1.114298,-0.1997726,-0.268937,-1.387695,-4.465857,-1.690719,0.1899053,1.399235,0.4075575,-0.8987146,-0.06303767,12.78515,14.52753,-0.2150198,-0.1127026,1.033606,-0.08514445,-1.430769,-2.372857,0.34598,1.487741,0.3743842,-0.4555523,0.2536873,-0.2045765,-1.261392,0.5717112,0.02922739,0.5112262,1.48551,0.2744484,-0.06898764,1.510327,0.2195334,288.9783,90.89079,145.5143,True
3,0.9444456,-1.082405,-0.1922255,-0.281831,-1.385402,-4.469235,-1.679199,0.1878886,1.402027,0.4061658,-0.8990858,-0.03370202,12.97082,14.61324,-0.1818153,-0.02926418,0.9451529,-0.09246655,-1.392117,-2.410021,0.3446869,1.488725,0.3727574,-0.4306351,0.2526017,-0.1632879,-1.261923,0.5746766,0.03229935,0.5099727,1.485417,0.2736285,-0.06991524,1.516746,0.2184348,289.7324,90.6753,145.816,True
3,0.9555568,-1.016468,-0.1642146,-0.2735927,-1.384108,-4.471868,-1.669655,0.1863297,1.4046,0.4044688,-0.8992978,-0.01942498,13.0504,14.67752,-0.1778312,-0.02704395,0.9131595,-0.09910262,-1.325852,-2.473964,0.3435442,1.489973,0.3709776,-0.3793449,0.235563,-0.1478496,-1.26321,0.5768034,0.03413054,0.5086203,1.485476,0.2728236,-0.07076937,1.522924,0.2175493,290.4738,90.48113,146.0938,True
3,0.9666679,-0.9622287,-0.1297856,-0.2493658,-1.383756,-4.473769,-1.660715,0.1846267,1.407214,0.403034,-0.8990747,0.02028284,12.99735,14.63467,-0.159427,-0.08348943,0.9310188,-0.1061754,-1.240674,-2.557661,0.3424445,1.491136,0.3693426,-0.3634627,0.2110783,-0.1586861,-1.265269,0.5784285,0.03706721,0.5072548,1.485472,0.2719138,-0.07155252,1.528839,0.2168971,291.1637,90.4408,146.2408,True
3,0.977779,-0.8770784,-0.1027005,-0.2315694,-1.383466,-4.475581,-1.653747,0.1831881,1.409717,0.4014821,-0.9004563,-0.1268428,12.78515,14.52753,-0.1367441,-0.1590989,0.9434901,-0.1132387,-1.150603,-2.646608,0.3416739,1.492114,0.3676543,-0.3606176,0.1631783,-0.1949802,-1.268758,0.5788167,0.04101481,0.5059617,1.485545,0.2710502,-0.07231747,1.53455,0.2163591,291.7604,90.26801,146.6539,True
3,0.9888902,-0.8078279,-0.1066638,-0.2370633,-1.381859,-4.478364,-1.646645,0.1816076,1.412301,0.4002717,-0.900574,-0.01001327,12.49337,14.39897,-0.121452,-0.227317,0.9709178,-0.1215089,-1.065935,-2.729876,0.3408269,1.492498,0.3657451,-0.3714079,0.1354899,-0.2098129,-1.27154,0.5794303,0.0452756,0.5046935,1.485523,0.2701049,-0.07292921,1.539948,0.2158026,292.3009,89.85283,147.3832,True
3,1.000001,-0.7630412,-0.1214129,-0.2456399,-1.37983,-4.481246,-1.639336,0.1799278,1.414699,0.398869,-0.9019184,-0.1233653,12.20159,14.29184,-0.1003931,-0.1984365,0.948481,-0.1300209,-1.028743,-2.766306,0.3398359,1.493141,0.3641171,-0.351065,0.1131207,-0.2004508,-1.273295,0.5801179,0.04822931,0.50346,1.48537,0.2690837,-0.07345385,1.545044,0.2150826,292.7816,89.36636,148.1012,True
3,1.011112,-0.749164,-0.1298854,-0.2466916,-1.377909,-4.48383,-1.630782,0.1782837,1.417057,0.3974283,-0.9014428,0.04402595,11.93634,14.29184,-0.09188032,-0.187775,0.9527113,-0.1393387,-0.9928507,-2.801151,0.3387649,1.493955,0.3624487,-0.3168076,0.0960753,-0.1848297,-1.274698,0.5806981,0.05028128,0.5021874,1.4852,0.2680366,-0.07389793,1.54973,0.2141495,293.3018,89.07355,148.5131,True
3,1.022224,-0.7374163,-0.1254955,-0.227563,-1.376606,-4.485604,-1.622787,0.1763495,1.419226,0.3961647,-0.9005277,0.08270742,11.83024,14.31326,-0.1068641,-0.1771451,0.945381,-0.1486566,-0.9565832,-2.835299,0.3375224,1.494246,0.3608782,-0.298596,0.0566677,-0.1765265,-1.276373,0.5801703,0.05313779,0.5008994,1.485124,0.2670639,-0.0744699,1.55403,0.2130196,293.8466,89.18017,148.3842,True
3,1.033335,-0.7342182,-0.1169062,-0.212695,-1.3755,-4.487413,-1.614331,0.1743869,1.42117,0.3948324,-0.8986027,0.1749054,11.77719,14.31326,-0.1371903,-0.1696223,0.874227,-0.1551994,-0.9322054,-2.856816,0.3359837,1.495015,0.3592741,-0.3157924,0.01725745,-0.1934384,-1.279162,0.5791012,0.05754718,0.4994779,1.485041,0.266078,-0.07530179,1.558008,0.2117306,294.3135,89.42494,148.0899,True
3,1.044446,-0.7290291,-0.08491482,-0.2107069,-1.375576,-4.489755,-1.605938,0.1723215,1.423061,0.3937135,-0.8984216,0.01485331,11.72414,14.24898,-0.1763509,-0.1726647,0.7498327,-0.1584261,-0.9116262,-2.87381,0.3343794,1.495714,0.3578072,-0.3285466,0.02364835,-0.1901018,-1.281097,0.579836,0.0614583,0.4980589,1.484968,0.2650545,-0.07638266,1.561801,0.2103241,294.6027,89.70735,147.7666,True
3,1.055557,-0.7258956,-0.07102919,-0.2075605,-1.375352,-4.492074,-1.597394,0.1705914,1.425098,0.3935323,-0.8976893,0.06681548,11.72414,14.1847,-0.172623,-0.1288765,0.6923708,-0.1640001,-0.9009461,-2.882576,0.3326023,1.496528,0.3563592,-0.3359568,0.09822032,-0.1835696,-1.282693,0.5837713,0.06411161,0.496475,1.48485,0.264091,-0.07760758,1.565477,0.2088781,294.8476,89.88201,147.5462,True
3,1.066668,-0.7227439,-0.06786588,-0.2193001,-1.374637,-4.494981,-1.588853,0.1686282,1.426993,0.3925178,-0.8975433,0.01258994,11.75066,14.05614,-0.1493262,-0.09258653,0.6901703,-0.1715965,-0.8896146,-2.892877,0.3309419,1.497069,0.3547993,-0.3337879,0.1546782,-0.1771442,-1.28424,0.5876812,0.06669354,0.4949997,1.4848,0.2631409,-0.07887587,1.56909,0.2074646,295.091,90.01579,147.3553,True
3,1.077779,-0.7089587,-0.07002789,-0.2427675,-1.373593,-4.498733,-1.580489,0.1669332,1.428854,0.391813,-0.8971955,0.03163353,11.64456,13.92758,-0.1237448,-0.06171522,0.7102976,-0.1798752,-0.8775065,-2.904245,0.3292722,1.49759,0.3533995,-0.3156282,0.2026256,-0.1708935,-1.285761,0.5918013,0.06836521,0.4934188,1.484856,0.2622373,-0.08007614,1.572696,0.2062876,295.32,90.23347,146.9466,True
3,1.08889,-0.6961479,-0.08280018,-0.2544684,-1.372154,-4.502031,-1.572602,0.1650917,1.430687,0.3909733,-0.8971173,0.006798794,11.53846,13.75616,-0.1114075,-0.0498073,0.6495302,-0.1850684,-0.869435,-2.911221,0.3279435,1.498056,0.3519673,-0.2686027,0.1941051,-0.1564663,-1.28699,0.5936995,0.06925017,0.4918087,1.48485,0.2613535,-0.08108755,1.576366,0.2055947,295.5643,90.49548,146.5021,True
3,1.100002,-0.6609237,-0.1104357,-0.2768075,-1.36989,-4.505851,-1.565721,0.1634545,1.432455,0.3904929,-0.8973095,-0.01775368,11.40584,13.56331,-0.09559393,-0.05933151,0.6227466,-0.1903995,-0.8552425,-2.924605,0.3264893,1.498789,0.3505349,-0.2331678,0.1728007,-0.1302121,-1.287504,0.5950468,0.07027683,0.4902638,1.48487,0.2603154,-0.08205981,1.580279,0.2052996,295.9499,90.60002,146.4728,True
3,1.111113,-0.6171981,-0.1251861,-0.2886181,-1.367981,-4.50972,-1.559427,0.1618262,1.434204,0.3899083,-0.8975598,-0.02285688,11.29973,13.3919,-0.08504236,-0.1039491,0.5852834,-0.1950861,-0.8357287,-2.943176,0.3251188,1.499368,0.3491971,-0.2028803,0.146135,-0.08579699,-1.286829,0.5957396,0.07125954,0.4887315,1.484851,0.2592688,-0.08292804,1.58435,0.2053853,296.4547,90.6058,146.6888,True
3,1.122224,-0.5692749,-0.1292942,-0.3004282,-1.366428,-4.513593,-1.553818,0.1602742,1.435826,0.389348,-0.8984861,-0.08463197,11.27321,13.26334,-0.06798977,-0.134767,0.5744373,-0.2006228,-0.8168908,-2.96133,0.3237553,1.499893,0.3476076,-0.2103357,0.1322955,-0.08788548,-1.288082,0.5970321,0.07344386,0.4872408,1.484718,0.2581255,-0.08371851,1.588483,0.2057148,297.0476,90.48665,147.1061,True
3,1.133335,-0.5255377,-0.1386741,-0.2951766,-1.364558,-4.516713,-1.548662,0.1586867,1.437585,0.3887041,-0.8988989,-0.03726463,11.37931,13.22048,-0.001609623,-0.150651,0.6176513,-0.208827,-0.79849,-2.981767,0.3224503,1.500248,0.3463356,-0.2382368,0.08862542,-0.1100268,-1.290197,0.5966667,0.07723966,0.4856742,1.484609,0.2570164,-0.08439291,1.592443,0.2062208,297.6974,90.39683,147.4868,True
3,1.144446,-0.4743934,-0.1491549,-0.310182,-1.362584,-4.520788,-1.544382,0.1571651,1.439058,0.388226,-0.8992696,-0.03385505,11.56498,13.24191,0.08061767,-0.1160006,0.5021588,-0.2105516,-0.7972234,-2.986405,0.3209366,1.500441,0.3450303,-0.2503413,0.0439363,-0.1547461,-1.293963,0.5959777,0.08021974,0.4840761,1.484512,0.2557409,-0.08508397,1.59615,0.2067795,298.3167,90.28928,147.87,True
3,1.155557,-0.4478131,-0.1512748,-0.337945,-1.360952,-4.525665,-1.539214,0.1555579,1.440548,0.3876534,-0.8992217,0.004341732,11.85676,13.30619,0.08871603,-0.07963428,0.4542576,-0.2140702,-0.7961533,-2.988712,0.3194253,1.500823,0.3437266,-0.2462079,0.01093731,-0.1675845,-1.296108,0.5954887,0.08296359,0.4826189,1.484395,0.2550054,-0.08589128,1.599526,0.2072888,298.8446,90.18736,148.2402,True
3,1.166668,-0.4233068,-0.1597481,-0.3539691,-1.358996,-4.530406,-1.534182,0.1540702,1.442019,0.387485,-0.8998667,-0.05935231,12.22811,13.30619,0.07059303,-0.07117525,0.456526,-0.2190375,-0.7902667,-2.994614,0.3178955,1.501211,0.342443,-0.2140772,0.01625299,-0.1508526,-1.297185,0.5959133,0.08419824,0.4810492,1.484372,0.2539577,-0.08689161,1.602555,0.2076145,299.2634,90.19566,148.4965,True
3,1.17778,-0.4041639,-0.1597133,-0.3668011,-1.357382,-4.535114,-1.529282,0.1524897,1.443348,0.3871849,-0.8988014,0.09762334,12.51989,13.32762,0.06324551,-0.07337746,0.4725531,-0.2249705,-0.7818439,-3.003035,0.3163725,1.501446,0.3411465,-0.1733672,0.02690335,-0.1234995,-1.297084,0.5968986,0.08496016,0.4795105,1.484483,0.2531304,-0.08808988,1.605126,0.2077725,299.6498,90.40906,148.4699,True
3,1.188891,-0.3892874,-0.1511426,-0.3765006,-1.356141,-4.540137,-1.524405,0.1509716,1.444949,0.3877409,-0.8984195,0.0337705,12.78515,13.3919,0.07176757,-0.07973382,0.4692863,-0.2298745,-0.7737599,-3.01196,0.314933,1.501689,0.3398027,-0.1134313,0.02476311,-0.09640597,-1.297264,0.5970824,0.08410023,0.4779341,1.484498,0.2520297,-0.08958017,1.607358,0.2078188,299.892,90.84135,148.1221,True
3,1.200002,-0.3776733,-0.1416,-0.4010683,-1.35517,-4.54565,-1.519445,0.1493896,1.446171,0.3876803,-0.8982145,0.01828629,13.0504,13.45618,0.09967396,-0.0382303,0.5224785,-0.2375881,-0.7731457,-3.014529,0.3134244,1.502184,0.3385046,-0.1113438,0.001343988,-0.09962719,-1.298365,0.5965633,0.08574633,0.4762639,1.48447,0.250731,-0.09125128,1.609308,0.2079163,300.002,91.40833,147.5929,True
3,1.211113,-0.3690903,-0.1736588,-0.4371847,-1.352476,-4.552023,-1.514211,0.1477119,1.4474,0.3877635,-0.8980153,0.01789797,13.31565,13.56331,0.1167254,-0.02753854,0.5287873,-0.2437847,-0.7700112,-3.019466,0.3118655,1.502548,0.3372948,-0.1377258,0.001305729,-0.07485981,-1.298469,0.5965174,0.0881975,0.4745757,1.484503,0.249567,-0.09305285,1.611121,0.2081729,300.0289,92.02667,146.9839,True
3,1.222224,-0.343416,-0.2152165,-0.4690431,-1.34902,-4.558712,-1.509784,0.1461272,1.448637,0.3878446,-0.897774,0.02173175,13.5809,13.67045,0.1217637,-0.02313834,0.4861469,-0.247666,-0.768295,-3.022596,0.3102819,1.50271,0.3361492,-0.1513417,-0.008307792,-0.05128551,-1.298138,0.5962182,0.09049341,0.4727737,1.484383,0.2482517,-0.09491266,1.612958,0.2087879,300.0363,92.65941,146.3574,True
3,1.233335,-0.2975927,-0.219258,-0.468076,-1.346902,-4.564137,-1.506682,0.1448197,1.449799,0.388375,-0.8974522,0.02908927,13.687,13.73473,0.1530955,-0.05684127,0.37187,-0.2476463,-0.7614039,-3.031923,0.3086768,1.503045,0.3350146,-0.1428814,-0.02641242,-0.05778169,-1.299147,0.5953373,0.09201008,0.4711599,1.484345,0.2469842,-0.09682467,1.61492,0.2097717,300.1692,93.14791,146.0953,True
3,1.244446,-0.2656813,-0.2073883,-0.466071,-1.345332,-4.569479,-1.503622,0.1433853,1.450889,0.3884654,-0.8980983,-0.05951095,13.66048,13.77759,0.2006993,-0.04166371,0.3289966,-0.2498567,-0.7599447,-3.036909,0.3070166,1.503272,0.3338954,-0.1272857,-0.06152183,-0.09739136,-1.301717,0.5936161,0.09334779,0.4694128,1.48442,0.2457922,-0.0987501,1.616984,0.2110633,300.4324,93.66225,145.98,True
3,1.255558,-0.2316538,-0.2040669,-0.47896,-1.343917,-4.575722,-1.500552,0.1422324,1.452141,0.3896818,-0.8989719,-0.07949585,13.4748,13.77759,0.2557325,0.02036718,0.3043008,-0.2530722,-0.7678935,-3.033624,0.3053385,1.503543,0.3328145,-0.1147036,-0.06788515,-0.1177645,-1.303781,0.5929069,0.09443809,0.4676458,1.48451,0.2445443,-0.1005672,1.619012,0.2126073,300.7189,94.14571,145.9245,True
3,1.266669,-0.2125243,-0.2062001,-0.5013701,-1.342043,-4.582316,-1.497434,0.1408225,1.453192,0.389847,-0.8987641,0.01941389,13.2626,13.75616,0.2779935,0.01835275,0.2860422,-0.2556011,-0.7674487,-3.03784,0.3036993,1.503862,0.3316822,-0.09851442,-0.05831295,-0.09661041,-1.304155,0.5926118,0.09505088,0.4658429,1.484606,0.2433438,-0.1021936,1.620888,0.21437,300.9527,94.38075,146.0795,True
3,1.27778,-0.1795545,-0.2190246,-0.5493441,-1.339618,-4.590513,-1.494641,0.1393289,1.454092,0.3899596,-0.8985857,0.0158418,12.9443,13.67045,0.2477627,0.03755978,0.2330238,-0.2567325,-0.7706421,-3.036347,0.3021518,1.504328,0.330555,-0.07222906,-0.0551762,-0.02549108,-1.302066,0.5919802,0.09517738,0.4638734,1.48471,0.2419915,-0.1037574,1.622667,0.2162074,301.1587,94.59466,146.211,True
3,1.288891,-0.1423074,-0.2082002,-0.5473498,-1.338132,-4.596693,-1.492797,0.137886,1.454935,0.3899021,-0.8982922,0.02648944,12.59947,13.58474,0.2565487,0.04280573,0.2766585,-0.261214,-0.771722,-3.03835,0.3006546,1.504871,0.3294132,-0.06239938,-0.07011479,-0.002171274,-1.3016,0.590553,0.09593132,0.4620718,1.484903,0.2407253,-0.1052912,1.624362,0.2182021,301.3763,94.97769,146.098,True
3,1.300002,-0.1039725,-0.195179,-0.5304499,-1.336811,-4.602241,-1.4916,0.1366237,1.45579,0.3902249,-0.898656,-0.03374878,12.25464,13.52046,0.2714766,0.02477181,0.2690502,-0.263858,-0.7693579,-3.044016,0.2990384,1.505191,0.3283286,-0.0559992,-0.09460632,-0.002263404,-1.30188,0.5887889,0.09680723,0.4602767,1.485174,0.2395093,-0.1070298,1.626109,0.220179,301.6902,95.32897,146.2061,True
3,1.311113,-0.0858773,-0.1950207,-0.5283835,-1.335947,-4.609077,-1.489331,0.1357647,1.457098,0.392823,-0.8988781,-0.02018799,11.96286,13.47761,0.2747043,0.0556255,0.2893465,-0.2678618,-0.7740169,-3.042642,0.2974377,1.505552,0.3272445,-0.05497403,-0.122304,-0.007627368,-1.302427,0.5864167,0.09801365,0.4584953,1.485394,0.2381921,-0.1090017,1.627764,0.222075,302.0399,95.68631,146.3756,True
3,1.322224,-0.05600797,-0.2066247,-0.5326715,-1.333771,-4.615429,-1.488207,0.1344794,1.457897,0.3932207,-0.8990523,-0.01602758,11.85676,13.52046,0.2988501,0.111165,0.2616231,-0.270118,-0.7849012,-3.036254,0.2958506,1.505854,0.326278,-0.03771736,-0.1681166,0.01239704,-1.301926,0.5829982,0.09891939,0.4566578,1.485689,0.2367411,-0.1110946,1.629146,0.2238206,302.2216,95.9068,146.6338,True
3,1.333336,-0.02725683,-0.2086589,-0.5391278,-1.331829,-4.621977,-1.487141,0.1331721,1.458715,0.3934174,-0.8979641,0.09935793,11.85676,13.56331,0.3164583,0.1433344,0.1965875,-0.2704472,-0.793896,-3.031761,0.2942467,1.506363,0.3256805,-0.03129686,-0.177709,0.01445228,-1.30193,0.5806393,0.09961314,0.4548531,1.485947,0.2353952,-0.1131018,1.630074,0.2255356,302.2235,96.43308,146.2403,True
3,1.344447,0.01959014,-0.2020574,-0.5382018,-1.330252,-4.628258,-1.487497,0.1319826,1.459273,0.3939109,-0.8985825,-0.05764188,11.93634,13.67045,0.3257904,0.1775187,0.1731684,-0.2720329,-0.8051604,-3.024826,0.2927091,1.506828,0.3245966,-0.02801146,-0.1723858,0.02401064,-1.301584,0.5788905,0.1003024,0.4529719,1.486259,0.2338662,-0.114976,1.630748,0.2276269,302.1307,97.28045,145.3065,True
3,1.355558,0.06432551,-0.189007,-0.5191948,-1.32892,-4.633814,-1.488301,0.1308,1.459761,0.3938661,-0.8984808,0.009641247,12.01592,13.82044,0.3298002,0.1850813,0.1369367,-0.2728963,-0.8135483,-3.020636,0.2911472,1.507044,0.3235579,-0.03105298,-0.1851819,0.03894183,-1.300944,0.5763067,0.1014683,0.4510733,1.48651,0.2324035,-0.1170062,1.631496,0.2298658,302.1701,97.80511,145.1912,True
3,1.366669,0.09413096,-0.1856996,-0.5214163,-1.32722,-4.640117,-1.488599,0.1296085,1.460077,0.3936429,-0.899488,-0.09244731,12.04244,14.03471,0.3464918,0.2118694,0.09746893,-0.2727796,-0.8259767,-3.012945,0.2894085,1.507355,0.3225632,-0.02449487,-0.2331392,0.05373978,-1.30034,0.5716752,0.102757,0.4491703,1.486929,0.2309127,-0.119198,1.632271,0.2320454,302.2522,98.15568,145.4646,True
3,1.37778,0.1154134,-0.1920818,-0.5427486,-1.325417,-4.647279,-1.488856,0.1284431,1.460586,0.3941524,-0.8994885,0.0004680201,12.01592,14.24898,0.373141,0.1896044,0.08764584,-0.2737506,-0.83073,-3.013526,0.2877801,1.507789,0.3216536,-0.005117603,-0.275752,0.07268032,-1.29932,0.5670087,0.1034638,0.4472389,1.487296,0.2294648,-0.1214095,1.63281,0.2340975,302.3388,98.40545,145.7976,True
3,1.388891,0.1218077,-0.1920496,-0.5416988,-1.323764,-4.653661,-1.488895,0.127244,1.461165,0.3946106,-0.8987471,0.06740926,11.96286,14.46325,0.3825632,0.1503307,0.04273368,-0.2725666,-0.8328693,-3.016022,0.2861404,1.508092,0.320646,0.01310325,-0.2896052,0.08313691,-1.298392,0.5629783,0.1037421,0.4452973,1.487645,0.2280071,-0.1236836,1.633054,0.2358492,302.3742,98.63167,146.136,True
3,1.400002,0.1622828,-0.1919061,-0.549264,-1.32203,-4.660517,-1.49042,0.1259301,1.461403,0.3944168,-0.8984845,0.02316421,11.90981,14.69895,0.3918853,0.160037,0.00647594,-0.2716318,-0.8412462,-3.012559,0.2844474,1.508547,0.3196754,0.02263109,-0.2682893,0.07773928,-1.29794,0.5608142,0.1037304,0.4433266,1.488087,0.2265344,-0.1260349,1.632981,0.2372481,302.3697,99.15549,146.0164,True
3,1.411114,0.1910267,-0.1918204,-0.5589253,-1.320306,-4.667474,-1.491749,0.1246692,1.461661,0.3944793,-0.8977729,0.06472655,11.85676,14.95607,0.396032,0.1877519,0.003330961,-0.2722629,-0.852451,-3.006294,0.2827018,1.508921,0.3185885,0.01086613,-0.2267512,0.07469545,-1.297447,0.5595427,0.1044321,0.4414498,1.488486,0.2250586,-0.1284636,1.632695,0.2384938,302.3,99.992,145.3022,True
3,1.422225,0.2112051,-0.187542,-0.5771005,-1.318876,-4.674932,-1.492971,0.1234746,1.46208,0.3950515,-0.8990241,-0.1151691,11.85676,15.23462,0.3747296,0.1983239,0.008824047,-0.2729777,-0.8615779,-3.000978,0.2809502,1.509349,0.3175027,0.01315966,-0.2033252,0.0917408,-1.295961,0.5579516,0.1046359,0.4394384,1.488863,0.2236052,-0.1309871,1.632389,0.2397205,302.1646,100.781,144.6476,True
3,1.433336,0.2197049,-0.1832603,-0.58034,-1.31736,-4.681974,-1.493858,0.1222609,1.462418,0.3951542,-0.8986901,0.03141172,11.93634,15.49175,0.3440994,0.2300503,0.06450079,-0.2763402,-0.8735467,-2.992207,0.2792131,1.50985,0.3164403,0.03362584,-0.2150656,0.1139032,-1.29415,0.5546045,0.1044638,0.4373837,1.489229,0.2220812,-0.133578,1.632012,0.2409679,302.1243,101.4244,144.2984,True
3,1.444447,0.2345701,-0.1714727,-0.5793565,-1.316368,-4.688685,-1.495309,0.1210654,1.462828,0.3957016,-0.8983306,0.03223072,12.09549,15.7703,0.3344717,0.2438641,0.06459741,-0.2776543,-0.8844087,-2.98525,0.2775263,1.510263,0.315443,0.06032781,-0.2353037,0.1200068,-1.292932,0.551024,0.1038766,0.4354175,1.489684,0.2206392,-0.1362143,1.631514,0.2423236,302.081,102.1239,143.8533,True
3,1.455558,0.2570449,-0.1712784,-0.5773377,-1.31483,-4.696734,-1.497292,0.1203375,1.464343,0.3991172,-0.8975897,0.0672636,12.25464,16.07028,0.3342609,0.2609692,0.04120329,-0.2776745,-0.8972206,-2.976631,0.2756,1.510628,0.3144193,0.0687536,-0.247003,0.1092554,-1.2925,0.547802,0.1036737,0.433411,1.490185,0.2192309,-0.1389047,1.630986,0.2439322,301.9793,102.891,143.2996,True
3,1.466669,0.2698494,-0.1786995,-0.5826645,-1.313051,-4.703785,-1.498943,0.1191524,1.464788,0.3997753,-0.8977702,-0.01722632,12.38727,16.34883,0.3511138,0.2866344,0.02409756,-0.2780255,-0.9119585,-2.966975,0.2736346,1.511034,0.3135207,0.05791077,-0.2523138,0.09018232,-1.292507,0.5446486,0.1042393,0.4314581,1.490674,0.2177358,-0.1416407,1.630539,0.2457954,301.8051,103.6128,142.8979,True
3,1.47778,0.2902344,-0.1967099,-0.6050647,-1.310594,1.569945,-1.500925,0.1182432,1.466349,0.4039106,-0.8984429,-0.06143113,12.46684,16.54168,0.3488897,0.3122001,0.02097408,-0.2789097,-0.9274752,-2.955996,0.2717792,1.511628,0.3125715,0.02600844,-0.2491366,0.09584004,-1.291453,0.5417116,0.1058961,0.4293195,1.491247,0.2162678,-0.1442802,1.630186,0.2480887,301.5959,104.6025,141.9602,True
3,1.488891,0.3052068,-0.2008632,-0.5954959,-1.308635,1.56311,-1.503092,0.1168356,1.466394,0.404567,-0.8976845,0.06963802,12.49337,16.64881,0.3608761,0.3153267,0.06352564,-0.2818391,-0.9382108,-2.950071,0.2700234,1.51231,0.3116274,0.003894228,-0.2427828,0.1216345,-1.289522,0.53881,0.107372,0.4271723,1.491842,0.2147579,-0.1467517,1.630067,0.2512902,301.4503,105.6859,140.8067,True
3,1.500003,0.3350244,-0.180347,-0.5572835,-1.307652,1.557951,-1.506565,0.1157558,1.466643,0.405344,-0.8982981,-0.05694186,12.49337,16.71309,0.3851264,0.3144321,0.0250178,-0.2815675,-0.9512089,-2.942696,0.268214,1.512846,0.310703,0.008463576,-0.2438727,0.1524821,-1.287128,0.5357347,0.1079941,0.4250908,1.492452,0.2132623,-0.149206,1.630247,0.2552553,301.4268,106.4699,140.3315,True
3,1.511114,0.3572306,-0.1322163,-0.5298159,-1.308082,1.552784,-1.509827,0.1145164,1.466585,0.4053807,-0.897661,0.05864788,12.46684,16.75595,0.3908149,0.284919,-0.09654445,-0.2766023,-0.9632198,-2.935632,0.2663975,1.513245,0.3098648,0.02042107,-0.2513576,0.17579,-1.284788,0.5321423,0.1083012,0.4230705,1.49316,0.2117839,-0.1516477,1.630659,0.2601993,301.5322,107.1213,140.1217,True
3,1.522225,0.3805008,-0.09375423,-0.5278775,-1.308668,1.546823,-1.513352,0.1133691,1.466783,0.4059803,-0.8982166,-0.051526,12.44032,16.75595,0.3917418,0.2573138,-0.1307035,-0.2745218,-0.972233,-2.93126,0.2645372,1.513828,0.3089345,0.03343075,-0.2737469,0.1979989,-1.282453,0.5279143,0.1087345,0.4210844,1.493923,0.2102761,-0.1541897,1.631082,0.2654618,301.5363,106.9086,141.5802,True
3,1.533336,0.3889947,-0.08307087,-0.5460722,-1.308365,1.538732,-1.516028,0.1125516,1.46776,0.4088879,-0.8978357,0.03513263,12.41379,16.69166,0.3801394,0.2583005,-0.1125226,-0.2747242,-0.9832119,-2.924459,0.2626952,1.514268,0.3080423,0.03591555,-0.2929541,0.2331139,-1.279131,0.5235133,0.10958,0.4190548,1.49463,0.2087996,-0.1567634,1.631217,0.2703307,301.3712,106.4696,143.5188,True
3,1.544447,0.388001,-0.08545214,-0.5503175,-1.304557,1.533759,-1.519105,0.1092571,1.462417,0.3904722,-0.8980062,-0.01608391,12.44032,16.5631,0.3360912,0.3264017,-0.1354993,-0.2741373,-1.00706,-2.903572,0.2607498,1.514782,0.3070138,0.0374084,-0.2951328,0.2757111,-1.275108,0.5194749,0.110318,0.4169662,1.495321,0.207356,-0.1594269,1.630956,0.2742457,301.1251,106.292,144.9358,True
3,1.555558,0.3848694,-0.09392858,-0.5364301,-1.303572,1.528017,-1.521699,0.1079779,1.462615,0.3908539,-0.8975055,0.04575819,12.46684,16.41311,0.3210911,0.3678882,-0.1278417,-0.274313,-1.027627,-2.88685,0.2587137,1.515582,0.306107,0.03850843,-0.2727579,0.2799817,-1.272203,0.5169134,0.1106016,0.4149455,1.496039,0.2059274,-0.1621116,1.630282,0.277261,300.8776,106.9484,144.6517,True
3,1.566669,0.3890991,-0.07892674,-0.5183852,-1.303476,1.522735,-1.524767,0.1067553,1.462769,0.3911276,-0.8968658,0.05783643,12.46684,16.3274,0.3170878,0.3805511,-0.0819784,-0.276157,-1.043264,-2.875205,0.2568552,1.516397,0.3051543,0.04930207,-0.2695736,0.2937324,-1.268887,0.5134565,0.1106978,0.4129078,1.496862,0.2045622,-0.1651469,1.6295,0.2790985,300.7306,106.2891,147.1749,True
3,1.577781,0.4071479,-0.06058401,-0.4759164,-1.304047,1.51826,-1.528058,0.105919,1.462441,0.3912287,-0.8964078,0.04118777,12.46684,16.22027,0.2913096,0.3773538,-0.1159076,-0.274981,-1.05987,-2.861629,0.2550991,1.517044,0.3042483,0.04927198,-0.2674382,0.2916095,-1.266009,0.510076,0.1112645,0.4109257,1.497657,0.2031956,-0.168954,1.627794,0.2766685,300.8481,105.0073,152.05,True
3,1.588892,0.4423713,-0.05709577,-0.440843,-1.303648,1.514386,-1.533288,0.1045776,1.462674,0.3914421,-0.8966549,-0.02281304,12.46684,16.28455,0.261544,0.3751058,-0.1071891,-0.2751211,-1.0751,-2.848891,0.2533282,1.517652,0.3034196,0.03971678,-0.2610649,0.2948998,-1.263111,0.5067628,0.112118,0.409016,1.498503,0.2019176,-0.1723952,1.624611,0.2714626,300.5141,106.8882,149.2912,True
3,1.600003,0.4606241,-0.08468959,-0.4322538,-1.301789,1.509578,-1.537727,0.1034076,1.46288,0.3914716,-0.8966224,0.003170267,12.44032,16.5631,0.243552,0.3973506,-0.0793175,-0.2768857,-1.092839,-2.834093,0.2515318,1.518319,0.3026702,0.03355455,-0.2632148,0.3173293,-1.259203,0.5032195,0.1129718,0.4071153,1.499227,0.2006593,-0.175241,1.620788,0.2656839,300.0135,109.7068,143.428,True
3,1.611114,0.4533486,-0.1262661,-0.4278246,-1.29911,1.504644,-1.540974,0.1021675,1.463167,0.3915627,-0.8982635,-0.1502084,12.46684,17.01307,0.2266774,0.4100038,-0.04615432,-0.2789805,-1.109637,-2.81984,0.2497224,1.518841,0.3018913,0.03501474,-0.2643304,0.3567274,-1.254292,0.4993177,0.113733,0.405324,1.499845,0.199533,-0.1775684,1.617195,0.2610921,299.6685,112.1374,138.2131,True
3,1.622225,0.4397238,-0.1688737,-0.4105901,-1.295933,1.500387,-1.544208,0.1009922,1.46335,0.391788,-0.8976994,0.05269191,12.49337,17.63445,0.1946749,0.4407768,-0.03840892,-0.2807648,-1.129679,-2.801748,0.2481293,1.519228,0.3013608,0.04896399,-0.2590052,0.3672459,-1.250218,0.4960583,0.1137372,0.4035953,1.500409,0.1984746,-0.1798314,1.614505,0.2585241,299.571,113.7185,135.0848,True
3,1.633336,0.4334837,-0.194404,-0.3923731,-1.293018,1.496386,-1.547681,0.09992078,1.463566,0.3919086,-0.8962842,0.1286893,12.49337,18.27726,0.1946169,0.4535658,-0.04050693,-0.2821097,-1.14886,-2.785452,0.2465574,1.519734,0.3007615,0.05185897,-0.2611109,0.3373902,-1.247856,0.4925305,0.1141924,0.4019327,1.500962,0.1974692,-0.1821636,1.612753,0.2581854,299.5678,114.6534,133.8341,True
3,1.644447,0.4251522,-0.2198626,-0.3539085,-1.289754,1.493669,-1.551268,0.09896174,1.463675,0.392019,-0.8958826,0.03557154,12.49337,18.87722,0.2041368,0.4334043,-0.06085272,-0.282286,-1.163923,-2.773636,0.2452045,1.520148,0.300293,0.04410651,-0.2696054,0.3076293,-1.245907,0.4888274,0.1151428,0.4002888,1.501471,0.1965265,-0.1845904,1.611838,0.2598594,299.5157,115.1825,133.8129,True
3,1.655559,0.4326958,-0.235651,-0.3113061,-1.28715,1.49061,-1.554815,0.0985162,1.463393,0.3918896,-0.8960312,-0.01375581,12.51989,19.39147,0.2115327,0.3717446,-0.1004763,-0.2806333,-1.174309,-2.766229,0.2437859,1.520472,0.2996964,0.03732339,-0.2642523,0.269354,-1.244493,0.4856085,0.1160417,0.3988284,1.501897,0.1957655,-0.1869558,1.611462,0.2630781,299.3684,115.3841,134.6286,True
3,1.66667,0.4370423,-0.2451389,-0.2899727,-1.284118,1.487983,-1.559092,0.09769532,1.463413,0.3919206,-0.895832,0.01837686,12.57294,19.82001,0.2052186,0.2621032,-0.1422507,-0.2775861,-1.176148,-2.766534,0.2424651,1.520669,0.2992496,0.04260515,-0.2461438,0.2650571,-1.241892,0.4829087,0.1161809,0.397318,1.502373,0.1949396,-0.1891517,1.61134,0.2672008,299.1416,115.3454,135.9896,True
3,1.677781,0.4190522,-0.2589673,-0.2621806,-1.280742,1.485924,-1.562594,0.09670466,1.463611,0.3919022,-0.895881,-0.004682531,12.62599,19.97,0.1679149,0.2843375,-0.1344921,-0.2779872,-1.190968,-2.752971,0.2411814,1.521026,0.2988396,0.04994658,-0.2035215,0.2565148,-1.239324,0.4816822,0.1159274,0.3959865,1.502743,0.1941431,-0.1910206,1.611109,0.2715076,298.8688,115.1684,137.6168,True
3,1.688892,0.3935726,-0.2494078,-0.2430421,-1.277476,1.482454,-1.565822,0.09615418,1.464351,0.3917975,-0.8965047,-0.05693675,12.70557,19.90572,0.1296295,0.3225021,-0.1053928,-0.2796538,-1.208249,-2.736612,0.2398194,1.521235,0.2983997,0.04463035,-0.1598603,0.2587366,-1.236526,0.4807481,0.1158563,0.3946612,1.503083,0.1934874,-0.1925148,1.610536,0.2753509,298.6261,115.0646,139.0492,True
3,1.700003,0.3392734,-0.2356215,-0.1950508,-1.275299,1.481872,-1.567581,0.09537873,1.46439,0.3917794,-0.8956301,0.08044335,12.75862,19.60574,0.09884767,0.3436432,-0.0785052,-0.2814066,-1.222929,-2.722708,0.2386005,1.521553,0.2979388,0.03931492,-0.1470807,0.2609417,-1.23359,0.4790279,0.1162363,0.3933111,1.503466,0.1927512,-0.1927686,1.611918,0.2777205,297.6211,111.5808,143.0447,True
3,1.711114,0.2988873,-0.23024,-0.1353305,-1.273086,1.482202,-1.569939,0.09414047,1.464103,0.3920364,-0.895677,-0.005076911,12.78515,19.11292,0.0755941,0.3530822,-0.04636931,-0.2836629,-1.236111,-2.710185,0.2375515,1.521724,0.2976186,0.03302322,-0.1556154,0.2705896,-1.230446,0.4763505,0.1169069,0.3920424,1.503712,0.1922197,-0.1926166,1.612446,0.2784047,297.7053,109.8317,144.7206,True
3,1.722225,0.280845,-0.2215917,-0.07993246,-1.270858,1.483162,-1.572728,0.09333262,1.464073,0.3919468,-0.8935102,0.1983424,12.75862,18.6201,0.06722833,0.3317217,-0.0335817,-0.2849273,-1.24567,-2.701588,0.2365749,1.522033,0.2972395,0.02656087,-0.1715905,0.2642527,-1.22798,0.4733132,0.1179953,0.3908895,1.504016,0.1916246,-0.1925436,1.612806,0.2777902,298.0641,110.1632,144.0498,True
3,1.733337,0.2733886,-0.2108693,-0.05331904,-1.268943,1.48337,-1.575685,0.09228206,1.463872,0.3919904,-0.8938229,-0.03014411,12.65252,18.17013,0.05480833,0.2645164,-0.01129526,-0.2857071,-1.246723,-2.700793,0.2357538,1.522096,0.2970462,0.01042359,-0.1865036,0.2473532,-1.226174,0.4701511,0.1193749,0.3900031,1.504197,0.1912613,-0.1924702,1.612889,0.2765016,298.741,111.8151,142.2013,True
3,1.744448,0.2574,-0.1959148,-0.02351585,-1.267317,1.48423,-1.578227,0.09161618,1.463813,0.3918395,-0.8943907,-0.05132973,12.51989,17.74159,0.01196529,0.1995614,-0.07828557,-0.28275,-1.251438,-2.694897,0.2350128,1.522205,0.2969494,0.001794644,-0.1950187,0.2367818,-1.22418,0.4672957,0.120675,0.3890574,1.504377,0.1908627,-0.1922677,1.6133,0.2751879,299.567,113.4869,140.4395,True
3,1.755559,0.2371432,-0.1884971,-0.01072575,-1.265477,1.484356,-1.580168,0.09091648,1.463642,0.3917248,-0.8950384,-0.05859888,12.44032,17.33447,0.01843698,0.2016804,-0.06447467,-0.2836506,-1.260228,-2.686909,0.2341552,1.522326,0.2969649,-0.01011702,-0.1854201,0.2177338,-1.222665,0.4652126,0.1219003,0.3880577,1.504495,0.1904833,-0.1920477,1.613642,0.2741424,300.3476,114.3576,139.4491,True
3,1.76667,0.2094419,-0.1821799,0.00208718,-1.263699,1.484864,-1.581652,0.09027806,1.46363,0.3916166,-0.894648,0.03623775,12.38727,16.94879,0.009101287,0.1760217,-0.03890699,-0.2845513,-1.262951,-2.684161,0.2335626,1.522265,0.2968781,-0.02431209,-0.1704746,0.1827275,-1.222151,0.4637087,0.1230894,0.3873185,1.504542,0.1904154,-0.1912906,1.613641,0.2734857,300.6291,113.3312,139.5888,True
3,1.777781,0.1550577,-0.1663988,0.0138512,-1.262388,1.485456,-1.581523,0.08972159,1.463601,0.3915129,-0.8943784,0.02440467,12.33422,16.54168,-0.001486927,0.1525587,-0.04102373,-0.2844645,-1.267016,-2.679895,0.2330069,1.522367,0.2966795,-0.001128402,-0.1512614,0.1580178,-1.221223,0.4625373,0.1227323,0.3866117,1.504643,0.1902847,-0.1908165,1.613692,0.2731989,301.0479,113.351,139.5076,True
3,1.788892,0.1177365,-0.154793,0.0277256,-1.261104,1.486208,-1.581692,0.08920121,1.463581,0.3914752,-0.8939869,0.0357682,12.41379,16.19884,0.008331843,0.1269724,-0.01772106,-0.2851569,-1.268733,-2.678615,0.2323959,1.522374,0.296598,0.02187237,-0.1171235,0.1152112,-1.221311,0.4622714,0.1218204,0.3858851,1.504641,0.190186,-0.190421,1.6142,0.2730988,301.1553,112.9318,139.8737,True
3,1.800003,0.09644794,-0.1527045,0.04160755,-1.259483,1.487191,-1.582343,0.08873335,1.463631,0.3914049,-0.8925872,0.1278679,12.46684,15.94172,0.01593833,0.1003431,-0.008245803,-0.2855143,-1.269306,-2.678509,0.2318678,1.522421,0.2964666,0.02473041,-0.09365237,0.0821829,-1.221492,0.4620216,0.1215709,0.38526,1.504629,0.1899552,-0.1904128,1.614195,0.2730658,301.34,112.6645,140.091,True
3,1.811115,0.08466756,-0.1580679,0.03841828,-1.258112,1.486916,-1.581975,0.08874843,1.463127,0.3913844,-0.8930463,-0.04277383,12.49337,15.72745,0.01829075,0.07047886,0.01084404,-0.2861071,-1.267581,-2.680467,0.2315299,1.522348,0.2963197,0.01777896,-0.05631834,0.02689246,-1.2229,0.4627801,0.1213738,0.3847596,1.504598,0.1898663,-0.1906115,1.614116,0.2730122,301.2388,112.9106,139.8793,True
3,1.822226,0.06760329,-0.1560311,0.03311772,-1.256451,1.487144,-1.582279,0.0884552,1.46304,0.3913383,-0.8938804,-0.0755089,12.51989,15.53461,0.01084265,0.07896551,0.01624283,-0.2870206,-1.270843,-2.677186,0.2311067,1.522245,0.2962875,0.001351343,-0.04349466,-0.01767317,-1.224518,0.4629242,0.1219147,0.3843718,1.504495,0.1899509,-0.1905243,1.614074,0.2730718,301.1687,112.5804,140.1289,True
3,1.833337,0.03869995,-0.1242241,0.02774198,-1.25599,1.487484,-1.582035,0.08788797,1.46325,0.3912723,-0.8936322,0.02349883,12.41379,15.40604,0.001144744,0.08216488,0.001402885,-0.2870664,-1.27504,-2.672801,0.2308366,1.522055,0.296169,-0.00191712,-0.0488132,-0.02510569,-1.224999,0.4621488,0.1222679,0.3840966,1.504402,0.1899078,-0.1906627,1.614002,0.2729025,301.1837,113.1941,139.6881,True
3,1.844448,0.007647693,-0.08814108,0.02660803,-1.256106,1.487851,-1.58133,0.08754113,1.463449,0.3913321,-0.8943753,-0.06799997,12.30769,15.32033,-0.008427493,0.07574642,0.001434784,-0.28719,-1.277396,-2.669996,0.2305738,1.521937,0.2961621,-0.005076922,-0.03923142,-0.02081035,-1.225473,0.4617732,0.1224175,0.3836759,1.504355,0.1898303,-0.1905547,1.613966,0.2726875,301.3651,113.5389,139.4066,True
3,1.855559,-0.006292945,-0.06796868,0.02442951,-1.255995,1.488058,-1.580888,0.08727702,1.463413,0.3913045,-0.8941137,0.02468444,12.22811,15.27748,0.007622086,0.06619594,0.006631378,-0.2875766,-1.278321,-2.669795,0.2303127,1.521849,0.2960844,-0.01239577,-0.02220428,-0.006866951,-1.22476,0.4622951,0.12269,0.3833915,1.504194,0.1897793,-0.1904051,1.613974,0.2724916,301.5042,113.709,139.2255,True
3,1.86667,-0.01280808,-0.03181459,0.02423876,-1.255952,1.487353,-1.580902,0.08746025,1.463868,0.3912039,-0.893841,0.02483872,12.17507,15.27748,0.01306105,0.04489286,0.01399215,-0.2877333,-1.277515,-2.670786,0.2300957,1.52174,0.2959921,-0.02163768,0.004386133,0.0294719,-1.223122,0.4630347,0.1230684,0.3831837,1.50405,0.1896996,-0.1904702,1.614069,0.272398,301.5545,113.9529,138.9596,True
3,1.877781,-0.0171901,-0.0095194,0.01138498,-1.256368,1.487136,-1.58052,0.08737439,1.463745,0.3910155,-0.8943683,-0.04824518,12.17507,15.29891,0.007995598,0.004352326,0.03310512,-0.2880795,-1.272134,-2.675923,0.2299506,1.52176,0.295969,-0.03854039,0.004367849,0.04348677,-1.22222,0.4629721,0.1240189,0.3829801,1.503925,0.1896632,-0.1905853,1.613947,0.2722994,301.2657,113.9885,138.8559,True
3,1.888893,-0.01624365,9.159464E-05,0.006001135,-1.257318,1.486568,-1.579291,0.08732212,1.463221,0.3910799,-0.8953585,-0.08996436,12.30769,15.25605,-0.0004716665,0.007500263,0.04275584,-0.2888827,-1.271785,-2.675978,0.2297994,1.521726,0.2958701,-0.04386874,-0.02440086,0.04243954,-1.22207,0.461565,0.1251603,0.382912,1.503846,0.1896102,-0.1907756,1.613877,0.272225,301.1262,114.2623,138.5962,True
3,1.900004,-0.02476483,0.002161639,0.0007020624,-1.257304,1.48674,-1.579035,0.08679107,1.463305,0.3911448,-0.8950378,0.03013376,12.46684,15.19177,-0.009986881,0.01595863,0.05774842,-0.2900848,-1.271914,-2.675422,0.2296717,1.521772,0.2959054,-0.04183853,-0.04143044,0.03174879,-1.222174,0.4605648,0.1259012,0.3828461,1.503771,0.1896486,-0.1909748,1.613815,0.2722113,300.9901,114.4936,138.4057,True
3,1.911115,-0.03324046,-0.007457616,0.00288373,-1.256827,1.486865,-1.578448,0.08665127,1.463351,0.391103,-0.8943843,0.05951743,12.59947,15.17034,-0.01002214,0.008519563,0.04814612,-0.2901674,-1.270747,-2.676526,0.229623,1.5217,0.2959929,-0.03988709,-0.03929052,0.01361869,-1.222707,0.4601359,0.1264075,0.3827489,1.503635,0.1896327,-0.1910336,1.613809,0.2722622,300.943,114.4792,138.435,True
3,1.922226,-0.0395839,-0.01492893,0.007196191,-1.256367,1.487314,-1.578035,0.08628479,1.463408,0.3911664,-0.8952104,-0.0759031,12.70557,15.12749,-0.00166898,-0.01267419,0.01288837,-0.2889397,-1.269743,-2.677689,0.2295406,1.5217,0.2960579,-0.0424011,-0.02434425,-0.02469855,-1.224267,0.4605131,0.1268291,0.3827778,1.503516,0.1897378,-0.1909229,1.613893,0.272361,300.9604,114.1765,138.6922,True
3,1.933337,-0.04385554,-0.009597201,0.0135766,-1.256444,1.487717,-1.577522,0.08615425,1.463388,0.3911936,-0.8951241,0.008687981,12.65252,15.12749,0.007854234,-0.03815868,-0.009607333,-0.2876534,-1.266966,-2.680795,0.229561,1.521686,0.2961423,-0.04377684,0.002318522,-0.05555423,-1.225771,0.4616775,0.1268932,0.38283,1.503483,0.1898398,-0.1908649,1.613973,0.2724361,300.9161,113.9357,138.8781,True
3,1.944448,-0.04282572,0.002143074,0.01886358,-1.256876,1.48822,-1.577296,0.08606312,1.46337,0.3911638,-0.895278,-0.01412311,12.54642,15.04178,0.01642404,-0.05517169,-0.01076845,-0.2870472,-1.263647,-2.684418,0.2295566,1.521784,0.2961693,-0.04085119,0.03003966,-0.08218797,-1.227357,0.4630921,0.1267526,0.3828361,1.503505,0.1899972,-0.1908979,1.613991,0.2724384,300.8663,113.9696,138.8519,True
3,1.955559,-0.02376829,0.02884401,0.01659658,-1.25797,1.488341,-1.577713,0.08611384,1.46335,0.391017,-0.8953068,-0.002425366,12.46684,14.91322,0.01229348,-0.05204041,0.01057303,-0.2875607,-1.26078,-2.687169,0.2296154,1.521814,0.2961736,-0.03235115,0.05561052,-0.08330924,-1.228069,0.4647217,0.1263247,0.3828785,1.503511,0.1901083,-0.1909758,1.61396,0.2723711,300.8003,114.1146,138.6986,True
3,1.966671,-0.01527015,0.03421086,0.01869144,-1.258452,1.48864,-1.57782,0.08616155,1.463323,0.3909578,-0.8956386,-0.03026096,12.36074,14.72038,0.0112878,-0.05525737,0.01802933,-0.2876534,-1.257775,-2.690141,0.2296059,1.521865,0.2961769,-0.03027849,0.07159552,-0.08864245,-1.229084,0.4662185,0.1260993,0.3830036,1.503566,0.1902399,-0.1910415,1.613912,0.2722787,300.7726,114.3113,138.5085,True
3,1.977782,0.003839765,0.04705678,0.01328049,-1.259436,1.48855,-1.578509,0.08626929,1.463451,0.3908486,-0.8964679,-0.07554632,12.30769,14.50611,-0.01862221,-0.04148677,0.01186963,-0.2875601,-1.258094,-2.688667,0.2297205,1.522003,0.2961447,-0.02714853,0.0801245,-0.09505633,-1.230211,0.4676342,0.1258354,0.3831722,1.503651,0.1904197,-0.1910897,1.613873,0.2722011,300.776,114.5155,138.3397,True
3,1.988893,0.01766868,0.05246166,0.01856747,-1.260163,1.48908,-1.57919,0.08642808,1.463506,0.3907633,-0.8961713,0.02774608,12.33422,14.27041,-0.0293394,-0.04043396,0.003418449,-0.2871303,-1.25734,-2.688642,0.2298038,1.522116,0.296145,-0.02397036,0.07159807,-0.09509674,-1.231239,0.4684273,0.1257001,0.3834234,1.503728,0.1905262,-0.1911146,1.613853,0.2721769,300.7948,114.6369,138.2634,True
3,2.000004,0.02195253,0.05252329,0.0302773,-1.260729,1.489854,-1.579837,0.08648548,1.463598,0.3906999,-0.8967801,-0.05598745,12.41379,13.949,-0.04108698,-0.05216011,-0.007182922,-0.286375,-1.255,-2.690076,0.2299806,1.522244,0.2961018,-0.02928467,0.06201021,-0.09612331,-1.232277,0.4687289,0.1261462,0.3836355,1.503779,0.1906691,-0.191127,1.613858,0.2721969,300.8007,114.6702,138.2667,True
3,2.011115,0.01657438,0.05255621,0.03558161,-1.261919,1.489805,-1.57894,0.08689734,1.463184,0.3907962,-0.8965836,0.01839426,12.49337,13.58474,-0.04005902,-0.05427017,-0.01358504,-0.2858003,-1.253386,-2.691223,0.2301061,1.522352,0.2961192,-0.04211719,0.05561203,-0.1013294,-1.233539,0.4692193,0.1268842,0.3838457,1.503791,0.1907475,-0.1915781,1.613917,0.2727717,300.4559,114.5613,138.6627,True
3,2.022226,0.008038118,0.05678895,0.03771335,-1.262698,1.490313,-1.578871,0.08696088,1.463215,0.3907735,-0.8963737,0.01895277,12.54642,13.17763,-0.02934445,-0.07021587,-0.01262763,-0.2851681,-1.249586,-2.694965,0.230321,1.522403,0.2961521,-0.03260746,0.03964524,-0.1099624,-1.235027,0.4693319,0.1268384,0.3841014,1.503825,0.1908724,-0.1919281,1.614102,0.2735783,300.0315,113.7994,139.5831,True
3,2.033337,-0.02074109,0.05981184,0.02817623,-1.263216,1.490432,-1.577915,0.0868161,1.463441,0.3905787,-0.8950501,0.1208541,12.51989,12.81337,-0.03032388,-0.07769811,-0.003052499,-0.28497,-1.245621,-2.698367,0.2304539,1.522366,0.2961559,-0.02095785,0.02793877,-0.1175473,-1.236595,0.4694397,0.1265678,0.3842139,1.503831,0.1909969,-0.1941329,1.614272,0.2742853,301.3459,113.1045,141.6481,True
3,2.044448,-0.03672171,0.05436639,0.01545037,-1.263571,1.490278,-1.576958,0.08688226,1.463655,0.3904531,-0.8956168,-0.05285476,12.38727,12.53482,-0.03349275,-0.06920138,0.004444767,-0.2850573,-1.243688,-2.699789,0.2306647,1.522417,0.2962096,-0.007075898,0.02474897,-0.1144899,-1.237704,0.4698465,0.125991,0.3845008,1.503909,0.1911478,-0.1950695,1.615629,0.2750051,300.6624,113.4308,142.0943,True
3,2.055559,-0.04526811,0.05106351,-0.003696145,-1.264022,1.489552,-1.575925,0.08710256,1.463801,0.3904607,-0.8950149,0.05566685,12.22811,12.29912,-0.03029457,-0.05004124,0.01511908,-0.2855569,-1.243501,-2.699637,0.2307649,1.522452,0.296375,0.002740311,0.02898895,-0.09114793,-1.237905,0.4703926,0.1254871,0.3848034,1.503888,0.1912563,-0.1956717,1.615905,0.2755902,300.0971,112.6413,142.9116,True
3,2.06667,-0.05060509,0.05630773,-0.006970273,-1.263973,1.488374,-1.575194,0.08772466,1.464478,0.390372,-0.8951178,-0.00985689,12.09549,12.06342,-0.02918537,-0.06069605,0.01721651,-0.2852773,-1.239695,-2.702955,0.2312028,1.522586,0.2964211,0.005005404,0.03536572,-0.07731983,-1.238357,0.4710694,0.1251603,0.3851363,1.503921,0.1913524,-0.1961405,1.615934,0.2758721,299.8419,112.3351,143.3869,True
3,2.077781,-0.05705566,0.07335196,0.0004372224,-1.26543,1.488677,-1.574414,0.08807507,1.464669,0.3903885,-0.8953415,-0.02020777,12.01592,11.8063,-0.02485617,-0.0681539,0.0235613,-0.2852778,-1.235692,-2.706675,0.2315201,1.522678,0.296524,0.0008561462,0.03535141,-0.06555902,-1.238626,0.4715145,0.1252013,0.3854599,1.503866,0.1914873,-0.1963795,1.615893,0.2758889,299.7666,112.4598,143.3891,True
3,2.088892,-0.0677152,0.08497999,-0.0007065814,-1.266041,1.487814,-1.573758,0.08853164,1.465091,0.3903749,-0.8958752,-0.0485737,12.01592,11.52775,-0.01733464,-0.09050067,0.02239716,-0.2847202,-1.229476,-2.712737,0.231976,1.522714,0.2965441,-0.017267,0.01936485,-0.06752855,-1.239561,0.4712675,0.1260543,0.3858713,1.503772,0.1915922,-0.1965254,1.615771,0.2756227,299.7723,112.6,143.0855,True
3,2.100003,-0.0794481,0.08275703,-0.01239359,-1.266882,1.487267,-1.572302,0.0890291,1.465168,0.3904209,-0.8954821,0.03637017,12.06897,11.20634,-0.003425092,-0.0745202,0.03938946,-0.2855239,-1.226969,-2.715563,0.2324552,1.522666,0.2965875,-0.02365943,0.00338544,-0.06747796,-1.240303,0.4708601,0.1267758,0.3862382,1.503637,0.1916869,-0.1965019,1.615657,0.2751441,299.8951,113.0361,142.4094,True
3,2.111114,-0.09756219,0.08791143,-0.03158642,-1.267545,1.485797,-1.570962,0.08925304,1.465403,0.3905635,-0.8959428,-0.04247926,12.12201,10.84208,0.009487234,-0.05324205,0.06918694,-0.287272,-1.224937,-2.718039,0.2329544,1.522699,0.2965822,-0.009870894,-0.004065453,-0.07401861,-1.241425,0.4706071,0.1264408,0.3866626,1.503451,0.1917624,-0.1964042,1.615555,0.2745759,300.112,113.5624,141.6434,True
3,2.122225,-0.1103887,0.09206914,-0.04435724,-1.268681,1.484908,-1.569026,0.08972844,1.46543,0.390625,-0.8951523,0.07273038,12.20159,10.41354,0.007497385,-0.05755545,0.08836574,-0.2884172,-1.220061,-2.722759,0.2334891,1.522671,0.2966447,0.006996978,0.005548874,-0.09121775,-1.242871,0.471328,0.1255699,0.387139,1.503334,0.1919177,-0.1963505,1.615428,0.273984,300.3188,114.1976,140.7921,True
