loc,t,aDotS,bDotS,gDotS,aS,bS,gS,xS,yS,zS,qE,qDotE,emgA,emgB,aDotSH,bDotSH,gDotSH,aSH,bSH,gSH,xSH,ySH,zSH,aDotUB,bDotUB,gDotUB,aUB,bUB,gUB,xUB,yUB,zUB,xHand,yHand,zHand,aHand,bHand,gHand,enable
7,0,0.2284493,-0.5546082,0.763634,4.697959,-4.703065,-2.464713,0.372455,1.235083,0.4851842,-0.897717,-0.00740848,10.90185,13.28477,-0.4802017,0.3758927,-0.005773447,-0.5102148,-3.783819,-0.415929,0.419752,1.430059,0.4309444,-0.07671627,0.3675749,-0.01629901,-1.128086,0.3193882,-0.07079481,0.5632031,1.483907,0.2660182,0.05895266,1.134568,0.4044693,293.0429,281.2628,337.6002,True
7,0.01111111,0.2103346,-0.5504271,0.7636158,4.695133,-4.693073,-2.466294,0.3710802,1.234502,0.4836774,-0.8975204,0.01786357,10.82228,13.22048,-0.46716,0.3354002,0.0164276,-0.5102899,-3.778582,-0.4157272,0.4187121,1.430073,0.4307947,-0.07797023,0.3643771,-0.03653711,-1.129606,0.3239276,-0.07177672,0.5630547,1.484003,0.2665074,0.05816346,1.13377,0.4009386,293.5637,285.9855,332.7088,True
7,0.02222222,0.2103346,-0.5504271,0.7636158,4.695133,-4.693073,-2.466294,0.3710802,1.234502,0.4836774,-0.8974672,0.004539288,10.8488,13.1562,-0.46716,0.3354002,0.0164276,-0.5102899,-3.778582,-0.4157272,0.4187121,1.430073,0.4307947,-0.07797023,0.3643771,-0.03653711,-1.129606,0.3239276,-0.07177672,0.5630547,1.484003,0.2665074,0.05779366,1.132242,0.3954847,294.0717,286.2222,331.4966,True
7,0.03333334,0.1589938,-0.4898911,0.7804106,4.687099,-4.674357,-2.468281,0.368133,1.232857,0.4796159,-0.8942837,0.2910295,10.92838,13.09192,-0.4732785,0.2810097,0.03444522,-0.5110409,-3.769133,-0.4133335,0.4163224,1.43011,0.4304228,-0.1375067,0.3654313,-0.024283,-1.130706,0.3332814,-0.07118843,0.5626709,1.483856,0.2673631,0.05795663,1.130286,0.3888333,294.6569,284.515,331.4101,True
7,0.04444445,0.1685367,-0.4791793,0.7846235,4.683295,-4.665202,-2.47014,0.3667172,1.232466,0.4784117,-0.8965068,-0.2057104,10.98143,13.02764,-0.4829506,0.3076066,0.03456757,-0.5123219,-3.760826,-0.4149924,0.4150642,1.430074,0.4301755,-0.1416299,0.3686344,-0.009336784,-1.130642,0.3377776,-0.07148031,0.5624925,1.483838,0.2678745,0.0583784,1.128266,0.3822573,295.4197,282.8287,331.1684,True
7,0.05555556,0.1685367,-0.4791793,0.7846235,4.683295,-4.665202,-2.47014,0.3667172,1.232466,0.4784117,-0.8958677,0.06055176,11.06101,12.98479,-0.4829506,0.3076066,0.03456757,-0.5123219,-3.760826,-0.4149924,0.4150642,1.430074,0.4301755,-0.1416299,0.3686344,-0.009336784,-1.130642,0.3377776,-0.07148031,0.5624925,1.483838,0.2678745,0.05821438,1.126299,0.3751923,295.9624,282.631,330.7361,True
7,0.06666667,0.1920029,-0.4855069,0.782499,4.680412,-4.655191,-2.472902,0.365389,1.231832,0.4761093,-0.8942266,0.1493234,11.16711,13.04907,-0.4991082,0.3427385,0.02302575,-0.5144578,-3.751561,-0.4169365,0.4138615,1.430043,0.4299066,-0.1499955,0.3654839,0.008840986,-1.130439,0.3427641,-0.07150268,0.5624001,1.48375,0.2683358,0.05810918,1.124515,0.367763,296.3397,281.8711,330.4493,True
7,0.07777778,0.2208799,-0.513217,0.7527709,4.675443,-4.635705,-2.477992,0.3626667,1.231114,0.4731078,-0.8962607,-0.1871189,11.24668,13.17763,-0.5204582,0.3426815,0.01675732,-0.5173925,-3.737468,-0.4169219,0.41137,1.429989,0.4292212,-0.1655915,0.3974992,0.05368368,-1.129063,0.3541408,-0.07214291,0.5619183,1.483816,0.2692735,0.05850195,1.12324,0.3614034,296.8298,280.2063,330.0742,True
7,0.08888889,0.2262656,-0.5272068,0.7187262,4.674069,-4.626324,-2.480409,0.3613894,1.230593,0.4711645,-0.900223,-0.3605386,11.32626,13.37047,-0.5341982,0.3660164,0.04672096,-0.5180775,-3.726999,-0.4195832,0.410147,1.429943,0.4287817,-0.1793701,0.4167095,0.06230992,-1.128631,0.3606156,-0.07251548,0.56168,1.483948,0.2697787,0.05855997,1.122477,0.356207,297.1454,279.8698,329.5122,True
7,0.1,0.2177522,-0.5317016,0.6729389,4.673042,-4.617757,-2.482257,0.3600789,1.230398,0.4701154,-0.8973452,0.265992,11.29973,13.56331,-0.5373052,0.3766202,0.06700606,-0.5187108,-3.717284,-0.4218849,0.408957,1.429942,0.4283745,-0.1836872,0.4316074,0.05700274,-1.128643,0.3664115,-0.07286195,0.561511,1.48391,0.2702487,0.05833081,1.12194,0.3509368,297.0161,280.5465,329.2103,True
7,0.1111111,0.2092192,-0.5329501,0.6409856,4.671862,-4.609138,-2.483919,0.3587777,1.230003,0.4688058,-0.8965958,0.06592682,11.27321,13.77759,-0.5276669,0.3915302,0.08296449,-0.5194123,-3.707027,-0.4251931,0.4078422,1.42994,0.4279673,-0.1849743,0.4305196,0.03253272,-1.129214,0.3717168,-0.07306915,0.5611769,1.483813,0.2707274,0.05831494,1.121429,0.3454711,296.8228,280.481,329.0754,True
7,0.1222222,0.2092192,-0.5329501,0.6409856,4.671862,-4.609138,-2.483919,0.3587777,1.230003,0.4688058,-0.8958815,0.06488447,11.22016,13.97043,-0.5276669,0.3915302,0.08296449,-0.5194123,-3.707027,-0.4251931,0.4078422,1.42994,0.4279673,-0.1849743,0.4305196,0.03253272,-1.129214,0.3717168,-0.07306915,0.5611769,1.483813,0.2707274,0.0585163,1.120844,0.3401212,296.7511,279.8333,328.8153,True
7,0.1333333,0.1889542,-0.530056,0.590908,4.671648,-4.601623,-2.485048,0.3575742,1.229899,0.4679332,-0.8936855,0.2002987,11.19363,14.14185,-0.5233009,0.3776794,0.09249808,-0.5197409,-3.698936,-0.4265958,0.4067065,1.429948,0.4275095,-0.1819073,0.4209118,0.01652694,-1.129906,0.376351,-0.07327821,0.5609846,1.48378,0.2711976,0.05897803,1.120216,0.3354764,296.8837,278.7947,328.4321,True
7,0.1444445,0.1729661,-0.5282846,0.5312307,4.672388,-4.594278,-2.486422,0.3562398,1.229305,0.4659111,-0.8956051,-0.1770817,11.14058,14.29184,-0.5051121,0.3521735,0.0923288,-0.5201228,-3.692525,-0.4271585,0.4056172,1.429947,0.4271522,-0.1841707,0.4145108,0.001657626,-1.130477,0.3813025,-0.07327954,0.5606241,1.483685,0.2716627,0.05949872,1.119651,0.332334,297.152,277.9137,328.075,True
7,0.1555556,0.1601841,-0.5317773,0.4747872,4.673407,-4.587385,-2.487552,0.3550527,1.229275,0.4651306,-0.8953936,0.02113855,11.19363,14.35612,-0.4669199,0.3427736,0.06118391,-0.5219178,-3.686276,-0.4285316,0.4045615,1.429914,0.4268146,-0.2001956,0.4166237,-0.003524986,-1.131042,0.3864874,-0.07277247,0.5603873,1.483691,0.2720764,0.05953187,1.119093,0.3302959,297.2753,277.7287,328.1273,True
7,0.1666667,0.17398,-0.510612,0.4374151,4.673518,-4.580594,-2.490303,0.3537456,1.228334,0.4624045,-0.8956424,-0.02297239,11.22016,14.37754,-0.4520955,0.3364686,0.04296994,-0.5234954,-3.679909,-0.429444,0.4035011,1.429927,0.426476,-0.2075991,0.4251255,0.002979594,-1.130546,0.3918501,-0.07254504,0.5601409,1.483419,0.2725174,0.05913537,1.118517,0.3287891,297.2683,277.8459,328.5381,True
7,0.1777778,0.1687192,-0.5289546,0.3884909,4.675522,-4.573605,-2.491817,0.3526515,1.228362,0.4617097,-0.8954672,0.01631076,11.27321,14.35612,-0.4243535,0.3312028,0.04812685,-0.5241101,-3.672799,-0.431664,0.4025405,1.429933,0.4260628,-0.2127958,0.4293856,0.0168669,-1.130267,0.3972301,-0.07231281,0.5598918,1.483451,0.2728469,0.05843241,1.117844,0.3272219,297.1649,277.9402,329.0531,True
7,0.1888889,0.145225,-0.5175866,0.3362647,4.677141,-4.567587,-2.492482,0.3516265,1.227849,0.4600515,-0.897065,-0.1462224,11.29973,14.29184,-0.4189516,0.3216181,0.05659658,-0.524655,-3.665949,-0.4330044,0.4015751,1.43001,0.4256608,-0.2063051,0.4134015,0.02645868,-1.129405,0.4014958,-0.0721445,0.5596869,1.483467,0.2732275,0.05775659,1.117121,0.3253772,297.1037,277.9073,329.432,True
7,0.2,0.1248839,-0.4966461,0.2786627,4.679134,-4.562541,-2.493162,0.3506329,1.227407,0.4582725,-0.8959635,0.1018839,11.27321,14.24898,-0.3908715,0.3098477,0.1149942,-0.5230406,-3.657724,-0.436625,0.400739,1.430127,0.4252987,-0.2147731,0.3974104,0.02765604,-1.128966,0.4057419,-0.07166966,0.5595347,1.483722,0.2735538,0.05721407,1.116203,0.3228986,296.9944,277.8869,329.6336,True
7,0.2111111,0.09069964,-0.4778449,0.2253252,4.681395,-4.558391,-2.49291,0.3496974,1.227543,0.4577134,-0.8949302,0.09354567,11.16711,14.22755,-0.3575535,0.2874944,0.1520252,-0.5216206,-3.650748,-0.4397587,0.3999385,1.430236,0.4249177,-0.2201321,0.395267,0.02451278,-1.129097,0.4104352,-0.0710116,0.559338,1.483662,0.2738781,0.05714574,1.115167,0.3199409,297.056,277.2318,329.9175,True
7,0.2222222,0.06929417,-0.4599903,0.1890364,4.683401,-4.554013,-2.492776,0.3487391,1.227655,0.4570291,-0.8948972,0.002362113,11.06101,14.14185,-0.3500357,0.2757936,0.1562106,-0.5212365,-3.644292,-0.4416826,0.3990552,1.430255,0.4245973,-0.2169128,0.3835443,0.02456639,-1.128352,0.4147186,-0.0708233,0.5592028,1.483526,0.2741621,0.05722385,1.114018,0.316568,297.1846,276.4719,330.1896,True
7,0.2333333,0.03929389,-0.4219227,0.1526601,4.68512,-4.551149,-2.492072,0.3478384,1.227829,0.4564843,-0.894094,0.07360815,10.95491,13.97043,-0.3362,0.2747813,0.1529317,-0.5211332,-3.637359,-0.4443665,0.3983389,1.430348,0.4242554,-0.2075499,0.3483711,-0.002125597,-1.129415,0.4176368,-0.07003874,0.5590429,1.483472,0.2744377,0.05735781,1.112864,0.3130013,297.4117,275.5221,330.4453,True
7,0.2444444,0.01896386,-0.3997352,0.1366037,4.686548,-4.547065,-2.491698,0.3468988,1.227454,0.454669,-0.8943231,-0.02140206,10.87533,13.75616,-0.3170582,0.2695277,0.1453474,-0.521138,-3.631059,-0.4468904,0.3975909,1.430448,0.4239902,-0.2044053,0.3387875,-0.008472972,-1.129279,0.4216104,-0.06966004,0.5590187,1.483479,0.274698,0.05752501,1.111934,0.3097026,297.7688,274.3468,330.6801,True
7,0.2555556,-0.02915312,-0.3595645,0.1119414,4.6878,-4.544851,-2.489612,0.3460124,1.227756,0.4541395,-0.8939635,0.03326229,10.8488,13.45618,-0.2734494,0.2303127,0.1130441,-0.5214054,-3.628591,-0.4474862,0.3970868,1.430564,0.4237676,-0.1949837,0.3068175,-0.02877874,-1.130478,0.42404,-0.06883073,0.5588647,1.483436,0.2748654,0.05754611,1.111369,0.3069579,298.0448,273.2961,330.9268,True
7,0.2666667,-0.05795941,-0.3469932,0.09806475,4.689367,-4.541077,-2.488182,0.3450539,1.227817,0.4529848,-0.8945025,-0.04941015,10.87533,13.17763,-0.2584174,0.2005109,0.1182147,-0.5205393,-3.624975,-0.4481091,0.3964694,1.430768,0.4235148,-0.1917774,0.2950747,-0.02984428,-1.13073,0.4268737,-0.06818198,0.5585268,1.483379,0.2750967,0.05720838,1.111247,0.3049583,298.1052,272.633,331.2297,True
7,0.2777778,-0.0974075,-0.3408568,0.07780726,4.691437,-4.538178,-2.485642,0.3440838,1.228237,0.4523625,-0.8930532,0.1331237,10.95491,12.96336,-0.2432682,0.1653446,0.1393563,-0.5186746,-3.621823,-0.4485986,0.3959427,1.431016,0.423296,-0.1801112,0.267379,-0.03738901,-1.131521,0.4290625,-0.06744456,0.5583275,1.483374,0.2752686,0.05652799,1.111404,0.3033049,297.9682,272.7197,331.2298,True
7,0.2888889,-0.1379112,-0.3357933,0.06076512,4.693515,-4.53487,-2.482812,0.34304,1.228247,0.4506855,-0.8938655,-0.07525314,11.08753,12.81337,-0.2421186,0.1621266,0.1521244,-0.5175784,-3.616682,-0.4503594,0.3953725,1.431284,0.4229734,-0.1735706,0.2450152,-0.02358641,-1.131441,0.4311912,-0.06663416,0.5582016,1.483265,0.275342,0.05565564,1.111937,0.3020585,297.8673,272.6328,331.3448,True
7,0.3,-0.1901048,-0.3392704,0.04907888,4.695776,-4.531474,-2.478923,0.3419262,1.228974,0.4501195,-0.8931539,0.06610176,11.19363,12.70623,-0.245134,0.1514089,0.1766209,-0.515539,-3.611768,-0.451784,0.3948682,1.43155,0.4227154,-0.1660766,0.2226181,-0.02046047,-1.131831,0.4326866,-0.06552308,0.5579506,1.483158,0.2755079,0.05466479,1.112804,0.3010322,297.652,272.5032,331.5811,True
7,0.3111111,-0.2294965,-0.34589,0.03526743,4.69832,-4.528407,-2.475013,0.3407573,1.229541,0.4494541,-0.8931071,0.003887223,11.29973,12.70623,-0.2544853,0.1395903,0.2096781,-0.5127597,-3.606542,-0.4531875,0.3944969,1.431799,0.4224598,-0.1629171,0.2055727,-0.02580717,-1.132461,0.4344958,-0.06462506,0.5577881,1.483106,0.2756846,0.05355283,1.113964,0.3001107,297.3794,272.3883,331.8443,True
7,0.3222222,-0.3018621,-0.3675763,0.02046722,4.70154,-4.524573,-2.469,0.339433,1.230457,0.449085,-0.8924253,0.06260683,11.37931,12.79194,-0.2521989,0.1214446,0.2256067,-0.5104321,-3.602652,-0.4539662,0.3940636,1.432066,0.4221711,-0.147173,0.1863656,-0.05366103,-1.134357,0.4355656,-0.06404769,0.5575628,1.483086,0.2757897,0.05228283,1.115325,0.2990326,297.0535,272.3341,332.1017,True
7,0.3333333,-0.4093463,-0.394746,0.002497748,4.705314,-4.520795,-2.460868,0.3377017,1.231538,0.448355,-0.8927273,-0.0278386,11.43236,12.94193,-0.2700814,0.09363273,0.2490866,-0.5071138,-3.599449,-0.453148,0.3937516,1.432506,0.4218481,-0.1184999,0.1767936,-0.06350839,-1.135504,0.4373564,-0.06439124,0.5574301,1.483145,0.2759788,0.0510275,1.116961,0.2978125,296.8198,272.0188,332.3505,True
7,0.3444445,-0.463592,-0.4131474,-0.008051731,4.708787,-4.516857,-2.454301,0.3361357,1.23246,0.4475155,-0.8911358,0.1461803,11.43236,13.13477,-0.2878664,0.06897879,0.2906901,-0.5030088,-3.595276,-0.4530122,0.393508,1.432914,0.4215274,-0.09084482,0.1554823,-0.07016435,-1.136761,0.4380835,-0.06459737,0.5574315,1.483272,0.2760048,0.04974101,1.11886,0.2964881,296.5473,271.5652,332.576,True
7,0.3555556,-0.5455257,-0.4485838,-0.02056742,4.711301,-4.512913,-2.444379,0.3341537,1.239704,0.4604874,-0.889426,0.1554349,11.40584,13.26334,-0.3036526,0.06460094,0.3206043,-0.4991877,-3.590075,-0.4537065,0.3932036,1.433374,0.4212153,-0.08871689,0.1288496,-0.07229229,-1.137651,0.4386712,-0.06384583,0.55731,1.483235,0.2760532,0.0482414,1.121083,0.2950805,296.3204,270.9641,332.9054,True
7,0.3666667,-0.6784301,-0.5110332,-0.03941207,-1.562603,-4.503401,-2.425771,0.3302357,1.242701,0.4596212,-0.891498,-0.1901301,11.37931,13.34904,-0.2987866,0.01862019,0.398241,-0.4889633,-3.581789,-0.4543763,0.3928962,1.434524,0.4203396,-0.09621662,0.09368105,-0.07861411,-1.139767,0.4397204,-0.06168547,0.5575776,1.483206,0.2759957,0.04627582,1.123765,0.2935319,296.0809,270.3217,333.3636,True
7,0.3777778,-0.6784301,-0.5110332,-0.03941207,-1.562603,-4.503401,-2.425771,0.3302357,1.242701,0.4596212,-0.8811441,0.9490489,11.40584,13.37047,-0.2987866,0.01862019,0.398241,-0.4889633,-3.581789,-0.4543763,0.3928962,1.434524,0.4203396,-0.09621662,0.09368105,-0.07861411,-1.139767,0.4397204,-0.06168547,0.5575776,1.483206,0.2759957,0.04464429,1.127343,0.2924982,296.4393,268.1346,333.799,True
7,0.3888889,-0.8454712,-0.5597759,-0.0508471,-1.552415,-4.493547,-2.402828,0.3258972,1.246605,0.4585476,-0.8989927,-1.639544,11.43236,13.3919,-0.2728898,0.04623646,0.4684586,-0.4788529,-3.566664,-0.4623951,0.3925604,1.435622,0.4194751,-0.07972156,0.07874046,-0.1384216,-1.144565,0.4411625,-0.06085723,0.5576847,1.483106,0.2759132,0.04327374,1.133287,0.2939638,297.4313,264.8829,334.278,True
7,0.4,-0.9241935,-0.5856835,-0.05178215,-1.546952,-4.488562,-2.390066,0.3234383,1.248864,0.4580154,-0.880522,1.704235,11.48541,13.3919,-0.2939735,0.03012466,0.49731,-0.4729966,-3.560834,-0.4635999,0.3924381,1.436425,0.4189298,-0.08533746,0.07126021,-0.1692527,-1.147389,0.4416573,-0.05982072,0.5576999,1.483023,0.2757645,0.04094628,1.140432,0.2969771,295.862,265.5321,334.2627,True
7,0.4111111,-0.9241935,-0.5856835,-0.05178215,-1.546952,-4.488562,-2.390066,0.3234383,1.248864,0.4580154,-0.8886068,-0.7546428,11.59151,13.43475,-0.2939735,0.03012466,0.49731,-0.4729966,-3.560834,-0.4635999,0.3924381,1.436425,0.4189298,-0.08533746,0.07126021,-0.1692527,-1.147389,0.4416573,-0.05982072,0.5576999,1.483023,0.2757645,0.03606385,1.148279,0.2994623,294.3842,266.6469,335.3295,True
7,0.4222222,-1.050889,-0.6011648,-0.05164751,-1.536632,-4.478916,-2.363772,0.3183568,1.253527,0.4568617,-0.9025799,-1.26896,11.67109,13.47761,-0.3292664,-0.096963,0.5856664,-0.4568802,-3.556561,-0.4590073,0.3922496,1.438256,0.4179032,-0.1094968,0.04350812,-0.2478622,-1.155379,0.4419179,-0.05668352,0.557853,1.482966,0.2755797,0.03130511,1.156723,0.3009887,292.3215,267.7661,335.9356,True
7,0.4333333,-1.102049,-0.5960928,-0.05588856,-1.531572,-4.474665,-2.350129,0.3160338,1.255904,0.4561088,-0.878498,2.212264,11.72414,13.54189,-0.3194582,-0.120424,0.6100571,-0.449043,-3.553192,-0.458811,0.3921217,1.439191,0.417335,-0.1266852,0.03709244,-0.2636759,-1.158808,0.4419968,-0.05474713,0.5578679,1.482933,0.2755013,0.02816786,1.16451,0.3015741,289.9295,269.841,334.6424,True
7,0.4444444,-1.174466,-0.6017347,-0.05690989,-1.526078,-4.470318,-2.334728,0.3133832,1.258753,0.4554369,-0.8891411,-0.9925798,11.75066,13.6276,-0.3246249,-0.09602892,0.6484966,-0.4412501,-3.544836,-0.4625996,0.3920841,1.440228,0.4167025,-0.1266597,0.04242156,-0.2604844,-1.161661,0.4425484,-0.05355404,0.55784,1.482894,0.2753978,0.02385485,1.171787,0.3000452,289.3136,268.7125,335.8663,True
7,0.4555556,-1.174466,-0.6017347,-0.05690989,-1.526078,-4.470318,-2.334728,0.3133832,1.258753,0.4554369,-0.8914575,-0.200335,11.69761,13.71331,-0.3246249,-0.09602892,0.6484966,-0.4412501,-3.544836,-0.4625996,0.3920841,1.440228,0.4167025,-0.1266597,0.04242156,-0.2604844,-1.161661,0.4425484,-0.05355404,0.55784,1.482894,0.2753978,0.02021284,1.179145,0.2971776,288.6494,267.1542,336.8717,True
7,0.4666667,-1.235186,-0.6030929,-0.0622127,-1.520392,-4.466178,-2.319286,0.3108023,1.261562,0.4546275,-0.9055483,-1.287329,11.56498,13.79901,-0.3434861,-0.06854294,0.7125973,-0.432287,-3.533702,-0.4683206,0.3921357,1.441335,0.4160905,-0.1381467,0.04245023,-0.235875,-1.163439,0.44323,-0.0519351,0.5578057,1.482928,0.275279,0.0180585,1.186382,0.2937009,287.5091,266.3601,336.6796,True
7,0.4777778,-1.279891,-0.6097159,-0.06321843,-1.514589,-4.461597,-2.304006,0.3081787,1.2645,0.4536514,-0.891279,1.315301,11.43236,13.949,-0.3486203,-0.06756188,0.7445899,-0.4236503,-3.52514,-0.4720991,0.3922022,1.442308,0.4154313,-0.155149,0.03074042,-0.2314618,-1.166138,0.4433097,-0.04952388,0.5578795,1.482936,0.2751021,0.0180358,1.192456,0.2904971,285.6779,266.863,334.9854,True
7,0.4888889,-1.380088,-0.5974339,-0.08028889,-1.508911,-4.458557,-2.28553,0.3052579,1.26782,0.4528198,-0.8896146,0.1397981,11.29973,14.16327,-0.3437792,-0.1220337,0.8104879,-0.4122126,-3.51982,-0.4735473,0.3922889,1.443356,0.4147027,-0.1680109,0.01367778,-0.2409164,-1.16911,0.4427308,-0.04695206,0.5578862,1.482927,0.2749391,0.01725393,1.197351,0.2870812,285.1288,265.5207,335.3186,True
7,0.5,-1.433409,-0.5891975,-0.09309642,-1.503029,-4.455571,-2.268152,0.3026361,1.270709,0.4518547,-0.8904423,-0.07514222,11.22016,14.44182,-0.3231223,-0.1732023,0.8539279,-0.4010273,-3.515012,-0.4749188,0.3922438,1.444355,0.41398,-0.1595304,-0.002280515,-0.245271,-1.172318,0.4422503,-0.04505216,0.5580403,1.483032,0.2747185,0.01534107,1.20187,0.2835933,285.3396,262.7275,337.3565,True
7,0.5111111,-1.513407,-0.5672666,-0.1155386,-1.497358,-4.453622,-2.248749,0.2997541,1.273951,0.4510777,-0.8881962,0.2066647,11.19363,14.72038,-0.3155752,-0.1923633,0.8538393,-0.3913318,-3.510207,-0.4764414,0.3921898,1.445413,0.4132478,-0.1457655,0.006247502,-0.253924,-1.175313,0.4426126,-0.04405641,0.5577251,1.482809,0.2745233,0.01249435,1.206745,0.2802517,285.6872,260.0807,339.4386,True
7,0.5222223,-1.560349,-0.5505542,-0.1379783,-1.491267,-4.451746,-2.230378,0.2968802,1.277273,0.4500079,-0.8898601,-0.1533351,11.19363,14.95607,-0.3378975,-0.1913877,0.8625019,-0.3817247,-3.50294,-0.4786579,0.3922095,1.446526,0.4124694,-0.1597147,0.008358039,-0.2644493,-1.178599,0.4426238,-0.04181243,0.5577012,1.48273,0.2743349,0.008969263,1.21263,0.2773012,285.8269,257.8965,341.1837,True
7,0.5333334,-1.563469,-0.5720291,-0.169856,-1.483582,-4.449458,-2.213273,0.294064,1.280846,0.4489739,-0.8889536,0.084964,11.19363,15.12749,-0.3825438,-0.1905002,0.8734304,-0.3717927,-3.495681,-0.4800007,0.3921912,1.44757,0.4117656,-0.187554,0.01364862,-0.2791096,-1.182208,0.4428127,-0.03883715,0.5576915,1.482619,0.2742648,0.005376296,1.219797,0.2749575,285.3619,256.1414,342.6761,True
7,0.5444446,-1.577247,-0.5902874,-0.1910814,-1.476154,-4.447484,-2.195536,0.2913343,1.284422,0.448205,-0.8906474,-0.155112,11.19363,15.25605,-0.3843943,-0.2086928,0.9000475,-0.3607832,-3.489033,-0.4824745,0.3922602,1.448679,0.4109664,-0.1940512,0.02637872,-0.2918137,-1.185372,0.4429451,-0.03690875,0.557234,1.482385,0.2741289,0.001777893,1.228349,0.2732204,284.4818,254.7453,343.9725,True
7,0.5555557,-1.661748,-0.5129718,-0.2084141,-1.465856,-4.44643,-2.157123,0.2863798,1.291796,0.446516,-0.8927241,-0.1879985,11.16711,15.34176,-0.3385199,-0.1947519,0.9200442,-0.3407089,-3.470694,-0.4935999,0.3924097,1.450813,0.4094384,-0.1806173,0.03484958,-0.3366811,-1.193817,0.4433292,-0.03365756,0.5571269,1.482171,0.2737477,-0.00165537,1.238142,0.2719583,283.1603,253.3554,345.4964,True
7,0.5666668,-1.687406,-0.4950877,-0.2308542,-1.45972,-4.446478,-2.137955,0.2839785,1.295383,0.4453232,-0.8740207,1.712152,11.14058,15.36319,-0.3244813,-0.2118056,0.9337798,-0.3298852,-3.463423,-0.4978135,0.3926046,1.451947,0.4085541,-0.163743,0.01247171,-0.3581191,-1.198331,0.4423351,-0.03224023,0.5572426,1.482087,0.2735541,-0.005348949,1.248952,0.2707652,281.7959,251.2881,347.807,True
7,0.577778,-1.714101,-0.4825296,-0.2575336,-1.453418,-4.447082,-2.117838,0.2813986,1.299451,0.444505,-0.8915789,-1.619063,11.11406,15.32033,-0.322091,-0.2406246,0.961398,-0.3177258,-3.456099,-0.5012546,0.3927125,1.453094,0.4077606,-0.1692122,-0.0003321171,-0.3751076,-1.203048,0.4417118,-0.02997388,0.5571618,1.481964,0.2732842,-0.01047341,1.261804,0.268954,281.3219,247.6951,351.6153,True
7,0.5888891,-1.728016,-0.4667242,-0.2714094,-1.447279,-4.447257,-2.098193,0.2788844,1.303318,0.4428909,-0.8947998,-0.2781425,11.11406,15.25605,-0.3217283,-0.2950267,0.9953676,-0.304312,-3.450953,-0.502506,0.393025,1.454509,0.406707,-0.1757633,-0.001429126,-0.3931327,-1.207718,0.4412365,-0.0277528,0.5574571,1.481899,0.2730188,-0.01414236,1.276059,0.2674396,279.3493,243.8486,355.5737,True
7,0.6000003,-1.725991,-0.4433276,-0.2832284,-1.441828,-4.448278,-2.078827,0.2763891,1.307417,0.442018,-0.8943156,0.04535156,11.14058,15.2132,-0.2796493,-0.3738323,1.042871,-0.289418,-3.449561,-0.5021238,0.393177,1.455778,0.4058666,-0.1895502,-0.00462934,-0.3866099,-1.211796,0.4409874,-0.0250228,0.5574028,1.481765,0.2726905,-0.01613234,1.290475,0.2662421,276.5176,238.2536,1.196221,True
7,0.6111114,-1.72607,-0.4231235,-0.2843617,-1.436562,-4.449035,-2.05949,0.273972,1.311296,0.4407308,-0.8948424,-0.04870774,11.24668,15.2132,-0.2655467,-0.3919809,1.077902,-0.2752878,-3.441758,-0.506974,0.393298,1.456979,0.4050109,-0.1990442,-0.01422291,-0.3769624,-1.216151,0.440391,-0.02215004,0.5571171,1.481575,0.2724011,-0.01727455,1.304273,0.2650845,273.9258,224.6482,14.76297,True
7,0.6222225,-1.728313,-0.3975869,-0.2897975,-1.431811,-4.450498,-2.039964,0.2716222,1.315375,0.4398277,-0.8954389,-0.05397636,11.35279,15.2132,-0.2482128,-0.413323,1.116098,-0.2606825,-3.43377,-0.5123909,0.3934711,1.458104,0.4040492,-0.2076401,-0.02276121,-0.3853961,-1.22068,0.4396775,-0.01926477,0.5570444,1.48146,0.2721448,-0.01823603,1.316963,0.2636628,272.4075,190.2924,49.07421,True
7,0.6333337,-1.723175,-0.3550436,-0.3059653,-1.427605,-4.452881,-2.021047,0.2694288,1.319397,0.4386449,-0.8955859,-0.01293336,11.45889,15.23462,-0.2631772,-0.4144332,1.111927,-0.2480037,-3.426348,-0.515976,0.3937217,1.459292,0.4031773,-0.2236551,-0.01746405,-0.3895348,-1.225348,0.439502,-0.01628336,0.5570004,1.481559,0.2719312,-0.01934745,1.328341,0.2619916,272.5483,148.942,90.22593,True
7,0.6444448,-1.711556,-0.332653,-0.3135222,-1.423344,-4.455087,-2.002121,0.2671228,1.323505,0.4377074,-0.8955614,0.002312605,11.48541,15.19177,-0.2639741,-0.446458,1.139557,-0.2332247,-3.420242,-0.5188943,0.393837,1.460435,0.4022176,-0.2332476,-0.01108003,-0.3894511,-1.229695,0.4395429,-0.01336135,0.5568389,1.481459,0.2716627,-0.02075304,1.338422,0.260103,273.349,130.4864,108.4571,True
7,0.655556,-1.689412,-0.280516,-0.3393155,-1.419738,-4.45856,-1.983634,0.2651051,1.327646,0.4362872,-0.8963338,-0.07058339,11.45889,15.12749,-0.232859,-0.4528347,1.175581,-0.2180564,-3.408212,-0.5289829,0.3941674,1.461596,0.4012797,-0.2257574,-0.003610179,-0.3863395,-1.233977,0.4396808,-0.0112902,0.5568707,1.481337,0.2712908,-0.02241135,1.347446,0.2581706,274.066,124.912,113.7699,True
7,0.6666671,-1.689412,-0.280516,-0.3393155,-1.419738,-4.45856,-1.983634,0.2651051,1.327646,0.4362872,-0.896379,-0.003554575,11.32626,15.04178,-0.232859,-0.4528347,1.175581,-0.2180564,-3.408212,-0.5289829,0.3941674,1.461596,0.4012797,-0.2257574,-0.003610179,-0.3863395,-1.233977,0.4396808,-0.0112902,0.5568707,1.481337,0.2712908,-0.02424265,1.355746,0.2563574,274.6448,123.5081,114.9608,True
7,0.6777782,-1.689045,-0.1262031,-0.3729805,-1.417059,-4.467687,-1.944836,0.2612588,1.335398,0.4338162,-0.9143548,-1.644023,11.16711,14.95607,-0.23151,-0.4720947,1.213883,-0.1885332,-3.383784,-0.5477353,0.3944972,1.463756,0.3991852,-0.2031193,0.01347544,-0.3567291,-1.240912,0.4405304,-0.007886419,0.5565686,1.481148,0.2705858,-0.02544573,1.363341,0.2550433,275.3089,120.4348,117.8894,True
7,0.6888894,-1.723614,-0.01782316,-0.3947267,-1.417987,-4.473629,-1.923781,0.2595226,1.339213,0.4322808,-0.8794168,3.208087,11.03448,14.87037,-0.2408051,-0.4913978,1.25331,-0.1723017,-3.368216,-0.5600361,0.3945271,1.46467,0.3981578,-0.2052126,0.01134984,-0.353513,-1.244767,0.4405657,-0.005578257,0.5564556,1.481024,0.270257,-0.02562619,1.36927,0.2544374,276.2235,111.9335,126.3611,True
7,0.7000005,-1.775026,0.04588687,-0.3907165,-1.41911,-4.478696,-1.901567,0.2578434,1.343086,0.4310629,-0.8931528,-1.284722,10.90185,14.82751,-0.2321608,-0.4797121,1.28098,-0.1568154,-3.343239,-0.5823031,0.3944758,1.465628,0.3971734,-0.2138684,0.01559089,-0.3672855,-1.249383,0.4408462,-0.002965696,0.5562339,1.480898,0.2698624,-0.02911257,1.376685,0.2528777,275.6595,122.1505,116.3006,True
7,0.7111117,-1.811301,0.05855983,-0.3758402,-1.41855,-4.482227,-1.879865,0.2563427,1.347017,0.4297707,-0.8947353,-0.1298533,10.90185,14.84894,-0.2154788,-0.4720787,1.228705,-0.1442528,-3.326751,-0.5966733,0.3944526,1.466688,0.396131,-0.2320047,0.03262252,-0.3692592,-1.253451,0.4418408,-0.0001960087,0.5560316,1.480744,0.2695334,-0.03251797,1.385644,0.2517072,275.7301,127.9617,110.6297,True
7,0.7222228,-1.846158,-0.003075451,-0.3031244,-1.416442,-4.48244,-1.858098,0.2548127,1.35097,0.4282217,-0.8936493,0.09938852,10.92838,14.87037,-0.2193042,-0.4729065,1.12433,-0.1340412,-3.323291,-0.5975731,0.3941667,1.467661,0.3950205,-0.2502365,0.04750988,-0.3808219,-1.258066,0.4428858,0.002863431,0.5557368,1.480564,0.2692299,-0.034957,1.395915,0.2512196,276.1221,123.3806,115.4669,True
7,0.7333339,-1.816204,-0.02200538,-0.2159307,-1.41498,-4.482641,-1.838464,0.2533795,1.354815,0.4263339,-0.8940439,-0.03693403,10.95491,14.89179,-0.2503917,-0.447408,1.109655,-0.1218268,-3.296614,-0.6200755,0.3941004,1.468678,0.3939192,-0.2630207,0.05389631,-0.3807092,-1.262276,0.4437553,0.005878395,0.5554783,1.480462,0.2689452,-0.03610908,1.407234,0.2513353,276.9615,114.3271,124.9233,True
7,0.7444451,-1.775751,-0.01280771,-0.1550364,-1.415847,-4.481325,-1.82101,0.2516682,1.35867,0.4243886,-0.8937989,0.02294641,10.98143,14.87037,-0.2855933,-0.3996155,1.127021,-0.1096173,-3.247363,-0.6645452,0.3939889,1.469795,0.3927603,-0.2703206,0.077347,-0.3614822,-1.265566,0.4455478,0.008597483,0.5551602,1.480376,0.2686615,-0.03599881,1.419272,0.2516615,278.3239,105.6331,134.2039,True
7,0.7555562,-1.754919,0.106058,-0.02766849,-1.422026,-4.478799,-1.802799,0.2499542,1.362182,0.4216022,-0.8960887,-0.2094837,10.98143,14.84894,-0.305715,-0.3763147,1.163421,-0.09644318,-3.185591,-0.7218913,0.3943568,1.470785,0.3915133,-0.2510066,0.1061422,-0.3435667,-1.26867,0.4478093,0.01006542,0.5548328,1.480379,0.2682276,-0.0348994,1.431714,0.2515535,280.0219,98.87173,141.6233,True
7,0.7666674,-1.742434,0.1776238,0.005072042,-1.426304,-4.479019,-1.783791,0.2482574,1.365887,0.4190378,-0.8982917,-0.1995385,10.95491,14.80608,-0.2946991,-0.3796098,1.22194,-0.08226717,-3.09982,-0.8044168,0.3946117,1.471755,0.3903217,-0.2092357,0.1211048,-0.3183952,-1.271322,0.4496785,0.0104324,0.5544498,1.48031,0.267796,-0.03315487,1.444164,0.2505409,281.9475,93.83678,147.0577,True
7,0.7777785,-1.722983,0.3566529,-0.002087474,-1.43604,-4.48142,-1.765309,0.246304,1.36938,0.4163041,-0.8973926,0.08355357,10.90185,14.72038,-0.2971309,-0.4926944,1.289881,-0.0647212,-3.016081,-0.8846973,0.3949661,1.472864,0.3890703,-0.1769561,0.09665471,-0.2845743,-1.273264,0.4499754,0.01138262,0.5542078,1.48019,0.2673502,-0.0312077,1.456213,0.2484032,283.8658,89.55317,151.3212,True
7,0.7888896,-1.814331,0.5406294,0.02382635,-1.447401,-4.482749,-1.74206,0.244647,1.372561,0.4130127,-0.8967055,0.06172135,10.82228,14.61324,-0.2899064,-0.6270593,1.360915,-0.04539039,-2.875135,-1.022441,0.3950504,1.473912,0.3878317,-0.1832167,0.07321817,-0.2727754,-1.275914,0.4499952,0.01368226,0.5539088,1.479997,0.2668502,-0.02943402,1.46761,0.2450961,285.5295,86.04322,154.4829,True
7,0.8000008,-1.888518,0.7070073,0.1456622,-1.461725,-4.4797,-1.718827,0.2428639,1.37596,0.4098012,-0.897333,-0.0579899,10.74271,14.48468,-0.3052626,-0.7401273,1.395926,-0.0273709,-2.573382,-1.320415,0.3948057,1.47483,0.3866248,-0.2292484,0.05505255,-0.2978973,-1.280066,0.4501343,0.01779657,0.5536278,1.47985,0.2662969,-0.02806031,1.478259,0.2409893,286.9055,84.40558,155.3617,True
7,0.8111119,-1.873598,0.9567627,0.2458293,-1.480672,-4.476377,-1.698883,0.2413708,1.378921,0.4066617,-0.8924903,0.4432916,10.68966,14.37754,-0.3246151,-0.6720496,1.406847,-0.02341771,-1.91302,-1.976015,0.3944657,1.47581,0.3854709,-0.3053042,0.05601771,-0.3429988,-1.285426,0.4509672,0.0234502,0.5533397,1.479748,0.2657702,-0.02728646,1.488269,0.2367887,287.947,83.02296,155.7512,True
7,0.8222231,-1.987839,1.505248,0.3287767,-1.517009,-4.474891,-1.672703,0.2395076,1.380702,0.4032838,-0.8917297,0.06603535,10.74271,14.59181,-0.404909,-0.6185402,1.190138,-0.02277216,-1.565379,-2.316576,0.393476,1.476537,0.3842099,-0.3435435,0.05174389,-0.3298436,-1.288519,0.4516467,0.02850861,0.5529562,1.479624,0.2652988,-0.02697788,1.497984,0.2329703,288.444,81.22684,156.8129,True
7,0.8333342,-2.191866,2.131261,0.4466438,-1.562189,-4.470577,-1.641529,0.2381098,1.381832,0.39992,-0.895424,-0.3372722,10.90185,15.23462,-0.4961807,-0.6653847,1.049951,-0.02391412,-1.048024,-2.825416,0.392897,1.477392,0.382937,-0.3537852,0.03472552,-0.2871203,-1.290085,0.451454,0.03275981,0.5524634,1.479558,0.2649543,-0.02664692,1.507841,0.2297428,288.6361,78.57724,159.05,True
7,0.8444453,-2.304269,2.495051,0.4344975,4.680089,-4.468891,-1.611568,0.2364063,1.383217,0.3966327,-0.8901893,0.4813749,11.11406,16.2417,-0.5809076,-0.6473441,0.9652773,-0.03034725,-0.7501776,-3.113662,0.391868,1.478276,0.3817239,-0.320586,0.05821399,-0.2661381,-1.292261,0.4531078,0.03467596,0.5517725,1.479519,0.2647245,-0.02595482,1.518006,0.2273997,289.1006,74.76157,162.403,True
7,0.8555565,-2.238535,2.808342,0.3830771,4.639064,-4.468287,-1.588773,0.2344863,1.384815,0.3930333,-0.88519,0.4517775,11.24668,17.3559,-0.5651557,-0.5673925,0.9675202,-0.04204226,-0.6593205,3.084296,0.3910728,1.479102,0.3804545,-0.3034527,0.1392104,-0.2503812,-1.294482,0.4577035,0.03617745,0.55107,1.479427,0.2644796,-0.02526258,1.529159,0.2265443,289.7617,68.7741,167.6062,True
7,0.8666676,-2.238535,2.808342,0.3830771,4.639064,-4.468287,-1.588773,0.2344863,1.384815,0.3930333,-0.8872401,-0.189485,11.27321,18.53439,-0.5651557,-0.5673925,0.9675202,-0.04204226,-0.6593205,3.084296,0.3910728,1.479102,0.3804545,-0.3034527,0.1392104,-0.2503812,-1.294482,0.4577035,0.03617745,0.55107,1.479427,0.2644796,-0.02434702,1.541755,0.2277858,290.8398,62.13034,173.6959,True
7,0.8777788,-2.169692,2.654895,0.2974283,4.616004,-4.467633,-1.567049,0.2330924,1.38695,0.390095,-0.9176065,-2.774967,11.29973,19.84144,-0.5503978,-0.5523907,0.9493545,-0.05262939,-0.562123,2.992841,0.390149,1.479934,0.379153,-0.301229,0.1956851,-0.2355338,-1.296463,0.4621596,0.03823793,0.5503526,1.479357,0.2642906,-0.02216549,1.554901,0.2313977,292.8622,59.11973,177.0641,True
7,0.8888899,-2.152611,2.636491,0.2112076,4.586734,-4.467976,-1.543592,0.2317542,1.389798,0.3880706,-0.8971977,1.888616,11.32626,21.31991,-0.6281025,-0.5420278,0.9732744,-0.06505091,-0.4965276,2.937381,0.3896028,1.480678,0.3780122,-0.280586,0.2788441,-0.1846555,-1.296596,0.4683173,0.03912503,0.5495092,1.479351,0.2642725,-0.01773074,1.565244,0.236716,296.5785,60.5045,176.6889,True
7,0.900001,-2.086215,2.335579,0.2657069,4.571133,-4.461872,-1.521945,0.2306709,1.393291,0.3862801,-0.8949074,0.1901439,11.35279,22.86265,-0.6590698,-0.5527319,0.9563937,-0.07641888,-0.4380124,2.887333,0.3889613,1.48121,0.3769586,-0.2485343,0.3118978,-0.1722008,-1.298,0.4728905,0.03955513,0.5487913,1.47929,0.2641277,-0.01518244,1.575467,0.242711,299.6671,57.66139,180.1864,True
7,0.9111122,-1.864733,1.877635,0.3218771,4.56553,-4.455727,-1.507776,0.2294373,1.39731,0.3851721,-0.8932163,0.1548633,11.37931,24.14827,-0.6253836,-0.513107,0.9115285,-0.08566271,-0.413866,2.869102,0.3888068,1.482057,0.376091,-0.1835112,0.3354295,-0.1674929,-1.299609,0.4780722,0.03792714,0.5480793,1.479138,0.2637041,-0.01430302,1.585603,0.248824,301.7231,55.25135,183.6815,True
7,0.9222233,-1.60152,1.38013,0.2972994,4.565481,-4.452624,-1.498235,0.2283051,1.401284,0.3844614,-0.8958666,-0.2436234,11.24668,24.7268,-0.4595274,-0.545857,1.016999,-0.102128,-0.3869235,2.842179,0.3889895,1.48289,0.3752813,-0.130163,0.3067358,-0.1647706,-1.301351,0.480868,0.03663231,0.5476367,1.478823,0.2633381,-0.01444007,1.595816,0.2548584,302.9142,53.24196,186.8581,True
7,0.9333345,-1.199255,0.7126862,0.004888788,4.566443,-4.460026,-1.483142,0.2265942,1.409047,0.3833537,-0.9036308,-0.7066486,11.27321,25.21962,-0.05288482,-0.79642,1.19828,-0.140478,-0.2910156,2.736718,0.3894243,1.485023,0.3736546,-0.1511547,0.211856,-0.2529328,-1.309289,0.4834603,0.03992211,0.5468687,1.478421,0.2625666,-0.01413928,1.605622,0.2600692,303.9518,51.98026,189.5925,True
7,0.9444456,-1.199255,0.7126862,0.004888788,4.566443,-4.460026,-1.483142,0.2265942,1.409047,0.3833537,-0.8978667,0.5326039,11.61804,26.05528,-0.05288482,-0.79642,1.19828,-0.140478,-0.2910156,2.736718,0.3894243,1.485023,0.3736546,-0.1511547,0.211856,-0.2529328,-1.309289,0.4834603,0.03992211,0.5468687,1.478421,0.2625666,-0.01326669,1.615176,0.2634155,305.1128,51.69982,191.2348,True
7,0.9555568,-1.156546,0.4288901,-0.1388127,4.571057,-4.466727,-1.472761,0.2257286,1.412235,0.38327,-0.9154952,-1.617791,12.25464,27.14806,0.08060801,-0.8376315,1.228282,-0.158228,-0.266224,2.706882,0.3895389,1.486093,0.3724585,-0.2481579,0.1542469,-0.383047,-1.318324,0.4843538,0.04569186,0.5465508,1.478277,0.2619505,-0.01192656,1.6249,0.2644892,305.9836,52.28828,191.2223,True
7,0.9666679,-1.169809,0.281296,-0.2819544,4.570116,-4.47412,-1.459544,0.2249403,1.414703,0.3846145,-0.9100037,0.5153233,13.0504,28.39083,0.05739748,-0.7554898,1.135917,-0.1690607,-0.2599622,2.701555,0.389217,1.48718,0.3711736,-0.3334069,0.1423786,-0.5004928,-1.327525,0.4862247,0.05172392,0.546257,1.478026,0.2621338,-0.008367197,1.630957,0.2639877,307.6463,54.13764,188.7474,True
7,0.977779,-1.15969,0.1499711,-0.3729635,4.570529,-4.480657,-1.448049,0.2242172,1.417168,0.3863196,-0.9018124,0.7414786,13.92573,29.37647,0.003456473,-0.5074856,1.157044,-0.1804073,-0.303886,2.746863,0.388696,1.488284,0.3697784,-0.3690576,0.1550852,-0.553441,-1.335042,0.4887802,0.05618018,0.5458419,1.477853,0.2617388,-0.005668618,1.635271,0.2622761,308.5787,56.08492,185.6619,True
7,0.9888902,-0.9995329,-0.1968762,-0.4365056,4.581908,-4.493118,-1.432016,0.2227605,1.422153,0.3879495,-0.8967097,0.4593034,14.72149,30.06214,0.05905652,-0.06329769,1.246162,-0.2052248,-0.4071875,2.845984,0.3880453,1.489769,0.3674395,-0.3795863,0.1358473,-0.5351869,-1.345974,0.4915532,0.06433079,0.5448596,1.477542,0.2615237,-0.004705584,1.638723,0.2602282,308.4,57.51159,182.9514,True
7,1.000001,-0.8781597,-0.4350889,-0.4589955,4.593784,-4.50051,-1.427182,0.2222022,1.424556,0.3889437,-0.8871991,0.8658323,15.41114,30.6621,0.1244417,0.1020651,1.219518,-0.2156873,-0.4537179,2.888065,0.3877541,1.49029,0.3668289,-0.4021067,0.1358697,-0.4326767,-1.346873,0.4929548,0.06946856,0.5441689,1.477437,0.2612088,-0.005665245,1.642345,0.2591247,307.2872,58.41508,180.7665,True
7,1.011112,-0.7817143,-0.5754529,-0.5053536,4.60307,-4.509452,-1.422759,0.2219735,1.427291,0.390434,-0.9004648,-1.22106,16.07427,31.15492,0.1659667,-0.03997177,0.965403,-0.2193497,-0.4322128,2.863814,0.3877335,1.490791,0.3659649,-0.3804447,0.1668648,-0.2752101,-1.344566,0.4954682,0.07254051,0.5435214,1.477294,0.2605319,-0.008109869,1.647382,0.2599663,305.6475,59.46547,179.297,True
7,1.022224,-0.6929024,-0.6830933,-0.6018854,4.613151,-4.521153,-1.419436,0.2218263,1.429006,0.3914251,-0.9021618,-0.145836,16.5252,31.30491,0.18985,-0.1364962,0.809497,-0.2243857,-0.4147062,2.843755,0.3875486,1.491459,0.3651805,-0.3454842,0.1850775,-0.180736,-1.343109,0.4981525,0.07455173,0.5428772,1.477149,0.2600639,-0.009615982,1.651717,0.2626385,305.3141,60.79142,178.8915,True
7,1.033335,-0.6192486,-0.7394864,-0.6666172,4.620429,-4.531944,-1.415575,0.2218839,1.431062,0.3940146,-0.899995,0.1962995,16.7374,31.21919,0.2886984,-0.1414509,0.7705611,-0.2326399,-0.4194873,2.841883,0.3876788,1.492017,0.3643894,-0.3055714,0.1830108,-0.1267702,-1.342785,0.4999196,0.07639331,0.542486,1.476826,0.259196,-0.01003783,1.654858,0.2662091,305.8932,61.92058,179.1799,True
7,1.044446,-0.5156103,-0.8158452,-0.6865932,4.630653,-4.541921,-1.414163,0.2215825,1.432615,0.3949265,-0.8979204,0.1860227,16.79045,30.94065,0.4014245,-0.1740139,0.7218818,-0.2397868,-0.415808,2.83016,0.3871932,1.492472,0.3637228,-0.3070119,0.1659321,-0.1682914,-1.34596,0.5014376,0.07945994,0.5419222,1.476635,0.2585785,-0.009948358,1.65717,0.270032,306.6292,63.05446,179.3123,True
7,1.055557,-0.400434,-0.8461004,-0.6492248,4.63973,-4.549087,-1.413893,0.2211246,1.433966,0.3949881,-0.894543,0.3051163,16.71088,30.61924,0.4017689,-0.1482024,0.6122093,-0.2433112,-0.4169141,2.826985,0.3867982,1.492977,0.3628221,-0.3287333,0.1275058,-0.2138499,-1.349674,0.5017753,0.08397985,0.5413884,1.476442,0.2580469,-0.009822248,1.658745,0.2737632,307.1851,64.42503,178.8186,True
7,1.066668,-0.3366826,-0.7913914,-0.6271778,4.645628,-4.5571,-1.412975,0.2209392,1.43613,0.3969955,-0.8937787,0.06490395,16.57825,30.51211,0.3817527,-0.123459,0.4834824,-0.2442529,-0.4159656,2.822533,0.3863204,1.493365,0.3619719,-0.3374671,0.06248415,-0.2424892,-1.353481,0.5005,0.08827101,0.5407843,1.476347,0.2574744,-0.01013069,1.660049,0.277427,307.3873,65.6132,178.2068,True
7,1.077779,-0.3156584,-0.7187641,-0.6040683,4.650215,-4.563845,-1.410663,0.2206225,1.437297,0.3974085,-0.8918681,0.1713668,16.55172,30.79066,0.3537908,0.02977121,0.518098,-0.2496277,-0.4470458,2.849877,0.3858438,1.493764,0.361269,-0.3205966,0.04754314,-0.259658,-1.356603,0.5007195,0.09143564,0.5401749,1.476262,0.2569101,-0.01101171,1.661018,0.2805476,307.687,66.60256,178.2116,True
7,1.08889,-0.2863165,-0.6064541,-0.541666,4.651412,-4.568448,-1.408142,0.220586,1.438725,0.4006662,-0.8874878,0.3961119,16.57825,31.56203,0.3226451,0.03828382,0.4810185,-0.253559,-0.4546801,2.854701,0.3854901,1.494027,0.3603194,-0.3056022,0.06249151,-0.250221,-1.358901,0.5023356,0.0939486,0.5394876,1.476153,0.2563355,-0.012535,1.661623,0.282602,307.7482,67.28071,178.3956,True
7,1.100002,-0.2781751,-0.506135,-0.508019,4.652889,-4.573165,-1.405718,0.2202634,1.439403,0.4008498,-0.8822302,0.47475,16.60477,32.93336,0.2809621,-0.02456325,0.4257253,-0.2566142,-0.4468109,2.845429,0.3851553,1.493956,0.3594253,-0.2599765,0.06898163,-0.1547653,-1.35715,0.5030743,0.0952887,0.538751,1.476166,0.2557802,-0.01465943,1.662039,0.2837672,307.2744,67.90528,178.0464,True
7,1.111113,-0.2794814,-0.4464442,-0.4965436,4.655309,-4.578634,-1.402876,0.2196586,1.440198,0.400466,-0.878188,0.362965,16.57825,34.45468,0.2396484,0.02095795,0.4889393,-0.2636034,-0.462392,2.859068,0.3848083,1.494007,0.3586185,-0.2136237,0.02006224,-0.1018964,-1.356638,0.5015698,0.09641735,0.5380549,1.476191,0.2552493,-0.01695268,1.66211,0.2843615,306.4668,68.45052,177.3154,True
7,1.122224,-0.2882873,-0.3707043,-0.4649096,4.655989,-4.582846,-1.399672,0.2189653,1.440964,0.4004657,-0.8744846,0.3331628,16.47215,36.06171,0.2197534,0.02182463,0.5476521,-0.2712616,-0.4715912,2.866203,0.3843039,1.494146,0.3578641,-0.1869736,0.01795787,-0.1000142,-1.357871,0.5017862,0.09771963,0.5372594,1.47614,0.25458,-0.01907221,1.662006,0.2850917,305.5393,68.80315,176.486,True
7,1.133335,-0.2993708,-0.2607553,-0.4238375,4.653838,-4.587012,-1.396179,0.2189607,1.442711,0.4041455,-0.8702427,0.3824014,16.28647,37.71159,0.2267953,0.0379625,0.487997,-0.2743695,-0.4783461,2.87002,0.3837721,1.494281,0.3572338,-0.1719748,0.04036559,-0.08951665,-1.358356,0.5033521,0.0988403,0.5365564,1.475991,0.2540059,-0.02098374,1.66191,0.2859092,305.0956,69.00954,176.5096,True
7,1.144446,-0.3103979,-0.1583424,-0.3816704,4.651568,-4.589459,-1.39252,0.2184349,1.443362,0.4041719,-0.8661186,0.371232,16.07427,39.40433,0.20337,0.001064599,0.2899045,-0.2712243,-0.4699361,2.860227,0.3832858,1.494472,0.3567383,-0.1367037,0.05532103,-0.07601225,-1.3586,0.5045701,0.09889622,0.5357671,1.475913,0.2534704,-0.02278535,1.662039,0.2865846,304.9226,69.30149,176.7353,True
7,1.155557,-0.3035154,0.008180171,-0.3163821,4.645636,-4.590186,-1.389802,0.2178688,1.444795,0.4047284,-0.862029,0.3683262,15.83554,41.16135,0.1798837,-0.03517511,0.263328,-0.2740808,-0.4667276,2.85594,0.3826761,1.494858,0.3563492,-0.1082035,0.04893789,-0.1050436,-1.360802,0.5051083,0.09907039,0.5351365,1.475775,0.2529135,-0.02441252,1.66251,0.2872707,304.5067,69.64411,176.2769,True
7,1.166668,-0.280255,0.06698877,-0.2921937,4.642971,-4.592918,-1.38793,0.2172963,1.445607,0.4044886,-0.8581605,0.3481097,15.64987,42.68266,0.1979937,-0.07023773,0.2460904,-0.276801,-0.4623871,2.848953,0.3822782,1.495275,0.3558004,-0.101942,0.03082252,-0.1210679,-1.362672,0.5050712,0.09998279,0.5345521,1.475707,0.2523065,-0.02572579,1.663529,0.2887465,303.9312,69.88112,175.4669,True
7,1.17778,-0.2207217,0.1013826,-0.2753304,4.640292,-4.594935,-1.387633,0.2167688,1.446261,0.4044814,-0.8553844,0.2483019,15.46419,43.96828,0.1979962,-0.1074781,0.2257661,-0.2793166,-0.4561474,2.840675,0.3818544,1.495659,0.3551567,-0.101999,0.01057998,-0.1285062,-1.364296,0.5047423,0.1012478,0.5339038,1.47558,0.2516601,-0.02672042,1.665069,0.2909133,303.8826,69.54798,175.9128,True
7,1.188891,-0.1899253,0.1260008,-0.274386,4.637776,-4.597498,-1.386697,0.215963,1.446288,0.403908,-0.85217,0.2890598,15.35809,44.97536,0.1844525,-0.1427455,0.2598517,-0.2838877,-0.4510762,2.834298,0.3813047,1.495871,0.3543639,-0.1235471,-0.02674757,-0.1580988,-1.367154,0.5034208,0.1035623,0.5332939,1.475504,0.2510543,-0.02750821,1.66713,0.2935143,304.236,68.93298,177.0572,True
7,1.200002,-0.1930471,0.1068136,-0.2742996,4.636694,-4.600386,-1.384676,0.215333,1.446772,0.404053,-0.8495409,0.2347393,15.27851,45.76816,0.1514642,-0.04177785,0.3178126,-0.2883777,-0.4670798,2.849105,0.3806797,1.49588,0.3535798,-0.1537391,-0.03638886,-0.1972253,-1.370685,0.5031635,0.1063275,0.5326592,1.475474,0.2505171,-0.02801882,1.669054,0.2960863,304.9225,68.70872,178.0758,True
7,1.211113,-0.2345019,0.07774884,-0.302916,4.636348,-4.604636,-1.380724,0.2146872,1.446837,0.4033139,-0.8444937,0.4562712,15.22546,46.4324,0.1243765,0.04663269,0.2894093,-0.2892992,-0.4809014,2.862003,0.3799863,1.49595,0.3528619,-0.1719607,-0.04705886,-0.2108984,-1.373505,0.5027245,0.1087374,0.5319558,1.475497,0.2500243,-0.02842547,1.670382,0.298286,305.7294,68.68111,178.7666,True
7,1.222224,-0.2406929,0.02330506,-0.3229131,4.63713,-4.609088,-1.378144,0.2141025,1.447431,0.4036088,-0.8386832,0.5240978,15.09284,46.73238,0.1158355,0.07107723,0.2969829,-0.2923687,-0.4885375,2.868112,0.3795388,1.496037,0.3521786,-0.1525501,-0.05341486,-0.1865733,-1.374874,0.502044,0.1099617,0.5311663,1.475416,0.2495255,-0.02911131,1.670954,0.2998686,306.3425,68.69749,179.18,True
7,1.233335,-0.1903947,-0.02768308,-0.3397951,4.637992,-4.614308,-1.378429,0.2139972,1.448323,0.4045885,-0.8318756,0.6147717,14.85411,46.79666,0.1552985,0.01904666,0.2785158,-0.2952588,-0.4859016,2.862547,0.3790911,1.496354,0.3515968,-0.118387,-0.03846518,-0.1783852,-1.376575,0.5023009,0.1099944,0.5302858,1.475343,0.2490141,-0.03035472,1.670967,0.3008079,306.471,68.81589,179.315,True
7,1.244446,-0.1411978,-0.07868081,-0.3513106,4.639791,-4.619088,-1.378881,0.2135839,1.448885,0.405,-0.8283193,0.316751,14.53581,46.71095,0.2428162,-0.03607693,0.2757245,-0.2986016,-0.4805008,2.851872,0.3784495,1.496688,0.3512678,-0.09291674,0.01695333,-0.1839924,-1.378587,0.5047649,0.1096407,0.529485,1.47526,0.2485795,-0.03214993,1.670623,0.3011473,306.1349,69.04994,179.2549,True
7,1.255558,-0.05446413,-0.1965913,-0.3486969,4.645097,-4.62403,-1.381402,0.2131121,1.448738,0.4045815,-0.8263459,0.174499,14.11141,46.53953,0.2937369,0.02906618,0.2713144,-0.3008967,-0.4914187,2.857355,0.377773,1.49678,0.3507071,-0.097359,0.06168526,-0.199966,-1.381101,0.5072451,0.1104402,0.5286744,1.475292,0.248024,-0.03431427,1.670147,0.3011999,305.4003,69.42462,178.7538,True
7,1.266669,-0.02453681,-0.2251536,-0.327275,4.647828,-4.627409,-1.381854,0.2126521,1.44875,0.4039109,-0.8215516,0.4331195,13.63395,46.08957,0.2798306,0.08160928,0.1106499,-0.2962202,-0.4967138,2.859818,0.3767977,1.496843,0.3501711,-0.1016272,0.04889195,-0.2020491,-1.38347,0.5076395,0.1116365,0.5278292,1.475314,0.2474868,-0.03657913,1.669473,0.301379,304.6518,69.90041,178.0568,True
7,1.27778,-0.02232313,-0.2431083,-0.2941716,4.650737,-4.630167,-1.381884,0.2121849,1.448896,0.4040859,-0.8178828,0.3274488,13.12997,45.42533,0.2143939,0.03370954,0.008654445,-0.2935656,-0.4887578,2.851958,0.3760006,1.496915,0.3496833,-0.09709241,0.01164566,-0.1764952,-1.384673,0.506685,0.1126925,0.5270002,1.475298,0.2469161,-0.03884479,1.668425,0.3017653,304.2418,70.34669,177.7439,True
7,1.288891,-0.06181946,-0.2123176,-0.2900649,4.651012,-4.634308,-1.380279,0.2121045,1.44992,0.4058282,-0.810108,0.7037582,12.62599,44.58968,0.1557519,0.08675039,0.02830671,-0.2939171,-0.499087,2.862238,0.3754417,1.496845,0.3491468,-0.06542213,-0.0585859,-0.100044,-1.383753,0.5033868,0.1130536,0.5262178,1.475354,0.2463238,-0.04107406,1.666662,0.3020532,304.1292,70.76218,177.847,True
7,1.300002,-0.07781012,-0.2017489,-0.2943719,4.65224,-4.637991,-1.379075,0.2115862,1.45015,0.405973,-0.8033644,0.606264,12.14854,43.71116,0.1537405,0.07499056,0.04107809,-0.2949131,-0.5017366,2.862829,0.3748806,1.496884,0.3485961,-0.03634322,-0.0766398,-0.06833817,-1.383735,0.502221,0.1127689,0.5253109,1.475417,0.2456939,-0.04352092,1.664521,0.3020196,303.7547,70.82571,178.178,True
7,1.311113,-0.06299848,-0.1994376,-0.2911698,4.651866,-4.642305,-1.37899,0.2116668,1.451843,0.4127133,-0.7953531,0.723133,11.85676,42.98265,0.1790089,0.02156498,0.1430634,-0.30015,-0.5003335,2.858694,0.3744989,1.496971,0.3480611,-0.01808021,-0.08193975,-0.05252411,-1.383887,0.5011037,0.1125407,0.5244769,1.475424,0.2450583,-0.04622647,1.662403,0.301798,302.8787,70.91415,177.9776,True
7,1.322224,-0.04170901,-0.1907091,-0.2624554,4.653335,-4.644567,-1.379459,0.211184,1.451947,0.4129999,-0.7892331,0.5490597,11.61804,42.31841,0.195012,-0.002869517,0.1333168,-0.3013915,-0.4987495,2.854362,0.3739069,1.497186,0.3476114,-0.0139104,-0.08406868,-0.06215485,-1.385177,0.5003911,0.1127779,0.5236107,1.47542,0.2443881,-0.04909902,1.660823,0.3019522,301.7209,71.10822,177.4002,True
7,1.333336,-0.04822225,-0.1520994,-0.2136262,4.652484,-4.645906,-1.378828,0.2107156,1.453146,0.4168034,-0.7837944,0.4881472,11.48541,41.26848,0.1800021,0.009888709,0.1249075,-0.302011,-0.5010666,2.855198,0.3729724,1.49711,0.3471186,-0.03320429,-0.09473624,-0.07581577,-1.386608,0.4992842,0.1139729,0.5227612,1.475433,0.2438095,-0.05179586,1.659731,0.3028845,300.6257,71.64887,176.1958,True
7,1.344447,-0.04724988,-0.1210075,-0.1700879,4.652645,-4.646294,-1.378358,0.2101412,1.453355,0.4170809,-0.7777341,0.5452258,11.45889,39.76859,0.1592799,0.04832554,0.06439608,-0.3002352,-0.5065364,2.859399,0.3721648,1.497037,0.3466458,-0.04491569,-0.1000769,-0.07570814,-1.387697,0.4979862,0.1150906,0.52192,1.475468,0.2432683,-0.05411497,1.65918,0.3056013,299.7675,72.19779,174.8559,True
7,1.355558,-0.05693981,-0.09107141,-0.1371971,4.652647,-4.646677,-1.377254,0.2088223,1.453367,0.4155169,-0.7696738,0.727326,11.43236,38.033,0.1365365,0.05797973,0.00702727,-0.2980663,-0.5079257,2.86003,0.3713789,1.496959,0.3461893,-0.02765489,-0.08618673,-0.05137608,-1.387432,0.4976123,0.1148744,0.5210896,1.475496,0.2427881,-0.05603182,1.658804,0.3095304,299.7193,71.95259,175.5606,True
7,1.366669,-0.08171005,-0.03040953,-0.1406175,4.649721,-4.647916,-1.375089,0.2085874,1.453938,0.4179747,-0.7625717,0.6382289,11.51194,36.29741,0.09404735,-0.01667188,-0.009940136,-0.298078,-0.4984591,2.851443,0.370704,1.497229,0.3456273,0.00557572,-0.07122851,-0.02826453,-1.387043,0.4972281,0.1137886,0.5202971,1.475543,0.2422976,-0.05779401,1.658696,0.31425,299.8729,71.25434,177.1347,True
7,1.37778,-0.0883655,0.04306673,-0.1420101,4.64643,-4.648899,-1.373934,0.2079347,1.454087,0.4181402,-0.7546914,0.710243,11.56498,34.64752,0.08062699,-0.04561232,0.04653585,-0.3009447,-0.4962775,2.848804,0.3701051,1.497375,0.3450561,0.02469241,-0.05203006,-0.03271823,-1.387559,0.4974971,0.1129162,0.5194673,1.475588,0.2417591,-0.05947224,1.658532,0.3186108,300.4728,70.27344,179.8341,True
7,1.388891,-0.0852405,0.06542222,-0.1442671,4.645218,-4.650532,-1.373325,0.2071115,1.454095,0.4160492,-0.7462108,0.7643806,11.51194,33.12621,0.09706563,-0.03935662,0.1274089,-0.3048659,-0.4997512,2.85051,0.3695815,1.49767,0.3443587,0.03510229,-0.02008513,-0.0562791,-1.388894,0.4985063,0.1119428,0.5187086,1.475627,0.2412353,-0.06133879,1.658218,0.321609,300.8964,69.60435,181.8622,True
7,1.400002,-0.05335658,0.08905901,-0.1252131,4.643227,-4.650925,-1.373831,0.2065136,1.454346,0.4160984,-0.739783,0.5763065,11.40584,31.62631,0.09275304,0.02130076,0.1488849,-0.3064366,-0.5092542,2.858566,0.3689331,1.497677,0.3436925,0.02191337,-0.008401526,-0.09771059,-1.391347,0.4991402,0.1121838,0.5179526,1.475566,0.2406697,-0.06320155,1.657687,0.3235068,300.6229,69.20922,182.369,True
7,1.411114,-0.04052569,0.0859973,-0.1071418,4.642545,-4.652148,-1.374107,0.2061296,1.455089,0.4158883,-0.7329552,0.6144493,11.22016,30.21213,0.06788622,0.06605438,0.1129086,-0.3057064,-0.5162005,2.865407,0.3681251,1.497615,0.3430581,-0.01364981,0.00857676,-0.1400067,-1.394417,0.5001262,0.1134448,0.5173084,1.475625,0.2401114,-0.06515441,1.657005,0.3243705,300.416,68.75278,182.9685,True
7,1.422225,-0.02661149,0.06905478,-0.0953529,4.642246,-4.652732,-1.374358,0.2054801,1.455482,0.415911,-0.7265785,0.5725959,11.03448,29.09792,0.03141993,0.08837573,0.08334784,-0.3052132,-0.5206809,2.870523,0.3675005,1.49771,0.342515,-0.02823721,0.005405432,-0.105781,-1.394287,0.500174,0.1141636,0.516583,1.475815,0.2395618,-0.06724278,1.656058,0.3239679,300.2574,68.48447,183.509,True
7,1.433336,-0.0170665,0.08293705,-0.09009662,4.641132,-4.6532,-1.374475,0.2046166,1.454996,0.4132099,-0.7186423,0.7154525,10.8488,28.64795,0.004707275,0.06704561,0.05895462,-0.3049767,-0.520683,2.871479,0.3669702,1.497879,0.3420076,-0.001057651,-0.01583063,-0.04848613,-1.392938,0.4991888,0.1135151,0.5158264,1.475851,0.2389128,-0.06941053,1.654768,0.32258,299.7987,68.3337,183.3566,True
7,1.444447,-0.01608041,0.1053165,-0.0891326,4.639013,-4.653774,-1.374371,0.2040027,1.455212,0.413167,-0.7107668,0.7086539,10.61008,28.8408,0.04448864,0.00211253,0.08626726,-0.3075717,-0.5149388,2.863993,0.3665427,1.498048,0.3415208,0.04397176,-0.05199422,-0.02118168,-1.392485,0.4973018,0.1118141,0.5151207,1.475835,0.2382891,-0.07171728,1.65328,0.3206157,299.0817,68.34081,182.7486,True
7,1.455558,-0.02370904,0.154372,-0.0669829,4.635959,-4.652982,-1.37362,0.2032836,1.454361,0.4104538,-0.702764,0.7204154,10.29178,29.31219,0.07339704,-0.03616099,0.09026789,-0.3091994,-0.5108582,2.85824,0.3659448,1.498271,0.3410547,0.03334035,-0.06477708,-0.02000726,-1.392822,0.4963445,0.1120083,0.5144584,1.475819,0.2377315,-0.07411398,1.651559,0.3184353,298.5117,68.27216,182.3947,True
7,1.466669,-0.02910453,0.173563,-0.05748031,4.633614,-4.652749,-1.373019,0.2024997,1.453943,0.4090009,-0.6947623,0.7203726,10.1061,29.7193,0.07448272,-0.05637291,0.08382206,-0.3101432,-0.5082519,2.855083,0.3650527,1.498472,0.3405025,-0.01474787,-0.0616367,-0.03554409,-1.393894,0.4958063,0.1138352,0.5137663,1.475894,0.2371619,-0.07658227,1.649534,0.3160227,298.0584,67.97011,182.5042,True
7,1.47778,-0.04184466,0.1640265,-0.03612535,4.632189,-4.652077,-1.372062,0.2017971,1.454024,0.4087803,-0.6865784,0.73715,10.15915,30.1907,0.05077779,-0.02016382,0.05635311,-0.3096489,-0.5111595,2.85797,0.3643527,1.498437,0.3399913,-0.03931316,-0.06698112,-0.04276747,-1.394677,0.4950781,0.1151559,0.5131459,1.475925,0.2367067,-0.07909129,1.64734,0.3137524,297.4529,67.4936,182.6324,True
7,1.488891,-0.0460032,0.1331361,-0.02746451,4.632115,-4.651955,-1.371194,0.2011744,1.453463,0.4059746,-0.6791439,0.6686096,10.4244,30.81208,0.01180477,0.01294638,-0.03069553,-0.3060494,-0.5123753,2.860328,0.3636426,1.498341,0.3393748,-0.03607763,-0.05952074,-0.03854389,-1.395046,0.4945874,0.1155034,0.5124311,1.475904,0.2362287,-0.08150545,1.644955,0.3115559,296.9637,66.71394,183.3657,True
7,1.500003,-0.0460032,0.1331361,-0.02746451,4.632115,-4.651955,-1.371194,0.2011744,1.453463,0.4059746,-0.6714538,0.6925948,10.87533,31.66916,0.01180477,0.01294638,-0.03069553,-0.3060494,-0.5123753,2.860328,0.3636426,1.498341,0.3393748,-0.03607763,-0.05952074,-0.03854389,-1.395046,0.4945874,0.1155034,0.5124311,1.475904,0.2362287,-0.08391652,1.642638,0.3095628,296.3201,66.12489,183.7224,True
7,1.511114,-0.03817892,0.02765983,-0.03337204,4.634376,-4.653055,-1.370581,0.2000387,1.453432,0.4041626,-0.6649881,0.5804616,11.45889,32.8048,-0.01222554,0.0350215,0.05898175,-0.3093688,-0.5196325,2.868055,0.3624602,1.498383,0.3380818,0.003211117,0.02253781,-0.04642701,-1.395838,0.4973951,0.1137132,0.5111105,1.475955,0.2353575,-0.08618613,1.640543,0.3080683,295.4961,65.70333,183.7187,True
7,1.522225,-0.01563611,-0.02348169,-0.0523257,4.636145,-4.654697,-1.371333,0.1995677,1.453676,0.4040267,-0.6566439,0.7533582,12.06897,33.53332,-0.01310772,0.0232395,0.08346014,-0.3109592,-0.5203989,2.868933,0.3619617,1.498437,0.3374987,0.007561648,0.03640871,-0.03582516,-1.395786,0.498363,0.1133638,0.5104643,1.475991,0.2349913,-0.08814204,1.638638,0.3071433,294.984,65.39054,184.0708,True
7,1.533336,0.002641127,-0.06715126,-0.06389973,4.638137,-4.656972,-1.372365,0.1994394,1.454214,0.4034691,-0.6505075,0.5500368,12.65252,34.17613,0.003117435,-0.0002132803,0.1131268,-0.3131505,-0.5196847,2.867697,0.361455,1.498517,0.3369625,0.01494978,0.02681263,-0.04441263,-1.396618,0.4982315,0.1129489,0.5098953,1.475956,0.2345753,-0.09015052,1.637082,0.3062477,294.9197,65.04371,185.0802,True
7,1.544447,0.01231219,-0.09053923,-0.06060169,4.63982,-4.657879,-1.37291,0.1989555,1.454494,0.4033217,-0.6446325,0.528107,13.20955,34.96893,0.02022531,-0.0001879483,0.1236795,-0.3147942,-0.5213882,2.868531,0.3609978,1.498594,0.3365417,0.01990053,0.0193215,-0.08494456,-1.399054,0.4983057,0.1126152,0.5093428,1.475994,0.2341943,-0.09197559,1.635595,0.3051991,294.7578,64.9702,185.4749,True
7,1.555558,0.0156001,-0.1053279,-0.03605737,4.641469,-4.658131,-1.373593,0.1985159,1.454967,0.4033198,-0.6381025,0.5880176,13.687,36.12599,0.02851632,-0.008581869,0.07993408,-0.3143819,-0.5196011,2.866188,0.3605091,1.498632,0.3361142,0.01562686,0.01612654,-0.08596507,-1.399921,0.4985808,0.1126184,0.508805,1.475861,0.2336702,-0.09368262,1.634156,0.3042153,294.3488,65.16837,185.113,True
7,1.566669,0.00174402,-0.1021528,-0.02647842,4.642636,-4.658222,-1.373093,0.1976471,1.454311,0.400872,-0.6309444,0.64494,13.95225,37.41162,0.03580178,-0.02232586,0.0447025,-0.3139153,-0.5168315,2.862992,0.3599026,1.498791,0.3356314,-0.001485415,-0.007330476,-0.09537596,-1.401342,0.4978822,0.1132509,0.5081562,1.475961,0.2332289,-0.09530932,1.632752,0.303485,293.883,65.38118,184.6927,True
7,1.577781,-0.01640771,-0.09161205,-0.03717225,4.643131,-4.659089,-1.372315,0.1971526,1.454549,0.4005544,-0.6243962,0.5887901,14.19098,38.2687,0.04102457,-0.04461045,0.0147928,-0.3136064,-0.512004,2.857654,0.3593222,1.499034,0.3351374,-0.009954777,-0.009459679,-0.08997066,-1.402209,0.4978955,0.1136187,0.5075904,1.475896,0.2327023,-0.09694751,1.631386,0.303084,293.506,65.36305,184.5924,True
7,1.588892,-0.01216597,-0.08739779,-0.04998356,4.643804,-4.660387,-1.372457,0.1966206,1.45455,0.3996968,-0.6166901,0.6952961,14.32361,38.74009,0.02488516,-0.02970008,-0.004253479,-0.3127883,-0.512171,2.858128,0.3587983,1.499266,0.3345189,-0.02791063,0.01077277,-0.07170688,-1.402277,0.498648,0.1143862,0.5070817,1.4759,0.232228,-0.09863547,1.629998,0.3028481,293.3816,65.08058,185.1798,True
7,1.600003,0.02091116,-0.1021862,-0.0477985,4.645266,-4.661214,-1.373906,0.1961726,1.454977,0.399411,-0.6098341,0.6167597,14.32361,38.97579,0.008125208,0.02972139,0.07481929,-0.3154791,-0.5221154,2.868052,0.3582805,1.499332,0.3337541,-0.03515035,0.04167647,-0.04824444,-1.402205,0.5000637,0.1144416,0.506536,1.476038,0.2317414,-0.1004128,1.628434,0.3022873,293.3723,64.65141,186.173,True
7,1.611114,0.03483064,-0.1223199,-0.03065524,4.647615,-4.661027,-1.374632,0.1955413,1.454852,0.3972616,-0.604398,0.4877343,14.35013,39.12578,-0.007750541,0.08283057,0.1197832,-0.317501,-0.5329874,2.878961,0.3577858,1.499428,0.3330796,-0.03282566,0.0480856,-0.02696403,-1.401683,0.5007818,0.1146081,0.5059353,1.476066,0.2312489,-0.1022751,1.626824,0.3014544,292.9848,64.34792,186.5851,True
7,1.622225,0.02105794,-0.1425551,-0.01883854,4.649955,-4.661285,-1.374426,0.1949261,1.455195,0.3968818,-0.5995201,0.4376828,14.35013,38.54725,-0.02255951,0.04976126,0.1197932,-0.3188092,-0.5319173,2.878626,0.3572918,1.499582,0.3325613,-0.02204517,0.03424978,-0.01641875,-1.401822,0.5006008,0.1142648,0.5052836,1.475987,0.2305489,-0.1041375,1.625177,0.3004839,292.4584,64.19971,186.6184,True
7,1.633336,-0.01848121,-0.1096021,-0.001922131,4.650296,-4.660657,-1.37257,0.1943377,1.45522,0.3955288,-0.5926364,0.6214036,14.37666,37.49732,-0.03312453,0.001814649,0.1101557,-0.3200635,-0.5271425,2.87486,0.3567555,1.499641,0.3319688,-0.0047943,0.001253198,0.002620183,-1.401318,0.4993783,0.1138821,0.5046284,1.476048,0.2300358,-0.1059709,1.623474,0.2994526,292.0392,64.05693,186.777,True
7,1.644447,-0.06551418,-0.0650126,0.004300926,4.649831,-4.660016,-1.370208,0.1935985,1.455081,0.3937297,-0.5852744,0.6635057,14.37666,36.10456,-0.02257564,0.01465465,0.09946869,-0.3206132,-0.5301584,2.877572,0.3561522,1.499791,0.3315446,-0.003723419,-0.004070921,-0.0006055264,-1.401824,0.4993207,0.1135021,0.5040497,1.475949,0.2292762,-0.1077919,1.621637,0.2980728,291.7416,63.8583,187.2114,True
7,1.655559,-0.08581066,-0.04910436,0.004237115,4.649835,-4.659968,-1.368575,0.1929729,1.45543,0.3932719,-0.5774202,0.7084702,14.37666,34.56181,-0.02379019,-0.0140195,0.05361201,-0.3204704,-0.5275699,2.875314,0.3555717,1.499954,0.3310149,-0.01014712,-0.0008822418,-0.003744118,-1.401959,0.4994331,0.1138086,0.5034606,1.475976,0.228754,-0.1096553,1.619806,0.2964193,291.2607,63.63531,187.3923,True
7,1.66667,-0.1092185,-0.05984619,0.0032424,4.65098,-4.660061,-1.366603,0.192542,1.455809,0.3925817,-0.5707762,0.5975243,14.27056,33.38333,-0.01946798,-0.02999052,0.06099039,-0.3211357,-0.5241488,2.87222,0.3550196,1.499973,0.3305502,-0.02738325,0.01080148,-0.02705444,-1.403329,0.5000042,0.1141543,0.503033,1.475813,0.228507,-0.1114836,1.618136,0.2945267,290.759,62.98734,187.986,True
7,1.677781,-0.1507902,-0.05142542,0.01281082,4.651355,-4.65971,-1.363494,0.1920336,1.456416,0.3922019,-0.5655478,0.4692234,14.11141,32.18341,-0.01094608,-0.05656365,0.04596642,-0.3216918,-0.5199039,2.86786,0.3544698,1.50003,0.3299005,-0.02633531,0.0203892,-0.02813639,-1.403609,0.5006049,0.114305,0.502467,1.475823,0.2280242,-0.1132187,1.616778,0.2924544,290.2486,62.36448,188.4428,True
7,1.688892,-0.1538899,-0.093957,0.01728983,4.652621,-4.659728,-1.361069,0.1920226,1.457685,0.3949273,-0.559405,0.5537655,13.97878,30.7478,-0.01190507,-0.05129317,0.06729072,-0.323108,-0.5198756,2.868079,0.3539464,1.50022,0.3293278,-0.006012603,0.03851428,-0.01768678,-1.403275,0.501536,0.1134768,0.5017473,1.476263,0.228147,-0.1147491,1.615787,0.2905082,289.7123,62.19169,188.2142,True
7,1.700003,-0.1398858,-0.140845,0.003647968,4.655552,-4.660744,-1.360039,0.1913836,1.458489,0.394747,-0.552395,0.6322762,13.92573,29.07649,-0.003134392,-0.06945574,0.09915282,-0.3256386,-0.5177972,2.865803,0.3533373,1.500429,0.3287239,0.0002686549,0.0406647,-0.02517348,-1.403263,0.5023358,0.1137087,0.5011321,1.476504,0.2282021,-0.1159996,1.615149,0.288896,289.2783,62.23965,187.8027,True
7,1.711114,-0.1558832,-0.1440655,-0.002716366,4.656156,-4.661452,-1.357619,0.1909245,1.460088,0.3977222,-0.5471118,0.4737779,13.8992,27.36233,-0.04690786,-0.07912287,0.07808714,-0.3260497,-0.5143079,2.864491,0.3526402,1.500607,0.32809,-0.003994933,0.03746071,-0.02619876,-1.403593,0.5026346,0.1138009,0.500421,1.476603,0.2278354,-0.1169772,1.614967,0.2878816,288.7722,62.37156,187.084,True
7,1.722225,-0.1920762,-0.1538309,-0.01437156,4.65802,-4.662432,-1.354308,0.1903238,1.461076,0.3975749,-0.5426526,0.3998674,13.8992,25.66959,-0.07115114,-0.006946139,0.1583018,-0.3296738,-0.5253829,2.876652,0.3519655,1.501034,0.3275986,-0.02745116,0.01721619,-0.02593416,-1.403462,0.5023553,0.1154906,0.4997081,1.476753,0.22736,-0.1176424,1.615266,0.2879621,288.3801,62.85741,186.0126,True
7,1.733337,-0.2272466,-0.1613496,-0.01643256,4.658833,-4.663036,-1.350215,0.1900613,1.462837,0.4005396,-0.535477,0.6486396,13.84615,23.80544,-0.06784073,0.02174257,0.1924432,-0.3325511,-0.5311952,2.882649,0.3514882,1.501435,0.3268611,-0.05711737,-0.00302929,-0.00750402,-1.402653,0.5016584,0.1175684,0.4990389,1.476702,0.2267046,-0.1183544,1.615961,0.2890039,288.402,63.55167,185.2236,True
7,1.744448,-0.2421791,-0.1549849,-0.01112782,4.660317,-4.663306,-1.347008,0.1895716,1.463812,0.4005125,-0.5285048,0.6278836,13.76658,21.64131,-0.04090376,-0.01021092,0.2273608,-0.3362928,-0.5307974,2.881909,0.3510171,1.501858,0.3262134,-0.06329604,0.0001693834,0.0149238,-1.401754,0.5015337,0.1183844,0.4982945,1.476759,0.2262938,-0.1192454,1.616993,0.291114,288.5003,63.68427,185.1635,True
7,1.755559,-0.219738,-0.1879625,-0.02481823,4.662803,-4.664543,-1.345104,0.1892427,1.465372,0.4014084,-0.5218502,0.5993453,13.66048,19.24148,-0.01073495,-0.05494148,0.2611651,-0.3407781,-0.5276411,2.878012,0.3505892,1.502178,0.3255334,-0.05809811,0.01081723,0.002083097,-1.402095,0.5020658,0.1187695,0.4976327,1.476805,0.2258601,-0.1202642,1.618176,0.2938025,288.6493,63.49991,185.8885,True
7,1.76667,-0.186525,-0.2390703,-0.04058041,4.667094,-4.666532,-1.344747,0.1883737,1.466768,0.4010031,-0.5169265,0.4413433,13.55437,16.82023,0.01131949,-0.09454612,0.3664103,-0.3489508,-0.526863,2.876448,0.3500897,1.5023,0.3247688,-0.05737676,0.03210565,-0.02987723,-1.403129,0.5034373,0.1195536,0.4970351,1.476763,0.2252398,-0.1212281,1.619469,0.2969294,288.6645,63.16702,186.7573,True
7,1.777781,-0.2087452,-0.2860609,-0.04993921,4.671561,-4.668439,-1.341823,0.1877282,1.467811,0.4011431,-0.5125765,0.3903322,13.3687,14.89179,-0.03149372,-0.03926946,0.3604077,-0.3522686,-0.5330763,2.883982,0.3494026,1.502347,0.3240666,-0.04490224,0.01718837,-0.06085786,-1.404492,0.5034892,0.1200281,0.4963368,1.476938,0.2247722,-0.1220868,1.620712,0.2998491,288.8943,62.83986,188.0246,True
7,1.788892,-0.2406981,-0.2937182,-0.0637095,4.675131,-4.670089,-1.338002,0.1868289,1.468231,0.3977344,-0.508464,0.3688606,13.2626,13.67045,-0.05533133,-0.007265642,0.3105548,-0.3537652,-0.5370661,2.889152,0.3487896,1.50267,0.3234572,-0.04698376,0.008654596,-0.05657498,-1.405042,0.5031757,0.1206628,0.4956909,1.476976,0.2243629,-0.1229908,1.621824,0.3021274,289.1354,63.03346,188.7055,True
7,1.800003,-0.3058779,-0.2331699,-0.04900777,4.675962,-4.669957,-1.33237,0.1860337,1.468675,0.3951585,-0.5003281,0.7368754,13.2626,13.02764,-0.05891724,-0.02094987,0.2381015,-0.3541887,-0.5351581,2.888088,0.3481489,1.503263,0.3228953,-0.06708367,0.0139966,-0.03825723,-1.404432,0.5037325,0.122311,0.4949805,1.476944,0.2236784,-0.1241701,1.622584,0.3033615,289.4127,63.7961,188.6317,True
7,1.811115,-0.2898577,-0.2479827,-0.0414809,4.679011,-4.67095,-1.329715,0.1854365,1.469851,0.395097,-0.4937447,0.5920426,13.39523,12.68481,-0.03967598,-0.05496319,0.2315128,-0.3569893,-0.5318658,2.884746,0.3475461,1.503696,0.3223078,-0.08405046,0.03528766,-0.0285292,-1.404356,0.5047405,0.1235776,0.4942954,1.476973,0.2232211,-0.1255721,1.622817,0.303379,289.5241,64.27032,188.7368,True
7,1.822226,-0.2320682,-0.3202966,-0.04757676,4.685019,-4.672851,-1.329207,0.1848166,1.47088,0.3937268,-0.4869047,0.6173998,13.71353,12.94193,-0.005418807,-0.06024641,0.2557988,-0.3609633,-0.5323562,2.883962,0.3469408,1.504126,0.3217256,-0.09563667,0.0693942,-0.01032544,-1.403476,0.5068219,0.1247987,0.4936221,1.477098,0.2226355,-0.127196,1.622598,0.3017157,289.4763,64.10757,189.5927,True
7,1.833337,-0.1860358,-0.3926741,-0.06750864,4.691255,-4.67582,-1.328812,0.1841782,1.472154,0.3936632,-0.4850026,0.1658572,14.08488,13.34904,-0.03973782,-0.1187828,0.1876889,-0.3616136,-0.5230962,2.876947,0.3462128,1.504554,0.3209696,-0.0987733,0.07151928,-0.003910474,-1.403296,0.507529,0.1258439,0.4930989,1.477116,0.2221527,-0.128769,1.622166,0.2984788,288.851,63.7554,189.7619,True
7,1.844448,-0.2158416,-0.406752,-0.08977477,4.695896,-4.678413,-1.325294,0.1832955,1.472733,0.3911347,-0.4828833,0.1896673,14.48276,14.1847,-0.08860429,-0.06898113,0.2360388,-0.3654171,-0.5282862,2.884434,0.3453706,1.505092,0.3202519,-0.1040972,0.03637458,-0.003808569,-1.403081,0.5067577,0.1276693,0.492474,1.477041,0.2218087,-0.13009,1.621731,0.2944604,287.9426,64.57343,187.9183,True
7,1.855559,-0.2477787,-0.4164987,-0.1014263,4.700245,-4.681041,-1.321578,0.1823941,1.474,0.3910556,-0.4786052,0.3864271,14.88063,15.40604,-0.1002735,-0.03924414,0.2585543,-0.3689005,-0.5326592,2.889809,0.3445694,1.505536,0.3194959,-0.121458,0.02567277,-0.03879773,-1.404855,0.506712,0.1295644,0.4916631,1.477105,0.2213352,-0.1312186,1.621291,0.2903266,287.245,66.60703,184.7645,True
7,1.86667,-0.2552426,-0.4187172,-0.109918,4.704757,-4.683446,-1.318516,0.1814745,1.474704,0.3887248,-0.4712138,0.669723,15.27851,16.67023,-0.1142671,-0.01901362,0.2448368,-0.3709522,-0.53552,2.894214,0.3437302,1.505952,0.3187399,-0.1385271,0.04271874,-0.0375624,-1.404741,0.5081089,0.1317202,0.4908212,1.477228,0.2208881,-0.1323926,1.620885,0.2867573,286.84,68.69757,181.7731,True
7,1.877781,-0.2647429,-0.4508259,-0.1353292,4.710021,-4.687226,-1.315303,0.180748,1.476061,0.3886387,-0.4668724,0.3889133,15.43766,17.52732,-0.09821446,-0.02005459,0.2564462,-0.3739153,-0.53675,2.89586,0.3430007,1.506467,0.3180041,-0.1426772,0.07576483,-0.02048176,-1.4038,0.510084,0.1334036,0.4899946,1.477359,0.2204561,-0.1338061,1.620673,0.2838967,286.5087,69.88528,180.1667,True
7,1.888893,-0.2753691,-0.4530668,-0.152438,-1.568793,-4.691566,-1.312419,0.1804127,1.478064,0.3894958,-0.4643546,0.2254312,15.49072,18.19156,-0.07773447,-0.05413748,0.2796811,-0.3781374,-0.5346591,2.894093,0.3422785,1.507176,0.3171718,-0.1406234,0.1023905,-0.02691492,-1.404098,0.5120222,0.1344659,0.4892064,1.477521,0.2199659,-0.1353676,1.620861,0.2820204,286.1039,70.78255,179.0703,True
7,1.900004,-0.2625767,-0.4638667,-0.1640707,-1.561995,-4.694504,-1.309696,0.1791606,1.47762,0.3803167,-0.4615674,0.2514841,15.43766,18.77009,-0.08288935,-0.06379693,0.3020594,-0.3823255,-0.5344476,2.894936,0.3414639,1.507847,0.3164682,-0.1419593,0.1439278,-0.05142929,-1.404974,0.5152586,0.1356263,0.4884466,1.477468,0.2194018,-0.1368436,1.621398,0.2809471,285.8615,71.67201,178.3999,True
7,1.911115,-0.2370593,-0.4626769,-0.1587545,-1.557759,-4.697326,-1.307347,0.1786731,1.478811,0.3799109,-0.4595385,0.1820263,15.35809,19.4129,-0.07756989,-0.03717948,0.315941,-0.3860529,-0.538417,2.899436,0.3405625,1.508405,0.3156471,-0.1430952,0.1524405,-0.05782816,-1.40572,0.5172887,0.1369848,0.4877361,1.477616,0.218816,-0.1380956,1.622354,0.2808503,285.5072,73.11976,176.9086,True
7,1.922226,-0.2424794,-0.4285392,-0.1450497,-1.554522,-4.699239,-1.304515,0.1775813,1.480252,0.379555,-0.4577058,0.1649851,15.33157,20.37712,-0.04665107,0.04057796,0.3574812,-0.3904221,-0.5498011,2.909174,0.3397727,1.509068,0.3147988,-0.1397843,0.1173092,-0.04609376,-1.405489,0.5175318,0.1387036,0.4868813,1.477743,0.2183208,-0.1391457,1.623813,0.2815477,285.6873,73.39491,177.6672,True
7,1.933337,-0.2425294,-0.4136648,-0.1525698,-1.551078,-4.702189,-1.301735,0.17669,1.481629,0.3792205,-0.4563071,0.1253441,15.30504,20.89137,-0.04759163,0.02456766,0.3702303,-0.3949404,-0.5521383,2.911891,0.3389113,1.509666,0.3138461,-0.1428297,0.08002223,-0.03325921,-1.405557,0.517016,0.1404948,0.4860142,1.477923,0.2176669,-0.1400248,1.625285,0.2812501,286.5249,73.16959,180.1181,True
7,1.944448,-0.2446724,-0.4105024,-0.1578869,-1.547181,-4.705056,-1.298797,0.175614,1.483017,0.3788986,-0.4542996,0.1816769,15.19894,21.01993,-0.09471954,-0.01697495,0.3032887,-0.3962592,-0.5476631,2.910162,0.3379579,1.510297,0.3130546,-0.1552244,0.05554147,0.007378682,-1.403971,0.5167896,0.142873,0.4851441,1.478188,0.2171497,-0.1406305,1.62663,0.2800493,286.7541,74.24797,179.3615,True
7,1.955559,-0.2403801,-0.4244372,-0.1791314,-1.542865,-4.709025,-1.296117,0.1744461,1.484532,0.3785615,-0.4529845,0.1178947,15.01326,20.91279,-0.1117294,0.002105042,0.3172859,-0.4001448,-0.5518894,2.915682,0.3369704,1.511168,0.3121314,-0.1782464,0.05663661,0.05235288,-1.401699,0.5174204,0.1455956,0.4842246,1.478467,0.2163806,-0.1413649,1.628136,0.278468,286.6534,75.59074,177.3023,True
7,1.966671,-0.2371162,-0.4511241,-0.1928329,-1.537892,1.570354,-1.293348,0.1732133,1.486006,0.3781753,-0.4517142,0.1146152,14.72149,20.78423,-0.1071934,-0.002246693,0.3609264,-0.4057214,-0.5548404,2.919421,0.3357936,1.512006,0.3112891,-0.1833928,0.06409445,0.07156298,-1.400325,0.5180714,0.1476129,0.4833034,1.478556,0.215692,-0.1422192,1.629819,0.2770681,286.5548,77.18862,174.9431,True
7,1.977782,-0.2371171,-0.4511291,-0.1938981,-1.533621,1.566829,-1.290552,0.1720641,1.487404,0.3777754,-0.4510276,0.06126838,14.35013,20.59138,-0.130066,-0.0148804,0.2704803,-0.4058061,-0.5531483,2.920041,0.3344308,1.512734,0.3102915,-0.1800287,0.05985889,0.0896542,-1.398588,0.5185198,0.1494835,0.4824145,1.478531,0.2149847,-0.1432438,1.631685,0.2761462,286.5912,78.75788,172.9853,True
7,1.988893,-0.2404483,-0.4138546,-0.1940593,-1.530972,1.564001,-1.287471,0.1710498,1.488777,0.3773201,-0.4501461,0.07965005,13.97878,20.65567,-0.1302172,-0.004192375,0.2524009,-0.4080703,-0.5549964,2.923312,0.3333233,1.513455,0.309386,-0.1894645,0.03427929,0.1025389,-1.397243,0.5176198,0.1519365,0.4815673,1.478718,0.2142694,-0.1444432,1.633665,0.275807,286.7495,80.22449,171.4993,True
7,2.000004,-0.2436531,-0.4084834,-0.1823639,-1.527213,1.56119,-1.284492,0.169866,1.490183,0.3769319,-0.4493877,0.06819169,13.63395,20.97707,-0.1410132,0.01286229,0.2375987,-0.4101987,-0.5583391,2.928349,0.3320847,1.514207,0.3083277,-0.2087405,0.01615155,0.09210262,-1.396405,0.5171602,0.1552785,0.4805632,1.479048,0.2137694,-0.1457194,1.635621,0.2759925,286.9506,81.41221,170.5508,True
7,2.011115,-0.2254547,-0.4318739,-0.1929449,-1.522986,1.557374,-1.28225,0.1687977,1.492149,0.3775122,-0.448471,0.08290067,13.34218,21.72702,-0.1483976,0.05005066,0.2696879,-0.4138637,-0.5652992,2.93679,0.3308947,1.514917,0.3074098,-0.2343401,0.04701165,0.09124509,-1.395425,0.5184063,0.1585606,0.4795234,1.479148,0.2131612,-0.1469488,1.637464,0.2765677,287.0944,82.11721,170.2106,True
7,2.022226,-0.2105407,-0.4339593,-0.1939971,-1.518924,1.554026,-1.28013,0.1676027,1.493645,0.3771889,-0.4480396,0.03852272,13.18302,23.16263,-0.1388138,0.04264225,0.2653595,-0.4166755,-0.567425,2.939935,0.3297158,1.515827,0.3064103,-0.2344674,0.07471636,0.08165371,-1.394286,0.520296,0.1609769,0.4785019,1.47934,0.2125876,-0.1480896,1.639236,0.2773554,287.1611,82.46231,170.2863,True
7,2.033337,-0.1807476,-0.4177877,-0.1738511,-1.515297,1.551714,-1.278977,0.1663456,1.495134,0.3768723,-0.44839,-0.03262319,13.23607,24.85537,-0.124918,0.002233833,0.2523971,-0.4193637,-0.5652663,2.938907,0.328472,1.516561,0.3054681,-0.2479525,0.0959601,0.01039714,-1.39614,0.522399,0.163921,0.4774246,1.479466,0.2119431,-0.1492331,1.641044,0.2781968,287.1761,83.17566,169.9084,True
7,2.044448,-0.1670242,-0.3793104,-0.1569832,-1.512812,1.549852,-1.277334,0.1650826,1.496502,0.3764589,-0.4481477,0.02220778,13.4748,26.4624,-0.1272808,0.01296107,0.2183506,-0.4204748,-0.5671035,2.942048,0.3272033,1.517343,0.3044381,-0.2304092,0.1129624,-0.04838318,-1.398408,0.5244393,0.165488,0.4762965,1.479609,0.2113504,-0.1504222,1.642972,0.2791349,287.2079,84.26053,169.036,True
7,2.055559,-0.1670858,-0.3601205,-0.1538767,-1.510056,1.547348,-1.275329,0.1637166,1.497828,0.3760457,-0.4486249,-0.04416329,13.87268,27.83372,-0.1421742,0.02567363,0.2291163,-0.4231731,-0.5706269,2.947456,0.3256807,1.518012,0.3035057,-0.2027448,0.1151141,-0.05184309,-1.398881,0.5259261,0.16654,0.4751921,1.479728,0.2107759,-0.1516201,1.644922,0.280038,287.3819,84.99638,168.6565,True
7,2.06667,-0.1670858,-0.3601205,-0.1538767,-1.510056,1.547348,-1.275329,0.1637166,1.497828,0.3760457,-0.4477647,0.07871857,14.35013,28.62653,-0.1421742,0.02567363,0.2291163,-0.4231731,-0.5706269,2.947456,0.3256807,1.518012,0.3035057,-0.2027448,0.1151141,-0.05184309,-1.398881,0.5259261,0.16654,0.4751921,1.479728,0.2107759,-0.1528184,1.646766,0.2807089,287.626,85.34879,168.7026,True
7,2.077781,-0.1758002,-0.3080149,-0.1668804,-1.506114,1.541977,-1.270537,0.1604618,1.50094,0.3751473,-0.4487954,-0.09518351,14.72149,28.71223,-0.2031321,0.03302467,0.1943468,-0.4261404,-0.5741544,2.957315,0.3226219,1.52028,0.3016691,-0.2132339,0.06611293,-0.03676951,-1.398772,0.5259108,0.1717829,0.4729099,1.480111,0.2098377,-0.1536989,1.648211,0.2810289,287.8172,85.42535,168.8861,True
7,2.088892,-0.1768371,-0.3197415,-0.1668221,-1.502722,1.539037,-1.268157,0.1589189,1.502471,0.3748374,-0.4443101,0.41072,14.93369,28.32654,-0.2481509,0.0883269,0.1766332,-0.4267955,-0.5811782,2.967997,0.3208623,1.521287,0.3004873,-0.2359543,0.08096676,-0.07279418,-1.400668,0.5275372,0.1748248,0.471739,1.480349,0.2092707,-0.1543803,1.64922,0.2809768,287.9868,85.47894,168.9344,True
7,2.100003,-0.1778366,-0.3346012,-0.1528961,-1.498711,1.536621,-1.26583,0.1574916,1.50414,0.3744807,-0.4457503,-0.1357222,15.01326,27.55518,-0.2129101,0.2107602,0.2534151,-0.4310459,-0.598746,2.985099,0.3192961,1.522231,0.2995479,-0.2374124,0.09479676,-0.1121985,-1.402773,0.5297225,0.1772099,0.4704198,1.480582,0.2086935,-0.1565966,1.651119,0.2805287,287.8373,86.65327,167.8288,True
7,2.111114,-0.1778366,-0.3346012,-0.1528961,-1.498711,1.536621,-1.26583,0.1574916,1.50414,0.3744807,-0.4452491,0.04683488,14.96021,26.5481,-0.2129101,0.2107602,0.2534151,-0.4310459,-0.598746,2.985099,0.3192961,1.522231,0.2995479,-0.2374124,0.09479676,-0.1121985,-1.402773,0.5297225,0.1772099,0.4704198,1.480582,0.2086935,-0.1589905,1.65319,0.2799678,287.7515,87.85633,166.5288,True
7,2.122225,-0.1425922,-0.3621297,-0.1421305,-1.49437,1.534107,-1.265164,0.1561554,1.505676,0.3741086,-0.4465146,-0.1170632,14.77454,25.62674,-0.1604268,0.2171924,0.3053127,-0.4356948,-0.6067889,2.992398,0.3177392,1.523157,0.2985625,-0.2236365,0.07242353,-0.1229753,-1.404547,0.5300083,0.1790619,0.4690228,1.480878,0.2081771,-0.1606731,1.654851,0.2794768,287.77,88.62273,165.6153,True
7,2.133336,-0.1084765,-0.3694485,-0.1367921,-1.490579,1.531568,-1.26498,0.1546889,1.507134,0.3736458,-0.4433364,0.2905109,14.45623,25.02678,-0.1506362,0.188425,0.323299,-0.4398099,-0.6101723,2.996701,0.3162289,1.523976,0.2978387,-0.2053728,0.05327912,-0.1092792,-1.405124,0.530102,0.1806025,0.467577,1.481184,0.2076759,-0.1611668,1.655635,0.2791317,287.9366,88.72311,165.4164,True
7,2.144447,-0.1096714,-0.3205639,-0.1573191,-1.486367,1.525341,-1.2624,0.1512406,1.510226,0.3730054,-0.443248,0.004215907,14.08488,24.66253,-0.1399694,0.0288656,0.24508,-0.4430142,-0.6022233,2.992708,0.3129014,1.526135,0.2964523,-0.1600506,0.05017768,-0.04898455,-1.404079,0.5310915,0.1825538,0.4647321,1.481925,0.2067697,-0.1619692,1.656476,0.2788095,287.9875,89.49564,164.7313,True
7,2.155558,-0.1192547,-0.3303036,-0.173257,-1.482581,1.521343,-1.260389,0.1493527,1.511514,0.3719633,-0.4411569,0.1900201,13.74005,24.51253,-0.1185565,0.04165775,0.2694839,-0.4466755,-0.6056024,2.996332,0.311157,1.527095,0.2956622,-0.1603229,0.08956748,-0.07458464,-1.405474,0.5337598,0.1838529,0.46321,1.482359,0.2062066,-0.1636721,1.657744,0.2784923,288.0118,90.77588,163.6027,True
7,2.166669,-0.1394551,-0.3475429,-0.2008484,-1.479432,1.517103,-1.257728,0.1473406,1.512813,0.3717713,-0.4391121,0.1838916,13.50132,24.53396,-0.08554249,0.08114149,0.288541,-0.4499901,-0.6133294,3.003129,0.3091949,1.528221,0.2946575,-0.1485952,0.1108782,-0.07258803,-1.406033,0.5358171,0.184703,0.461777,1.48269,0.2056048,-0.1667874,1.659781,0.2782916,288.0086,92.29582,162.1772,True
7,2.17778,-0.1020985,-0.3676295,-0.1943886,-1.475476,1.513729,-1.257505,0.1455694,1.514143,0.3715153,-0.4364229,0.242809,13.3687,24.46968,-0.06866084,0.1312609,0.2864336,-0.4528274,-0.6215954,3.010678,0.3072219,1.529202,0.2935407,-0.1324371,0.05125019,-0.06098907,-1.406576,0.5344434,0.1855187,0.4600987,1.482974,0.2050872,-0.1699331,1.661584,0.2783561,288.1009,92.94196,161.6388,True
7,2.188891,-0.02963875,-0.3714405,-0.1454287,-1.471169,1.512221,-1.25928,0.1439054,1.515097,0.3707318,-0.4336052,0.2540182,13.34218,24.19113,-0.09404525,0.1368547,0.1427808,-0.4491943,-0.6241162,3.014993,0.3052474,1.529866,0.2926221,-0.180697,0.006428786,-0.09885786,-1.409377,0.5333052,0.1893353,0.4585167,1.4833,0.204535,-0.1727709,1.662867,0.2785881,288.1591,93.54187,161.3007,True
7,2.200002,-0.0052261,-0.3447377,-0.1477003,-1.468827,1.509704,-1.259845,0.1420468,1.516066,0.3702729,-0.43365,-0.007731938,13.3687,23.67688,-0.08751389,0.1751216,0.1854539,-0.4524274,-0.6324841,3.023281,0.303439,1.530709,0.2915697,-0.1783836,0.02774031,-0.07866611,-1.409605,0.5343332,0.1909803,0.4567929,1.483667,0.2040396,-0.1752936,1.663704,0.2790255,288.076,94.4058,160.6235,True
7,2.211113,-0.01814927,-0.3086115,-0.1584966,-1.467438,1.507062,-1.258543,0.140087,1.517083,0.3698633,-0.4332058,0.03891763,13.39523,22.92693,-0.1128624,0.1409104,0.2046927,-0.4553835,-0.6342785,3.026892,0.3013777,1.531489,0.2906504,-0.1493555,0.06081647,-0.04807114,-1.408732,0.5360994,0.1912975,0.4550771,1.48409,0.2034705,-0.1774642,1.664074,0.2795871,288.009,95.14503,160.1929,True
7,2.222224,-0.04390718,-0.2522283,-0.1566031,-1.467064,1.50528,-1.256801,0.1378017,1.517808,0.3694541,-0.4295082,0.3355794,13.42175,22.00557,-0.1387333,0.1728728,0.168703,-0.4556988,-0.640872,3.035104,0.2992304,1.532313,0.2898924,-0.1001153,0.08111265,-0.02299456,-1.407984,0.5375226,0.1902661,0.4531752,1.484658,0.2030079,-0.1794926,1.663914,0.2800041,288.0212,95.51527,160.2458,True
7,2.233335,-0.04825565,-0.2266538,-0.1524521,-1.466017,1.503365,-1.255846,0.13567,1.518628,0.3690374,-0.4247273,0.4322212,13.42175,21.08421,-0.1083242,0.2295474,0.1175205,-0.4546687,-0.6511623,3.044615,0.2969504,1.533088,0.2890108,-0.08814434,0.05770477,0.001412351,-1.407207,0.5372192,0.1908813,0.4512575,1.485119,0.2024436,-0.1818654,1.663481,0.2802172,287.8793,95.85454,160.1269,True
7,2.244446,-0.03975611,-0.2119032,-0.1877405,-1.464614,1.498839,-1.2558,0.1338788,1.519616,0.3685553,-0.4213206,0.3060963,13.31565,20.16284,-0.07956089,0.2009115,0.1023636,-0.4552136,-0.6541479,3.047072,0.2946919,1.533863,0.2881553,-0.1038537,0.06409952,0.02924086,-1.406107,0.5378081,0.1924107,0.4492615,1.485442,0.2019575,-0.184727,1.663075,0.2803029,287.5106,96.31782,159.7084,True
7,2.255557,-0.009849146,-0.2363247,-0.1919083,-1.46205,1.495594,-1.256317,0.1318863,1.520114,0.3682232,-0.4194548,0.1664023,13.12997,19.28434,-0.1073084,0.1923328,0.08866245,-0.4556663,-0.6579125,3.052498,0.2922829,1.534217,0.2873287,-0.1164036,0.08647987,0.0559766,-1.404267,0.5392485,0.1938981,0.4473176,1.485811,0.2013485,-0.1879046,1.662841,0.280328,287.0737,96.74667,159.2936,True
7,2.266668,0.02001035,-0.2447277,-0.1876276,-1.459802,1.49283,-1.257232,0.1299265,1.520708,0.3678534,-0.4180252,0.1274944,12.83819,18.49153,-0.1042951,0.2541306,0.09197547,-0.4562245,-0.669682,3.064339,0.2899066,1.534718,0.2865522,-0.1461515,0.1024403,0.06475839,-1.403148,0.5408435,0.1960979,0.4452431,1.486236,0.2008379,-0.1910519,1.662748,0.2803422,286.6876,97.42057,158.6728,True
7,2.277779,0.07544746,-0.2551119,-0.1695016,-1.457118,1.490738,-1.259634,0.1276481,1.521058,0.36759,-0.4157258,0.2071746,12.49337,17.89158,-0.07343445,0.3053093,0.1121554,-0.4578448,-0.68154,3.074601,0.2876871,1.535118,0.2857995,-0.1278677,0.08862853,0.08057013,-1.401832,0.5411778,0.1966936,0.4431755,1.486679,0.2003417,-0.1939299,1.662682,0.2805077,286.5039,98.48093,157.663,True
7,2.28889,0.09892114,-0.2453028,-0.1355231,-1.4547,1.489003,-1.261774,0.1258205,1.521884,0.3673513,-0.4131308,0.2333004,12.30769,17.80587,-0.0791548,0.2426687,0.01509561,-0.4546767,-0.6823115,3.076485,0.2855053,1.535567,0.2852051,-0.06791092,0.07378107,0.1098439,-1.399588,0.5409241,0.1953088,0.4409824,1.487154,0.1998322,-0.1965151,1.662468,0.2808826,286.529,99.25948,156.987,True
7,2.300001,0.1052338,-0.2131259,-0.1026382,-1.454125,1.489081,-1.263204,0.1236964,1.522458,0.3685007,-0.4114935,0.145612,12.12201,17.913,-0.05475472,0.1821357,-0.03313866,-0.4527001,-0.681852,3.075979,0.2832207,1.536229,0.2846491,-0.05511331,0.08764054,0.11077,-1.398204,0.5420966,0.1950624,0.4388085,1.487687,0.1993628,-0.1990151,1.662067,0.2814067,286.599,99.65783,156.7826,True
7,2.311112,0.09222595,-0.1482213,-0.1103875,-1.455174,1.487664,-1.263472,0.1210119,1.52223,0.3684044,-0.4081662,0.3008344,11.93634,17.99871,-0.04515718,0.1417298,-0.05246735,-0.4514596,-0.6821136,3.076379,0.280895,1.536774,0.2840047,-0.06683831,0.1068082,0.111929,-1.39665,0.5437241,0.1959855,0.4367734,1.488198,0.1988428,-0.2016378,1.661368,0.2819805,286.6267,99.92015,156.759,True
7,2.322223,0.09949878,-0.09275739,-0.1010577,-1.456329,1.487193,-1.264767,0.1187658,1.522165,0.3681288,-0.4040266,0.3737031,11.67109,17.97729,-0.05918549,0.1353757,-0.08435724,-0.4493999,-0.6851237,3.080397,0.2783799,1.537003,0.2832849,-0.06564367,0.09616846,0.1236355,-1.394921,0.5441417,0.1965346,0.4346443,1.488661,0.1983874,-0.2044068,1.660368,0.282566,286.395,100.411,156.3426,True
7,2.333334,0.1080364,-0.08304921,-0.0776999,-1.455356,1.486355,-1.266678,0.1167993,1.522433,0.3679059,-0.399986,0.3643917,11.45889,18.08442,-0.08821701,0.2715847,-0.05829114,-0.4493477,-0.7027875,3.098275,0.2758975,1.537074,0.2826962,-0.05620505,0.06208015,0.1043934,-1.394512,0.5436655,0.1968534,0.4323968,1.489056,0.1979496,-0.2074316,1.659207,0.2832907,286.077,100.6475,156.0133,True
7,2.344445,0.1145458,-0.1159718,-0.06050577,-1.45301,1.485549,-1.267946,0.1142356,1.52232,0.3678105,-0.3980552,0.1717662,11.29973,18.08442,-0.07544461,0.3078023,-0.04017361,-0.4493264,-0.7135277,3.108356,0.2734329,1.537308,0.2821815,-0.06079024,0.04499347,0.06822462,-1.395014,0.5435727,0.1976444,0.4300439,1.489433,0.1975224,-0.2107642,1.657979,0.2841207,285.7375,100.4093,156.3771,True
7,2.355556,0.1199568,-0.1393605,-0.05401056,-1.450872,1.484458,-1.269328,0.1119159,1.522529,0.3676879,-0.3961633,0.1699518,11.22016,17.95586,-0.04788448,0.3090068,-0.06270719,-0.4477152,-0.7214051,3.114936,0.2710392,1.537822,0.2818394,-0.04482117,0.03755871,0.06594348,-1.394308,0.5438038,0.1975022,0.4277508,1.489805,0.1970596,-0.2140339,1.656607,0.2849154,285.2983,100.2331,156.8459,True
7,2.366668,0.1295436,-0.1447005,-0.06464396,-1.449602,1.48286,-1.27068,0.1094323,1.522612,0.3675699,-0.3929766,0.2881954,11.11406,17.54875,-0.0127185,0.230379,-0.1035901,-0.4448693,-0.7200362,3.112504,0.2686796,1.53863,0.2813189,-0.006424546,0.0397173,0.07089525,-1.393357,0.5439734,0.1962076,0.4254317,1.490327,0.1967139,-0.2171485,1.655103,0.2855205,284.9316,100.6994,156.7006,True
7,2.377779,0.1507148,-0.1052665,-0.06801607,-1.449465,1.482167,-1.272984,0.106836,1.522469,0.3661959,-0.3905217,0.2203035,10.95491,16.71309,-0.02819574,0.08968347,-0.09317856,-0.4444507,-0.7102621,3.104488,0.2661547,1.539191,0.2805591,0.02006269,0.07382669,0.05783107,-1.392815,0.5460229,0.1946981,0.4231468,1.49098,0.1962955,-0.2203,1.653561,0.2858501,284.6711,101.4695,156.1371,True
7,2.38889,0.175192,-0.09985013,-0.06378066,-1.448529,1.481537,-1.275503,0.1043243,1.522811,0.3657506,-0.3881275,0.2154935,10.90185,16.02742,-0.06786814,0.1832932,-0.08632191,-0.4436044,-0.7225771,3.117937,0.2633757,1.539694,0.2800205,0.02954098,0.09619139,0.04812929,-1.392377,0.5477433,0.1937585,0.4208737,1.491587,0.195864,-0.2234937,1.65208,0.2859302,284.379,102.3175,155.3318,True
7,2.400001,0.1976244,-0.1178948,-0.06584025,-1.446838,1.48017,-1.27835,0.1017407,1.523369,0.3655181,-0.3868114,0.1173505,10.8488,15.59888,-0.06259477,0.2865344,-0.04243086,-0.4444875,-0.7396725,3.133757,0.2607314,1.540286,0.279556,0.02210664,0.1121718,0.05138054,-1.391379,0.5494847,0.1934459,0.4184858,1.492212,0.1953814,-0.2267597,1.650741,0.2858364,284.0899,102.7725,154.9322,True
7,2.411112,0.2063582,-0.1679703,-0.06564884,-1.442753,1.47778,-1.281039,0.09976402,1.524345,0.365098,-0.3851884,0.1463187,10.74271,15.40604,-0.07258569,0.2919852,-0.106286,-0.4410525,-0.7473831,-3.141307,0.2580064,1.54057,0.2789485,0.01292251,0.05465654,0.08879443,-1.389492,0.5474826,0.1939546,0.4160873,1.492815,0.1949794,-0.2300446,1.649511,0.2854554,283.8227,102.8244,155.0402,True
7,2.422223,0.1893731,-0.1873294,-0.09324218,-1.440683,1.475172,-1.282266,0.09687674,1.524863,0.365036,-0.3839101,0.1146355,10.58355,15.27748,-0.08302553,0.2886693,-0.07214384,-0.4412107,-0.7535856,-3.13436,0.2553596,1.541253,0.2786362,0.006849855,0.02165181,0.1187012,-1.387456,0.5461432,0.1941514,0.4135288,1.493479,0.1945963,-0.2333314,1.648402,0.2848567,283.5555,103.495,154.3177,True
7,2.433334,0.1732766,-0.1532787,-0.08912652,-1.440397,1.474187,-1.283541,0.09421912,1.525493,0.3649154,-0.382407,0.1356108,10.39788,15.53461,-0.05053961,0.266216,0.004311725,-0.4439282,-0.7590664,-3.129956,0.2526965,1.542105,0.2781584,-0.003716622,0.02697659,0.128385,-1.385602,0.5462796,0.1945402,0.4109823,1.494145,0.1942112,-0.2365642,1.647421,0.2842274,283.3004,104.8704,152.7589,True
7,2.444445,0.1519034,-0.1362112,-0.06787404,-1.439511,1.474085,-1.284265,0.09160152,1.525961,0.3648844,-0.3796922,0.246291,10.29178,15.96315,-0.1115639,0.1810304,-0.09034388,-0.4397736,-0.7572984,-3.128345,0.2498249,1.542918,0.2777474,0.01686998,0.02702319,0.1644014,-1.382771,0.5462084,0.193603,0.408347,1.4949,0.193948,-0.2396601,1.646574,0.2837482,283.1284,106.7951,150.6599,True
7,2.455556,0.1180052,-0.1917444,-0.07186685,-1.436019,1.472024,-1.284244,0.0888305,1.526834,0.3648553,-0.3783649,0.1187787,10.26525,16.47739,-0.1189415,0.2288537,-0.05290164,-0.4401002,-0.7666095,-3.118237,0.2469272,1.543632,0.2774134,0.04561139,0.04516206,0.1630493,-1.380828,0.5469442,0.1919535,0.4057721,1.49569,0.1937158,-0.2429262,1.646047,0.2836285,283.0007,107.9458,149.3251,True
7,2.466667,0.09677864,-0.2429576,-0.0748415,-1.432502,1.469513,-1.283148,0.08673325,1.527017,0.3648386,-0.3769151,0.1312991,10.29178,17.05592,-0.07307902,0.2619591,-0.02646431,-0.4411026,-0.7764918,-3.11015,0.2440655,1.544069,0.2770257,0.06046358,0.07926345,0.1596764,-1.379039,0.5487108,0.1905524,0.4032675,1.496382,0.1935055,-0.2461451,1.645801,0.2838876,282.8101,108.1142,149.1355,True
7,2.477778,0.05970491,-0.3037823,-0.06921788,-1.427443,1.467394,-1.282203,0.08400759,1.528039,0.3647819,-0.3757816,0.1022362,10.34483,17.48446,-0.07128179,0.3227433,-0.05189857,-0.4397582,-0.7897016,-3.097697,0.2411185,1.544649,0.2767651,0.07851982,0.1027181,0.1552238,-1.377159,0.5504665,0.1886658,0.4007373,1.497116,0.1933103,-0.2492258,1.645785,0.284382,282.6746,108.3068,149.1389,True
7,2.488889,0.04387974,-0.3464487,-0.06686482,-1.422611,1.465558,-1.282057,0.08098963,1.529397,0.3645079,-0.3743265,0.1320876,10.5305,18.06299,-0.08514382,0.2748243,-0.0774916,-0.438074,-0.7931344,-3.092931,0.238366,1.545604,0.2763627,0.1167035,0.07716154,0.1357079,-1.376365,0.5501706,0.1863206,0.3981842,1.497887,0.1930583,-0.2521419,1.645968,0.2850041,282.6924,109.3521,148.3817,True
7,2.5,0.04814515,-0.3464,-0.05941018,-1.419108,1.464101,-1.282502,0.07845548,1.530297,0.3643672,-0.3740767,0.02161108,10.82228,18.55582,-0.09407773,0.1915395,-0.01051521,-0.4402578,-0.791072,-3.093435,0.2357473,1.546537,0.2759387,0.145335,0.02709912,0.1162934,-1.376089,0.5486982,0.1839501,0.3956375,1.498742,0.192883,-0.2546715,1.646231,0.2857002,282.7734,110.5195,147.4839,True
7,2.511111,0.05995206,-0.350594,-0.0445586,-1.414783,1.46213,-1.284141,0.07615688,1.531798,0.3640802,-0.3746705,-0.05452358,11.14058,18.8558,-0.11062,0.08702333,0.01916499,-0.4412917,-0.785301,-3.096945,0.2330333,1.547373,0.2752917,0.1334607,0.02281324,0.09936554,-1.375488,0.548694,0.1829368,0.393124,1.499519,0.1927159,-0.2573833,1.646914,0.2863305,282.8402,111.6637,146.6474,True
7,2.522222,0.04390195,-0.3336629,-0.05846056,-1.412231,1.460289,-1.283751,0.07304552,1.532579,0.3639555,-0.3750796,-0.037059,11.37931,18.9415,-0.1247927,0.1711686,0.008793712,-0.4411436,-0.7970708,-3.084539,0.2299854,1.54802,0.2747707,0.07251682,0.07388538,0.07965859,-1.374722,0.551323,0.1836162,0.3905668,1.500455,0.1926084,-0.2603045,1.647979,0.2867492,282.9603,112.4923,146.1196,True
7,2.533333,0.01823717,-0.3071641,-0.06708868,-1.41006,1.458518,-1.28281,0.0700812,1.533612,0.3637252,-0.3761177,-0.09483656,11.53846,19.09149,-0.1222732,0.3012527,-0.03672048,-0.4395521,-0.8158274,-3.066215,0.2269268,1.549108,0.2741766,0.04477707,0.114342,0.07882248,-1.373387,0.5538331,0.1835682,0.3879863,1.50133,0.1924081,-0.2630223,1.649079,0.2869106,283.1096,112.9976,145.7977,True
7,2.544444,-0.0008644015,-0.3306611,-0.06376579,-1.405798,1.456803,-1.281773,0.06697068,1.534724,0.3635359,-0.3739073,0.2026845,11.61804,19.15577,-0.128581,0.2980078,-0.02390821,-0.4399595,-0.8228419,-3.058325,0.2238316,1.550038,0.2735989,0.04157437,0.1729313,0.0830737,-1.371605,0.5573886,0.1823863,0.3851749,1.502367,0.1922495,-0.2656475,1.650111,0.286838,283.3723,113.6172,145.246,True
7,2.555555,-0.002881698,-0.3659009,-0.08065011,-1.401245,1.453951,-1.281195,0.06412503,1.536008,0.3634233,-0.3729336,0.08709937,11.59151,19.24148,-0.1252784,0.2990363,-0.00581935,-0.4407574,-0.8301345,-3.050447,0.2206751,1.55097,0.2730422,0.1004155,0.1857878,0.110209,-1.369071,0.5595672,0.1789982,0.3824391,1.503335,0.1920407,-0.2685355,1.651089,0.2866408,283.6302,113.9359,144.8676,True
7,2.566666,0.003612973,-0.4032936,-0.1081743,-1.39638,1.450325,-1.280684,0.06138155,1.537251,0.3632367,-0.3727339,0.01767087,11.53846,19.24148,-0.132659,0.3043024,0.01021576,-0.4417236,-0.8383232,-3.04131,0.2176431,1.551724,0.2724195,0.05925331,0.1611868,0.03603643,-1.370978,0.5607333,0.1794792,0.379795,1.504383,0.1918824,-0.2716681,1.652034,0.2863893,283.7548,114.5134,144.2354,True
7,2.577777,0.009094171,-0.452416,-0.1388486,-1.390754,1.445862,-1.280224,0.05872068,1.538624,0.3632627,-0.3733805,-0.05922584,11.48541,18.9415,-0.1787154,0.2893625,-0.0396138,-0.4399356,-0.8452463,-3.031523,0.2145601,1.552486,0.2717044,0.07536276,0.1590813,0.04973755,-1.369861,0.5622788,0.1779415,0.3770806,1.505459,0.1917312,-0.2749482,1.652932,0.2861066,283.8455,115.7719,142.9788,True
7,2.588888,0.002746187,-0.4749345,-0.1653579,-1.385732,1.441718,-1.278942,0.05613706,1.539814,0.3631763,-0.3736346,-0.02267352,11.45889,18.66295,-0.1366034,0.2722383,0.04638121,-0.4432981,-0.84991,-3.02709,0.2115361,1.553597,0.2710989,0.1003503,0.1644614,0.1016931,-1.366555,0.5637094,0.1756016,0.374268,1.506474,0.1916382,-0.2781774,1.653753,0.2858964,283.9434,117.4342,141.3019,True
7,2.599999,-0.03768647,-0.4997872,-0.207927,-1.38061,1.435187,-1.275905,0.05401763,1.541141,0.3633094,-0.3737986,-0.01486025,11.40584,18.42726,-0.09798172,0.2477758,0.07911173,-0.4455809,-0.8538057,-3.023858,0.2083741,1.554494,0.2704995,0.119887,0.2295009,0.1451359,-1.362623,0.5680692,0.1726288,0.3713967,1.50762,0.1915016,-0.2812808,1.654499,0.2858975,284.0794,119.1769,139.5281,True
7,2.61111,-0.0653493,-0.5094562,-0.2046739,-1.375562,1.43131,-1.273524,0.05124041,1.542528,0.3633814,-0.3728921,0.08289688,11.32626,18.19156,-0.1303871,0.2904126,0.02720599,-0.4442888,-0.8647897,-3.011321,0.2051658,1.555144,0.2700398,0.1211375,0.2976912,0.1706361,-1.359184,0.5732154,0.1702439,0.3686708,1.508686,0.1913676,-0.2842708,1.655205,0.2862496,284.2504,120.8568,137.855,True
7,2.622221,-0.08877981,-0.5084515,-0.1993415,-1.370752,1.42762,-1.271241,0.04784641,1.544136,0.3634284,-0.3715259,0.1241987,11.22016,17.99871,-0.1260039,0.2935669,0.04848944,-0.4458611,-0.8721043,-3.003469,0.2020887,1.556258,0.2695889,0.1295906,0.2753183,0.1609837,-1.357458,0.5751461,0.1680926,0.3659122,1.509727,0.1911707,-0.2871144,1.655923,0.2869971,284.3599,122.4003,136.4182,True
7,2.633332,-0.09510843,-0.5243839,-0.1843532,-1.365229,1.424203,-1.269312,0.04513547,1.545764,0.3634942,-0.371699,-0.01666823,11.06101,17.913,-0.05106559,0.207474,0.06595145,-0.447287,-0.870047,-3.007398,0.1988243,1.557065,0.2690768,0.1573993,0.2082379,0.1660983,-1.355525,0.5750175,0.165393,0.3632205,1.510793,0.1910551,-0.2898339,1.656858,0.2882093,284.4135,124.1403,134.8826,True
7,2.644443,-0.1014137,-0.5531821,-0.1863454,-1.359017,1.419953,-1.267055,0.04212421,1.547588,0.3633204,-0.3717208,-0.002070877,10.87533,17.78444,-0.07565284,0.2084986,0.05224502,-0.4474803,-0.8756104,-3.000568,0.1957156,1.557804,0.2686684,0.1670412,0.1826768,0.1702916,-1.353291,0.5758623,0.1631572,0.360555,1.51189,0.1908751,-0.2927829,1.658274,0.2897144,284.5052,125.1813,134.2639,True
7,2.655554,-0.1045721,-0.5649351,-0.1916174,-1.353253,1.415548,-1.264804,0.03955561,1.549373,0.3631792,-0.3716985,0.001670001,10.66313,17.63445,-0.104704,0.252146,0.02695446,-0.4475006,-0.886039,-2.988906,0.1927547,1.558587,0.2683296,0.1798926,0.1805678,0.1765608,-1.350827,0.5776451,0.1602714,0.3578456,1.512929,0.1907911,-0.2960494,1.660151,0.2912561,284.6613,125.6958,134.2969,True
7,2.666665,-0.1130571,-0.5798459,-0.1840798,-1.347308,1.411782,-1.26225,0.03695753,1.55119,0.3630648,-0.3709938,0.06379123,10.4244,17.50589,-0.1242546,0.2118082,-0.05824246,-0.444088,-0.8892657,-2.984097,0.1898345,1.559285,0.2678516,0.189668,0.152877,0.1935325,-1.34812,0.5778769,0.1577542,0.3553447,1.513906,0.1907604,-0.2992026,1.662156,0.2926073,284.895,126.2529,134.2919,True
7,2.677776,-0.1386742,-0.5694012,-0.2107464,-1.342529,1.406672,-1.258694,0.03422511,1.552889,0.3629601,-0.3702311,0.06851943,10.15915,17.39876,-0.1400005,0.2329435,-0.008029878,-0.4462206,-0.8962775,-2.97567,0.1869514,1.560468,0.2672794,0.1896364,0.135833,0.1882176,-1.346021,0.5785968,0.1554197,0.3527496,1.514906,0.1906767,-0.3022624,1.664189,0.2936341,285.1938,127.0654,133.9283,True
7,2.688887,-0.1419458,-0.5502221,-0.207632,-1.338029,1.40275,-1.255972,0.03167126,1.554456,0.3628469,-0.3688531,0.1246324,9.973473,17.42018,-0.1368562,0.2027552,0.1463529,-0.4534218,-0.8968637,-2.973849,0.1841799,1.561723,0.2663956,0.1767113,0.1336761,0.1734317,-1.344362,0.5798283,0.1536639,0.3500533,1.515919,0.1905649,-0.3050385,1.666094,0.2943279,285.4944,127.9891,133.2729,True
7,2.699998,-0.1261038,-0.5074854,-0.1929162,-1.334749,1.399984,-1.254516,0.02925357,1.556024,0.3628154,-0.3670534,0.16262,9.840847,17.54875,-0.1579689,0.2260213,0.1902207,-0.457294,-0.9028822,-2.966015,0.1813562,1.56271,0.2656937,0.1402405,0.140024,0.1471355,-1.343402,0.5816289,0.1529597,0.3476111,1.516961,0.1905892,-0.3076847,1.667906,0.2947188,285.8009,128.9032,132.4909,True
7,2.711109,-0.099375,-0.5405095,-0.213012,-1.328859,1.39484,-1.253088,0.02688017,1.557666,0.3625891,-0.3664126,0.05647479,9.787797,17.72016,-0.1605373,0.373017,0.1937829,-0.4605016,-0.9225278,-2.946348,0.1787769,1.563737,0.2649901,0.09088857,0.174049,0.113486,-1.342723,0.5847353,0.1529129,0.3451069,1.518186,0.1906223,-0.3103537,1.669713,0.2949492,286.0999,129.7888,131.623,True
7,2.72222,-0.06945913,-0.5670787,-0.222496,-1.322827,1.389721,-1.252151,0.02448931,1.559276,0.3626003,-0.3661804,0.01981336,9.814323,17.93443,-0.1592553,0.4208091,0.2556743,-0.4666114,-0.933394,-2.934979,0.1760897,1.564712,0.264384,0.07702146,0.202799,0.1146646,-1.340825,0.5877479,0.1518385,0.3427972,1.519289,0.1906638,-0.3129237,1.671438,0.2951147,286.3584,130.4405,130.9696,True
7,2.733331,0.006154895,-0.5548593,-0.1682393,-1.317231,1.388048,-1.254119,0.02235135,1.560646,0.3624804,-0.3653884,0.0710991,9.8939,18.25584,-0.1390197,0.4591771,0.2748205,-0.4715968,-0.9458155,-2.923055,0.1736961,1.566099,0.2636683,0.1048331,0.1751378,0.1240131,-1.33896,0.5886284,0.1495099,0.3405721,1.520254,0.1906538,-0.3154023,1.673001,0.2952723,286.6215,130.923,130.5226,True
7,2.744442,0.07213204,-0.544834,-0.1236255,-1.312108,1.385928,-1.255996,0.02098611,1.560935,0.3622816,-0.3642805,0.09941706,10.02653,18.47011,-0.1935949,0.2644066,0.131927,-0.4682791,-0.9391797,-2.925197,0.1712193,1.566516,0.2630162,0.1112639,0.1644924,0.1282256,-1.337163,0.5898249,0.1478627,0.3383935,1.521252,0.1907117,-0.3179329,1.674326,0.2955332,287.0307,131.8533,129.663,True
7,2.755553,0.05183965,-0.5332851,-0.1460379,-1.307623,1.381818,-1.254859,0.01880994,1.561756,0.3622301,-0.3645457,-0.02641477,10.15915,18.59867,-0.1918517,0.267761,0.06481448,-0.4670689,-0.9463495,-2.91698,0.1685986,1.567179,0.2626793,0.02498777,0.2240841,0.135386,-1.334762,0.5941626,0.1495945,0.3363632,1.522221,0.1906917,-0.3204998,1.6753,0.2960173,287.3877,132.8124,128.7908,True
7,2.766664,-0.03786866,-0.4697203,-0.155851,-1.3054,1.378673,-1.250381,0.01600727,1.563013,0.3622067,-0.3627422,0.1635429,10.23872,18.57724,-0.1978458,0.3510063,-0.003134623,-0.4670561,-0.9630347,-2.899835,0.1657498,1.567411,0.2623956,-0.04062983,0.293306,0.1870891,-1.330141,0.5992717,0.1510979,0.3342524,1.523067,0.1906762,-0.3227639,1.675525,0.296616,287.6259,133.2079,128.6345,True
7,2.777775,-0.06143434,-0.4248754,-0.1155583,-1.302468,1.377833,-1.248596,0.01381364,1.56382,0.3622484,-0.3581744,0.4147234,10.23872,18.32012,-0.1555689,0.4108599,-0.02881005,-0.4675419,-0.9774595,-2.88665,0.1634445,1.568135,0.2620828,-0.03586145,0.2464802,0.2360824,-1.325758,0.5998558,0.1510417,0.3321309,1.5238,0.1907151,-0.3247461,1.674765,0.2972409,287.7802,133.6709,128.4289,True
7,2.788886,-0.0114096,-0.4085038,-0.06557691,-1.298254,1.377893,-1.250295,0.01152155,1.5647,0.3621871,-0.3524933,0.514744,10.18567,17.93443,-0.1168621,0.2608168,-0.04751018,-0.4660335,-0.9738064,-2.889961,0.1612307,1.568759,0.2617188,-0.005100459,0.2123996,0.218773,-1.323947,0.6005465,0.1496792,0.3299238,1.524523,0.1908047,-0.3274699,1.673747,0.297961,287.6514,135.1523,127.0553,True
7,2.799997,0.03658265,-0.4297922,-0.09746665,-1.29369,1.373957,-1.251385,0.009576768,1.56537,0.362148,-0.3526206,-0.0169007,10.07958,17.54875,-0.1284246,0.1756009,-0.06575412,-0.4644697,-0.9722176,-2.889505,0.1589174,1.569286,0.2612514,0.03927509,0.2092163,0.178939,-1.323066,0.6028271,0.1470337,0.3279047,1.525198,0.1909537,-0.3309914,1.673129,0.2987641,287.1486,137.4753,124.8242,True
7,2.811108,0.05581664,-0.4522815,-0.1378582,-1.28909,1.368933,-1.251345,0.007771581,1.566271,0.3620884,-0.3544374,-0.1667634,9.999999,17.1202,-0.1187826,0.154327,-0.06692633,-0.4640649,-0.975167,-2.885615,0.1567606,1.569871,0.2606268,0.05905165,0.2528775,0.1329078,-1.322496,0.6073891,0.1446557,0.3259971,1.525853,0.1910534,-0.3343608,1.672808,0.2994531,286.7457,139.503,123.0366,True
7,2.822219,0.05381809,-0.4928148,-0.1483249,-1.283239,1.364742,-1.250635,0.005852789,1.56705,0.3621697,-0.3532832,0.1054528,9.8939,16.67023,-0.09330393,0.2204058,-0.04561147,-0.4655078,-0.9853797,-2.876252,0.1544075,1.570102,0.2599897,0.07784714,0.286954,0.09541652,-1.32216,0.6118963,0.142036,0.3241428,1.52649,0.1910748,-0.337292,1.672554,0.2998633,286.7417,140.6213,122.181,True
7,2.83333,0.03692502,-0.5408904,-0.1597813,-1.276175,1.36048,-1.248969,0.003914684,1.567656,0.3618143,-0.3503532,0.2653668,9.814323,16.30598,-0.08345965,0.413974,0.09860979,-0.4743133,-1.005425,-2.857785,0.152148,1.570358,0.2594292,0.1254093,0.3146622,0.05766065,-1.322177,0.6164776,0.1378692,0.3224842,1.526991,0.1911638,-0.3397859,1.672181,0.3001862,287.0447,141.5014,121.3231,True
7,2.844441,0.0261562,-0.5068186,-0.1513774,-1.27209,1.357886,-1.247941,0.00210157,1.56836,0.3614693,-0.3472496,0.280047,9.814323,15.98457,-0.07678761,0.4883688,0.1839736,-0.4810425,-1.018858,-2.845182,0.1501778,1.570841,0.2588134,0.1595618,0.2688783,0.06057562,-1.321043,0.6178035,0.1346505,0.3207491,1.527423,0.1910686,-0.3420699,1.671781,0.3007081,287.3692,142.5652,120.143,True
7,2.855552,0.04617137,-0.4341566,-0.1176286,-1.269959,1.356987,-1.248847,0.0006056428,1.568502,0.3614483,-0.344237,0.2716368,9.867373,15.70602,-0.09501287,0.4681411,0.1542002,-0.4828982,-1.027457,-2.835915,0.1483618,1.571051,0.2583756,0.1531893,0.2262635,0.05853595,-1.320323,0.618929,0.1328614,0.318996,1.527882,0.191051,-0.3443248,1.671422,0.30152,287.6404,143.6533,119.1294,True
7,2.866663,0.08428471,-0.360436,-0.09880905,-1.268717,1.356119,-1.250861,-0.0007079542,1.568384,0.3613169,-0.3424143,0.1631666,9.94695,15.42747,-0.2027679,0.200811,-0.01091908,-0.475224,-1.01759,-2.838409,0.1469173,1.570789,0.2581432,0.1525078,0.1740811,0.09587879,-1.318014,0.6187369,0.1313181,0.3174031,1.528188,0.1909926,-0.3466073,1.67113,0.3024677,287.7756,144.8185,118.3326,True
7,2.877774,0.09372225,-0.3188749,-0.10327,-1.267104,1.353995,-1.251577,-0.002040356,1.568161,0.3613024,-0.3419664,0.0384205,10.02653,15.12749,-0.1545912,0.2200147,0.03890564,-0.4780593,-1.022607,-2.833803,0.1451987,1.570914,0.2581472,0.1499536,0.1826577,0.1640706,-1.313673,0.6206439,0.1292243,0.3158759,1.528604,0.1910133,-0.3487518,1.670895,0.3033554,287.7123,145.6911,117.854,True
7,2.888885,0.1022883,-0.2835063,-0.05342308,-1.263775,1.35335,-1.25425,-0.003354877,1.568527,0.3612125,-0.3411797,0.07019877,10.05305,14.72038,-0.09877327,0.2491717,-0.05297101,-0.4766132,-1.033897,-2.824652,0.1434964,1.570812,0.2583401,0.1394782,0.1645451,0.1812331,-1.310872,0.6217156,0.1276885,0.3144279,1.529016,0.191083,-0.3504767,1.670468,0.3040703,287.6401,145.8359,117.9746,True
7,2.899997,0.1299201,-0.258682,-0.003467273,-1.261132,1.35432,-1.256779,-0.005357176,1.568259,0.3612766,-0.3382257,0.2679048,10.15915,14.1847,-0.05425884,0.2057797,-0.1140639,-0.4735532,-1.037929,-2.821984,0.1418545,1.571042,0.2584677,0.124405,0.1123261,0.1590399,-1.309956,0.6212392,0.1268139,0.3129788,1.529496,0.1912012,-0.3518986,1.669686,0.3046115,287.6828,145.6348,118.3009,True
7,2.911108,0.1628826,-0.2360431,0.03050502,-1.258905,1.355196,-1.259942,-0.007085949,1.568319,0.3612287,-0.3374491,0.06716388,10.26525,13.64902,-0.06771168,0.01938499,-0.1453239,-0.4697198,-1.027032,-2.830449,0.1404572,1.571319,0.2585061,0.1403222,0.06758682,0.1493421,-1.308803,0.6201264,0.1250881,0.3117235,1.529922,0.1912673,-0.3533457,1.668609,0.3050794,287.7505,145.9536,118.006,True
7,2.922219,0.2022097,-0.2133991,0.05060954,-1.257644,1.35577,-1.263425,-0.008547217,1.568224,0.3622782,-0.3350225,0.2202644,10.3183,13.11335,-0.1018815,-0.02324209,-0.1803753,-0.4662082,-1.026105,-2.828845,0.1388906,1.571381,0.2583451,0.1388086,0.09524929,0.1045886,-1.308774,0.6223565,0.1230615,0.3105646,1.530298,0.1913662,-0.3550745,1.66731,0.3054675,287.8204,146.5748,117.4491,True
7,2.93333,0.2052304,-0.1655214,0.03547531,-1.257376,1.355437,-1.265696,-0.009756982,1.567842,0.3622675,-0.3338746,0.1019351,10.34483,12.64195,-0.09661362,0.2364048,-0.05407915,-0.473461,-1.048041,-2.808462,0.1376718,1.571567,0.2581389,0.1833624,0.1293682,0.08709663,-1.308121,0.6251319,0.118871,0.3094325,1.530721,0.1915264,-0.3572823,1.665768,0.3056955,287.7737,147.1177,117.002,True
7,2.944441,0.1912267,-0.1218309,0.04914587,-1.257149,1.356626,-1.267465,-0.01100209,1.567398,0.3622916,-0.3328296,0.09389904,10.4244,12.14913,-0.11232,0.241566,-0.004973054,-0.4761045,-1.053197,-2.802222,0.1364728,1.57159,0.2579858,0.2123442,0.1144865,0.10921,-1.30595,0.6254606,0.1154249,0.3080767,1.531014,0.1917238,-0.3597158,1.663919,0.305757,287.6603,148.1228,115.8977,True
7,2.955552,0.1952857,-0.06088563,0.09468843,-1.257648,1.359959,-1.270574,-0.01229525,1.566705,0.3624353,-0.3306054,0.2018364,10.47745,11.61346,-0.1521263,0.1298829,-0.1275192,-0.4698226,-1.052174,-2.799926,0.1349573,1.571523,0.2581141,0.1304679,0.1133689,0.1248925,-1.303882,0.6263999,0.1162632,0.3069049,1.531429,0.1919668,-0.3620325,1.661745,0.3059045,287.5162,149.3798,114.3117,True
7,2.966663,0.1942646,-0.07587055,0.07984217,-1.256307,1.359961,-1.272725,-0.01379618,1.566327,0.3626456,-0.328445,0.195152,10.47745,11.07778,-0.04161856,0.1345983,-0.1729116,-0.4671733,-1.058156,-2.79761,0.1333301,1.571493,0.2583961,0.08585848,0.1836496,0.1455101,-1.301141,0.6303608,0.115761,0.3056963,1.53194,0.1921015,-0.3640707,1.659402,0.3062098,287.2322,150.854,112.693,True
7,2.977774,0.1911103,-0.08868896,0.07457507,-1.254744,1.360175,-1.274827,-0.01524588,1.566011,0.3628001,-0.3281659,0.02348465,10.39788,10.56353,-0.01937316,0.1027999,-0.2104086,-0.4641373,-1.061344,-2.795181,0.1318994,1.571521,0.2585251,0.1042584,0.2199156,0.1783275,-1.297809,0.6338474,0.112934,0.3044934,1.532328,0.1922343,-0.3658256,1.65711,0.3065567,286.8661,152.2877,111.3254,True
7,2.988885,0.1740523,-0.086633,0.07457416,-1.253361,1.36052,-1.276107,-0.01638696,1.565691,0.3626549,-0.3275928,0.05189924,10.1061,10.09213,-0.02629621,0.1578896,-0.09198548,-0.4680601,-1.066671,-2.789897,0.1308835,1.571727,0.2585449,0.1666399,0.2157443,0.2405995,-1.292929,0.6355141,0.1083968,0.3034369,1.532607,0.1924503,-0.3674258,1.654992,0.306755,286.5763,153.25,110.4865,True
7,2.999996,0.1825291,-0.07583264,0.1000942,-1.252476,1.362522,-1.278732,-0.01738998,1.565196,0.3626788,-0.3268503,0.06711735,9.814323,9.599312,-0.09966944,0.05440491,-0.1237519,-0.4650348,-1.062842,-2.789719,0.130132,1.571678,0.2584922,0.1915729,0.1742426,0.2819464,-1.288552,0.6353331,0.1054364,0.3024057,1.532789,0.1926413,-0.3691653,1.653209,0.3068472,286.5393,154.1853,109.5449,True
7,3.011107,0.2154664,-0.04576074,0.1308361,-1.252134,1.365107,-1.28306,-0.01822227,1.56446,0.3624189,-0.3254511,0.1270492,9.575595,9.170771,-0.06704789,0.07232837,-0.003523562,-0.4689587,-1.06255,-2.790255,0.1294165,1.571612,0.2585883,0.1315699,0.1166372,0.2399376,-1.287264,0.6344663,0.1060455,0.3017609,1.532807,0.192872,-0.370919,1.651749,0.3069103,286.5547,155.0111,108.6499,True
7,3.022218,0.2037856,-0.05961949,0.1383686,-1.250487,1.36659,-1.285129,-0.01927552,1.56386,0.3621831,-0.3257664,-0.03016486,9.389919,8.870793,-0.09762336,-0.008333445,-0.1707855,-0.4611881,-1.062905,-2.78798,0.1282762,1.571112,0.2587152,0.07987058,0.1367899,0.180749,-1.286998,0.636839,0.1060492,0.3009802,1.533079,0.1930213,-0.3724077,1.650542,0.3069148,286.4986,155.6857,107.9705,True
7,3.033329,0.1600354,-0.04394867,0.1031619,-1.250515,1.366438,-1.285349,-0.02036735,1.563234,0.3619812,-0.3269648,-0.1094528,9.257293,8.806512,-0.1313277,0.009921625,-0.274944,-0.4547364,-1.069088,-2.779687,0.1270043,1.570833,0.2590129,0.01205277,0.1910132,0.1088977,-1.28757,0.6410189,0.1068559,0.3004383,1.533174,0.1933544,-0.3734469,1.649424,0.3067603,286.4166,155.7373,107.989,True
7,3.04444,0.1449569,-0.002358697,0.1210558,-1.251906,1.368412,-1.286675,-0.02095842,1.562207,0.3618648,-0.3247949,0.1990234,9.23077,8.892222,-0.1421013,0.1546361,-0.2191397,-0.4568445,-1.084296,-2.764136,0.1260431,1.570928,0.2590292,0.04642184,0.2070413,0.1415956,-1.284649,0.6436734,0.1045056,0.2998537,1.533283,0.193661,-0.3741596,1.648185,0.3063509,286.4128,155.1565,108.6557,True
7,3.055551,0.1704806,0.02257095,0.1976307,-1.251593,1.373695,-1.291138,-0.02218476,1.562008,0.361517,-0.3229663,0.1652251,9.257293,9.063636,-0.1322976,0.007331677,-0.08318531,-0.4584078,-1.070675,-2.775465,0.1256835,1.570565,0.2588286,0.07767318,0.1857934,0.1775423,-1.281242,0.6446714,0.1022193,0.2991568,1.533389,0.1941295,-0.3750137,1.646877,0.3057112,286.4885,154.9695,108.8004,True
7,3.066662,0.1864312,0.03224087,0.2039704,-1.251587,1.376358,-1.294549,-0.0229629,1.561413,0.3611548,-0.3231623,-0.01922842,9.257293,9.277906,-0.1755319,0.03468384,0.005559005,-0.4617703,-1.070868,-2.771922,0.1253309,1.570331,0.2587729,0.1077877,0.1783835,0.2070934,-1.277798,0.6461118,0.09955988,0.2986964,1.533292,0.1944907,-0.3760212,1.645621,0.3049982,286.4847,155.2757,108.2693,True
7,3.077773,0.1981286,0.03867674,0.2050004,-1.251638,1.37893,-1.297977,-0.02349445,1.560675,0.3606296,-0.325222,-0.1879982,9.257293,9.513605,-0.2129634,-0.04198232,-0.05832107,-0.4576392,-1.067732,-2.771007,0.1250057,1.570106,0.2588167,0.1045368,0.1570668,0.1996849,-1.27578,0.6469456,0.09833909,0.2982447,1.533139,0.1948164,-0.3768927,1.644387,0.3042381,286.306,155.5432,107.821,True
7,3.088884,0.1768391,0.0310939,0.1911992,-1.251371,1.380538,-1.299626,-0.02429786,1.56016,0.3603702,-0.3250212,0.01987561,9.177716,9.727876,-0.2365107,-0.04307568,-0.0773586,-0.455857,-1.067294,-2.767956,0.1243502,1.569793,0.2589092,0.01696942,0.1409043,0.06309959,-1.27957,0.6481331,0.1008741,0.2979312,1.532919,0.1951439,-0.3778709,1.643175,0.3032323,286.148,155.5719,107.7889,True
7,3.099995,0.1683245,0.03222865,0.2125104,-1.250957,1.383911,-1.302215,-0.02520844,1.559669,0.3600295,-0.3247682,0.0226148,9.045091,9.877864,-0.2111156,0.04112826,-0.06133508,-0.4572456,-1.075154,-2.759457,0.1236668,1.569786,0.2590394,-0.003031328,0.1631778,-0.02194692,-1.282165,0.6509296,0.1007674,0.2975626,1.5328,0.1953311,-0.3787285,1.641747,0.301984,286.1128,155.5652,107.7163,True
7,3.111106,0.1725278,0.058035,0.2624613,-1.251179,1.389108,-1.305887,-0.02606764,1.559068,0.3596089,-0.3230942,0.1527388,8.912464,9.920717,-0.1507009,0.06803852,-0.09891908,-0.4556306,-1.08111,-2.754681,0.123171,1.569838,0.2589269,0.005742282,0.1897547,-0.1062115,-1.28602,0.6545358,0.09940648,0.2973931,1.532697,0.1955464,-0.3794606,1.640067,0.3006116,286.1265,155.7379,107.2873,True
7,3.122217,0.1852,0.09116116,0.2697467,-1.252903,1.392826,-1.30953,-0.02679864,1.558641,0.3594775,-0.3232215,-0.01298989,8.832892,9.899292,-0.1910502,-0.06407729,-0.1447983,-0.4505365,-1.071854,-2.759196,0.1228702,1.569713,0.2587156,0.02919768,0.1791082,-0.1042928,-1.286674,0.6560147,0.09786984,0.2972117,1.532558,0.1956601,-0.3803511,1.638362,0.2992897,286.103,156.4035,106.268,True
7,3.133328,0.1522489,0.06319539,0.2347358,-1.25233,1.394272,-1.3106,-0.02743271,1.558029,0.3590963,-0.3237259,-0.04589479,8.806365,9.813582,-0.2401033,-0.1376249,-0.1915518,-0.445648,-1.066088,-2.760063,0.1222181,1.568981,0.25859,0.00535031,0.1897909,-0.03376658,-1.284497,0.6582278,0.09791112,0.2968978,1.532773,0.1958756,-0.3813425,1.636705,0.2980097,285.9791,157.0807,105.3682,True
7,3.144439,0.0884074,0.0265204,0.1816731,-1.251263,1.39413,-1.309146,-0.02801552,1.557517,0.3587332,-0.3241323,-0.03683519,8.912464,9.985,-0.2384733,0.08175734,-0.1590834,-0.4482297,-1.084841,-2.740518,0.1215078,1.568726,0.2586374,-0.02810132,0.1962053,0.03579328,-1.281496,0.6604495,0.0988837,0.2965556,1.532801,0.1960506,-0.382299,1.635044,0.2966533,285.7672,157.5697,104.736,True
7,3.15555,0.05008128,0.02002466,0.1870503,-1.250718,1.396482,-1.309183,-0.02870384,1.557164,0.3584726,-0.3222441,0.1728163,9.071617,10.13499,-0.1870979,0.1084227,-0.1049964,-0.4498313,-1.088988,-2.736562,0.120891,1.568571,0.2585304,-0.02700536,0.1643271,0.1497993,-1.275846,0.6606098,0.09912153,0.2960246,1.532846,0.1961527,-0.3832013,1.633402,0.2953015,285.6259,158.0084,104.0415,True
7,3.166661,0.008566588,0.0136272,0.2158712,-1.24977,1.400103,-1.308947,-0.02913681,1.55683,0.3581719,-0.3201013,0.1944752,9.257293,10.13499,-0.1501989,0.0252715,-0.03402588,-0.4506995,-1.080156,-2.74415,0.120892,1.568408,0.2584584,0.005516246,0.1345645,0.2070478,-1.271712,0.6606093,0.09789114,0.2956607,1.532717,0.1962914,-0.3840518,1.631864,0.294107,285.6633,158.8066,102.9608,True
7,3.177772,0.02135177,0.01470804,0.2190819,-1.248612,1.402991,-1.310623,-0.02958503,1.55633,0.3572578,-0.320856,-0.07032078,9.442968,10.00643,-0.1308622,-0.05666186,-0.04924913,-0.4482212,-1.074349,-2.748332,0.1209677,1.568377,0.2582784,0.03550469,0.122882,0.2227525,-1.268766,0.6613361,0.09621096,0.2953915,1.532602,0.1964426,-0.38486,1.6307,0.2931917,285.7063,160.0029,101.531,True
7,3.188883,0.03641036,-0.03657973,0.1724351,-1.246538,1.40281,-1.311635,-0.02954593,1.556185,0.3568089,-0.3205881,0.02547765,9.575595,9.685022,-0.1616014,-0.1366181,-0.0652311,-0.445411,-1.065993,-2.753078,0.1209032,1.567814,0.2580042,0.03758512,0.1014928,0.1023758,-1.271437,0.6620668,0.09545702,0.2955244,1.532267,0.1964803,-0.385486,1.630003,0.2924605,285.6332,160.7152,100.7709,True
7,3.199994,0.0364995,-0.0708523,0.1342608,-1.244373,1.402778,-1.311914,-0.02979162,1.555891,0.3562832,-0.3229029,-0.2117582,9.628648,9.513605,-0.1723567,-0.02489059,-0.0223013,-0.4479629,-1.073431,-2.743953,0.1205379,1.567434,0.2578912,0.02386566,0.108864,0.003435316,-1.274344,0.6638815,0.09520695,0.2954698,1.532056,0.1965384,-0.3857681,1.629691,0.2916428,285.5079,160.7987,100.8914,True
7,3.211105,0.03127475,-0.1050554,0.1131122,-1.241917,1.402582,-1.312037,-0.0299471,1.555852,0.3560293,-0.3235437,-0.05669662,9.628648,9.385041,-0.1425579,0.1209808,0.0492376,-0.4534852,-1.084864,-2.7331,0.1203445,1.567406,0.2578127,0.03908716,0.0917744,-0.0787273,-1.27807,0.6647711,0.09403515,0.2955124,1.531814,0.196579,-0.3858197,1.629555,0.2905823,286.017,161.3166,100.594,True
7,3.222216,0.0355488,-0.1059963,0.1333659,-1.240488,1.404909,-1.313298,-0.03032112,1.555722,0.3559916,-0.3227874,0.06948353,9.628648,9.149346,-0.1158113,0.08377917,0.04899063,-0.4535507,-1.082725,-2.734728,0.1202062,1.567527,0.2578006,0.0410113,0.05446792,-0.1032062,-1.279492,0.6640435,0.09375073,0.295407,1.53171,0.1965775,-0.3857441,1.629571,0.289495,286.315,161.2651,100.4685,True
7,3.233327,0.04401039,-0.08895468,0.1258272,-1.239831,1.406023,-1.31444,-0.03068456,1.555491,0.3557591,-0.3225988,0.01653863,9.655171,8.677952,-0.05910284,-0.08957436,-0.0007605031,-0.4487474,-1.068692,-2.748644,0.1201966,1.567938,0.2576854,-0.007956187,0.04270662,-0.09953783,-1.280464,0.664068,0.09567726,0.2953588,1.531865,0.1964352,-0.3857334,1.629675,0.2885815,286.6107,161.0885,100.3809,True
7,3.244438,0.05982882,-0.05693316,0.1150661,-1.239759,1.407055,-1.315398,-0.03090236,1.55513,0.3555307,-0.3229424,-0.03144803,9.734747,8.335117,-0.04533599,-0.1203557,-0.02967119,-0.4468592,-1.065221,-2.751617,0.1201454,1.568004,0.2574039,-0.01263651,0.06298625,-0.02918615,-1.278311,0.6652652,0.09553451,0.2954057,1.532093,0.1962066,-0.385773,1.629773,0.2879328,286.7987,160.8986,100.3761,True
7,3.255549,0.08223455,-0.05913448,0.09371292,-1.239374,1.407216,-1.31751,-0.03099751,1.554884,0.3552718,-0.323263,-0.02904296,9.920423,8.227983,-0.09494047,-0.1075099,-0.1230934,-0.4420938,-1.067745,-2.746382,0.1198732,1.567743,0.2570317,-0.0184882,0.07899303,0.03052137,-1.275865,0.6663875,0.09563997,0.2953444,1.532198,0.1960218,-0.3859466,1.629733,0.2874891,286.9948,161.1092,100.1451,True
7,3.26666,0.09189219,-0.09971582,0.06081286,-1.237534,1.405432,-1.317681,-0.03070757,1.554381,0.3551388,-0.3231187,0.01336805,10.15915,8.335117,-0.1055428,0.09885509,-0.006424859,-0.4490734,-1.081407,-2.732558,0.1196774,1.567495,0.2567551,-0.02294824,0.1067465,0.1253686,-1.271063,0.668104,0.09553904,0.2952639,1.532235,0.1956987,-0.3862502,1.629449,0.2872129,287.1927,161.7985,99.51786,True
7,3.277771,0.09833322,-0.1157292,0.04917203,-1.235682,1.405279,-1.318915,-0.03085661,1.554308,0.3549869,-0.3244748,-0.1241355,10.4244,8.506535,-0.09813514,0.1286931,0.001056351,-0.450119,-1.085742,-2.727842,0.1196598,1.567356,0.2564878,-0.018217,0.09078807,0.1743473,-1.267601,0.6679558,0.0956208,0.2952211,1.532144,0.1955593,-0.3865829,1.628909,0.2870868,287.281,162.7693,98.59591,True
7,3.288882,0.1088909,-0.08803052,0.04158417,-1.235525,1.405483,-1.320546,-0.03075221,1.553952,0.3548477,-0.3232241,0.1153623,10.66313,8.506535,-0.05311516,0.07020546,0.01663131,-0.4503501,-1.082726,-2.731477,0.1198599,1.567486,0.2561908,-0.02156843,0.01300342,0.1509923,-1.266752,0.665255,0.09675264,0.2953218,1.532063,0.1953685,-0.3869347,1.628157,0.2871307,287.2119,163.7992,97.54129,True
7,3.299993,0.1183812,-0.06148593,0.01697443,-1.235696,1.405246,-1.322089,-0.03082302,1.553732,0.3546553,-0.3235197,-0.02820011,10.82228,8.61367,-0.05874094,-0.08185574,-0.1125936,-0.4428762,-1.074778,-2.737767,0.1198516,1.567245,0.2559977,-0.03073609,0.01614264,0.08290869,-1.267986,0.6656849,0.09730045,0.2953417,1.532057,0.1951706,-0.3872631,1.62729,0.2873807,287.0305,164.9592,96.35434,True
7,3.311104,0.1087048,-0.03817748,-0.004431644,-1.236206,1.40454,-1.322783,-0.03077173,1.553461,0.3545561,-0.3237845,-0.02393752,10.92838,8.892222,-0.050299,-0.05200586,-0.110445,-0.4419111,-1.076708,-2.735739,0.1197917,1.567212,0.2558146,-0.04126877,0.07253315,-0.01291024,-1.271208,0.6688891,0.09722163,0.2955753,1.532093,0.1949804,-0.387663,1.626444,0.2877408,286.8922,166.2467,95.15089,True
7,3.322215,0.1119345,-0.04773528,-0.0001290496,-1.235369,1.404459,-1.32411,-0.03074011,1.553275,0.3544316,-0.3237797,0.0005836315,11.06101,9.320763,0.01687733,-0.008197849,-0.07666425,-0.4432107,-1.080449,-2.734826,0.1196694,1.567206,0.255631,-0.01152162,0.09385993,-0.0195905,-1.271168,0.6708462,0.09570096,0.2956725,1.532112,0.1949353,-0.3880508,1.625651,0.2881104,286.6343,167.4167,94.10454,True
7,3.333326,0.1098969,-0.07654656,-0.008515913,-1.233504,1.403687,-1.325022,-0.03080228,1.553316,0.3542898,-0.3230068,0.07054646,11.16711,9.877864,-0.008551765,-0.005139291,-0.05200289,-0.4432991,-1.079765,-2.734488,0.1196326,1.567049,0.2554231,0.01094784,0.1066696,-0.008090768,-1.270712,0.6725544,0.09419494,0.2956972,1.532148,0.1947718,-0.3884371,1.624942,0.2884455,286.4968,168.5448,93.06888,True
7,3.344437,0.1142401,-0.1031898,-0.01372447,-1.231543,1.402809,-1.326132,-0.03073493,1.553278,0.3541288,-0.3233136,-0.02870053,11.29973,10.43497,-0.008667447,0.04810685,-0.04335817,-0.4440864,-1.085185,-2.729363,0.1197304,1.56705,0.2551925,0.007031146,0.08538691,0.0271206,-1.268957,0.6725091,0.09442158,0.2958716,1.532229,0.1945934,-0.3887147,1.624349,0.2887483,286.3545,169.4465,92.20515,True
7,3.355548,0.1004328,-0.1171513,-0.02321976,-1.229568,1.401944,-1.326473,-0.03056243,1.553091,0.3536522,-0.3231448,0.01572564,11.40584,10.79923,0.0074015,0.01088121,-0.04780066,-0.4428874,-1.083091,-2.731987,0.119885,1.566867,0.2548909,0.01896274,0.04173099,0.04621518,-1.267932,0.6713513,0.09414727,0.2959056,1.532191,0.1943958,-0.388934,1.623888,0.2889719,286.2885,170.1699,91.53442,True
7,3.366659,0.08756721,-0.0916477,-0.02437418,-1.229145,1.401783,-1.326918,-0.03036579,1.553042,0.3533223,-0.3233275,-0.01686661,11.51194,11.05635,-0.01385538,0.005475771,-0.04235892,-0.4425082,-1.083124,-2.73103,0.1200102,1.566903,0.2546902,0.01781277,0.02361318,0.03558419,-1.267928,0.6709225,0.0941028,0.2960286,1.532191,0.1942501,-0.3891362,1.623549,0.2891001,286.3155,170.7565,91.00083,True
7,3.37777,0.08324321,-0.07139233,-0.01807176,-1.228956,1.401725,-1.32768,-0.03034589,1.552996,0.3530991,-0.322569,0.06948475,11.59151,11.27062,-0.01698615,-0.0318016,-0.05095001,-0.4410269,-1.080513,-2.733036,0.119985,1.566984,0.2545383,0.006901303,0.04382748,0.01010982,-1.268524,0.6723411,0.09403569,0.2961152,1.532245,0.1939919,-0.3892729,1.623274,0.2891398,286.3864,171.2287,90.58434,True
7,3.388881,0.08426846,-0.05640248,-0.002160635,-1.228691,1.402166,-1.328779,-0.03034332,1.552963,0.3528714,-0.3223842,0.01632817,11.75066,11.37776,-0.01051269,0.03203272,-0.003963174,-0.4435095,-1.084429,-2.729635,0.1201266,1.567268,0.2543483,-0.01576441,0.06296512,-0.01951976,-1.26965,0.6739897,0.09459361,0.2962996,1.532348,0.1938779,-0.3893188,1.623045,0.289069,286.5621,171.7113,90.19498,True
7,3.399992,0.1034546,-0.03920768,0.02647438,-1.227836,1.402726,-1.331613,-0.03024501,1.55309,0.3525639,-0.3227155,-0.03030271,11.83024,11.37776,0.02159159,0.03526691,0.02141969,-0.4447277,-1.084579,-2.730861,0.12034,1.567516,0.2541463,0.003376585,0.02996137,-0.02499837,-1.269963,0.673221,0.09422397,0.2964239,1.532373,0.193809,-0.3889808,1.623022,0.2890481,286.5533,171.4285,90.47182,True
7,3.411103,0.1375441,-0.03580705,0.04668168,-1.227256,1.40387,-1.334573,-0.03019011,1.55294,0.3521528,-0.3229626,-0.02230817,11.85676,11.37776,0.03249537,-0.03502097,0.02652042,-0.4440299,-1.077762,-2.737827,0.1206004,1.567664,0.2538564,0.01917455,0.007589829,-0.04643897,-1.271299,0.6725814,0.09364659,0.2965895,1.532504,0.1935792,-0.3891895,1.623025,0.2888705,286.8151,171.8215,90.18525,True
7,3.422215,0.157761,-0.02719143,0.05090256,-1.227131,1.404669,-1.337246,-0.03020266,1.552656,0.3517714,-0.3246388,-0.1531097,11.80371,11.35633,-0.004021783,-0.05098368,-0.03082712,-0.4413529,-1.077714,-2.736453,0.1207369,1.567619,0.2536237,0.001221807,0.006521513,-0.02920623,-1.270746,0.6727214,0.09428789,0.2967265,1.532805,0.1934123,-0.3892932,1.622986,0.2885977,286.9588,171.9205,90.08488,True
