ref,t,emg1,emg2,emg1raw,emg2raw,aDotS,bDotS,gDotS,aS,bS,gS,aDotSH,bDotSH,gDotSH,aSH,bSH,gSH
90,0,485,159,468,495,0.2684069,1.103204,0.6506401,-1.461187,3.012596,-0.1662777,-0.3302431,-0.9301543,0.1309061,-0.3071988,2.962122,2.79953
90,0.01111111,485,159,468,495,0.2063395,1.091981,0.6474864,-1.462446,3.016515,-0.1537853,-0.3132522,-0.890219,0.1247064,-0.3026022,2.939044,2.825824
90,0.02222222,485,159,468,495,0.1723285,1.060779,0.6261598,-1.464282,3.019989,-0.1422618,-0.2920381,-0.9063797,0.08747122,-0.2988541,2.908836,2.859714
90,0.03333334,485,159,468,495,0.1681046,1.037286,0.6030601,-1.466668,3.023591,-0.1306371,-0.2395177,-0.8761358,0.01544026,-0.2977425,2.88058,2.890657
90,0.04444445,504,140,518,500,0.1595228,1.011186,0.5790799,-1.468654,3.027014,-0.1195211,-0.2408767,-0.8737018,0.08579448,-0.2923821,2.852943,2.92092
90,0.05555556,504,140,518,500,0.1360619,0.9856251,0.5690637,-1.470214,3.031015,-0.1087443,-0.2397836,-0.8223571,0.1007349,-0.2884976,2.830941,2.945711
90,0.06666667,504,140,518,500,0.08888996,0.950866,0.5624863,-1.470853,3.035117,-0.09853803,-0.2400591,-0.8291811,0.09082574,-0.2855921,2.802431,2.977669
90,0.07777778,504,140,518,500,0.03351593,0.9213814,0.5546892,-1.470674,3.039395,-0.08853945,-0.2078024,-0.7860054,0.1274277,-0.281674,2.77825,3.003629
90,0.08888889,504,140,518,500,-0.0060969,0.9031371,0.5340477,-1.470142,3.043316,-0.07874168,-0.1813558,-0.7377002,0.1299859,-0.2790002,2.756084,3.027491
90,0.1,599,128,481,499,-0.06939369,0.8521457,0.4995202,-1.468342,3.047029,-0.0704225,-0.1694769,-0.6921232,0.09858507,-0.2777054,2.735439,3.050381
90,0.1111111,599,128,481,499,-0.1089479,0.8144534,0.469871,-1.466712,3.050302,-0.06226684,-0.1767867,-0.6926839,0.07853645,-0.2762438,2.709995,3.079123
90,0.1222222,599,128,481,499,-0.1787398,0.7587749,0.4271351,-1.463306,3.053296,-0.05522757,-0.1931459,-0.6754544,0.07165647,-0.2745213,2.687505,3.105028
90,0.1333333,599,128,481,499,-0.2680462,0.6853866,0.3642517,-1.458392,3.055422,-0.04964026,-0.2037621,-0.6463575,0.09328407,-0.2722187,2.667084,3.128429
90,0.1444445,598,150,491,494,-0.3093207,0.6506889,0.3296083,-1.454606,3.057738,-0.04321192,-0.1894446,-0.6290311,0.1451601,-0.2689244,2.644488,-3.130338
90,0.1555556,598,150,491,494,-0.3456861,0.5910835,0.2986474,-1.4502,3.06009,-0.03815458,-0.168754,-0.6138304,0.2159078,-0.2646511,2.621271,-3.105953
90,0.1666667,598,150,491,494,-0.359005,0.5530513,0.2787012,-1.446688,3.062403,-0.03292466,-0.1528057,-0.5965486,0.2319544,-0.2619267,2.597682,-3.080833
90,0.1777778,598,150,491,494,-0.3697599,0.4968627,0.2484906,-1.44258,3.064296,-0.02893471,-0.1353659,-0.5321074,0.2235543,-0.2597631,2.582374,-3.064393
90,0.1888889,598,150,491,494,-0.3647121,0.4390756,0.217591,-1.439139,3.065856,-0.0255003,-0.1126393,-0.4859371,0.1866063,-0.2590877,2.567168,-3.048118
90,0.2,714,153,484,501,-0.3356361,0.3934106,0.1967227,-1.436468,3.067394,-0.02220118,-0.1044338,-0.447332,0.1450864,-0.2587261,2.553258,-3.032745
90,0.2111111,714,153,484,501,-0.3006647,0.3536689,0.1737143,-1.434073,3.068807,-0.0192227,-0.09854832,-0.4137842,0.1030737,-0.2586675,2.539419,-3.017202
90,0.2222222,714,153,484,501,-0.2713824,0.3356254,0.1634675,-1.432109,3.070149,-0.01584528,-0.08789343,-0.3905774,0.08177078,-0.258643,2.526107,-3.002652
90,0.2333333,714,153,484,501,-0.2415218,0.3006686,0.1438783,-1.430419,3.070974,-0.01353632,-0.08439294,-0.3645208,0.03585836,-0.2596934,2.514911,-2.989773
90,0.2444444,714,153,484,501,-0.2209055,0.2654399,0.1311155,-1.428699,3.072022,-0.01149633,-0.07069471,-0.3464646,0.0205486,-0.2603155,2.503304,-2.977123
90,0.2555556,791,164,452,498,-0.1646768,0.2017236,0.1145583,-1.42846,3.072763,-0.01087795,-0.04464452,-0.2662025,-0.02646545,-0.2617621,2.500605,-2.974123
90,0.2666667,791,164,452,498,-0.1040744,0.1630813,0.1047254,-1.428937,3.073412,-0.009872871,-0.03865992,-0.1416478,-0.1908178,-0.267367,2.512146,-2.984017
90,0.2777778,791,164,452,498,-0.04572293,0.1436222,0.1031495,-1.429944,3.074175,-0.008654208,0.06738067,-0.2414911,-0.1384638,-0.2701367,2.490858,-2.965355
90,0.2888889,791,164,452,498,-0.003157571,0.1259671,0.1076298,-1.431001,3.075205,-0.007805192,0.03747725,-0.2113174,0.1636301,-0.2596145,2.472618,-2.948819
90,0.3,810,160,491,500,0.0525416,0.1078106,0.1113357,-1.43326,3.076132,-0.00707229,-0.01412902,-0.1331678,0.1179012,-0.2592502,2.476431,-2.951388
90,0.3111111,810,160,491,500,0.08501942,0.09056222,0.1113052,-1.434939,3.077015,-0.006497048,-0.04599611,-0.09363852,0.0883323,-0.2594877,2.478478,-2.951923
90,0.3222222,810,160,491,500,0.1000759,0.07267546,0.1047333,-1.436574,3.077762,-0.006199306,-0.05211625,-0.04372805,0.04437101,-0.2597882,2.482949,-2.955652
90,0.3333333,810,160,491,500,0.1235232,0.04396985,0.09209613,-1.438546,3.07812,-0.006470416,-0.03286659,-0.02017159,0.007970843,-0.2605562,2.484388,-2.957168
90,0.3444445,810,160,491,500,0.1254172,0.03430233,0.0776691,-1.439895,3.078229,-0.00624458,-0.02292817,-0.01562744,-0.003045642,-0.2609014,2.484615,-2.957343
90,0.3555556,890,151,454,501,0.1062532,0.03856669,0.0672631,-1.440654,3.07853,-0.005709285,-0.01584828,-0.01237414,-0.003742518,-0.2607757,2.483176,-2.955838
90,0.3666667,890,151,454,501,0.07580749,0.0278898,0.05346745,-1.440774,3.078789,-0.005681055,-0.02301326,0.0008869842,-0.006376166,-0.2604913,2.484975,-2.957394
90,0.3777778,890,151,454,501,0.03915267,-0.007751126,0.03969291,-1.440338,3.079048,-0.006638195,-0.02877974,-0.003727203,0.001161706,-0.2601999,2.484695,-2.956671
90,0.3888889,890,151,454,501,0.0180211,-0.02755864,0.03865663,-1.440188,3.079648,-0.007473895,-0.008401289,-0.001979089,0.03259285,-0.2591266,2.482965,-2.955724
90,0.4,795,156,473,507,-0.003838364,-0.05026256,0.0348991,-1.439682,3.080156,-0.008666991,0.009397581,0.0199481,0.0448772,-0.2583469,2.484449,-2.958116
90,0.4111111,795,156,473,507,-0.01301946,-0.04886225,0.03074335,-1.439269,3.080429,-0.009170862,0.001523931,0.03119516,0.03233664,-0.2581541,2.487535,-2.961025
90,0.4222222,795,156,473,507,-0.01550551,-0.04149365,0.02394129,-1.439056,3.080568,-0.009391904,-0.01308566,0.03449056,0.01514998,-0.2581732,2.489625,-2.962557
90,0.4333333,795,156,473,507,-0.01754047,-0.03244007,0.0131036,-1.438699,3.080435,-0.009489908,-0.0217294,0.02823875,-0.005132134,-0.2586467,2.491205,-2.963555
90,0.4444444,795,156,473,507,-0.02181714,-0.04210412,0.004630862,-1.438403,3.080445,-0.01029418,-0.0216621,0.03533643,0.00028315,-0.2582915,2.493583,-2.965929
90,0.4555556,731,163,468,497,-0.02062945,-0.05611982,0.004785668,-1.438233,3.080656,-0.01133122,-0.009619866,0.03477197,0.02021767,-0.2575953,2.49411,-2.966854
90,0.4666667,731,163,468,497,-0.02090714,-0.06851757,0.008231265,-1.438059,3.081011,-0.01247478,0.005571391,0.04253063,0.03424457,-0.2568427,2.49533,-2.968829
90,0.4777778,731,163,468,497,-0.02001579,-0.07094442,0.01007462,-1.437869,3.08129,-0.01325881,0.01673349,0.04832636,0.03764678,-0.2563548,2.496883,-2.971085
90,0.4888889,731,163,468,497,-0.0120177,-0.06027205,0.005023713,-1.438061,3.081201,-0.01355655,0.02106649,0.05563116,0.02766585,-0.2563623,2.499702,-2.974317
90,0.5,690,187,470,489,0.007022195,-0.04886894,-0.00300434,-1.438607,3.080876,-0.0138495,0.01572078,0.06182684,0.01130727,-0.2565359,2.503247,-2.977983
90,0.5111111,690,187,470,489,0.03042935,-0.04412904,-0.001839196,-1.439597,3.080863,-0.01422235,0.01862533,0.06242559,0.007581748,-0.2564699,2.505696,-2.980745
90,0.5222223,690,187,470,489,0.05511733,-0.0434434,-0.002338709,-1.440659,3.080624,-0.01482901,0.01082652,0.07276504,-0.01913523,-0.2571959,2.510784,-2.985704
90,0.5333334,690,187,470,489,0.06497437,-0.04725537,-0.00409981,-1.441623,3.080495,-0.01545486,0.009039108,0.0650745,-0.02602224,-0.2575969,2.513225,-2.988138
90,0.5444446,690,187,470,489,0.08467735,-0.05488486,-0.007641366,-1.442968,3.08025,-0.01634116,0.02612952,0.05889408,-0.01141199,-0.2573658,2.514399,-2.990231
90,0.5555557,688,181,509,501,0.09242808,-0.05540609,-0.01029464,-1.444122,3.079948,-0.01698671,0.02601372,0.05611791,0.01472282,-0.2565476,2.5154,-2.991788
90,0.5666668,688,181,509,501,0.094401,-0.0501318,-0.00941197,-1.445155,3.079702,-0.01745116,0.02950784,0.05029418,0.01224593,-0.2565343,2.516972,-2.993773
90,0.577778,688,181,509,501,0.09518864,-0.04397201,-0.007433796,-1.446241,3.079574,-0.01784797,0.02667656,0.05645252,0.0007480234,-0.25675,2.519939,-2.997029
90,0.5888891,688,181,509,501,0.09445908,-0.03583799,-0.01179244,-1.447223,3.07918,-0.01807594,0.01370293,0.06563337,-0.02061458,-0.2574504,2.525055,-3.001909
90,0.6000003,688,181,509,501,0.08529745,-0.02988797,-0.01728236,-1.447897,3.078768,-0.01827355,0.004595056,0.04938094,-0.02364559,-0.2577253,2.526021,-3.002624
90,0.6111114,633,173,482,501,0.07586891,-0.0265061,-0.01991311,-1.448298,3.078391,-0.01848127,0.008706626,0.04115624,-0.01508058,-0.2576725,2.52644,-3.003374
90,0.6222225,633,173,482,501,0.06352334,-0.02058657,-0.02567394,-1.448663,3.077874,-0.0186091,0.01773597,0.04660236,-0.006553391,-0.2574669,2.528432,-3.006078
90,0.6333337,633,173,482,501,0.05046395,-0.02010976,-0.02364202,-1.448809,3.077696,-0.01882216,0.02352923,0.05186924,-0.01944601,-0.2580475,2.531151,-3.009189
90,0.6444448,633,173,482,501,0.04211725,-0.02214096,-0.02585822,-1.449115,3.077359,-0.01918861,0.0215709,0.0476227,-0.04058037,-0.2591005,2.533384,-3.011366
90,0.655556,520,186,488,501,0.0465058,-0.02511741,-0.02699631,-1.449724,3.076988,-0.0195737,0.01666249,0.03800688,-0.0460065,-0.259744,2.534526,-3.012428
90,0.6666671,520,186,488,501,0.05340911,-0.02309376,-0.03256658,-1.450396,3.076371,-0.01976279,0.009325452,0.02773596,-0.03452474,-0.2598212,2.535159,-3.013119
90,0.6777782,520,186,488,501,0.06434049,-0.02135951,-0.03566472,-1.451389,3.075729,-0.01997744,0.004840892,0.02438028,0.0005058004,-0.258823,2.535048,-3.013197
90,0.6888894,520,186,488,501,0.06691098,-0.008126233,-0.0302596,-1.45224,3.075461,-0.01958595,0.002708102,0.01831361,0.01860756,-0.258121,2.534993,-3.013288
90,0.7000005,520,186,488,501,0.06357785,0.0008537583,-0.01848152,-1.45288,3.075453,-0.0193697,0.01073179,0.01307145,0.005137186,-0.2584241,2.534901,-3.013462
90,0.7111117,585,182,479,501,0.05763439,-0.002375592,-0.01196091,-1.453336,3.075591,-0.01968502,0.0111468,0.01451064,-0.0242302,-0.2593951,2.53631,-3.014806
90,0.7222228,585,182,479,501,0.04857278,-0.003362155,-0.006462872,-1.453647,3.07561,-0.01977504,0.007693115,0.01770401,-0.04358093,-0.2603666,2.538212,-3.016502
90,0.7333339,585,182,479,501,0.04699042,-0.001433963,-0.0128265,-1.454069,3.075284,-0.01981978,0.01160119,0.004456509,-0.04265271,-0.2607831,2.537603,-3.015907
90,0.7444451,585,182,479,501,0.04865339,-0.002642255,-0.01936024,-1.454614,3.074768,-0.01991512,0.01120284,-0.007719377,-0.02413943,-0.2606212,2.53579,-3.014198
90,0.7555562,545,192,521,504,0.03613877,0.0008533522,-0.02322181,-1.454615,3.07431,-0.01978995,-0.005899682,-0.002948175,0.004755232,-0.2595144,2.536258,-3.014389
90,0.7666674,545,192,521,504,0.02935106,0.002302447,-0.01930847,-1.454777,3.074137,-0.019701,-0.009065079,0.00490862,0.002918257,-0.2595836,2.538193,-3.016144
90,0.7777785,545,192,521,504,0.02630858,-0.0002701944,-0.009153499,-1.455034,3.074247,-0.01978942,-0.002599881,-0.005666498,-0.0163424,-0.2603671,2.537387,-3.015259
90,0.7888896,545,192,521,504,0.03073209,5.51343E-05,-0.01088551,-1.455449,3.074052,-0.01989115,0.005913973,-0.005550655,-0.01879753,-0.2608257,2.537194,-3.015299
90,0.8000008,545,192,521,504,0.03301774,0.005784994,-0.01312199,-1.455841,3.073639,-0.01965786,0.01057547,-0.005981134,-0.02866142,-0.2614803,2.537164,-3.015358
90,0.8111119,523,178,502,497,0.03115245,0.01162108,-0.01678464,-1.456047,3.073305,-0.0194251,0.01045212,-0.006658144,-0.02212692,-0.2614617,2.537574,-3.015763
90,0.8222231,523,178,502,497,0.03601515,0.01422949,-0.01168823,-1.456591,3.073233,-0.01920512,0.0008979798,-0.0003494897,-0.01885396,-0.2614569,2.538557,-3.016519
90,0.8333342,523,178,502,497,0.03764911,0.01455952,-0.006121497,-1.45704,3.073223,-0.01909273,-0.003489905,-0.003963497,-0.00453228,-0.2609839,2.538668,-3.016625
90,0.8444453,523,178,502,497,0.04490968,0.008901414,-0.003073309,-1.457732,3.073201,-0.01923442,0.0005643372,-0.006448311,0.006221782,-0.2607139,2.538565,-3.016732
90,0.8555565,483,180,511,500,0.03971755,0.00794219,-0.004750346,-1.458006,3.073023,-0.01916517,0.01351757,-0.005103551,0.002600984,-0.2608907,2.53823,-3.01689
90,0.8666676,483,180,511,500,0.02776815,0.007396106,-0.002620697,-1.45799,3.073086,-0.01915132,0.01831097,-0.008893866,-0.008304559,-0.2612811,2.537784,-3.016594
90,0.8777788,483,180,511,500,0.02045366,0.00642022,-0.004472115,-1.458015,3.072961,-0.01910552,0.01641076,-0.006417053,-0.0283981,-0.2621744,2.538315,-3.017037
90,0.8888899,483,180,511,500,0.007493064,0.00812583,-0.003199365,-1.457733,3.072979,-0.01895851,0.01143473,-0.01235563,-0.02842309,-0.2624801,2.537218,-3.015907
90,0.900001,483,180,511,500,0.005649166,0.008542897,-0.006541198,-1.457773,3.072824,-0.01884506,0.006758137,-0.01330612,-0.006544379,-0.2620215,2.536163,-3.014889
90,0.9111122,469,172,505,493,0.002371852,0.008364839,-0.005767834,-1.457708,3.072838,-0.01881363,-0.00427878,0.005480162,0.00618816,-0.261369,2.538094,-3.01673
90,0.9222233,469,172,505,493,0.004289708,0.009143287,-0.003332345,-1.45786,3.072875,-0.01874493,-0.009826268,0.01035486,0.003818593,-0.261287,2.539225,-3.017663
90,0.9333345,469,172,505,493,0.007656968,0.009456323,-0.005155663,-1.457997,3.072728,-0.01870817,-0.01079855,0.004363012,-0.01386467,-0.2618484,2.53945,-3.017681
90,0.9444456,469,172,505,493,0.0011735,0.00593491,-0.004041196,-1.45789,3.072819,-0.01888661,-0.006395894,0.00658355,-0.01620371,-0.262789,2.538971,-3.017348
90,0.9555568,469,172,505,493,0.003428848,-0.0003794953,-0.004717481,-1.458003,3.072768,-0.01908102,-0.01316678,-0.005741244,-0.004593909,-0.2625424,2.537999,-3.016167
90,0.9666679,458,198,490,495,0.008552432,-0.0006207239,-0.002152577,-1.458243,3.072728,-0.0190448,-0.007643125,-0.01068695,0.02838124,-0.2613413,2.535649,-3.014106
90,0.977779,458,198,490,495,0.02318271,-0.003035133,0.002006673,-1.458904,3.072807,-0.01915825,-0.003205421,-0.001054103,0.0359071,-0.2607256,2.535994,-3.014736
90,0.9888902,458,198,490,495,0.02731796,-0.00208377,0.003557132,-1.459311,3.07277,-0.01913002,-0.00657847,0.002772034,0.02529815,-0.2608151,2.536694,-3.015291
90,1.000001,458,198,490,495,0.03421327,-0.002877942,0.01049204,-1.45991,3.073014,-0.01915878,0.004072733,0.005905688,0.009132079,-0.2609967,2.537243,-3.016022
90,1.011112,440,182,518,497,0.03083336,-0.006505077,0.01293109,-1.460181,3.073211,-0.01934733,-0.0003428729,0.003369335,-0.008247238,-0.2616907,2.53702,-3.015703
90,1.022224,440,182,518,497,0.03402814,-0.006474727,0.01318237,-1.460702,3.073256,-0.01943415,-0.003644015,0.004788351,-0.005726144,-0.26163,2.537036,-3.015573
90,1.033335,440,182,518,497,0.03505585,-0.008717388,0.01402066,-1.461169,3.073388,-0.0196014,-0.001934913,-0.0161805,0.005653497,-0.2613871,2.533995,-3.012516
90,1.044446,440,182,518,497,0.02656671,-5.759206E-05,0.01233814,-1.461255,3.07346,-0.01934254,-0.005616363,-0.01137962,0.0102681,-0.261107,2.533955,-3.012383
90,1.055557,440,182,518,497,0.0170134,0.008589732,0.010558,-1.46119,3.073477,-0.01899686,-0.01607993,-0.002023069,0.013334,-0.2608114,2.534829,-3.012866
90,1.066668,464,157,483,498,-0.00266706,0.0271353,0.0135644,-1.46072,3.073746,-0.01824052,-0.01481339,-1.808628E-05,0.004868736,-0.2610564,2.535095,-3.012906
90,1.077779,464,157,483,498,-0.004862947,0.01281556,0.01576871,-1.460671,3.073985,-0.01854945,-0.02177913,0.01335525,-0.0131537,-0.2615123,2.5379,-3.015221
90,1.08889,464,157,483,498,-0.009220349,0.0005812757,0.01806592,-1.460544,3.074307,-0.01896331,-0.01740569,0.004136709,-0.01978905,-0.2619901,2.536983,-3.014157
90,1.100002,464,157,483,498,-0.001609489,0.0009344984,0.01659857,-1.460764,3.074421,-0.01894786,-0.007505474,-0.007246453,-0.01750323,-0.2622117,2.535468,-3.012752
90,1.111113,376,177,472,494,0.001968766,0.003790122,0.01188985,-1.460817,3.074356,-0.01879393,-0.009870647,-0.01023171,-0.01804141,-0.2625403,2.534907,-3.011948
90,1.122224,376,177,472,494,0.001858483,0.009073338,0.01258825,-1.460831,3.074414,-0.0185095,-0.01629787,-0.01920191,-0.007440811,-0.2623171,2.53343,-3.010093
90,1.133335,376,177,472,494,0.002817785,0.01873813,0.01288445,-1.461006,3.074548,-0.01798699,-0.02102171,-0.02653572,0.003545959,-0.2620146,2.531464,-3.007772
90,1.144446,376,177,472,494,-0.003914403,0.02247704,0.01605568,-1.460784,3.074914,-0.01771854,-0.01888086,-0.02355791,0.00511596,-0.2619016,2.530858,-3.007012
90,1.155557,376,177,472,494,-0.009834506,0.02475117,0.02231991,-1.46059,3.075308,-0.01741707,-0.006804918,-0.01167692,-0.01952733,-0.2629062,2.531929,-3.008155
90,1.166668,374,161,494,496,-0.01163128,0.02199365,0.01855076,-1.460403,3.075383,-0.01716034,-0.002427432,-0.008064781,-0.03383524,-0.2635347,2.531537,-3.007631
90,1.17778,374,161,494,496,-0.01694802,0.0219463,0.01807738,-1.460084,3.075576,-0.01691107,-0.0003359728,-0.009797966,-0.03554286,-0.2639938,2.531258,-3.007266
90,1.188891,374,161,494,496,-0.009104114,0.02046718,0.01423691,-1.460267,3.075576,-0.01674809,0.002686236,-0.01290533,-0.0293806,-0.2640913,2.530414,-3.006426
90,1.200002,374,161,494,496,0.005056754,0.02116825,0.01122606,-1.460647,3.075484,-0.01636939,-0.01182565,-0.04161278,-0.01070021,-0.2637802,2.526257,-3.001692
90,1.211113,479,167,495,499,0.008498242,0.02704049,0.00797642,-1.460821,3.075386,-0.01590653,-0.01730887,-0.04657265,0.00557768,-0.2632908,2.52405,-2.999094
90,1.222224,479,167,495,499,0.01342284,0.03195515,0.01226975,-1.461128,3.075541,-0.01546444,-0.01631311,-0.04795135,0.01346171,-0.2629648,2.521769,-2.99664
90,1.233335,479,167,495,499,0.01504404,0.03340872,0.01797209,-1.46141,3.075831,-0.01502556,-0.01475226,-0.02776527,0.008278608,-0.2629781,2.522643,-2.997392
90,1.244446,479,167,495,499,0.007390313,0.03518666,0.01967746,-1.46141,3.075998,-0.01462448,-0.01015592,-0.02380063,-0.01800704,-0.2638735,2.522851,-2.997368
90,1.255558,479,167,495,499,0.01276393,0.03207418,0.0197266,-1.461721,3.076191,-0.01437574,0.001777688,-0.01998327,-0.03065018,-0.2648482,2.522764,-2.997446
90,1.266669,446,166,505,500,0.01760532,0.03082308,0.01349986,-1.462009,3.076093,-0.01408759,-0.001749352,-0.02598742,-0.03687547,-0.2652966,2.521531,-2.995934
90,1.27778,446,166,505,500,0.0222351,0.03576868,0.009122993,-1.462425,3.075969,-0.01360982,-0.009528719,-0.0366467,-0.02765175,-0.2653595,2.519295,-2.99326
90,1.288891,446,166,505,500,0.0286285,0.03913807,0.009005148,-1.462862,3.076008,-0.01304416,-0.01354564,-0.03994732,-0.00996509,-0.2649856,2.517606,-2.991357
90,1.300002,446,166,505,500,0.02301991,0.03975338,0.01180752,-1.462964,3.076129,-0.01256852,-0.01010652,-0.03495289,0.01371026,-0.2642282,2.516028,-2.989913
90,1.311113,446,166,505,500,0.01747663,0.0372018,0.01421711,-1.463051,3.076367,-0.01218982,-0.009454088,-0.03496318,-0.00469311,-0.2644402,2.515601,-2.989264
90,1.322224,397,167,486,495,0.01311601,0.03809348,0.01500686,-1.463125,3.076507,-0.01177117,3.221631E-05,-0.02838733,-0.01571117,-0.2652572,2.51495,-2.988683
90,1.333336,397,167,486,495,0.005262569,0.04000612,0.006995732,-1.463019,3.076437,-0.01128648,0.005570063,-0.01534693,-0.04399461,-0.266412,2.516004,-2.989706
90,1.344447,397,167,486,495,0.003111426,0.0366862,0.007457455,-1.463076,3.076571,-0.0109669,-0.002517974,-0.01455773,-0.04471721,-0.2668935,2.516157,-2.989473
90,1.355558,397,167,486,495,-0.00173974,0.03835566,0.001826811,-1.46291,3.076385,-0.01050883,-0.006479926,-0.02223227,-0.01063157,-0.2662266,2.514261,-2.987494
90,1.366669,379,192,480,493,-0.0007647835,0.03281758,0.003378674,-1.462949,3.07655,-0.01028566,-0.004961349,-0.02326178,-0.0004639756,-0.2660056,2.513024,-2.98626
90,1.37778,379,192,480,493,-0.003185259,0.02804887,0.006870126,-1.462861,3.076678,-0.01007048,0.0003663525,-0.03040848,0.01711019,-0.265368,2.510122,-2.983603
90,1.388891,379,192,480,493,-0.000114562,0.02900754,0.008332315,-1.463033,3.07677,-0.009706157,0.009012196,-0.03659598,0.002682865,-0.2658612,2.508394,-2.982024
90,1.400002,379,192,480,493,0.005574055,0.02957801,0.00459337,-1.46324,3.076628,-0.009342901,0.009559508,-0.04031928,-0.02008776,-0.2667401,2.506907,-2.980389
90,1.411114,379,192,480,493,0.002852136,0.03125292,-0.0008400134,-1.463158,3.076512,-0.008996158,0.006686192,-0.03454713,-0.02073884,-0.2669127,2.506559,-2.980016
90,1.422225,428,201,503,494,0.00454011,0.03286463,0.003816707,-1.463216,3.076684,-0.008645154,0.003620544,-0.02541181,-0.02036045,-0.2671247,2.506556,-2.97992
90,1.433336,428,201,503,494,0.008015096,0.03327918,0.0009375655,-1.463397,3.076546,-0.008270181,0.003055291,-0.01528486,-0.01725271,-0.2671678,2.50754,-2.980892
90,1.444447,428,201,503,494,0.01434476,0.03002957,0.002182649,-1.46367,3.076479,-0.008067247,0.001949068,-0.01964419,-0.01093336,-0.2671694,2.50634,-2.979633
90,1.455558,428,201,503,494,0.02008288,0.02846707,-0.001808702,-1.464059,3.076297,-0.007801997,0.004946575,-0.01394626,-0.007021348,-0.2671838,2.506265,-2.979676
90,1.466669,472,210,497,504,0.02170056,0.02890825,0.003762556,-1.464354,3.076399,-0.007458982,0.006597769,-0.01092578,-0.003403647,-0.2672791,2.506166,-2.97967
90,1.47778,472,210,497,504,0.03518968,0.02429499,0.008714828,-1.465132,3.076523,-0.007298127,0.01030141,-0.01266214,-0.01239538,-0.2677175,2.505641,-2.979208
90,1.488891,472,210,497,504,0.04254656,0.02318022,0.01029321,-1.465806,3.076585,-0.007055246,0.01656045,-0.01003818,-0.01865482,-0.2682155,2.50574,-2.979511
90,1.500003,472,210,497,504,0.05049824,0.02175231,0.005412447,-1.466568,3.076364,-0.006838465,0.01126077,-0.01402098,-0.01981435,-0.2685095,2.505036,-2.978679
90,1.511114,472,210,497,504,0.05067322,0.01764107,0.003836862,-1.467048,3.076308,-0.006791594,0.004723622,-0.01393396,-0.005983521,-0.2680669,2.504395,-2.977788
90,1.522225,402,211,495,496,0.04425476,0.01534729,0.00404987,-1.467375,3.076319,-0.006684002,-7.638335E-05,-0.01015894,0.004947823,-0.2676184,2.504246,-2.97756
90,1.533336,402,211,495,496,0.03032435,0.01722597,0.004102555,-1.46729,3.076379,-0.006409696,0.004560016,-0.007192968,-0.004949168,-0.2679364,2.50427,-2.977676
90,1.544447,402,211,495,496,0.0123264,0.01495712,0.002224659,-1.466932,3.076391,-0.00627281,0.006975215,-0.003512993,-0.01097855,-0.2682954,2.505017,-2.978527
90,1.555558,402,211,495,496,0.01234885,0.01389851,0.002097395,-1.467116,3.076368,-0.006166283,0.005122288,-0.004539276,-0.03211822,-0.2691129,2.505471,-2.978765
90,1.566669,402,211,495,496,0.009785035,0.01249232,-0.004758565,-1.467207,3.076167,-0.005984656,1.133326E-05,-0.004155107,-0.03543916,-0.2694682,2.506093,-2.979121
90,1.577781,431,202,469,497,0.01420093,0.01382649,-0.006365592,-1.467485,3.07598,-0.005804626,-0.00598163,-0.01147792,-0.01818455,-0.2692269,2.504975,-2.977799
90,1.588892,431,202,469,497,0.01270068,0.01109716,-0.001430833,-1.467569,3.076123,-0.005664544,-0.004006125,-0.008399198,0.01498522,-0.2681675,2.504273,-2.97723
90,1.600003,431,202,469,497,0.01650759,0.008410486,0.003979571,-1.46787,3.076244,-0.005640575,-0.001449742,-0.01043628,0.0221028,-0.2678,2.50324,-2.976321
90,1.611114,431,202,469,497,0.0194141,0.002672019,0.007881319,-1.46822,3.076415,-0.00565176,0.002870266,-0.007801664,0.008863783,-0.2681398,2.503695,-2.976822
90,1.622225,471,191,486,495,0.01808448,0.001248609,0.01082362,-1.468338,3.076546,-0.005600095,-0.001924241,-0.007797675,-0.01620095,-0.268926,2.504248,-2.977023
90,1.633336,471,191,486,495,0.006686275,0.002569933,0.006719799,-1.468201,3.076485,-0.00549996,-0.009292123,-0.01143453,-0.0189099,-0.2691364,2.504354,-2.976706
90,1.644447,471,191,486,495,-0.00767456,0.007390406,-0.0004777432,-1.467722,3.076437,-0.005409945,-0.01503163,-0.01708614,-0.01033774,-0.2690091,2.503496,-2.975685
90,1.655559,471,191,486,495,-0.02447296,0.008548198,-0.004040721,-1.466998,3.07638,-0.005275189,-0.02450546,-0.01324429,0.006113986,-0.2683668,2.50345,-2.975225
90,1.66667,471,191,486,495,-0.0373538,0.00608288,-0.003378209,-1.466243,3.076481,-0.005208078,-0.01706373,-0.003165931,0.01973354,-0.2675625,2.504098,-2.976031
90,1.677781,619,189,490,503,-0.03776261,0.006650928,0.0009357049,-1.465854,3.076561,-0.005100486,-0.003337707,-0.0003192448,-0.0001653564,-0.2681271,2.504403,-2.976522
90,1.688892,619,189,490,503,-0.03196925,0.004922396,0.007721273,-1.465711,3.076776,-0.004940164,-0.00081324,0.001313595,-0.01925851,-0.2688855,2.505686,-2.977676
90,1.700003,619,189,490,503,-0.01073878,0.009465264,0.009150154,-1.466174,3.07686,-0.004724448,-0.002754018,-0.01150683,-0.03273399,-0.2696941,2.504678,-2.976313
90,1.711114,619,189,490,503,-0.0003119525,0.008262474,0.01213091,-1.466378,3.076996,-0.004599279,-0.004670799,-0.007086057,-0.02553368,-0.2695444,2.505345,-2.976771
90,1.722225,510,213,495,500,0.01756804,0.01148212,0.01522019,-1.467116,3.077148,-0.004381965,-0.01401657,-0.008640833,-0.006857841,-0.2689665,2.504864,-2.975973
90,1.733337,510,213,495,500,0.02371666,0.01237284,0.01803003,-1.467489,3.077343,-0.004095942,-0.01864895,-0.0004797522,0.001906662,-0.2685532,2.506053,-2.976887
90,1.744448,510,213,495,500,0.02481901,0.01026173,0.01787849,-1.46774,3.077451,-0.004148672,-0.01708291,-0.002513636,-0.002108508,-0.2686757,2.50649,-2.977277
90,1.755559,510,213,495,500,0.02054655,0.006930867,0.01817693,-1.467925,3.077635,-0.004190218,-0.01422451,-0.009975296,-0.009082223,-0.2689665,2.505735,-2.976328
90,1.76667,510,213,495,500,0.01974178,0.003987813,0.01560756,-1.46811,3.077669,-0.00423123,-0.01690057,-0.01062106,-0.006395737,-0.2689196,2.505537,-2.97577
90,1.777781,497,197,524,501,0.006141041,0.00410608,0.01222366,-1.467788,3.077707,-0.004180097,-0.01229146,-0.006923285,0.008798389,-0.2683646,2.505148,-2.975523
90,1.788892,497,197,524,501,0.0006037485,0.0005223164,0.01454045,-1.467647,3.077979,-0.00427171,-0.006669092,-0.003315039,-0.0118012,-0.2690421,2.506183,-2.97642
90,1.800003,497,197,524,501,-0.006681977,-0.001544736,0.01255728,-1.467448,3.07809,-0.004392618,-0.007332283,0.009795668,-0.02838412,-0.269677,2.508541,-2.978573
90,1.811115,497,197,524,501,-0.01074832,-0.005706538,0.01063379,-1.467206,3.078245,-0.004642422,-0.01596774,0.005471913,-0.03466897,-0.2701255,2.509308,-2.978805
90,1.822226,643,203,484,497,-0.01450524,-0.005141912,0.004951198,-1.466966,3.077996,-0.004666924,-0.02281216,-0.003138348,-0.001211804,-0.269253,2.508058,-2.977399
90,1.833337,643,203,484,497,-0.01542768,-0.007148691,0.003556621,-1.466782,3.078045,-0.004807006,-0.01884565,-0.01387608,0.03356537,-0.2680258,2.505508,-2.975002
90,1.844448,643,203,484,497,-0.009429904,-0.008633211,0.008240051,-1.466893,3.078161,-0.004886368,-0.01491538,-0.01457717,0.03770977,-0.2676189,2.504793,-2.974385
90,1.855559,643,203,484,497,-0.0008773841,-0.01173627,0.008672782,-1.467156,3.078277,-0.005113269,-0.01143334,-0.007589933,0.01117201,-0.2681739,2.505774,-2.975205
90,1.86667,643,203,484,497,0.005416442,-0.0128538,0.01019735,-1.467419,3.078408,-0.005188903,-0.003403024,-0.000307709,-0.01545792,-0.2690522,2.507415,-2.976823
90,1.877781,530,200,493,497,0.008487067,-0.01188972,0.01166278,-1.467633,3.078565,-0.005298092,-0.002890929,0.007776704,-0.01428846,-0.2691199,2.508651,-2.978069
90,1.888893,530,200,493,497,0.01713547,-0.009455613,0.010569,-1.46814,3.078575,-0.005331649,-0.003675684,0.008791758,-0.01228496,-0.2691007,2.50885,-2.97814
90,1.900004,530,200,493,497,0.0268066,-0.0103115,0.01025503,-1.468721,3.078657,-0.00549996,-0.008157535,0.01155589,-0.001286471,-0.2687241,2.509598,-2.978788
90,1.911115,530,200,493,497,0.0299757,-0.009233195,0.01064152,-1.469128,3.078715,-0.005715144,-0.01493219,0.01499154,-0.001713635,-0.2686267,2.510631,-2.979423
90,1.922226,530,200,493,497,0.04029789,-0.009253375,0.002921121,-1.469861,3.078455,-0.005811017,-0.02540535,0.001311772,0.009130886,-0.2681452,2.509475,-2.977712
90,1.933337,476,179,523,498,0.03817615,-0.003855396,0.002254484,-1.470245,3.078315,-0.005619803,-0.01194075,0.001517205,0.01538455,-0.2678874,2.508876,-2.977535
90,1.944448,476,179,523,498,0.03156977,-0.006381714,0.004606564,-1.470403,3.078405,-0.005751363,-0.006625431,0.01222305,0.001243076,-0.2681249,2.510906,-2.979731
90,1.955559,476,179,523,498,0.0225458,-0.008222727,0.010059,-1.470452,3.078651,-0.00586215,-0.002426047,0.02326412,-0.0186097,-0.2687971,2.513507,-2.982349
90,1.966671,476,179,523,498,0.02039825,-0.007180328,0.009987567,-1.470536,3.078769,-0.005886118,0.003547721,0.02553921,-0.02819799,-0.2692466,2.514695,-2.983571
90,1.977782,501,161,492,496,0.01449422,-0.006643116,0.004149334,-1.470559,3.078634,-0.005926066,0.00461952,0.02150902,-0.01156653,-0.2689718,2.514858,-2.983905
90,1.988893,501,161,492,496,0.01297239,-0.008074261,-0.002608626,-1.47077,3.078423,-0.006169479,0.004534632,0.01141241,0.00373384,-0.2685457,2.513387,-2.98245
90,2.000004,501,161,492,496,0.01222366,-0.009844509,-0.00610486,-1.470865,3.078279,-0.006355368,0.003296357,0.004370532,0.01985078,-0.267906,2.512201,-2.981408
90,2.011115,501,161,492,496,0.01291651,-0.0157231,-0.001333432,-1.470937,3.078429,-0.006689328,0.003884371,0.006723255,0.01887912,-0.2677862,2.513057,-2.982394
90,2.022226,501,161,492,496,0.01600903,-0.01581495,-6.431481E-06,-1.47119,3.078448,-0.00686776,0.003121503,0.01582392,0.00885374,-0.2679071,2.51507,-2.984558
90,2.033337,459,167,489,495,0.01277465,-0.008313161,-0.0005146955,-1.471094,3.078369,-0.006749515,0.004809469,0.01781328,-0.001689516,-0.2681601,2.516122,-2.985668
90,2.044448,459,167,489,495,0.005748251,-0.01001739,-0.005619464,-1.47097,3.078201,-0.006915697,0.006080558,0.01543234,-0.009035632,-0.268452,2.516689,-2.986281
90,2.055559,459,167,489,495,0.003720546,-0.01532697,-0.006402009,-1.470934,3.078125,-0.007243798,0.002761435,0.01514317,0.001143082,-0.2680738,2.516892,-2.986447
90,2.06667,459,167,489,495,0.002749736,-0.01521225,-0.007548151,-1.47097,3.078058,-0.007341803,0.01089624,0.007974808,0.02153913,-0.2673398,2.515435,-2.985416
90,2.077781,463,164,486,497,0.008882847,-0.01763356,-0.004073489,-1.471229,3.078113,-0.007600662,0.01090095,0.007970361,0.02153839,-0.26713,2.515436,-2.985606
90,2.088892,463,164,486,497,0.00785395,-0.01434471,-0.00487089,-1.471239,3.077925,-0.007648066,0.001977727,0.008415237,0.004270614,-0.2676461,2.516702,-2.986407
90,2.100003,463,164,486,497,0.007079464,-0.01505231,-0.008248718,-1.471273,3.077742,-0.007838748,0.003980552,0.007712787,0.001446855,-0.2677222,2.516892,-2.98669
90,2.111114,463,164,486,497,0.01017591,-0.01515243,-0.006922111,-1.471578,3.077759,-0.008117315,0.01121695,0.01638002,0.01286544,-0.2671619,2.520743,-2.990907
90,2.122225,463,164,486,497,0.009182843,-0.01398266,-0.00795168,-1.47164,3.077651,-0.008249408,0.01282743,0.01769999,0.008859715,-0.2671971,2.521453,-2.991832
90,2.133336,440,163,487,498,0.01038211,-0.01161665,-0.009734549,-1.471749,3.077503,-0.008315987,0.004948951,0.0184904,0.00708697,-0.2670389,2.521696,-2.991833
90,2.144447,440,163,487,498,0.00851129,-0.01562608,-0.01250561,-1.471801,3.077301,-0.008581771,0.009207585,0.01101532,0.009160847,-0.2669542,2.521063,-2.991436
90,2.155558,440,163,487,498,0.00628091,-0.01470529,-0.01151412,-1.471838,3.077206,-0.008751147,0.01136758,0.006604444,0.01620705,-0.266681,2.520825,-2.99179
90,2.166669,440,163,487,498,0.009622448,-0.01338287,-0.01323653,-1.472102,3.077046,-0.008886436,0.01051157,0.008634453,0.01709881,-0.2664727,2.521092,-2.992233
90,2.17778,486,173,506,499,0.01243566,-0.0127777,-0.008631489,-1.472341,3.0771,-0.008995092,0.01016856,0.004935225,0.01375882,-0.2665046,2.52095,-2.992272
90,2.188891,486,173,506,499,0.01237972,-0.009600777,-0.008270794,-1.472486,3.077081,-0.008975386,0.00285119,0.006401293,0.003377596,-0.266714,2.522479,-2.993594
90,2.200002,486,173,506,499,0.01355755,-0.006179805,-0.009935923,-1.472687,3.076956,-0.008960471,0.0003229352,0.006777727,0.003899526,-0.2666644,2.522789,-2.993861
90,2.211113,486,173,506,499,0.01141491,-0.005145769,-0.009989726,-1.472748,3.076946,-0.009104815,0.001519713,0.002386236,-0.0001826637,-0.2667172,2.523424,-2.99465
90,2.222224,486,173,506,499,0.009185733,-0.004224849,-0.008993236,-1.472777,3.076884,-0.009130914,-0.003013245,0.006503159,-0.001220463,-0.2667321,2.524322,-2.995478
90,2.233335,450,182,526,496,0.01426951,-0.006653368,-0.005633973,-1.473076,3.076807,-0.009223592,0.00465473,-0.00170644,0.007088305,-0.2665206,2.522943,-2.994379
90,2.244446,450,182,526,496,0.01972015,9.887107E-05,-0.007654942,-1.473379,3.076593,-0.009015866,0.01023818,0.003936307,-0.0004072834,-0.2667875,2.523817,-2.995691
90,2.255557,450,182,526,496,0.02466321,0.0007267604,-0.002888015,-1.473771,3.076639,-0.008979114,0.008365203,0.0070007,-0.01175858,-0.2671641,2.52463,-2.996476
90,2.266668,450,182,526,496,0.02322284,0.012119,0.0004283695,-1.473955,3.076775,-0.008633968,-0.001299798,0.006815362,-0.01940804,-0.2674676,2.525461,-2.99698
90,2.277779,450,182,526,496,0.01251923,0.01190991,0.0006147056,-1.473809,3.076819,-0.00851093,-0.007120499,0.01027692,-0.008719927,-0.2671433,2.525823,-2.997192
90,2.28889,414,165,494,496,0.007271252,0.003276709,0.0003075413,-1.473738,3.076952,-0.008729842,-0.01001298,0.008303672,-0.008282281,-0.2672578,2.526421,-2.997663
90,2.300001,414,165,494,496,0.01142284,-0.001161038,0.002296626,-1.474009,3.077061,-0.008927449,-0.009862796,-0.00282185,-0.00820547,-0.2673686,2.525367,-2.996425
90,2.311112,414,165,494,496,0.01660012,0.006304748,0.003550995,-1.474331,3.077149,-0.008518919,-0.005771084,0.0008175685,-0.006201943,-0.2674389,2.525494,-2.996523
90,2.322223,414,165,494,496,0.02324878,0.005650084,0.0007784524,-1.4748,3.077024,-0.0084827,-0.0005658697,-0.0006151991,-0.01703263,-0.2678959,2.52541,-2.996519
90,2.333334,477,189,444,483,0.03540961,0.009301125,0.008586974,-1.475512,3.077245,-0.008247277,-0.000273068,0.01319281,-0.02794592,-0.2683806,2.527515,-2.998595
90,2.344445,477,189,444,483,0.03957047,0.009231506,0.009972674,-1.475996,3.077375,-0.008065117,-0.001685255,0.01153652,-0.02935997,-0.268656,2.528748,-2.999756
90,2.355556,477,189,444,483,0.04040696,0.007838836,0.01308814,-1.476512,3.077584,-0.008070444,-0.009448772,0.00862177,-0.02128938,-0.2686118,2.529174,-2.999866
90,2.366668,477,189,444,483,0.04496408,0.005041733,0.009896769,-1.477102,3.077669,-0.008125304,-0.007998114,0.004569884,-0.006736461,-0.2682911,2.529407,-3.000151
90,2.377779,477,189,444,483,0.03690238,0.004479824,0.003820945,-1.477281,3.077509,-0.008078965,-0.009075534,-0.009904146,-0.001461902,-0.2682304,2.527698,-2.998271
90,2.38889,420,200,492,499,0.02805499,0.005017265,0.007487902,-1.477355,3.077756,-0.007958058,-0.00780912,-0.01227977,0.006486395,-0.2679689,2.526825,-2.997372
90,2.400001,420,200,492,499,0.001354949,0.003500438,0.007380934,-1.476699,3.077926,-0.007991081,-0.005712798,-0.01096773,0.0004036468,-0.2681526,2.526529,-2.996994
90,2.411112,420,200,492,499,-0.01096989,0.005776012,0.01416833,-1.476333,3.078268,-0.007870174,-0.008977467,-0.001822312,-0.01348894,-0.2685372,2.528409,-2.998565
90,2.422223,420,200,492,499,-0.03327975,0.005575624,0.0123412,-1.475387,3.078428,-0.007789214,-0.01419192,0.004976242,-0.03548824,-0.2693564,2.530255,-2.999937
90,2.433334,401,179,513,500,-0.04351723,0.003824092,0.007000653,-1.474782,3.078421,-0.007784952,-0.01191909,0.004250642,-0.03934661,-0.2698826,2.530245,-2.999774
90,2.444445,401,179,513,500,-0.03816838,0.001750931,0.007202163,-1.474601,3.07853,-0.007799866,-0.01392885,0.003952328,-0.02012506,-0.2694964,2.53001,-2.999399
90,2.455556,401,179,513,500,-0.02739364,0.003129448,0.006086399,-1.474655,3.078603,-0.007780692,-0.01264718,-0.001109255,-0.003411197,-0.2690901,2.529234,-2.9986
90,2.466667,401,179,513,500,0.002021288,0.006212753,0.01204856,-1.475359,3.078892,-0.007716243,-0.009520554,0.00254976,0.002752413,-0.2689825,2.529234,-2.998446
90,2.477778,401,179,513,500,0.02685589,0.004469002,0.02242986,-1.476264,3.079211,-0.007668306,-0.01449807,0.005317757,0.000510862,-0.2689217,2.530063,-2.998997
90,2.488889,429,195,505,496,0.04066563,0.01001658,0.02302248,-1.477038,3.079336,-0.007405718,-0.01006839,0.004910417,-0.00831979,-0.2693239,2.530625,-2.999418
90,2.5,429,195,505,496,0.05221688,0.008852173,0.0259089,-1.477939,3.079582,-0.007315171,0.001038133,0.004744833,-0.02654419,-0.270142,2.53108,-3.000005
90,2.511111,429,195,505,496,0.05745629,0.009863794,0.02745014,-1.478818,3.079926,-0.007216101,0.002223283,0.0016857,-0.02735265,-0.270452,2.530278,-2.999182
90,2.522222,429,195,505,496,0.05699877,0.009583455,0.01982603,-1.479436,3.079875,-0.007115434,0.0008122153,-0.0009866897,-0.01236087,-0.2701628,2.529383,-2.998335
90,2.533333,413,180,474,493,0.03505759,0.007724389,0.01364557,-1.479296,3.079854,-0.006949785,-0.006790282,0.003505288,0.004461311,-0.2696259,2.529812,-2.998643
90,2.544444,413,180,474,493,0.0242988,0.005302334,0.01471018,-1.479234,3.080071,-0.006859771,-0.007947352,0.01295853,0.0161898,-0.2690725,2.530484,-2.999481
90,2.555555,413,180,474,493,0.01376684,-8.557457E-05,0.01332543,-1.479127,3.080177,-0.006974819,0.0057018,0.01276079,0.001832694,-0.2694693,2.530838,-3.000193
90,2.566666,413,180,474,493,0.004855419,-0.0007058866,0.01793292,-1.478985,3.080415,-0.006914099,0.0124268,0.01299901,-0.0228464,-0.2703838,2.531389,-3.000915
90,2.577777,413,180,474,493,0.003827804,0.002574887,0.01712314,-1.479087,3.080593,-0.006820888,0.007506036,0.009691014,-0.03162181,-0.2709255,2.531947,-3.001286
90,2.588888,387,170,480,495,0.001770656,0.003731055,0.01600841,-1.479117,3.080708,-0.006718623,0.002033312,0.008428489,-0.01101123,-0.27033,2.532094,-3.001389
90,2.599999,387,170,480,495,2.970838E-05,0.0009744428,0.01128676,-1.479074,3.080702,-0.006772951,-0.001400063,0.006460621,0.006789361,-0.2697686,2.531851,-3.001189
90,2.61111,387,170,480,495,9.449641E-05,0.002150333,0.01033478,-1.479092,3.080723,-0.006655772,-0.005167555,0.005166822,0.02013438,-0.269253,2.531454,-3.000758
90,2.622221,387,170,480,495,-0.0006358896,-0.002822049,0.006530315,-1.479013,3.080634,-0.00675857,0.002002113,0.00741965,0.02067859,-0.2690576,2.531604,-3.001207
90,2.633332,387,170,480,495,0.007910097,-0.005920868,0.006865433,-1.479277,3.080612,-0.00679905,0.008524849,0.01574416,0.0002934588,-0.2697282,2.533049,-3.002819
90,2.644443,421,183,488,495,0.01439567,-0.007874603,0.006084231,-1.479521,3.080599,-0.006931676,0.008935796,0.01035174,-0.01380349,-0.270305,2.533481,-3.00319
90,2.655554,421,183,488,495,0.01438689,-0.01222295,0.006698479,-1.479699,3.080709,-0.007172425,0.007832322,0.01238864,-0.0118772,-0.2703593,2.534227,-3.004007
90,2.666665,421,183,488,495,0.01036407,-0.01086402,0.003308944,-1.479678,3.080681,-0.007178284,0.001184412,0.007763738,-0.001374175,-0.2700861,2.533812,-3.003464
90,2.677776,421,183,488,495,0.006281408,-0.01068054,0.0008618311,-1.479656,3.080612,-0.007288007,-0.001106059,0.002407905,0.01123479,-0.2696466,2.533138,-3.00281
90,2.688887,490,172,502,495,-0.002055016,-0.01053264,-0.00192425,-1.479312,3.080465,-0.007429687,-0.001771032,0.007469653,0.02199647,-0.2691225,2.533433,-3.003309
90,2.699998,490,172,502,495,-0.008583948,-0.01621447,0.0001860381,-1.479033,3.080525,-0.007738081,-0.006122862,0.005177344,0.02428249,-0.2687566,2.533247,-3.003029
90,2.711109,490,172,502,495,-0.01275827,-0.01614792,-0.001214126,-1.478687,3.080517,-0.008026768,-0.002665393,0.007482172,0.01085619,-0.2690879,2.533925,-3.003709
90,2.72222,490,172,502,495,-0.009512977,-0.009542484,-0.002413125,-1.478698,3.080425,-0.00796658,0.007525803,0.005983848,-0.006465185,-0.2697319,2.53413,-3.004136
90,2.733331,490,172,502,495,-0.007126458,-0.01024296,-0.005534555,-1.478686,3.080184,-0.008064052,0.001431167,0.0151688,-0.007900643,-0.2696941,2.535661,-3.00558
90,2.744442,442,165,469,498,-0.005061307,-0.01139787,-0.004427886,-1.478767,3.080129,-0.008264322,-0.003418453,0.02198325,-0.001393384,-0.2694405,2.5374,-3.007211
90,2.755553,442,165,469,498,0.005782119,-0.009914335,-0.006659348,-1.479132,3.079961,-0.008331433,-0.009422751,0.02005697,0.01253394,-0.2688855,2.537968,-3.007673
90,2.766664,442,165,469,498,0.01601308,-0.01144552,-0.0006826757,-1.479499,3.080009,-0.008526909,-0.004102689,0.009182665,0.0247316,-0.2684482,2.536654,-3.006572
90,2.777775,442,165,469,498,0.01834946,-0.01438305,-0.002972753,-1.47974,3.07994,-0.008772985,0.00463284,0.006340466,0.02565961,-0.2682421,2.536118,-3.006382
90,2.788886,433,184,492,501,0.01815549,-0.01248649,-0.0006427097,-1.479918,3.079963,-0.008840097,0.01209774,0.01026133,0.01753333,-0.2683737,2.536705,-3.007317
90,2.799997,433,184,492,501,0.01799668,-0.01270955,0.001464083,-1.480124,3.080043,-0.00899456,0.008507889,0.02144587,0.002463313,-0.2686293,2.538921,-3.009511
90,2.811108,433,184,492,501,0.01588913,-0.013786,0.001189406,-1.480223,3.080101,-0.009180449,0.004489798,0.01949963,-0.007207064,-0.2688962,2.53987,-3.010298
90,2.822219,433,184,492,501,0.01173979,-0.01476969,-0.0003067841,-1.480261,3.080027,-0.009382849,0.001180958,0.01652102,-0.003590631,-0.2688147,2.540217,-3.010595
90,2.83333,433,184,492,501,0.008747768,-0.01669122,-0.00288753,-1.480313,3.079916,-0.009631055,0.001623069,0.006065542,0.004197285,-0.2686341,2.539164,-3.009717
90,2.844441,459,178,528,502,0.006838671,-0.01532271,-0.006114254,-1.480475,3.079727,-0.0100774,-0.01227453,0.01641633,0.005315481,-0.2681441,2.541295,-3.011522
90,2.855552,459,178,528,502,0.006838671,-0.01532271,-0.006114254,-1.480475,3.079727,-0.0100774,-0.01227453,0.01641633,0.005315481,-0.2681441,2.541295,-3.011522
90,2.866663,459,178,528,502,0.005455184,-0.01471816,-0.001852167,-1.480596,3.079896,-0.01017754,-0.01202076,0.01473321,-0.003370816,-0.2683635,2.54198,-3.012051
90,2.877774,459,178,528,502,0.01043293,-0.01842006,0.003479067,-1.480904,3.080174,-0.01076343,-0.003086569,0.02030756,-0.01006963,-0.2686906,2.544072,-3.014338
90,2.888885,459,178,528,502,0.01043293,-0.01842006,0.003479067,-1.480904,3.080174,-0.01076343,-0.003086569,0.02030756,-0.01006963,-0.2686906,2.544072,-3.014338
90,2.899997,414,164,481,495,0.01785585,-0.01729727,0.004127614,-1.481293,3.080178,-0.01093494,-0.003579309,0.01761211,0.0007637325,-0.268404,2.544417,-3.014718
90,2.911108,414,164,481,495,0.0198559,-0.01421805,0.005676172,-1.481584,3.0804,-0.01108195,-0.004494926,0.01627679,0.001651201,-0.2682693,2.544605,-3.014931
90,2.922219,414,164,481,495,0.02716706,-0.01543847,0.008195924,-1.482124,3.080502,-0.01131258,-0.007485561,0.01060784,-0.00230945,-0.2683699,2.544747,-3.014872
90,2.93333,414,164,481,495,0.03452682,-0.01442313,0.009874105,-1.482802,3.080589,-0.0114484,-0.004549813,0.006521188,-0.009267946,-0.2686549,2.545027,-3.015176
90,2.944441,410,185,537,504,0.03464535,-0.01209365,0.007963132,-1.483195,3.080664,-0.01170779,-0.004286952,0.006847492,-0.005923465,-0.2685553,2.545128,-3.01526
90,2.955552,410,185,537,504,0.02632836,-0.009713411,0.004416684,-1.483246,3.080626,-0.01174933,-0.007743938,0.010282,-0.005649117,-0.2685276,2.546108,-3.016068
90,2.966663,410,185,537,504,0.0134588,-0.006751846,0.004919138,-1.483166,3.080736,-0.01169554,-0.009395435,0.008955982,-0.001649732,-0.2683572,2.546052,-3.01586
90,2.977774,410,185,537,504,0.006092174,-0.006703847,0.003339724,-1.483079,3.080743,-0.01176531,-0.009743707,0.004923832,-0.009378627,-0.2686751,2.546171,-3.015777
90,2.988885,410,185,537,504,0.006921405,-0.005965345,0.006688331,-1.48323,3.080808,-0.01177437,-0.005552805,0.001474809,-0.01276327,-0.2688978,2.545721,-3.015347
90,2.999996,533,196,482,490,0.006926712,-0.001615374,0.006071521,-1.483281,3.080818,-0.0116737,-0.002952429,7.892586E-05,-0.0121514,-0.2690001,2.545631,-3.015264
90,3.011107,533,196,482,490,0.01118346,0.002771454,0.005747186,-1.483514,3.080799,-0.01153575,-0.00207332,-0.001631212,-0.008659913,-0.2690682,2.545221,-3.014764
90,3.022218,533,196,482,490,0.01444258,0.002915151,0.004904471,-1.483722,3.080722,-0.01143668,0.0004679961,-0.006394191,-0.008050356,-0.2691769,2.544492,-3.014052
90,3.033329,533,196,482,490,0.01428543,0.00810995,0.006500914,-1.483864,3.08069,-0.01115279,-0.0104154,-0.007558716,0.005826787,-0.2686762,2.544454,-3.013528
90,3.04444,423,201,494,497,0.008893772,0.007957902,0.007184225,-1.483768,3.080726,-0.01102922,-0.01057547,-0.01294982,0.009092837,-0.2684972,2.543471,-3.012428
90,3.055551,423,201,494,497,0.00356332,0.00897111,0.006922364,-1.483664,3.080797,-0.01093494,-0.008758519,-0.01062216,0.002948265,-0.2685734,2.543304,-3.012173
90,3.066662,423,201,494,497,0.00138788,0.01213036,0.007097011,-1.483658,3.080839,-0.01076237,-0.003499753,-0.01205853,-0.007852462,-0.2689596,2.542776,-3.011566
90,3.077773,423,201,494,497,-0.002470868,0.01592193,0.0007848558,-1.483537,3.080768,-0.01045291,0.0122446,-0.01096799,-0.01293559,-0.2694752,2.541741,-3.010992
90,3.088884,423,201,494,497,-0.002470868,0.01592193,0.0007848558,-1.483537,3.080768,-0.01045291,0.0122446,-0.01096799,-0.01293559,-0.2694752,2.541741,-3.010992
90,3.099995,360,184,495,499,0.004955279,0.02139681,0.000780451,-1.483745,3.080668,-0.0100268,0.01070404,-0.01026773,-0.01220267,-0.2695966,2.541404,-3.010687
90,3.111106,360,184,495,499,0.01579254,0.02181291,-0.001644629,-1.48403,3.080626,-0.009746104,-0.001124126,-0.008730328,-0.002924557,-0.2692254,2.541361,-3.010369
90,3.122217,360,184,495,499,0.02197183,0.02482907,0.00122392,-1.484444,3.080642,-0.009392437,-0.005880863,-0.0116882,0.006919234,-0.2688823,2.540573,-3.009435
90,3.133328,360,184,495,499,0.02608402,0.02358763,0.003519614,-1.484758,3.080727,-0.009216135,0.00108845,-0.02090986,0.01949282,-0.2684791,2.538251,-3.007193
90,3.144439,390,170,486,498,0.02596822,0.02125789,0.005416181,-1.485008,3.08086,-0.009013202,0.007703478,-0.02236407,0.01774037,-0.2684264,2.536859,-3.006041
90,3.15555,390,170,486,498,0.01103287,0.01996497,0.005320082,-1.484747,3.080891,-0.008830509,0.01191647,-0.02006408,0.00121548,-0.2690123,2.536056,-3.005403
90,3.166661,390,170,486,498,-0.002838688,0.01868453,0.005292539,-1.48437,3.080983,-0.00858763,0.0104449,-0.01497816,-0.01444279,-0.2695577,2.536403,-3.005711
90,3.177772,390,170,486,498,-0.02684417,0.02017059,-0.002711003,-1.483384,3.080853,-0.008440623,0.005287642,-0.01355163,-0.01892054,-0.269873,2.536412,-3.005507
90,3.188883,383,173,506,494,-0.03082325,0.01834508,-0.006433674,-1.482663,3.080704,-0.007968178,-0.0008328706,-0.011104,0.009178469,-0.2690208,2.53498,-3.004078
90,3.199994,383,173,506,494,-0.03082325,0.01834508,-0.006433674,-1.482663,3.080704,-0.007968178,-0.0008328706,-0.011104,0.009178469,-0.2690208,2.53498,-3.004078
90,3.211105,383,173,506,494,-0.02769701,0.01719721,-0.005253912,-1.48223,3.080817,-0.00773382,0.0003566802,-0.009433762,0.0116339,-0.2688227,2.534801,-3.003996
90,3.222216,383,173,506,494,-0.006583467,0.01610384,-0.001665704,-1.482943,3.080835,-0.007669904,0.01105416,-0.008921457,0.004257181,-0.2690858,2.534187,-3.003736
90,3.233327,383,173,506,494,0.01028228,0.009564086,0.002117436,-1.483457,3.080909,-0.00776418,0.01105904,-0.01261713,-0.01540782,-0.2699902,2.533903,-3.003364
90,3.244438,333,154,509,504,0.02611011,0.01171584,0.004539898,-1.48412,3.080996,-0.007535681,0.01069389,-0.007562377,-0.02097157,-0.2702959,2.533942,-3.003376
90,3.255549,333,154,509,504,0.02621152,0.0107652,0.003352885,-1.484788,3.080916,-0.007297061,0.004464768,0.002975175,-0.003862256,-0.2700174,2.535054,-3.00458
90,3.26666,333,154,509,504,0.02215502,0.007760252,0.0006081571,-1.484797,3.080727,-0.007302388,-0.00256759,0.0003828157,0.005454613,-0.2696941,2.534915,-3.004287
90,3.277771,333,154,509,504,0.02215502,0.007760252,0.0006081571,-1.484797,3.080727,-0.007302388,-0.00256759,0.0003828157,0.005454613,-0.2696941,2.534915,-3.004287
90,3.288882,333,154,509,504,0.01614272,0.003876973,-0.004497873,-1.484736,3.080624,-0.007510647,-0.002659424,-0.006353181,0.005454915,-0.269734,2.533947,-3.003313
90,3.299993,368,154,493,498,0.007280616,0.002219963,6.997341E-05,-1.484614,3.080742,-0.007519169,5.601975E-05,-0.002687476,-0.001584469,-0.2699561,2.534098,-3.003536
90,3.311104,368,154,493,498,0.005806794,-0.0001374371,-0.00885648,-1.484576,3.08043,-0.007623565,0.004370285,-0.003756135,-0.003864128,-0.2701292,2.534057,-3.0036
90,3.322215,368,154,493,498,0.001297187,0.001637501,-0.005779952,-1.484485,3.080456,-0.007418502,0.009363735,0.001896389,-0.02349921,-0.2711412,2.534688,-3.004409
90,3.333326,368,154,493,498,0.001297187,0.001637501,-0.005779952,-1.484485,3.080456,-0.007418502,0.009363735,0.001896389,-0.02349921,-0.2711412,2.534688,-3.004409
90,3.344437,398,144,506,496,0.01186486,-0.004842208,-0.003528208,-1.484873,3.080355,-0.007630489,0.002953287,0.0114226,-0.004235492,-0.2706949,2.536353,-3.006231
90,3.355548,398,144,506,496,0.02258059,-0.005707958,-0.003930348,-1.485426,3.080282,-0.007677893,0.001412774,0.009420783,0.00525674,-0.2704046,2.536078,-3.005995
90,3.366659,398,144,506,496,0.03965625,-0.01086637,-0.003268521,-1.486234,3.080198,-0.007901066,0.00491274,0.001622731,0.006094284,-0.270355,2.535143,-3.005212
90,3.37777,398,144,506,496,0.03965625,-0.01086637,-0.003268521,-1.486234,3.080198,-0.007901066,0.00491274,0.001622731,0.006094284,-0.270355,2.535143,-3.005212
90,3.388881,398,144,506,496,0.03962294,-0.008743519,-0.003071325,-1.486635,3.080141,-0.007854727,0.003661456,0.0009681361,0.002518828,-0.2705681,2.535337,-3.005441
90,3.399992,436,166,472,494,0.03562986,-0.006252104,-0.00741331,-1.487379,3.079967,-0.007980961,-0.005741263,0.005141073,-0.00734397,-0.2709665,2.537031,-3.006864
90,3.411103,436,166,472,494,0.03353273,-0.008391951,-0.007778753,-1.487682,3.07985,-0.008137555,-0.006004846,0.00211621,-0.001924561,-0.2708323,2.536811,-3.006663
90,3.422215,436,166,472,494,0.02290643,-0.008473011,-0.008505082,-1.487647,3.079821,-0.008115184,-0.004074145,-0.0006062738,-0.001465542,-0.2708424,2.53658,-3.006414
90,3.433326,436,166,472,494,0.02290643,-0.008473011,-0.008505082,-1.487647,3.079821,-0.008115184,-0.004074145,-0.0006062738,-0.001465542,-0.2708424,2.53658,-3.006414
90,3.444437,406,157,514,500,0.007890407,-0.004456414,-0.008063538,-1.487493,3.079669,-0.008052867,-0.002402193,0.001057669,-0.001080764,-0.2708765,2.536626,-3.006559
90,3.455548,406,157,514,500,-0.00090051,0.0004678862,-0.004968219,-1.487345,3.079708,-0.00789361,0.002732856,0.01143535,-0.003200816,-0.2709394,2.538482,-3.00856
90,3.466659,406,157,514,500,-0.00090051,0.0004678862,-0.004968219,-1.487345,3.079708,-0.00789361,0.002732856,0.01143535,-0.003200816,-0.2709394,2.538482,-3.00856
90,3.47777,406,157,514,500,-0.003206662,-0.003047341,-0.002248089,-1.487108,3.079796,-0.008186025,0.001894088,0.01650279,-0.006690986,-0.2710842,2.540494,-3.010534
90,3.488881,360,149,513,499,0.004103256,-0.004251758,0.0002805084,-1.487365,3.079854,-0.008278702,0.004295347,0.006358567,-0.002813883,-0.2710672,2.539562,-3.009676
90,3.499992,360,149,513,499,0.004103256,-0.004251758,0.0002805084,-1.487365,3.079854,-0.008278702,0.004295347,0.006358567,-0.002813883,-0.2710672,2.539562,-3.009676
90,3.511103,360,149,513,499,0.009651195,-0.004960302,-0.00263646,-1.487735,3.079675,-0.008428905,0.001517404,-0.01280313,0.0064467,-0.2707737,2.536908,-3.006961
90,3.522214,360,149,513,499,0.009651195,-0.004960302,-0.00263646,-1.487735,3.079675,-0.008428905,0.001517404,-0.01280313,0.0064467,-0.2707737,2.536908,-3.006961
90,3.533325,360,149,513,499,0.005325339,0.0003020309,-0.00241988,-1.487763,3.079607,-0.008307464,-0.004318837,-0.0080071,0.00506939,-0.2707391,2.53696,-3.006804
90,3.544436,333,193,508,492,-0.004280352,-0.001995686,-0.002222826,-1.487481,3.079651,-0.008333564,-0.005810741,0.003471916,0.0003030152,-0.2708344,2.538613,-3.008407
90,3.555547,333,193,508,492,-0.009844948,-0.0002295121,0.0007870869,-1.487167,3.07978,-0.008289888,-0.004539239,0.004462871,0.008253194,-0.2705383,2.538489,-3.008297
90,3.566658,333,193,508,492,-0.009844948,-0.0002295121,0.0007870869,-1.487167,3.07978,-0.008289888,-0.004539239,0.004462871,0.008253194,-0.2705383,2.538489,-3.008297
90,3.577769,333,193,508,492,-0.03993497,0.001226751,0.003088864,-1.485585,3.079973,-0.008101868,-0.005620436,-0.004629864,-0.004005163,-0.2709212,2.537413,-3.006926
90,3.58888,333,193,508,492,-0.03993497,0.001226751,0.003088864,-1.485585,3.079973,-0.008101868,-0.005620436,-0.004629864,-0.004005163,-0.2709212,2.537413,-3.006926
90,3.599991,344,201,494,502,-0.08137117,0.0008617225,-7.492583E-05,-1.482933,3.080068,-0.008086955,-0.009686613,-0.01097692,0.002723581,-0.2708414,2.536264,-3.005542
90,3.611102,344,201,494,502,-0.1016941,-0.0005985275,0.0002724342,-1.481215,3.08024,-0.008126902,-0.007949912,-0.01302192,0.01298478,-0.2703902,2.53519,-3.004399
90,3.622213,344,201,494,502,-0.1008456,0.002357385,0.002675749,-1.480164,3.080364,-0.008064052,-0.001245338,-0.01244273,0.007974831,-0.270492,2.534742,-3.004075
90,3.633324,344,201,494,502,-0.08483805,0.002600117,0.002784276,-1.479616,3.08036,-0.008020376,-0.002943545,-0.009722732,0.006482198,-0.2704222,2.534864,-3.004063
90,3.644435,338,169,486,501,-0.06139861,0.008318482,0.003004434,-1.479551,3.080386,-0.007778561,-0.003043817,-0.009049411,0.0009891614,-0.2705271,2.534739,-3.003852
90,3.655546,338,169,486,501,-0.03315308,0.01013393,0.01072991,-1.479967,3.080635,-0.007605988,-0.007823471,-0.004933924,0.0009549663,-0.2705106,2.535474,-3.004401
90,3.666657,338,169,486,501,0.004361485,0.01055032,0.02328342,-1.481009,3.081098,-0.007468569,-0.007389169,-0.003591547,0.002144798,-0.2704536,2.535537,-3.004412
90,3.677768,338,169,486,501,0.02679778,0.008728104,0.02368544,-1.481758,3.081324,-0.007607053,0.0001825122,0.004389975,0.002776939,-0.2704584,2.536266,-3.005393
90,3.688879,338,169,486,501,0.05938193,0.00850779,0.03134877,-1.483347,3.081753,-0.007520767,-0.003630319,0.008486577,-0.001403604,-0.2704994,2.537247,-3.006238
90,3.69999,338,169,486,501,0.05938193,0.00850779,0.03134877,-1.483347,3.081753,-0.007520767,-0.003630319,0.008486577,-0.001403604,-0.2704994,2.537247,-3.006238
90,3.711101,385,188,489,497,0.07967802,0.01422752,0.03114158,-1.484736,3.081935,-0.00727256,-0.007225799,0.002144439,0.003258228,-0.2702443,2.537077,-3.005885
90,3.722212,385,188,489,497,0.06980743,0.007578703,0.02106974,-1.486156,3.081954,-0.007222493,-0.01224545,0.01536378,0.006413077,-0.2698368,2.539531,-3.008157
90,3.733323,385,188,489,497,0.06116658,0.002969107,0.02319005,-1.486715,3.082262,-0.00725232,-0.01051969,0.01836878,-0.005243761,-0.2702736,2.540696,-3.009354
90,3.744434,395,171,479,493,0.04621187,-0.001604788,0.02382976,-1.486851,3.082556,-0.007427024,-0.00347801,0.01354448,-0.00905689,-0.2705047,2.540776,-3.009532
90,3.755545,395,171,479,493,0.03913647,-0.009837927,0.01929694,-1.487145,3.082659,-0.007715178,-0.005397871,0.01626509,-0.009519756,-0.2705857,2.541608,-3.010309
90,3.766656,395,171,479,493,0.02179668,-0.008961423,0.007451788,-1.486856,3.082313,-0.007733287,-0.0116309,0.01299286,0.002166787,-0.270183,2.541816,-3.010301
90,3.777767,395,171,479,493,0.01175873,-0.01362915,-0.001221565,-1.486651,3.082057,-0.008000135,-0.01091854,0.01939547,0.009971449,-0.2697462,2.543327,-3.011853
90,3.788878,395,171,479,493,0.007759524,-0.01547281,-0.00490355,-1.48659,3.081927,-0.008224374,-0.01632943,0.01982394,0.0229334,-0.2690544,2.54403,-3.012444
90,3.799989,395,171,479,493,0.007759524,-0.01547281,-0.00490355,-1.48659,3.081927,-0.008224374,-0.01632943,0.01982394,0.0229334,-0.2690544,2.54403,-3.012444
90,3.8111,399,175,467,494,-0.01243759,-0.02538621,-0.005170838,-1.485718,3.081988,-0.009049421,-0.01022606,0.02073049,0.01013292,-0.2690171,2.5456,-3.01384
90,3.822211,399,175,467,494,-0.02236938,-0.03140358,-6.375578E-05,-1.485041,3.082198,-0.009555954,-0.004942404,0.01762141,-0.008318534,-0.2695849,2.546491,-3.014682
90,3.833322,399,175,467,494,-0.02236938,-0.03140358,-6.375578E-05,-1.485041,3.082198,-0.009555954,-0.004942404,0.01762141,-0.008318534,-0.2695849,2.546491,-3.014682
90,3.844433,425,151,511,499,-0.03240777,-0.03062946,-0.009338873,-1.484018,3.081842,-0.01024944,-0.005631547,0.022678,0.002442166,-0.2692344,2.548389,-3.016475
90,3.855544,425,151,511,499,-0.03113537,-0.02922969,-0.01234594,-1.48376,3.081637,-0.01055943,-0.00611411,0.03345586,0.01433291,-0.2686219,2.550345,-3.018533
90,3.866655,425,151,511,499,-0.01634865,-0.03356405,-0.009623799,-1.483901,3.081603,-0.01112669,-0.004162334,0.03781193,0.004928123,-0.2687641,2.552399,-3.020642
90,3.877766,425,151,511,499,-0.002419151,-0.03651505,-0.01005512,-1.484214,3.081425,-0.01163109,0.001947347,0.04039266,-0.0002085697,-0.268959,2.553937,-3.022338
90,3.888877,425,151,511,499,0.017843,-0.04164253,-0.009228013,-1.484974,3.081357,-0.01224521,0.001471858,0.04445059,-0.003614755,-0.2690032,2.556153,-3.02463
90,3.899988,425,151,511,499,0.017843,-0.04164253,-0.009228013,-1.484974,3.081357,-0.01224521,0.001471858,0.04445059,-0.003614755,-0.2690032,2.556153,-3.02463
90,3.911099,404,152,504,498,0.0389975,-0.04486166,-0.00608165,-1.48627,3.081375,-0.01331847,0.001673296,0.03935584,0.017241,-0.2682869,2.558404,-3.027179
90,3.92221,404,152,504,498,0.03381186,-0.04469037,-0.008585386,-1.486454,3.081284,-0.01392247,-0.003100973,0.03640237,0.02706692,-0.2676711,2.559306,-3.028106
90,3.933321,404,152,504,498,0.01587375,-0.04896279,-0.01128796,-1.486173,3.081323,-0.0146085,-0.01095694,0.04298227,0.02737801,-0.2672812,2.561736,-3.030377
90,3.944432,482,174,504,497,-0.007389031,-0.04786442,-0.01484864,-1.485457,3.081183,-0.01512036,-0.01399833,0.04846097,0.02335535,-0.2670021,2.564306,-3.032873
90,3.955544,482,174,504,497,-0.007389031,-0.04786442,-0.01484864,-1.485457,3.081183,-0.01512036,-0.01399833,0.04846097,0.02335535,-0.2670021,2.564306,-3.032873
90,3.966655,482,174,504,497,-0.05080046,-0.0577244,-0.01887667,-1.483414,3.081114,-0.01660321,-0.005210955,0.04158181,0.0002772147,-0.2673942,2.567649,-3.036304
90,3.977766,482,174,504,497,-0.05305282,-0.05361288,-0.01754538,-1.482901,3.081148,-0.01712945,-0.001776766,0.04353228,-0.002189452,-0.2673446,2.569679,-3.038453
90,3.988877,482,174,504,497,-0.04655732,-0.05660078,-0.01858522,-1.482513,3.081021,-0.01785436,-0.0001144074,0.04619998,-0.002898391,-0.2674,2.572194,-3.041215
90,3.999988,459,168,500,498,-0.03082152,-0.06115702,-0.01381812,-1.482578,3.081031,-0.01854838,-0.001988702,0.05434773,-0.005563127,-0.2674293,2.575298,-3.044358
89.66666,4.011099,459,168,500,498,-0.01589699,-0.05984432,-0.01381924,-1.482788,3.080929,-0.01916837,-0.000519231,0.05631865,0.0002641827,-0.2673004,2.5778,-3.047079
89.33333,4.02221,459,168,500,498,-0.0009850115,-0.06183072,-0.01312685,-1.483287,3.080973,-0.019954,0.003474254,0.05279186,0.01220197,-0.2668636,2.579073,-3.048666
88.99999,4.033321,459,168,500,498,-0.0009850115,-0.06183072,-0.01312685,-1.483287,3.080973,-0.019954,0.003474254,0.05279186,0.01220197,-0.2668636,2.579073,-3.048666
88.66666,4.044433,459,168,500,498,0.01683851,-0.06320971,-0.007992144,-1.483997,3.081052,-0.02151088,0.002090566,0.04128706,0.02834041,-0.2658458,2.580737,-3.050623
88.33332,4.055544,467,166,515,495,0.01680592,-0.06544927,-0.007245223,-1.484131,3.081049,-0.02243181,0.007379618,0.0465627,0.01865718,-0.2658905,2.58297,-3.053184
87.99998,4.066655,467,166,515,495,0.01680592,-0.06544927,-0.007245223,-1.484131,3.081049,-0.02243181,0.007379618,0.0465627,0.01865718,-0.2658905,2.58297,-3.053184
87.66665,4.077766,467,166,515,495,0.01902185,-0.06741959,-0.008475672,-1.484409,3.080981,-0.02324247,0.004609834,0.05244148,0.00372847,-0.2661878,2.58592,-3.056134
87.33331,4.088878,467,166,515,495,0.001211688,-0.07683761,-0.01288884,-1.484109,3.080932,-0.02523931,0.001572479,0.06061189,0.006269906,-0.2658442,2.591664,-3.062087
86.99998,4.099989,456,169,495,499,-0.009229675,-0.08195385,-0.01632971,-1.483648,3.080865,-0.02633227,-0.003473736,0.06816941,0.008317212,-0.265433,2.594714,-3.064977
86.66664,4.1111,456,169,495,499,-0.02180694,-0.09367289,-0.01858242,-1.483019,3.080802,-0.02771925,-0.01406369,0.07721218,0.02216018,-0.2645606,2.598223,-3.06837
86.33331,4.122211,456,169,495,499,-0.04037151,-0.1154865,-0.02678202,-1.48223,3.08065,-0.02959304,-0.01802129,0.0917592,0.03980375,-0.2635198,2.603106,-3.073391
85.99997,4.133323,456,169,495,499,-0.05392915,-0.124808,-0.03107189,-1.481323,3.080658,-0.03128788,-0.01750488,0.09441415,0.04431286,-0.2628742,2.606752,-3.077188
85.66663,4.144434,456,169,495,499,-0.0862348,-0.1432063,-0.04207277,-1.479474,3.080343,-0.0334003,-0.01232012,0.08599664,0.06207038,-0.2617728,2.608976,-3.079755
85.3333,4.155545,447,163,488,496,-0.1114484,-0.1525437,-0.0473289,-1.477582,3.080112,-0.03531298,-0.005990766,0.09670524,0.08006539,-0.2604843,2.613263,-3.084599
84.99996,4.166656,447,163,488,496,-0.1839423,-0.2039208,-0.0574541,-1.473597,3.080054,-0.03898229,-0.004894674,0.1171512,0.08469854,-0.2593354,2.619691,-3.091527
84.66663,4.177768,447,163,488,496,-0.2288066,-0.2308782,-0.0696861,-1.469859,3.079844,-0.04227449,-0.0007425249,0.1290823,0.08243147,-0.2585493,2.6257,-3.098075
84.33329,4.188879,447,163,488,496,-0.281543,-0.2794795,-0.08886139,-1.465189,3.079554,-0.04678056,0.002060607,0.1497726,0.08531713,-0.2574728,2.633726,-3.106758
83.99995,4.19999,449,175,498,500,-0.3172774,-0.3390442,-0.1043188,-1.460888,3.079375,-0.05195348,0.03218549,0.1643887,0.1049421,-0.2561194,2.640298,-3.115207
83.66662,4.211102,449,175,498,500,-0.3172774,-0.3390442,-0.1043188,-1.460888,3.079375,-0.05195348,0.03218549,0.1643887,0.1049421,-0.2561194,2.640298,-3.115207
83.33328,4.222213,449,175,498,500,-0.3001851,-0.4565554,-0.1214581,-1.458002,3.079332,-0.060066,0.06153616,0.2166851,0.1945337,-0.2519702,2.651968,-3.129886
82.99995,4.233324,449,175,498,500,-0.2399138,-0.5318102,-0.1115101,-1.453813,3.080373,-0.07378022,0.07254872,0.3731141,0.09704012,-0.2520224,2.693676,3.108093
82.66661,4.244435,449,175,498,500,-0.2326274,-0.5267531,-0.1041031,-1.451364,3.080938,-0.07950015,0.04339027,0.4142675,0.05768789,-0.2525752,2.716159,3.085394
82.33327,4.255547,423,172,498,497,-0.241698,-0.5339952,-0.1079736,-1.448346,3.081352,-0.08563235,0.03467825,0.4620676,0.04660846,-0.2526291,2.739969,3.060864
81.99994,4.266658,423,172,498,497,-0.2521816,-0.5656467,-0.1202396,-1.445124,3.081775,-0.09302209,0.04825318,0.4997736,0.05821718,-0.2525209,2.76483,3.034321
81.6666,4.277769,423,172,498,497,-0.2516146,-0.6111717,-0.1372619,-1.442196,3.082191,-0.1010206,0.04972428,0.5147544,0.08530316,-0.2516996,2.787801,3.009711
81.33327,4.28888,423,172,498,497,-0.217401,-0.6522127,-0.1418413,-1.440587,3.082864,-0.1096162,0.0717746,0.5517222,0.1040029,-0.2514354,2.814949,2.98024
80.99993,4.299992,423,172,498,497,-0.1616387,-0.6660903,-0.1301988,-1.440295,3.08376,-0.1173367,0.09369832,0.6131613,0.08742984,-0.2527292,2.84614,2.946859
80.6666,4.311103,396,159,492,499,-0.1018184,-0.664522,-0.1148608,-1.440535,3.084776,-0.1247164,0.1042514,0.6475497,0.03648376,-0.255982,2.872842,2.918366
80.33326,4.322214,396,159,492,499,-0.05228561,-0.6693366,-0.1185265,-1.441104,3.085402,-0.1324102,0.1056675,0.6740399,-0.003069699,-0.2588918,2.900698,2.889173
79.99992,4.333325,396,159,492,499,-0.01760948,-0.6762377,-0.1280776,-1.441543,3.085923,-0.1403347,0.09638828,0.6845292,-0.06534606,-0.2626846,2.922049,2.8674
79.66659,4.344437,396,159,492,499,0.0274033,-0.6872841,-0.1527855,-1.442896,3.085778,-0.1485873,0.09380877,0.6744894,-0.05619088,-0.2652753,2.947237,2.841165
79.33325,4.355548,343,160,502,499,0.04477495,-0.7004015,-0.1720879,-1.443593,3.085791,-0.1570328,0.09839547,0.6532079,-0.02200523,-0.2668658,2.970779,2.815995
78.99992,4.366659,343,160,502,499,0.08952302,-0.7054645,-0.1820637,-1.445778,3.085713,-0.1654009,0.1207357,0.6468163,0.01733333,-0.2683167,2.993243,2.79126
78.66658,4.37777,343,160,502,499,0.08952302,-0.7054645,-0.1820637,-1.445778,3.085713,-0.1654009,0.1207357,0.6468163,0.01733333,-0.2683167,2.993243,2.79126
78.33324,4.388882,343,160,502,499,0.0843783,-0.6840741,-0.1776061,-1.447676,3.086549,-0.1806704,0.1410909,0.701058,-0.05400643,-0.2777091,3.045035,2.736543
77.99991,4.399993,343,160,502,499,0.05061162,-0.6825702,-0.182278,-1.447307,3.086974,-0.1884964,0.1231359,0.705657,-0.1045257,-0.2831121,3.067758,2.714015
77.66657,4.411104,238,142,499,498,0.008708835,-0.6737218,-0.1925998,-1.446325,3.087245,-0.196178,0.1244293,0.6900723,-0.1271929,-0.2882297,3.087207,2.693955
77.33324,4.422215,238,142,499,498,-0.01135641,-0.6703714,-0.1980816,-1.445599,3.087608,-0.2039305,0.1266382,0.6580321,-0.07467687,-0.2909583,3.106708,2.672921
76.9999,4.433327,238,142,499,498,-0.01798999,-0.6617465,-0.2045328,-1.445239,3.087819,-0.2114358,0.1530701,0.6531042,-0.02285376,-0.2939906,3.128567,2.64845
76.66656,4.444438,238,142,499,498,-0.01102602,-0.6530907,-0.2004963,-1.445311,3.088285,-0.2188682,0.1799915,0.6328273,-0.0251084,-0.2980466,-3.137517,2.628944
76.33323,4.455549,256,126,496,498,-0.001188397,-0.6468721,-0.2020502,-1.445551,3.088686,-0.2262377,0.1706988,0.6228379,-0.05897677,-0.303268,-3.120873,2.611554
75.99989,4.46666,256,126,496,498,0.001111746,-0.6280857,-0.207136,-1.445545,3.088715,-0.2333153,0.1612847,0.6034185,-0.09300956,-0.3083712,-3.106895,2.597022
75.66656,4.477772,256,126,496,498,-0.002542436,-0.6097044,-0.2170124,-1.445379,3.088383,-0.2400137,0.1775889,0.5854997,-0.09135042,-0.313086,-3.09263,2.581174
75.33322,4.488883,256,126,496,498,0.005856454,-0.5893078,-0.2307352,-1.445532,3.08793,-0.2466401,0.187927,0.5610873,-0.04873209,-0.3160746,-3.078137,2.56447
74.99989,4.499994,256,126,496,498,-0.000772953,-0.5750642,-0.2380207,-1.445198,3.087554,-0.2532389,0.1939624,0.5571413,-0.02838033,-0.3199745,-3.062843,2.547346
74.66655,4.511106,293,135,513,506,-0.002159715,-0.5672501,-0.2402202,-1.445123,3.08738,-0.2598606,0.1851562,0.5615534,-0.0269967,-0.3242154,-3.047902,2.531262
74.33321,4.522217,293,135,513,506,-0.01882374,-0.5543746,-0.2332688,-1.444386,3.087591,-0.2661542,0.1838149,0.542821,-0.04830362,-0.3289867,-3.036748,2.519037
73.99988,4.533328,293,135,513,506,-0.03870904,-0.5415198,-0.2266008,-1.443425,3.087781,-0.2723146,0.1847302,0.5277854,-0.06519632,-0.3335902,-3.026411,2.507639
73.66654,4.544439,293,135,513,506,-0.04709339,-0.5259188,-0.2283384,-1.442558,3.08775,-0.2782854,0.1958037,0.5069507,-0.08268085,-0.3383173,-3.018125,2.497923
73.33321,4.555551,317,163,508,496,-0.03691697,-0.510119,-0.22662,-1.442408,3.08779,-0.2841396,0.1901635,0.495573,-0.07214317,-0.3423893,-3.007646,2.486056
72.99987,4.566662,317,163,508,496,-0.02628845,-0.4983381,-0.2314252,-1.442281,3.08753,-0.2899453,0.1842208,0.4667786,-0.03814566,-0.3450317,-2.99807,2.474876
72.66653,4.577773,317,163,508,496,-0.01049793,-0.4807587,-0.233052,-1.442588,3.08716,-0.2954846,0.1867972,0.4582107,-0.04130097,-0.3489801,-2.989195,2.464726
72.3332,4.588884,317,163,508,496,-0.01253933,-0.4628333,-0.2311232,-1.442225,3.087006,-0.3006437,0.1670485,0.449044,-0.0574394,-0.3531927,-2.980764,2.455914
71.99986,4.599996,317,163,508,496,-0.0181222,-0.449584,-0.2268762,-1.441792,3.086891,-0.3058033,0.1695932,0.4134449,-0.06991361,-0.3569525,-2.975806,2.449927
71.66653,4.611107,368,157,493,497,-0.04557389,-0.4404674,-0.2274975,-1.440467,3.08681,-0.3111355,0.1750902,0.4104529,-0.07303652,-0.3611252,-2.968802,2.441613
71.33319,4.622218,368,157,493,497,-0.05513334,-0.4292018,-0.2290901,-1.439487,3.086614,-0.3162253,0.1788586,0.4081765,-0.07956423,-0.365431,-2.961373,2.433246
70.99986,4.633329,368,157,493,497,-0.06514901,-0.4161119,-0.23187,-1.438416,3.086266,-0.3211314,0.1710362,0.3899886,-0.06834163,-0.3687114,-2.955084,2.425926
70.66652,4.644441,368,157,493,497,-0.08335257,-0.4110627,-0.2307833,-1.436922,3.086215,-0.3261451,0.1755156,0.3833413,-0.06312722,-0.3723461,-2.948947,2.418536
70.33318,4.655552,368,157,493,497,-0.1018704,-0.4014697,-0.2222497,-1.435164,3.086428,-0.3308008,0.1820778,0.3844414,-0.05352154,-0.3761651,-2.942488,2.410569
69.99985,4.666663,419,150,511,507,-0.1115805,-0.4000497,-0.2184781,-1.433559,3.086682,-0.3357841,0.1982144,0.3858591,-0.05426615,-0.3802781,-2.936632,2.403032
69.66651,4.677774,419,150,511,507,-0.0965457,-0.4046959,-0.2133081,-1.432891,3.086959,-0.3407365,0.208915,0.3730438,-0.04462796,-0.3838451,-2.931639,2.396095
69.33318,4.688886,419,150,511,507,-0.07354209,-0.4171965,-0.2180758,-1.432636,3.087162,-0.3462274,0.2129906,0.3678995,-0.0307053,-0.3872337,-2.925828,2.388557
68.99984,4.699997,419,150,511,507,-0.0614416,-0.4408865,-0.2319588,-1.432096,3.087251,-0.35248,0.21168,0.3843457,-0.0254292,-0.3914176,-2.918189,2.37961
68.6665,4.711108,468,147,507,500,-0.0515644,-0.46487,-0.2586899,-1.431654,3.087029,-0.3593568,0.2168995,0.3730544,-0.03626007,-0.3953921,-2.913779,2.373616
68.33317,4.722219,468,147,507,500,-0.07332775,-0.4401315,-0.2451794,-1.430148,3.087326,-0.3641676,0.2004446,0.364039,-0.06310464,-0.3996121,-2.90964,2.368974
67.99983,4.733331,468,147,507,500,-0.1270347,-0.408123,-0.2226279,-1.427232,3.087928,-0.3681975,0.2045475,0.3682302,-0.06615131,-0.4039413,-2.904271,2.362252
67.6665,4.744442,468,147,507,500,-0.1421984,-0.4077362,-0.2265598,-1.425103,3.088253,-0.3733976,0.2083774,0.3514465,-0.05223517,-0.4073172,-2.900111,2.356471
67.33316,4.755553,468,147,507,500,-0.1224665,-0.42812,-0.2288188,-1.42436,3.088808,-0.3792405,0.207949,0.3317331,-0.02169609,-0.4100022,-2.895116,2.349602
66.99982,4.766665,436,167,497,497,-0.1109163,-0.443226,-0.2365138,-1.423362,3.089282,-0.3852715,0.2152717,0.3255376,-0.00629802,-0.4130659,-2.890507,2.343001
66.66649,4.777776,436,167,497,497,-0.1109163,-0.443226,-0.2365138,-1.423362,3.089282,-0.3852715,0.2152717,0.3255376,-0.00629802,-0.4130659,-2.890507,2.343001
66.33315,4.788887,436,167,497,497,-0.0520851,-0.4678199,-0.261214,-1.423109,3.089584,-0.3980403,0.2525592,0.3632511,-0.05576248,-0.4228849,-2.881911,2.330882
65.99982,4.799998,436,167,497,497,-0.04822674,-0.4375359,-0.249419,-1.422565,3.089757,-0.4027616,0.2481945,0.3704311,-0.09019482,-0.4280754,-2.879007,2.327147
65.66648,4.81111,341,154,510,498,-0.06030393,-0.4084927,-0.2304141,-1.421621,3.090374,-0.4072208,0.2507892,0.3913505,-0.09368619,-0.4331578,-2.874012,2.320769
65.33315,4.822221,341,154,510,498,-0.04950887,-0.41477,-0.230186,-1.421247,3.090871,-0.4126435,0.2371872,0.3879244,-0.05251415,-0.4367296,-2.868003,2.313247
64.99981,4.833332,341,154,510,498,-0.03734133,-0.4234299,-0.2361209,-1.421022,3.091281,-0.4183874,0.2334854,0.3811745,-0.02084716,-0.440122,-2.862535,2.306028
64.66647,4.844443,341,154,510,498,-0.02622536,-0.4386679,-0.2476699,-1.420933,3.091683,-0.4245185,0.2402204,0.3877426,-0.0003946722,-0.4440395,-2.856539,2.298045
64.33314,4.855555,341,154,510,498,-0.02285177,-0.4574194,-0.2582357,-1.420533,3.092251,-0.4309836,0.2525649,0.3901342,-0.01437423,-0.4487789,-2.852688,2.292375
63.99981,4.866666,330,142,505,499,-0.01319653,-0.4665936,-0.2674693,-1.42058,3.092666,-0.4373645,0.2592476,0.3868992,-0.04996409,-0.4538474,-2.850318,2.288837
63.66647,4.877777,330,142,505,499,-0.01172614,-0.4465161,-0.2537073,-1.420369,3.093111,-0.4423686,0.2601241,0.3843827,-0.06768696,-0.4587322,-2.847385,2.284689
63.33314,4.888888,330,142,505,499,-0.01339382,-0.4136975,-0.2416726,-1.420058,3.093392,-0.4467383,0.2796379,0.3882442,-0.09396683,-0.4642763,-2.845596,2.28126
62.99981,4.9,330,142,505,499,-0.01300082,-0.4094557,-0.2405818,-1.419186,3.093618,-0.4513983,0.2993717,0.3978525,-0.09968647,-0.4699505,-2.842932,2.276744
62.66648,4.911111,330,142,505,499,-0.007050276,-0.4208417,-0.2485269,-1.418805,3.093965,-0.4568877,0.3097535,0.4012032,-0.09806724,-0.4754685,-2.839812,2.271914
62.33315,4.922222,350,146,497,496,-0.00883764,-0.4246808,-0.2454826,-1.418625,3.094685,-0.4624537,0.2931556,0.3975457,-0.06882307,-0.4797573,-2.835521,2.266022
61.99981,4.933333,350,146,497,496,-0.01412719,-0.4314504,-0.2459152,-1.417894,3.095434,-0.4676617,0.2828476,0.4079478,-0.0438627,-0.4842293,-2.830168,2.259144
61.66648,4.944445,350,146,497,496,-0.02436966,-0.4440857,-0.2586672,-1.417252,3.096099,-0.4738637,0.2751546,0.4153907,-0.0259594,-0.4887524,-2.824769,2.25213
61.33315,4.955556,350,146,497,496,-0.02668893,-0.4612446,-0.2756201,-1.416409,3.096762,-0.4800806,0.2661002,0.4199365,-0.02086316,-0.4933857,-2.820329,2.246475
60.99982,4.966667,400,120,519,504,-0.003353775,-0.4809746,-0.300272,-1.416923,3.097082,-0.4872679,0.2569914,0.4175983,-0.009253085,-0.4974976,-2.815484,2.240213
60.66648,4.977778,400,120,519,504,0.01730722,-0.468606,-0.3054094,-1.417459,3.097131,-0.4931855,0.2716693,0.4351045,-0.008427128,-0.5028783,-2.810439,2.233492
60.33315,4.98889,400,120,519,504,0.0317573,-0.4474485,-0.3080786,-1.418109,3.096947,-0.4986993,0.2909213,0.4254026,-0.03027196,-0.5083607,-2.808209,2.2295
59.99982,5.000001,400,120,519,504,0.04618222,-0.4155784,-0.2878501,-1.418769,3.097228,-0.5034744,0.2749831,0.4175568,-0.05656935,-0.5133173,-2.805363,2.2262
59.66649,5.011112,400,120,519,504,0.04901892,-0.3961051,-0.2713095,-1.419408,3.097539,-0.508145,0.2659391,0.3928978,-0.04585651,-0.5173845,-2.802423,2.221925
59.33316,5.022223,421,131,492,497,0.04474974,-0.3941753,-0.2724972,-1.419639,3.097797,-0.5135171,0.2483707,0.3735383,-0.01373845,-0.5206863,-2.798414,2.216496
58.99982,5.033335,421,131,492,497,0.02067673,-0.3948976,-0.2661768,-1.418998,3.098516,-0.518886,0.2381439,0.3644129,-0.001391992,-0.5243999,-2.794643,2.211542
58.66649,5.044446,421,131,492,497,-0.01168129,-0.397682,-0.2629262,-1.418008,3.099346,-0.5242432,0.2238828,0.373741,0.03024027,-0.5277666,-2.7888,2.204441
58.33316,5.055557,421,131,492,497,-0.03287014,-0.4070172,-0.263127,-1.417103,3.100319,-0.5299802,0.2181937,0.3790314,0.04175164,-0.5316772,-2.783763,2.198184
57.99983,5.066669,421,131,492,497,-0.03287014,-0.4070172,-0.263127,-1.417103,3.100319,-0.5299802,0.2181937,0.3790314,0.04175164,-0.5316772,-2.783763,2.198184
57.6665,5.07778,388,141,503,498,-0.1181033,-0.4754642,-0.287185,-1.412811,3.103615,-0.5440108,0.2106549,0.3882146,0.06679268,-0.5393444,-2.773158,2.184907
57.33316,5.088891,388,141,503,498,-0.1497871,-0.4895628,-0.2885433,-1.410304,3.105508,-0.5507737,0.2054357,0.3760543,0.07568197,-0.5426052,-2.768483,2.178891
56.99983,5.100002,388,141,503,498,-0.2037794,-0.4958161,-0.2601321,-1.40692,3.108363,-0.5566928,0.1731888,0.3524696,0.1096624,-0.5443847,-2.762676,2.172016
56.6665,5.111114,388,141,503,498,-0.2134511,-0.4887166,-0.2465411,-1.404575,3.110647,-0.562645,0.1681537,0.3496441,0.1381397,-0.5469409,-2.756843,2.16442
56.33317,5.122225,365,130,493,497,-0.1973784,-0.4747295,-0.2311325,-1.40296,3.112724,-0.5679532,0.1794162,0.3638752,0.162218,-0.5500829,-2.750087,2.155715
55.99984,5.133336,365,130,493,497,-0.1641603,-0.4595168,-0.2301531,-1.402111,3.114224,-0.5733775,0.1875822,0.3470766,0.1455423,-0.5534129,-2.746192,2.150352
55.6665,5.144447,365,130,493,497,-0.118442,-0.4362522,-0.2320531,-1.402008,3.11527,-0.5784546,0.1957399,0.3435938,0.1195423,-0.5570768,-2.742621,2.14554
55.33317,5.155559,365,130,493,497,-0.118442,-0.4362522,-0.2320531,-1.402008,3.11527,-0.5784546,0.1957399,0.3435938,0.1195423,-0.5570768,-2.742621,2.14554
54.99984,5.16667,364,138,504,495,-0.07787025,-0.4155042,-0.2478435,-1.401081,3.117339,-0.589169,0.2117176,0.3066277,0.07137746,-0.5637054,-2.738677,2.139019
54.66651,5.177781,364,138,504,495,-0.08686233,-0.4118974,-0.2484767,-1.399872,3.118763,-0.5945027,0.2117437,0.3099985,0.05505234,-0.5673907,-2.735832,2.135248
54.33318,5.188892,364,138,504,495,-0.09344739,-0.414701,-0.2485709,-1.398659,3.120424,-0.5999985,0.2051349,0.3349676,0.05848125,-0.5712432,-2.731068,2.129639
53.99984,5.200004,364,138,504,495,-0.1014061,-0.4271953,-0.2573062,-1.3974,3.122145,-0.6060113,0.2054956,0.3697561,0.07988659,-0.5754244,-2.72505,2.12254
53.66651,5.211115,364,138,504,495,-0.09884021,-0.4468913,-0.2870235,-1.396492,3.12353,-0.6128333,0.2163844,0.4015765,0.09527171,-0.5799555,-2.719011,2.115212
53.33318,5.222226,349,139,504,501,-0.1005964,-0.4823722,-0.3330061,-1.395286,3.124909,-0.6210502,0.2096101,0.4078838,0.1092601,-0.5838331,-2.713238,2.108365
52.99985,5.233337,349,139,504,501,-0.1091182,-0.4679938,-0.320394,-1.393882,3.126536,-0.6268634,0.1912004,0.3854015,0.1096638,-0.5867386,-2.708887,2.103231
52.66652,5.244449,349,139,504,501,-0.1310102,-0.4678941,-0.2921975,-1.392049,3.128995,-0.6325955,0.1806898,0.3903511,0.1190898,-0.590247,-2.703176,2.096753
52.33318,5.25556,349,139,504,501,-0.1461833,-0.4832544,-0.277571,-1.390195,3.131934,-0.6389728,0.1682084,0.396229,0.132217,-0.5936937,-2.696942,2.089777
51.99985,5.266671,336,137,492,498,-0.1502863,-0.4877442,-0.2552913,-1.388692,3.134927,-0.6448658,0.1647063,0.3922229,0.146749,-0.5969358,-2.691057,2.082861
51.66652,5.277782,336,137,492,498,-0.1512656,-0.5053207,-0.2560301,-1.387375,3.13787,-0.6514843,0.1708504,0.3787502,0.1588968,-0.5999985,-2.686096,2.076432
51.33319,5.288894,336,137,492,498,-0.1512656,-0.5053207,-0.2560301,-1.387375,3.13787,-0.6514843,0.1708504,0.3787502,0.1588968,-0.5999985,-2.686096,2.076432
50.99986,5.300005,336,137,492,498,-0.1348611,-0.5044717,-0.2765743,-1.386501,3.139911,-0.6581651,0.1814602,0.3595701,0.1578345,-0.6031058,-2.68207,2.07081
50.66652,5.311116,336,137,492,498,-0.09799117,-0.4503578,-0.2810249,-1.385267,-3.140403,-0.6693568,0.1970207,0.3376567,0.1203748,-0.6102011,-2.675708,2.062052
50.33319,5.322227,346,125,512,500,-0.08849367,-0.4264626,-0.2628845,-1.384667,-3.138588,-0.6742804,0.2010566,0.3468331,0.1042322,-0.614215,-2.672044,2.057593
49.99986,5.333339,346,125,512,500,-0.09710491,-0.4420839,-0.2587065,-1.383541,-3.135926,-0.6804227,0.2068476,0.3631822,0.08677079,-0.6186949,-2.668223,2.053166
49.66653,5.34445,346,125,512,500,-0.1197996,-0.4585532,-0.2550026,-1.381895,-3.132972,-0.6865405,0.2024829,0.3722869,0.07881194,-0.6228702,-2.66407,2.048658
49.33319,5.355561,346,125,512,500,-0.1397911,-0.4697675,-0.2585899,-1.38011,-3.13004,-0.6926776,0.2003196,0.36968,0.08699359,-0.6265742,-2.660044,2.043621
48.99986,5.366673,346,125,512,500,-0.1678015,-0.5231391,-0.3146657,-1.3777,-3.126842,-0.7014516,0.1971043,0.3599655,0.1002713,-0.6299596,-2.655988,2.038517
48.66653,5.377784,324,108,498,498,-0.1702785,-0.5370407,-0.3405675,-1.375942,-3.124138,-0.7094336,0.1900967,0.3525998,0.1292037,-0.6330499,-2.650987,2.032192
48.3332,5.388895,324,108,498,498,-0.1702785,-0.5370407,-0.3405675,-1.375942,-3.124138,-0.7094336,0.1900967,0.3525998,0.1292037,-0.6330499,-2.650987,2.032192
47.99987,5.400006,324,108,498,498,-0.1779307,-0.512694,-0.2863293,-1.372498,-3.117697,-0.7212527,0.2163447,0.3827587,0.1426728,-0.6414282,-2.641471,2.020168
47.66653,5.411118,324,108,498,498,-0.1738499,-0.5024151,-0.2747951,-1.371004,-3.114655,-0.7271138,0.226633,0.3713627,0.105726,-0.645848,-2.639058,2.017072
47.3332,5.422229,384,110,512,498,-0.1547928,-0.5054588,-0.2844359,-1.370031,-3.111844,-0.7336998,0.2184749,0.3454008,0.08986644,-0.6492105,-2.636768,2.013935
46.99987,5.43334,384,110,512,498,-0.1291444,-0.5123427,-0.3040799,-1.369389,-3.108992,-0.7407827,0.2162802,0.327288,0.1039096,-0.6524675,-2.633222,2.008962
46.66654,5.444451,384,110,512,498,-0.1291444,-0.5123427,-0.3040799,-1.369389,-3.108992,-0.7407827,0.2162802,0.327288,0.1039096,-0.6524675,-2.633222,2.008962
46.33321,5.455563,384,110,512,498,-0.1105345,-0.5156598,-0.3252665,-1.368782,-3.1064,-0.7479637,0.2224731,0.3438772,0.1235885,-0.6564745,-2.628831,2.003211
45.99987,5.466674,384,110,512,498,-0.05611414,-0.5137914,-0.3967123,-1.368635,-3.102638,-0.7637163,0.2164856,0.39133,0.1358064,-0.6653839,-2.618561,1.991533
45.66654,5.477785,401,108,511,499,-0.03520507,-0.4763955,-0.378462,-1.36873,-3.100988,-0.7692951,0.2080573,0.3883352,0.1344402,-0.6692225,-2.614411,1.986794
45.33321,5.488896,401,108,511,499,-0.02515262,-0.4442634,-0.350515,-1.368783,-3.099191,-0.7744238,0.212763,0.3915845,0.1323969,-0.6733568,-2.610355,1.982008
44.99988,5.500008,401,108,511,499,-0.02383274,-0.4421266,-0.3442134,-1.368711,-3.096883,-0.7805485,0.2223319,0.3898311,0.1379643,-0.6776136,-2.606353,1.976846
44.66655,5.511119,401,108,511,499,-0.03128314,-0.4529608,-0.3582651,-1.36827,-3.094624,-0.7876129,0.2308455,0.3695099,0.1194141,-0.6816446,-2.604083,1.973408
44.33321,5.52223,394,105,500,498,-0.05112636,-0.4693813,-0.3543283,-1.367444,-3.091559,-0.7944827,0.2272729,0.3593788,0.1090444,-0.6855856,-2.601091,1.969699
43.99988,5.533341,394,105,500,498,-0.06937701,-0.4762526,-0.3516011,-1.36639,-3.088539,-0.8010885,0.2247027,0.3483307,0.09042531,-0.6895339,-2.598683,1.966804
43.66655,5.544453,394,105,500,498,-0.08530456,-0.4915259,-0.3500744,-1.3652,-3.085206,-0.8078033,0.2263591,0.3546249,0.09852134,-0.6936554,-2.595149,1.96249
43.33322,5.555564,394,105,500,498,-0.08598673,-0.4887311,-0.3589239,-1.364523,-3.08251,-0.8147249,0.2171387,0.3518661,0.126508,-0.6971213,-2.590786,1.957063
42.99989,5.566675,394,105,500,498,-0.08206177,-0.4828723,-0.3717495,-1.363871,-3.080085,-0.8216677,0.2039893,0.3524653,0.1416692,-0.7005493,-2.58638,1.951912
42.66655,5.577786,391,111,501,500,-0.08025783,-0.4719113,-0.3762745,-1.363144,-3.077811,-0.8281302,0.2136788,0.3452176,0.1410552,-0.7043566,-2.583441,1.947794
42.33322,5.588898,391,111,501,500,-0.08482748,-0.4730251,-0.376594,-1.362304,-3.074989,-0.8349116,0.2267061,0.3376037,0.1240603,-0.7084179,-2.580832,1.944352
41.99989,5.600009,391,111,501,500,-0.08817822,-0.4734241,-0.379725,-1.361536,-3.072199,-0.8416617,0.2445413,0.3214263,0.1023414,-0.7125687,-2.579563,1.941868
41.66656,5.61112,391,111,501,500,-0.08299994,-0.4823798,-0.4047139,-1.36091,-3.069474,-0.8493641,0.259874,0.3095774,0.07703635,-0.7167712,-2.578687,1.939875
41.33323,5.622231,391,111,501,500,-0.07791978,-0.497815,-0.4556352,-1.360224,-3.067014,-0.8583645,0.2632668,0.3047286,0.07358256,-0.7208709,-2.576997,1.937144
40.99989,5.633343,312,119,512,500,-0.07360625,-0.4878902,-0.4651871,-1.359557,-3.064635,-0.8658778,0.2687687,0.3126096,0.08341558,-0.7250803,-2.574526,1.933373
40.66656,5.644454,312,119,512,500,-0.06669396,-0.4505615,-0.4268518,-1.359136,-3.062591,-0.8714252,0.2862935,0.3550785,0.1172286,-0.730406,-2.570142,1.927531
40.33323,5.655565,312,119,512,500,-0.06465504,-0.4225114,-0.4018263,-1.358542,-3.060702,-0.8768969,0.3007139,0.3701305,0.1264108,-0.7356514,-2.566919,1.922838
39.9999,5.666677,312,119,512,500,-0.04818401,-0.4053935,-0.4026269,-1.358496,-3.059061,-0.8829934,0.2938659,0.3624691,0.1123658,-0.7401643,-2.564546,1.919666
39.66656,5.677788,339,142,485,493,-0.03901869,-0.4025653,-0.4181143,-1.358386,-3.057199,-0.8900045,0.2845233,0.3383411,0.09993824,-0.7440286,-2.563219,1.917452
39.33323,5.688899,339,142,485,493,-0.04299167,-0.4068933,-0.4187634,-1.357944,-3.054841,-0.8966336,0.2836307,0.3134986,0.09085654,-0.7478892,-2.562063,1.915029
38.9999,5.70001,339,142,485,493,-0.0526717,-0.4076776,-0.4203695,-1.357211,-3.052523,-0.9031754,0.2634588,0.2794393,0.09831725,-0.7506716,-2.560655,1.912341
38.66657,5.711122,339,142,485,493,-0.06089896,-0.410078,-0.4307032,-1.35647,-3.050233,-0.9101017,0.2462056,0.2783169,0.1165629,-0.7539217,-2.557647,1.908192
38.33324,5.722233,339,142,485,493,-0.08414268,-0.4386505,-0.4749213,-1.355068,-3.047341,-0.9187996,0.2536715,0.2918101,0.1602536,-0.7578264,-2.553832,1.902335
37.9999,5.733344,351,124,500,499,-0.09230238,-0.4537638,-0.5092527,-1.354171,-3.044777,-0.9272573,0.2652031,0.2911247,0.190154,-0.7615277,-2.551023,1.897176
37.66657,5.744455,351,124,500,499,-0.1021104,-0.4532102,-0.5226983,-1.352886,-3.042205,-0.9354354,0.2691231,0.2842631,0.188644,-0.7652796,-2.548631,1.892934
37.33324,5.755567,351,124,500,499,-0.1067607,-0.4354073,-0.4963812,-1.351825,-3.039693,-0.9419776,0.2814388,0.2715622,0.1690728,-0.7694048,-2.547348,1.89
36.99991,5.766678,351,124,500,499,-0.1018334,-0.4057443,-0.4428118,-1.351054,-3.037342,-0.9469545,0.2968488,0.2613615,0.1404796,-0.7736339,-2.546824,1.887808
36.66658,5.777789,352,136,504,502,-0.08114195,-0.3936262,-0.4389572,-1.350829,-3.035266,-0.9533781,0.2974242,0.2582661,0.1290044,-0.7777123,-2.54541,1.885072
36.33324,5.7889,352,136,504,502,-0.0554131,-0.3727451,-0.4555782,-1.350862,-3.033971,-0.9601649,0.2917045,0.2430934,0.1213805,-0.7811542,-2.544518,1.88261
35.99991,5.800012,352,136,504,502,-0.03351447,-0.3429462,-0.4629418,-1.350897,-3.033026,-0.9665975,0.2887991,0.2054254,0.1202613,-0.7840394,-2.544255,1.880207
35.66658,5.811123,352,136,504,502,-0.01840156,-0.3216571,-0.4634265,-1.350951,-3.032009,-0.972611,0.2978331,0.1987835,0.1165752,-0.7876608,-2.543773,1.877655
35.33325,5.822234,352,136,504,502,0.003570646,-0.2927285,-0.4707965,-1.351296,-3.03173,-0.9785578,0.3105525,0.1888537,0.1200502,-0.7913828,-2.543499,1.874984
34.99992,5.833345,389,134,499,499,0.0266524,-0.2650909,-0.4772505,-1.352049,-3.031659,-0.9844418,0.31894,0.1896519,0.1115371,-0.7953057,-2.543354,1.872796
34.66658,5.844457,389,134,499,499,0.03835288,-0.2534076,-0.4826311,-1.352597,-3.031359,-0.9905638,0.3156933,0.1757222,0.114211,-0.7985632,-2.543188,1.870342
34.33325,5.855568,389,134,499,499,0.03787214,-0.2451722,-0.484989,-1.352817,-3.030671,-0.9966981,0.3254553,0.165902,0.1143667,-0.8021089,-2.54335,1.86801
33.99992,5.866679,389,134,499,499,0.03787214,-0.2451722,-0.484989,-1.352817,-3.030671,-0.9966981,0.3254553,0.165902,0.1143667,-0.8021089,-2.54335,1.86801
33.66659,5.87779,350,131,500,499,0.01650462,-0.2722861,-0.4728872,-1.352823,-3.027676,-1.009328,0.3338816,0.1534905,0.09532633,-0.8093645,-2.544225,1.864443
33.33326,5.888902,350,131,500,499,-0.001503974,-0.2968386,-0.4705771,-1.352478,-3.025428,-1.015886,0.3333355,0.1463903,0.09599689,-0.8127872,-2.544442,1.862271
32.99992,5.900013,350,131,500,499,-0.01416874,-0.3109459,-0.4730723,-1.352111,-3.023324,-1.022671,0.3393134,0.1470066,0.1095603,-0.8164565,-2.544447,1.859625
32.66659,5.911124,350,131,500,499,-0.01048863,-0.309367,-0.4867961,-1.352104,-3.021841,-1.029469,0.3336233,0.1504029,0.125454,-0.8198126,-2.543946,1.85668
32.33326,5.922235,350,131,500,499,-0.009536266,-0.3200884,-0.5271623,-1.351853,-3.020176,-1.037744,0.3241329,0.1549248,0.1374419,-0.8231139,-2.543092,1.853528
31.99993,5.933347,327,128,500,500,0.006133497,-0.3346379,-0.6307383,-1.352063,-3.01913,-1.049095,0.3336206,0.1752976,0.1621706,-0.8272279,-2.541457,1.849355
31.66659,5.944458,327,128,500,500,0.02491033,-0.30706,-0.6335385,-1.352581,-3.018658,-1.056853,0.3476992,0.1809644,0.163078,-0.8314586,-2.54093,1.84615
31.33326,5.955569,327,128,500,500,0.01120263,-0.3020222,-0.6288359,-1.35215,-3.017112,-1.064182,0.3600993,0.1817978,0.1468407,-0.8356701,-2.540983,1.843901
30.99992,5.966681,327,128,500,500,0.01521724,-0.2992752,-0.580228,-1.352477,-3.0153,-1.070455,0.3606827,0.180008,0.1476117,-0.8396451,-2.540646,1.841057
30.66659,5.977792,327,128,500,500,0.03883386,-0.278432,-0.5145177,-1.353577,-3.014015,-1.075183,0.3612589,0.1782127,0.1483791,-0.8436234,-2.540324,1.838222
30.33326,5.988903,327,128,500,500,0.05342031,-0.2843991,-0.5174229,-1.354506,-3.012394,-1.082162,0.3375173,0.1894099,0.1573521,-0.8468389,-2.538159,1.834663
29.99992,6.000014,327,128,500,500,0.06582171,-0.2668751,-0.5323634,-1.355276,-3.011686,-1.089103,0.3279504,0.1569834,0.1577528,-0.8497966,-2.538731,1.832115
29.66659,6.011126,327,128,500,500,0.07722849,-0.2495931,-0.5459448,-1.356173,-3.011097,-1.09607,0.3243736,0.1437979,0.1550959,-0.8529918,-2.538935,1.829828
29.33325,6.022237,327,128,500,500,0.09320033,-0.2315585,-0.5791304,-1.357348,-3.011037,-1.103655,0.3276151,0.1188502,0.1549229,-0.8559682,-2.539623,1.827455
28.99992,6.033348,327,128,500,500,0.09814048,-0.2293312,-0.6086674,-1.358285,-3.010386,-1.111738,0.3373528,0.1020503,0.1529185,-0.8589818,-2.539977,1.825052
28.66659,6.044459,327,128,500,500,0.1023314,-0.2212848,-0.6428428,-1.359215,-3.010212,-1.120202,0.3458678,0.08341584,0.1534615,-0.8621004,-2.54103,1.822674
28.33325,6.055571,327,128,500,500,0.1037361,-0.2048624,-0.6350236,-1.360008,-3.009924,-1.127295,0.3525696,0.07070872,0.1357521,-0.8654411,-2.542469,1.821183
27.99992,6.066682,327,128,500,500,0.09578568,-0.200464,-0.5951749,-1.360736,-3.009037,-1.133334,0.3610023,0.06181887,0.1123589,-0.8688968,-2.544435,1.820325
27.66658,6.077793,327,128,500,500,0.07913959,-0.2065624,-0.5665931,-1.361005,-3.007622,-1.139473,0.3579494,0.09063894,0.09765041,-0.8728287,-2.545025,1.818985
27.33325,6.088904,327,128,500,500,0.07668263,-0.2162247,-0.5761456,-1.36168,-3.006468,-1.147001,0.3416019,0.1039496,0.1026233,-0.8761938,-2.544888,1.816888
26.99992,6.100016,327,128,500,500,0.07902294,-0.2176229,-0.5872979,-1.36251,-3.005514,-1.154433,0.3209335,0.1254013,0.1508046,-0.8792485,-2.543086,1.812607
26.66658,6.111127,327,128,500,500,0.07283014,-0.2425466,-0.5887423,-1.363265,-3.003445,-1.162012,0.3215916,0.1356245,0.1763132,-0.8827388,-2.542522,1.809042
26.33325,6.122238,327,128,500,500,0.06199342,-0.2371318,-0.5944194,-1.363576,-3.00227,-1.169427,0.3090844,0.1359059,0.1996775,-0.8857274,-2.541219,1.804949
25.99991,6.133349,327,128,500,500,0.05788553,-0.2350956,-0.599094,-1.363913,-3.000885,-1.176682,0.2960316,0.117039,0.2126556,-0.8879378,-2.54081,1.801435
25.66658,6.144461,187,126,491,500,0.06163394,-0.2229797,-0.6041161,-1.364553,-2.999977,-1.184033,0.3058189,0.0807797,0.2038087,-0.8904705,-2.541838,1.798837
25.33325,6.155572,187,126,491,500,0.06575835,-0.2201392,-0.6095625,-1.365346,-2.998718,-1.191528,0.3265065,0.06404389,0.1893838,-0.8935177,-2.543053,1.796599
24.99991,6.166683,187,126,491,500,0.07819742,-0.2034067,-0.6125511,-1.366365,-2.998211,-1.198738,0.3478242,0.06714886,0.1658939,-0.8973484,-2.544308,1.794864
24.66658,6.177794,187,126,491,500,0.08863437,-0.188921,-0.6129144,-1.36745,-2.997534,-1.205862,0.3502645,0.07971519,0.1470266,-0.9009703,-2.544847,1.793093
24.33324,6.188906,190,124,498,499,0.09376472,-0.1848243,-0.6128641,-1.368511,-2.996736,-1.213055,0.3440783,0.08063431,0.1389726,-0.9042321,-2.545437,1.79122
23.99991,6.200017,190,124,498,499,0.09781498,-0.1668735,-0.6191697,-1.369431,-2.996414,-1.220325,0.3290598,0.1031053,0.159627,-0.9074636,-2.544242,1.787637
23.66658,6.211128,190,124,498,499,0.09291106,-0.1716797,-0.6224946,-1.370288,-2.995346,-1.227855,0.324419,0.1051938,0.1795013,-0.9107041,-2.544094,1.784376
23.33324,6.222239,190,124,498,499,0.0834462,-0.1820867,-0.6231961,-1.370963,-2.993998,-1.235323,0.3150562,0.08132766,0.1945056,-0.9131537,-2.544264,1.78113
22.99991,6.233351,190,124,498,499,0.07376605,-0.1935657,-0.6250331,-1.371533,-2.992419,-1.242902,0.3067319,0.05013908,0.1902563,-0.9152821,-2.54524,1.778847
22.66657,6.244462,184,123,495,499,0.06821662,-0.204951,-0.6279916,-1.372152,-2.990641,-1.250585,0.3067119,0.03268032,0.1823877,-0.9177221,-2.546268,1.77658
22.33324,6.255573,184,123,495,499,0.06202072,-0.1925422,-0.6262223,-1.372622,-2.989633,-1.257842,0.3060212,0.03552714,0.1576613,-0.9205797,-2.547025,1.774993
21.99991,6.266685,184,123,495,499,0.0415566,-0.2082338,-0.6198993,-1.372587,-2.987439,-1.265251,0.2973239,0.03090197,0.110441,-0.9232023,-2.548686,1.775006
21.66657,6.277796,184,123,495,499,0.01278228,-0.2382068,-0.6279926,-1.372152,-2.98435,-1.27332,0.2892841,0.0327142,0.09939638,-0.9259838,-2.549509,1.773984
21.33324,6.288907,181,119,496,499,-0.01745653,-0.2782981,-0.6456327,-1.371532,-2.980582,-1.282006,0.2815182,0.03042428,0.1024942,-0.9283715,-2.550272,1.772341
20.9999,6.300018,181,119,496,499,-0.03797585,-0.3267657,-0.6307047,-1.371099,-2.97584,-1.289896,0.2877194,0.02384043,0.1116702,-0.9309793,-2.551317,1.77056
20.66657,6.31113,181,119,496,499,-0.0516057,-0.3527439,-0.6091462,-1.370641,-2.97151,-1.297086,0.2902744,0.007392645,0.1199969,-0.9332696,-2.552749,1.768778
20.33324,6.322241,181,119,496,499,-0.03918976,-0.3393269,-0.6053506,-1.370792,-2.968254,-1.304502,0.3053938,-0.01005194,0.1108151,-0.935887,-2.554967,1.767712
19.9999,6.333352,181,119,496,499,-0.02690446,-0.3343389,-0.6073242,-1.371303,-2.965002,-1.312173,0.3093854,-0.03357428,0.07982913,-0.9381917,-2.55788,1.767927
19.66657,6.344463,189,119,524,500,-0.009638309,-0.2881797,-0.6098636,-1.371657,-2.963357,-1.319404,0.3073581,-0.03124952,0.07616651,-0.9406775,-2.559735,1.767168
19.33323,6.355575,189,119,524,500,0.00945276,-0.2465184,-0.6104405,-1.372123,-2.961946,-1.326544,0.3004113,-0.0266245,0.08968934,-0.9430818,-2.560957,1.7655
18.9999,6.366686,189,119,524,500,0.01993871,-0.227863,-0.6121753,-1.372669,-2.960127,-1.333762,0.3042032,-0.01611868,0.1071059,-0.9457849,-2.561937,1.763457
18.66657,6.377797,189,119,524,500,0.03458774,-0.2179933,-0.6165018,-1.373487,-2.957909,-1.341246,0.3031772,-0.0144321,0.1208602,-0.9482776,-2.56307,1.761336
18.33323,6.388908,213,119,480,499,0.04693484,-0.2020202,-0.6210206,-1.374101,-2.956129,-1.348889,0.3004813,-0.01996514,0.1398482,-0.9505243,-2.564163,1.758911
17.9999,6.40002,213,119,480,499,0.06222379,-0.1923147,-0.6239336,-1.375249,-2.954432,-1.356174,0.3177552,-0.015852,0.1559012,-0.9534096,-2.565243,1.756234
17.66656,6.411131,213,119,480,499,0.09050113,-0.1566677,-0.6318276,-1.376762,-2.95378,-1.363654,0.3276963,-0.01387042,0.1584757,-0.9564088,-2.566567,1.754047
17.33323,6.422242,213,119,480,499,0.1155299,-0.1102769,-0.642658,-1.378447,-2.954097,-1.371072,0.2870419,-0.03487736,0.1247307,-0.9573745,-2.568393,1.75364
16.9999,6.433353,213,119,480,499,0.1393384,-0.07026339,-0.6509202,-1.380316,-2.954517,-1.378363,0.2581416,-0.04807112,0.08450544,-0.9585132,-2.570605,1.754128
16.66656,6.444465,254,118,484,500,0.149438,-0.05182904,-0.6583992,-1.381985,-2.954621,-1.385906,0.2556551,-0.03502305,0.108493,-0.9605165,-2.571213,1.752008
16.33323,6.455576,254,118,484,500,0.1538893,-0.0451206,-0.6681306,-1.38386,-2.954236,-1.393086,0.2716747,-0.007356048,0.1538416,-0.9636616,-2.570917,1.748111
15.9999,6.466687,254,118,484,500,0.1578265,-0.03878899,-0.6736431,-1.385536,-2.954041,-1.400784,0.3018984,0.02698889,0.2160054,-0.9675483,-2.569764,1.742741
15.66656,6.477798,254,118,484,500,0.1613662,-0.03345799,-0.6791347,-1.387339,-2.953642,-1.408419,0.3107908,0.03801139,0.2283984,-0.9704724,-2.569781,1.739437
15.33323,6.48891,254,118,484,500,0.1657649,-0.02508432,-0.6791425,-1.388992,-2.95338,-1.416039,0.315861,0.05440287,0.2323397,-0.9738711,-2.569335,1.735977
14.9999,6.500021,269,109,494,501,0.1663723,-0.007512249,-0.6788375,-1.390562,-2.953673,-1.423633,0.2948781,0.06487846,0.2253372,-0.9763787,-2.568836,1.733254
14.66656,6.511132,269,109,494,501,0.1700989,0.002958,-0.6860532,-1.392146,-2.953644,-1.431571,0.2869239,0.06249741,0.2076775,-0.9788438,-2.569036,1.730988
14.33323,6.522243,269,109,494,501,0.1624538,0.002349049,-0.6897833,-1.393558,-2.953412,-1.439369,0.2806914,0.04568499,0.1972233,-0.981157,-2.56954,1.72871
13.9999,6.533355,269,109,494,501,0.1487706,-0.007659145,-0.6910591,-1.39479,-2.952555,-1.447244,0.2867666,0.034079,0.1879914,-0.9838974,-2.570541,1.726367
13.66656,6.544466,274,110,493,501,0.1395871,-0.01105594,-0.7058417,-1.395968,-2.951878,-1.45556,0.3022252,-7.624924E-05,0.150409,-0.9865291,-2.573089,1.725751
13.33323,6.555577,274,110,493,501,0.1367614,-0.008017994,-0.7136493,-1.397264,-2.951286,-1.463764,0.2936845,-0.01272099,0.1433692,-0.9887545,-2.574391,1.724092
12.9999,6.566689,274,110,493,501,0.1414596,-0.01401982,-0.6994739,-1.398887,-2.95054,-1.471278,0.2639166,-0.03784174,0.1399192,-0.9898672,-2.575814,1.722572
12.66657,6.5778,274,110,493,501,0.1575975,-0.002292141,-0.6867907,-1.400916,-2.950397,-1.4786,0.2078212,-0.07002808,0.1115458,-0.9896924,-2.577139,1.722084
12.33323,6.588911,274,110,493,501,0.1660472,0.01896293,-0.6797773,-1.402642,-2.950725,-1.486083,0.195271,-0.07592738,0.0971437,-0.9906325,-2.578676,1.721401
11.9999,6.600022,244,120,496,502,0.1641639,0.03474655,-0.6711608,-1.404181,-2.951041,-1.493308,0.2001739,-0.06621556,0.0886013,-0.9923365,-2.579953,1.720563
11.66657,6.611134,244,120,496,502,0.1580911,0.05192833,-0.6580557,-1.405679,-2.951447,-1.500461,0.245708,-0.02506724,0.1235367,-0.9959823,-2.58011,1.717678
11.33323,6.622245,244,120,496,502,0.1551727,0.06407043,-0.6409171,-1.407091,-2.951935,-1.507153,0.2657112,0.001436815,0.1404068,-0.9992005,-2.580236,1.715153
10.9999,6.633356,244,120,496,502,0.1517351,0.07959004,-0.6329324,-1.40851,-2.952503,-1.514165,0.2730566,0.02366646,0.1754418,-1.002011,-2.579639,1.711843
10.66657,6.644467,259,161,492,497,0.1575926,0.0985266,-0.6198999,-1.410149,-2.953515,-1.52071,0.2638042,0.02076483,0.2018594,-1.004177,-2.579343,1.708276
10.33323,6.655579,259,161,492,497,0.1567013,0.1120638,-0.612833,-1.411527,-2.954275,-1.5274,0.2517563,-0.009157404,0.2057212,-1.005438,-2.580456,1.705832
9.999902,6.66669,259,161,492,497,0.1628664,0.1463022,-0.6017975,-1.413105,-2.95625,-1.533794,0.2580549,-0.04032823,0.1900029,-1.007215,-2.582355,1.704047
9.666569,6.677801,259,161,492,497,0.1661207,0.1785517,-0.5810958,-1.414499,-2.958266,-1.540014,0.2556647,-0.06242074,0.1780301,-1.008683,-2.584127,1.702443
9.333236,6.688912,259,161,492,497,0.1775481,0.2169404,-0.563459,-1.416259,-2.961054,-1.545974,0.2558188,-0.09453109,0.1637826,-1.009966,-2.58671,1.701088
8.999903,6.700024,273,153,493,498,0.1846815,0.2582984,-0.5473343,-1.417927,-2.964458,-1.551686,0.2456483,-0.1170943,0.1527623,-1.010939,-2.588979,1.699736
8.66657,6.711135,273,153,493,498,0.1847184,0.2855993,-0.5319694,-1.419571,-2.967553,-1.557411,0.2259331,-0.1464204,0.1195761,-1.011348,-2.591923,1.699533
8.333237,6.722246,273,153,493,498,0.1810772,0.2968736,-0.5166777,-1.420988,-2.970544,-1.562819,0.2181902,-0.1685606,0.07359067,-1.011981,-2.595543,1.700353
7.999903,6.733357,273,153,493,498,0.1740898,0.3212932,-0.4939713,-1.42219,-2.97399,-1.567838,0.2175567,-0.1704516,0.04735227,-1.013154,-2.598605,1.700756
7.66657,6.744469,273,153,493,498,0.1716703,0.342041,-0.4748356,-1.42351,-2.977566,-1.572806,0.2190285,-0.1541365,0.04975602,-1.01456,-2.60081,1.70028
7.333236,6.75558,258,142,495,498,0.1706263,0.3654447,-0.4551493,-1.424714,-2.981779,-1.577393,0.2293501,-0.1059524,0.1004316,-1.016927,-2.600937,1.697342
6.999903,6.766691,258,142,495,498,0.1738946,0.3996487,-0.4388059,-1.425896,-2.986445,-1.582079,0.2306335,-0.0684476,0.1512402,-1.01912,-2.600523,1.693755
6.666569,6.777802,258,142,495,498,0.1744469,0.4391023,-0.4150734,-1.427046,-2.99186,-1.586241,0.2257742,-0.06127033,0.1664061,-1.020662,-2.601321,1.691429
6.333236,6.788914,258,142,495,498,0.1770988,0.4549906,-0.3962519,-1.428459,-2.996627,-1.590413,0.204937,-0.08922218,0.154006,-1.021135,-2.603117,1.690063
5.999902,6.800025,217,144,493,502,0.179946,0.4713545,-0.3698747,-1.429811,-3.001883,-1.594021,0.1920561,-0.1240644,0.1175133,-1.021381,-2.606251,1.690181
5.666569,6.811136,217,144,493,502,0.1760964,0.4777626,-0.3558081,-1.430948,-3.006738,-1.598041,0.1957527,-0.1454627,0.09887663,-1.022138,-2.609198,1.689833
5.333235,6.822248,217,144,493,502,0.1763672,0.4695975,-0.332709,-1.432283,-3.011379,-1.601303,0.2276365,-0.1620643,0.07847384,-1.023965,-2.61273,1.689747
4.999902,6.833359,217,144,493,502,0.1712361,0.4543857,-0.2885394,-1.433442,-3.015747,-1.60363,0.2407801,-0.1575639,0.08948482,-1.025692,-2.614875,1.688243
4.666568,6.84447,217,144,493,502,0.1632953,0.4329836,-0.2627653,-1.43466,-3.019721,-1.606258,0.2481618,-0.1437633,0.1022943,-1.027584,-2.616758,1.686661
4.333235,6.855581,158,182,497,497,0.1573818,0.4232187,-0.264922,-1.435712,-3.023726,-1.609475,0.2248636,-0.14177,0.1183667,-1.028185,-2.618244,1.684861
3.999902,6.866693,158,182,497,497,0.1531803,0.4086758,-0.271181,-1.436833,-3.0274,-1.612897,0.1841325,-0.155273,0.1264821,-1.027879,-2.619811,1.683219
3.666568,6.877804,158,182,497,497,0.148626,0.3887886,-0.2773992,-1.437987,-3.030803,-1.616477,0.1667019,-0.1750657,0.1275436,-1.02773,-2.622177,1.68198
3.333235,6.888915,158,182,497,497,0.1468126,0.3709405,-0.2736155,-1.438937,-3.034034,-1.619567,0.1523153,-0.1794645,0.1288344,-1.027705,-2.624052,1.680537
2.999902,6.900026,122,158,498,499,0.1370079,0.3438472,-0.2695862,-1.439875,-3.03676,-1.622718,0.1285744,-0.1837481,0.1093153,-1.027392,-2.625922,1.679981
2.666569,6.911138,122,158,498,499,0.1323498,0.3266295,-0.2679943,-1.440757,-3.039463,-1.625983,0.1410371,-0.1639385,0.07777423,-1.028285,-2.628026,1.680147
2.333235,6.922249,122,158,498,499,0.1246768,0.3084399,-0.2613409,-1.441619,-3.04198,-1.62895,0.1615138,-0.1332944,0.08596665,-1.029871,-2.629313,1.678912
1.999902,6.93336,122,158,498,499,0.1242075,0.3020746,-0.2567068,-1.442631,-3.044801,-1.63194,0.1667698,-0.1069883,0.09705666,-1.031251,-2.630164,1.677393
1.666569,6.944471,122,158,498,499,0.1216146,0.3109612,-0.24152,-1.443483,-3.048156,-1.634502,0.1492161,-0.04913393,0.1343734,-1.032693,-2.628666,1.67445
1.333235,6.955583,100,231,498,497,0.121635,0.3095582,-0.2251187,-1.44433,-3.051342,-1.636934,0.1268181,-0.03460605,0.1741406,-1.033204,-2.628013,1.671346
0.9999018,6.966694,100,231,498,497,0.1182396,0.3044066,-0.2214183,-1.445184,-3.054209,-1.639554,0.1071924,-0.04410968,0.1894159,-1.033326,-2.627773,1.668552
0.6665685,6.977805,100,231,498,497,0.1204498,0.2821305,-0.2158606,-1.446301,-3.05634,-1.642003,0.0863196,-0.07381482,0.1910065,-1.032832,-2.628511,1.666353
0.3332352,6.988916,100,231,498,497,0.1204498,0.2821305,-0.2158606,-1.446301,-3.05634,-1.642003,0.0863196,-0.07381482,0.1910065,-1.032832,-2.628511,1.666353
-9.816699E-05,7.000028,102,189,501,512,0.107938,0.2252352,-0.2097036,-1.4479,-3.059464,-1.646945,0.0946714,-0.1090615,0.1101448,-1.033044,-2.632116,1.665614
-9.816699E-05,7.011139,102,189,501,512,0.1008196,0.1945675,-0.209433,-1.448795,-3.060439,-1.649376,0.1038475,-0.1060319,0.09197623,-1.033704,-2.633513,1.665036
-9.816699E-05,7.02225,102,189,501,512,0.08853866,0.1608254,-0.2044919,-1.449357,-3.060878,-1.651584,0.1045549,-0.07632636,0.08940335,-1.034629,-2.633719,1.663991
-9.816699E-05,7.033361,102,189,501,512,0.08079274,0.1304281,-0.2010942,-1.450118,-3.061188,-1.653847,0.09043369,-0.04921621,0.1092251,-1.035,-2.632993,1.661919
-9.816699E-05,7.044473,102,189,501,512,0.07426895,0.09911174,-0.1892627,-1.450757,-3.061219,-1.65572,0.07613859,-0.03101001,0.1196537,-1.035414,-2.632303,1.660033
-9.816699E-05,7.055584,111,228,500,500,0.07433732,0.07199063,-0.1536977,-1.451597,-3.0614,-1.656623,0.05044359,-0.0186211,0.131179,-1.035282,-2.631098,1.657857
-9.816699E-05,7.066695,111,228,500,500,0.07379629,0.05796019,-0.128397,-1.452381,-3.061678,-1.657417,0.05035361,-0.005894896,0.1149482,-1.035912,-2.630901,1.656943
-9.816699E-05,7.077806,111,228,500,500,0.06595839,0.04717214,-0.1122639,-1.452893,-3.061769,-1.658211,0.06764047,-0.00700644,0.08434072,-1.036936,-2.6315,1.656848
-9.816699E-05,7.088918,111,228,500,500,0.07236013,0.05103708,-0.1146482,-1.453823,-3.062266,-1.659624,0.07508531,-0.01232417,0.07763575,-1.037668,-2.631944,1.656093
-9.816699E-05,7.100029,111,228,500,500,0.07056953,0.07317789,-0.109858,-1.454258,-3.063521,-1.661011,0.08766855,-0.04007828,0.05669459,-1.037991,-2.633756,1.656123
-9.816699E-05,7.11114,128,224,500,497,0.06752821,0.08996609,-0.09096849,-1.454575,-3.064912,-1.661711,0.08428317,-0.04478422,0.04864693,-1.038324,-2.634469,1.65566
-9.816699E-05,7.122252,128,224,500,497,0.07174724,0.09859508,-0.07057186,-1.455364,-3.066147,-1.662136,0.05620193,-0.04925403,0.04312848,-1.037821,-2.63484,1.655357
-9.816699E-05,7.133363,128,224,500,497,0.0673613,0.09970701,-0.05512825,-1.455851,-3.067209,-1.662396,0.04881084,-0.04803757,0.04220515,-1.037737,-2.635119,1.654822
-9.816699E-05,7.144474,128,224,500,497,0.0630593,0.1052036,-0.03983615,-1.456285,-3.068556,-1.662552,0.04852974,-0.03087934,0.04692236,-1.038232,-2.634946,1.654062
-9.816699E-05,7.155585,150,219,503,500,0.06298845,0.1088609,-0.04122026,-1.456835,-3.069696,-1.663313,0.05873039,-0.004687116,0.03917943,-1.039374,-2.634805,1.653663
-9.816699E-05,7.166697,150,219,503,500,0.06832304,0.1206698,-0.03539596,-1.457543,-3.071321,-1.663779,0.08104352,0.02103361,0.04084862,-1.041138,-2.634524,1.653143
-9.816699E-05,7.177808,150,219,503,500,0.07034545,0.1236656,-0.01415217,-1.458209,-3.072924,-1.663467,0.08339869,0.02886707,0.04462788,-1.042245,-2.634239,1.652419
-9.816699E-05,7.188919,150,219,503,500,0.07134482,0.1280631,0.0008570654,-1.458776,-3.074672,-1.663273,0.06552388,0.02861875,0.05095428,-1.04245,-2.633834,1.651565
-9.816699E-05,7.20003,150,219,503,500,0.069157,0.1300507,0.01204457,-1.459301,-3.076312,-1.662968,0.03739969,0.009314939,0.04885525,-1.041912,-2.633761,1.651028
-9.816699E-05,7.211142,153,219,501,496,0.06259845,0.1208583,0.01975536,-1.459655,-3.077521,-1.662698,0.02905471,-0.02007281,0.04280022,-1.041382,-2.634493,1.650863
-9.816699E-05,7.222253,153,219,501,496,0.05572713,0.0843605,0.02275841,-1.460062,-3.077533,-1.662346,0.02783058,-0.04108611,0.02856831,-1.041105,-2.635566,1.651013
-9.816699E-05,7.233364,153,219,501,496,0.03927531,0.04631664,0.02327231,-1.460034,-3.077121,-1.662063,0.03211169,-0.04561479,0.01712826,-1.041334,-2.636403,1.651257
-9.816699E-05,7.244475,153,219,501,496,0.03034224,0.01324777,0.02055396,-1.460291,-3.076551,-1.661827,0.01754417,-0.04343583,-0.002763582,-1.040868,-2.636981,1.651935
-9.816699E-05,7.255587,161,221,502,496,0.02579984,-0.009235209,0.01903991,-1.46053,-3.075898,-1.661597,0.008821691,-0.03266116,-0.006535533,-1.040711,-2.637057,1.652156
-9.816699E-05,7.266698,161,221,502,496,0.0114244,-0.05119977,0.0122772,-1.460422,-3.074177,-1.661426,-0.008514501,-0.01107137,0.002589172,-1.040441,-2.636166,1.651788
-9.816699E-05,7.277809,161,221,502,496,0.006946662,-0.06578758,0.01464259,-1.460515,-3.073151,-1.661083,-0.01248174,0.0364228,0.01965453,-1.041064,-2.634154,1.650795
-9.816699E-05,7.28892,161,221,502,496,0.002595624,-0.07198925,0.01333591,-1.460577,-3.072212,-1.660829,-0.01124475,0.05168008,0.02199285,-1.041454,-2.633206,1.650333
-9.816699E-05,7.300032,161,221,502,496,-0.006100742,-0.08498785,0.008363109,-1.460433,-3.070932,-1.660754,-0.01685762,0.04844387,0.01395109,-1.041441,-2.632589,1.650311
-9.816699E-05,7.311143,169,202,502,502,-0.01150795,-0.08846699,0.009811285,-1.460421,-3.070021,-1.660367,-0.02536429,0.03051883,0.005511519,-1.040921,-2.632645,1.650464
-9.816699E-05,7.322254,169,202,502,502,-0.01484155,-0.09450316,0.01290121,-1.460328,-3.068784,-1.660024,-0.03480446,0.01195545,-0.01008082,-1.040226,-2.632904,1.651089
-9.816699E-05,7.333365,169,202,502,502,-0.01703642,-0.09615917,0.01583457,-1.460302,-3.06771,-1.659677,-0.03290038,0.01096101,-0.01582053,-1.040114,-2.632795,1.651473
-9.816699E-05,7.344477,169,202,502,502,-0.0159028,-0.0882578,0.01969828,-1.460259,-3.066985,-1.659297,-0.02458493,0.02532401,-0.008785684,-1.040405,-2.632141,1.65132
-9.816699E-05,7.355588,169,202,502,502,-0.01262359,-0.08181973,0.01998197,-1.460263,-3.066411,-1.659123,-0.02110135,0.04676112,-0.002192135,-1.040823,-2.630883,1.650876
-9.816699E-05,7.366699,173,214,503,493,-0.007093493,-0.06790494,0.02077427,-1.460388,-3.066104,-1.658831,-0.03127696,0.05419467,0.005053842,-1.040689,-2.6297,1.650508
-9.816699E-05,7.37781,173,214,503,493,-0.01128532,-0.06240093,0.02081436,-1.460307,-3.065567,-1.658558,-0.05670202,0.04597037,0.00682416,-1.03956,-2.628672,1.650297
-9.816699E-05,7.388922,173,214,503,493,-0.01122066,-0.05883521,0.01939444,-1.460374,-3.064955,-1.65835,-0.05815066,0.03284808,0.0006905589,-1.038943,-2.628405,1.650438
-9.816699E-05,7.400033,173,214,503,493,-0.01126947,-0.06091382,0.0189747,-1.460334,-3.06424,-1.658096,-0.0372581,0.01546318,-0.009050971,-1.038924,-2.628943,1.650893
-9.816699E-05,7.411144,174,194,503,503,-0.01543771,-0.05497172,0.01690408,-1.460157,-3.063858,-1.65798,-0.01624168,-0.0001213038,-0.01448412,-1.039013,-2.629578,1.65115
-9.816699E-05,7.422256,174,194,503,503,-0.01631158,-0.0422143,0.01845709,-1.459984,-3.06374,-1.657732,-0.01256712,0.00762696,-0.01834425,-1.039142,-2.629489,1.651488
-9.816699E-05,7.433367,174,194,503,503,-0.01932555,-0.0312933,0.01852343,-1.459794,-3.063659,-1.657516,-0.01980832,0.01999441,-0.01828529,-1.038958,-2.628796,1.65159
-9.816699E-05,7.444478,174,194,503,503,-0.02118896,-0.01701072,0.01276117,-1.459507,-3.063773,-1.657538,-0.03210138,0.02655612,-0.01673643,-1.038613,-2.628103,1.651715
-9.816699E-05,7.455589,174,194,503,503,-0.02227434,-0.0172053,0.0137903,-1.459188,-3.063473,-1.65743,-0.03688587,0.03362254,-0.007624329,-1.038383,-2.627348,1.651491
-9.816699E-05,7.466701,173,205,502,501,-0.02013273,-0.01680735,0.01171278,-1.459044,-3.063264,-1.657309,-0.03400383,0.03503925,-0.009086413,-1.038352,-2.62689,1.651612
-9.816699E-05,7.477812,173,205,502,501,-0.02023398,-0.02263423,0.008318382,-1.458858,-3.062763,-1.657325,-0.02728969,0.03849083,-0.007259523,-1.038593,-2.626539,1.651598
-9.816699E-05,7.488923,173,205,502,501,-0.01602149,-0.02663182,0.0009711059,-1.458773,-3.06226,-1.657603,-0.02582552,0.03831906,-0.002980016,-1.038586,-2.625984,1.651458
-9.816699E-05,7.500034,173,205,502,501,-0.0172302,-0.03473436,-0.001822149,-1.458627,-3.061604,-1.657652,-0.0248448,0.0349564,-0.005847783,-1.038511,-2.625744,1.651638
-9.816699E-05,7.511146,165,216,502,486,-0.01838463,-0.04031103,-0.006290768,-1.458418,-3.060995,-1.657923,-0.02486595,0.02919203,-0.01299042,-1.038197,-2.62558,1.6521
-9.816699E-05,7.522257,165,216,502,486,-0.01734784,-0.04280305,-0.01008098,-1.458326,-3.060391,-1.658091,-0.01740501,0.02394175,-0.01735601,-1.038319,-2.625664,1.652386
-9.816699E-05,7.533368,165,216,502,486,-0.01840681,-0.04052322,-0.005274838,-1.458058,-3.059965,-1.658065,-0.01957023,0.02883602,-0.02307471,-1.038336,-2.625303,1.652833
-9.816699E-05,7.544479,165,216,502,486,-0.01520491,-0.03975845,-0.004001531,-1.458006,-3.059519,-1.658042,-0.01577669,0.0383874,-0.02028381,-1.038622,-2.624727,1.652939
-9.816699E-05,7.555591,165,216,502,486,-0.01393946,-0.02974615,-0.005150379,-1.458001,-3.059383,-1.65804,-0.01992164,0.03895123,-0.009289958,-1.038622,-2.62404,1.652762
-9.816699E-05,7.566702,163,224,502,498,-0.009567181,-0.02417886,-0.006126471,-1.458014,-3.059226,-1.658099,-0.01724842,0.03325684,-0.006445135,-1.038625,-2.623784,1.652742
-9.816699E-05,7.577813,163,224,502,498,-0.006171336,-0.01117157,0.004250922,-1.457975,-3.059503,-1.657764,-0.02014191,0.02430361,-0.006884389,-1.038408,-2.623782,1.652995
-9.816699E-05,7.588924,163,224,502,498,-0.003992492,-0.008302168,0.00595776,-1.457976,-3.059511,-1.657642,-0.01487014,0.01465332,-0.01597591,-1.038368,-2.624143,1.653509
-9.816699E-05,7.600036,163,224,502,498,-0.0007091165,-0.00276062,0.01040378,-1.457989,-3.059683,-1.657468,-0.00903533,0.01175104,-0.02127043,-1.038449,-2.624307,1.653934
-9.816699E-05,7.611147,153,225,501,493,0.001437495,-0.002366842,0.008326759,-1.458052,-3.059654,-1.657435,-0.005246998,0.01203852,-0.01274222,-1.038584,-2.62402,1.653946
-9.816699E-05,7.622258,153,225,501,493,0.003677178,0.002634349,0.005035467,-1.458141,-3.059826,-1.657483,-0.0005053347,0.01646787,-0.009941975,-1.038846,-2.623831,1.65396
-9.816699E-05,7.633369,153,225,501,493,0.004785208,0.004920515,0.00443247,-1.45817,-3.060002,-1.657462,-0.0006297587,0.01291816,-0.008984779,-1.038831,-2.623628,1.654131
-9.816699E-05,7.644481,153,225,501,493,0.005827248,0.003251356,0.001914844,-1.458272,-3.059984,-1.657503,0.006866862,0.007679444,-0.01094104,-1.039062,-2.623902,1.654347
-9.816699E-05,7.655592,153,225,501,493,0.01317631,-0.001923727,0.005245511,-1.458666,-3.059946,-1.657261,0.005843665,-0.004019301,-0.01661704,-1.038923,-2.624294,1.654923
-9.816699E-05,7.666703,153,225,501,493,0.01434917,0.004097048,0.007592799,-1.45884,-3.060174,-1.657158,0.01081427,-0.009276856,-0.01425389,-1.039016,-2.624697,1.655064
-9.816699E-05,7.677814,153,225,501,493,0.01649681,0.005101038,0.007816993,-1.459036,-3.060283,-1.657084,0.01532002,-0.01195947,-0.009515516,-1.039213,-2.624983,1.655085
-9.816699E-05,7.688926,153,225,501,493,0.02199302,0.01461216,0.008732215,-1.459345,-3.060705,-1.657087,0.01548898,-0.006621715,-0.01096133,-1.039371,-2.624994,1.655244
-9.816699E-05,7.700037,153,225,501,493,0.01987363,0.01548118,0.009979229,-1.459487,-3.060942,-1.656956,0.02404327,0.001610784,-0.01010531,-1.039912,-2.625076,1.655338
-9.816699E-05,7.711148,153,225,501,493,0.02633512,0.01976543,0.009812293,-1.459852,-3.061374,-1.656907,0.02752438,0.002270417,-0.004887542,-1.040236,-2.625144,1.655147
-9.816699E-05,7.72226,153,225,501,493,0.02958731,0.0226704,0.006074651,-1.460227,-3.061721,-1.656962,0.02383773,0.002029769,-0.00152242,-1.040384,-2.62517,1.655054
-9.816699E-05,7.733371,153,225,501,493,0.03162275,0.01783158,0.00833685,-1.460672,-3.061865,-1.656852,0.01946553,-0.0009995438,-0.001470509,-1.040544,-2.625301,1.655077
-9.816699E-05,7.744482,153,225,501,493,0.03264887,0.01573906,0.007903685,-1.461037,-3.062027,-1.656768,0.018876,-0.0002518296,-0.008136317,-1.040704,-2.625498,1.65537
-9.816699E-05,7.755593,153,225,501,493,0.02830772,0.01143092,0.008067833,-1.461165,-3.062086,-1.656772,0.02314674,0.0009485483,-0.01482886,-1.041014,-2.625786,1.655633
-9.816699E-05,7.766705,138,179,502,497,0.03034024,0.004748976,0.00344383,-1.461604,-3.061954,-1.656874,0.0323344,0.0009209123,-0.004404304,-1.041512,-2.625978,1.655379
-9.816699E-05,7.777816,138,179,502,497,0.0345885,0.005095968,0.006795074,-1.462013,-3.062088,-1.65677,0.03837612,0.001602909,0.001275962,-1.041875,-2.626212,1.65514
-9.816699E-05,7.788927,138,179,502,497,0.03573933,0.01052371,0.006813749,-1.462446,-3.062379,-1.656727,0.04209728,0.001836093,0.002691334,-1.042366,-2.626423,1.655042
-9.816699E-05,7.800038,138,179,502,497,0.03796584,0.01760333,0.009343217,-1.46288,-3.062876,-1.656563,0.04423917,0.006175987,0.0002773069,-1.042835,-2.62667,1.655149
-9.816699E-05,7.81115,138,179,502,497,0.04127983,0.02551545,0.007698236,-1.463353,-3.06337,-1.656458,0.03936974,0.005695706,-0.002067555,-1.043164,-2.626847,1.655283
-9.816699E-05,7.822261,139,180,501,498,0.04343934,0.02801909,0.006026615,-1.463854,-3.063747,-1.65649,0.0365302,-0.0014765,-0.002944889,-1.043469,-2.627168,1.655257
-9.816699E-05,7.833372,139,180,501,498,0.04228607,0.02283026,0.004956473,-1.464183,-3.063843,-1.656546,0.03897189,-0.005015448,-0.001486303,-1.043787,-2.627659,1.655301
-9.816699E-05,7.844483,139,180,501,498,0.04545087,0.02155304,0.005787479,-1.464725,-3.06409,-1.65645,0.04316101,-0.007349648,-4.709605E-05,-1.044233,-2.628071,1.655274
-9.816699E-05,7.855595,139,180,501,498,0.04541975,0.01907779,0.002017185,-1.465225,-3.064265,-1.656544,0.04943471,-0.007113159,-0.0005350579,-1.044884,-2.628453,1.655314
-9.816699E-05,7.866706,137,179,500,498,0.04646033,0.01701226,-0.003834731,-1.465625,-3.064474,-1.656781,0.04877482,-0.009881314,0.003317129,-1.045288,-2.628778,1.655107
-9.816699E-05,7.877817,137,179,500,498,0.04753806,0.01849154,-0.005717225,-1.466157,-3.064761,-1.656913,0.04423261,-0.008983411,-0.0009452617,-1.045583,-2.6291,1.655248
-9.816699E-05,7.888928,137,179,500,498,0.04644619,0.01603381,-0.009484926,-1.46664,-3.064925,-1.657147,0.05160284,-0.002818387,-0.0005335137,-1.046319,-2.629343,1.655156
-9.816699E-05,7.90004,137,179,500,498,0.05071545,0.01748627,-0.01135708,-1.467288,-3.065176,-1.657338,0.05195444,-0.001432274,0.002323687,-1.046851,-2.62955,1.65504
-9.816699E-05,7.911151,137,179,500,498,0.05179807,0.01939856,-0.01532779,-1.467858,-3.065507,-1.65766,0.05059809,0.0005308017,0.00231288,-1.047212,-2.629572,1.655089
-9.816699E-05,7.922262,137,174,501,500,0.05076717,0.02487013,-0.01534122,-1.468326,-3.065957,-1.657863,0.04719899,0.007438693,0.006067963,-1.04771,-2.629452,1.654857
-9.816699E-05,7.933373,137,174,501,500,0.04542786,0.02430783,-0.01765616,-1.468616,-3.066117,-1.658129,0.03581997,0.02048092,0.01453707,-1.047991,-2.628687,1.654335
-9.816699E-05,7.944485,137,174,501,500,0.0421853,0.01996692,-0.01745645,-1.468986,-3.066247,-1.658316,0.03790112,0.02875767,0.0125315,-1.048661,-2.628381,1.654183
-9.816699E-05,7.955596,137,174,501,500,0.0368126,0.01542701,-0.01621651,-1.469203,-3.066354,-1.658431,0.03926533,0.02679063,0.01492462,-1.04923,-2.62849,1.654058
-9.816699E-05,7.966707,140,173,502,502,0.03144847,0.01025235,-0.01727144,-1.4694,-3.066312,-1.658622,0.04692018,0.01927697,0.01452294,-1.049864,-2.628777,1.653888
-9.816699E-05,7.977818,140,173,502,502,0.02720127,0.01175439,-0.01915936,-1.469582,-3.066554,-1.658756,0.05662336,0.001021728,0.00807539,-1.050431,-2.629671,1.654044
-9.816699E-05,7.98893,140,173,502,502,0.0261132,0.008636976,-0.01978251,-1.469827,-3.066517,-1.65897,0.06037051,-0.01030187,0.004901882,-1.050892,-2.630462,1.654126
-9.816699E-05,8.000041,140,173,502,502,0.02617228,0.01471667,-0.02835323,-1.470076,-3.066821,-1.65959,0.04672989,-0.02817071,0.00277526,-1.050675,-2.631352,1.654244
-9.816699E-05,8.011152,140,173,502,502,0.02512175,0.02268104,-0.02460187,-1.470195,-3.067348,-1.659784,0.03767089,-0.02051311,0.001265915,-1.050801,-2.63149,1.654323
-9.816699E-05,8.022264,141,173,500,500,0.02299415,0.02583878,-0.02398239,-1.470346,-3.067704,-1.660066,0.03022639,-0.01512187,0.007872337,-1.050887,-2.631465,1.654024
