ref,t,emg1,emg2,emg1raw,emg2raw,aDotS,bDotS,gDotS,aS,bS,gS,aDotSH,bDotSH,gDotSH,aSH,bSH,gSH
90,0,604,144,438,495,0.6379417,1.626128,0.8543752,-1.411978,3.044518,-0.176509,-0.5452135,-1.319683,0.1117445,-0.3630304,2.997025,2.761092
90,0.01111111,604,144,438,495,0.5688558,1.537269,0.8130587,-1.417425,3.047619,-0.1608959,-0.5107434,-1.306421,0.110997,-0.3557653,2.966062,2.797325
90,0.02222222,604,144,438,495,0.5092146,1.506773,0.7816477,-1.422362,3.050524,-0.1438442,-0.4649243,-1.287363,0.1280886,-0.3487495,2.934104,2.833429
90,0.03333334,604,144,438,495,0.3942908,1.488862,0.7610796,-1.424457,3.054276,-0.1271478,-0.4171249,-1.210428,0.1666111,-0.3420063,2.907877,2.86296
90,0.04444445,616,159,505,499,0.2686791,1.441537,0.727513,-1.425177,3.05798,-0.1116275,-0.3972334,-1.19878,0.164791,-0.336027,2.876694,2.898884
90,0.05555556,616,159,505,499,0.1454977,1.354475,0.6764118,-1.424721,3.061394,-0.09848583,-0.3899205,-1.158809,0.1922687,-0.3296983,2.848359,2.931666
90,0.06666667,616,159,505,499,0.03258896,1.239731,0.6258876,-1.423182,3.065076,-0.08737618,-0.3551456,-1.068307,0.2102894,-0.324495,2.824363,2.958864
90,0.07777778,616,159,505,499,-0.03216219,1.118439,0.5642406,-1.422444,3.068035,-0.07773767,-0.345446,-1.038532,0.1807707,-0.3207298,2.79657,2.991197
90,0.08888889,616,159,505,499,-0.07708097,1.021358,0.5105385,-1.421185,3.070861,-0.06855775,-0.3671404,-0.9999253,0.1904034,-0.3160315,2.770019,3.023383
90,0.1,701,138,506,497,-0.117403,0.9818923,0.4725114,-1.419859,3.073666,-0.05816237,-0.3518729,-0.976486,0.1898962,-0.3119957,2.743892,3.053738
90,0.1111111,701,138,506,497,-0.1632347,0.9138801,0.4342448,-1.417498,3.076383,-0.04968553,-0.3416902,-0.9435686,0.2327162,-0.3068409,2.717427,3.083929
90,0.1222222,701,138,506,497,-0.2031528,0.8707399,0.4013934,-1.415017,3.079103,-0.0408939,-0.329797,-0.8970671,0.2879873,-0.3010949,2.691929,3.112712
90,0.1333333,701,138,506,497,-0.2356836,0.7939857,0.3704348,-1.412078,3.081735,-0.03419126,-0.2707125,-0.8208849,0.2489951,-0.2989084,2.670425,3.136333
90,0.1444445,701,138,506,497,-0.2480243,0.7088875,0.3399122,-1.409672,3.084282,-0.02841273,-0.2396877,-0.7728722,0.2400608,-0.2962681,2.647967,-3.121916
90,0.1555556,639,156,441,494,-0.2233222,0.6230395,0.313879,-1.40847,3.086678,-0.02371598,-0.1946495,-0.6995013,0.1953551,-0.2952812,2.630087,-3.102372
90,0.1666667,639,156,441,494,-0.1852728,0.545004,0.2889955,-1.40787,3.088704,-0.01966904,-0.1399506,-0.6099659,0.09272097,-0.2970005,2.616615,-3.087331
90,0.1777778,639,156,441,494,-0.1388576,0.5003114,0.2739953,-1.408032,3.090668,-0.01515339,-0.1263065,-0.5353023,-0.04408385,-0.3007428,2.607053,-3.074909
90,0.1888889,639,156,441,494,-0.05547479,0.4355169,0.2571327,-1.410071,3.092414,-0.01213869,-0.1391253,-0.4258612,-0.2159259,-0.3067083,2.605783,-3.069506
90,0.2,730,156,515,498,-0.01929426,0.4207408,0.2549606,-1.41106,3.094413,-0.007630489,-0.02724645,-0.3499937,-0.4480339,-0.3177716,2.603824,-3.066326
90,0.2111111,730,156,515,498,0.03567523,0.3990015,0.2533255,-1.413358,3.096275,-0.00375559,-0.12793,-0.4663636,0.08191873,-0.3037804,2.571104,-3.032813
90,0.2222222,730,156,515,498,0.08245522,0.3486057,0.2520589,-1.415632,3.098295,-0.001144627,-0.1394472,-0.418006,0.1236687,-0.3004951,2.560024,-3.019847
90,0.2333333,730,156,515,498,0.1071526,0.3066658,0.2472978,-1.417877,3.100292,0.001115864,-0.09833196,-0.3101872,0.05475752,-0.3017479,2.560246,-3.019835
90,0.2444444,730,156,515,498,0.1422215,0.2324792,0.2350568,-1.4206,3.10215,0.001785383,-0.1486048,-0.2287747,-0.02083798,-0.3038326,2.563267,-3.019179
90,0.2555556,836,179,473,504,0.1501483,0.213195,0.211513,-1.42267,3.103418,0.003810451,-0.1311582,-0.175124,-0.1481809,-0.3081214,2.565339,-3.018618
90,0.2666667,836,179,473,504,0.1378048,0.1823142,0.1946327,-1.424111,3.104835,0.005016863,-0.05918191,-0.1924392,-0.0255506,-0.3061687,2.55381,-3.008648
90,0.2777778,836,179,473,504,0.1319086,0.1569308,0.1851155,-1.425593,3.106454,0.00598359,-0.0552156,-0.1289129,0.006188601,-0.3047839,2.553892,-3.008656
90,0.2888889,836,179,473,504,0.1367739,0.09991837,0.1639164,-1.42734,3.107517,0.00555855,-0.057166,-0.08156548,-0.0353824,-0.3059072,2.556558,-3.010331
90,0.3,833,201,495,501,0.1412596,0.08291602,0.1496802,-1.429173,3.108499,0.006097574,-0.06881208,-0.05343411,-0.05302954,-0.306916,2.559094,-3.011397
90,0.3111111,833,201,495,501,0.1349284,0.06767779,0.1354095,-1.430651,3.109381,0.00640437,-0.06804648,-0.025736,-0.05079078,-0.3071243,2.561794,-3.013352
90,0.3222222,833,201,495,501,0.1206776,0.05730207,0.1230464,-1.431729,3.110202,0.006849118,-0.04083386,-0.03857853,-0.04673588,-0.3077352,2.559293,-3.011056
90,0.3333333,833,201,495,501,0.1050491,0.04223674,0.120768,-1.432641,3.111367,0.006894391,-0.06168398,0.003082313,-0.0227406,-0.3067205,2.564434,-3.015316
90,0.3444445,833,201,495,501,0.07368108,0.004204877,0.1012943,-1.432708,3.112043,0.00604218,-0.05451182,-0.005040377,0.01898292,-0.3055754,2.563914,-3.01459
90,0.3555556,775,211,494,509,0.06230786,-0.01414387,0.09166893,-1.43319,3.112902,0.005529788,-0.03995266,0.005884413,0.03278924,-0.3047903,2.564121,-3.015022
90,0.3666667,775,211,494,509,0.0618624,-0.03536588,0.07333773,-1.4339,3.113281,0.004558267,-0.03875197,0.01822969,0.01540075,-0.3048723,2.566281,-3.016876
90,0.3777778,775,211,494,509,0.07784396,-0.0492924,0.04411019,-1.435126,3.112895,0.003728426,-0.05164126,0.01044661,0.004253117,-0.3049527,2.567442,-3.016911
90,0.3888889,775,211,494,509,0.08737382,-0.04380032,0.02109089,-1.436279,3.112429,0.003356648,-0.03988224,0.02240002,0.02722491,-0.3039945,2.568616,-3.018279
90,0.4,775,211,494,509,0.09290719,-0.03594223,0.01955516,-1.437353,3.112482,0.003148389,-0.04180484,0.03530227,0.03880267,-0.3030624,2.570594,-3.019987
90,0.4111111,806,235,471,498,0.08486518,-0.02585337,0.02308807,-1.438128,3.112704,0.003165966,-0.03118654,0.04187257,0.03389131,-0.3027242,2.572552,-3.022092
90,0.4222222,806,235,471,498,0.07412344,-0.03479771,0.02362083,-1.438684,3.112959,0.002481001,-0.03175538,0.03318128,0.003982212,-0.3032563,2.573387,-3.022461
90,0.4333333,806,235,471,498,0.06408854,-0.04837233,0.01060468,-1.43919,3.112717,0.001536644,-0.0340903,0.01925813,-0.003212768,-0.3033814,2.573415,-3.02196
90,0.4444444,806,235,471,498,0.05522051,-0.05094496,-0.003952703,-1.43954,3.112363,0.0008655274,-0.0258521,0.01511877,0.006738199,-0.3029793,2.573357,-3.021884
90,0.4555556,744,240,473,493,0.05154448,-0.04489218,-0.0177028,-1.439912,3.111892,0.0005635249,-0.02600367,0.008401273,0.007822353,-0.3028099,2.573856,-3.022222
90,0.4666667,744,240,473,493,0.04077366,-0.03651381,-0.01792724,-1.440062,3.111686,0.0003792341,-0.01291677,0.0406344,0.05092145,-0.3011609,2.576362,-3.025589
90,0.4777778,744,240,473,493,0.03674722,-0.04069492,-0.01144962,-1.440386,3.111901,-0.0001139833,-0.007540517,0.05949869,0.04017481,-0.3008999,2.580117,-3.029484
90,0.4888889,744,240,473,493,0.04935226,-0.04943266,-0.000317852,-1.441278,3.112171,-0.0008990832,0.005120814,0.05606998,0.006093696,-0.3017159,2.582062,-3.031664
90,0.5,744,240,473,493,0.06870388,-0.05219085,-0.0005705729,-1.442451,3.112001,-0.001435444,0.006510329,0.04487923,-0.01004558,-0.3023263,2.583601,-3.033188
90,0.5111111,891,215,443,496,0.1016918,-0.04418687,0.001116155,-1.444437,3.111834,-0.001715076,0.008914316,0.03210842,-0.01045596,-0.3025612,2.58365,-3.033337
90,0.5222223,891,215,443,496,0.1227787,-0.02024581,-0.006271796,-1.44622,3.1113,-0.001360343,0.006069746,0.03223377,0.01305275,-0.3017378,2.58512,-3.035086
90,0.5333334,891,215,443,496,0.123043,-0.003752889,-0.009573309,-1.447571,3.110889,-0.0009448896,0.004862092,0.02758757,0.02818485,-0.3011167,2.585241,-3.035462
90,0.5444446,891,215,443,496,0.1078583,0.004286659,0.0004690848,-1.448238,3.111112,-0.0007488809,0.01762609,0.02202737,0.03165212,-0.3008312,2.584764,-3.035625
90,0.5555557,778,199,478,499,0.09897649,0.0005140873,0.003180216,-1.449103,3.111132,-0.0008479505,0.02173939,0.02441168,0.03055486,-0.300608,2.585305,-3.036653
90,0.5666668,778,199,478,499,0.0826755,-0.01834838,-0.003407707,-1.449468,3.111066,-0.001949967,0.025078,0.02294465,0.00279735,-0.3014325,2.585875,-3.037539
90,0.577778,778,199,478,499,0.07634924,-0.006357908,-0.01448337,-1.45009,3.11054,-0.001702293,0.02024988,0.01117415,0.01476088,-0.3009926,2.585716,-3.037555
90,0.5888891,778,199,478,499,0.06691554,0.002433233,-0.0263208,-1.450511,3.109856,-0.001451955,0.01999523,0.02233254,0.02679582,-0.3004717,2.586769,-3.038993
90,0.6000003,778,199,478,499,0.05813616,0.005270893,-0.02479579,-1.450834,3.109645,-0.001294829,0.02112595,0.01658557,0.02160075,-0.3004482,2.586548,-3.039062
90,0.6111114,694,177,458,493,0.04557689,0.008481666,-0.01824345,-1.451025,3.109588,-0.001124919,0.02670869,-0.0008693021,0.01983995,-0.3004909,2.584492,-3.037376
90,0.6222225,694,177,458,493,0.03425806,0.008677477,-0.01300944,-1.451048,3.109589,-0.0009321064,0.02918997,0.004838413,0.01167798,-0.3006783,2.584768,-3.037988
90,0.6333337,694,177,458,493,0.01498245,0.02018227,-0.01372047,-1.450641,3.1094,-0.0003691141,0.02717499,0.01517185,-0.00322312,-0.3011258,2.586289,-3.039693
90,0.6444448,694,177,458,493,-0.002625659,0.0258865,-0.01932475,-1.450032,3.109083,2.450108E-05,0.02986065,0.0147966,-0.01682516,-0.3018315,2.586694,-3.04052
90,0.655556,708,166,467,499,-0.01264627,0.02965799,-0.02541572,-1.44954,3.10863,0.0004569984,0.0259557,0.00602759,-0.01234686,-0.3018821,2.58615,-3.040112
90,0.6666671,708,166,467,499,-0.01316562,0.02806737,-0.02999935,-1.449325,3.108278,0.0006743124,0.03153204,-0.005684163,-0.01300071,-0.3022177,2.58453,-3.03883
90,0.6777782,708,166,467,499,-0.007519253,0.02624514,-0.02309846,-1.449475,3.108191,0.0009582054,0.03235957,-0.009969816,-0.001733087,-0.3022523,2.583783,-3.038555
90,0.6888894,708,166,467,499,0.01686767,0.02638068,-0.01163105,-1.450351,3.108228,0.001220793,0.03058078,-0.01603383,-5.741604E-07,-0.3023322,2.582402,-3.037395
90,0.7000005,708,166,467,499,0.05556799,0.03043461,-0.003521835,-1.452079,3.108285,0.001622398,0.03476235,-0.01268028,-0.01540824,-0.3031093,2.582587,-3.037912
90,0.7111117,688,214,479,496,0.08947702,0.03497902,-0.0003676647,-1.453993,3.108087,0.002113485,0.02710044,-0.0145632,-0.03184389,-0.3039444,2.582343,-3.037493
90,0.7222228,688,214,479,496,0.1046155,0.03753604,-0.001761201,-1.455433,3.107753,0.002536395,0.02573736,-0.0226364,-0.02888776,-0.3043887,2.580671,-3.035846
90,0.7333339,688,214,479,496,0.1151099,0.04286136,-0.0001580501,-1.457047,3.107574,0.00319313,0.02560587,-0.02253846,-0.01567639,-0.3043242,2.579498,-3.034947
90,0.7444451,688,214,479,496,0.1149461,0.04588912,0.00109452,-1.458283,3.107413,0.003718305,0.02140065,-0.01539406,0.003019934,-0.3038182,2.579715,-3.03553
90,0.7555562,688,214,479,496,0.1128817,0.04373969,0.0004592193,-1.459522,3.107214,0.0041785,0.01945723,-0.001353996,-0.008586629,-0.304305,2.580894,-3.036797
90,0.7666674,598,206,486,502,0.1039745,0.04213702,0.003508779,-1.460422,3.107233,0.004487959,0.01556464,-0.007491048,-0.01184259,-0.3045815,2.580404,-3.036207
90,0.7777785,598,206,486,502,0.08746168,0.03813772,-0.002033829,-1.461059,3.106949,0.004810201,0.0155207,0.002967425,-0.0085678,-0.3045256,2.580906,-3.036736
90,0.7888896,598,206,486,502,0.07302041,0.03626623,-0.007071331,-1.461439,3.106656,0.005169728,0.02002375,-0.003993237,-0.002896499,-0.304541,2.579792,-3.035931
90,0.8000008,598,206,486,502,0.04597854,0.02905395,-0.00431383,-1.461329,3.106854,0.00527732,0.02228746,-0.01137524,-0.005570267,-0.3048318,2.578498,-3.034787
90,0.8111119,572,194,496,497,0.01871752,0.0205334,-0.009274335,-1.460757,3.106684,0.005303951,0.01959222,-0.008797497,-0.01625087,-0.3053112,2.578667,-3.034952
90,0.8222231,572,194,496,497,0.002741783,0.01279337,-0.009715668,-1.460418,3.106606,0.005229383,0.01983553,-0.0175191,-0.01395041,-0.3055615,2.577691,-3.034158
90,0.8333342,572,194,496,497,-0.01357886,0.004692249,-0.01672453,-1.459766,3.106232,0.005035505,0.02806902,-0.01277336,0.01808982,-0.3046624,2.576318,-3.033611
90,0.8444453,572,194,496,497,-0.01885125,-0.002858684,-0.01708216,-1.459354,3.106033,0.004859203,0.03052628,-0.01298834,0.03088001,-0.3041197,2.574933,-3.032817
90,0.8555565,572,194,496,497,-0.01407913,-0.00658678,-0.01157499,-1.459415,3.106144,0.004789962,0.02727847,-0.00447732,0.001291759,-0.3049767,2.576149,-3.034081
90,0.8666676,521,178,488,498,-0.0005716733,-0.005684089,-0.007821312,-1.459755,3.106181,0.00470261,0.01550695,0.003274953,-0.01741113,-0.3055764,2.577593,-3.035229
90,0.8777788,521,178,488,498,0.01132289,2.558064E-05,-0.009107939,-1.460179,3.106011,0.004774515,-0.003876264,-0.006204244,-0.02380491,-0.3056936,2.577167,-3.034112
90,0.8888899,521,178,488,498,0.01412972,0.0007391879,-0.01519221,-1.460379,3.10566,0.004802745,-0.01253738,-0.01730651,-0.002933837,-0.3051535,2.575646,-3.032288
90,0.900001,521,178,488,498,0.01622634,0.001810747,-0.01484706,-1.460526,3.105448,0.004886901,-0.01418593,-0.02272667,0.04081224,-0.3036014,2.572857,-3.029817
90,0.9111122,528,214,499,498,0.02260114,0.0008016513,-0.004569342,-1.460972,3.105631,0.004867193,-0.0018225,-0.01411587,0.03971874,-0.3032467,2.572478,-3.029881
90,0.9222233,528,214,499,498,0.02997314,-0.002420994,0.006633464,-1.461577,3.105918,0.004816593,0.004515504,0.001271985,0.01270333,-0.3039088,2.573515,-3.031098
90,0.9333345,528,214,499,498,0.0434343,-0.002646211,0.02095543,-1.462514,3.106476,0.004772385,0.004944711,0.0191796,-0.02587965,-0.3052057,2.576638,-3.034007
90,0.9444456,528,214,499,498,0.05428138,0.009552614,0.01909892,-1.463435,3.106431,0.005284777,-0.004031097,0.01340392,-0.05374723,-0.3063141,2.577827,-3.034531
90,0.9555568,528,214,499,498,0.06415382,0.02937864,0.01577342,-1.464311,3.106348,0.006237656,-0.01369655,-0.002796696,-0.03534273,-0.3060409,2.576657,-3.032852
90,0.9666679,512,178,502,496,0.05671245,0.02280154,0.005635033,-1.46473,3.106093,0.006359628,-0.02126679,-0.01269145,0.005727828,-0.3048371,2.575016,-3.031039
90,0.977779,512,178,502,496,0.04981182,0.008219182,0.01087447,-1.46505,3.106323,0.006098639,-0.02280523,-0.02129796,0.02744245,-0.3040558,2.573666,-3.02951
90,0.9888902,512,178,502,496,0.03758537,0.002184826,0.01539651,-1.465192,3.106606,0.005970807,-0.01693563,-0.01116452,0.01796307,-0.3040488,2.574025,-3.029845
90,1.000001,512,178,502,496,0.03516956,0.006195816,0.01770854,-1.465506,3.106811,0.006193447,-0.01783889,-0.004260145,-0.001083416,-0.3045314,2.575089,-3.03043
90,1.011112,491,168,546,500,0.03296292,0.005017757,0.01841783,-1.465804,3.107004,0.006223275,-0.0155764,0.007077319,-0.02040003,-0.3051567,2.576937,-3.032025
90,1.022224,491,168,546,500,0.03973188,0.00762223,0.01506246,-1.466421,3.106919,0.006350574,-0.02345095,0.003857212,-0.02585997,-0.3053692,2.577392,-3.031916
90,1.033335,491,168,546,500,0.03924631,0.00710405,0.009556497,-1.466835,3.106814,0.006423545,-0.0252238,-0.01123023,-0.01191427,-0.3050997,2.575896,-3.030071
90,1.044446,491,168,546,500,0.02110106,0.007938046,0.008829933,-1.466572,3.10685,0.00648533,-0.02566215,-0.01436199,0.01560912,-0.3040925,2.574875,-3.02902
90,1.055557,491,168,546,500,0.007380897,0.004672001,0.007054632,-1.466336,3.106884,0.006448045,-0.02101633,-0.009579588,0.01354441,-0.3039998,2.575342,-3.029238
90,1.066668,596,168,500,499,-0.01117015,-0.003521708,0.01071453,-1.465743,3.107185,0.00618386,-0.01391223,0.001641827,0.0110173,-0.3039157,2.576236,-3.030233
90,1.077779,596,168,500,499,-0.02521836,-0.007129903,0.01208018,-1.465245,3.107438,0.005967611,-0.007634765,0.009770789,0.002753458,-0.3041202,2.577362,-3.031381
90,1.08889,596,168,500,499,-0.02700518,-0.006815759,0.00868394,-1.464897,3.107492,0.005886651,-0.009538768,0.01306364,-0.003299296,-0.304247,2.578337,-3.032197
90,1.100002,596,168,500,499,-0.02668928,-0.005424875,0.005623014,-1.464643,3.107461,0.005866944,-0.01796217,0.01150515,-0.01331664,-0.3043652,2.579401,-3.0326
90,1.111113,596,168,500,499,-0.01897656,-0.009394854,0.003869279,-1.464654,3.107482,0.005653359,-0.02231634,0.004091727,-0.004533321,-0.3041117,2.579161,-3.032049
90,1.122224,575,160,497,499,-0.007802904,-0.01411176,0.009935204,-1.464923,3.10766,0.005481851,-0.02568192,0.004879061,0.01554687,-0.3032382,2.579146,-3.031877
90,1.133335,575,160,497,499,0.00237233,-0.01554999,0.01516405,-1.465265,3.107976,0.005275722,-0.02084002,0.005751461,0.03121841,-0.3024009,2.578954,-3.031816
90,1.144446,575,160,497,499,0.02277286,-0.01405834,0.0249823,-1.466127,3.108393,0.005222459,-0.01748097,0.007341292,0.0122477,-0.3028227,2.579484,-3.032263
90,1.155557,575,160,497,499,0.03537998,-0.006542897,0.0270589,-1.466908,3.108627,0.00533804,-0.011282,0.006259457,-0.009257196,-0.3034843,2.580057,-3.032675
90,1.166668,573,178,502,496,0.0458134,0.004147403,0.0292199,-1.467722,3.108913,0.005684784,-0.009255512,0.0149788,-0.01977777,-0.3037612,2.581823,-3.034336
90,1.17778,573,178,502,496,0.04636,0.01223014,0.02361194,-1.468378,3.108892,0.005966546,-0.01099168,0.01053552,-0.02466428,-0.3040792,2.58254,-3.034671
90,1.188891,573,178,502,496,0.04650062,-0.001651097,0.02324355,-1.468959,3.109118,0.005626194,-0.01357254,0.00419757,-0.0109864,-0.3038086,2.58224,-3.03421
90,1.200002,573,178,502,496,0.04347578,-0.01556254,0.02253414,-1.469523,3.109224,0.00500621,-0.01333972,-0.000248896,0.02444676,-0.3024552,2.5811,-3.033291
90,1.211113,573,178,502,496,0.04006609,-0.02014239,0.02492388,-1.469921,3.109566,0.004655206,-0.01142555,0.006192643,0.02605015,-0.3020509,2.581711,-3.033957
90,1.222224,565,179,507,501,0.03416933,-0.01539395,0.01943968,-1.470203,3.109597,0.004783037,-0.01468347,0.003057117,0.01633689,-0.3022432,2.582333,-3.034328
90,1.233335,565,179,507,501,0.02057995,-0.007739272,0.01564198,-1.470046,3.10968,0.004919391,-0.02028303,0.008590389,-0.0006662565,-0.3025804,2.583742,-3.035287
90,1.244446,565,179,507,501,0.009130024,0.005339191,0.01153242,-1.469884,3.109809,0.005357215,-0.01986591,0.005857967,-0.007171963,-0.3027327,2.584208,-3.035526
90,1.255558,565,179,507,501,0.003896749,0.001055667,0.01058222,-1.469769,3.110018,0.005101551,-0.008219751,0.01008427,-0.004015259,-0.3027023,2.584474,-3.036048
90,1.266669,460,182,533,496,0.004265897,-0.008271963,0.007517529,-1.469818,3.110055,0.004737764,-0.009612605,0.01319178,0.009948009,-0.3022613,2.584809,-3.036444
90,1.27778,460,182,533,496,0.008420614,-0.00941243,0.008889497,-1.470022,3.110207,0.004599812,-0.01594472,0.01891949,0.02145168,-0.3017191,2.585829,-3.037395
90,1.288891,460,182,533,496,0.008004392,-0.009840944,0.01310635,-1.470142,3.110468,0.004478372,-0.01403169,0.01561569,0.02750468,-0.3012328,2.585955,-3.037563
90,1.300002,460,182,533,496,0.01110213,-0.01098858,0.01436762,-1.47039,3.110616,0.004328169,-0.01348257,0.005858414,0.02989445,-0.3008914,2.584884,-3.036356
90,1.311113,460,182,533,496,0.008045504,-0.01196243,0.01288814,-1.470416,3.110751,0.004182228,-0.0167029,-0.0006417856,0.02021571,-0.300853,2.584554,-3.035726
90,1.322224,441,186,524,494,0.007298068,-0.005181723,0.009199737,-1.470454,3.110721,0.00429195,-0.01900971,-0.01389289,0.0074954,-0.3011023,2.583773,-3.034464
90,1.333336,441,186,524,494,-0.002817355,-0.002593179,0.003083179,-1.470118,3.110605,0.00432231,-0.02166067,-0.02633305,0.0167704,-0.3006581,2.581744,-3.032123
90,1.344447,441,186,524,494,-0.005522196,0.001100567,-0.002186992,-1.470054,3.110472,0.004395281,-0.02091155,-0.02124567,0.0202672,-0.3003162,2.581282,-3.031748
90,1.355558,441,186,524,494,-0.02034005,0.006416759,-0.004205716,-1.469417,3.110397,0.004579039,-0.02301803,-0.006826863,0.01304184,-0.3001702,2.582536,-3.032702
90,1.366669,441,186,524,494,-0.03364065,0.002508967,0.0005029724,-1.468681,3.110617,0.00447411,-0.01420856,0.003615949,-0.003387499,-0.3005814,2.583812,-3.033979
90,1.37778,462,169,493,496,-0.03385362,0.002290102,0.002600964,-1.46835,3.110761,0.004501275,-0.01424008,0.01290101,-0.02440878,-0.3012504,2.585255,-3.035077
90,1.388891,462,169,493,496,-0.02364133,0.000883471,-0.002972025,-1.468309,3.110599,0.004493285,-0.01432772,0.009166142,-0.02773943,-0.3015684,2.58571,-3.035268
90,1.400002,462,169,493,496,-0.008730457,0.00319985,-0.002301042,-1.468658,3.110532,0.004558799,-0.01162846,-0.002438731,-0.004885774,-0.3010107,2.584226,-3.033841
90,1.411114,462,169,493,496,0.003775774,0.003061215,0.001094472,-1.469037,3.110581,0.004572648,-0.009752045,-0.009026211,0.01440613,-0.3003508,2.582996,-3.032698
90,1.422225,458,170,497,495,0.02003618,0.0002948958,0.009962014,-1.469725,3.110896,0.004518852,-0.00345642,-0.009940673,0.01830791,-0.300158,2.582161,-3.032015
90,1.433336,458,170,497,495,0.02824381,-0.002090213,0.01374612,-1.47028,3.111103,0.00442937,-0.002531431,0.001348668,-0.009061324,-0.3009303,2.583715,-3.033402
90,1.444447,458,170,497,495,0.03506205,-0.003741752,0.009927606,-1.470812,3.111057,0.00431219,-0.001374735,0.009618783,-0.03306497,-0.3019694,2.585366,-3.034756
90,1.455558,458,170,497,495,0.03879667,-0.00530135,0.004737636,-1.471266,3.110864,0.004308994,-0.001200981,0.01471757,-0.02751403,-0.3019545,2.586457,-3.035808
90,1.466669,458,170,497,495,0.03963725,-0.005515575,-0.00382517,-1.471713,3.110543,0.004244546,-0.007835748,0.006420879,0.003833782,-0.3010714,2.585643,-3.03495
90,1.47778,482,160,519,496,0.04406114,-0.00422488,-0.005429462,-1.472283,3.110605,0.004184359,-0.0115805,0.005382066,0.006127998,-0.3010043,2.585938,-3.035097
90,1.488891,482,160,519,496,0.03809579,-0.00817418,0.001111014,-1.472599,3.110778,0.004005927,-0.002443129,0.01008938,-0.01238836,-0.3016014,2.587013,-3.036253
90,1.500003,482,160,519,496,0.03401034,-0.002671495,0.009866409,-1.472964,3.111167,0.004104464,-0.0004583979,0.009340019,-0.02730773,-0.3022906,2.587654,-3.036824
90,1.511114,482,160,519,496,0.03396401,0.0005121389,0.01016617,-1.473354,3.111235,0.004192348,-0.008143971,0.007890971,-0.02719253,-0.3025069,2.58833,-3.037146
90,1.522225,436,162,507,499,0.02991376,0.008219337,0.007323123,-1.473657,3.111378,0.004464523,-0.01471825,0.004530123,-0.01570792,-0.3020749,2.588793,-3.037322
90,1.533336,436,162,507,499,0.02811296,0.007456651,0.003843021,-1.473909,3.111276,0.004539624,-0.01028874,-0.01238425,0.01647462,-0.3011066,2.586098,-3.034811
90,1.544447,436,162,507,499,0.02225516,0.0014698,-0.001606757,-1.474031,3.111136,0.004381965,0.001109553,-0.00652466,0.01402262,-0.3010858,2.586372,-3.035508
90,1.555558,436,162,507,499,0.01432628,-0.005551933,0.003400387,-1.473998,3.111343,0.004213654,0.004899401,0.002818401,-0.00815649,-0.3018214,2.58783,-3.036945
90,1.566669,436,162,507,499,0.01407764,-0.002576941,0.005816756,-1.474159,3.111483,0.004243481,0.01233051,0.003099966,-0.03152424,-0.3028366,2.588341,-3.03751
90,1.577781,546,161,493,498,0.01652439,0.002090542,0.002210375,-1.474258,3.111457,0.004382498,0.009554369,0.002401397,-0.02896788,-0.3030251,2.588034,-3.037224
90,1.588892,546,161,493,498,0.01603264,0.004820375,-0.004022662,-1.474404,3.111261,0.004489557,0.004280429,-0.009007565,-0.01160032,-0.3027114,2.58657,-3.035695
90,1.600003,546,161,493,498,0.01363874,0.008841138,-0.001707301,-1.474385,3.111305,0.004655206,-0.001258364,-0.02040725,0.006809609,-0.3020499,2.585002,-3.033931
90,1.611114,546,161,493,498,0.01158636,0.0110503,-0.002764869,-1.474469,3.111213,0.004826181,0.0006295983,-0.008961069,0.001766921,-0.3021292,2.585674,-3.034654
90,1.622225,529,183,488,497,0.01126443,0.01180234,0.0005012142,-1.474552,3.111285,0.004946555,0.001672975,0.0001338155,-0.001287394,-0.3022283,2.586758,-3.035857
90,1.633336,529,183,488,497,0.01317358,0.01266715,0.002906608,-1.474801,3.11129,0.0050142,0.008701695,0.007878907,-0.01595563,-0.3028392,2.587853,-3.037117
90,1.644447,529,183,488,497,0.02084645,0.009734139,0.001191164,-1.475211,3.111222,0.005055212,0.01206099,0.01093418,-0.01946077,-0.3031668,2.588469,-3.037829
90,1.655559,529,183,488,497,0.02720748,0.009770684,0.001785746,-1.47563,3.111247,0.005145227,0.01206673,0.01093515,-0.01945665,-0.3034001,2.588858,-3.038307
90,1.66667,529,183,488,497,0.03289249,0.01126263,-0.001853614,-1.476134,3.111066,0.005311409,0.01957306,-0.004518658,-0.03060394,-0.3045202,2.586569,-3.036191
90,1.677781,437,218,507,492,0.03522158,0.01041361,-0.00387566,-1.47647,3.110922,0.005440838,0.009300277,-0.01495841,-0.009088906,-0.3038709,2.585724,-3.035391
90,1.688892,437,218,507,492,0.02971568,0.003718833,-0.001808325,-1.47668,3.110929,0.005308745,0.009084416,-0.01005063,0.01953686,-0.3029372,2.58501,-3.035052
90,1.700003,437,218,507,492,0.02567032,0.003892021,-0.004317903,-1.47685,3.110863,0.005383846,0.006126291,-0.003457888,0.004359772,-0.3033015,2.585714,-3.035593
90,1.711114,437,218,507,492,0.01402015,0.002761152,-0.005508458,-1.476686,3.110785,0.00538864,0.005483404,-0.007634773,-0.0134696,-0.3039306,2.585533,-3.035235
90,1.722225,437,218,507,492,0.007087477,0.00320831,-0.01148763,-1.47653,3.110481,0.005375857,0.004550955,-0.008720044,-0.02145307,-0.30441,2.585276,-3.034775
90,1.733337,416,204,504,497,0.005035601,0.005414797,-0.01254653,-1.476502,3.110301,0.00549783,0.002293392,-0.01106128,-0.01433173,-0.3043855,2.584786,-3.034221
90,1.744448,416,204,504,497,0.002994068,0.006560576,-0.01369444,-1.476398,3.110253,0.005583583,-0.001344607,-0.01601657,0.005671907,-0.3037415,2.584176,-3.033612
90,1.755559,416,204,504,497,0.003927857,0.0085908,-0.01234657,-1.476485,3.110102,0.005808887,-0.005295262,-0.01333237,0.01231662,-0.3033846,2.583893,-3.033242
90,1.76667,416,204,504,497,0.01083807,0.009198996,-0.006271555,-1.476789,3.11018,0.005916479,0.005783514,-0.002900498,-0.01230565,-0.3043556,2.584656,-3.034139
90,1.777781,407,187,532,509,0.01690051,0.008941185,-0.002508264,-1.477075,3.110181,0.006027799,0.008034788,0.004443086,-0.0260665,-0.3049389,2.585521,-3.034954
90,1.788892,407,187,532,509,0.01574109,0.008835885,-0.001554591,-1.477203,3.110162,0.006128466,0.01357591,0.01685206,-0.04557178,-0.3059967,2.587595,-3.037132
90,1.800003,407,187,532,509,0.02233006,0.006951067,-0.003271755,-1.477528,3.110012,0.006228601,0.01000985,0.0130625,-0.04875681,-0.3064931,2.588174,-3.03761
90,1.811115,407,187,532,509,0.02887428,0.008241076,-0.004705265,-1.478023,3.109865,0.006347911,0.005397059,0.002010538,-0.03010135,-0.3063136,2.587153,-3.036517
90,1.822226,407,187,532,509,0.03037123,0.00545246,-0.009127144,-1.478342,3.109625,0.00641449,-0.001469425,-0.01138167,-0.004321736,-0.3056057,2.585361,-3.034514
90,1.833337,490,198,488,498,0.03462508,0.004411453,-0.008845727,-1.478841,3.109492,0.006411827,-0.0006981245,-0.009924137,0.008037195,-0.3051988,2.584851,-3.034119
90,1.844448,490,198,488,498,0.02424648,0.0003114068,-0.0005120421,-1.478835,3.109692,0.006360161,-0.003263809,-0.002734773,-0.01367652,-0.3058097,2.585565,-3.034332
90,1.855559,490,198,488,498,0.02524042,-0.001900418,0.0004434957,-1.479159,3.109694,0.00628293,-0.004642077,-0.0008241767,-0.02401069,-0.3063019,2.58612,-3.034647
90,1.86667,490,198,488,498,0.02661605,0.003792096,-0.003213288,-1.479552,3.109578,0.006523679,-0.003307962,-0.008588123,-0.02694134,-0.3069069,2.584945,-3.033513
90,1.877781,489,190,487,498,0.02862048,0.004772496,-0.001877745,-1.479859,3.109506,0.006650978,0.0006910674,-0.01153038,-0.02472449,-0.3071328,2.584265,-3.032853
90,1.888893,489,190,487,498,0.02868684,0.006986761,-0.002755391,-1.480166,3.109397,0.006786267,-0.005071654,-0.007584902,-0.02190552,-0.307258,2.584157,-3.032257
90,1.900004,489,190,487,498,0.03285191,0.0123149,-0.001921054,-1.480584,3.109241,0.007031278,-0.01248102,-0.009092441,-0.02282791,-0.3072958,2.58411,-3.031608
90,1.911115,489,190,487,498,0.03899274,0.02826946,1.595914E-05,-1.481144,3.109143,0.007795605,-0.01402718,3.364682E-05,-0.01665762,-0.3072345,2.585058,-3.032421
90,1.922226,489,190,487,498,0.04843237,0.02928993,0.001991078,-1.481956,3.109193,0.008102401,-0.009618115,-0.004908498,-0.01321821,-0.3073698,2.5845,-3.031976
90,1.933337,448,180,498,495,0.05152947,0.02169722,0.003719464,-1.48263,3.109213,0.008135957,-0.008588346,-0.005551978,-0.01182733,-0.3074465,2.584379,-3.031749
90,1.944448,448,180,498,495,0.04890881,0.009381426,0.009905962,-1.483095,3.109407,0.0078755,-0.002096376,-0.00778743,-0.01113078,-0.3075088,2.583332,-3.030604
90,1.955559,448,180,498,495,0.04427574,0.01006292,0.01382546,-1.483476,3.10963,0.008003332,0.00113061,-0.002718536,-0.01689081,-0.3078881,2.583278,-3.030666
90,1.966671,448,180,498,495,0.02941582,0.009973615,0.01249457,-1.483347,3.109634,0.008175905,0.0008550733,-0.002712905,-0.01586371,-0.3080468,2.584019,-3.031358
90,1.977782,487,194,491,490,0.01810489,0.01132536,0.007303207,-1.483266,3.109513,0.00838736,0.0008578608,-0.002713627,-0.01586344,-0.3082204,2.584031,-3.031323
90,1.988893,487,194,491,490,0.004963566,0.01292613,-0.001252298,-1.482956,3.109279,0.008570053,-0.01149238,-0.004274736,-0.01153129,-0.3080127,2.584381,-3.030962
90,2.000004,487,194,491,490,-0.002329944,0.01085728,-0.003163593,-1.482848,3.109197,0.008799084,-0.009280685,-0.01254979,0.0001632646,-0.3077171,2.582963,-3.029542
90,2.011115,487,194,491,490,-0.003362256,0.008728866,-0.003436982,-1.482767,3.109186,0.008848086,-0.004934493,-0.01411543,0.003570991,-0.3079126,2.582319,-3.029088
90,2.022226,487,194,491,490,0.002732499,0.007446139,0.0002222735,-1.483012,3.109247,0.008999887,-0.004067075,-0.01438013,0.00933373,-0.3076793,2.582062,-3.028695
90,2.033337,447,186,494,499,0.007722572,0.009334192,0.004045772,-1.483265,3.109328,0.009108011,-0.004132003,-0.01337435,0.008206417,-0.3076723,2.582502,-3.029266
90,2.044448,447,186,494,499,0.008799019,0.008267889,0.004051177,-1.483407,3.109344,0.009008941,8.571986E-05,-0.01294012,0.009363579,-0.3075935,2.581885,-3.028766
90,2.055559,447,186,494,499,0.008653106,0.01136714,0.0053752,-1.483403,3.109493,0.00922519,-0.001982322,-0.009291286,0.007678995,-0.3075296,2.581951,-3.028776
90,2.06667,447,186,494,499,0.009714396,0.01137472,0.005468856,-1.483536,3.109547,0.009329586,-0.01052571,-0.01290499,0.0009298986,-0.3076782,2.581448,-3.027579
90,2.077781,447,186,494,499,0.008979986,0.008453475,0.001937213,-1.483545,3.109439,0.009440374,-0.01373021,-0.0179674,0.006697226,-0.3074875,2.581057,-3.027198
90,2.088892,503,183,500,497,0.003781141,0.01496616,-0.0001427021,-1.483446,3.109373,0.009774334,-0.01701652,-0.01492705,0.01463058,-0.3070433,2.580734,-3.026717
90,2.100003,503,183,500,497,0.001363238,0.01469747,0.002835741,-1.483316,3.109502,0.0100055,-0.004128318,-0.01099905,0.009309502,-0.3069698,2.580795,-3.02709
90,2.111114,503,183,500,497,-0.005017163,0.01572001,0.002335058,-1.483085,3.109527,0.01021163,-0.001045463,-0.006300069,0.000196741,-0.3072201,2.581121,-3.027427
90,2.122225,503,183,500,497,-0.007493276,0.01323836,0.006193825,-1.483057,3.109703,0.01031549,-0.00319472,-0.003768656,-0.01255498,-0.3077762,2.581321,-3.027436
90,2.133336,471,192,498,499,-0.006418788,0.01218366,0.00620398,-1.483028,3.109793,0.01041722,-0.003888944,-0.001763197,-0.01275182,-0.3078513,2.581614,-3.027524
90,2.144447,471,192,498,499,0.001441418,0.009396868,0.00239647,-1.483262,3.109613,0.01049818,-0.004227335,-0.007377716,0.0004323812,-0.3075514,2.580794,-3.026721
90,2.155558,471,192,498,499,0.009009239,0.006339961,0.001765506,-1.483555,3.109625,0.0104348,-0.001591102,-0.01054414,0.01663036,-0.3068185,2.579848,-3.025912
90,2.166669,471,192,498,499,0.020694,0.005350352,0.002741181,-1.484098,3.109623,0.0104593,-0.001239632,-0.01154691,0.01672855,-0.3066497,2.579182,-3.025277
90,2.17778,471,192,498,499,0.02823151,0.004416725,0.002265572,-1.484582,3.109622,0.01045823,0.001636411,-0.01258529,0.007579685,-0.3069123,2.577923,-3.024032
90,2.188891,405,173,506,492,0.02813673,0.004331524,0.003313786,-1.484905,3.109664,0.01050724,0.002004501,-0.0119627,0.001053568,-0.3070907,2.577582,-3.023657
90,2.200002,405,173,506,492,0.02273947,0.004211171,0.003891592,-1.48502,3.109783,0.01052162,-0.001021396,-0.01341382,-0.003078158,-0.3072558,2.57724,-3.023196
90,2.211113,405,173,506,492,0.01500158,0.005900693,-0.005253846,-1.484948,3.109456,0.01064412,-0.001717201,-0.01777024,0.001164738,-0.3071573,2.576177,-3.022082
90,2.222224,405,173,506,492,0.001682875,0.006243636,-0.01178679,-1.484459,3.109275,0.01069259,-0.002516166,-0.01564117,0.01418857,-0.3065586,2.575871,-3.02185
90,2.233335,513,166,573,498,-0.01507435,0.005256379,-0.01554541,-1.483846,3.109065,0.01072348,0.005530295,-0.01587918,0.006437071,-0.3068052,2.574817,-3.020845
90,2.244446,513,166,573,498,-0.01847486,0.007189164,-0.01355748,-1.483599,3.10902,0.01085611,0.006224257,-0.005161138,-0.002239536,-0.3070374,2.575639,-3.0217
90,2.255557,513,166,573,498,-0.01435137,0.009256213,-0.01194024,-1.48362,3.108958,0.01109366,0.006578179,-0.006162808,-0.002143482,-0.3072239,2.57518,-3.021391
90,2.266668,513,166,573,498,-0.002027698,0.01005055,-0.006449659,-1.483907,3.109013,0.01122469,0.006791647,-0.01152652,0.0001390502,-0.3072217,2.574209,-3.020471
90,2.277779,513,166,573,498,0.01408751,0.009257408,-0.007186918,-1.484452,3.108852,0.01138448,-0.002097094,-0.008914251,0.01206669,-0.3067077,2.574269,-3.020308
90,2.28889,520,184,494,492,0.02288967,0.01494778,-0.01023231,-1.484939,3.108587,0.01170672,0.005672676,-0.01151123,0.00424668,-0.3069645,2.573569,-3.019788
90,2.300001,520,184,494,492,0.02655216,0.01537805,-0.01524402,-1.485226,3.108151,0.0118745,0.00402843,-0.01060962,-0.003926267,-0.3072627,2.573838,-3.020024
90,2.311112,520,184,494,492,0.01608497,0.01221337,-0.01752034,-1.485048,3.107885,0.01193469,0.002925023,-0.008973587,-0.006438509,-0.3074103,2.573846,-3.01997
90,2.322223,520,184,494,492,-0.002209148,0.009737559,-0.01615784,-1.484418,3.107955,0.01195972,0.002156477,-0.009960657,-0.002220782,-0.3071248,2.573214,-3.019416
90,2.333334,520,184,494,492,-0.01365775,0.008778219,-0.01945059,-1.483985,3.107567,0.01206359,-0.0005612737,-0.01091801,0.009188289,-0.3066609,2.573162,-3.019379
90,2.344445,506,167,488,490,-0.01265018,0.005517475,-0.01854495,-1.483845,3.107398,0.01203802,0.007916465,-0.02512216,0.01924256,-0.3063653,2.570602,-3.017105
90,2.355556,506,167,488,490,-0.01035625,0.007818026,-0.02030753,-1.483811,3.106952,0.01216212,0.01610738,-0.02409946,0.0004902193,-0.3068931,2.569401,-3.016239
90,2.366668,506,167,488,490,-0.009260877,0.01321436,-0.0208546,-1.483725,3.106692,0.012462,0.014967,-0.02694583,-0.01304351,-0.307454,2.56846,-3.015219
90,2.377779,506,167,488,490,-0.009242682,0.01214622,-0.02093415,-1.483636,3.106519,0.01245241,0.008610178,-0.02674165,-0.01144706,-0.3075291,2.567782,-3.014511
90,2.38889,510,162,484,496,-0.0106078,0.01294699,-0.01778219,-1.483481,3.106376,0.01262551,0.01052389,-0.02214423,0.005593918,-0.3071184,2.566838,-3.013838
90,2.400001,510,162,484,496,-0.01357277,0.01203438,-0.02027449,-1.483183,3.106218,0.01267984,0.01175548,-0.01630003,0.01472081,-0.306777,2.566083,-3.013343
90,2.411112,510,162,484,496,-0.005187529,0.01199672,-0.01841686,-1.483333,3.106017,0.01282685,0.01677143,-0.007136085,0.009420438,-0.3069021,2.56635,-3.013916
90,2.422223,510,162,484,496,0.007161393,0.00960452,-0.01314623,-1.483675,3.106088,0.01278317,0.02002222,-0.005428236,0.003664585,-0.3072984,2.565359,-3.01317
90,2.433334,510,162,484,496,0.02073274,0.01057652,-0.009663822,-1.484267,3.106013,0.01293977,0.01391109,0.0003732918,-0.007919621,-0.3076649,2.566224,-3.013937
90,2.444445,409,164,487,492,0.04651801,0.01529449,-0.01123957,-1.485456,3.105672,0.01330515,0.004746133,-0.008629295,-0.009242551,-0.3076239,2.56499,-3.012482
90,2.455556,409,164,487,492,0.04861072,0.01742002,-0.01091019,-1.485971,3.10544,0.01354058,0.003522456,-0.01534359,-0.004027016,-0.3074343,2.563968,-3.011348
90,2.466667,409,164,487,492,0.04527251,0.01404583,-0.009352189,-1.486387,3.105339,0.0135949,0.003336733,-0.01795262,0.00475433,-0.3072052,2.562876,-3.010314
90,2.477778,409,164,487,492,0.04288878,0.01165936,-0.00655269,-1.486855,3.105366,0.01363325,0.006129476,-0.006389667,0.008769435,-0.3069597,2.563024,-3.010748
90,2.488889,387,170,503,492,0.03442946,0.009480136,-0.007496013,-1.487001,3.105233,0.013678,0.008439153,-0.0004406944,-0.008274722,-0.3074827,2.563771,-3.011523
90,2.5,387,170,503,492,0.03227122,0.005132627,-0.006968353,-1.48742,3.105103,0.01358585,0.007167287,0.007172948,-0.01857129,-0.307994,2.564931,-3.012661
90,2.511111,387,170,503,492,0.01826203,0.007014072,-0.005950104,-1.487234,3.105059,0.01370835,0.004424883,0.003330074,-0.02481197,-0.3084457,2.565068,-3.012622
90,2.522222,387,170,503,492,0.0077423,0.0005738661,-0.00739931,-1.487153,3.104861,0.01350755,0.002449578,-0.005987037,-0.008764504,-0.308197,2.56388,-3.011322
90,2.533333,387,170,503,492,0.0006336312,-0.001354852,-0.0114118,-1.486951,3.104614,0.01345429,-0.003079765,-0.006665259,0.004093368,-0.3077672,2.563457,-3.010815
90,2.544444,405,153,519,497,-0.0123942,-0.0006078817,-0.009324688,-1.486442,3.104743,0.01347773,0.007078812,-0.01299435,0.01897018,-0.3071759,2.561424,-3.009218
90,2.555555,405,153,519,497,-0.01910068,-0.004154517,-0.005923956,-1.486142,3.104784,0.01331847,0.007186742,0.003080802,0.009021989,-0.3073437,2.563353,-3.011226
90,2.566666,405,153,519,497,-0.01323622,-0.003456631,3.338465E-05,-1.48616,3.104953,0.01328278,0.005038647,0.01867653,-0.009254321,-0.3078492,2.5658,-3.013625
90,2.577777,405,153,519,497,-0.006869058,-0.003421288,0.0006217974,-1.486281,3.104946,0.01318691,0.01122388,0.01997169,-0.02966445,-0.3089086,2.566968,-3.014899
90,2.588888,369,163,485,499,0.001520871,-0.003449015,0.002461595,-1.486509,3.105007,0.01314696,0.007458871,0.0071762,-0.019601,-0.3089192,2.566178,-3.014042
90,2.599999,369,163,485,499,0.001698493,-0.002232939,0.0004239491,-1.486492,3.104939,0.01304842,-0.001478905,0.008404555,-0.009883441,-0.3086401,2.566879,-3.014682
90,2.61111,369,163,485,499,0.01668832,-0.005247524,0.0004800941,-1.487086,3.104886,0.01291527,-0.008803053,0.004249491,-0.003017285,-0.308369,2.566843,-3.014402
90,2.622221,369,163,485,499,0.01994039,-0.003033003,-0.0001403863,-1.487422,3.104811,0.01280341,-0.005689994,0.003107411,0.008857936,-0.3081224,2.566733,-3.014505
90,2.633332,369,163,485,499,0.02904193,-0.005495636,0.005837536,-1.487998,3.105007,0.01267878,-0.004818214,0.01082572,0.003546391,-0.3081735,2.567882,-3.015663
90,2.644443,431,158,557,489,0.03305341,-0.008896461,0.009132456,-1.488567,3.10515,0.01242684,0.001330094,0.005999435,-0.02126504,-0.3091424,2.568508,-3.016069
90,2.655554,431,158,557,489,0.03206255,-0.006696991,0.008118863,-1.488882,3.105043,0.01243377,0.007784493,0.01329047,-0.0162262,-0.3091786,2.569101,-3.016788
90,2.666665,431,158,557,489,0.02174548,-0.007588744,0.003922265,-1.488835,3.104984,0.01233044,0.008476496,0.01365864,-0.01493392,-0.3093214,2.569613,-3.0174
90,2.677776,431,158,557,489,0.01754724,-0.01080614,0.003306316,-1.488986,3.105021,0.01207211,0.004536468,0.007599837,-0.004945614,-0.3091376,2.569402,-3.017221
90,2.688887,475,159,476,497,0.01994675,-0.01055552,0.0003115253,-1.489227,3.104908,0.01196718,-0.00270636,0.01491529,0.002994943,-0.3088287,2.570501,-3.018245
90,2.699998,475,159,476,497,0.01969583,-0.01291813,0.00331761,-1.489427,3.104951,0.01175999,-0.007904906,0.01086665,0.01484019,-0.308394,2.570658,-3.018222
90,2.711109,475,159,476,497,0.0198674,-0.01169866,0.001273629,-1.489645,3.104905,0.01164813,-0.005223913,0.01570033,0.01996667,-0.307993,2.57132,-3.019072
90,2.72222,475,159,476,497,0.01740329,-0.006639063,0.004653773,-1.489774,3.105059,0.01168009,-0.005216749,0.01569996,0.01996884,-0.3077442,2.571763,-3.019555
90,2.733331,475,159,476,497,0.01817895,-0.005807909,0.007992702,-1.490006,3.10522,0.0115986,-0.005209614,0.01569959,0.01997099,-0.3074971,2.572205,-3.020037
90,2.744442,416,174,508,494,0.01912983,-0.004820946,0.009215415,-1.490138,3.105298,0.01152936,-0.005202483,0.01569921,0.01997315,-0.30725,2.572647,-3.02052
90,2.755553,416,174,508,494,0.01970435,-0.00647559,0.002703196,-1.490373,3.105128,0.01140898,-3.965478E-05,0.01475619,-0.0194883,-0.3102567,2.575064,-3.022551
90,2.766664,416,174,508,494,0.02955223,-0.008315631,0.0001778319,-1.490919,3.105097,0.01115865,0.008812425,0.01815669,-0.004921459,-0.3094359,2.575416,-3.023691
90,2.777775,416,174,508,494,0.03165674,-0.007245973,0.000422786,-1.491245,3.105084,0.01103827,0.006616862,0.01506872,-0.005511161,-0.3095115,2.576852,-3.024917
90,2.788886,416,174,508,494,0.03046969,-0.01165791,0.002125027,-1.491569,3.105155,0.01077142,0.0006992426,0.01114729,0.02159462,-0.3085288,2.576392,-3.024579
90,2.799997,412,172,493,490,0.03369858,-0.01483188,0.002136442,-1.492064,3.105135,0.01045184,-0.004151882,0.007718395,0.02690357,-0.308108,2.576926,-3.024881
90,2.811108,412,172,493,490,0.02199695,-0.01278034,0.001310779,-1.49202,3.105141,0.01033733,-0.004052612,-0.008369719,0.03581517,-0.3075387,2.574847,-3.022863
90,2.822219,412,172,493,490,0.01140159,-0.01497006,0.0002676024,-1.491759,3.105193,0.01011362,-0.0005924385,0.001429898,0.0312029,-0.307332,2.575118,-3.023224
90,2.83333,412,172,493,490,-0.01298583,-0.0172436,-0.001952683,-1.490917,3.105181,0.009864882,0.0002012802,0.001672778,0.01927401,-0.3074492,2.575273,-3.02337
90,2.844441,431,176,486,496,-0.02699615,-0.01430181,-0.0007887656,-1.49031,3.105208,0.009774334,0.007417535,0.005446496,0.00908706,-0.3078476,2.576575,-3.024913
90,2.855552,431,176,486,496,-0.03713521,-0.01608673,-0.00717218,-1.489596,3.10501,0.0095469,0.002256536,0.008639017,0.002143139,-0.3079717,2.577147,-3.025732
90,2.866663,431,176,486,496,-0.04328421,-0.01162692,-0.01060935,-1.48889,3.104859,0.009595369,-0.01242108,0.008347499,0.004753979,-0.3076974,2.577926,-3.026036
90,2.877774,431,176,486,496,-0.03133696,-0.01130951,-0.0127752,-1.488908,3.104723,0.009445167,-0.009794944,0.00943556,0.006585679,-0.3071211,2.577955,-3.026027
90,2.888885,431,176,486,496,-0.02085407,-0.008140437,-0.01056285,-1.488945,3.104667,0.0094457,-0.008206148,0.01352805,0.008109625,-0.3069517,2.578716,-3.026827
90,2.899997,487,172,490,501,-0.006809511,-0.01524212,0.0008141334,-1.489337,3.105015,0.009073922,-0.008477814,0.01352893,0.009151891,-0.3064121,2.578184,-3.026195
90,2.911108,487,172,490,501,0.007921083,-0.01204475,0.003377318,-1.489774,3.10506,0.009039834,-0.007701568,0.01451908,0.004942265,-0.3064201,2.578885,-3.026857
90,2.922219,487,172,490,501,0.01399863,-0.0101236,0.007252417,-1.490072,3.10524,0.009000419,-0.0009142822,0.009924997,0.003490484,-0.3068185,2.578582,-3.027065
90,2.93333,487,172,490,501,0.02473141,-0.01209873,0.006910712,-1.490626,3.105232,0.008828912,-0.005562321,0.009869733,0.007744392,-0.3064915,2.578956,-3.027311
90,2.944441,456,160,495,498,0.03176251,-0.008228928,-0.0007932875,-1.491125,3.105054,0.008829445,-0.004435968,0.005120181,0.001444731,-0.3064824,2.578958,-3.027247
90,2.955552,456,160,495,498,0.02534259,-0.01153535,-0.0005066122,-1.491201,3.105134,0.00860201,-0.004803935,-0.0002401518,0.005785315,-0.3061517,2.578602,-3.026683
90,2.966663,456,160,495,498,0.02019462,-0.01034472,-0.00298568,-1.491272,3.105047,0.008525844,-0.009861145,0.001710814,0.0088189,-0.3059045,2.578887,-3.026821
90,2.977774,456,160,495,498,0.01057725,-0.01260822,-0.002878526,-1.491136,3.105073,0.008287758,-0.01368176,0.007128399,0.01991058,-0.3052633,2.579459,-3.027254
90,2.988885,456,160,495,498,0.008327039,-0.009514795,-0.001756635,-1.491135,3.105047,0.008270713,-0.005205076,0.01360506,0.01004837,-0.3054028,2.580311,-3.028284
90,2.999996,472,172,514,496,0.005898697,-0.01197125,0.002141062,-1.491379,3.105141,0.008134359,-0.005864276,0.01960848,0.004323248,-0.3056137,2.581177,-3.029258
90,3.011107,472,172,514,496,0.01429752,-0.01093933,0.003972216,-1.491818,3.105232,0.00800493,-0.008370232,0.0207923,-0.009622401,-0.3060137,2.582441,-3.030282
90,3.022218,472,172,514,496,0.01733156,-0.01213852,0.006265658,-1.492163,3.105375,0.007876033,-0.01237073,0.01000489,-0.001835715,-0.305635,2.582146,-3.02968
90,3.033329,472,172,514,496,0.01943264,-0.009997927,0.006596856,-1.492439,3.105495,0.007843542,-0.01318657,0.008128108,0.01672647,-0.3049234,2.581964,-3.02954
90,3.04444,472,172,514,496,0.01138792,-0.01177477,0.0004555499,-1.492344,3.10538,0.00765499,-0.01114209,0.003580167,0.03275879,-0.3040499,2.581642,-3.029317
90,3.055551,448,158,473,497,0.003832819,-0.01516742,0.001735774,-1.492317,3.105514,0.007410512,-0.01155063,0.002485227,0.02270827,-0.3042747,2.582331,-3.029799
90,3.066662,448,158,473,497,-0.008896018,-0.01630791,0.0006211799,-1.491881,3.105549,0.007207046,-0.01217101,0.009390829,0.002637903,-0.3046901,2.583712,-3.030953
90,3.077773,448,158,473,497,-0.02056838,-0.0163794,-0.0003374191,-1.491477,3.105504,0.007025419,-0.01036616,0.007371758,-0.001274135,-0.3045729,2.584028,-3.031185
90,3.088884,448,158,473,497,-0.02828214,-0.01454861,0.002380216,-1.490953,3.105661,0.006899718,-0.002676292,-0.0001537537,0.010783,-0.3042374,2.583031,-3.030423
90,3.099995,426,183,513,498,-0.03270097,-0.01474449,0.004137539,-1.490504,3.105851,0.006716492,-0.006974593,0.001166425,0.01623599,-0.303758,2.583327,-3.030506
90,3.111106,426,183,513,498,-0.02647061,-0.01054035,0.006039841,-1.490359,3.105989,0.006738863,-0.0122878,0.002402199,0.01258255,-0.3036014,2.583738,-3.030691
90,3.122217,426,183,513,498,-0.01576603,-0.01039261,0.005850332,-1.490459,3.10604,0.00662701,-0.01209981,-0.0005992297,0.01595819,-0.3033516,2.583587,-3.030389
90,3.133328,426,183,513,498,-0.01033237,-0.005945552,0.004501497,-1.49057,3.106111,0.006658968,-0.0117209,0.004766883,0.01162709,-0.303285,2.584352,-3.031072
90,3.144439,426,183,513,498,0.01019765,-0.006552057,0.001820127,-1.491239,3.106018,0.006572149,-0.01339346,0.001691049,0.008974021,-0.3032733,2.584659,-3.031137
90,3.15555,443,180,503,497,0.0226952,-0.006727069,0.006004851,-1.491832,3.106102,0.006411827,-0.0093893,0.001107754,0.01227154,-0.3030235,2.584754,-3.031243
90,3.166661,443,180,503,497,0.03108486,-0.004630333,0.007888837,-1.492394,3.106183,0.006417153,-0.005228439,0.002519035,0.0122911,-0.3028914,2.584774,-3.031364
90,3.177772,443,180,503,497,0.03228015,-0.001279486,0.006077947,-1.492781,3.106088,0.00639425,-0.003594415,0.005137736,-0.001627716,-0.3033101,2.585536,-3.03212
90,3.188883,443,180,503,497,0.0342553,-0.00248873,0.008266034,-1.493243,3.10621,0.006334062,-0.003614254,0.000403339,-0.003825518,-0.3034118,2.585265,-3.03177
90,3.199994,470,177,495,497,0.01915961,0.002568671,0.009630805,-1.493132,3.106447,0.006437393,-0.004638015,0.003418714,-0.004113916,-0.3033926,2.585779,-3.032171
90,3.211105,470,177,495,497,0.0119007,0.0016195,0.006854356,-1.49306,3.106517,0.006385195,-0.0066833,-0.002657434,-0.001336289,-0.3033234,2.585276,-3.031524
90,3.222216,470,177,495,497,-0.005068493,-0.0006113001,0.005358405,-1.492535,3.106594,0.006313822,-0.007273816,-0.006649479,0.006247652,-0.3030097,2.584871,-3.031051
90,3.233327,470,177,495,497,-0.02299665,0.002626849,0.002039943,-1.491843,3.106597,0.006434197,-0.010365,-0.01371824,0.01426787,-0.3026224,2.583797,-3.029823
90,3.244438,470,177,495,497,-0.03787728,0.003595616,0.0009063929,-1.491042,3.106637,0.006476808,-0.004613453,-0.01296015,0.01361172,-0.302534,2.583054,-3.029051
90,3.255549,412,165,492,494,-0.04430843,0.001348553,0.001257746,-1.490426,3.106665,0.006454437,-0.00130048,-0.005623424,-0.004282137,-0.3031055,2.584241,-3.030246
90,3.26666,412,165,492,494,-0.04020105,0.005537724,0.002971758,-1.490081,3.106755,0.006634467,-0.003364293,-0.004329139,-0.007053019,-0.3032243,2.584376,-3.030243
90,3.277771,412,165,492,494,-0.02528009,0.007833559,0.003295702,-1.490186,3.10683,0.006734602,0.0006853696,-0.0106528,-0.004830817,-0.3032552,2.583306,-3.029223
90,3.288882,412,165,492,494,-0.007974108,0.01039527,0.0006107331,-1.490564,3.106719,0.006921023,0.00287291,-0.01321732,0.007906195,-0.3028946,2.582283,-3.028363
90,3.299993,457,171,494,503,0.01441456,0.01706784,0.0007848845,-1.491247,3.106711,0.007259777,-0.0009215148,-0.01090687,0.01018164,-0.3027418,2.581768,-3.027744
90,3.311104,457,171,494,503,0.01931715,0.01563598,0.006414731,-1.4916,3.106856,0.007439807,-0.002229998,-0.01098912,0.002106067,-0.3029271,2.581523,-3.027357
90,3.322215,457,171,494,503,0.02191391,0.02155,0.01349277,-1.491949,3.107137,0.007827563,0.0008702604,0.000808731,-0.003717236,-0.3031519,2.582634,-3.028531
90,3.333326,457,171,494,503,0.01678548,0.0206218,0.01085807,-1.49196,3.107071,0.008058193,0.002925648,0.003791992,-0.01532028,-0.3037761,2.5837,-3.029729
90,3.344437,457,171,494,503,0.0192324,0.01556569,0.007447782,-1.49224,3.10704,0.00809814,0.006691128,-0.004889011,-0.01316708,-0.303945,2.5827,-3.028825
90,3.355548,470,172,498,497,0.0149921,0.01448756,0.007026855,-1.492247,3.107126,0.008357,0.008810744,-0.008809572,-0.002652088,-0.3038241,2.581917,-3.028406
90,3.366659,470,172,498,497,0.02046085,0.01574339,0.005406753,-1.49262,3.107112,0.008570053,0.000772133,-0.008546839,0.005102487,-0.3035263,2.581709,-3.028047
90,3.37777,470,172,498,497,0.01774008,0.01292906,-0.0003803403,-1.492738,3.106994,0.008629707,0.001547451,-0.005193833,0.001991208,-0.3036014,2.581548,-3.027833
90,3.388881,470,172,498,497,0.02080691,0.008540557,0.001674128,-1.493024,3.107053,0.008585499,0.007111091,0.0009404942,-0.0009370282,-0.3037159,2.581922,-3.028445
90,3.399992,470,172,498,497,0.02189045,0.006426759,0.001604456,-1.493239,3.107118,0.00868084,0.005540607,0.003228144,-0.006886116,-0.3039301,2.582395,-3.028907
90,3.411103,410,162,465,492,0.01888087,0.005499569,-0.0008380678,-1.493254,3.107176,0.008714928,0.007313577,-0.002793168,-0.005282892,-0.3039833,2.581645,-3.028219
90,3.422215,410,162,465,492,0.02419011,0.005530737,-0.0004215499,-1.493669,3.107121,0.008766593,0.0153946,-0.004951408,0.00242142,-0.3040116,2.580699,-3.027725
90,3.433326,410,162,465,492,0.02673245,0.005933494,-0.005556383,-1.493974,3.106845,0.008915198,0.01495547,0.004420962,-0.004342541,-0.3042438,2.581676,-3.028848
90,3.444437,410,162,465,492,0.03520275,0.0005921973,-0.00422656,-1.494598,3.106813,0.008755941,0.007374492,0.01067887,-0.006421441,-0.3043743,2.583244,-3.030262
90,3.455548,399,163,498,499,0.03615867,-0.004872022,-0.00242533,-1.495002,3.106823,0.008508267,0.005413415,0.01069792,0.0007691346,-0.3042012,2.583184,-3.030189
90,3.466659,399,163,498,499,0.02888958,-0.004764789,-0.005131917,-1.495101,3.106704,0.008474179,0.001920532,0.005637947,0.007562575,-0.3039391,2.582808,-3.029807
90,3.47777,399,163,498,499,0.01531178,-0.01000633,-0.008717474,-1.494908,3.106563,0.008200405,0.009879766,0.004737987,0.005312248,-0.3040611,2.58216,-3.02948
90,3.488881,399,163,498,499,0.006887117,-0.008915976,-0.0103681,-1.494737,3.106422,0.00813862,0.006308126,0.007314753,-0.002286108,-0.304297,2.582868,-3.030131
90,3.499992,399,163,498,499,-0.01276132,-0.01067855,-0.01847772,-1.493972,3.106075,0.008105597,0.005895679,0.006948237,-0.004604622,-0.3044062,2.582839,-3.030079
90,3.511103,392,141,500,495,-0.0116393,-0.008466611,-0.01930054,-1.493856,3.105848,0.008074705,0.01308039,0.005064339,-0.002643395,-0.3044771,2.582624,-3.030189
90,3.522214,392,141,500,495,0.00191508,-0.009683193,-0.01509885,-1.494256,3.10586,0.007925035,0.020376,0.01799502,0.0004135119,-0.3043386,2.583199,-3.031057
90,3.533325,392,141,500,495,0.01248459,-0.01289185,-0.01343796,-1.494763,3.105791,0.007636348,0.01801168,0.02429096,-0.007965866,-0.3046379,2.584656,-3.032644
90,3.544436,392,141,500,495,0.03569713,-0.01504064,-0.009683606,-1.495796,3.105711,0.00741211,0.00662481,0.02576451,-0.01108363,-0.3048606,2.586317,-3.034103
90,3.555547,408,141,510,500,0.04740086,-0.01710731,-0.008992209,-1.49662,3.105495,0.007076552,0.004667782,0.0160459,0.0005590986,-0.3045436,2.585518,-3.033366
90,3.566658,408,141,510,500,0.04715744,-0.01733914,-0.005841497,-1.497132,3.105479,0.006878412,0.01027778,0.007438303,0.008740551,-0.304313,2.584605,-3.03277
90,3.577769,408,141,510,500,0.04931752,-0.02051538,-0.005952759,-1.497731,3.10523,0.006598248,0.009228989,0.003353683,0.005158154,-0.3043269,2.584728,-3.032908
90,3.58888,408,141,510,500,0.04101698,-0.02466394,-0.009029348,-1.497939,3.10506,0.006206231,0.007570439,0.002641447,0.003603822,-0.3043514,2.584685,-3.032906
90,3.599991,408,141,510,500,0.02745854,-0.01912455,-0.01390806,-1.497876,3.10468,0.00628293,-0.003676014,0.003752157,-0.003888961,-0.3045037,2.58557,-3.033402
90,3.611102,419,138,496,495,0.008257693,-0.01179454,-0.01478867,-1.497442,3.104511,0.006388924,-0.008833461,0.01245605,-0.0009101797,-0.3043109,2.586891,-3.034578
90,3.622213,419,138,496,495,-0.003784679,-0.01436389,-0.01051414,-1.497235,3.104517,0.006189186,-0.005237762,0.02862532,-0.009928255,-0.3045671,2.589703,-3.037435
90,3.633324,419,138,496,495,-0.00939048,-0.01575787,-0.006755734,-1.49709,3.104463,0.006038984,-0.0004548095,0.03166739,-0.01857097,-0.3049868,2.591253,-3.03906
90,3.644435,419,138,496,495,-0.007398358,-0.0180226,-0.004634548,-1.49707,3.104515,0.005787582,0.008350187,0.02364707,-0.02716405,-0.3055882,2.591143,-3.03918
90,3.655546,410,145,498,499,0.007623091,-0.01777953,-0.005663771,-1.497494,3.104277,0.005620868,0.009423609,0.01226219,-0.02020226,-0.305684,2.590546,-3.038682
90,3.666657,410,145,498,499,0.02022105,-0.01140735,-0.003217215,-1.498058,3.104259,0.005663478,-0.001765826,0.002820153,0.003266481,-0.3049437,2.589238,-3.03732
90,3.677768,410,145,498,499,0.02842934,-0.006268056,0.000958049,-1.498529,3.104422,0.005793441,-0.006075182,0.004136927,0.008714499,-0.3045623,2.589324,-3.037318
90,3.688879,410,145,498,499,0.03083628,-0.00487516,0.0119253,-1.498968,3.104823,0.00577906,-0.005334891,0.01587046,-0.001065448,-0.3047567,2.591187,-3.039151
90,3.69999,410,145,498,499,0.03404976,-0.006977826,0.01198793,-1.499355,3.104884,0.005638445,-0.003325138,0.02822327,-0.02044954,-0.3054688,2.593463,-3.041416
90,3.711101,377,165,511,492,0.03101413,-0.006845941,0.009630425,-1.499603,3.104867,0.005570268,0.006673582,0.01445736,-0.03422118,-0.3063115,2.592886,-3.040935
90,3.722212,377,165,511,492,0.02273107,-0.00560378,0.005923294,-1.499703,3.104861,0.005620335,-0.003540954,0.00464141,-0.01822274,-0.3059706,2.592225,-3.039996
90,3.733323,377,165,511,492,0.01845104,-0.002439083,0.005837098,-1.499875,3.104838,0.00569224,-0.005457246,0.00812742,0.001137775,-0.3053794,2.592445,-3.040352
90,3.744434,377,165,511,492,0.01846413,-0.003501111,0.005759182,-1.500084,3.104903,0.005637912,-0.006085441,0.006769238,0.0009682744,-0.305341,2.592621,-3.04046
90,3.755545,377,165,511,492,0.02128311,0.002601196,0.01066725,-1.500377,3.105195,0.00580356,-0.007283149,0.008588055,-0.0225903,-0.3061709,2.593641,-3.041105
90,3.766656,402,188,499,497,0.02746674,0.0002982561,0.01413645,-1.500848,3.105435,0.005741243,-0.005732819,0.01130226,-0.02327959,-0.3064255,2.594457,-3.041851
90,3.777767,402,188,499,497,0.02630417,0.003406293,0.01532595,-1.501179,3.105528,0.005786516,-0.007258379,0.01332484,-0.020389,-0.3063764,2.595124,-3.042506
90,3.788878,402,188,499,497,0.02321484,0.001334506,0.01389211,-1.501343,3.1056,0.00573858,-0.006207649,-0.0007009255,-0.005673544,-0.3061351,2.593729,-3.041077
90,3.799989,402,188,499,497,0.01998823,-0.00194111,0.01450921,-1.501474,3.105719,0.005688512,-0.007279862,0.003312181,-0.007092846,-0.3062364,2.59421,-3.041488
90,3.8111,424,177,521,500,0.01170459,-0.001775755,0.01074017,-1.501379,3.105733,0.005683718,-0.00523241,0.002017648,-0.004308783,-0.3062465,2.594097,-3.041363
90,3.822211,424,177,521,500,0.009606695,-0.003912841,0.0104479,-1.50148,3.105864,0.005604889,-0.006022377,0.00602683,-0.006745852,-0.3062529,2.594574,-3.041778
90,3.833322,424,177,521,500,0.01064468,-0.001777302,0.01066543,-1.501624,3.105994,0.005668272,-0.01329212,0.01466192,-0.008798758,-0.3062497,2.596225,-3.043132
90,3.844433,424,177,521,500,0.008592365,-0.001717491,0.009457959,-1.501654,3.106048,0.005660815,-0.01193127,0.005909598,-0.01060469,-0.3064084,2.595967,-3.042779
90,3.855544,424,177,521,500,0.007475403,0.003594642,0.009735869,-1.501777,3.10604,0.005868009,-0.009783925,-0.009501606,-0.002215239,-0.3063349,2.59384,-3.040651
90,3.866655,409,166,496,503,0.004347671,0.004710682,0.008526864,-1.501735,3.106104,0.005950567,-0.01091907,-0.006853605,-0.005856508,-0.3064425,2.594063,-3.040683
90,3.877766,409,166,496,503,-0.0001858021,0.003331295,0.01240335,-1.501609,3.106376,0.005931392,-0.008461155,-0.009888234,-0.0106963,-0.3067738,2.593676,-3.040217
90,3.888877,409,166,496,503,0.001053459,0.007805548,0.009582039,-1.50173,3.106389,0.006119411,-0.009867625,0.0001308462,-0.01886792,-0.3071477,2.594935,-3.041256
90,3.899988,409,166,496,503,0.005578543,0.01024416,0.005773102,-1.501956,3.106322,0.00625257,-0.01256046,-0.009950567,-0.008516351,-0.3069091,2.593579,-3.039656
90,3.911099,432,168,498,500,0.007525542,0.01330366,0.008249424,-1.502128,3.106471,0.006439523,-0.006190039,-0.01072772,0.007629429,-0.3064803,2.592595,-3.038832
90,3.92221,432,168,498,500,0.01493228,0.01009695,0.009602733,-1.502543,3.106545,0.006532202,-0.005104881,-0.01447568,0.0002044104,-0.3066705,2.591969,-3.038094
90,3.933321,432,168,498,500,0.016988,0.01004094,0.01080352,-1.502798,3.106675,0.00662701,-0.003432207,-0.0229638,-0.01146931,-0.3072015,2.591105,-3.037032
90,3.944432,432,168,498,500,0.01277274,0.01433854,0.009716174,-1.502917,3.10661,0.006894924,-0.006541392,-0.02977314,-0.01230416,-0.3074076,2.589649,-3.035285
90,3.955544,432,168,498,500,0.01118145,0.02019633,0.001420602,-1.503091,3.106351,0.007232613,-0.01416591,-0.02804451,0.008807139,-0.3065996,2.588859,-3.034369
90,3.966655,424,186,511,498,0.001593715,0.02226455,0.00089471,-1.502852,3.106336,0.007524495,-0.01488835,-0.02766656,0.01524474,-0.306239,2.587905,-3.033275
90,3.977766,424,186,511,498,-0.006852172,0.02441301,-0.0006297063,-1.502594,3.106288,0.007909589,-0.01060412,-0.02587645,0.01863156,-0.3060079,2.586951,-3.032344
90,3.988877,424,186,511,498,-0.008563383,0.02165955,0.008697827,-1.502476,3.10659,0.008070444,-0.004099809,-0.01201174,0.01042783,-0.3060952,2.587637,-3.033197
90,3.999988,424,186,511,498,-0.008646421,0.02266387,0.009814424,-1.502464,3.106693,0.008441156,-0.002130792,-0.01176958,-0.005612569,-0.3066875,2.587772,-3.033253
90,4.011099,379,193,508,497,-0.007533239,0.02486601,0.008955685,-1.502434,3.106741,0.00874369,-0.0002031615,-0.01079464,-0.01392573,-0.3070955,2.587698,-3.033118
89.66666,4.02221,379,193,508,497,-0.005939541,0.02535607,0.001599087,-1.502462,3.106552,0.009092565,-0.005794669,-0.02567382,-0.007676301,-0.3070422,2.585847,-3.030924
89.33333,4.033321,379,193,508,497,-0.005745303,0.02123972,-0.0007880919,-1.502359,3.106523,0.00921507,-0.01174955,-0.02722571,0.02053107,-0.3061128,2.584474,-3.02946
88.99999,4.044433,379,193,508,497,-0.00604927,0.02096601,0.003447195,-1.502292,3.106637,0.009405753,-0.008560037,-0.02142024,0.02248904,-0.3058289,2.583985,-3.029035
88.66666,4.055544,379,193,508,497,-0.003971592,0.01771813,0.004458839,-1.502243,3.106703,0.009480321,-0.01110257,-0.005775978,0.00627348,-0.3062076,2.585264,-3.030146
88.33332,4.066655,395,205,536,504,0.0003532954,0.01781333,0.003698252,-1.502345,3.106668,0.009691776,-0.004158867,-0.001758015,-0.01172513,-0.3067887,2.585795,-3.030643
87.99998,4.077766,395,205,536,504,0.005590919,0.01777731,0.005134062,-1.502555,3.106716,0.009857957,-0.0004211166,-0.002807464,-0.02395436,-0.3073597,2.585759,-3.030495
87.66665,4.088878,395,205,536,504,0.008119211,0.01599805,-0.0001531075,-1.502677,3.106519,0.009982061,-0.008889826,-0.005298609,-0.01964369,-0.3073725,2.585776,-3.030143
87.33331,4.099989,395,205,536,504,0.003980949,0.01285285,-0.001720462,-1.502605,3.106421,0.01010297,-0.009087222,-0.008927534,-0.009739593,-0.3072175,2.584919,-3.029158
86.99998,4.1111,395,205,536,504,0.0007511145,0.009577487,-0.001088191,-1.502539,3.106443,0.0101328,-0.009722326,-0.007433092,0.007758616,-0.3066491,2.584552,-3.02883
86.66664,4.122211,425,196,466,487,0.003654117,0.007203946,0.003253797,-1.502656,3.106624,0.01015836,-0.0122424,-0.009770365,0.0159147,-0.3062928,2.583922,-3.028108
86.33331,4.133323,425,196,466,487,0.008763204,0.004910178,0.006685971,-1.502926,3.106802,0.01012161,-0.0003332887,-0.01069392,-0.0007189838,-0.3070465,2.583473,-3.027854
85.99997,4.144434,425,196,466,487,0.008887648,0.000720371,0.005355131,-1.503047,3.106738,0.009968745,-0.0009668237,-0.007552443,-0.02410346,-0.3078848,2.584114,-3.028219
85.66663,4.155545,425,196,466,487,0.0102426,0.002058174,0.001252211,-1.503191,3.106583,0.01007847,0.003373442,-0.008860685,-0.02953563,-0.3083434,2.583772,-3.027969
85.3333,4.166656,493,196,511,493,0.008487158,0.003437001,-0.004137131,-1.503219,3.106404,0.01013173,-0.004445916,0.0008501965,-0.01846141,-0.3081432,2.584802,-3.028825
84.99996,4.177768,493,196,511,493,0.00519081,-0.0009687725,-0.002509013,-1.503177,3.106421,0.009945842,-0.008505688,0.0002712393,0.001414688,-0.3075967,2.584474,-3.028317
84.66663,4.188879,493,196,511,493,0.0052037,-0.00954016,-0.001978135,-1.503237,3.106424,0.009579923,-0.003703361,0.002811665,0.01045656,-0.3072755,2.584436,-3.028486
84.33329,4.19999,493,196,511,493,0.00205925,-0.01381208,-0.002474088,-1.503164,3.106422,0.0093184,-0.01074864,0.009030629,0.006292301,-0.3072766,2.585565,-3.029219
83.99995,4.211102,493,196,511,493,0.007106239,-0.01723708,0.001943008,-1.503372,3.106583,0.009041964,-0.007592453,0.01747333,0.0004932266,-0.3074502,2.587024,-3.030787
83.66662,4.222213,482,200,543,505,0.006155815,-0.02036529,0.0005981856,-1.503448,3.106523,0.008758605,-0.00551983,0.02755248,-0.007815254,-0.3076856,2.58897,-3.032756
83.33328,4.233324,482,200,543,505,0.01240727,-0.0225878,0.003026858,-1.503769,3.106616,0.008448612,-0.0120826,0.04551476,-0.0207584,-0.3080383,2.592771,-3.036229
82.99995,4.244435,482,200,543,505,0.02007478,-0.02984523,0.0009437873,-1.504258,3.106611,0.007995342,-0.02108302,0.06227415,-0.01448636,-0.3077693,2.59682,-3.04002
82.66661,4.255547,482,200,543,505,0.03822242,-0.04362664,0.00230981,-1.505284,3.106588,0.007109042,-0.02028484,0.068484,8.268468E-05,-0.3073314,2.598876,-3.042289
82.33327,4.266658,481,178,492,497,0.05004864,-0.05631596,0.002196074,-1.506152,3.106621,0.006131662,-0.01874607,0.0850633,0.002658717,-0.3070598,2.603225,-3.046754
81.99994,4.277769,481,178,492,497,0.05646546,-0.06591477,0.002956181,-1.506997,3.106671,0.005119661,-0.01363289,0.08884498,0.00076361,-0.3069431,2.606345,-3.050115
81.6666,4.28888,481,178,492,497,0.06079139,-0.09805765,0.005187531,-1.507782,3.106867,0.003169694,-0.01276394,0.09740123,0.01647907,-0.3062209,2.61024,-3.054305
81.33327,4.299992,481,178,492,497,0.06771152,-0.1199957,-0.001456393,-1.508693,3.106809,0.00131134,-0.007091336,0.08410697,0.03472742,-0.3052973,2.611356,-3.055742
80.99993,4.311103,481,178,492,497,0.0661577,-0.1547849,-0.008626312,-1.509409,3.106676,-0.001352886,-0.01267899,0.07854723,0.07964212,-0.3031546,2.612256,-3.057073
80.6666,4.322214,490,166,510,501,0.03292595,-0.1797033,-0.02340816,-1.508932,3.106242,-0.003924967,-0.02318008,0.09540133,0.1054237,-0.3010986,2.616556,-3.061633
80.33326,4.333325,490,166,510,501,0.001308948,-0.1998296,-0.02934427,-1.508038,3.105993,-0.006709568,-0.02822573,0.1230193,0.119445,-0.2991928,2.622479,-3.068024
79.99992,4.344437,490,166,510,501,-0.05656433,-0.2400129,-0.04086034,-1.505724,3.105762,-0.01038952,-0.02668849,0.1771896,0.1064971,-0.2980775,2.633181,-3.07926
79.66659,4.355548,490,166,510,501,-0.1041272,-0.277402,-0.04564708,-1.503361,3.105716,-0.01445351,-0.01382676,0.2562207,0.08346689,-0.2975076,2.648211,-3.095284
79.33325,4.366659,514,176,491,494,-0.1345154,-0.3133044,-0.05311156,-1.501045,3.105513,-0.01893774,0.01222825,0.2932825,0.07440914,-0.2970213,2.660929,-3.109552
78.99992,4.37777,514,176,491,494,-0.1354211,-0.3365944,-0.05476809,-1.499574,3.105374,-0.02323022,0.03326562,0.3369714,0.06073309,-0.2967539,2.675081,-3.125279
78.66658,4.388882,514,176,491,494,-0.1182051,-0.3726825,-0.05510254,-1.498679,3.105346,-0.02832272,0.04479241,0.3741798,0.008850962,-0.2981968,2.691831,3.140004
78.33324,4.399993,514,176,491,494,-0.09454709,-0.3966388,-0.05841679,-1.497893,3.105235,-0.03300509,0.04686174,0.3660866,-0.02037431,-0.2993287,2.703345,3.127868
77.99991,4.411104,514,176,491,494,-0.08178684,-0.4104977,-0.0572752,-1.497543,3.105241,-0.03820038,0.05122331,0.3671823,-0.01549661,-0.2996791,2.71601,3.114017
77.66657,4.422215,512,169,490,496,-0.04962546,-0.4364173,-0.06141658,-1.497802,3.105133,-0.04376746,0.05340329,0.3821707,0.01771875,-0.2987694,2.730354,3.098108
77.33324,4.433327,512,169,490,496,-0.005764335,-0.4687827,-0.06457863,-1.49876,3.105022,-0.04981656,0.04243988,0.3990247,0.06576148,-0.2972429,2.746369,3.080855
76.9999,4.444438,512,169,490,496,0.02711305,-0.4722013,-0.06025456,-1.49985,3.10511,-0.05516951,0.0319162,0.4289541,0.08596466,-0.2961451,2.764672,3.061406
76.66656,4.455549,512,169,490,496,0.04191566,-0.4693207,-0.05666746,-1.500684,3.105253,-0.06032592,0.02106774,0.452613,0.05783235,-0.2968445,2.783,3.042481
76.33323,4.46666,512,169,490,496,0.04833084,-0.4713581,-0.05732302,-1.501182,3.105324,-0.0655862,0.01702711,0.4680546,0.02838089,-0.2978277,2.801216,3.023746
75.99989,4.477772,461,158,507,497,0.04623735,-0.4749625,-0.06266972,-1.501603,3.105291,-0.0710345,0.02973008,0.4588824,0.007975072,-0.2989388,2.81616,3.007846
75.66656,4.488883,461,158,507,497,0.0474624,-0.4923069,-0.06931594,-1.502128,3.105248,-0.07700637,0.04756087,0.4462512,0.009726241,-0.2997729,2.830041,2.992509
75.33322,4.499994,461,158,507,497,0.03683168,-0.5008088,-0.07792705,-1.502217,3.105124,-0.08288343,0.06947076,0.4718949,0.01520751,-0.300599,2.848211,2.972445
74.99989,4.511106,461,158,507,497,0.01781303,-0.5161268,-0.08458212,-1.501886,3.105137,-0.08913068,0.0728775,0.4743614,0.02108495,-0.301432,2.86477,2.954464
74.66655,4.522217,355,131,503,501,-0.003280759,-0.522703,-0.08539836,-1.501262,3.105283,-0.09518564,0.06930193,0.5144623,0.04120122,-0.3020248,2.886174,2.931517
74.33321,4.533328,355,131,503,501,-0.01681143,-0.5325402,-0.0858923,-1.500781,3.105527,-0.1014696,0.06592217,0.5427046,0.0375497,-0.303432,2.907673,2.908974
73.99988,4.544439,355,131,503,501,-0.02082789,-0.5487876,-0.09242059,-1.500459,3.105629,-0.108144,0.07114461,0.5375752,0.02932684,-0.3049383,2.925635,2.889761
73.66654,4.555551,355,131,503,501,-0.0101006,-0.5561813,-0.1087204,-1.518749,-3.103509,-0.1615095,0.07374045,0.5261359,0.003027931,-0.3071562,2.941499,2.872949
73.33321,4.566662,355,131,503,501,-0.01365954,-0.5559045,-0.1346755,-1.527115,-3.0502,-0.2042027,0.06079766,0.5226318,-0.007892966,-0.3090891,2.958816,2.855119
72.99987,4.577773,269,112,533,501,-0.03197685,-0.5539704,-0.1384076,-1.526234,-3.050116,-0.2105282,0.06154782,0.5128437,-0.01114321,-0.3110061,2.975248,2.837732
72.66653,4.588884,269,112,533,501,-0.07088521,-0.5703604,-0.1132587,-1.578145,-3.04022,-0.2347134,0.06255239,0.5099345,0.001713201,-0.312555,2.991863,2.820119
72.3332,4.599996,269,112,533,501,-0.1067329,-0.581036,-0.1140109,-1.56733,-3.045459,-0.2440063,0.07023883,0.5135877,-0.01151304,-0.3149295,3.008596,2.802445
71.99986,4.611107,269,112,533,501,-0.1177099,-0.6006977,-0.1153133,-1.57426,-3.054564,-0.2522786,0.07611996,0.5016046,-0.001005158,-0.3167175,3.023607,2.786241
71.66653,4.622218,375,141,522,502,-0.0951817,-0.6276999,-0.1261474,-1.571617,-3.059639,-0.2579234,0.1030359,0.5461752,0.0524241,-0.3180512,3.044731,2.762699
71.33319,4.633329,375,141,522,502,-0.07741308,-0.6339856,-0.1344987,-1.567907,-3.059862,-0.2596523,0.1124445,0.5687129,0.07687551,-0.3198425,3.064654,2.740713
70.99986,4.644441,375,141,522,502,-0.05050075,-0.6191476,-0.1318857,-1.568244,-3.066085,-0.2641057,0.1130756,0.5905666,0.05914825,-0.3227384,3.084492,2.719545
70.66652,4.655552,375,141,522,502,-0.02782893,-0.6038053,-0.1257474,-1.563658,-3.068163,-0.2633142,0.1117897,0.5818676,-0.01611921,-0.3275225,3.098456,2.705129
70.33318,4.666663,396,172,514,494,-0.02186745,-0.6112589,-0.1391836,-1.555806,-3.068088,-0.2717607,0.132026,0.5746747,-0.05420484,-0.3355386,3.127903,2.673261
69.99985,4.677774,396,172,514,494,0.001296222,-0.6294148,-0.1485072,-1.556097,-3.07228,-0.2760825,0.1619318,0.6040679,-0.06466907,-0.3406529,-3.138221,2.654203
69.66651,4.688886,396,172,514,494,0.02205557,-0.6329047,-0.1587919,-1.555413,-3.077356,-0.2809033,0.1575421,0.5975574,-0.04101054,-0.3439478,-3.122106,2.636772
69.33318,4.699997,396,172,514,494,0.04886234,-0.6288112,-0.1644379,-1.552878,-3.079659,-0.2849987,0.1626574,0.6163343,-0.03483203,-0.3481854,-3.104962,2.618139
68.99984,4.711108,396,172,514,494,0.06647885,-0.6283302,-0.1726984,-1.555032,-3.084043,-0.2905008,0.1638302,0.6334882,-0.04145217,-0.3528561,-3.087937,2.600024
68.6665,4.722219,446,180,509,499,0.07877171,-0.6391511,-0.1806047,-1.553089,-3.086913,-0.2954127,0.1697837,0.6145487,-0.07774992,-0.3582564,-3.076315,2.587546
68.33317,4.733331,446,180,509,499,0.07360172,-0.6482626,-0.1870158,-1.554808,-3.090414,-0.3012307,0.1644153,0.5862616,-0.09929901,-0.3630762,-3.066088,2.576799
67.99983,4.744442,446,180,509,499,0.06774592,-0.6517115,-0.1872786,-1.553928,-3.091285,-0.3075653,0.1583273,0.5815783,-0.08262704,-0.3670784,-3.052598,2.562477
67.6665,4.755553,446,180,509,499,0.05861086,-0.6384279,-0.1804689,-1.554408,-3.094605,-0.3130418,0.1699839,0.5850176,-0.05052212,-0.3708665,-3.038319,2.546316
67.33316,4.766665,446,180,509,499,0.05274451,-0.6296644,-0.1863147,-1.552084,-3.097937,-0.3170919,0.1653978,0.6050966,-0.0440726,-0.3755845,-3.02313,2.530182
66.99982,4.777776,477,187,498,498,0.04594421,-0.635246,-0.2059009,-1.55187,-3.102261,-0.3238335,0.1651502,0.6209211,-0.07803519,-0.3817183,-3.010017,2.516782
66.66649,4.788887,477,187,498,498,0.04866683,-0.6415516,-0.2225887,-1.551278,-3.106936,-0.3292956,0.1735553,0.6152675,-0.09731187,-0.3876018,-3.00034,2.50625
66.33315,4.799998,477,187,498,498,0.04771256,-0.6487978,-0.2307787,-1.551569,-3.109325,-0.3366992,0.1855796,0.6214756,-0.09064066,-0.3930597,-2.987647,2.492366
65.99982,4.81111,477,187,498,498,0.04036731,-0.6508153,-0.2315858,-1.551527,-3.111731,-0.3428314,0.1946938,0.6128945,-0.09198089,-0.3985213,-2.976978,2.480487
65.66648,4.822221,477,157,484,504,0.01501828,-0.6639206,-0.2133313,-1.549021,-3.113217,-0.3486664,0.1986624,0.6055391,-0.07646839,-0.4034375,-2.965641,2.467863
65.33315,4.833332,477,157,484,504,0.01367241,-0.6653722,-0.2105252,-1.54847,-3.11476,-0.355296,0.2059992,0.6041598,-0.07799976,-0.4089902,-2.955048,2.45604
64.99981,4.844443,477,157,484,504,0.01610249,-0.6618885,-0.2115125,-1.548846,-3.115564,-0.3623667,0.2217912,0.5974679,-0.1051357,-0.4154111,-2.947029,2.446971
64.66647,4.855555,477,157,484,504,0.03343815,-0.6479092,-0.2371965,-1.549103,-3.118598,-0.3687865,0.2195267,0.5566602,-0.1076424,-0.4190697,-2.943182,2.441789
64.33314,4.866666,477,157,484,504,0.05287915,-0.6361643,-0.2564375,-1.547073,-3.120925,-0.3733741,0.2219542,0.5534015,-0.09407668,-0.4241105,-2.934158,2.431491
63.99981,4.877777,403,159,507,498,0.08228552,-0.6193111,-0.276364,-1.548759,-3.123715,-0.3793236,0.2521057,0.612666,-0.09375638,-0.4314747,-2.921296,2.416864
63.66647,4.888888,403,159,507,498,0.09478551,-0.6121225,-0.2710092,-1.547906,-3.126959,-0.38417,0.2437263,0.5695648,-0.1052899,-0.4366492,-2.915508,2.410219
63.33314,4.9,403,159,507,498,0.08513498,-0.6100108,-0.2704777,-1.547658,-3.12794,-0.3907582,0.2258707,0.5571176,-0.09811305,-0.4415702,-2.907569,2.401695
62.99981,4.911111,403,159,507,498,0.07534194,-0.600963,-0.2697784,-1.547657,-3.129592,-0.3967886,0.2126065,0.5580987,-0.08548629,-0.4464608,-2.898194,2.391803
62.66648,4.922222,346,151,505,498,0.06026709,-0.586616,-0.2654682,-1.547804,-3.129484,-0.4034391,0.2060087,0.5450662,-0.06519589,-0.4508625,-2.889825,2.382479
62.33315,4.933333,346,151,505,498,0.04270548,-0.5808844,-0.2649122,-1.545327,-3.132865,-0.407306,0.195276,0.5383759,-0.02488324,-0.4545526,-2.88006,2.371509
61.99981,4.944445,346,151,505,498,0.01568419,-0.5749543,-0.2628573,-1.544665,-3.132638,-0.4141578,0.2373152,0.5495939,-0.05093257,-0.4609335,-2.874068,2.363753
61.66648,4.955556,346,151,505,498,-0.02861315,-0.5800433,-0.2481462,-1.542442,-3.133181,-0.4203661,0.238991,0.5675729,-0.06945705,-0.467445,-2.86587,2.355082
61.33315,4.966667,346,151,505,498,-0.04992515,-0.5835773,-0.2511142,-1.538932,-3.134529,-0.4253436,0.2448696,0.5484853,-0.08524424,-0.4731457,-2.860596,2.348912
60.99982,4.977778,369,135,514,499,-0.09068882,-0.614631,-0.2549761,-1.536182,-3.133946,-0.4337709,0.2378402,0.5030075,-0.08399126,-0.4770643,-2.857121,2.344354
60.66648,4.98889,369,135,514,499,-0.1270236,-0.656222,-0.2688985,-1.531607,-3.13536,-0.4404432,0.2276606,0.4641504,-0.06159507,-0.4804002,-2.852545,2.338509
60.33315,5.000001,369,135,514,499,-0.1544907,-0.6640971,-0.2630206,-1.528998,-3.133848,-0.4485306,0.218122,0.4554088,-0.01458167,-0.483384,-2.844939,2.329185
59.99982,5.011112,369,135,514,499,-0.188531,-0.6453427,-0.2459647,-1.524133,-3.134592,-0.4529014,0.2104919,0.4710177,0.009937167,-0.4875902,-2.836602,2.319623
59.66649,5.022223,387,151,498,494,-0.1909093,-0.6046546,-0.2200003,-1.520323,-3.134222,-0.4571183,0.2037833,0.5163906,0.0232309,-0.4927844,-2.826109,2.308415
59.33316,5.033335,387,151,498,494,-0.1705117,-0.5929636,-0.2267791,-1.51876,-3.134232,-0.4631653,0.2074802,0.5387272,0.01528233,-0.4984596,-2.817655,2.299128
58.99982,5.044446,387,151,498,494,-0.1392014,-0.5970795,-0.2420073,-1.517223,-3.134527,-0.469526,0.22499,0.5376304,-0.01337814,-0.5045422,-2.812017,2.292647
58.66649,5.055557,387,151,498,494,-0.1078217,-0.6018335,-0.2580866,-1.516442,-3.134877,-0.476774,0.2433428,0.463762,-0.02079162,-0.5083016,-2.810705,2.289358
58.33316,5.066669,387,151,498,494,-0.1020922,-0.5992489,-0.2636035,-1.514842,-3.135206,-0.4832071,0.258724,0.43382,-0.01732363,-0.5125275,-2.80736,2.284027
57.99983,5.07778,401,141,505,505,-0.09343576,-0.6101056,-0.2856993,-1.511857,-3.136657,-0.4891034,0.2624023,0.4139777,-0.008430406,-0.5165712,-2.803647,2.278481
57.6665,5.088891,401,141,505,505,-0.09343576,-0.6101056,-0.2856993,-1.511857,-3.136657,-0.4891034,0.2624023,0.4139777,-0.008430406,-0.5165712,-2.803647,2.278481
57.33316,5.100002,401,141,505,505,-0.09184074,-0.6201264,-0.2991289,-1.510571,-3.136147,-0.4969496,0.2651049,0.4488602,-0.01814827,-0.522379,-2.797227,2.271169
56.99983,5.111114,401,141,505,505,-0.08996606,-0.6096831,-0.3065839,-1.508533,-3.13671,-0.503085,0.2710501,0.475641,-0.04103348,-0.528833,-2.791806,2.26507
56.6665,5.122225,401,141,505,505,-0.0992651,-0.6254684,-0.3286137,-1.50672,-3.136754,-0.5112572,0.257401,0.488692,-0.06306806,-0.5346797,-2.786828,2.260181
56.33317,5.133336,386,146,506,498,-0.09279096,-0.6073014,-0.3222655,-1.504971,-3.136486,-0.5178357,0.2359899,0.4976104,-0.02114946,-0.5388821,-2.779022,2.251549
55.99984,5.144447,386,146,506,498,-0.08352005,-0.5908889,-0.294136,-1.504103,-3.135411,-0.5236456,0.2361715,0.5084739,0.03385109,-0.5430952,-2.770648,2.241282
55.6665,5.155559,386,146,506,498,-0.07069862,-0.5883241,-0.2970043,-1.502684,-3.135553,-0.5299478,0.2425661,0.5080198,0.09431355,-0.5468333,-2.762097,2.23008
55.33317,5.16667,386,146,506,498,-0.04041761,-0.5812617,-0.3058577,-1.501428,-3.136498,-0.5356778,0.2535406,0.4980308,0.08762541,-0.5517537,-2.756687,2.223049
54.99984,5.177781,386,146,506,498,-0.01726961,-0.5758379,-0.330727,-1.501492,-3.136795,-0.5429568,0.249903,0.49842,0.03419286,-0.5572531,-2.751489,2.217388
54.66651,5.188892,388,148,491,493,0.007359207,-0.568731,-0.3591232,-1.501104,-3.13812,-0.5497031,0.2438807,0.4945373,0.008299917,-0.5629363,-2.74714,2.213119
54.33318,5.200004,388,148,491,493,0.01363635,-0.5437068,-0.368362,-1.501021,-3.138744,-0.5561911,0.2398759,0.4640277,0.009328261,-0.5671303,-2.743355,2.208114
53.99984,5.211115,388,148,491,493,-0.01173645,-0.5318164,-0.3545566,-1.499519,-3.138766,-0.5622284,0.229275,0.4504368,0.03846519,-0.5710621,-2.737469,2.200971
53.66651,5.222226,388,148,491,493,-0.04674715,-0.5419932,-0.3385145,-1.497901,-3.137851,-0.5690573,0.2123028,0.4596875,0.08970593,-0.5746207,-2.729546,2.191673
53.33318,5.233337,343,124,488,496,-0.05410427,-0.5481628,-0.3365425,-1.495844,-3.137901,-0.5751048,0.2144361,0.4890232,0.1158443,-0.5794207,-2.721065,2.18199
52.99985,5.244449,343,124,488,496,-0.0697313,-0.5414937,-0.3323384,-1.494303,-3.137161,-0.5817409,0.2211444,0.5238348,0.1186318,-0.584974,-2.712754,2.172744
52.66652,5.25556,343,124,488,496,-0.07904512,-0.5240711,-0.3381116,-1.492079,-3.137624,-0.5876856,0.2151051,0.4984601,0.1014825,-0.5890923,-2.707843,2.167032
52.33318,5.266671,343,124,488,496,-0.0777567,-0.5127905,-0.345976,-1.491255,-3.137436,-0.5942168,0.2272339,0.4623216,0.07848936,-0.5935568,-2.704405,2.162471
51.99985,5.277782,343,124,488,496,-0.08107483,-0.503557,-0.349498,-1.48946,-3.13757,-0.6002951,0.2475528,0.4436831,0.06454502,-0.5982435,-2.701161,2.157551
51.66652,5.288894,379,148,491,495,-0.08995366,-0.5028512,-0.347759,-1.4877,-3.13749,-0.6064577,0.2595128,0.4305547,0.06837042,-0.6028299,-2.697026,2.151825
51.33319,5.300005,379,148,491,495,-0.1124109,-0.5023514,-0.3410982,-1.484584,-3.137325,-0.6117281,0.2472533,0.4180889,0.08015758,-0.6065648,-2.69243,2.145894
50.99986,5.311116,379,148,491,495,-0.1328233,-0.5007976,-0.3343446,-1.482584,-3.136113,-0.618304,0.247152,0.4144813,0.08739455,-0.610911,-2.687691,2.139777
50.66652,5.322227,379,148,491,495,-0.1393542,-0.5008806,-0.3369752,-1.479666,-3.135776,-0.6241235,0.229282,0.393738,0.09974968,-0.6141021,-2.683214,2.134062
50.33319,5.333339,339,123,506,496,-0.1340281,-0.5116536,-0.3563187,-1.478298,-3.13493,-0.6316032,0.1959226,0.3871148,0.138266,-0.616631,-2.676923,2.126657
49.99986,5.34445,339,123,506,496,-0.1228349,-0.5419896,-0.39679,-1.476223,-3.134924,-0.6397131,0.1897798,0.4134264,0.1770694,-0.620149,-2.669165,2.117415
49.66653,5.355561,339,123,506,496,-0.1058806,-0.5257691,-0.3898704,-1.475248,-3.134135,-0.6465362,0.2032082,0.4420958,0.2018003,-0.6244292,-2.661737,2.108083
49.33319,5.366673,339,123,506,496,-0.1082291,-0.5308012,-0.3886627,-1.473553,-3.13336,-0.6534769,0.222666,0.4600826,0.1890972,-0.6293726,-2.655725,2.100645
48.99986,5.377784,339,123,506,496,-0.1107246,-0.4969755,-0.3648257,-1.472108,-3.132504,-0.6592133,0.2228413,0.4531445,0.1722048,-0.6336076,-2.650821,2.094709
48.66653,5.388895,353,145,499,499,-0.108069,-0.4807981,-0.3547734,-1.470686,-3.131913,-0.6649226,0.2281824,0.377158,0.1299536,-0.636521,-2.65005,2.092571
48.3332,5.400006,353,145,499,499,-0.1120226,-0.4815588,-0.3717135,-1.469193,-3.131177,-0.6718383,0.2218406,0.3155377,0.1245163,-0.6387006,-2.648494,2.089071
47.99987,5.411118,353,145,499,499,-0.119552,-0.493455,-0.3865604,-1.467303,-3.130507,-0.6790879,0.2346919,0.2878622,0.1277624,-0.6417654,-2.646319,2.084675
47.66653,5.422229,353,145,499,499,-0.1232398,-0.499833,-0.375374,-1.465421,-3.12949,-0.6852303,0.2670138,0.3235642,0.1254509,-0.6468152,-2.642618,2.078847
47.3332,5.43334,353,145,499,499,-0.1360841,-0.5080404,-0.364549,-1.463655,-3.127577,-0.6921513,0.2702371,0.3482795,0.1266898,-0.6513101,-2.638515,2.073158
46.99987,5.444451,314,129,499,497,-0.1540031,-0.5072312,-0.3524709,-1.46111,-3.125922,-0.698464,0.2942134,0.3574717,0.1277693,-0.6560878,-2.635405,2.067864
46.66654,5.455563,314,129,499,497,-0.1582931,-0.5117869,-0.3703396,-1.459139,-3.124403,-0.7057611,0.3041155,0.3519144,0.1282003,-0.6602999,-2.632714,2.062929
46.33321,5.466674,314,129,499,497,-0.1492493,-0.5199157,-0.4004301,-1.457421,-3.123509,-0.7134821,0.2922139,0.3523112,0.1281304,-0.6645578,-2.62903,2.057804
45.99987,5.477785,314,129,499,497,-0.1506143,-0.5132047,-0.4136224,-1.455619,-3.122355,-0.7207744,0.2847786,0.3477664,0.1386754,-0.6683975,-2.625686,2.05248
45.66654,5.488896,385,138,506,499,-0.1559298,-0.481499,-0.3902733,-1.453302,-3.121693,-0.7261439,0.2598769,0.3592886,0.1468619,-0.6721446,-2.620954,2.046695
45.33321,5.500008,385,138,506,499,-0.1714582,-0.4705436,-0.359026,-1.45083,-3.120015,-0.7317137,0.230496,0.3733269,0.1619057,-0.6756658,-2.615592,2.040352
44.99988,5.511119,385,138,506,499,-0.1708542,-0.468204,-0.3540483,-1.449023,-3.118284,-0.7381175,0.2268156,0.3854616,0.1797408,-0.6795173,-2.610202,2.033554
44.66655,5.52223,385,138,506,499,-0.1611075,-0.4702765,-0.3605154,-1.446983,-3.117202,-0.7442986,0.2523349,0.4100757,0.2053016,-0.6842449,-2.604569,2.025704
44.33321,5.533341,385,138,506,499,-0.1455752,-0.4685589,-0.3727006,-1.445814,-3.11584,-0.7511568,0.2766716,0.4087971,0.1904206,-0.6891153,-2.600878,2.020091
43.99988,5.544453,413,116,469,498,-0.1103523,-0.4605734,-0.4002421,-1.445301,-3.115338,-0.758121,0.2813206,0.389662,0.1729903,-0.6934158,-2.598189,2.015595
43.66655,5.555564,413,116,469,498,-0.08373803,-0.4371588,-0.4207118,-1.444846,-3.115057,-0.7647784,0.2846851,0.3611275,0.1458798,-0.6973754,-2.596462,2.012343
43.33322,5.566675,413,116,469,498,-0.07395747,-0.405158,-0.4192169,-1.443713,-3.115371,-0.7701271,0.3110756,0.3147756,0.09726296,-0.7017147,-2.597308,2.011161
42.99989,5.577786,413,116,469,498,-0.09058276,-0.3927449,-0.4081791,-1.442057,-3.114352,-0.7758811,0.3223709,0.2629552,0.03445399,-0.705718,-2.599379,2.011841
42.66655,5.588898,344,111,515,496,-0.1081298,-0.3952511,-0.4019268,-1.440025,-3.113477,-0.7818056,0.3254882,0.2419774,0.01597069,-0.7097703,-2.59965,2.010636
42.33322,5.600009,344,111,515,496,-0.1414121,-0.4284391,-0.4187533,-1.437542,-3.111579,-0.7894669,0.3337035,0.2400603,0.0330205,-0.7138023,-2.599113,2.007705
41.99989,5.61112,344,111,515,496,-0.1693758,-0.4832592,-0.4547484,-1.434687,-3.10934,-0.7982846,0.3442947,0.265659,0.07889315,-0.718344,-2.596593,2.002448
41.66656,5.622231,344,111,515,496,-0.1798573,-0.5153073,-0.4744772,-1.43206,-3.107269,-0.8063711,0.3395576,0.2977502,0.1267537,-0.7226903,-2.592839,1.99616
41.33323,5.633343,344,111,515,496,-0.1891296,-0.5194758,-0.4685192,-1.429826,-3.104884,-0.8141336,0.3363636,0.3574587,0.1497057,-0.7282174,-2.587901,1.989654
40.99989,5.644454,392,108,505,504,-0.2008691,-0.5236914,-0.4394451,-1.427189,-3.102052,-0.8206547,0.329816,0.3772741,0.1590368,-0.7331027,-2.584365,1.984507
40.66656,5.655565,392,108,505,504,-0.2081411,-0.5291126,-0.4371642,-1.424641,-3.099036,-0.8282905,0.3082367,0.4098497,0.1823096,-0.7379822,-2.578629,1.977679
40.33323,5.666677,392,108,505,504,-0.2107252,-0.5350016,-0.4474417,-1.421995,-3.096604,-0.8359743,0.3053252,0.3872941,0.1923404,-0.7419913,-2.57531,1.972233
39.9999,5.677788,392,108,505,504,-0.2094119,-0.5575188,-0.4814917,-1.419753,-3.093604,-0.8452154,0.3049268,0.3447658,0.1870514,-0.7452664,-2.57391,1.968442
39.66656,5.688899,362,108,500,499,-0.20675,-0.5644111,-0.5102277,-1.417603,-3.091259,-0.8543059,0.3119561,0.3161962,0.1655365,-0.7492511,-2.572845,1.965255
39.33323,5.70001,362,108,500,499,-0.1980767,-0.5530372,-0.5258796,-1.41538,-3.089221,-0.8625691,0.3241852,0.3152081,0.1370619,-0.7540644,-2.571422,1.962239
38.9999,5.711122,362,108,500,499,-0.1930407,-0.53698,-0.5141457,-1.41347,-3.086711,-0.8703551,0.3401979,0.3430374,0.1072313,-0.7599197,-2.569378,1.959188
38.66657,5.722233,362,108,500,499,-0.1922904,-0.5297698,-0.4873351,-1.411183,-3.083671,-0.877421,0.3495994,0.357571,0.09449613,-0.7655187,-2.567105,1.955659
38.33324,5.733344,362,108,500,499,-0.1865442,-0.5266724,-0.4828304,-1.409448,-3.080827,-0.8852145,0.3513812,0.3450494,0.1162862,-0.7699785,-2.564787,1.951025
37.9999,5.744455,363,109,543,503,-0.1714548,-0.537396,-0.4900374,-1.407951,-3.077704,-0.8936631,0.3500551,0.3190395,0.1466507,-0.7739205,-2.562836,1.946282
37.66657,5.755567,363,109,543,503,-0.1386814,-0.5253172,-0.5249771,-1.407131,-3.075694,-0.9024739,0.3406409,0.271393,0.1875998,-0.7767152,-2.561463,1.941322
37.33324,5.766678,363,109,543,503,-0.1010902,-0.4962514,-0.5523818,-1.406767,-3.074668,-0.9108027,0.3534828,0.2567578,0.2038177,-0.7809033,-2.560005,1.936594
36.99991,5.777789,363,109,543,503,-0.0721544,-0.4483321,-0.5383974,-1.406506,-3.073617,-0.9175634,0.3689645,0.2546917,0.1985707,-0.7854434,-2.558814,1.932516
36.66658,5.7889,363,109,543,503,-0.0500291,-0.4074809,-0.5143649,-1.406312,-3.072726,-0.9237851,0.3664373,0.2698346,0.1562845,-0.7905236,-2.557471,1.929888
36.33324,5.800012,332,114,498,499,-0.03038269,-0.3929435,-0.5162553,-1.406089,-3.071614,-0.9308802,0.3619485,0.2686872,0.1415915,-0.7949813,-2.556334,1.926885
35.99991,5.811123,332,114,498,499,-0.01340246,-0.3875149,-0.5337667,-1.406324,-3.070682,-0.9385954,0.3813862,0.2594671,0.1375545,-0.7998384,-2.555988,1.923799
35.66658,5.822234,332,114,498,499,-0.02059698,-0.3996033,-0.5373737,-1.405813,-3.068835,-0.9462488,0.3772448,0.2106837,0.1478519,-0.8029675,-2.556346,1.920633
35.33325,5.833345,332,114,498,499,-0.02360493,-0.3882345,-0.5404252,-1.405416,-3.067685,-0.9536322,0.3729751,0.1938654,0.1589931,-0.80654,-2.55594,1.91719
34.99992,5.844457,314,137,491,499,-0.03572208,-0.378682,-0.5404197,-1.404248,-3.066288,-0.9607407,0.3894879,0.1897606,0.1592391,-0.8108809,-2.555966,1.913944
34.66658,5.855568,314,137,491,499,-0.04971594,-0.3803658,-0.5411339,-1.403193,-3.064493,-0.9682215,0.3854479,0.1849941,0.150698,-0.8148708,-2.555919,1.911178
34.33325,5.866679,314,137,491,499,-0.06460196,-0.3968453,-0.5376992,-1.402128,-3.062322,-0.9757971,0.3523095,0.1986868,0.1507107,-0.8184586,-2.554296,1.907874
33.99992,5.87779,314,137,491,499,-0.07209444,-0.4037792,-0.5350833,-1.401147,-3.060054,-0.9833446,0.3217164,0.21309,0.159346,-0.8218499,-2.5522,1.904173
33.66659,5.888902,314,137,491,499,-0.09358972,-0.4287097,-0.5278341,-1.399602,-3.056977,-0.9909787,0.3079083,0.2148035,0.1676878,-0.8252167,-2.550465,1.900405
33.33326,5.900013,289,116,517,498,-0.09427172,-0.4288415,-0.5226449,-1.398582,-3.054346,-0.9984553,0.2895601,0.2011349,0.1841388,-0.8282026,-2.548916,1.896463
32.99992,5.911124,289,116,517,498,-0.09559524,-0.4177861,-0.5255198,-1.397436,-3.052355,-1.005676,0.2883505,0.1922211,0.1873054,-0.8311832,-2.547895,1.892955
32.66659,5.922235,289,116,517,498,-0.07232171,-0.4007779,-0.564295,-1.397075,-3.051171,-1.013876,0.2921384,0.1951193,0.1899664,-0.8346586,-2.54653,1.889214
32.33326,5.933347,289,116,517,498,-0.06021148,-0.3888615,-0.594149,-1.396645,-3.049908,-1.022423,0.3035665,0.2077449,0.1852406,-0.8387167,-2.54513,1.885561
31.99993,5.944458,294,107,508,502,-0.036847,-0.3541744,-0.5769092,-1.396631,-3.048994,-1.029143,0.3036817,0.2008281,0.1758788,-0.8422396,-2.544189,1.88248
31.66659,5.955569,294,107,508,502,-0.03188515,-0.3362394,-0.5479643,-1.396295,-3.047448,-1.035483,0.3030697,0.1891748,0.1641895,-0.8455845,-2.54366,1.87982
31.33326,5.966681,294,107,508,502,-0.03062499,-0.3282181,-0.5359194,-1.395965,-3.045925,-1.042225,0.289443,0.1809772,0.1688169,-0.8484352,-2.542467,1.87666
30.99992,5.977792,294,107,508,502,-0.0235095,-0.3192632,-0.5455576,-1.395751,-3.044598,-1.049523,0.2808879,0.170548,0.195006,-0.8511255,-2.541047,1.87242
30.66659,5.988903,294,107,508,502,-0.02169067,-0.3177526,-0.5526335,-1.395479,-3.043304,-1.05685,0.2719066,0.1561704,0.2163938,-0.8535234,-2.53968,1.868104
30.33326,6.000014,268,114,499,500,-0.02098465,-0.3125351,-0.5451292,-1.39527,-3.041719,-1.063556,0.2747838,0.1432544,0.2296066,-0.8560748,-2.538649,1.863896
29.99992,6.011126,268,114,499,500,-0.02883476,-0.3053282,-0.5408193,-1.394763,-3.040365,-1.070343,0.2885385,0.1269455,0.2052148,-0.8591459,-2.538957,1.861439
29.66659,6.022237,268,114,499,500,-0.03904331,-0.3094046,-0.532891,-1.394065,-3.038426,-1.076999,0.2960864,0.1157523,0.1694049,-0.8622826,-2.539653,1.859869
29.33325,6.033348,268,114,499,500,-0.05556247,-0.3163255,-0.5289524,-1.393105,-3.03633,-1.083928,0.2989002,0.115229,0.1453901,-0.865489,-2.54004,1.858221
28.99992,6.044459,268,114,499,500,-0.08862239,-0.3388953,-0.5199525,-1.391396,-3.033143,-1.090978,0.3038601,0.09772304,0.1275787,-0.8684126,-2.541118,1.85682
28.66659,6.055571,288,119,498,499,-0.10722,-0.360229,-0.5203056,-1.389931,-3.02993,-1.098307,0.299172,0.06873833,0.1343156,-0.8705277,-2.541877,1.854312
28.33325,6.066682,288,119,498,499,-0.1451454,-0.3916746,-0.520277,-1.387497,-3.025548,-1.106055,0.3024462,0.05705321,0.1570651,-0.8730055,-2.542358,1.851252
27.99992,6.077793,288,119,498,499,-0.1825376,-0.4289393,-0.4971588,-1.384857,-3.020365,-1.113039,0.2956408,0.07303546,0.1869261,-0.8757022,-2.541453,1.847277
27.66658,6.088904,288,119,498,499,-0.1946748,-0.4513255,-0.4822263,-1.382928,-3.015632,-1.119981,0.2903882,0.09237359,0.1999737,-0.8786003,-2.540371,1.843507
27.33325,6.100016,286,133,487,500,-0.2068657,-0.4586893,-0.4850236,-1.380733,-3.011329,-1.127182,0.2795477,0.1123706,0.2171728,-0.8814365,-2.538785,1.839409
26.99992,6.111127,286,133,487,500,-0.2100558,-0.4716978,-0.5440466,-1.378658,-3.007081,-1.136441,0.2791877,0.1345154,0.2203503,-0.8846398,-2.53728,1.83575
26.66658,6.122238,286,133,487,500,-0.2068926,-0.4938598,-0.6386365,-1.376661,-3.00262,-1.147678,0.2783154,0.1449409,0.2226968,-0.8877706,-2.535822,1.831949
26.33325,6.133349,286,133,487,500,-0.2100036,-0.5042468,-0.6537458,-1.374667,-2.997835,-1.15721,0.2813846,0.1498318,0.2300822,-0.890805,-2.534553,1.828043
25.99991,6.144461,286,133,487,500,-0.2353829,-0.5382943,-0.6234103,-1.372041,-2.991354,-1.165275,0.2972387,0.1464511,0.2253958,-0.8942986,-2.533983,1.824574
25.66658,6.155572,281,124,491,501,-0.250752,-0.5620913,-0.6143835,-1.369555,-2.984524,-1.174054,0.3052716,0.1408976,0.2149847,-0.8976728,-2.533775,1.821759
25.33325,6.166683,281,124,491,501,-0.2748465,-0.5797838,-0.6044112,-1.366665,-2.978263,-1.182708,0.3114348,0.1168144,0.2214879,-0.9004957,-2.533874,1.818337
24.99991,6.177794,281,124,491,501,-0.2485408,-0.537918,-0.6188607,-1.36497,-2.974071,-1.19134,0.3259777,0.1022737,0.2346611,-0.9035727,-2.53378,1.814446
24.66658,6.188906,281,124,491,501,-0.1993081,-0.503935,-0.6329821,-1.364554,-2.970466,-1.200067,0.3097456,0.07433933,0.2398065,-0.9055514,-2.533921,1.810961
24.33324,6.200017,271,130,497,499,-0.1399517,-0.4438603,-0.6366014,-1.364776,-2.968101,-1.207908,0.30376,0.05865607,0.2466754,-0.9076506,-2.533835,1.807431
23.99991,6.211128,271,130,497,499,-0.0938918,-0.3991061,-0.6289895,-1.364886,-2.9654,-1.215613,0.2889518,0.05187079,0.2529709,-0.9098754,-2.533578,1.803769
23.66658,6.222239,271,130,497,499,-0.05565447,-0.3445862,-0.6179183,-1.36518,-2.963748,-1.222765,0.3005043,0.01873805,0.2437757,-0.9120251,-2.534957,1.800877
23.33324,6.233351,271,130,497,499,-0.02379835,-0.2885793,-0.6163112,-1.365453,-2.962696,-1.230027,0.3226562,-0.01313719,0.2194616,-0.9144938,-2.53748,1.799068
22.99991,6.244462,271,130,497,499,0.007176161,-0.2438477,-0.6168034,-1.366128,-2.96192,-1.237222,0.3366022,-0.0246515,0.214065,-0.9171224,-2.539242,1.796494
22.66657,6.255573,253,134,492,499,0.04357719,-0.1880097,-0.6027286,-1.367146,-2.962034,-1.243568,0.3490502,-0.009054661,0.2234226,-0.9202324,-2.539814,1.792977
22.33324,6.266685,253,134,492,499,0.07326323,-0.1395815,-0.5681157,-1.368488,-2.96248,-1.248973,0.3654229,0.01846305,0.2294187,-0.9240716,-2.540119,1.789428
21.99991,6.277796,253,134,492,499,0.09769404,-0.1130294,-0.531952,-1.369924,-2.962546,-1.254019,0.3751878,0.02325153,0.2305243,-0.9274256,-2.540759,1.786288
21.66657,6.288907,253,134,492,499,0.1079165,-0.1017502,-0.5288392,-1.371182,-2.962423,-1.260021,0.3719345,0.007027775,0.2407069,-0.9301676,-2.541779,1.782742
21.33324,6.300018,232,132,495,500,0.1205619,-0.07789833,-0.5343599,-1.372445,-2.962974,-1.266039,0.3544633,-0.02498665,0.2436775,-0.9319114,-2.543523,1.779778
20.9999,6.31113,232,132,495,500,0.1316813,-0.0627391,-0.5378075,-1.373888,-2.963308,-1.272131,0.3452986,-0.06541219,0.2268444,-0.9335259,-2.546152,1.777677
20.66657,6.322241,232,132,495,500,0.1286836,-0.04325305,-0.5334023,-1.37486,-2.963941,-1.277692,0.3358928,-0.08292779,0.1829796,-0.9353884,-2.549133,1.776854
20.33324,6.333352,232,132,495,500,0.1176558,-0.05077752,-0.5266708,-1.375763,-2.96373,-1.283334,0.3436142,-0.06827852,0.1447901,-0.9383435,-2.551351,1.776105
19.9999,6.344463,232,132,495,500,0.1087092,-0.06180549,-0.5207413,-1.37665,-2.963222,-1.289145,0.3559913,-0.05051661,0.1085382,-0.9417998,-2.553865,1.775946
19.66657,6.355575,329,132,493,499,0.07752767,-0.1094888,-0.5180455,-1.377014,-2.960995,-1.294905,0.3667669,-0.04208747,0.1022478,-0.9450355,-2.556187,1.774746
19.33323,6.366686,329,132,493,499,0.04065439,-0.1681017,-0.5186635,-1.376889,-2.957798,-1.301556,0.3630832,-0.04276043,0.1092228,-0.9478382,-2.558202,1.773255
18.9999,6.377797,329,132,493,499,0.009533793,-0.2138349,-0.5176342,-1.376459,-2.954279,-1.308334,0.3588116,-0.03682956,0.1222265,-0.9506931,-2.559616,1.771154
18.66657,6.388908,329,132,493,499,-0.01503807,-0.2582899,-0.5235646,-1.376136,-2.950308,-1.315269,0.3541114,-0.03938994,0.1348043,-0.9533408,-2.561287,1.769032
18.33323,6.40002,329,132,493,499,-0.02174976,-0.2735441,-0.5320982,-1.375969,-2.947058,-1.322201,0.3365524,-0.03507385,0.1436837,-0.9556226,-2.562617,1.767012
17.9999,6.411131,207,121,499,500,-0.01665249,-0.2731484,-0.558383,-1.376045,-2.944181,-1.329896,0.3036808,-0.03311327,0.1536854,-0.9572168,-2.563154,1.764774
17.66656,6.422242,207,121,499,500,-0.001279116,-0.2686571,-0.6435683,-1.376543,-2.941494,-1.33974,0.2937706,-0.01658653,0.16493,-0.9596658,-2.563495,1.762144
17.33323,6.433353,207,121,499,500,-0.002888381,-0.2689263,-0.6702844,-1.376599,-2.938476,-1.348473,0.2880041,-0.0009685755,0.1827221,-0.9622661,-2.563509,1.75903
16.9999,6.444465,207,121,499,500,3.802776E-05,-0.2746258,-0.6310974,-1.377061,-2.93516,-1.354965,0.2893904,0.003897354,0.1857607,-0.9648126,-2.563976,1.756368
16.66656,6.455576,229,122,494,500,-0.01151213,-0.2822725,-0.5612627,-1.376991,-2.931588,-1.359974,0.3050964,0.00709483,0.1687016,-0.9678439,-2.565265,1.754733
16.33323,6.466687,229,122,494,500,7.82311E-05,-0.2722391,-0.5325712,-1.377543,-2.928699,-1.365723,0.3180674,0.00266622,0.1656406,-0.9708192,-2.566555,1.752692
15.9999,6.477798,229,122,494,500,0.04163742,-0.2075549,-0.5361164,-1.378827,-2.928255,-1.372035,0.3298716,-0.005058587,0.1726336,-0.9736522,-2.567948,1.750287
15.66656,6.48891,229,122,494,500,0.09055039,-0.1224399,-0.556928,-1.380639,-2.929051,-1.378663,0.3396772,-0.02322727,0.1850774,-0.9763836,-2.569651,1.747588
15.33323,6.500021,229,122,494,500,0.1250236,-0.06439715,-0.5754455,-1.382516,-2.930012,-1.385396,0.3364785,-0.04977757,0.1788202,-0.9785748,-2.571893,1.745652
14.9999,6.511132,286,138,488,499,0.1685152,0.01535425,-0.5897971,-1.384665,-2.932127,-1.392007,0.3293784,-0.07375494,0.1663933,-0.9805301,-2.574446,1.744189
14.66656,6.522243,286,138,488,499,0.2015565,0.08372754,-0.5901896,-1.387097,-2.935052,-1.398123,0.3248178,-0.09766287,0.1364661,-0.9824257,-2.577569,1.74369
14.33323,6.533355,286,138,488,499,0.2181039,0.1250267,-0.5814257,-1.389212,-2.937635,-1.403968,0.3231951,-0.09131926,0.1268629,-0.9848284,-2.579802,1.742519
13.9999,6.544466,286,138,488,499,0.2375436,0.1896843,-0.5708968,-1.391719,-2.941727,-1.409512,0.3273579,-0.05944657,0.1314312,-0.9878964,-2.580917,1.740667
13.66656,6.555577,275,140,485,501,0.2500161,0.2495013,-0.5338085,-1.393951,-2.946272,-1.413955,0.3355941,0.02115649,0.1662231,-0.9922389,-2.579572,1.736951
13.33323,6.566689,275,140,485,501,0.2426678,0.2578097,-0.5256875,-1.395948,-2.949373,-1.41925,0.345866,0.0907879,0.2087747,-0.9969463,-2.577387,1.732364
12.9999,6.5778,275,140,485,501,0.2254671,0.2249241,-0.5241416,-1.397654,-2.951056,-1.424846,0.3476927,0.1040314,0.2378534,-1.000633,-2.576524,1.728276
12.66657,6.588911,275,140,485,501,0.2077147,0.1885267,-0.533516,-1.399193,-2.952093,-1.430966,0.327687,0.05742149,0.2525954,-1.002693,-2.577043,1.724558
12.33323,6.600022,275,140,485,501,0.1813979,0.1183142,-0.5436072,-1.40047,-2.951391,-1.437364,0.3339006,-0.01467159,0.2183972,-1.004608,-2.580496,1.723481
11.9999,6.611134,292,152,489,498,0.1511792,0.04964557,-0.5554636,-1.401411,-2.949789,-1.443996,0.3523458,-0.08573323,0.1489814,-1.006968,-2.58549,1.724248
11.66657,6.622245,292,152,489,498,0.1300001,-0.006958343,-0.5694396,-1.402619,-2.947961,-1.450984,0.3556274,-0.1282212,0.1089929,-1.00907,-2.589967,1.724546
11.33323,6.633356,292,152,489,498,0.111393,-0.04996112,-0.5789862,-1.403492,-2.945992,-1.457929,0.3586917,-0.1338331,0.1045293,-1.011593,-2.592744,1.723381
10.9999,6.644467,292,152,489,498,0.08534324,-0.1110791,-0.5947511,-1.404112,-2.94253,-1.465368,0.3454037,-0.1358854,0.11452,-1.013656,-2.595325,1.721883
10.66657,6.655579,276,135,498,502,0.06607634,-0.1672964,-0.6098441,-1.404681,-2.938648,-1.472904,0.2791113,-0.1479721,0.1345137,-1.01366,-2.596811,1.719762
10.33323,6.66669,276,135,498,502,0.05725831,-0.2039434,-0.6261313,-1.405525,-2.934787,-1.480642,0.2183453,-0.1537058,0.1126421,-1.013331,-2.598634,1.719249
9.999902,6.677801,276,135,498,502,0.0523147,-0.1958061,-0.6445025,-1.406071,-2.931993,-1.488493,0.201376,-0.1428944,0.06792083,-1.014269,-2.601188,1.720086
9.666569,6.688912,276,135,498,502,0.05609918,-0.1785267,-0.6552534,-1.407047,-2.929836,-1.496229,0.2261022,-0.09698698,0.06508356,-1.016962,-2.602435,1.719337
9.333236,6.700024,276,135,498,502,0.08463329,-0.1331157,-0.6483966,-1.408671,-2.929065,-1.503324,0.2702661,-0.001677811,0.1211298,-1.02189,-2.600869,1.715545
8.999903,6.711135,269,142,494,501,0.1126117,-0.0817892,-0.6361058,-1.410752,-2.929041,-1.510101,0.2705514,0.05596027,0.1846294,-1.025379,-2.598432,1.71071
8.66657,6.722246,269,142,494,501,0.1691876,0.0548206,-0.6287333,-1.413553,-2.932818,-1.516841,0.2249699,0.1008046,0.2578465,-1.027046,-2.594405,1.704529
8.333237,6.733357,269,142,494,501,0.1945835,0.1660942,-0.6086133,-1.415454,-2.936934,-1.522914,0.1903901,0.09128886,0.2762024,-1.028104,-2.592937,1.700632
7.999903,6.744469,269,142,494,501,0.2183728,0.2338324,-0.597011,-1.417893,-2.940814,-1.529195,0.15104,0.02772306,0.2416496,-1.027757,-2.593622,1.698771
7.66657,6.75558,269,142,494,501,0.2375184,0.317317,-0.5820544,-1.420139,-2.946006,-1.535179,0.1928106,-0.0179662,0.1878359,-1.029667,-2.596177,1.698232
7.333236,6.766691,238,147,494,498,0.2454508,0.3814183,-0.5701085,-1.422412,-2.951302,-1.54121,0.2317024,-0.02869776,0.1386001,-1.03243,-2.598479,1.69806
6.999903,6.777802,238,147,494,498,0.2420363,0.4079966,-0.5560496,-1.424437,-2.95569,-1.54724,0.25006,-0.006742075,0.1311543,-1.035447,-2.598896,1.696273
6.666569,6.788914,238,147,494,498,0.2284986,0.412377,-0.5510592,-1.425997,-2.959774,-1.553224,0.2597609,0.01123001,0.1389821,-1.038355,-2.599083,1.694193
6.333236,6.800025,238,147,494,498,0.1999399,0.3874626,-0.5520463,-1.426988,-2.96249,-1.559491,0.2465661,0.03386214,0.1739597,-1.040591,-2.598009,1.690727
5.999902,6.811136,236,165,493,498,0.1789265,0.3351561,-0.5410811,-1.42811,-2.964106,-1.565361,0.2306439,0.03356676,0.2095975,-1.042447,-2.597105,1.686825
5.666569,6.822248,236,165,493,498,0.1609032,0.283825,-0.5411458,-1.429212,-2.965227,-1.571335,0.1928353,-0.008961707,0.2333089,-1.042574,-2.597087,1.683089
5.333235,6.833359,236,165,493,498,0.1418411,0.2350595,-0.5423398,-1.430076,-2.965898,-1.577576,0.1744571,-0.0556908,0.1906775,-1.042995,-2.599007,1.68218
4.999902,6.84447,236,165,493,498,0.1271741,0.2078055,-0.5471042,-1.430975,-2.966548,-1.583822,0.1653726,-0.08257841,0.1433172,-1.043538,-2.601078,1.68192
4.666568,6.855581,236,165,493,498,0.1052789,0.1777872,-0.5440654,-1.431741,-2.966768,-1.589994,0.1748221,-0.1079431,0.0867172,-1.044621,-2.604015,1.682625
4.333235,6.866693,205,156,498,509,0.09256935,0.146339,-0.5177613,-1.432352,-2.966708,-1.595172,0.1778164,-0.111048,0.07080892,-1.045727,-2.606102,1.682407
3.999902,6.877804,205,156,498,509,0.08875558,0.1224186,-0.4655273,-1.433299,-2.966829,-1.599187,0.1701623,-0.09007205,0.07969122,-1.046946,-2.606611,1.68093
3.666568,6.888915,205,156,498,509,0.08322671,0.1246891,-0.4434097,-1.43386,-2.967529,-1.60378,0.1574195,-0.06703377,0.1060216,-1.048034,-2.606508,1.678788
3.333235,6.900026,205,156,498,509,0.08695501,0.137157,-0.4409808,-1.434863,-2.968621,-1.608946,0.1453013,-0.04645732,0.139535,-1.049046,-2.605917,1.675991
2.999902,6.911138,161,202,496,497,0.0956696,0.1600384,-0.4440688,-1.435837,-2.970207,-1.614096,0.1246585,-0.03389971,0.1689544,-1.049688,-2.605372,1.673275
2.666569,6.922249,161,202,496,497,0.09561515,0.1809578,-0.4333705,-1.43659,-2.971851,-1.618727,0.1026491,-0.03821408,0.1688429,-1.049848,-2.60521,1.671133
2.333235,6.93336,161,202,496,497,0.08928284,0.2046251,-0.417673,-1.436919,-2.974001,-1.623101,0.09400536,-0.04321641,0.1517318,-1.050211,-2.605746,1.669888
1.999902,6.944471,161,202,496,497,0.0813885,0.242161,-0.416399,-1.437448,-2.9767,-1.628028,0.1134563,-0.04965684,0.1215332,-1.051304,-2.607025,1.669338
1.666569,6.955583,161,202,496,497,0.07367265,0.255079,-0.4218065,-1.43769,-2.978845,-1.633165,0.1316798,-0.04672454,0.1106426,-1.052763,-2.60792,1.668235
1.333235,6.966694,124,234,498,495,0.07768291,0.266178,-0.3939803,-1.438488,-2.981308,-1.637157,0.1372348,-0.04576121,0.122536,-1.05391,-2.608428,1.666433
0.9999018,6.977805,124,234,498,495,0.08094615,0.2626418,-0.3604867,-1.439187,-2.983402,-1.640454,0.1327802,-0.03963377,0.133247,-1.054743,-2.608188,1.664451
0.6665685,6.988916,124,234,498,495,0.08229417,0.2650489,-0.3441773,-1.439813,-2.985751,-1.64412,0.1136819,-0.03835916,0.1473072,-1.055121,-2.607904,1.662162
0.3332352,7.000028,124,234,498,495,0.07721466,0.2668405,-0.3333892,-1.440184,-2.988091,-1.647956,0.1083379,-0.0367135,0.1376889,-1.055778,-2.608212,1.660795
-9.816699E-05,7.011139,118,189,506,505,0.07036957,0.276328,-0.3230948,-1.440564,-2.990666,-1.651645,0.1179492,-0.03055725,0.1328255,-1.057013,-2.608494,1.659281
-9.816699E-05,7.02225,118,189,506,505,0.06963176,0.2823434,-0.3232557,-1.440868,-2.993118,-1.655598,0.129933,-0.03350002,0.1438628,-1.058281,-2.608901,1.657268
-9.816699E-05,7.033361,118,189,506,505,0.07089305,0.2874195,-0.3333128,-1.441245,-2.995567,-1.659847,0.1338111,-0.05131369,0.1418485,-1.059109,-2.609957,1.65574
-9.816699E-05,7.044473,118,189,506,505,0.07630107,0.2904935,-0.3264685,-1.442004,-2.99809,-1.663711,0.1197039,-0.06889915,0.1553281,-1.059261,-2.610503,1.653462
-9.816699E-05,7.055584,118,189,506,505,0.08902876,0.2845688,-0.2978337,-1.442955,-3.000644,-1.666511,0.09309997,-0.1042908,0.1461679,-1.058397,-2.611737,1.651983
-9.816699E-05,7.066695,125,280,500,496,0.08805183,0.2829909,-0.2856569,-1.443669,-3.003061,-1.66974,0.1023553,-0.1323444,0.128946,-1.058464,-2.613889,1.651015
-9.816699E-05,7.077806,125,280,500,496,0.08710515,0.2823081,-0.2819791,-1.444355,-3.005485,-1.673084,0.1257889,-0.1377092,0.1134001,-1.059425,-2.615961,1.6502
-9.816699E-05,7.088918,125,280,500,496,0.0819564,0.2812115,-0.2762002,-1.444806,-3.00788,-1.676406,0.143419,-0.1284942,0.112343,-1.060626,-2.6175,1.648952
-9.816699E-05,7.100029,125,280,500,496,0.0811235,0.2851268,-0.2692284,-1.445352,-3.010467,-1.679618,0.1401893,-0.1067916,0.1194979,-1.061613,-2.617972,1.647168
-9.816699E-05,7.11114,125,280,500,496,0.07710913,0.2817053,-0.2509681,-1.445748,-3.012995,-1.682262,0.1247951,-0.09537376,0.1258014,-1.062044,-2.618345,1.645422
-9.816699E-05,7.122252,141,226,502,505,0.06996584,0.2782044,-0.2370993,-1.446011,-3.015456,-1.684927,0.1035147,-0.07082449,0.1271439,-1.06221,-2.61806,1.643746
-9.816699E-05,7.133363,141,226,502,505,0.06813911,0.2738035,-0.2289254,-1.44641,-3.017827,-1.687656,0.1021327,-0.05143997,0.1353582,-1.063122,-2.617937,1.641856
-9.816699E-05,7.144474,141,226,502,505,0.07264459,0.2615277,-0.2206171,-1.447269,-3.01986,-1.690321,0.09435229,-0.02374931,0.1629579,-1.064045,-2.616633,1.638883
-9.816699E-05,7.155585,141,226,502,505,0.06782606,0.2434943,-0.2072193,-1.447503,-3.021671,-1.692578,0.07985661,-0.0170466,0.1803974,-1.064298,-2.615726,1.635982
-9.816699E-05,7.166697,159,221,502,498,0.065272,0.2137611,-0.2002056,-1.448143,-3.022808,-1.694891,0.06878665,-0.03585968,0.1614888,-1.064263,-2.616049,1.634503
-9.816699E-05,7.177808,159,221,502,498,0.05768979,0.1761922,-0.1931008,-1.448498,-3.023401,-1.697065,0.06778623,-0.05264033,0.1477694,-1.064357,-2.616889,1.633138
-9.816699E-05,7.188919,159,221,502,498,0.05033305,0.1395954,-0.1902699,-1.448802,-3.023775,-1.699062,0.06526319,-0.08497911,0.1232053,-1.064011,-2.618511,1.632465
-9.816699E-05,7.20003,159,221,502,498,0.04393044,0.1191901,-0.1822657,-1.44918,-3.024161,-1.701073,0.05854285,-0.1086608,0.08669545,-1.063598,-2.620388,1.632494
-9.816699E-05,7.211142,159,221,502,498,0.03346632,0.09481238,-0.1764718,-1.449307,-3.024164,-1.702941,0.06880572,-0.1074021,0.06191262,-1.063925,-2.621879,1.632348
-9.816699E-05,7.222253,179,243,503,501,0.01446348,0.07747759,-0.1689448,-1.44894,-3.024082,-1.704649,0.09276967,-0.07996087,0.0550508,-1.065236,-2.622663,1.63187
-9.816699E-05,7.233364,179,243,503,501,0.01957884,0.08034154,-0.1614886,-1.449161,-3.024697,-1.706409,0.1020229,-0.06296057,0.05966448,-1.066248,-2.623191,1.630958
-9.816699E-05,7.244475,179,243,503,501,0.02253376,0.0844461,-0.1548099,-1.449456,-3.02533,-1.708148,0.0986691,-0.04374223,0.07094922,-1.067022,-2.623448,1.629953
-9.816699E-05,7.255587,179,243,503,501,0.02650529,0.08930503,-0.1468053,-1.449692,-3.026196,-1.709698,0.08688434,-0.03101135,0.07461491,-1.067587,-2.623109,1.628679
-9.816699E-05,7.266698,199,225,504,504,0.03687644,0.08918529,-0.1324016,-1.450276,-3.026912,-1.710901,0.06686038,-0.02112891,0.06979147,-1.067764,-2.622826,1.627938
-9.816699E-05,7.277809,199,225,504,504,0.04496982,0.09144358,-0.1107721,-1.45078,-3.027955,-1.711768,0.04941787,-0.01748954,0.04979609,-1.067766,-2.623115,1.628097
-9.816699E-05,7.28892,199,225,504,504,0.04954801,0.08951703,-0.0463136,-1.451354,-3.029295,-1.71055,0.04502236,0.001559213,0.03869785,-1.068381,-2.622823,1.627946
-9.816699E-05,7.300032,199,225,504,504,0.05468852,0.08305275,-0.02162164,-1.452004,-3.030154,-1.710364,0.04213174,0.02047651,0.04616224,-1.069072,-2.621959,1.627089
-9.816699E-05,7.311143,199,225,504,504,0.05340125,0.09117888,-0.02716569,-1.452419,-3.031372,-1.71095,0.02906772,0.02359941,0.06284849,-1.069169,-2.620993,1.625708
-9.816699E-05,7.322254,211,218,505,502,0.05548894,0.09164441,-0.03254535,-1.452996,-3.032298,-1.711572,0.01460435,0.03084401,0.06141306,-1.069155,-2.620154,1.624963
-9.816699E-05,7.333365,211,218,505,502,0.05480235,0.07782774,-0.03843723,-1.45351,-3.032632,-1.712228,0.01172206,0.04352321,0.04607372,-1.069593,-2.619461,1.624843
-9.816699E-05,7.344477,211,218,505,502,0.05342121,0.04960627,-0.03607535,-1.454129,-3.032365,-1.712506,0.009010743,0.05566709,0.01258705,-1.070072,-2.619002,1.625642
-9.816699E-05,7.355588,211,218,505,502,0.05524616,0.01658159,-0.01953416,-1.454807,-3.031868,-1.712221,0.007646747,0.06591219,0.0005548708,-1.070576,-2.618267,1.625872
-9.816699E-05,7.366699,211,218,505,502,0.05192915,-0.02069649,-0.004087096,-1.455577,-3.030856,-1.711762,-0.01415113,0.08717486,-0.001517138,-1.070688,-2.616578,1.625918
-9.816699E-05,7.37781,219,225,504,496,0.05161435,-0.04552319,-0.001814325,-1.456181,-3.029918,-1.711654,-0.0332846,0.08391001,0.01054867,-1.070278,-2.615144,1.625263
-9.816699E-05,7.388922,219,225,504,496,0.04716884,-0.07412454,0.00170443,-1.456846,-3.028432,-1.711363,-0.04149061,0.06270014,0.01701049,-1.069735,-2.614501,1.62483
-9.816699E-05,7.400033,219,225,504,496,0.0456607,-0.0930263,0.002306917,-1.457432,-3.02712,-1.711149,-0.04452012,0.03900548,0.01390502,-1.069121,-2.614473,1.624783
-9.816699E-05,7.411144,219,225,504,496,0.03264415,-0.120611,0.005004684,-1.457678,-3.025198,-1.710813,-0.03187451,-0.004238535,-0.003930176,-1.068505,-2.615928,1.625484
-9.816699E-05,7.422256,223,262,505,492,0.02236556,-0.1317891,0.004313709,-1.457975,-3.023493,-1.710559,-0.01406853,-0.03542957,-0.02756471,-1.068314,-2.617689,1.626688
-9.816699E-05,7.433367,223,262,505,492,0.01272635,-0.1323668,0.005278124,-1.457973,-3.022141,-1.710178,-0.001169387,-0.04833826,-0.04223577,-1.068146,-2.619016,1.627582
-9.816699E-05,7.444478,223,262,505,492,0.003511449,-0.1190864,0.0208832,-1.457975,-3.02131,-1.709435,0.002641048,-0.04436443,-0.04511566,-1.068089,-2.619735,1.628274
-9.816699E-05,7.455589,223,262,505,492,-0.001486827,-0.1025136,0.03292442,-1.45791,-3.020749,-1.708692,-0.00792861,-0.03124545,-0.0380621,-1.067731,-2.619527,1.628397
-9.816699E-05,7.466701,223,262,505,492,-0.006986897,-0.06914989,0.04817089,-1.457787,-3.021034,-1.707798,-0.01522586,-0.0132373,-0.02390822,-1.067569,-2.618936,1.628236
-9.816699E-05,7.477812,230,299,503,493,-0.003636595,-0.04296261,0.05825421,-1.45772,-3.021483,-1.706957,-0.01553946,-0.0004381509,-0.01019633,-1.067497,-2.618481,1.627941
-9.816699E-05,7.488923,230,299,503,493,-0.004873343,-0.005288197,0.07451437,-1.457519,-3.022727,-1.705819,-0.008838526,0.0009455835,-0.005461851,-1.067576,-2.618455,1.627842
-9.816699E-05,7.500034,230,299,503,493,-0.004757084,0.02677468,0.08707385,-1.457306,-3.024007,-1.704751,-0.0007133167,-0.01422314,-0.009169756,-1.067513,-2.619157,1.628119
-9.816699E-05,7.511146,230,299,503,493,-0.001890264,0.04034343,0.09049433,-1.457153,-3.02497,-1.703832,-0.0005111508,-0.02869038,-0.01048362,-1.067174,-2.61987,1.628341
-9.816699E-05,7.522257,227,243,504,500,-0.004327834,0.0548186,0.09409846,-1.456976,-3.026178,-1.702867,-0.005695511,-0.07081505,-0.02776814,-1.066034,-2.621935,1.629557
-9.816699E-05,7.533368,227,243,504,500,-0.004399776,0.06185871,0.09253272,-1.456727,-3.027258,-1.702047,0.0008984208,-0.08538093,-0.03907508,-1.065627,-2.623488,1.630513
-9.816699E-05,7.544479,227,243,504,500,-0.006674081,0.07323752,0.09094768,-1.45649,-3.028584,-1.701239,0.007529706,-0.08182638,-0.03814895,-1.065468,-2.62456,1.63103
-9.816699E-05,7.555591,227,243,504,500,-0.003448553,0.07751177,0.08757973,-1.45638,-3.02974,-1.700416,0.006662309,-0.06830049,-0.03349692,-1.065293,-2.624996,1.631343
-9.816699E-05,7.566702,227,243,504,500,-0.006554693,0.07981539,0.08261257,-1.456097,-3.030856,-1.69974,0.003559988,-0.04316765,-0.02227661,-1.065342,-2.624717,1.631255
-9.816699E-05,7.577813,223,239,504,500,-0.008537374,0.07929278,0.0758516,-1.455851,-3.031841,-1.699188,0.005272612,-0.02567363,-0.007193603,-1.065468,-2.624478,1.630856
-9.816699E-05,7.588924,223,239,504,500,-0.01161306,0.07976748,0.06935447,-1.455472,-3.032811,-1.698752,0.0146172,-0.01254235,-0.01017911,-1.065909,-2.624652,1.63111
-9.816699E-05,7.600036,223,239,504,500,-0.008219585,0.07727403,0.0577468,-1.455362,-3.033768,-1.698356,0.01333187,0.003405698,-0.02223046,-1.066228,-2.624561,1.631707
-9.816699E-05,7.611147,223,239,504,500,-0.008051392,0.07366606,0.05025017,-1.455173,-3.034534,-1.698109,0.00753462,0.01659453,-0.02712085,-1.066348,-2.624197,1.632169
-9.816699E-05,7.622258,218,234,503,492,-0.008841373,0.06408428,0.04017149,-1.454948,-3.034873,-1.698013,-0.006970928,0.03164633,-0.03012047,-1.066313,-2.623489,1.632606
-9.816699E-05,7.633369,218,234,503,492,-0.01258286,0.04102079,0.02670272,-1.454733,-3.034669,-1.698062,-0.0153649,0.04104667,-0.02640232,-1.066278,-2.622698,1.632784
-9.816699E-05,7.644481,218,234,503,492,-0.01425469,0.01904175,0.01789074,-1.454644,-3.03448,-1.697966,-0.009772461,0.04631881,-0.01742838,-1.066631,-2.622097,1.632699
-9.816699E-05,7.655592,218,234,503,492,-0.01613898,0.007128075,0.01269942,-1.454446,-3.034232,-1.697929,0.004312254,0.04001052,-0.01073719,-1.067141,-2.622219,1.632795
-9.816699E-05,7.666703,218,234,503,492,-0.01788909,-0.01123343,0.002595508,-1.454152,-3.03369,-1.697936,0.01507944,0.02475613,-0.01630085,-1.067505,-2.622779,1.633188
-9.816699E-05,7.677814,209,200,503,506,-0.01477954,-0.001611968,-0.004863649,-1.454007,-3.033958,-1.698249,0.008574194,0.01500292,-0.02094747,-1.067389,-2.623057,1.633669
-9.816699E-05,7.688926,209,200,503,506,-0.01475759,-0.000569476,-0.008996887,-1.453846,-3.033904,-1.698453,-0.00245181,0.01649406,-0.02334316,-1.067208,-2.622858,1.634028
-9.816699E-05,7.700037,209,200,503,506,-0.01059941,0.007771567,-0.01127661,-1.453966,-3.034218,-1.6988,-0.01738263,0.04422984,-0.02464115,-1.06721,-2.621609,1.634267
-9.816699E-05,7.711148,209,200,503,506,-0.002082987,0.009991327,-0.01506801,-1.45409,-3.034358,-1.699105,-0.01898216,0.06307661,-0.01058968,-1.067595,-2.62033,1.633884
-9.816699E-05,7.72226,209,200,503,506,-0.004127881,0.008169759,-0.02102992,-1.45396,-3.034291,-1.699462,-0.01794573,0.09207565,0.01287858,-1.068296,-2.618197,1.632858
-9.816699E-05,7.733371,198,210,502,506,0.0004248694,-0.00621546,-0.02464112,-1.454196,-3.033885,-1.69963,-0.01775073,0.1102866,0.02744125,-1.068806,-2.616594,1.632098
-9.816699E-05,7.744482,198,210,502,506,0.007258223,-0.02727346,-0.0277332,-1.454679,-3.03292,-1.700017,-0.01448625,0.117279,0.02350718,-1.069488,-2.614853,1.631647
-9.816699E-05,7.755593,198,210,502,506,0.003306611,-0.03895791,-0.03400409,-1.454845,-3.032059,-1.700369,-0.01688451,0.1252251,0.01665118,-1.070125,-2.613261,1.631673
-9.816699E-05,7.766705,198,210,502,506,0.01018435,-0.05844433,-0.03889764,-1.455371,-3.030914,-1.700811,-0.01476175,0.1258427,0.007989381,-1.070717,-2.61202,1.631746
-9.816699E-05,7.777816,186,217,503,502,0.01269682,-0.0728443,-0.04253775,-1.455688,-3.029642,-1.701236,-0.01450469,0.1252842,-0.0030399,-1.071088,-2.610844,1.63205
-9.816699E-05,7.788927,186,217,503,502,0.01522148,-0.08724763,-0.04616152,-1.456031,-3.02822,-1.70155,-0.01256108,0.130304,-0.007495822,-1.071785,-2.609447,1.632166
-9.816699E-05,7.800038,186,217,503,502,0.01878721,-0.1021693,-0.04328349,-1.456572,-3.026771,-1.701709,-0.006537415,0.1328441,-0.008115606,-1.07256,-2.608239,1.632276
-9.816699E-05,7.81115,186,217,503,502,0.01809987,-0.1166519,-0.04254554,-1.456891,-3.025053,-1.701968,-0.005514361,0.1272777,-0.007112442,-1.073076,-2.607115,1.632147
-9.816699E-05,7.822261,186,217,503,502,0.02566767,-0.1167383,-0.04138777,-1.457576,-3.023728,-1.702237,-0.005379256,0.1088735,-0.006365212,-1.07336,-2.606485,1.632152
-9.816699E-05,7.833372,177,273,503,502,0.02449936,-0.1131679,-0.03384113,-1.458048,-3.022587,-1.702217,-0.004614424,0.09133604,-0.01133499,-1.073532,-2.606001,1.632315
-9.816699E-05,7.844483,177,273,503,502,0.02223976,-0.1090986,-0.02840007,-1.458315,-3.02146,-1.702208,-0.004693743,0.07724209,-0.01350586,-1.073728,-2.605608,1.63249
-9.816699E-05,7.855595,177,273,503,502,0.02304581,-0.09978326,-0.02161442,-1.458726,-3.020674,-1.702138,-0.002552385,0.065599,-0.01761567,-1.073972,-2.605309,1.632747
-9.816699E-05,7.866706,177,273,503,502,0.0213646,-0.08019606,-0.007887544,-1.459015,-3.020322,-1.701903,0.001720833,0.05860282,-0.02275981,-1.074321,-2.605119,1.633144
-9.816699E-05,7.877817,170,253,502,500,0.02610895,-0.05835683,0.002035551,-1.459785,-3.020231,-1.701698,0.008026706,0.04242447,-0.01674103,-1.074726,-2.605248,1.633121
-9.816699E-05,7.888928,170,253,502,500,0.02770526,-0.04072513,0.01085037,-1.460132,-3.020366,-1.701341,0.01488837,0.02921644,-0.0203009,-1.075027,-2.605613,1.633495
-9.816699E-05,7.90004,170,253,502,500,0.02999524,-0.01219098,0.02892533,-1.460428,-3.021144,-1.700644,0.01754657,-0.00551392,-0.0196313,-1.074821,-2.606682,1.633776
-9.816699E-05,7.911151,170,253,502,500,0.0280668,0.01677037,0.04483602,-1.460554,-3.02226,-1.699854,0.02928954,-0.03465385,-0.01902699,-1.07478,-2.607993,1.634042
-9.816699E-05,7.922262,170,253,502,500,0.02827365,0.04840698,0.05914796,-1.460781,-3.023862,-1.698924,0.03596466,-0.05955376,-0.0142379,-1.074669,-2.609452,1.634176
-9.816699E-05,7.933373,164,268,502,503,0.03066795,0.08140318,0.06822294,-1.461201,-3.025876,-1.698048,0.04696545,-0.0712885,-0.01584056,-1.074865,-2.610898,1.634465
-9.816699E-05,7.944485,164,268,502,503,0.02265976,0.1066207,0.07645544,-1.461055,-3.027843,-1.69724,0.0470034,-0.06535523,-0.02637696,-1.075062,-2.611977,1.635157
-9.816699E-05,7.955596,164,268,502,503,0.02141216,0.1172665,0.08222563,-1.460988,-3.029568,-1.696439,0.04508518,-0.04809583,-0.02716331,-1.075481,-2.612389,1.635547
-9.816699E-05,7.966707,164,268,502,503,0.02022666,0.1260816,0.08203923,-1.461224,-3.031268,-1.695861,0.03621757,-0.02756812,-0.01666532,-1.075732,-2.612179,1.635424
-9.816699E-05,7.977818,168,293,501,495,0.01721611,0.1231478,0.07577904,-1.461174,-3.032679,-1.695383,0.03174339,-0.02820863,0.001891199,-1.075738,-2.612301,1.634922
-9.816699E-05,7.98893,168,293,501,495,0.02283767,0.1131823,0.06779445,-1.461669,-3.033794,-1.694904,0.02104708,-0.04930471,0.005589087,-1.075185,-2.613241,1.634819
-9.816699E-05,8.000041,168,293,501,495,0.02314833,0.1028205,0.06085098,-1.461862,-3.034829,-1.694421,0.02418762,-0.07069446,-0.009670651,-1.074958,-2.614866,1.635472
-9.816699E-05,8.011152,168,293,501,495,0.02566874,0.08706865,0.05373981,-1.462132,-3.03551,-1.694085,0.03097601,-0.07971615,-0.02322419,-1.074978,-2.616275,1.636221
-9.816699E-05,8.022264,168,293,501,495,0.02694516,0.07932685,0.04964614,-1.462381,-3.036338,-1.693643,0.02760928,-0.0803336,-0.03082153,-1.07475,-2.617466,1.636888
