ref,t,emg1,emg2,emg1raw,emg2raw,aDotS,bDotS,gDotS,aS,bS,gS,aDotSH,bDotSH,gDotSH,aSH,bSH,gSH
90,0,44,104,497,498,-1.05076,-0.1344737,-0.3386258,-0.8169619,3.023239,0.003675162,-0.4875875,-0.263792,0.1322294,-0.3619199,2.645037,2.448462
90,0.01111111,44,104,497,498,-1.011306,-0.1806022,-0.3115475,-0.8139174,3.019284,0.01666713,-0.5108839,-0.1817678,0.1160307,-0.3613968,2.643209,2.456572
90,0.02222222,44,104,497,498,-0.987823,-0.1978559,-0.2926418,-0.8115632,3.015321,0.03012035,-0.5137665,-0.1240538,0.1680408,-0.3591656,2.636664,2.468487
90,0.03333334,44,104,497,498,-0.9504594,-0.2162311,-0.2727918,-0.8088664,3.011843,0.04203746,-0.4922875,-0.1451573,0.2361964,-0.3583874,2.622904,2.486153
90,0.04444445,44,104,497,498,-0.9130613,-0.2303748,-0.2518715,-0.8060723,3.008397,0.05370211,-0.4483697,-0.1694,0.2971003,-0.357572,2.608568,2.504138
90,0.05555556,44,104,497,498,-0.8842812,-0.2465016,-0.2415475,-0.80326,3.004761,0.06524638,-0.4410237,-0.182346,0.3106946,-0.3576418,2.594805,2.521386
90,0.06666667,44,104,497,498,-0.8458381,-0.2905503,-0.2080467,-0.7990751,3.002501,0.07519968,-0.4591899,-0.166409,0.2840698,-0.3573579,2.587027,2.534418
90,0.07777778,44,104,497,498,-0.8074872,-0.3259625,-0.1883174,-0.7950015,2.999749,0.08539639,-0.4752778,-0.1292781,0.2254034,-0.3571928,2.584319,2.542851
90,0.08888889,44,104,497,498,-0.7819295,-0.3431515,-0.1800819,-0.7909753,2.996902,0.09553131,-0.4668883,-0.1145152,0.1794903,-0.3574399,2.581633,2.550406
90,0.1,44,104,497,498,-0.7466311,-0.3380826,-0.1611093,-0.7876927,2.994673,0.1047,-0.4127716,-0.1265624,0.1229121,-0.3588609,2.578959,2.556073
90,0.1111111,44,104,497,498,-0.7252386,-0.3296865,-0.1504912,-0.7846621,2.992681,0.1136967,-0.3979612,-0.1405033,0.1058635,-0.3600194,2.57366,2.565301
90,0.1222222,44,104,497,498,-0.6941746,-0.3117949,-0.1378409,-0.7817811,2.990269,0.1222561,-0.3893749,-0.1372704,0.1228691,-0.3602447,2.567129,2.575451
90,0.1333333,44,104,497,498,-0.6642427,-0.3066556,-0.1252263,-0.7787632,2.988333,0.1302813,-0.3807078,-0.1169381,0.1547442,-0.3593936,2.559439,2.586974
90,0.1444445,44,104,497,498,-0.6279492,-0.306825,-0.1159582,-0.7756633,2.985703,0.1380849,-0.3700681,-0.0988912,0.1418418,-0.3593851,2.555879,2.59433
90,0.1555556,44,104,497,498,-0.5872982,-0.2953572,-0.09912392,-0.7730176,2.984203,0.1446192,-0.3700981,-0.09573585,0.1301178,-0.3596652,2.551641,2.602381
90,0.1666667,44,104,497,498,-0.5445221,-0.2625321,-0.09388454,-0.771064,2.982445,0.1508574,-0.3616042,-0.09363061,0.1226068,-0.359865,2.548038,2.609695
90,0.1777778,44,104,497,498,-0.5166299,-0.2339433,-0.0843264,-0.7693212,2.98079,0.1570093,-0.3327672,-0.09362924,0.1448837,-0.3596519,2.541073,2.61909
90,0.1888889,44,104,497,498,-0.4801977,-0.1925868,-0.07684755,-0.7684487,2.979612,0.1621908,-0.3156509,-0.07658738,0.1543592,-0.3589675,2.535738,2.627172
90,0.2,44,104,497,498,-0.4523639,-0.1703526,-0.0704962,-0.7673308,2.978532,0.1672162,-0.2878792,-0.04149848,0.1520153,-0.3576061,2.532545,2.632613
90,0.2111111,44,104,497,498,-0.4052516,-0.136546,-0.05569318,-0.7667965,2.978044,0.1707571,-0.2824939,0.01061928,0.1283647,-0.3558878,2.533749,2.634516
90,0.2222222,44,104,497,498,-0.37427,-0.1217756,-0.05155967,-0.7658761,2.977064,0.1749846,-0.2482822,0.02660796,0.1548205,-0.3541051,2.52903,2.640834
90,0.2333333,44,104,497,498,-0.3539622,-0.1165706,-0.0452818,-0.764813,2.976306,0.1788792,-0.242995,0.009541512,0.1559301,-0.353818,2.523407,2.648651
90,0.2444444,44,104,497,498,-0.3293943,-0.1113649,-0.03903717,-0.7638953,2.975543,0.1824862,-0.2216294,-0.002135813,0.1835991,-0.3528433,2.515668,2.65777
90,0.2555556,44,104,497,498,-0.3112491,-0.1103982,-0.03490384,-0.7627725,2.97485,0.1859286,-0.2120726,-0.01494259,0.1836134,-0.3523405,2.509787,2.665401
90,0.2666667,44,104,497,498,-0.2749283,-0.1095584,-0.02346237,-0.7615314,2.974384,0.1882961,-0.196015,-0.004284382,0.1973801,-0.3508885,2.503489,2.672985
90,0.2777778,44,104,497,498,-0.2567713,-0.1064736,-0.0182583,-0.760422,2.973796,0.1912714,-0.1652459,-0.006601155,0.162129,-0.3505402,2.50148,2.675871
90,0.2888889,44,104,497,498,-0.2257954,-0.1013236,-0.009928405,-0.7594275,2.973681,0.192995,-0.1705348,0.009373546,0.1599504,-0.349419,2.497866,2.681219
90,0.3,44,104,497,498,-0.1958992,-0.09614833,-0.003714174,-0.7585381,2.973682,0.1944651,-0.1855155,0.02316895,0.1311567,-0.3486493,2.497945,2.683748
90,0.3111111,44,104,497,498,-0.1723797,-0.08563723,0.00150276,-0.7576501,2.973518,0.1959234,-0.1525446,0.01982138,0.11188,-0.3483319,2.496487,2.685659
90,0.3222222,44,104,497,498,-0.1530832,-0.07620004,0.01315062,-0.7570152,2.974099,0.1967565,-0.1323508,0.01016575,0.1054473,-0.3480677,2.493833,2.689127
90,0.3333333,44,104,497,498,-0.133739,-0.06040053,0.02803306,-0.7565897,2.975,0.1971735,-0.1130438,0.04001731,0.1233782,-0.3461199,2.491164,2.692449
90,0.3444445,44,104,497,498,-0.1208371,-0.05200891,0.03971579,-0.7561045,2.975975,0.1974638,-0.1247803,0.04746369,0.1116714,-0.3450658,2.489546,2.695682
90,0.3555556,44,104,497,498,-0.1047989,-0.04466112,0.04391672,-0.7553838,2.976764,0.1977179,-0.1237062,0.05278921,0.1105713,-0.3439132,2.487829,2.698662
90,0.3666667,44,104,497,498,-0.09092286,-0.04366997,0.04701722,-0.7548261,2.977501,0.1978398,-0.119537,0.0441913,0.0871569,-0.3433219,2.487288,2.700351
90,0.3777778,44,104,497,498,-0.08128884,-0.03733999,0.05018568,-0.7543702,2.978259,0.1980034,-0.118592,0.05576073,0.04129005,-0.3427765,2.49106,2.698199
90,0.3888889,44,104,497,498,-0.07913044,-0.03202911,0.05127256,-0.7540208,2.979054,0.198258,-0.1175939,0.06205882,0.01463269,-0.342245,2.493697,2.697004
90,0.4,44,104,497,498,-0.07479981,-0.02997107,0.05978104,-0.7535862,2.980336,0.1980827,-0.1080594,0.06090315,-0.003498795,-0.3418753,2.495379,2.696253
90,0.4111111,44,104,497,498,-0.07153291,-0.02577447,0.06724398,-0.7532389,2.981637,0.1978345,-0.1134098,0.05771326,-0.009851737,-0.3412415,2.496667,2.696401
90,0.4222222,44,104,497,498,-0.06615467,-0.0226296,0.07256026,-0.7529534,2.983082,0.1973647,-0.1112788,0.05877244,-0.01092688,-0.3406332,2.497933,2.696377
90,0.4333333,44,104,497,498,-0.05861193,-0.01097874,0.07790151,-0.7529603,2.98428,0.1969067,-0.1155075,0.07053809,-0.005614422,-0.3392617,2.499076,2.696943
90,0.4444444,44,104,497,498,-0.05644194,-0.008886226,0.08216166,-0.7527276,2.985753,0.1963969,-0.113295,0.08123571,0.008187741,-0.3379211,2.499653,2.697405
90,0.4555556,44,104,497,498,-0.05108445,-0.006792977,0.08426654,-0.752466,2.98711,0.1957173,-0.1197101,0.06742539,0.01252051,-0.3373666,2.499583,2.699028
90,0.4666667,44,104,497,498,-0.04471661,-0.008932203,0.08207377,-0.7521486,2.988287,0.1951815,-0.1112724,0.04288856,0.007250053,-0.3375162,2.499557,2.70013
90,0.4777778,44,104,497,498,-0.0405531,-0.0163775,0.07560743,-0.7513826,2.989249,0.1951389,-0.1102668,0.03431303,-0.008693252,-0.3374513,2.500996,2.699788
90,0.4888889,44,104,497,498,-0.04381215,-0.02271959,0.07025984,-0.7508335,2.990039,0.1951234,-0.116706,0.03534597,-0.0235929,-0.3373304,2.503458,2.698986
90,0.5,44,104,497,498,-0.04493855,-0.0258908,0.06598438,-0.7502455,2.990812,0.1953328,-0.1145649,0.03641094,-0.02254172,-0.3369985,2.504736,2.698927
90,0.5111111,44,104,497,498,-0.04921376,-0.02266086,0.06389646,-0.7500298,2.991503,0.1956166,-0.1198464,0.05241479,-0.01832206,-0.3361783,2.506319,2.698999
90,0.5222223,44,104,497,498,-0.05033807,-0.02580747,0.05749036,-0.7495632,2.992079,0.1957903,-0.1208796,0.06305972,-0.01833693,-0.3353852,2.507333,2.699318
90,0.5333334,44,104,497,498,-0.04927288,-0.01941741,0.05325958,-0.749029,2.992559,0.1958409,-0.1230342,0.05878953,-0.022577,-0.3350603,2.509016,2.699137
90,0.5444446,44,104,497,498,-0.05249229,-0.02152102,0.0511376,-0.7486321,2.993222,0.1960289,-0.1177063,0.04920161,-0.0172238,-0.3348328,2.509007,2.700171
90,0.5555557,44,104,497,498,-0.05147965,-0.03001871,0.0478684,-0.7481182,2.993636,0.1962174,-0.1113406,0.03639373,-0.01719165,-0.33495,2.509149,2.701024
90,0.5666668,44,104,497,498,-0.05258809,-0.03104223,0.04254253,-0.7477038,2.994042,0.196553,-0.1092333,0.0363757,-0.0214602,-0.3347018,2.510709,2.70086
90,0.577778,44,104,497,498,-0.0526062,-0.02996482,0.04044238,-0.7472447,2.995014,0.1965029,-0.10819,0.04058895,-0.03424735,-0.3344419,2.512918,2.69981
90,0.5888891,44,104,497,498,-0.05255897,-0.02573396,0.04473343,-0.7469655,2.995822,0.1965008,-0.111333,0.05022994,-0.02255036,-0.3336217,2.513875,2.700352
90,0.6000003,44,104,497,498,-0.05148749,-0.02361583,0.04366247,-0.7465054,2.996128,0.1967229,-0.1091259,0.06092271,-0.009795003,-0.3325564,2.514032,2.701216
90,0.6111114,44,104,497,498,-0.04299239,-0.01936899,0.0383094,-0.746018,2.996556,0.1967085,-0.1102848,0.03639461,-0.0203594,-0.3328871,2.51511,2.701414
90,0.6222225,44,104,497,498,-0.03981217,-0.01936559,0.03615547,-0.7457522,2.997021,0.1967346,-0.1071132,0.0374179,-0.03209041,-0.3327764,2.517658,2.699989
90,0.6333337,44,104,497,498,-0.04301704,-0.01504744,0.02874432,-0.7455935,2.997059,0.1968555,-0.1113792,0.04593299,-0.03956306,-0.3322171,2.520476,2.698705
90,0.6444448,44,104,497,498,-0.04304453,-0.01822806,0.02659116,-0.7452633,2.997334,0.1971192,-0.1039487,0.04801826,-0.05024543,-0.3319082,2.523571,2.696728
90,0.655556,44,104,497,498,-0.03983212,-0.01930569,0.02441273,-0.7447999,2.997211,0.1970356,-0.1007581,0.05332014,-0.05562865,-0.3317058,2.527703,2.693885
90,0.6666671,44,104,497,498,-0.03879787,-0.0192792,0.02014398,-0.7445729,2.997288,0.1973887,-0.100804,0.05436669,-0.06521156,-0.3313223,2.531153,2.692047
90,0.6777782,44,104,497,498,-0.03664159,-0.0160623,0.01481266,-0.7443658,2.997051,0.1971645,-0.09019347,0.03302474,-0.0640913,-0.3318442,2.531918,2.691922
90,0.6888894,44,104,497,498,-0.03341431,-0.007551827,0.01484997,-0.7444648,2.997348,0.1972289,-0.09127828,0.02664442,-0.06299882,-0.3319343,2.533916,2.691189
90,0.7000005,44,104,497,498,-0.03336702,-0.00114771,0.01277979,-0.7445123,2.997837,0.1966872,-0.09235409,0.02873805,-0.07258053,-0.332045,2.536971,2.68913
90,0.7111117,44,104,497,498,-0.02588264,0.01058074,0.009597631,-0.7451572,2.99774,0.1967479,-0.09235565,0.03300104,-0.07365815,-0.331881,2.540042,2.687382
90,0.7222228,44,104,497,498,-0.02160577,0.01696444,0.008546773,-0.7454912,2.997927,0.1967543,-0.09450142,0.02662536,-0.07471009,-0.3320456,2.543472,2.685171
90,0.7333339,44,104,497,498,-0.02053659,0.01802582,0.008546578,-0.7456984,2.998131,0.1968023,-0.09132788,0.0106588,-0.07040046,-0.3325473,2.544806,2.684773
90,0.7444451,44,104,497,498,-0.01097644,0.02873297,-0.001048257,-0.7466534,2.997699,0.1969333,-0.08921923,0.002134077,-0.07251311,-0.3330027,2.547331,2.683264
90,0.7555562,44,104,497,498,-0.004565723,0.03937544,-0.004227437,-0.7472239,2.997432,0.1969748,-0.08712306,0.002092369,-0.08317284,-0.333538,2.550756,2.680949
90,0.7666674,44,104,497,498,-0.006730862,0.04690086,-0.01268075,-0.7479823,2.997115,0.1973296,-0.07859157,0.0127173,-0.08857682,-0.3335327,2.555289,2.677322
90,0.7777785,44,104,497,498,-0.008814033,0.03947077,-0.01802978,-0.7479137,2.996923,0.1960017,-0.07220851,-0.00219126,-0.08002274,-0.334297,2.55635,2.676944
90,0.7888896,44,104,497,498,-0.007779598,0.0373593,-0.02124843,-0.7483408,2.996559,0.1963399,-0.07218751,-0.003225572,-0.07043777,-0.3346539,2.557858,2.67644
90,0.8000008,44,104,497,498,-0.006706871,0.03955526,-0.02869191,-0.7490939,2.996169,0.1959075,-0.07640582,0.005313948,-0.06725962,-0.3347173,2.560208,2.675045
90,0.8111119,44,104,497,498,-0.006756853,0.03853574,-0.03509096,-0.749601,2.995472,0.1964848,-0.05943017,-0.01499129,-0.07151675,-0.3359199,2.561947,2.673689
90,0.8222231,44,104,497,498,-0.006771296,0.04069343,-0.04255422,-0.7499025,2.994154,0.1970649,-0.05411035,-0.02672826,-0.06828775,-0.3369293,2.562188,2.673733
90,0.8333342,44,104,497,498,-0.007861249,0.04287655,-0.04787245,-0.7507531,2.993108,0.1978633,-0.05299364,-0.02880612,-0.0523111,-0.3373112,2.562372,2.674081
90,0.8444453,44,104,497,498,-0.01111493,0.03973792,-0.05426344,-0.7512463,2.992074,0.1988391,-0.05405435,-0.02985449,-0.04804473,-0.337847,2.563141,2.674074
90,0.8555565,44,104,497,498,-0.01643306,0.03558876,-0.06378253,-0.7518674,2.99214,0.1977823,-0.05191422,-0.03410974,-0.04482549,-0.3383461,2.563056,2.674497
90,0.8666676,44,104,497,498,-0.02177486,0.03776088,-0.06692443,-0.7525124,2.991099,0.1989083,-0.05831632,-0.03303148,-0.04587114,-0.3388846,2.563943,2.674623
90,0.8777788,44,104,497,498,-0.02382842,0.04632133,-0.07109559,-0.7533699,2.99036,0.1986505,-0.06041464,-0.02979248,-0.03735252,-0.3390641,2.564486,2.674869
90,0.8888899,44,104,497,498,-0.02380151,0.04950186,-0.06894231,-0.7541226,2.989529,0.199524,-0.0604047,-0.03508837,-0.02881033,-0.3395642,2.563967,2.676092
90,0.900001,44,104,497,498,-0.02693956,0.05480138,-0.06355488,-0.7549859,2.988955,0.200339,-0.05393665,-0.0382213,-0.006438734,-0.3397128,2.561529,2.678655
90,0.9111122,44,104,497,498,-0.02369109,0.05802165,-0.06890345,-0.7559202,2.987399,0.2004998,-0.05179477,-0.03927386,-0.001116399,-0.3400718,2.560531,2.680173
90,0.9222233,44,104,497,498,-0.02374892,0.05059534,-0.07321764,-0.7564688,2.986196,0.2016594,-0.05926973,-0.04565626,-0.005344242,-0.3407989,2.560789,2.680657
90,0.9333345,44,104,497,498,-0.02800258,0.03998781,-0.07434902,-0.7571937,2.9847,0.2023938,-0.05711672,-0.04143098,-0.0107098,-0.3415046,2.56154,2.68011
90,0.9444456,44,104,497,498,-0.03119814,0.03358468,-0.07117559,-0.7575532,2.98376,0.2035007,-0.05178232,-0.03611059,-0.01180399,-0.3416159,2.561556,2.680568
90,0.9555568,44,104,497,498,-0.0291011,0.02084379,-0.07119277,-0.758072,2.984624,0.202926,-0.03471977,-0.0414596,-0.005437363,-0.3420649,2.560013,2.68184
90,0.9666679,44,104,497,498,-0.02588166,0.01439528,-0.06487016,-0.7581945,2.9838,0.2037233,-0.02833332,-0.03299572,-0.01614754,-0.3425123,2.561132,2.680816
90,0.977779,44,104,497,498,-0.02155791,0.01115979,-0.05850548,-0.7586036,2.983766,0.2034873,-0.02617318,-0.0159699,-0.02366576,-0.3423153,2.562856,2.679336
90,0.9888902,44,104,497,498,-0.01728499,0.007926181,-0.05536367,-0.7587228,2.983006,0.2041169,-0.01976653,-0.008521756,-0.02370906,-0.3422327,2.563598,2.678763
90,1.000001,44,104,497,498,-0.008725636,0.005722145,-0.05119633,-0.7587293,2.981968,0.2045318,-0.004843617,-0.002181753,-0.03016199,-0.3421688,2.564929,2.676969
90,1.011112,44,104,497,498,0.002031457,0.00560273,-0.03853117,-0.7590867,2.981053,0.2047342,0.01011075,0.011641,-0.0281259,-0.3417885,2.566245,2.675281
90,1.022224,44,104,497,498,0.01065715,0.004418105,-0.02581471,-0.7590579,2.981221,0.2040839,0.01327555,0.00309884,-0.03130446,-0.3421991,2.567127,2.67423
90,1.033335,44,104,497,498,0.01923495,-0.003130509,-0.01851039,-0.7588241,2.980262,0.2039907,0.0238992,-0.002261624,-0.03665011,-0.3424378,2.568623,2.672298
90,1.044446,44,104,497,498,0.02453823,-0.007402726,-0.019645,-0.7586867,2.979856,0.2038746,0.02603107,0.00942843,-0.04415009,-0.34231,2.570912,2.669855
90,1.055557,44,104,497,498,0.0320034,-0.02133233,-0.01448087,-0.7579053,2.979394,0.203416,0.02924531,0.01793358,-0.04844258,-0.3420649,2.572988,2.667375
90,1.066668,44,104,497,498,0.03624553,-0.0288118,-0.0135,-0.7574403,2.979059,0.2031518,0.0324174,0.008340623,-0.04735343,-0.3424617,2.574014,2.665992
90,1.077779,44,104,497,498,0.04045639,-0.04483844,-0.01046018,-0.7564688,2.978438,0.2033201,0.03135428,0.008335952,-0.04948118,-0.3426476,2.575792,2.663879
90,1.08889,44,104,497,498,0.04468315,-0.05226566,-0.01052758,-0.7563516,2.978586,0.2027475,0.03348088,0.01045625,-0.05055959,-0.3427414,2.577566,2.661858
90,1.100002,44,104,497,498,0.04784127,-0.0597181,-0.01273363,-0.7555271,2.978024,0.2025078,0.03776174,0.001934178,-0.04628469,-0.343151,2.578402,2.660122
90,1.111113,44,104,497,498,0.06057453,-0.06077223,-0.01597433,-0.7552235,2.978758,0.2013233,0.04308487,-0.01614944,-0.03451335,-0.3436975,2.577466,2.660348
90,1.122224,44,104,497,498,0.0701497,-0.05544892,-0.02026747,-0.7548048,2.978115,0.2007725,0.04731562,-0.02893915,-0.0334148,-0.3444144,2.577442,2.659761
90,1.133335,44,104,497,498,0.07227389,-0.0490059,-0.02559864,-0.7549194,2.97684,0.2007235,0.04516622,-0.02683638,-0.04195298,-0.3450743,2.579545,2.657297
90,1.144446,44,104,497,498,0.07760263,-0.03513034,-0.03193035,-0.7550147,2.976066,0.2002537,0.04624758,-0.01087387,-0.04733395,-0.3450109,2.581625,2.654902
90,1.155557,44,104,497,498,0.07762466,-0.02233949,-0.03504514,-0.7549529,2.975098,0.2001307,0.04630579,0.002991658,-0.04312261,-0.3448059,2.58325,2.652725
90,1.166668,44,104,497,498,0.07875315,0.002180725,-0.038074,-0.7556735,2.974556,0.1996087,0.0495149,-0.0001844577,-0.03566215,-0.3449518,2.583638,2.651773
90,1.17778,44,104,497,498,0.08198861,0.01389526,-0.03912105,-0.7562861,2.973183,0.1995293,0.05058172,-0.006567366,-0.03139126,-0.3453779,2.584206,2.650613
90,1.188891,44,104,497,498,0.08097059,0.0405763,-0.04531477,-0.7575852,2.972584,0.1991086,0.04842156,-0.01402545,-0.03348603,-0.345886,2.584838,2.649613
90,1.200002,44,104,497,498,0.08849195,0.06611617,-0.04839782,-0.758742,2.971707,0.1985973,0.04199336,-0.02360749,-0.03768125,-0.3464501,2.585185,2.648973
90,1.211113,44,104,497,498,0.0906627,0.0842436,-0.0514937,-0.7603,2.970958,0.1981179,0.04089596,-0.02575704,-0.04512388,-0.347003,2.586557,2.647295
90,1.222224,44,104,497,498,0.09169635,0.0885467,-0.05786256,-0.7615213,2.97012,0.1976806,0.03450488,-0.02891129,-0.03976448,-0.3474019,2.586874,2.6469
90,1.233335,44,104,497,498,0.09276198,0.08643524,-0.06108567,-0.7625242,2.969214,0.1968454,0.03241292,-0.02355084,-0.03231425,-0.3474978,2.586983,2.646461
90,1.244446,44,104,497,498,0.09059709,0.07899351,-0.06218852,-0.7633206,2.96839,0.1965189,0.03455089,-0.01504706,-0.03661038,-0.3476549,2.58842,2.644691
90,1.255558,44,104,497,498,0.08845606,0.07580591,-0.06434038,-0.7640396,2.967182,0.196227,0.03135129,-0.01078596,-0.04087517,-0.3478472,2.590006,2.642948
90,1.266669,44,104,497,498,0.09060594,0.07684846,-0.06221793,-0.765018,2.966539,0.1956337,0.03239867,-0.008668631,-0.04514461,-0.3481156,2.591467,2.641317
90,1.27778,44,104,497,498,0.09271817,0.07258093,-0.05792963,-0.7659976,2.967584,0.1942606,0.03240991,-0.005469006,-0.04409342,-0.3483404,2.592803,2.639715
90,1.288891,44,104,497,498,0.09273025,0.06936225,-0.05475671,-0.7667667,2.967052,0.1936257,0.03028996,-0.006511033,-0.03981934,-0.3485545,2.593457,2.638837
90,1.300002,44,104,497,498,0.09812265,0.07034887,-0.04515176,-0.7675891,2.967921,0.1918903,0.03673783,-0.003283206,-0.02813575,-0.3484427,2.593814,2.637775
90,1.311113,44,104,497,498,0.1024659,0.07773361,-0.03660271,-0.768665,2.968087,0.1905843,0.04099467,-0.009668067,-0.02280289,-0.348791,2.593738,2.637351
90,1.322224,44,104,497,498,0.1056828,0.08619856,-0.03338529,-0.7695577,2.967458,0.1902397,0.04946677,-0.01611781,-0.03347375,-0.3494824,2.594699,2.635699
90,1.333336,44,104,497,498,0.1046531,0.08935186,-0.03123706,-0.7702591,2.966916,0.1893955,0.05052764,-0.01186627,-0.03667849,-0.3495937,2.596385,2.633565
90,1.344447,44,104,497,498,0.1047192,0.08821813,-0.02165746,-0.7711881,2.967179,0.1880399,0.04947885,-0.008645203,-0.03029803,-0.3496864,2.596869,2.632783
90,1.355558,44,104,497,498,0.1014372,0.08294711,-0.02692274,-0.771857,2.968253,0.1866066,0.04845857,-0.01602501,-0.01108574,-0.3496885,2.595314,2.633701
90,1.366669,44,104,497,498,0.09612818,0.07653705,-0.02267085,-0.7724754,2.96813,0.1856362,0.04846825,-0.0149408,-0.005764265,-0.3497572,2.595039,2.633586
90,1.37778,44,104,497,498,0.09288363,0.07119217,-0.02376232,-0.7727524,2.967534,0.1854428,0.04521233,-0.021376,-0.01745003,-0.3504885,2.595562,2.632742
90,1.388891,44,104,497,498,0.08858822,0.06589592,-0.02589954,-0.7733937,2.967211,0.184817,0.04732583,-0.01501751,-0.02599844,-0.3506552,2.596759,2.631133
90,1.400002,44,104,497,498,0.08111389,0.06056765,-0.0247991,-0.7736653,2.96728,0.1841336,0.04416122,-0.005430415,-0.02603287,-0.3507772,2.597949,2.62949
90,1.411114,44,104,497,498,0.07571565,0.04248437,-0.02595429,-0.7736685,2.966818,0.1837938,0.0409618,-0.0001056418,-0.02817597,-0.3508944,2.599096,2.628209
90,1.422225,44,104,497,498,0.06488816,0.01376597,-0.02929511,-0.7730347,2.965641,0.1849315,0.04100959,0.00102549,-0.01113481,-0.350627,2.598409,2.628563
90,1.433336,44,104,497,498,0.06270454,-9.779632E-05,-0.02939601,-0.7725415,2.964689,0.1849949,0.03570593,0.001078717,-0.004715369,-0.3502845,2.598129,2.628522
90,1.444447,44,104,497,498,0.06267122,-0.01823768,-0.02526376,-0.7718746,2.964274,0.1846029,0.03251522,0.005351141,-0.002593182,-0.3501982,2.598384,2.628209
90,1.455558,44,104,497,498,0.05944011,-0.02890753,-0.0231733,-0.771171,2.963986,0.1844069,0.02614658,0.0117484,-0.00577771,-0.3499234,2.598716,2.627517
90,1.466669,44,104,497,498,0.05620554,-0.03633656,-0.02533578,-0.7706922,2.963312,0.1842993,0.03040854,0.02025103,-0.007956156,-0.3496432,2.59975,2.626292
90,1.47778,44,104,497,498,0.04767289,-0.03630231,-0.02419358,-0.7704589,2.963193,0.1843504,0.0303928,0.02235033,-0.01753948,-0.3494914,2.600335,2.625212
90,1.488891,44,104,497,498,0.04446538,-0.03521072,-0.02629319,-0.7701601,2.962601,0.1843573,0.02826361,0.02659654,-0.02074675,-0.3494323,2.602187,2.623254
90,1.500003,44,104,497,498,0.03165182,-0.03734866,-0.02411142,-0.7693201,2.961506,0.1857012,0.02294082,0.02342732,-0.01857058,-0.3491606,2.602298,2.622959
90,1.511114,44,104,497,498,0.02422941,-0.03414952,-0.0208386,-0.7690666,2.96123,0.185813,0.02187248,0.02236038,-0.01750377,-0.3491969,2.603021,2.622118
90,1.522225,44,104,497,498,0.02004215,-0.01071851,-0.01524452,-0.7696413,2.962826,0.1852447,0.02391639,-0.005351793,-0.01955915,-0.3501375,2.603,2.621915
90,1.533336,44,104,497,498,0.01903073,0.003102124,-0.01087705,-0.7700147,2.962914,0.1853581,0.02492398,-0.0149785,-0.03125521,-0.3507905,2.604475,2.62013
90,1.544447,44,104,497,498,0.02014916,0.01587394,-0.009728683,-0.7705644,2.962953,0.1850647,0.02171317,-0.01180326,-0.03977805,-0.3511431,2.60605,2.618421
90,1.555558,44,104,497,498,0.02123653,0.02011126,-0.006496051,-0.7708344,2.963307,0.184785,0.01214444,-7.778406E-05,-0.0461778,-0.3510952,2.608271,2.616308
90,1.566669,44,104,497,498,0.02122992,0.02332973,-0.007530009,-0.7714059,2.963474,0.1845895,0.005786965,0.01060049,-0.04406479,-0.3510366,2.610175,2.614545
90,1.577781,44,104,497,498,0.02229494,0.02653066,-0.004266618,-0.7720307,2.964769,0.1838657,0.007935254,0.008492063,-0.0376602,-0.3509167,2.610291,2.614306
90,1.588892,44,104,497,498,0.0245074,0.03712745,0.00326754,-0.7727034,2.965637,0.183038,0.007963029,0.01064983,-0.02914849,-0.3509088,2.610774,2.613842
90,1.600003,44,104,497,498,0.03100106,0.06050753,0.007645868,-0.7738891,2.966158,0.1823131,0.007923545,0.009556328,-0.03872836,-0.3510765,2.612664,2.612037
90,1.611114,44,104,497,498,0.03214508,0.0764924,0.0131329,-0.7755711,2.968152,0.1807296,0.0100124,0.005257007,-0.04618167,-0.3516161,2.614427,2.6103
90,1.622225,44,104,497,498,0.0332251,0.0828879,0.0121055,-0.7766252,2.96859,0.1800254,0.01322591,0.01483471,-0.04939869,-0.3512688,2.616057,2.608473
90,1.633336,44,104,497,498,0.03112009,0.08820908,0.01542891,-0.7775999,2.970756,0.1784089,0.01324032,0.009534555,-0.04299064,-0.3513892,2.616897,2.60745
90,1.644447,44,104,497,498,0.02579296,0.08822548,0.0165377,-0.7786061,2.971449,0.1779269,0.01962798,-4.909188E-05,-0.03658736,-0.3517658,2.617019,2.606941
90,1.655559,44,104,497,498,0.02682881,0.08076824,0.01543148,-0.7791722,2.97219,0.1770006,0.01751378,0.007409472,-0.03980795,-0.3517136,2.619168,2.604658
90,1.66667,44,104,497,498,0.02465153,0.07012829,0.01537444,-0.7797139,2.972673,0.1765969,0.01324287,0.0127265,-0.04514128,-0.3518744,2.621221,2.602782
90,1.677781,44,104,497,498,0.02563655,0.05949259,0.01208233,-0.7801059,2.972595,0.1766246,0.004765253,0.01918011,-0.0355527,-0.3515948,2.622417,2.601888
90,1.688892,44,104,497,498,0.02986517,0.04132977,0.01509394,-0.7799211,2.972436,0.1761681,-0.001554157,0.02671025,-0.01957753,-0.3510318,2.62257,2.60193
90,1.700003,44,104,497,498,0.02971933,0.01258326,0.01168089,-0.779259,2.972129,0.1763886,-0.0004723193,0.02143003,-0.01104281,-0.3507122,2.622947,2.601504
90,1.711114,44,104,497,498,0.02964952,-0.002301661,0.01156503,-0.7793027,2.972117,0.1763215,0.002742708,0.02144373,-0.005724434,-0.3504443,2.623209,2.601122
90,1.722225,44,104,497,498,0.02741142,-0.03746693,0.01344906,-0.7782476,2.971945,0.1761228,-0.0004615365,0.0299414,-0.01532984,-0.3503213,2.624781,2.599628
90,1.733337,44,104,497,498,0.02626933,-0.04488526,0.00805815,-0.7773469,2.971185,0.1766507,-0.003681669,0.02885121,-0.02489598,-0.3501535,2.626478,2.598079
90,1.744448,44,104,497,498,0.02520505,-0.05343422,0.01226603,-0.7764798,2.971326,0.1762959,-0.008995304,0.02569213,-0.01847525,-0.3500043,2.626919,2.597905
90,1.755559,44,104,497,498,0.02411129,-0.05556742,0.01008853,-0.7756488,2.970376,0.1768073,-0.01220109,0.01505894,-0.0130982,-0.3501673,2.626535,2.598417
90,1.76667,44,104,497,498,0.02411009,-0.05343622,0.00793585,-0.7750145,2.969496,0.1770603,-0.01429498,0.01829074,-0.004580272,-0.3498217,2.62651,2.598654
90,1.777781,44,104,497,498,0.02200583,-0.04597198,0.008004582,-0.7747232,2.969541,0.176835,-0.01748559,0.0193649,-0.00669722,-0.3495111,2.627244,2.598097
90,1.788892,44,104,497,498,0.02312894,-0.02998882,0.009183118,-0.7750305,2.969984,0.1763348,-0.01324413,0.01721536,-0.007774631,-0.3495825,2.627842,2.597723
90,1.800003,44,104,497,498,0.02104281,-0.0161502,0.008197776,-0.7749224,2.96933,0.176567,-0.01325662,0.01400803,-0.009900674,-0.3496933,2.62849,2.597204
90,1.811115,44,104,497,498,0.02113156,-0.003397677,0.01146198,-0.7750843,2.969242,0.1760957,-0.01327732,0.01077937,-0.01415203,-0.3500001,2.628901,2.596929
90,1.822226,44,104,497,498,0.01901893,0.0158341,0.006294413,-0.7759492,2.969481,0.1759439,-0.01115868,0.007574087,-0.01521295,-0.3501071,2.629358,2.596564
90,1.833337,44,104,497,498,0.01695448,0.03392148,0.008553584,-0.7765943,2.969532,0.1759551,-0.01431118,0.008689427,-0.002424463,-0.3498872,2.628749,2.59744
90,1.844448,44,104,497,498,0.01696521,0.04139357,0.006476272,-0.7772644,2.969719,0.175628,-0.01428854,0.006589198,0.006105419,-0.3497221,2.628006,2.598292
90,1.855559,44,104,497,498,0.00844999,0.04780826,0.006565119,-0.7778944,2.969585,0.1760818,-0.011116,-0.00830505,0.01147258,-0.3499229,2.626905,2.599391
90,1.86667,44,104,497,498,0.003122099,0.04676328,0.006613525,-0.7783504,2.97016,0.1757127,-0.006833944,-0.002987261,0.01356772,-0.3498046,2.626558,2.599678
90,1.877781,44,104,497,498,-0.001181003,0.04147463,0.003410957,-0.7786795,2.97018,0.1758294,-0.01216364,0.001276382,0.01038313,-0.3495793,2.626448,2.60014
90,1.888893,44,104,497,498,-0.005525693,0.03302355,0.0002378402,-0.779177,2.9713,0.1756397,-0.01330396,-0.0009112237,-0.004528873,-0.3500587,2.627822,2.599308
90,1.900004,44,104,497,498,-0.008770714,0.02346251,-0.001937692,-0.7791919,2.971208,0.1759007,-0.01007769,0.002298034,0.001839798,-0.3499031,2.627503,2.599633
90,1.911115,44,104,497,498,-0.01305059,0.0096038,0.001174428,-0.7789555,2.970976,0.1762283,-0.01327768,-0.00088102,0.005057872,-0.3499202,2.626962,2.60047
90,1.922226,44,104,497,498,-0.01416467,-0.00424093,0.001083422,-0.7785176,2.970879,0.1764866,-0.01433931,-0.006185615,0.01040688,-0.3499782,2.625947,2.601629
90,1.933337,44,104,497,498,-0.01853114,-0.02552474,-0.001193775,-0.7777219,2.97003,0.1776318,-0.01964729,0.004475942,0.006119941,-0.3496395,2.62707,2.600872
90,1.944448,44,104,497,498,-0.01751946,-0.03188952,-0.00550811,-0.7772452,2.969671,0.1780664,-0.02284568,0.003409484,0.003998859,-0.3497023,2.62721,2.600952
90,1.955559,44,104,497,498,-0.01964441,-0.03615902,-0.004469122,-0.7766986,2.96928,0.178452,-0.02180582,-0.0008697044,-0.0002505635,-0.3498685,2.627305,2.601062
90,1.966671,44,104,497,498,-0.02284191,-0.03615042,-0.003340851,-0.7762763,2.970005,0.1783887,-0.02289079,0.002302397,-0.006650559,-0.3499522,2.62801,2.600777
90,1.977782,44,104,497,498,-0.02279667,-0.0255054,-0.002199642,-0.7762534,2.970003,0.1786555,-0.02607032,0.005513553,-0.006650252,-0.3497401,2.628515,2.600558
90,1.988893,44,104,497,498,-0.0248761,-0.01700448,-2.363231E-05,-0.7761554,2.969427,0.1793144,-0.02713176,0.004457116,-0.004511196,-0.3497401,2.628476,2.600931
90,2.000004,44,104,497,498,-0.0248276,-0.001017907,-0.000974929,-0.7765698,2.969501,0.1795407,-0.02499482,0.001277888,-0.001324948,-0.3497178,2.628847,2.600716
90,2.011115,44,104,497,498,-0.0236723,0.007431785,0.004374536,-0.7764574,2.969126,0.1797261,-0.0250327,-0.005130952,-0.007690581,-0.3499506,2.629172,2.600691
90,2.022226,44,104,497,498,-0.02149269,0.01913465,0.005507791,-0.7769634,2.969386,0.179716,-0.0271456,0.0002049655,-0.006637294,-0.3498563,2.629488,2.600766
90,2.033337,44,104,497,498,-0.02250734,0.02767778,0.006675581,-0.7776995,2.970438,0.179072,-0.02925297,0.004492249,-0.004505056,-0.3494898,2.629696,2.600863
90,2.044448,44,104,497,498,-0.02246149,0.03725172,0.006726764,-0.7781735,2.970313,0.1792334,-0.02606647,0.007667324,-0.007723869,-0.3494595,2.630379,2.600556
90,2.055559,44,104,497,498,-0.02243445,0.03829411,0.009930093,-0.7785879,2.970713,0.1791929,-0.02714759,0.001276653,-0.009816765,-0.3495255,2.630219,2.600914
90,2.06667,44,104,497,498,-0.01813967,0.04146467,0.01097276,-0.7790881,2.970744,0.1790305,-0.02717084,0.003371885,-0.01941184,-0.3497018,2.631536,2.599916
90,2.077781,44,104,497,498,-0.01924296,0.03509203,0.008804461,-0.7792979,2.970876,0.179169,-0.02823527,0.009756319,-0.02475328,-0.3495537,2.633045,2.598824
90,2.088892,44,104,497,498,-0.01711568,0.03400694,0.01093773,-0.7796084,2.971745,0.1789122,-0.03037859,0.0108203,-0.02475712,-0.3497018,2.633957,2.598576
90,2.100003,44,104,497,498,-0.01604641,0.03293035,0.01198758,-0.7799126,2.972037,0.1788579,-0.02504642,0.002314178,-0.01622206,-0.3498435,2.63353,2.599121
90,2.111114,44,104,497,498,-0.01393774,0.03295439,0.01095556,-0.7805033,2.973416,0.1781852,-0.02292175,0.0001835451,-0.0140839,-0.3498999,2.633486,2.599473
90,2.122225,44,104,497,498,-0.01181846,0.02975121,0.01091715,-0.780744,2.973663,0.1780797,-0.02505963,0.001239898,-0.01621614,-0.3500954,2.634192,2.59921
90,2.133336,44,104,497,498,-0.01183704,0.02654872,0.01304036,-0.7810295,2.974357,0.178141,-0.02397355,0.007627161,-0.0162492,-0.3500315,2.635222,2.598427
90,2.144447,44,104,497,498,-0.01292476,0.01482298,0.01295268,-0.7807238,2.974198,0.1780968,-0.02502933,0.01082081,-0.01731986,-0.3499585,2.635911,2.598013
90,2.155558,44,104,497,498,-0.01086316,0.00633165,0.007550012,-0.7805715,2.974096,0.1782363,-0.0218436,0.009739432,-0.02265483,-0.3499852,2.637335,2.596679
90,2.166669,44,104,497,498,-0.01090155,-0.001124822,0.009699247,-0.7804031,2.975962,0.1774794,-0.02078764,0.0118552,-0.02586257,-0.3500347,2.638499,2.595848
90,2.17778,44,104,497,498,-0.01201261,-0.007489787,0.006465635,-0.7801384,2.975878,0.1777032,-0.02075785,0.01080982,-0.01839833,-0.3500049,2.638293,2.596187
90,2.188891,44,104,497,498,-0.009893329,-0.01069297,0.006427213,-0.7799355,2.975928,0.1777154,-0.02178784,0.009793812,-0.005601477,-0.3498248,2.637688,2.597091
90,2.200002,44,104,497,498,-0.009893649,-0.008569047,0.005353312,-0.7798082,2.975426,0.1781921,-0.0260609,0.007673847,-0.005585214,-0.3498206,2.637868,2.59743
90,2.211113,44,104,497,498,-0.0108832,-0.001134713,0.00964364,-0.7801118,2.975113,0.1782779,-0.01966445,0.01189321,-0.01094676,-0.3498041,2.63877,2.596463
90,2.222224,44,104,497,498,-0.01087969,0.002068718,0.008601239,-0.7801938,2.975216,0.1783253,-0.0164743,0.009754037,-0.01094979,-0.349836,2.639115,2.59624
90,2.233335,44,104,497,498,-0.01092023,0.00211333,0.005469889,-0.7803563,2.976604,0.1777165,-0.01543548,0.004409373,-0.01200525,-0.350162,2.639361,2.59631
90,2.244446,44,104,497,498,-0.01092451,0.005324393,0.00336223,-0.7804926,2.976653,0.1778203,-0.01542052,0.003363177,-0.006674998,-0.3501109,2.639201,2.596623
90,2.255557,44,104,497,498,-0.009798408,0.006333699,0.008662894,-0.780401,2.976447,0.1777846,-0.01964806,0.008707834,-0.002413687,-0.3499133,2.639018,2.597075
90,2.266668,44,104,497,498,-0.01301064,0.009560897,0.004440726,-0.7804686,2.976197,0.178142,-0.01967582,0.007611245,-0.009869659,-0.3501029,2.63994,2.596437
90,2.277779,44,104,497,498,-0.01302214,0.008503273,0.003367874,-0.780556,2.976229,0.1782592,-0.0207639,0.004402971,-0.01411576,-0.350276,2.640566,2.5961
90,2.28889,44,104,497,498,-0.0151643,0.007460598,-0.0008995361,-0.7804436,2.97569,0.1785213,-0.01971896,-0.002001368,-0.01517032,-0.3506595,2.64092,2.595952
90,2.300001,44,104,497,498,-0.01622152,0.005318488,0.001223521,-0.7804452,2.975804,0.1786571,-0.01648387,-0.001967907,-0.003462865,-0.3505189,2.640153,2.596784
90,2.311112,44,104,497,498,-0.01725904,0.004214981,0.003321168,-0.7801336,2.975168,0.1790944,-0.01327278,0.002294078,-0.0002968892,-0.3504155,2.640317,2.596802
90,2.322223,44,104,497,498,-0.01406673,0.001000475,0.004340177,-0.7800388,2.975237,0.1791114,-0.01541305,0.0097293,-0.007774061,-0.3502898,2.641518,2.595991
90,2.333334,44,104,497,498,-0.01088922,-0.006493454,0.004234395,-0.7794721,2.974513,0.1795551,-0.01539971,0.01397853,-0.01100214,-0.3503372,2.64301,2.594584
90,2.344445,44,104,497,498,-0.009831644,-0.008604346,0.005298571,-0.7797256,2.975199,0.1792611,-0.01750167,0.01081362,-0.002451945,-0.3501881,2.642639,2.595196
90,2.355556,44,104,497,498,-0.00132527,-0.01396798,0.006264915,-0.7794114,2.975238,0.1791152,-0.01855049,0.005526012,0.006089092,-0.350072,2.641589,2.59625
90,2.366668,44,104,497,498,-0.004521085,-0.01928966,0.008359744,-0.7792532,2.97496,0.1794108,-0.0132136,0.003398575,0.009276703,-0.3499202,2.641207,2.596504
90,2.377779,44,104,497,498,-0.005601609,-0.02140886,0.007287079,-0.778964,2.974978,0.1794773,-0.01216184,0.007630053,0.001800805,-0.3498414,2.64191,2.595927
90,2.38889,44,104,497,498,-0.006655356,-0.02034754,0.008367725,-0.7787371,2.97509,0.1794965,-0.01113245,0.01397448,-0.0120783,-0.3497641,2.643823,2.594337
90,2.400001,44,104,497,498,-0.00986257,-0.01925937,0.00738926,-0.7784548,2.976266,0.1789399,-0.01540271,0.01079232,-0.009923231,-0.3498366,2.643947,2.594614
90,2.411112,44,104,497,498,-0.008811343,-0.02029985,0.00632593,-0.7784718,2.976693,0.1787365,-0.01966847,0.00228855,-0.007733396,-0.3498755,2.64325,2.595429
90,2.422223,44,104,497,498,-0.008819111,-0.02029222,0.005260688,-0.7782556,2.976684,0.1788408,-0.01647037,0.001216058,-0.0077395,-0.3498973,2.643483,2.595234
90,2.433334,44,104,497,498,-0.007696263,-0.01606519,0.006331731,-0.7779062,2.976395,0.1785927,-0.01537661,-0.001954604,0.001861699,-0.3498738,2.642354,2.596368
90,2.444445,44,104,497,498,-0.007658885,-0.007563668,0.007458798,-0.7778305,2.976541,0.1785602,-0.01429993,0.003362265,0.0007657306,-0.3498355,2.642866,2.596005
90,2.455556,44,104,497,498,-0.005498345,0.0009626183,0.00537435,-0.7779983,2.976622,0.1782709,-0.01430837,0.006534875,-0.005639208,-0.3498259,2.643753,2.595276
90,2.466667,44,104,497,498,-0.005446935,0.01052551,0.005410626,-0.7780542,2.976047,0.1784803,-0.01537402,0.007598598,-0.006700024,-0.3497503,2.643934,2.595299
90,2.477778,44,104,497,498,-0.005416416,0.01477129,0.007571561,-0.7782982,2.976301,0.1783625,-0.01324633,0.006527532,-0.006703308,-0.3497519,2.644145,2.595184
90,2.488889,44,104,497,498,-0.006470731,0.02010893,0.006552183,-0.7786326,2.976452,0.1783519,-0.01112683,0.002288814,-0.002439362,-0.3496773,2.644279,2.59533
90,2.5,44,104,497,498,-0.004329892,0.02007532,0.00757104,-0.7786146,2.975971,0.1786507,-0.0110847,0.01189552,0.003914011,-0.3493077,2.644397,2.59542
90,2.511111,44,104,497,498,-0.002187008,0.02431354,0.007564273,-0.7788042,2.975698,0.178859,-0.01109308,0.005506657,0.00608519,-0.3492704,2.64322,2.596631
90,2.522222,44,104,497,498,0.001028361,0.02321426,0.01072897,-0.7790092,2.976051,0.1785128,-0.008957106,0.003382679,0.01034768,-0.3492235,2.642577,2.597327
90,2.533333,44,104,497,498,0.001040081,0.02426663,0.01179318,-0.7792122,2.976154,0.1784297,-0.0163584,0.009821879,0.01779694,-0.348816,2.642455,2.597604
90,2.544444,44,104,497,498,0.006363194,0.01890655,0.01384655,-0.7792356,2.976462,0.1779833,-0.01847887,0.005587172,0.02314655,-0.3486376,2.641411,2.598786
90,2.555555,44,104,497,498,0.008515378,0.01784192,0.01598231,-0.7795797,2.977467,0.1769809,-0.01421867,-0.002919579,0.02636423,-0.3484597,2.640228,2.599753
90,2.566666,44,104,497,498,0.00640245,0.0114279,0.01806298,-0.7793618,2.977353,0.1767034,-0.01206082,-0.001847163,0.03167786,-0.3482738,2.639026,2.60087
90,2.577777,44,104,497,498,0.004249462,0.005043695,0.01803289,-0.7792132,2.97759,0.1765441,-0.007812442,0.001314069,0.02526036,-0.3481455,2.638884,2.600983
90,2.588888,44,104,497,498,0.001007601,0.0008242782,0.01376487,-0.7790982,2.977607,0.1765878,-0.004646776,0.003402023,0.01672955,-0.3480634,2.638699,2.601259
90,2.599999,44,104,497,498,0.00105304,-0.0002772799,0.01801104,-0.778981,2.977887,0.1761106,-0.004663176,-0.001926061,0.01674794,-0.3481092,2.638023,2.601981
90,2.61111,44,104,497,498,-4.652236E-05,-0.005584615,0.01585027,-0.7787451,2.97799,0.1760712,-0.001477746,-0.006214456,0.01460517,-0.3484773,2.637814,2.601993
90,2.622221,44,104,497,498,0.002087016,-0.004527652,0.01584096,-0.7786928,2.978198,0.1758416,0.003832033,-0.00624591,0.01032535,-0.3485566,2.637705,2.601939
90,2.633332,44,104,497,498,0.004194362,-0.008797485,0.01470537,-0.7783828,2.977803,0.1760222,0.01021005,-0.004157091,0.002835253,-0.3486158,2.638359,2.600994
90,2.644443,44,104,497,498,0.002038522,-0.01087368,0.01155667,-0.7784153,2.978853,0.1752472,0.007002775,8.575246E-05,-0.005690144,-0.3485865,2.639227,2.600142
90,2.655554,44,104,497,498,-0.001187706,-0.01510845,0.009419123,-0.7780984,2.978855,0.1753644,0.007011702,0.008592694,-0.009982053,-0.3484139,2.640337,2.599
90,2.666665,44,104,497,498,-0.002262129,-0.02042994,0.008331048,-0.7776116,2.979002,0.175041,0.007026247,0.009671336,-0.005722538,-0.3482909,2.640169,2.5991
90,2.677776,44,104,497,498,-0.001174178,-0.0161802,0.009418943,-0.7775397,2.979199,0.1748706,0.009178683,0.003315969,0.006011535,-0.3481955,2.638892,2.60012
90,2.688887,44,104,497,498,0.004163323,-0.01300278,0.009402804,-0.7774875,2.979324,0.1745766,0.01021377,-0.003081734,0.006027715,-0.3484097,2.638595,2.600442
90,2.699998,44,104,497,498,0.006341972,-0.007695084,0.009401927,-0.7774326,2.978974,0.1742959,0.01020015,-0.004158527,0.002835707,-0.3485028,2.638634,2.600288
90,2.711109,44,104,497,498,0.005269739,-0.002325827,0.008432793,-0.7778358,2.980205,0.1736802,0.004902049,-0.001991055,0.009255568,-0.3481657,2.637284,2.601629
90,2.72222,44,104,497,498,0.003129306,-0.002313724,0.007382676,-0.7777432,2.980244,0.1737132,0.002773121,0.004392576,0.006042534,-0.3480416,2.637665,2.601372
90,2.733331,44,104,497,498,-0.0001060963,-0.005481787,0.004189518,-0.7775051,2.980153,0.1739454,0.00168599,0.00545951,0.002836238,-0.347959,2.638492,2.600814
90,2.744442,44,104,497,498,0.002044878,-0.001234995,0.003114723,-0.7774928,2.979687,0.1739886,-0.001514958,0.004405621,0.003906765,-0.3479947,2.638623,2.600861
90,2.755553,44,104,497,498,0.0009836573,-0.002304224,0.004180151,-0.7774476,2.979758,0.1739587,-0.004686233,0.01081377,0.006024944,-0.3476645,2.638788,2.600847
90,2.766664,44,104,497,498,0.002029089,0.001989879,0.001030935,-0.7777368,2.980206,0.1737611,-0.00361168,0.009758944,0.01028709,-0.3474978,2.638239,2.601393
90,2.777775,44,104,497,498,0.004152166,-0.0001479844,0.001000131,-0.7776617,2.980202,0.1736626,-0.0004115999,0.004437503,0.01668459,-0.3475484,2.637013,2.602512
90,2.788886,44,104,497,498,0.004185468,0.001955491,0.003129662,-0.7775866,2.979989,0.1736168,-0.003592577,0.002347266,0.0262911,-0.3472783,2.635573,2.604224
90,2.799997,44,104,497,498,0.00412832,-0.005470801,-0.001184582,-0.7773517,2.979753,0.1737404,-0.004651375,0.003419316,0.0273561,-0.3470589,2.634859,2.604977
90,2.811108,44,104,497,498,-0.001230812,-0.01503736,-0.0001355425,-0.7770529,2.979963,0.1738357,-0.006787961,0.008733301,0.01989601,-0.3466855,2.635068,2.604831
90,2.822219,44,104,497,498,-0.001262456,-0.01821105,-0.003354798,-0.7767706,2.979732,0.1739886,-0.006792337,0.01510485,0.0156093,-0.3464405,2.635446,2.604663
90,2.83333,44,104,497,498,-0.000208687,-0.02784287,-0.0002587949,-0.7760223,2.97919,0.1743572,-0.008938709,0.009797707,0.01563974,-0.3461832,2.635082,2.605158
90,2.844441,44,104,497,498,-0.003430557,-0.0352887,-0.0002886888,-0.7754235,2.979008,0.174615,-0.009996461,0.008748621,0.01990683,-0.345991,2.634321,2.606071
90,2.855552,44,104,497,498,-0.0002510548,-0.03957408,-0.0003665991,-0.7747567,2.978315,0.1750512,-0.008958887,0.002354247,0.01993693,-0.3459324,2.633197,2.607347
90,2.866663,44,104,497,498,-0.003474619,-0.04596113,-0.001482262,-0.7739758,2.977426,0.1757516,-0.01003172,0.009783229,0.01351581,-0.3458397,2.633752,2.607045
90,2.877774,44,104,497,498,-0.002390079,-0.04491483,0.0006480342,-0.7735018,2.977384,0.1757814,-0.007900652,0.01720611,0.00602417,-0.3455643,2.634664,2.60614
90,2.888885,44,104,497,498,-0.002415188,-0.04808483,-0.001516058,-0.7730826,2.976943,0.1761015,-0.01111346,0.0203861,-0.0003656088,-0.3454061,2.635333,2.605782
90,2.899997,44,104,497,498,-0.003453087,-0.0448931,-0.0004180979,-0.7726784,2.976928,0.1760504,-0.007945097,0.01291266,-0.002479933,-0.3455079,2.635408,2.605706
90,2.911108,44,104,497,498,-0.0001876466,-0.0321437,0.001755631,-0.772606,2.976465,0.1761415,-0.002625018,0.002260747,0.006057513,-0.3458062,2.634103,2.606919
90,2.922219,44,104,497,498,-0.0001631882,-0.02468063,0.0007251883,-0.7725372,2.976006,0.1763865,0.0005671196,0.00225235,0.00711254,-0.3457891,2.63375,2.607247
90,2.93333,44,104,497,498,-0.001194319,-0.01936594,0.002901549,-0.7724669,2.976115,0.1763449,0.0006043874,0.01185446,0.01027094,-0.3453268,2.634021,2.607023
90,2.944441,44,104,497,498,0.0009700218,-0.01192407,0.004004503,-0.7725324,2.976246,0.1761766,-0.001571039,0.007564324,0.001770234,-0.3455036,2.634445,2.606776
90,2.955552,44,104,497,498,0.003152972,-0.001279577,0.005121179,-0.7729053,2.976243,0.1759796,-0.002653442,0.001183015,0.0007414015,-0.3454695,2.63411,2.607074
90,2.966663,44,104,497,498,-3.262167E-05,0.005134109,0.00304766,-0.773065,2.975989,0.176208,0.006919149,-0.001001306,-0.004591672,-0.3455398,2.633638,2.607049
90,2.977774,44,104,497,498,0.002097166,0.005123473,0.004103072,-0.7731476,2.976227,0.1760733,0.001567615,-0.001013593,-0.01203078,-0.3457145,2.634444,2.60642
90,2.988885,44,104,497,498,0.002094463,0.007249899,0.003051508,-0.7731412,2.976172,0.1761303,0.0005387433,0.007520647,-0.009929694,-0.345477,2.635107,2.605746
90,2.999996,44,104,497,498,0.004257316,0.01149027,0.00519665,-0.7734064,2.976423,0.1758288,-0.0005058595,0.004357451,-0.001391061,-0.3454141,2.634453,2.606379
90,3.011107,44,104,497,498,0.004294153,0.0146596,0.007351672,-0.7734555,2.976645,0.175456,0.003759434,-0.003061641,0.008209651,-0.3452629,2.63354,2.607193
90,3.022218,44,104,497,498,0.006401911,0.01361661,0.00844915,-0.7739141,2.978091,0.174681,0.002694586,0.002252188,0.003932645,-0.345176,2.633963,2.606777
90,3.033329,44,104,497,498,0.003203478,0.006147804,0.01161499,-0.7737378,2.978359,0.1745281,0.004833966,0.008628166,0.0007022959,-0.3449768,2.63479,2.605864
90,3.04444,44,104,497,498,0.004224115,-0.009820455,0.01254817,-0.7735407,2.97833,0.1744296,0.001649935,0.01078028,0.004965157,-0.3447872,2.634611,2.606224
90,3.055551,44,104,497,498,0.005221894,-0.0247304,0.0113686,-0.7728877,2.97831,0.174452,0.001614903,-0.004118321,0.006081379,-0.3450072,2.634039,2.606714
90,3.066662,44,104,497,498,0.007304635,-0.03753249,0.01018868,-0.7719449,2.978029,0.1744498,-0.001592211,-0.007309594,0.007165834,-0.3452213,2.633506,2.607415
90,3.077773,44,104,497,498,0.01155083,-0.04180818,0.01012705,-0.7713543,2.978054,0.1741904,-0.004771554,-0.003036796,0.007163649,-0.3450541,2.633391,2.607572
90,3.088884,44,104,497,498,0.01474183,-0.04180809,0.007955899,-0.770918,2.977636,0.1740908,-0.0068935,0.008675141,0.0007212523,-0.344759,2.63521,2.606011
90,3.099995,44,104,497,498,0.01475703,-0.03968519,0.009036362,-0.7705111,2.97772,0.1738703,-0.009031004,0.01398436,-0.005682575,-0.3446173,2.636303,2.605137
90,3.111106,44,104,497,498,0.01260915,-0.03325746,0.0070358,-0.7703103,2.979116,0.1731555,-0.01222174,0.01079526,-0.003536546,-0.344767,2.636309,2.605261
90,3.122217,44,104,497,498,0.01054204,-0.02155526,0.01033096,-0.7703076,2.979414,0.1728828,-0.005833449,0.006524164,-0.001411451,-0.3447622,2.636115,2.605323
90,3.133328,44,104,497,498,0.009498283,-0.01195274,0.009342966,-0.7704594,2.979573,0.1727561,-0.004766824,0.002269566,0.0007369583,-0.3447158,2.635627,2.605737
90,3.144439,44,104,497,498,0.006373749,0.001880496,0.01266297,-0.7707146,2.979981,0.1724812,-0.006923294,0.002239926,-0.006695825,-0.3448202,2.635568,2.605983
90,3.15555,44,104,497,498,0.003191717,0.01364437,0.007443159,-0.7710975,2.97999,0.1723385,-0.008023065,-0.00204146,-0.01307084,-0.3451127,2.636191,2.605536
90,3.166661,44,104,497,498,0.003191484,0.01899226,0.005337747,-0.7715343,2.979834,0.1724535,-0.01017405,-0.0009983126,-0.01945988,-0.3453417,2.637088,2.604891
90,3.177772,44,104,497,498,-0.002112184,0.02326399,0.006472382,-0.7718986,2.980087,0.1724258,-0.009059597,0.006486512,-0.01096816,-0.3450647,2.637335,2.604735
90,3.188883,44,104,497,498,-0.001051923,0.02325927,0.006464223,-0.7721068,2.980202,0.1723965,-0.006919592,0.004339331,-0.00989815,-0.3452725,2.636991,2.604907
90,3.199994,44,104,497,498,-0.00210659,0.02645785,0.006494304,-0.7724627,2.980374,0.1723049,-0.0026665,-0.005242764,-0.004553511,-0.3455984,2.636367,2.605419
90,3.211105,44,104,497,498,-0.001050372,0.02752893,0.004363587,-0.7727076,2.98044,0.1722128,-0.009059245,-0.00310333,-0.007737622,-0.345559,2.63685,2.605049
90,3.222216,44,104,497,498,-0.006384918,0.02648154,0.004407293,-0.7729293,2.980838,0.1721883,-0.01119697,8.545257E-05,-0.00987307,-0.3456953,2.637392,2.604946
90,3.233327,44,104,497,498,-0.008518487,0.02114336,0.006510161,-0.7729617,2.980928,0.172265,-0.007988317,-0.003111844,-0.007747491,-0.3458605,2.637533,2.604618
90,3.244438,44,104,497,498,-0.009625248,0.01370543,0.004334231,-0.7729415,2.980898,0.172428,-0.006914658,-0.006288184,-0.0002832673,-0.3459574,2.636755,2.605512
90,3.255549,44,104,497,498,-0.008576017,0.007299854,0.005349646,-0.7728009,2.981053,0.1723907,-0.003681902,-0.01157321,0.01143926,-0.3459063,2.635502,2.606472
90,3.26666,44,104,497,498,-0.007588427,-0.001167051,0.002180445,-0.7728403,2.982986,0.1714037,-0.00258029,-0.003047403,0.01352837,-0.3457103,2.635623,2.606299
90,3.277771,44,104,497,498,-0.006560476,-0.01823941,0.005246131,-0.7721494,2.983037,0.1714394,-0.006860662,-0.000931982,0.006077959,-0.3457284,2.636087,2.606049
90,3.288882,44,104,497,498,-0.004474228,-0.02569102,0.0041298,-0.7717319,2.983343,0.1713701,-0.006867382,-0.0009411974,0.005014445,-0.3458014,2.635785,2.606461
90,3.299993,44,104,497,498,-0.002365317,-0.03636622,0.006168719,-0.771041,2.983349,0.1713366,-0.006830628,0.003346833,0.01245603,-0.3454876,2.635132,2.607155
90,3.311104,44,104,497,498,-0.005576793,-0.03848078,0.002947875,-0.7704637,2.982449,0.1719257,-0.006852536,0.00439337,0.007130465,-0.3454189,2.635274,2.607191
90,3.322215,44,104,497,498,-0.007686868,-0.03527297,0.001898895,-0.7702,2.981912,0.172208,-0.00687414,0.007558213,-0.000340512,-0.3454525,2.636044,2.60663
90,3.333326,44,104,497,498,-0.004521467,-0.03952975,-0.0002853645,-0.7696775,2.981695,0.172331,-0.00795044,0.008613927,-0.002473549,-0.3454589,2.636374,2.606535
90,3.344437,44,104,497,498,-0.006607054,-0.03206434,-0.0002191584,-0.7695428,2.981626,0.1722458,-0.004746091,0.00542644,0.002847555,-0.3454738,2.635983,2.606874
90,3.355548,44,104,497,498,-0.00657705,-0.02568039,0.000891716,-0.769424,2.981664,0.1722863,-0.004734698,0.004376518,0.007112544,-0.3453603,2.635507,2.607373
90,3.366659,44,104,497,498,-0.003301981,-0.01186283,0.004129421,-0.769742,2.981261,0.1724168,-0.007966209,-0.0009602578,0.0007416637,-0.3456091,2.636156,2.606934
90,3.37777,44,104,497,498,-6.875163E-05,-0.003359319,0.005232152,-0.7699113,2.981419,0.1722213,-0.0005400837,-0.003138238,-0.006732597,-0.345829,2.636729,2.606222
90,3.388881,44,104,497,498,0.001025251,0.007294981,0.004234054,-0.7701963,2.981464,0.1721723,-0.002672609,-0.003139977,-0.007793755,-0.3459659,2.63697,2.606046
90,3.399992,44,104,497,498,-0.002136875,0.01475512,0.005375929,-0.7705473,2.981652,0.1721446,-0.002671013,4.819664E-05,-0.009935879,-0.3459771,2.637518,2.60556
90,3.411103,44,104,497,498,-0.003210997,0.02118089,0.001168403,-0.7709724,2.981615,0.172225,-0.001582228,0.001129954,-0.003558761,-0.3459798,2.637388,2.605675
90,3.422215,44,104,497,498,-0.005302843,0.02542983,0.003322776,-0.7713175,2.981384,0.1723896,-0.002635935,0.005392805,-0.003570915,-0.3458855,2.637716,2.60541
90,3.433326,44,104,497,498,-0.005264249,0.03075549,0.002282959,-0.7716957,2.981198,0.172167,-0.002645622,0.003274181,-0.005695723,-0.3457523,2.638483,2.604683
90,3.444437,44,104,497,498,-0.002070781,0.02754264,0.003301644,-0.7719151,2.981322,0.1720003,-0.002633352,0.003278012,-0.00464005,-0.3458024,2.63889,2.604208
90,3.455548,44,104,497,498,-0.002141457,0.0201369,0.001196653,-0.7722485,2.982988,0.1712397,-0.004755446,0.001168692,-0.0003640598,-0.3457987,2.638537,2.604645
90,3.466659,44,104,497,498,-2.493244E-05,0.01159226,0.003250722,-0.7721511,2.983091,0.1711177,-0.0004840507,0.0001113933,0.006018334,-0.3457209,2.637818,2.605321
90,3.47777,44,104,497,498,0.001025571,0.007327571,0.003212514,-0.7721148,2.983145,0.1710469,0.002726454,0.005429001,0.005988356,-0.3455079,2.637966,2.605056
90,3.488881,44,104,497,498,0.003182475,-0.002286858,0.007422224,-0.771937,2.984087,0.1698708,0.001664699,0.00861957,0.00385553,-0.3453342,2.638,2.604993
90,3.499992,44,104,497,498,0.003163603,-0.005475014,0.006334155,-0.7718139,2.984119,0.1698095,0.003778677,0.006471592,0.0006602407,-0.3453608,2.638204,2.604688
90,3.511103,44,104,497,498,0.003151013,-0.01401341,0.007323936,-0.7713622,2.983826,0.1698548,0.004836896,0.008583326,-0.005732642,-0.3451979,2.638802,2.603916
90,3.522214,44,104,497,498,0.004155155,-0.02037044,0.001944253,-0.7710165,2.983594,0.1699459,0.006959393,0.007511908,-0.004669948,-0.3452309,2.638908,2.603859
90,3.533325,44,104,497,498,0.0009789653,-0.0225046,0.004056847,-0.7707945,2.983155,0.1701781,0.006966372,0.00752836,-0.001463227,-0.3449731,2.638429,2.60425
90,3.544436,44,104,497,498,0.001985073,-0.0278009,0.003012571,-0.7705505,2.984493,0.169638,0.004832568,0.01071306,-0.003585082,-0.344874,2.638336,2.604422
90,3.555547,44,104,497,498,0.004138492,-0.0256929,0.005142696,-0.7702959,2.984594,0.169482,0.00695728,0.008576602,-0.003584524,-0.3448591,2.6385,2.604133
90,3.566658,44,104,497,498,0.008435618,-0.02146766,0.007277701,-0.7700552,2.984854,0.1690409,0.006947797,0.002205093,0.0006905887,-0.3449305,2.638438,2.604225
90,3.577769,44,104,497,498,0.008439299,-0.02040239,0.007285314,-0.7698421,2.984926,0.1689035,0.01120438,-0.002060148,0.002822275,-0.3450061,2.63798,2.604436
90,3.58888,44,104,497,498,0.01062499,-0.01832273,0.01257541,-0.769653,2.984555,0.1688812,0.009067815,-0.002070306,-0.0003548003,-0.3450354,2.637724,2.60456
90,3.599991,44,104,497,498,0.01275715,-0.0151285,0.01151668,-0.7695257,2.984654,0.1686303,0.01224866,-0.0031504,-0.004628664,-0.3450919,2.638428,2.60368
90,3.611102,44,104,497,498,0.01169068,-0.01620176,0.01043636,-0.7690464,2.984345,0.1686148,0.0122379,-0.003161933,-0.007824518,-0.3452139,2.638878,2.603137
90,3.622213,44,104,497,498,0.01383626,-0.01193916,0.01260815,-0.7692312,2.98522,0.168006,0.01010212,-0.005279972,-0.005684786,-0.345331,2.638878,2.603159
90,3.633324,44,104,497,498,0.0128,-0.006618741,0.01371722,-0.7692349,2.985455,0.167679,0.01118323,-0.005267574,-0.002493212,-0.3452959,2.638798,2.603009
90,3.644435,44,104,497,498,0.01602892,0.002957756,0.01376235,-0.7694911,2.98576,0.1671917,0.01011165,-0.008462004,-0.0003452995,-0.3455398,2.638118,2.603636
90,3.655546,44,104,497,498,0.01927631,0.009301936,0.01804605,-0.7695987,2.986235,0.1665605,0.009033632,-0.01696981,0.002884958,-0.3458466,2.637153,2.604465
90,3.666657,44,104,497,498,0.01927988,0.01037681,0.0169954,-0.7697068,2.986647,0.1659602,0.01114201,-0.01593184,-0.002454824,-0.34609,2.637471,2.604091
90,3.677768,44,104,497,498,0.01500736,0.009333696,0.01595378,-0.7697675,2.986846,0.1657535,0.007917171,-0.009581228,-0.01631591,-0.3463185,2.639056,2.602607
90,3.688879,44,104,497,498,0.01175461,0.0072675,0.009587384,-0.769856,2.987131,0.1655447,0.002572142,0.002093044,-0.0312468,-0.3463872,2.640993,2.600905
90,3.69999,44,104,497,498,0.006342935,0.003092208,8.221017E-06,-0.7698091,2.986776,0.165883,0.003638508,0.003135375,-0.03443947,-0.3465907,2.641585,2.60015
90,3.711101,44,104,497,498,0.007390141,0.0009782966,-0.002158463,-0.769882,2.986416,0.1659554,0.007893771,0.0009929854,-0.03444606,-0.346841,2.642545,2.59905
90,3.722212,44,104,497,498,0.008443912,-8.28784E-05,-0.003240193,-0.7698698,2.986327,0.1658947,0.003647257,0.005268036,-0.03232094,-0.3469534,2.643593,2.598213
90,3.733323,44,104,497,498,0.01270501,-0.003302841,-0.003302057,-0.7696376,2.986073,0.1656694,0.005821241,0.01062011,-0.0227625,-0.3467681,2.64396,2.59781
90,3.744434,44,104,497,498,0.01378893,-0.006543059,-0.0001546531,-0.7692717,2.985754,0.1656454,0.006939313,0.005361208,-0.002507238,-0.3466296,2.642452,2.599124
90,3.755545,44,104,497,498,0.009475123,-0.01502775,-0.003380074,-0.7689078,2.985491,0.1658324,0.00375026,6.668922E-05,0.00391445,-0.3466211,2.641653,2.599911
90,3.766656,44,104,497,498,0.0105036,-0.02034515,-0.006622128,-0.7684392,2.985124,0.1658766,0.004796448,-0.002076636,0.001788356,-0.346751,2.641744,2.59984
90,3.777767,44,104,497,498,0.009411745,-0.02352203,-0.008767656,-0.7681089,2.984802,0.1660257,0.007986795,0.001094995,-0.002495058,-0.3467345,2.642309,2.599144
90,3.788878,44,104,497,498,0.007291512,-0.02243376,-0.006582122,-0.7682975,2.985492,0.1656396,0.003710036,3.786711E-05,-0.003559362,-0.3469098,2.643121,2.598597
90,3.799989,44,104,497,498,0.005201351,-0.01070863,-0.006482701,-0.7684945,2.985432,0.165671,0.004776334,0.003223653,-0.003576476,-0.34693,2.643239,2.598524
90,3.8111,44,104,497,498,0.007328413,-0.004313676,-0.008568888,-0.7685686,2.985522,0.165598,0.003738509,0.009648012,0.0006704796,-0.3464123,2.643531,2.59831
90,3.822211,44,104,497,498,0.009519557,0.004170587,-0.004262581,-0.7688227,2.985686,0.1653077,0.0005476605,0.01390787,-0.001466617,-0.3462717,2.644114,2.597836
90,3.833322,44,104,497,498,0.009545254,0.01268813,-0.005274046,-0.7690458,2.985433,0.1653322,0.004817476,0.006458758,0.002825187,-0.3461321,2.642924,2.598552
90,3.844433,44,104,497,498,0.00744825,0.02013044,-0.003059245,-0.7693063,2.985835,0.1651261,0.006909076,-0.009519442,0.005009424,-0.3465199,2.641672,2.599633
90,3.855544,44,104,497,498,0.01279707,0.02436573,-0.002002616,-0.769694,2.985948,0.1647666,0.01115912,-0.01485383,0.006079666,-0.346751,2.640978,2.600053
90,3.866655,44,104,497,498,0.01173973,0.02649507,0.0001684125,-0.7701516,2.986479,0.164512,0.013267,-0.00851611,-0.004593816,-0.3468975,2.641422,2.599521
90,3.877766,44,104,497,498,0.01277514,0.02010752,-0.0009503933,-0.7702293,2.986431,0.1643842,0.01008328,0.001064969,-0.008878886,-0.3467633,2.642334,2.598638
90,3.888877,44,104,497,498,0.009517705,0.01271792,-0.005258862,-0.7706341,2.985923,0.1648273,0.009029655,0.00533521,-0.006755826,-0.3466179,2.642487,2.598538
90,3.899988,44,104,497,498,0.007341029,-4.714075E-05,-0.004262184,-0.7705819,2.986037,0.1648816,0.004777984,-0.004201076,0.005008357,-0.3467372,2.641113,2.59996
90,3.911099,44,104,497,498,0.007328974,-0.007504612,-0.003280232,-0.7704818,2.985396,0.165181,0.003747777,-0.002040144,0.01139587,-0.3465033,2.640549,2.600358
90,3.92221,44,104,497,498,0.007340907,-0.008585181,-0.001157376,-0.7703454,2.985438,0.1650734,0.002669651,-0.004171706,0.01034096,-0.3465604,2.64024,2.600693
90,3.933321,44,104,497,498,0.009473163,-0.01180336,0.0009234915,-0.7701766,2.985289,0.1650547,0.005841375,-0.006340146,0.001810484,-0.3468134,2.640878,2.599784
90,3.944432,44,104,497,498,0.01269328,-0.01290318,0.006225481,-0.7701862,2.985767,0.1646345,0.009022688,-0.005306136,-0.002469591,-0.3470477,2.641232,2.599295
90,3.955544,44,104,497,498,0.01379637,-0.008670831,0.008357771,-0.7701116,2.985555,0.1644917,0.005824865,0.004279188,-0.007816498,-0.3467532,2.642339,2.598423
90,3.966655,44,104,497,498,0.009475597,-0.0171639,0.005120933,-0.7695854,2.985136,0.1649381,0.006882822,0.005333523,-0.007820282,-0.3468171,2.642338,2.598467
90,3.977766,44,104,497,498,0.01052668,-0.02356675,0.006132573,-0.769138,2.985157,0.1647863,0.001572362,0.008551811,-0.005683407,-0.3466583,2.642673,2.59829
90,3.988877,44,104,497,498,0.009482607,-0.01932316,0.00720427,-0.7689148,2.984632,0.1650926,-0.00160937,0.009649917,-0.00248237,-0.3463729,2.643004,2.598078
90,3.999988,44,104,497,498,0.01167734,-0.009773628,0.01151823,-0.7690096,2.984991,0.1646435,-0.001635813,-0.0009988581,-0.001378667,-0.3465864,2.642491,2.598568
90,4.011099,44,104,497,498,0.0160213,-0.0002585764,0.01685661,-0.7689851,2.984933,0.1642403,0.01005144,-0.005290273,-0.005662519,-0.3465897,2.643018,2.597721
89.66666,4.02221,44,104,497,498,0.0160892,0.01036343,0.02119388,-0.7693377,2.985513,0.1636342,0.01431569,-0.004231041,-0.004615352,-0.3465731,2.643094,2.597432
89.33333,4.033321,44,104,497,498,0.01717231,0.014616,0.02227685,-0.7695864,2.985835,0.1632406,0.01430644,0.005310284,-0.01741269,-0.3464314,2.644231,2.596108
88.99999,4.044433,44,104,497,498,0.01930608,0.007114313,0.02538572,-0.7692173,2.985879,0.1628342,0.007939145,0.01491126,-0.01634999,-0.3461662,2.644657,2.595896
88.66666,4.055544,44,104,497,498,0.02251799,0.004949211,0.02854178,-0.7691481,2.986425,0.1621002,0.006900228,0.0128182,-0.006751163,-0.3460144,2.644365,2.596114
88.33332,4.066655,44,104,497,498,0.02785183,0.0006475318,0.03058193,-0.7689356,2.986498,0.1615239,0.003692697,0.009646693,-0.003531638,-0.3459276,2.64431,2.596394
87.99998,4.077766,44,104,497,498,0.03104492,-0.004704937,0.03265072,-0.7686645,2.987064,0.1606882,0.01003762,0.006395541,-0.01312853,-0.3461609,2.645135,2.595422
87.66665,4.088878,44,104,497,498,0.03750208,-0.003712709,0.04006302,-0.7685813,2.98789,0.1594269,0.01851011,0.005277798,-0.02487487,-0.346286,2.647077,2.593261
87.33331,4.099989,44,104,497,498,0.04071733,-0.008018899,0.04640989,-0.768477,2.989062,0.1582472,0.02485443,0.008388907,-0.04301924,-0.3466695,2.649748,2.590244
86.99998,4.1111,44,104,497,498,0.04174207,-0.0101327,0.04425853,-0.7683092,2.989715,0.1575771,0.01847963,0.02647927,-0.05583703,-0.346318,2.653133,2.586891
86.66664,4.122211,44,104,497,498,0.04387576,-0.01441775,0.04633159,-0.7680056,2.990683,0.1565465,0.01314975,0.03286324,-0.06223338,-0.3462924,2.656073,2.584127
86.33331,4.133323,44,104,497,498,0.04387385,-0.01658008,0.04952706,-0.767491,2.991371,0.1555872,0.01742237,0.02117383,-0.05047948,-0.3464522,2.656283,2.583557
85.99997,4.144434,44,104,497,498,0.05033093,-0.01237342,0.05483618,-0.7674394,2.992441,0.1539201,0.01954188,0.01266172,-0.04512191,-0.3467042,2.65679,2.58289
85.66663,4.155545,44,104,497,498,0.05355558,-0.004939683,0.05592424,-0.7674357,2.993195,0.152777,0.02806609,0.009453695,-0.04194311,-0.3469374,2.657718,2.581491
85.3333,4.166656,44,104,497,498,0.05778866,-0.00489639,0.05489949,-0.7678043,2.995612,0.1505826,0.02911458,0.01582059,-0.0494402,-0.3470962,2.660782,2.5784
84.99996,4.177768,44,104,497,498,0.06100157,-0.01133702,0.06015646,-0.7673989,2.996703,0.1490353,0.02913916,0.02859251,-0.05268222,-0.3469087,2.6635,2.575524
84.66663,4.188879,44,104,497,498,0.06311528,-0.02307391,0.06328257,-0.7668301,2.99833,0.1471157,0.02813141,0.04033559,-0.04738798,-0.346384,2.665466,2.573302
84.33329,4.19999,44,104,497,498,0.06525975,-0.0327144,0.06958971,-0.7660956,2.999518,0.1454725,0.03139332,0.04039848,-0.02609475,-0.3459526,2.665428,2.572994
83.99995,4.211102,44,104,497,498,0.07702366,-0.03817639,0.07801595,-0.7648593,3.001396,0.1429473,0.03784237,0.04045008,-0.009076826,-0.3453774,2.665661,2.572181
83.66662,4.222213,44,104,497,498,0.08344688,-0.0403668,0.08327989,-0.7642111,3.002817,0.1408317,0.04318387,0.03938804,-0.003765248,-0.3450226,2.666187,2.571069
83.33328,4.233324,44,104,497,498,0.09637213,-0.04163051,0.1023561,-0.7632854,3.005095,0.1377105,0.06131089,0.04360351,-0.00384913,-0.3445646,2.667672,2.568456
82.99995,4.244435,44,104,497,498,0.1081884,-0.04497315,0.1171604,-0.7624822,3.00745,0.1344705,0.06025054,0.04998733,-0.0060014,-0.3440932,2.669195,2.566476
82.66661,4.255547,44,104,497,498,0.125423,-0.04200005,0.1426386,-0.7620736,3.011038,0.1301508,0.08052232,0.06802304,-0.01252687,-0.3431371,2.672243,2.562075
82.33327,4.266658,44,104,497,498,0.1501084,-0.04442777,0.1712447,-0.7609567,3.015503,0.1248586,0.1018322,0.08388558,-0.0275701,-0.3424862,2.676243,2.556458
81.99994,4.277769,44,104,497,498,0.1769722,-0.03619494,0.1988062,-0.7604161,3.019741,0.1190742,0.1188631,0.09444503,-0.04044931,-0.3418455,2.680525,2.550625
81.6666,4.28888,44,104,497,498,0.2080527,-0.03222078,0.2273994,-0.7600843,3.024929,0.1127817,0.1305721,0.09548008,-0.04263289,-0.3411765,2.684118,2.545576
81.33327,4.299992,44,104,497,498,0.2263104,-0.03242764,0.247506,-0.759362,3.029652,0.1063453,0.1391385,0.09550533,-0.02775134,-0.3403733,2.685723,2.542408
80.99993,4.311103,44,104,497,498,0.2552792,-0.03382167,0.2781872,-0.7584113,3.035337,0.09887838,0.1497638,0.0848231,-0.02882255,-0.3400058,2.688075,2.538209
80.6666,4.322214,44,104,497,498,0.2841958,-0.03412431,0.3035074,-0.7574579,3.040308,0.09188545,0.1571812,0.0815693,-0.03842527,-0.3397783,2.691153,2.533367
80.33326,4.333325,44,104,497,498,0.3153009,-0.02481825,0.3278497,-0.7570446,3.046535,0.08303523,0.1698135,0.06437032,-0.07036611,-0.3405789,2.695641,2.526863
79.99992,4.344437,44,104,497,498,0.3367383,-0.01112162,0.3438086,-0.7573551,3.053435,0.07420845,0.1760982,0.05573943,-0.09485957,-0.3412958,2.700513,2.520171
79.66659,4.355548,44,104,497,498,0.3743798,0.01298507,0.3809937,-0.7577998,3.061118,0.0634088,0.1983874,0.0683302,-0.1322622,-0.341773,2.708492,2.50973
79.33325,4.366659,44,104,497,498,0.3861867,0.0160645,0.3915829,-0.7577977,3.067901,0.05386403,0.2036901,0.07360002,-0.1440094,-0.3419499,2.714304,2.501865
78.99992,4.37777,44,104,497,498,0.4044001,0.01053266,0.4063053,-0.7570643,3.07451,0.0440082,0.1982858,0.08309089,-0.1749194,-0.342695,2.723054,2.491563
78.66658,4.388882,44,104,497,498,0.4161255,-0.007700122,0.4188879,-0.7563612,3.081902,0.0340075,0.1939837,0.1011295,-0.1994662,-0.3430609,2.732549,2.480723
78.33324,4.399993,44,104,497,498,0.4246521,-0.0109402,0.4209329,-0.7560299,3.088742,0.024108,0.1982266,0.1127867,-0.2133708,-0.3435004,2.741612,2.469922
77.99991,4.411104,44,104,497,498,0.4438715,-0.0004488602,0.4304102,-0.7559724,3.095028,0.0150426,0.195047,0.1202552,-0.2144558,-0.3437763,2.750097,2.459875
77.66657,4.422215,44,104,497,498,0.4503525,0.009091668,0.4357471,-0.7563846,3.102112,0.004556136,0.2025245,0.126629,-0.2134398,-0.3440644,2.758336,2.449706
77.33324,4.433327,44,104,497,498,0.4653755,0.02710438,0.4421588,-0.7571899,3.109533,-0.006448578,0.212143,0.1234659,-0.1996133,-0.3441672,2.765177,2.440683
76.9999,4.444438,44,104,497,498,0.4728498,0.03767303,0.4475137,-0.7576385,3.11688,-0.01646686,0.2089941,0.1267071,-0.188962,-0.3442114,2.772072,2.431945
76.66656,4.455549,44,104,497,498,0.4771325,0.04618832,0.4464784,-0.7584704,3.124016,-0.02705559,0.2089924,0.1373517,-0.1964516,-0.3441624,2.781307,2.421024
76.33323,4.46666,44,104,497,498,0.4824756,0.06214579,0.4454441,-0.7595698,3.130272,-0.0365684,0.2005195,0.1438102,-0.1879315,-0.3440644,2.789397,2.411303
75.99989,4.477772,44,104,497,498,0.481454,0.07920896,0.4434438,-0.7610829,3.137245,-0.04692703,0.2047911,0.1501826,-0.1900995,-0.3441561,2.797816,2.400987
75.66656,4.488883,44,104,497,498,0.4782478,0.09949172,0.4372309,-0.7627698,-3.1393,-0.0565943,0.1973406,0.1597931,-0.1922488,-0.3441443,2.807148,2.390321
75.33322,4.499994,44,104,497,498,0.4750428,0.1080632,0.4319894,-0.7644945,-3.132697,-0.06655879,0.1941847,0.1651552,-0.1848002,-0.3439632,2.815183,2.380683
74.99989,4.511106,44,104,497,498,0.4706708,0.1059893,0.4234386,-0.7656844,-3.127228,-0.0749765,0.1942201,0.1577596,-0.1698616,-0.3437811,2.8217,2.372303
74.66655,4.522217,44,104,497,498,0.4684816,0.1038657,0.4213232,-0.766951,-3.120565,-0.08456922,0.1889349,0.1524776,-0.1602249,-0.3436687,2.828275,2.363769
74.33321,4.533328,44,104,497,498,0.4694896,0.09857428,0.4159508,-0.768299,-3.114266,-0.09436432,0.1899895,0.1471541,-0.1591417,-0.3438247,2.83483,2.355515
73.99988,4.544439,44,104,497,498,0.4706028,0.1081468,0.4159881,-0.7700866,-3.10823,-0.104055,0.198515,0.1439371,-0.1559543,-0.3439718,2.841138,2.347191
73.66654,4.555551,44,104,497,498,0.4717355,0.1230414,0.4182183,-0.7723258,-3.101791,-0.1139513,0.2092161,0.1418344,-0.1400033,-0.3437619,2.846749,2.339301
73.33321,4.566662,44,104,497,498,0.470694,0.1294445,0.41828,-0.7745079,-3.095264,-0.1238391,0.2135821,0.1375844,-0.126189,-0.3440916,2.852696,2.330335
72.99987,4.577773,44,104,497,498,0.4696323,0.1305134,0.4182954,-0.7765671,-3.088918,-0.1335788,0.2082755,0.1344344,-0.1176372,-0.3439153,2.857938,2.323215
72.66653,4.588884,44,104,497,498,0.4739,0.1304847,0.4235892,-0.7788526,-3.082444,-0.1431518,0.2008676,0.1397574,-0.1197808,-0.3441028,2.864749,2.314271
72.3332,4.599996,44,104,497,498,0.4728351,0.1283502,0.4246469,-0.7809054,-3.07602,-0.152973,0.2061797,0.1397268,-0.1240598,-0.3441758,2.871182,2.305786
71.99986,4.611107,44,104,497,498,0.4717482,0.1305001,0.4224986,-0.7830594,-3.070609,-0.1617327,0.2146442,0.1396456,-0.1422141,-0.3448112,2.879458,2.295289
71.66653,4.622218,44,104,497,498,0.4621361,0.1273533,0.4193313,-0.7850392,-3.064796,-0.1707811,0.2082237,0.1406994,-0.1507182,-0.3451627,2.886764,2.286345
71.33319,4.633329,44,104,497,498,0.4513807,0.116773,0.4140028,-0.7867755,-3.058995,-0.1792531,0.2018193,0.1428527,-0.1538938,-0.3452447,2.894024,2.277539
70.99986,4.644441,44,104,497,498,0.4417129,0.1040461,0.4097013,-0.7882749,-3.053396,-0.187772,0.1900565,0.146025,-0.1698487,-0.3458887,2.902277,2.267939
70.66652,4.655552,44,104,497,498,0.424513,0.08181106,0.3990128,-0.789313,-3.047776,-0.1959304,0.187869,0.1449077,-0.1858169,-0.3467974,2.91058,2.258115
70.33318,4.666663,44,104,497,498,0.4147594,0.05849232,0.3882596,-0.7902313,-3.042291,-0.2040722,0.1909227,0.1341557,-0.2134664,-0.3482168,2.918736,2.248452
69.99985,4.677774,44,104,497,498,0.4050504,0.04154251,0.3796853,-0.7910488,-3.036806,-0.2121623,0.1866274,0.1436897,-0.2315968,-0.3494749,2.928662,2.237176
69.66651,4.688886,44,104,497,498,0.3964927,0.03628741,0.3743707,-0.7922829,-3.031504,-0.2203356,0.1803172,0.1682402,-0.2252518,-0.3494461,2.938274,2.226436
69.33318,4.699997,44,104,497,498,0.383589,0.02364254,0.3637097,-0.7932273,-3.026586,-0.2277434,0.1739757,0.1746846,-0.2156659,-0.3498627,2.946969,2.216513
68.99984,4.711108,44,104,497,498,0.3781476,0.01947913,0.3530804,-0.7942255,-3.021531,-0.2350905,0.1687032,0.1769022,-0.2007263,-0.3498776,2.954771,2.207487
68.6665,4.722219,44,104,497,498,0.3706423,0.01423814,0.3488303,-0.7954287,-3.016505,-0.2424941,0.1612955,0.1759351,-0.1815165,-0.3498478,2.961953,2.199267
68.33317,4.733331,44,104,497,498,0.3621214,0.02386967,0.3468405,-0.7968903,-3.011377,-0.2497257,0.1645082,0.1727547,-0.1751188,-0.3501812,2.969278,2.190421
67.99983,4.744442,44,104,497,498,0.355782,0.0398405,0.3480648,-0.7984423,-3.006426,-0.2568566,0.1687757,0.1695814,-0.1687389,-0.3505743,2.977013,2.181198
67.6665,4.755553,44,104,497,498,0.3558422,0.05260837,0.3502867,-0.80033,-3.00146,-0.2642575,0.1720026,0.1717298,-0.1613003,-0.3507484,2.984326,2.172329
67.33316,4.766665,44,104,497,498,0.3548044,0.06434954,0.3492798,-0.8023316,-2.997237,-0.2709692,0.1741019,0.1759641,-0.1687886,-0.3513562,2.992999,2.162406
66.99982,4.777776,44,104,497,498,0.3506036,0.07713208,0.3515328,-0.8045942,-2.992366,-0.2781682,0.1708359,0.1610285,-0.1772465,-0.3524294,2.999918,2.154103
66.66649,4.788887,44,104,497,498,0.3495596,0.08462392,0.3494631,-0.8068734,-2.98777,-0.2853066,0.1739469,0.1514077,-0.1900182,-0.3536412,3.00797,2.14466
66.33315,4.799998,44,104,497,498,0.3484752,0.08357764,0.3473327,-0.8088138,-2.983083,-0.2923714,0.1696365,0.1492431,-0.2027795,-0.3549642,3.015875,2.13548
65.99982,4.81111,44,104,497,498,0.3442447,0.08679404,0.3473779,-0.8109656,-2.978551,-0.2994053,0.1749711,0.1386172,-0.1931622,-0.3557259,3.021774,2.12783
65.66648,4.822221,44,104,497,498,0.3453611,0.09849915,0.3485163,-0.813437,-2.97401,-0.3064286,0.1856136,0.1279716,-0.184633,-0.3565712,3.027325,2.120384
65.33315,4.833332,44,104,497,498,0.3497158,0.1176339,0.3518175,-0.816376,-2.969516,-0.3135574,0.1866903,0.1216073,-0.1760914,-0.3574101,3.0328,2.113139
64.99981,4.844443,44,104,497,498,0.3486711,0.1261578,0.3518828,-0.8190509,-2.965171,-0.3202323,0.1909436,0.1194732,-0.1728891,-0.3582516,3.038232,2.106022
64.66647,4.855555,44,104,497,498,0.3507438,0.1230004,0.3454529,-0.8214792,-2.960961,-0.3270942,0.1781873,0.1333458,-0.176091,-0.3591012,3.045673,2.097373
64.33314,4.866666,44,104,497,498,0.3475007,0.1113221,0.3432381,-0.8235815,-2.956918,-0.3336302,0.1739256,0.1429153,-0.1835718,-0.360167,3.053287,2.088465
63.99981,4.877777,44,104,497,498,0.34318,0.09429266,0.343148,-0.8254026,-2.9523,-0.3404873,0.1738716,0.153481,-0.2081113,-0.3617846,3.062348,2.078103
63.66647,4.888888,44,104,497,498,0.3388814,0.08579843,0.3409776,-0.8273137,-2.947982,-0.3471271,0.1759726,0.1534633,-0.2155658,-0.363057,3.070106,2.068847
63.33314,4.9,44,104,497,498,0.3346261,0.07404962,0.347317,-0.8291236,-2.943082,-0.3540252,0.1834507,0.1598382,-0.2145485,-0.3642059,3.078093,2.059132
62.99981,4.911111,44,104,497,498,0.3336335,0.07610052,0.3569311,-0.8313276,-2.938063,-0.3610767,0.2048408,0.1588115,-0.1890234,-0.3642938,3.083743,2.051025
62.66648,4.922222,44,104,497,498,0.3359445,0.08768278,0.3750879,-0.8341383,-2.93312,-0.3682188,0.2145252,0.1684825,-0.1614148,-0.3644163,3.09102,2.041869
62.33315,4.933333,44,104,497,498,0.3381332,0.08653311,0.3857224,-0.8366693,-2.927742,-0.3754732,0.216717,0.1706499,-0.1486353,-0.3646011,3.097324,2.033371
61.99981,4.944445,44,104,497,498,0.3424624,0.08324862,0.3963171,-0.8391599,-2.922378,-0.3829919,0.2049444,0.1579068,-0.1496205,-0.3655519,3.10334,2.026012
61.66648,4.955556,44,104,497,498,0.3541519,0.07894374,0.3962024,-0.8415008,-2.917334,-0.3904157,0.1909883,0.1503976,-0.1751139,-0.3672664,3.110085,2.017981
61.33315,4.966667,44,104,497,498,0.3614379,0.05877375,0.3810664,-0.8453086,-2.908158,-0.4047451,0.1578129,0.1599153,-0.220858,-0.3710977,3.126353,2.000147
60.99982,4.977778,44,104,497,498,0.3614379,0.05877375,0.3810664,-0.8453086,-2.908158,-0.4047451,0.1578129,0.1599153,-0.220858,-0.3710977,3.126353,2.000147
60.66648,4.98889,44,104,497,498,0.3635086,0.05241305,0.3756686,-0.8472703,-2.903618,-0.4118296,0.151463,0.1897313,-0.2326623,-0.3724473,3.137134,1.988513
60.33315,5.000001,44,104,497,498,0.3602433,0.04607818,0.3692552,-0.8491585,-2.899014,-0.4187858,0.1536431,0.206774,-0.2316645,-0.3736809,-3.136288,1.977644
59.99982,5.011112,44,104,497,498,0.358166,0.06208134,0.3683314,-0.8520027,-2.894489,-0.4257212,0.1516456,0.2239082,-0.207216,-0.3740804,-3.12733,1.967586
59.66649,5.022223,44,104,497,498,0.3647273,0.09398644,0.3749101,-0.8582383,-2.885712,-0.4398163,0.1602349,0.188886,-0.1602318,-0.3750498,-3.116103,1.953486
59.33316,5.033335,44,104,497,498,0.3648256,0.11526,0.3793365,-0.861783,-2.881374,-0.4466249,0.1644418,0.1707747,-0.1559157,-0.3760703,-3.111083,1.94713
58.99982,5.044446,44,104,497,498,0.3648256,0.11526,0.3793365,-0.861783,-2.881374,-0.4466249,0.1644418,0.1707747,-0.1559157,-0.3760703,-3.111083,1.94713
58.66649,5.055557,44,104,497,498,0.3584771,0.1141714,0.3857673,-0.8648291,-2.876801,-0.453408,0.1643613,0.161131,-0.1718613,-0.3777294,-3.104982,1.93964
58.33316,5.066669,44,104,497,498,0.3478621,0.1184199,0.3890939,-0.870859,-2.867601,-0.4669177,0.1685205,0.1769699,-0.2102607,-0.3811543,-3.088791,1.921089
57.99983,5.07778,44,104,497,498,0.3478621,0.1184199,0.3890939,-0.870859,-2.867601,-0.4669177,0.1685205,0.1769699,-0.2102607,-0.3811543,-3.088791,1.921089
57.6665,5.088891,44,104,497,498,0.3414195,0.1185071,0.3816878,-0.8771734,-2.859543,-0.4796124,0.1824228,0.1801802,-0.1954079,-0.3835698,-3.075041,1.903977
57.33316,5.100002,44,104,497,498,0.3414195,0.1185071,0.3816878,-0.8771734,-2.859543,-0.4796124,0.1824228,0.1801802,-0.1954079,-0.3835698,-3.075041,1.903977
56.99983,5.111114,44,104,497,498,0.3391911,0.1089933,0.3709584,-0.8796213,-2.855987,-0.4857095,0.1601227,0.1718309,-0.1665346,-0.3839692,-3.069458,1.897661
56.6665,5.122225,44,104,497,498,0.3338003,0.09731393,0.3666425,-0.8820096,-2.851983,-0.4919237,0.1686693,0.1654446,-0.1558795,-0.3848246,-3.064296,1.890742
56.33317,5.133336,44,104,497,498,0.3271746,0.04839624,0.3556765,-0.8856422,-2.843418,-0.5047575,0.1675409,0.1600974,-0.1675698,-0.3874095,-3.051929,1.875653
55.99984,5.144447,44,104,497,498,0.3195994,0.0239401,0.3513042,-0.8871586,-2.838755,-0.511108,0.174996,0.1675122,-0.1740128,-0.388871,-3.045018,1.867096
55.6665,5.155559,44,104,497,498,0.3195994,0.0239401,0.3513042,-0.8871586,-2.838755,-0.511108,0.174996,0.1675122,-0.1740128,-0.388871,-3.045018,1.867096
55.33317,5.16667,44,104,497,498,0.318485,0.0100954,0.3512135,-0.8888577,-2.834207,-0.5174969,0.1835201,0.173885,-0.1698171,-0.3900897,-3.03869,1.859368
54.99984,5.177781,44,104,497,498,0.3162462,-0.01115793,0.346833,-0.8903704,-2.829487,-0.5239444,0.1856714,0.1802748,-0.1687813,-0.3912381,-3.03181,1.850857
54.66651,5.188892,44,104,497,498,0.3225598,-0.02822954,0.344525,-0.893065,-2.820398,-0.5369407,0.1760853,0.170739,-0.1591211,-0.3934645,-3.020668,1.837025
54.33318,5.200004,44,104,497,498,0.3268594,-0.02400623,0.3477196,-0.8949223,-2.815973,-0.5434484,0.1803762,0.1686303,-0.1474074,-0.3942336,-3.015583,1.830275
53.99984,5.211115,44,104,497,498,0.3268594,-0.02400623,0.3477196,-0.8949223,-2.815973,-0.5434484,0.1803762,0.1686303,-0.1474074,-0.3942336,-3.015583,1.830275
53.66651,5.222226,44,104,497,498,0.3366044,0.008973852,0.3521537,-0.9000739,-2.807841,-0.5563216,0.1559456,0.1783566,-0.1281953,-0.3957511,-3.002843,1.815782
53.33318,5.233337,44,104,497,498,0.3355636,0.0228186,0.3501333,-0.9023769,-2.803854,-0.5624367,0.15171,0.1688528,-0.1111008,-0.3960882,-2.997956,1.809739
52.99985,5.244449,44,104,497,498,0.3355636,0.0228186,0.3501333,-0.9023769,-2.803854,-0.5624367,0.15171,0.1688528,-0.1111008,-0.3960882,-2.997956,1.809739
52.66652,5.25556,44,104,497,498,0.3366391,0.02283026,0.3511792,-0.9047882,-2.80005,-0.5685268,0.140032,0.1604245,-0.09292086,-0.3962251,-2.993872,1.804728
52.33318,5.266671,44,104,497,498,0.3355488,0.02071774,0.3479734,-0.9068606,-2.796072,-0.5747799,0.1304115,0.1614928,-0.09716661,-0.3971748,-2.988594,1.798907
51.99985,5.277782,44,104,497,498,0.3344716,0.01966859,0.346911,-0.9091681,-2.792118,-0.5809126,0.1271612,0.1646339,-0.1152766,-0.3984558,-2.982709,1.792142
51.66652,5.288894,44,104,497,498,0.335541,0.02606899,0.344823,-0.9116767,-2.788348,-0.5869751,0.1292346,0.1667188,-0.1238195,-0.3996883,-2.977316,1.78608
51.33319,5.300005,44,104,497,498,0.3314967,0.07934815,0.3494657,-0.9183847,-2.782561,-0.5976501,0.1431704,0.1710421,-0.09726223,-0.4006257,-2.966678,1.773002
50.99986,5.311116,44,104,497,498,0.3314967,0.07934815,0.3494657,-0.9183847,-2.782561,-0.5976501,0.1431704,0.1710421,-0.09726223,-0.4006257,-2.966678,1.773002
50.66652,5.322227,44,104,497,498,0.3316066,0.1123821,0.3475634,-0.925204,-2.776912,-0.6085249,0.1368037,0.1785412,-0.09088866,-0.4018433,-2.955142,1.759651
50.33319,5.333339,44,104,497,498,0.3273393,0.1219816,0.3465927,-0.9284595,-2.774109,-0.6133111,0.1367656,0.1721249,-0.09511074,-0.402507,-2.950674,1.754104
49.99986,5.34445,44,104,497,498,0.3273393,0.1219816,0.3465927,-0.9284595,-2.774109,-0.6133111,0.1367656,0.1721249,-0.09511074,-0.402507,-2.950674,1.754104
49.66653,5.355561,44,104,497,498,0.3305756,0.1283377,0.3497792,-0.9351823,-2.768661,-0.6238593,0.1345225,0.1507619,-0.1088721,-0.4045736,-2.942583,1.743874
49.33319,5.366673,44,104,497,498,0.3327371,0.1336504,0.3508519,-0.9387238,-2.766056,-0.6291814,0.1419241,0.1379368,-0.1152449,-0.4057954,-2.939004,1.738829
48.99986,5.377784,44,104,497,498,0.33916,0.1432015,0.3540806,-0.9427468,-2.763305,-0.6344225,0.1472134,0.1272571,-0.116289,-0.4068692,-2.935931,1.734324
48.66653,5.388895,44,104,497,498,0.33916,0.1432015,0.3540806,-0.9427468,-2.763305,-0.6344225,0.1472134,0.1272571,-0.116289,-0.4068692,-2.935931,1.734324
48.3332,5.400006,44,104,497,498,0.3412361,0.132563,0.3518537,-0.9497024,-2.757795,-0.6452312,0.140822,0.1400261,-0.1237683,-0.4091585,-2.926554,1.722774
47.99987,5.411118,44,104,497,498,0.3412361,0.132563,0.3518537,-0.9497024,-2.757795,-0.6452312,0.140822,0.1400261,-0.1237683,-0.4091585,-2.926554,1.722774
47.66653,5.422229,44,104,497,498,0.3346032,0.06975158,0.3471831,-0.9542825,-2.750708,-0.6567387,0.1334332,0.1836614,-0.1377427,-0.4117332,-2.91293,1.707524
47.3332,5.43334,44,104,497,498,0.3346032,0.06975158,0.3471831,-0.9542825,-2.750708,-0.6567387,0.1334332,0.1836614,-0.1377427,-0.4117332,-2.91293,1.707524
46.99987,5.444451,44,104,497,498,0.3407908,0.01649271,0.3457095,-0.9587481,-2.742943,-0.6687815,0.1217099,0.176246,-0.1323499,-0.4140752,-2.903125,1.696159
46.66654,5.455563,44,104,497,498,0.3493074,0.01006161,0.3477281,-0.9611977,-2.739308,-0.674983,0.1175319,0.175283,-0.1067753,-0.4144166,-2.898051,1.690358
46.33321,5.466674,44,104,497,498,0.3600278,0.009972904,0.3572299,-0.9640249,-2.735637,-0.6812835,0.122899,0.1604448,-0.08224568,-0.414618,-2.894427,1.685608
45.99987,5.477785,44,104,497,498,0.3664308,0.01100203,0.3614767,-0.9670694,-2.731673,-0.6874753,0.125066,0.1540847,-0.0694444,-0.4148965,-2.890718,1.680678
45.66654,5.488896,44,104,497,498,0.3718243,0.00985422,0.3710127,-0.9699084,-2.72773,-0.6939665,0.1229378,0.143468,-0.06087598,-0.4152214,-2.887372,1.676319
45.33321,5.500008,44,104,497,498,0.3750132,-0.0008295625,0.3773385,-0.9729678,-2.723276,-0.7005488,0.127155,0.1370408,-0.06617747,-0.4157557,-2.884149,1.67195
44.99988,5.511119,44,104,497,498,0.3750063,-0.009353638,0.3804883,-0.9758046,-2.71906,-0.7070528,0.1345016,0.1326814,-0.08852586,-0.416732,-2.880552,1.667273
44.66655,5.52223,44,104,497,498,0.3771415,-0.01470983,0.3836311,-0.978374,-2.714858,-0.7136313,0.1365447,0.1304635,-0.1119621,-0.4184353,-2.876699,1.662186
44.33321,5.533341,44,104,497,498,0.3846287,-0.007285707,0.3868378,-0.9815592,-2.710964,-0.720017,0.1333209,0.1314982,-0.1183604,-0.4199251,-2.873105,1.657634
43.99988,5.544453,44,104,497,498,0.3921544,0.003310416,0.3900363,-0.9844971,-2.707365,-0.7266052,0.1429627,0.1219865,-0.09280672,-0.4203938,-2.869898,1.653026
43.66655,5.555564,44,104,497,498,0.3942997,0.01077927,0.3890105,-0.9877079,-2.703826,-0.7329211,0.1441135,0.1231197,-0.06936848,-0.4203528,-2.866885,1.648656
43.33322,5.566675,44,104,497,498,0.3942997,0.01077927,0.3890105,-0.9877079,-2.703826,-0.7329211,0.1441135,0.1231197,-0.06936848,-0.4203528,-2.866885,1.648656
42.99989,5.577786,44,104,497,498,0.396518,0.02138812,0.395446,-0.9911151,-2.700414,-0.7392467,0.1420369,0.1253046,-0.05551989,-0.4204668,-2.863297,1.643857
42.66655,5.588898,44,104,497,498,0.4008028,0.01815274,0.3996598,-0.9943727,-2.696458,-0.7460303,0.129291,0.1285731,-0.0448492,-0.4207688,-2.859385,1.639353
42.33322,5.600009,44,104,497,498,0.4210577,-0.01611846,0.4184512,-1.000392,-2.687246,-0.7606958,0.1228093,0.1157473,-0.05862492,-0.4221606,-2.853397,1.631452
41.99989,5.61112,44,104,497,498,0.4221641,-0.0204144,0.4258503,-1.003566,-2.683177,-0.7674953,0.1249153,0.1061543,-0.05859837,-0.4227587,-2.851005,1.627838
41.66656,5.622231,44,104,497,498,0.4286172,-0.01408206,0.4311739,-1.006983,-2.678984,-0.7746656,0.132388,0.0976505,-0.04794139,-0.4229755,-2.848845,1.624207
41.33323,5.633343,44,104,497,498,0.4362027,0.001840577,0.4365401,-1.010763,-2.675325,-0.7819893,0.1388276,0.1083,-0.04055054,-0.4232173,-2.84557,1.619601
40.99989,5.644454,44,104,497,498,0.4437793,0.02953215,0.4387625,-1.01484,-2.672711,-0.7884341,0.1356191,0.1136084,-0.04801519,-0.4238698,-2.842016,1.614935
40.66656,5.655565,44,104,497,498,0.4502862,0.05826759,0.4410604,-1.019557,-2.669658,-0.7952237,0.1260063,0.1072431,-0.04795607,-0.4243337,-2.839475,1.61161
40.33323,5.666677,44,104,497,498,0.4697452,0.1241975,0.4477559,-1.025245,-2.668101,-0.8017926,0.1344808,0.08486406,-0.04366311,-0.4249276,-2.838563,1.609142
39.9999,5.677788,44,104,497,498,0.4806884,0.1837767,0.4566268,-1.031913,-2.666786,-0.8083552,0.1291402,0.07318151,-0.03507762,-0.4250149,-2.837569,1.607121
39.66656,5.688899,44,104,497,498,0.5015539,0.3306423,0.4702742,-1.041189,-2.668598,-0.8137363,0.1217044,0.0657866,-0.02331104,-0.4250038,-2.836138,1.604682
39.33323,5.70001,44,104,497,498,0.4966559,0.4285837,0.4827081,-1.050263,-2.670158,-0.8183516,0.1303484,0.0828393,-0.00206586,-0.4240828,-2.834466,1.601503
38.9999,5.711122,44,104,497,498,0.4957007,0.456339,0.4881924,-1.05842,-2.671197,-0.82292,0.1250329,0.1009561,-0.007469859,-0.4246922,-2.83022,1.596585
38.66657,5.722233,44,104,497,498,0.4936268,0.4755958,0.4871948,-1.066274,-2.672754,-0.8274601,0.1281288,0.08491018,-0.02341329,-0.4255231,-2.828882,1.593918
38.33324,5.733344,44,104,497,498,0.4936268,0.4755958,0.4871948,-1.066274,-2.672754,-0.8274601,0.1281288,0.08491018,-0.02341329,-0.4255231,-2.828882,1.593918
37.9999,5.744455,44,104,497,498,0.4914844,0.4948311,0.4788401,-1.081827,-2.674192,-0.8375567,0.1417885,0.04111408,-0.04460782,-0.4269212,-2.829044,1.590743
37.66657,5.755567,44,104,497,498,0.5031844,0.4852341,0.4818346,-1.089302,-2.674877,-0.842964,0.1396163,0.03680654,-0.05628667,-0.4276568,-2.828511,1.588644
37.33324,5.766678,44,104,497,498,0.5180303,0.4692618,0.4783536,-1.096301,-2.675668,-0.8486978,0.15027,0.04209179,-0.05954606,-0.4284691,-2.82704,1.585419
36.99991,5.777789,44,104,497,498,0.5285317,0.433001,0.4780502,-1.10289,-2.674867,-0.8549354,0.166313,0.04952905,-0.05002622,-0.4285846,-2.825708,1.581846
36.66658,5.7889,44,104,497,498,0.5326536,0.3839633,0.4797987,-1.10873,-2.673506,-0.8616573,0.1727167,0.05060332,-0.04366975,-0.4290278,-2.824242,1.578677
36.33324,5.800012,44,104,497,498,0.5386964,0.2837957,0.480147,-1.113014,-2.669995,-0.8692297,0.1737735,0.03996702,-0.03830839,-0.4293074,-2.823764,1.576272
35.99991,5.811123,44,104,497,498,0.5362533,0.1879365,0.4805457,-1.116805,-2.66625,-0.876768,0.1822861,0.01870143,-0.02229492,-0.4293633,-2.824475,1.574843
35.66658,5.822234,44,104,497,498,0.5380788,0.1155416,0.4725852,-1.120206,-2.66214,-0.8845572,0.1865575,0.008076206,-0.01161836,-0.4291892,-2.824984,1.573127
35.33325,5.833345,44,104,497,498,0.5420114,0.04522765,0.4720718,-1.123373,-2.657718,-0.8915187,0.1929494,0.01867273,-0.01379718,-0.4292808,-2.824725,1.570876
34.99992,5.844457,44,104,497,498,0.5513359,-0.02501406,0.4682803,-1.126114,-2.653371,-0.8995429,0.1844407,0.05590537,-0.03522301,-0.4304068,-2.820864,1.565665
34.66658,5.855568,44,104,497,498,0.5563999,-0.06123565,0.4605577,-1.128739,-2.648335,-0.9070567,0.1780664,0.06442308,-0.03841169,-0.4307242,-2.818997,1.562074
34.33325,5.866679,44,104,497,498,0.5583553,-0.1016794,0.4538667,-1.131125,-2.643246,-0.915517,0.1695758,0.09316984,-0.04914605,-0.4316611,-2.814871,1.556756
33.99992,5.87779,44,104,497,498,0.5582018,-0.1357336,0.449394,-1.133798,-2.637901,-0.9239497,0.1557376,0.1091552,-0.05874366,-0.4325709,-2.810899,1.551725
33.66659,5.888902,44,104,497,498,0.5624161,-0.152813,0.4492396,-1.136404,-2.632659,-0.9326848,0.1557351,0.1304099,-0.07373989,-0.433879,-2.806019,1.545616
33.33326,5.900013,44,104,497,498,0.559182,-0.1570418,0.4460391,-1.139188,-2.627826,-0.9408367,0.1503712,0.1261659,-0.07475449,-0.4345176,-2.802948,1.541601
32.99992,5.911124,44,104,497,498,0.5570294,-0.1484722,0.4375732,-1.141879,-2.623535,-0.9489152,0.1589217,0.1303899,-0.07265425,-0.4350961,-2.800129,1.536944
32.66659,5.922235,44,104,497,498,0.550629,-0.1324144,0.4292059,-1.144966,-2.619716,-0.9564275,0.1514322,0.1293127,-0.08114664,-0.4362833,-2.796887,1.532539
32.33326,5.933347,44,104,497,498,0.5452884,-0.1120734,0.4176583,-1.148059,-2.616293,-0.9637948,0.1555984,0.1239151,-0.1003381,-0.4382844,-2.793713,1.527993
31.99993,5.944458,44,104,497,498,0.5443003,-0.09183685,0.4188668,-1.151638,-2.612954,-0.9711419,0.1427737,0.1110897,-0.1151208,-0.4394434,-2.792323,1.524973
31.66659,5.955569,44,104,497,498,0.5476213,-0.04921228,0.4170275,-1.156046,-2.610473,-0.9783484,0.1374163,0.1004466,-0.1161286,-0.4407702,-2.79039,1.521832
31.33326,5.966681,44,104,497,498,0.5530769,-0.006609427,0.414074,-1.160289,-2.608578,-0.9854905,0.1427557,0.08131045,-0.1086207,-0.4418317,-2.788627,1.517992
30.99992,5.977792,44,104,497,498,0.5564522,0.03918456,0.4164812,-1.165087,-2.607267,-0.992355,0.1373869,0.05896878,-0.1042587,-0.442881,-2.788592,1.516594
30.66659,5.988903,44,104,497,498,0.5459059,0.08186409,0.4093878,-1.169734,-2.606215,-0.9987738,0.1566169,0.06536531,-0.08624232,-0.4434115,-2.786835,1.51308
30.33326,6.000014,44,104,497,498,0.5342195,0.09576617,0.4074372,-1.174278,-2.604925,-1.0049,0.1630646,0.0887813,-0.08741606,-0.4444928,-2.783295,1.507891
29.99992,6.011126,44,104,497,498,0.5118263,0.09691403,0.403365,-1.17855,-2.603061,-1.010857,0.1673623,0.1025856,-0.08958382,-0.4452512,-2.780594,1.503458
29.66659,6.022237,44,104,497,498,0.5064361,0.08523549,0.4001306,-1.182593,-2.601161,-1.017046,0.1705054,0.08869414,-0.09594213,-0.4465945,-2.779745,1.500678
29.33325,6.033348,44,104,497,498,0.5042045,0.06611773,0.3925642,-1.18635,-2.598992,-1.023724,0.176892,0.07906853,-0.09589541,-0.4472731,-2.778993,1.497658
28.99992,6.044459,44,104,497,498,0.5062707,0.06082533,0.386138,-1.190302,-2.597028,-1.030227,0.175723,0.05022617,-0.108527,-0.4482633,-2.780488,1.496959
28.66659,6.055571,44,104,497,498,0.5072758,0.06193844,0.3776101,-1.194063,-2.595522,-1.036453,0.1724565,0.02997388,-0.1137656,-0.4496321,-2.781158,1.495709
28.33325,6.066682,44,104,497,498,0.5060668,0.05246965,0.3615741,-1.197358,-2.5939,-1.042769,0.171382,0.02783069,-0.1137682,-0.4510883,-2.781133,1.493879
27.99992,6.077793,44,104,497,498,0.4996185,0.0568164,0.352063,-1.200921,-2.592587,-1.048658,0.1649416,0.01610921,-0.1190287,-0.452544,-2.781558,1.492541
27.66658,6.088904,44,104,497,498,0.4996185,0.0568164,0.352063,-1.200921,-2.592587,-1.048658,0.1649416,0.01610921,-0.1190287,-0.452544,-2.781558,1.492541
27.33325,6.100016,44,104,497,498,0.5005278,0.04305084,0.3381156,-1.207476,-2.589626,-1.060666,0.1511621,0.02468382,-0.1019512,-0.4541212,-2.781618,1.489661
26.99992,6.111127,44,104,497,498,0.5111567,0.02700287,0.3421947,-1.210864,-2.587415,-1.067424,0.1363332,0.03330073,-0.08489468,-0.4547752,-2.780547,1.487488
26.66658,6.122238,44,104,497,498,0.5250607,0.01301499,0.3558473,-1.214528,-2.584982,-1.074493,0.130034,0.04404344,-0.06573875,-0.4550746,-2.778804,1.484629
26.33325,6.133349,44,104,497,498,0.5346966,0.008659106,0.3642623,-1.218183,-2.582824,-1.0814,0.1279353,0.04939456,-0.05403567,-0.4554442,-2.778144,1.48294
25.99991,6.144461,44,104,497,498,0.5336344,-0.01057111,0.3726638,-1.22169,-2.580069,-1.088315,0.1183437,0.04516694,-0.05185668,-0.4560216,-2.777379,1.481231
25.66658,6.155572,44,104,497,498,0.5303707,-0.02547505,0.3715303,-1.225021,-2.577342,-1.094976,0.126827,0.03547196,-0.05925318,-0.4561675,-2.778733,1.480636
25.33325,6.166683,44,104,497,498,0.5239362,-0.05213233,0.3777963,-1.228359,-2.57397,-1.101861,0.1406949,0.02686253,-0.06458777,-0.4569713,-2.77947,1.478559
24.99991,6.177794,44,104,497,498,0.5228245,-0.07130491,0.3787584,-1.231771,-2.57073,-1.108883,0.1556719,0.03963833,-0.05616456,-0.4574693,-2.777889,1.475062
24.66658,6.188906,44,104,497,498,0.5239328,-0.06277503,0.3788079,-1.235409,-2.568411,-1.115656,0.1535038,0.03213273,-0.06143924,-0.45811,-2.778626,1.474154
24.33324,6.200017,44,104,497,498,0.5272025,-0.04575577,0.381028,-1.239233,-2.566358,-1.122254,0.1578298,0.03538246,-0.04442103,-0.4581819,-2.777558,1.471318
23.99991,6.211128,44,104,497,498,0.5305204,-0.005290786,0.3802071,-1.243348,-2.565313,-1.128476,0.1556919,0.02897489,-0.03797895,-0.458199,-2.778597,1.470794
23.66658,6.222239,44,104,497,498,0.5274819,0.05228006,0.3752874,-1.247901,-2.565503,-1.134194,0.1588361,0.001297489,-0.03042509,-0.4582842,-2.780346,1.470549
23.33324,6.233351,44,104,497,498,0.5233083,0.07999822,0.3744281,-1.252182,-2.565112,-1.140003,0.1694506,0.001176193,-0.04324443,-0.4591295,-2.781646,1.469471
22.99991,6.244462,44,104,497,498,0.5233083,0.07999822,0.3744281,-1.252182,-2.565112,-1.140003,0.1694506,0.001176193,-0.04324443,-0.4591295,-2.781646,1.469471
22.66657,6.255573,44,104,497,498,0.5064131,0.1429389,0.3675306,-1.261367,-2.565724,-1.150567,0.1725108,0.000998348,-0.07626905,-0.4613564,-2.783315,1.467552
22.33324,6.266685,44,104,497,498,0.4937139,0.1749543,0.3667922,-1.266367,-2.566524,-1.155335,0.1682256,-0.008644894,-0.08472795,-0.4623029,-2.785162,1.466985
21.99991,6.277796,44,104,497,498,0.4820462,0.2091431,0.3585792,-1.271058,-2.567994,-1.159859,0.1768152,0.01053773,-0.07738561,-0.4631519,-2.783888,1.463834
21.66657,6.288907,44,104,497,498,0.4756658,0.2241161,0.3534032,-1.275712,-2.569117,-1.164708,0.1693718,0.01906876,-0.08059004,-0.4641549,-2.783146,1.461474
21.33324,6.300018,44,104,497,498,0.458546,0.2424013,0.3344806,-1.279888,-2.570737,-1.16893,0.1640703,0.03291613,-0.08488723,-0.4652265,-2.781629,1.458418
20.9999,6.31113,44,104,497,498,0.4531354,0.2499813,0.3185757,-1.283762,-2.572317,-1.173483,0.161876,0.0201059,-0.09335326,-0.4664489,-2.782294,1.457278
20.66657,6.322241,44,104,497,498,0.4391354,0.2426845,0.3015851,-1.287417,-2.573567,-1.17766,0.1671576,0.01154396,-0.09972946,-0.4677214,-2.782866,1.455787
20.33324,6.333352,44,104,497,498,0.4391354,0.2426845,0.3015851,-1.287417,-2.573567,-1.17766,0.1671576,0.01154396,-0.09972946,-0.4677214,-2.782866,1.455787
19.9999,6.344463,44,104,497,498,0.4240109,0.2343621,0.2771458,-1.294547,-2.575984,-1.18608,0.1490297,-0.009769812,-0.102848,-0.470914,-2.786267,1.455181
19.66657,6.355575,44,104,497,498,0.4218076,0.2322995,0.2697036,-1.298298,-2.577348,-1.190247,0.1436767,-0.0214645,-0.1006551,-0.4719031,-2.787651,1.454956
19.33323,6.366686,44,104,497,498,0.4207202,0.238735,0.264435,-1.302033,-2.578988,-1.194404,0.1404972,-0.03852881,-0.09314715,-0.4730216,-2.791466,1.456293
18.9999,6.377797,44,104,497,498,0.4196467,0.244083,0.2602073,-1.305538,-2.580647,-1.198621,0.1394016,-0.04174598,-0.09952311,-0.47422,-2.792992,1.456125
18.66657,6.388908,44,104,497,498,0.4142684,0.2462873,0.2517394,-1.308927,-2.582318,-1.202695,0.1383117,-0.05138829,-0.1069577,-0.4757668,-2.795977,1.456901
18.33323,6.40002,44,104,497,498,0.4045875,0.2293026,0.2463678,-1.311993,-2.583278,-1.206703,0.1340428,-0.0397066,-0.1197722,-0.4773967,-2.796709,1.456163
17.9999,6.411131,44,104,497,498,0.3884383,0.199589,0.2367185,-1.314872,-2.583633,-1.210603,0.1233438,-0.0418577,-0.1335908,-0.4793349,-2.798374,1.456463
17.66656,6.422242,44,104,497,498,0.3797831,0.167681,0.2333743,-1.317531,-2.583716,-1.214563,0.1159483,-0.02481578,-0.1336554,-0.4810825,-2.799112,1.45576
17.33323,6.433353,44,104,497,498,0.3719274,0.1434788,0.1906684,-1.318838,-2.58443,-1.218396,0.1128644,-0.01519047,-0.126224,-0.4823091,-2.799284,1.45385
16.9999,6.444465,44,104,497,498,0.3761112,0.0687321,0.2146457,-1.321302,-2.582294,-1.223181,0.1043542,-0.01725513,-0.1187859,-0.4841366,-2.800156,1.453695
16.66656,6.455576,44,104,497,498,0.3866858,0.03348975,0.2207084,-1.323437,-2.580846,-1.228084,0.09694217,-0.01399718,-0.1081203,-0.4850516,-2.800563,1.453187
16.33323,6.466687,44,104,497,498,0.401453,-0.003822127,0.2182243,-1.325341,-2.579149,-1.233317,0.0852313,-0.02676311,-0.1059202,-0.4863816,-2.802923,1.454037
15.9999,6.477798,44,104,497,498,0.4120432,-0.02197793,0.2180065,-1.327131,-2.577704,-1.238503,0.08636343,-0.01501195,-0.0963806,-0.4872125,-2.802853,1.452964
15.66656,6.48891,44,104,497,498,0.4322734,-0.03913338,0.2241374,-1.329382,-2.575916,-1.244331,0.08424104,-0.01927724,-0.08676234,-0.4878384,-2.805013,1.454207
15.33323,6.500021,44,104,497,498,0.4526083,-0.04358177,0.2388716,-1.332001,-2.574194,-1.250292,0.07788061,-0.01709889,-0.07929227,-0.4884973,-2.805351,1.453815
14.9999,6.511132,44,104,497,498,0.481612,-0.0355489,0.2559091,-1.335412,-2.569666,-1.259397,0.06949495,-0.006339632,-0.0686966,-0.4896957,-2.804047,1.451038
14.66656,6.522243,44,104,497,498,0.4957086,-0.006969634,0.2751876,-1.339098,-2.569142,-1.265441,0.0652979,-0.006254233,-0.0495073,-0.4897303,-2.804245,1.450606
14.33323,6.533355,44,104,497,498,0.5120397,0.03858363,0.2945678,-1.343075,-2.568951,-1.272216,0.05783579,-0.003071539,-0.05160166,-0.4900137,-2.8049,1.450842
13.9999,6.544466,44,104,497,498,0.5260465,0.06938393,0.3010651,-1.34691,-2.569447,-1.278346,0.06534015,0.001215599,-0.04528887,-0.4909218,-2.804254,1.449086
13.66656,6.555577,44,104,497,498,0.5486801,0.1097298,0.3107392,-1.351084,-2.570899,-1.285248,0.06957761,0.00860782,-0.05917972,-0.4919812,-2.803967,1.447967
13.33323,6.566689,44,104,497,498,0.5691385,0.1436498,0.3225341,-1.355427,-2.572061,-1.291942,0.07276016,0.01709279,-0.0730918,-0.4935072,-2.802813,1.445938
12.9999,6.5778,44,104,497,498,0.5874506,0.1722874,0.3321413,-1.35963,-2.573797,-1.298779,0.0749568,0.05113599,-0.08387859,-0.4949006,-2.800066,1.442615
12.66657,6.588911,44,104,497,498,0.603609,0.1955795,0.3449641,-1.364432,-2.575428,-1.305609,0.05901124,0.07774721,-0.1031059,-0.4967328,-2.797216,1.439589
12.33323,6.600022,44,104,497,498,0.6336505,0.2391102,0.3524735,-1.369183,-2.578148,-1.312792,0.0706473,0.06806549,-0.1190887,-0.4985539,-2.79665,1.437982
11.9999,6.611134,44,104,497,498,0.6475783,0.2528522,0.3588615,-1.3739,-2.57995,-1.319659,0.07695801,0.04996938,-0.1211887,-0.5001811,-2.796115,1.436741
11.66657,6.622245,44,104,497,498,0.6636391,0.2644768,0.3641485,-1.378737,-2.582099,-1.327002,0.07901096,0.03819826,-0.1339364,-0.501991,-2.796324,1.435984
11.33323,6.633356,44,104,497,498,0.6838511,0.2654642,0.3672102,-1.383442,-2.583984,-1.333994,0.09069893,0.01908892,-0.1190003,-0.5029859,-2.796079,1.434753
10.9999,6.644467,44,104,497,498,0.6998299,0.2675448,0.3660414,-1.388079,-2.586039,-1.341861,0.1002496,0.01055659,-0.1200828,-0.504554,-2.796223,1.433601
10.66657,6.655579,44,104,497,498,0.7114428,0.2441037,0.3657805,-1.392353,-2.587409,-1.349472,0.1066036,0.006250009,-0.1275461,-0.5061471,-2.796878,1.432853
10.33323,6.66669,44,104,497,498,0.7176827,0.2207244,0.3602529,-1.39666,-2.588687,-1.357042,0.1161325,0.0008664429,-0.142472,-0.5080742,-2.797065,1.431368
9.999902,6.677801,44,104,497,498,0.7324628,0.1919183,0.3578132,-1.400682,-2.589211,-1.365259,0.1193903,0.0147288,-0.1361411,-0.5094894,-2.796387,1.429358
9.666569,6.688912,44,104,497,498,0.7429563,0.1653112,0.3522196,-1.404555,-2.589823,-1.373315,0.1376053,0.02435964,-0.1192014,-0.5105914,-2.794896,1.425779
9.333236,6.700024,44,104,497,498,0.7523096,0.1238112,0.3401518,-1.40795,-2.589353,-1.381992,0.1185861,0.0670612,-0.1097022,-0.5118819,-2.791456,1.421957
8.999903,6.711135,44,104,497,498,0.7659035,0.08870842,0.3259608,-1.411062,-2.588892,-1.390544,0.1057904,0.05328897,-0.1032445,-0.5133408,-2.790911,1.42056
8.66657,6.722246,44,104,497,498,0.7762738,0.06221207,0.3001374,-1.413718,-2.588423,-1.399611,0.09726736,0.05227607,-0.0989648,-0.5146463,-2.789896,1.418885
8.333237,6.733357,44,104,497,498,0.7813138,0.06134515,0.2681655,-1.41614,-2.588639,-1.407738,0.08344461,0.06506149,-0.1096164,-0.5162772,-2.788184,1.41644
7.999903,6.744469,44,104,497,498,0.7768399,0.04339584,0.2499743,-1.418662,-2.588463,-1.416054,0.08978512,0.06499215,-0.1330756,-0.5185228,-2.78666,1.413486
7.66657,6.75558,44,104,497,498,0.7703356,0.03713164,0.2361116,-1.420917,-2.588533,-1.424535,0.0896548,0.05635856,-0.163938,-0.5211828,-2.786783,1.412601
7.333236,6.766691,44,104,497,498,0.7626147,0.02885053,0.2041519,-1.422364,-2.588425,-1.432853,0.08846562,0.03502662,-0.1830393,-0.523749,-2.78674,1.411524
6.999903,6.777802,44,104,497,498,0.7603327,0.03863606,0.1775874,-1.423756,-2.589027,-1.441205,0.09157515,0.01899582,-0.1947106,-0.5261458,-2.787919,1.411445
6.666569,6.788914,44,104,497,498,0.7528312,0.04725248,0.1681244,-1.425573,-2.589557,-1.449291,0.1107411,0.02005555,-0.1926392,-0.5280595,-2.786891,1.409053
6.333236,6.800025,44,104,497,498,0.7410576,0.06766056,0.1502179,-1.426775,-2.590877,-1.457061,0.1160522,0.01471372,-0.1926382,-0.5301981,-2.787575,1.408255
5.999902,6.811136,44,104,497,498,0.7250683,0.09338487,0.1366464,-1.42803,-2.59255,-1.464453,0.1181917,0.02320904,-0.1979914,-0.5324298,-2.787174,1.406508
5.666569,6.822248,44,104,497,498,0.7016136,0.1255396,0.119974,-1.42899,-2.594715,-1.47121,0.1246158,0.03065911,-0.1948445,-0.5345577,-2.786747,1.404582
5.333235,6.833359,44,104,497,498,0.6738067,0.1460297,0.09686956,-1.42959,-2.596734,-1.477629,0.1385673,0.04561166,-0.1821602,-0.536358,-2.784806,1.400723
4.999902,6.84447,44,104,497,498,0.6545911,0.1792621,0.07592785,-1.430141,-2.599595,-1.484,0.1546635,0.05950065,-0.1662706,-0.537844,-2.782608,1.396439
4.666568,6.855581,44,104,497,498,0.6193719,0.1997992,0.05715951,-1.430759,-2.60267,-1.489717,0.1760471,0.06376977,-0.1471837,-0.5391032,-2.781279,1.392783
4.333235,6.866693,44,104,497,498,0.5808738,0.2000566,0.03721963,-1.431009,-2.604705,-1.494849,0.1888262,0.05313413,-0.1461076,-0.540643,-2.780082,1.389017
3.999902,6.877804,44,104,497,498,0.5561793,0.1917588,0.01602463,-1.430627,-2.606621,-1.50003,0.2143355,0.03282061,-0.1461218,-0.5421589,-2.781088,1.386788
3.666568,6.888915,44,104,497,498,0.5485903,0.185478,0.002171814,-1.430301,-2.608536,-1.505641,0.2173972,0.02205828,-0.1769812,-0.5448449,-2.781645,1.384772
3.333235,6.900026,44,104,497,498,0.5378345,0.1920216,-0.01475124,-1.429854,-2.610944,-1.511037,0.2194082,0.001746595,-0.1950253,-0.5473489,-2.783508,1.383893
2.999902,6.911138,44,104,497,498,0.5314772,0.1973536,-0.01253141,-1.430013,-2.613283,-1.516488,0.2342161,-0.02811277,-0.2024256,-0.5495534,-2.785331,1.382409
2.666569,6.922249,44,104,497,498,0.5293927,0.1812884,0.001225471,-1.430473,-2.614826,-1.522062,0.2405752,-0.04091066,-0.201336,-0.5515683,-2.787578,1.381484
2.333235,6.93336,44,104,497,498,0.5316272,0.1982511,0.008776158,-1.430808,-2.617212,-1.527514,0.2447792,-0.05902955,-0.2055373,-0.5536009,-2.789798,1.38041
1.999902,6.944471,44,104,497,498,0.5242468,0.2088939,0.01422855,-1.431213,-2.619799,-1.53277,0.2468363,-0.0654752,-0.2204358,-0.5561756,-2.792218,1.379729
1.666569,6.955583,44,104,497,498,0.5147941,0.2248046,0.027191,-1.431943,-2.622516,-1.537605,0.2275834,-0.05916867,-0.2544685,-0.5595728,-2.794602,1.379408
1.333235,6.966694,44,104,497,498,0.5147941,0.2248046,0.027191,-1.431943,-2.622516,-1.537605,0.2275834,-0.05916867,-0.2544685,-0.5595728,-2.794602,1.379408
0.9999018,6.977805,44,104,497,498,0.4883907,0.2535583,0.04570211,-1.433719,-2.628911,-1.547061,0.186137,-0.03555927,-0.2437667,-0.5648288,-2.796579,1.377809
0.6665685,6.988916,44,104,497,498,0.4863557,0.2652323,0.0532535,-1.434568,-2.632164,-1.551988,0.1872802,-0.03756782,-0.2171279,-0.5663484,-2.797522,1.376517
0.3332352,7.000028,44,104,497,498,0.4811696,0.2704766,0.06929897,-1.435712,-2.635371,-1.556814,0.18626,-0.03964132,-0.2022026,-0.5681008,-2.799102,1.375818
-9.816699E-05,7.011139,44,104,497,498,0.4727429,0.2703963,0.08217908,-1.43733,-2.638079,-1.561469,0.186317,-0.03642234,-0.1894294,-0.5697988,-2.800831,1.375111
-9.816699E-05,7.02225,44,104,497,498,0.4719051,0.261643,0.1172588,-1.439387,-2.640763,-1.566331,0.193842,-0.02787459,-0.1767027,-0.5713295,-2.801576,1.373358
-9.816699E-05,7.033361,44,104,497,498,0.4698465,0.2551799,0.1289406,-1.441,-2.643476,-1.571236,0.2002581,-0.02574277,-0.171406,-0.5730095,-2.802613,1.371812
-9.816699E-05,7.044473,44,104,497,498,0.4721493,0.2528773,0.1534111,-1.443409,-2.646231,-1.57617,0.211882,-0.03331098,-0.1927245,-0.5756066,-2.804641,1.370794
-9.816699E-05,7.055584,44,104,497,498,0.4765518,0.2527255,0.1735939,-1.445545,-2.649095,-1.581127,0.2181927,-0.05252022,-0.2011906,-0.5778404,-2.807313,1.370379
-9.816699E-05,7.066695,44,104,497,498,0.4765518,0.2527255,0.1735939,-1.445545,-2.649095,-1.581127,0.2181927,-0.05252022,-0.2011906,-0.5778404,-2.807313,1.370379
-9.816699E-05,7.077806,44,104,497,498,0.4607386,0.2366063,0.2034203,-1.450418,-2.65411,-1.590377,0.2033339,-0.05241913,-0.1883489,-0.5812381,-2.810555,1.368849
-9.816699E-05,7.088918,44,104,497,498,0.4554653,0.2301453,0.2151631,-1.453316,-2.656455,-1.594922,0.1970978,-0.02781823,-0.1681956,-0.582861,-2.810413,1.366431
-9.816699E-05,7.100029,44,104,497,498,0.4417416,0.2354167,0.2302088,-1.456104,-2.659282,-1.599089,0.1982984,0.002061099,-0.1533943,-0.5843561,-2.809467,1.363414
-9.816699E-05,7.11114,44,104,497,498,0.4311838,0.2374678,0.2420563,-1.459371,-2.66168,-1.603354,0.206993,0.03623486,-0.1311729,-0.5855045,-2.806984,1.358797
-9.816699E-05,7.122252,44,104,497,498,0.4154232,0.2522724,0.2656996,-1.462759,-2.664967,-1.607097,0.2252062,0.05222502,-0.1142485,-0.5864739,-2.805437,1.354537
-9.816699E-05,7.133363,44,104,497,498,0.399531,0.2703671,0.2701839,-1.465513,-2.668046,-1.610567,0.2464381,0.03299284,-0.1131852,-0.5876366,-2.80643,1.352385
-9.816699E-05,7.144474,44,104,497,498,0.3742395,0.3279091,0.2782145,-1.468669,-2.673065,-1.613708,0.278203,-0.02040818,-0.1258841,-0.5890023,-2.810224,1.351519
-9.816699E-05,7.155585,44,104,497,498,0.3595751,0.3758412,0.2882238,-1.471821,-2.67865,-1.616856,0.3299451,-0.1389155,-0.1618393,-0.5906113,-2.819198,1.354144
-9.816699E-05,7.166697,44,104,497,498,0.3554439,0.4249013,0.2821896,-1.474516,-2.684944,-1.620073,0.3467768,-0.1912169,-0.1851519,-0.5924788,-2.825288,1.354783
-9.816699E-05,7.177808,44,104,497,498,0.3323174,0.5283345,0.2798679,-1.477229,-2.693543,-1.621849,0.3689571,-0.2467126,-0.1956818,-0.5939877,-2.833694,1.357056
-9.816699E-05,7.188919,44,104,497,498,0.3238752,0.5624717,0.2801718,-1.480131,-2.700843,-1.624231,0.3721017,-0.2605653,-0.1966974,-0.5953358,-2.839491,1.357865
-9.816699E-05,7.20003,44,104,497,498,0.3081276,0.6317844,0.2786209,-1.482666,-2.709968,-1.626366,0.374213,-0.2701511,-0.1945395,-0.5966983,-2.846026,1.359068
-9.816699E-05,7.211142,44,104,497,498,0.3061602,0.6776049,0.2778709,-1.485247,-2.718838,-1.628983,0.3700543,-0.2466609,-0.1860824,-0.597983,-2.850005,1.358276
-9.816699E-05,7.222253,44,104,497,498,0.3031212,0.7309055,0.2729312,-1.487589,-2.728471,-1.631539,0.3489182,-0.2209311,-0.1573392,-0.5985625,-2.853408,1.35781
-9.816699E-05,7.233364,44,104,497,498,0.290265,0.7363518,0.2612829,-1.489255,-2.736723,-1.633481,0.3341866,-0.1856436,-0.1329005,-0.5990003,-2.855795,1.356464
-9.816699E-05,7.244475,44,104,497,498,0.2880637,0.7364231,0.2517124,-1.491274,-2.745011,-1.635929,0.3077181,-0.1545976,-0.1073476,-0.5993242,-2.858039,1.355637
-9.816699E-05,7.255587,44,104,497,498,0.2825486,0.715237,0.2366518,-1.49267,-2.752463,-1.638172,0.2886131,-0.1502216,-0.0902531,-0.5995516,-2.86094,1.355304
-9.816699E-05,7.266698,44,104,497,498,0.2812634,0.6972528,0.218458,-1.494285,-2.759865,-1.640525,0.2822089,-0.1618932,-0.08167002,-0.5998648,-2.864988,1.355713
-9.816699E-05,7.277809,44,104,497,498,0.2755393,0.6634408,0.1798903,-1.494603,-2.766438,-1.642884,0.2736572,-0.1842057,-0.07197215,-0.5998189,-2.869704,1.356804
-9.816699E-05,7.28892,44,104,497,498,0.2690212,0.6667733,0.1629243,-1.495584,-2.774164,-1.645015,0.273641,-0.1980257,-0.06981809,-0.6003202,-2.874088,1.357154
-9.816699E-05,7.300032,44,104,497,498,0.2613645,0.6723244,0.1331878,-1.495672,-2.781833,-1.647102,0.2704569,-0.1990668,-0.06554214,-0.6004528,-2.878187,1.357625
-9.816699E-05,7.311143,44,104,497,498,0.253604,0.661935,0.09907582,-1.495342,-2.78906,-1.649047,0.250292,-0.1904333,-0.04098982,-0.5996027,-2.881904,1.35889
-9.816699E-05,7.322254,44,104,497,498,0.2287067,0.6153567,0.06911962,-1.49493,-2.794736,-1.650431,0.2248368,-0.1806836,-0.01644413,-0.5989289,-2.884738,1.359378
-9.816699E-05,7.333365,44,104,497,498,0.1964022,0.5548695,0.05081338,-1.494519,-2.799448,-1.651358,0.2047249,-0.1634983,0.007000601,-0.5979574,-2.886817,1.359349
-9.816699E-05,7.344477,44,104,497,498,0.1706335,0.5198679,0.04225984,-1.494493,-2.804475,-1.652095,0.1866798,-0.1623347,0.01664613,-0.5972437,-2.889612,1.359631
-9.816699E-05,7.355588,44,104,497,498,0.1490998,0.4763546,0.0304061,-1.494155,-2.808888,-1.653021,0.1770884,-0.1835566,0.03273474,-0.5958802,-2.893876,1.361476
-9.816699E-05,7.366699,44,104,497,498,0.1317794,0.4253584,0.01953964,-1.493795,-2.812485,-1.653707,0.1610236,-0.2165297,0.0382268,-0.5947041,-2.899684,1.365036
-9.816699E-05,7.37781,44,104,497,498,0.1176519,0.3690185,0.008616336,-1.493389,-2.815111,-1.65444,0.1396513,-0.2324722,0.03196614,-0.5939115,-2.904883,1.368341
-9.816699E-05,7.388922,44,104,497,498,0.1003209,0.3062802,0.0008513015,-1.492879,-2.817176,-1.654876,0.1205036,-0.2366422,0.04377769,-0.592474,-2.909368,1.371178
-9.816699E-05,7.400033,44,104,497,498,0.08737735,0.2701343,-0.003553918,-1.492554,-2.819211,-1.655351,0.1109728,-0.23337,0.05764798,-0.5909906,-2.913406,1.373553
-9.816699E-05,7.411144,44,104,497,498,0.07007917,0.2212502,-0.01334289,-1.492003,-2.820422,-1.655456,0.09082142,-0.2183301,0.0778884,-0.5893592,-2.916431,1.375866
-9.816699E-05,7.422256,44,104,497,498,0.04754375,0.1808688,-0.01557306,-1.491709,-2.82148,-1.655286,0.06005397,-0.1968988,0.08856592,-0.5878987,-2.918891,1.377674
-9.816699E-05,7.433367,44,104,497,498,0.02399672,0.1532561,-0.01665332,-1.491342,-2.82248,-1.654853,0.0430802,-0.1819074,0.09709435,-0.5863045,-2.921267,1.379619
-9.816699E-05,7.444478,44,104,497,498,0.01219004,0.1458896,-0.02513226,-1.49079,-2.823805,-1.654617,0.04204925,-0.1744402,0.09812522,-0.5849596,-2.923937,1.38124
-9.816699E-05,7.455589,44,104,497,498,-0.02309403,0.1365198,-0.03878611,-1.489881,-2.825141,-1.653481,0.04523689,-0.1733949,0.09491451,-0.5836712,-2.926985,1.383193
-9.816699E-05,7.466701,44,104,497,498,-0.03485896,0.1280599,-0.04301146,-1.489293,-2.826238,-1.652985,0.03462875,-0.1690752,0.1034543,-0.5820642,-2.929655,1.385285
-9.816699E-05,7.477812,44,104,497,498,-0.06054123,0.1132929,-0.05144317,-1.488427,-2.827048,-1.651569,0.02623086,-0.1614906,0.1332858,-0.5795352,-2.931788,1.386976
-9.816699E-05,7.488923,44,104,497,498,-0.07979519,0.1006132,-0.05777394,-1.487631,-2.827702,-1.650406,0.01150974,-0.152767,0.1780408,-0.576315,-2.933301,1.388365
-9.816699E-05,7.500034,44,104,497,498,-0.1001048,0.08792307,-0.06090451,-1.486832,-2.828284,-1.648704,0.002026245,-0.1430758,0.2004118,-0.5732795,-2.934794,1.389844
-9.816699E-05,7.511146,44,104,497,498,-0.1225928,0.06886766,-0.06726396,-1.485822,-2.828453,-1.646782,-0.001169696,-0.1473351,0.2015126,-0.5706739,-2.937562,1.392114
-9.816699E-05,7.522257,44,104,497,498,-0.1472143,0.05623463,-0.07781752,-1.484716,-2.828571,-1.644571,-0.000210762,-0.1633961,0.1823894,-0.5687985,-2.941479,1.395347
-9.816699E-05,7.533368,44,104,497,498,-0.1675896,0.04149336,-0.09055017,-1.483347,-2.82879,-1.6424,0.01141974,-0.1847633,0.1739001,-0.5666791,-2.945739,1.398506
-9.816699E-05,7.544479,44,104,497,498,-0.1825891,0.03948466,-0.1000372,-1.482021,-2.829182,-1.639852,0.01986043,-0.2039867,0.1707606,-0.5641225,-2.950447,1.402299
-9.816699E-05,7.555591,44,104,497,498,-0.1825891,0.03948466,-0.1000372,-1.482021,-2.829182,-1.639852,0.01986043,-0.2039867,0.1707606,-0.5641225,-2.950447,1.402299
-9.816699E-05,7.566702,44,104,497,498,-0.2189311,0.04293398,-0.1178635,-1.47896,-2.830116,-1.634163,0.01879419,-0.2305155,0.1943146,-0.5583684,-2.959088,1.409401
-9.816699E-05,7.577813,44,104,497,498,-0.2295828,0.04617609,-0.1198865,-1.477647,-2.830557,-1.631397,0.01881065,-0.2358184,0.1953974,-0.5557362,-2.962747,1.412042
-9.816699E-05,7.588924,44,104,497,498,-0.237068,0.05052158,-0.1272571,-1.476061,-2.83121,-1.628734,0.01451121,-0.2390443,0.1847755,-0.553488,-2.967396,1.415872
-9.816699E-05,7.600036,44,104,497,498,-0.2328225,0.04838289,-0.1283678,-1.474574,-2.831604,-1.626209,0.01028745,-0.2304958,0.1890217,-0.550958,-2.971169,1.419087
-9.816699E-05,7.611147,44,104,497,498,-0.2222002,0.04196979,-0.1295536,-1.47308,-2.831932,-1.624021,0.003949553,-0.2155479,0.1943193,-0.5483299,-2.974308,1.421959
-9.816699E-05,7.622258,44,104,497,498,-0.2105665,0.02810398,-0.1329128,-1.471719,-2.831867,-1.621807,-0.01189497,-0.1866912,0.2102628,-0.5452732,-2.976172,1.424082
-9.816699E-05,7.633369,44,104,497,498,-0.204221,0.01316047,-0.1319928,-1.470303,-2.831523,-1.619747,-0.02988133,-0.1440206,0.213373,-0.5427698,-2.976409,1.425081
-9.816699E-05,7.644481,44,104,497,498,-0.1947457,-0.01135473,-0.1354195,-1.468767,-2.830629,-1.61792,-0.0415687,-0.1291021,0.2080458,-0.5403543,-2.978216,1.427259
-9.816699E-05,7.655592,44,104,497,498,-0.1927101,-0.04226783,-0.1345694,-1.467432,-2.829223,-1.616038,-0.05000366,-0.1056175,0.2154508,-0.5376938,-2.978514,1.428328
-9.816699E-05,7.666703,44,104,497,498,-0.1916903,-0.06362054,-0.1293854,-1.466264,-2.827852,-1.613974,-0.05748636,-0.1003016,0.2048134,-0.5354924,-2.979712,1.430204
-9.816699E-05,7.677814,44,104,497,498,-0.1842869,-0.08283593,-0.1274363,-1.464974,-2.826367,-1.61227,-0.06808847,-0.08217342,0.2026497,-0.5333619,-2.98009,1.431425
-9.816699E-05,7.688926,44,104,497,498,-0.1811017,-0.0935191,-0.125405,-1.463576,-2.824944,-1.610673,-0.07770738,-0.08110411,0.1941611,-0.5312958,-2.981043,1.433441
-9.816699E-05,7.700037,44,104,497,498,-0.1704722,-0.09994867,-0.1255256,-1.46225,-2.82361,-1.609233,-0.09574208,-0.05866575,0.2016004,-0.5288228,-2.980505,1.434637
-9.816699E-05,7.711148,44,104,497,498,-0.1619823,-0.1042266,-0.1277509,-1.46076,-2.822305,-1.607769,-0.1117336,-0.03092648,0.2079016,-0.5263477,-2.980141,1.436071
-9.816699E-05,7.72226,44,104,497,498,-0.152424,-0.1085157,-0.1299748,-1.459405,-2.820814,-1.606513,-0.1329305,-0.02021056,0.2047951,-0.5242257,-2.978518,1.436864
-9.816699E-05,7.733371,44,104,497,498,-0.143999,-0.1244966,-0.1354727,-1.457798,-2.818887,-1.605298,-0.1616546,-0.02969174,0.218786,-0.5212083,-2.979137,1.439821
-9.816699E-05,7.744482,44,104,497,498,-0.1429804,-0.1287333,-0.1397696,-1.456181,-2.817273,-1.603925,-0.1766336,-0.04670814,0.2135765,-0.5188189,-2.980333,1.443243
-9.816699E-05,7.755593,44,104,497,498,-0.1346317,-0.1638659,-0.1464508,-1.454547,-2.81448,-1.603025,-0.1948661,-0.0722843,0.1945502,-0.5170251,-2.982588,1.447622
-9.816699E-05,7.766705,44,104,497,498,-0.1219884,-0.1851602,-0.155211,-1.452649,-2.811888,-1.602304,-0.2002597,-0.09144244,0.1914433,-0.5147704,-2.984745,1.451947
-9.816699E-05,7.777816,44,104,497,498,-0.1157402,-0.2117724,-0.161825,-1.450785,-2.808757,-1.60154,-0.194036,-0.144759,0.1798919,-0.5126223,-2.990203,1.458547
-9.816699E-05,7.788927,44,104,497,498,-0.1105036,-0.2213439,-0.1672477,-1.448933,-2.806056,-1.600519,-0.1929235,-0.1447219,0.1926569,-0.5101408,-2.992803,1.46285
-9.816699E-05,7.800038,44,104,497,498,-0.1074358,-0.2436837,-0.17381,-1.446921,-2.802631,-1.599831,-0.201489,-0.1500562,0.1841829,-0.5081567,-2.996129,1.468221
-9.816699E-05,7.81115,44,104,497,498,-0.1022174,-0.2660487,-0.1772021,-1.444838,-2.799118,-1.599219,-0.2079992,-0.1543582,0.1671956,-0.5062808,-2.99956,1.474321
-9.816699E-05,7.822261,44,104,497,498,-0.09913469,-0.2777146,-0.18689,-1.442581,-2.795606,-1.598627,-0.2037486,-0.1565153,0.1650666,-0.5042238,-3.003169,1.479598
-9.816699E-05,7.833372,44,104,497,498,-0.09394825,-0.2979014,-0.1966563,-1.440177,-2.791852,-1.598242,-0.2059431,-0.1629306,0.1565804,-0.5024021,-3.006866,1.485438
-9.816699E-05,7.844483,44,104,497,498,-0.09188963,-0.3085386,-0.2010022,-1.437923,-2.787956,-1.597799,-0.2068822,-0.1383562,0.1756827,-0.4997198,-3.007988,1.488827
-9.816699E-05,7.855595,44,104,497,498,-0.08663987,-0.3148991,-0.2085459,-1.435474,-2.784203,-1.597482,-0.2153132,-0.1095531,0.1809378,-0.4975286,-3.008569,1.491984
-9.816699E-05,7.866706,44,104,497,498,-0.08664016,-0.3127651,-0.2095949,-1.433229,-2.780658,-1.597047,-0.2078405,-0.09999694,0.1776853,-0.4956164,-3.010193,1.49548
-9.816699E-05,7.877817,44,104,497,498,-0.08664016,-0.3127651,-0.2095949,-1.433229,-2.780658,-1.597047,-0.2078405,-0.09999694,0.1776853,-0.4956164,-3.010193,1.49548
-9.816699E-05,7.888928,44,104,497,498,-0.08978075,-0.2828751,-0.2168332,-1.428382,-2.774656,-1.595869,-0.1567427,-0.1373271,0.2010761,-0.4903524,-3.017233,1.50449
-9.816699E-05,7.90004,44,104,497,498,-0.09292641,-0.2626025,-0.219872,-1.425953,-2.772196,-1.595116,-0.1385816,-0.1330714,0.2127171,-0.4876237,-3.019735,1.507739
-9.816699E-05,7.911151,44,104,497,498,-0.09273525,-0.2242953,-0.2132329,-1.423739,-2.770585,-1.594419,-0.1237164,-0.1395437,0.2041554,-0.4856125,-3.023304,1.511997
-9.816699E-05,7.922262,44,104,497,498,-0.0978978,-0.1774014,-0.2139516,-1.421355,-2.769675,-1.593392,-0.1089476,-0.1492903,0.1689892,-0.4844652,-3.027201,1.516318
-9.816699E-05,7.933373,44,104,497,498,-0.09874482,-0.1230773,-0.2114578,-1.419031,-2.769635,-1.592363,-0.106885,-0.135552,0.1401673,-0.4835422,-3.029599,1.519667
-9.816699E-05,7.944485,44,104,497,498,-0.1028573,-0.08044821,-0.2111412,-1.416737,-2.769798,-1.59101,-0.1048194,-0.1303065,0.1188343,-0.4826511,-3.032403,1.523377
-9.816699E-05,7.955596,44,104,497,498,-0.1068746,-0.01546386,-0.2096207,-1.414327,-2.771121,-1.589491,-0.1038273,-0.1186948,0.08896179,-0.4824913,-3.034662,1.526519
-9.816699E-05,7.966707,44,104,497,498,-0.1099947,0.01759291,-0.2136496,-1.411727,-2.771821,-1.587905,-0.1028306,-0.1283307,0.07620413,-0.4819342,-3.038215,1.53077
-9.816699E-05,7.977818,44,104,497,498,-0.1119354,0.06338595,-0.2101365,-1.409487,-2.773675,-1.586331,-0.1103728,-0.1453922,0.06670188,-0.4811895,-3.042664,1.53628
-9.816699E-05,7.98893,44,104,497,498,-0.1150308,0.092158,-0.2088461,-1.407361,-2.775523,-1.584495,-0.06664,-0.1380024,0.07717898,-0.4800524,-3.045329,1.538257
-9.816699E-05,8.000041,44,104,497,498,-0.1202075,0.1283607,-0.2053724,-1.405172,-2.777707,-1.58258,-0.06339558,-0.1390241,0.09208568,-0.4785903,-3.048652,1.541821
-9.816699E-05,8.011152,44,104,497,498,-0.1285837,0.1496323,-0.1955799,-1.403256,-2.779832,-1.580543,-0.06119296,-0.1336401,0.1069676,-0.477059,-3.051122,1.544631
-9.816699E-05,8.022264,44,104,497,498,-0.1348776,0.1591788,-0.1869414,-1.401511,-2.781738,-1.578569,-0.07077125,-0.1304214,0.106992,-0.4758424,-3.054045,1.548264
