loc,t,aDotS,bDotS,gDotS,aS,bS,gS,qE,qDotE,tpad,enable,emg,aDotSH,bDotSH,gDotSH,aSH,bSH,gSH,aDotUB,bDotUB,gDotUB,aUB,bUB,gUB,xHand,yHand,zHand,aHand,bHand,gHand
3,0,-0.1423933,-0.5417227,0.3051231,-1.277202,-0.6281699,-2.825305,-1.075436,-0.005603779,0,0,13.81818,-0.2520662,0.1295728,-0.0318697,-0.5086526,-0.8291534,0.1796853,-0.1163619,0.03026117,-0.289301,-0.7335656,3.711923,0.2513587,-0.702162,1.191191,-0.3098443,306.3321,201.8091,6.626575
3,0.01111111,-0.1341694,-0.5191993,0.2795752,-1.277848,-0.6226529,-2.825468,-1.076116,-0.06223684,0,0,13.81818,-0.2309904,0.08463773,-0.02609576,-0.5088779,-0.8304849,0.1826588,-0.1163303,0.02614062,-0.2968168,-0.7364418,3.713259,0.2527524,-0.7011433,1.191097,-0.3115178,306.3011,201.7336,6.579555
3,0.02222222,-0.1290473,-0.4956611,0.2604688,-1.278526,-0.6172584,-2.825776,-1.076442,-0.02933741,0,0,13.81818,-0.2158911,0.07050289,-0.002952833,-0.5080853,-0.8297755,0.1839445,-0.1184074,0.0249365,-0.2957404,-0.7393111,3.714251,0.2533526,-0.6996005,1.190806,-0.3135887,306.3401,201.4601,6.453932
3,0.03333334,-0.1273106,-0.4603143,0.224423,-1.278506,-0.6127273,-2.82577,-1.075686,0.06918484,0,0,13.81818,-0.2124407,0.07351345,0.01727122,-0.507116,-0.8279501,0.184784,-0.1181499,0.02048378,-0.2862437,-0.7420163,3.715439,0.2537569,-0.6976973,1.190385,-0.3159715,306.4636,201.0801,6.202128
3,0.04444445,-0.118152,-0.442011,0.188189,-1.278029,-0.6081563,-2.826077,-1.075672,0.0006300254,0,0,13.81818,-0.2152939,0.08079123,0.04186906,-0.5056784,-0.8260886,0.1856223,-0.1188982,0.01477063,-0.2703485,-0.7441277,3.715913,0.2551284,-0.6955042,1.189984,-0.3184165,306.6001,200.7069,5.847044
3,0.05555556,-0.1059135,-0.4407114,0.1465051,-1.277001,-0.6032071,-2.826403,-1.075535,0.01244709,0,0,12.48485,-0.2248026,0.07330827,0.05256467,-0.5048832,-0.8253956,0.1878362,-0.1169258,0.01703539,-0.2734958,-0.7469091,3.717097,0.25595,-0.693202,1.18968,-0.3207574,306.6931,200.3,5.479534
3,0.06666667,-0.09460896,-0.4458727,0.1143706,-1.2756,-0.598015,-2.827243,-1.075743,-0.01917297,0,0,12.48485,-0.2258696,0.05619328,0.06202612,-0.503933,-0.825564,0.1905774,-0.1203524,0.02128362,-0.2797757,-0.7500484,3.718919,0.2560656,-0.6910349,1.189535,-0.3228976,306.7894,199.8425,5.167641
3,0.07777778,-0.08568995,-0.4445069,0.06100619,-1.27322,-0.5935728,-2.827888,-1.075594,0.01381624,0,0,12.48485,-0.2118968,0.04424639,0.07881809,-0.5024421,-0.8257136,0.1925521,-0.1239187,0.005026311,-0.2758002,-0.7528442,3.718891,0.2580009,-0.6891829,1.189589,-0.3247043,306.8544,199.3497,4.981328
3,0.08888889,-0.08402339,-0.4250968,0.02168346,-1.271063,-0.5899925,-2.828039,-1.075922,-0.03024656,0,0,12.48485,-0.1927539,0.02273475,0.08800285,-0.5012826,-0.8271528,0.1953365,-0.1270758,-0.01596578,-0.2474361,-0.7548352,3.71834,0.2599269,-0.6877447,1.189826,-0.3261853,306.8955,198.8832,4.984997
3,0.1,-0.08858092,-0.4111013,-0.001641028,-1.268849,-0.5863705,-2.827724,-1.075874,0.0045971,0,0,12.48485,-0.1926707,0.01089974,0.1017576,-0.4997843,-0.8283411,0.1985661,-0.1297686,-0.02596034,-0.2348161,-0.7568746,3.717996,0.2618132,-0.6867294,1.190188,-0.3273281,306.881,198.3985,5.170011
3,0.1111111,-0.1027899,-0.3639883,-0.03634231,-1.266738,-0.5847465,-2.826627,-1.075517,0.03256428,0,0,12.24242,-0.1862703,-0.00841324,0.1132428,-0.4983003,-0.8306271,0.2024186,-0.1296611,-0.03095337,-0.2509025,-0.7602185,3.718506,0.2628825,-0.6861405,1.190618,-0.3281277,306.8569,197.9462,5.444373
3,0.1222222,-0.1222251,-0.3041571,-0.06453012,-1.264615,-0.5837085,-2.824981,-1.074932,0.05311064,0,0,12.24242,-0.1873611,-0.01908302,0.117434,-0.4969517,-0.8319875,0.2058261,-0.1255459,-0.03050529,-0.2647617,-0.7635304,3.719091,0.2641028,-0.6859753,1.19108,-0.3286874,306.8723,197.6461,5.727778
3,0.1333333,-0.1448993,-0.2453366,-0.09586137,-1.262516,-0.5836163,-2.822695,-1.074676,0.02298994,0,0,12.24242,-0.190774,-0.02854405,0.1046122,-0.4963839,-0.83371,0.2095956,-0.1270081,0.001612902,-0.2736825,-0.7665238,3.722012,0.2634444,-0.6861137,1.191606,-0.3290499,306.9336,197.4228,6.026716
3,0.1444445,-0.1644036,-0.1982502,-0.1262409,-1.260054,-0.5837787,-2.819909,-1.07432,0.03246333,0,0,12.24242,-0.1911387,-0.03577425,0.08214714,-0.4967584,-0.8328429,0.2118177,-0.137552,0.04326851,-0.2993636,-0.7697974,3.726033,0.2626109,-0.68656,1.192203,-0.3292817,306.9522,197.2159,6.310138
3,0.1555556,-0.18172,-0.1746515,-0.1503889,-1.257308,-0.5833356,-2.817403,-1.07401,0.02813486,0,0,13.69697,-0.1850247,-0.04739785,0.06600657,-0.496598,-0.8346698,0.2153832,-0.1397299,0.0422471,-0.3068181,-0.7731583,3.727595,0.2635363,-0.6872011,1.192937,-0.3293338,306.9689,197.102,6.544714
3,0.1666667,-0.2111422,-0.1487147,-0.2052719,-1.253115,-0.5840829,-2.813742,-1.073678,0.0301809,0,0,13.69697,-0.17437,-0.05604345,0.07002065,-0.4967184,-0.8373101,0.2192711,-0.1534221,0.01486437,-0.3008782,-0.7764201,3.727747,0.2656098,-0.6881183,1.193868,-0.3294664,307.0734,197.0615,6.775602
3,0.1777778,-0.1798752,-0.1548505,-0.2600341,-1.248034,-0.5837165,-2.813067,-1.073886,-0.0191165,0,0,13.69697,-0.1806596,-0.07640466,0.09016635,-0.4954433,-0.841235,0.2250028,-0.1563639,-0.01431331,-0.288662,-0.7793539,3.72721,0.2682251,-0.6892238,1.195049,-0.3297456,307.137,196.9534,7.125586
3,0.1888889,-0.1564485,-0.157602,-0.3445185,-1.241143,-0.5841484,-2.811959,-1.07329,0.05479063,0,0,13.69697,-0.1780857,-0.1227292,0.1505086,-0.4922438,-0.8494898,0.2336714,-0.1512143,-0.05606455,-0.270377,-0.7821859,3.725113,0.2712241,-0.6904023,1.19653,-0.3301938,307.1241,196.6934,7.588842
3,0.2,-0.1764003,-0.1380277,-0.408084,-1.234573,-0.5855657,-2.808778,-1.075967,-0.2451307,0,0,13.69697,-0.1684333,-0.146376,0.1693778,-0.4903646,-0.8553423,0.2404097,-0.1436124,-0.03733015,-0.283904,-0.7855942,3.726749,0.2715822,-0.691631,1.198331,-0.3307508,307.0474,196.2383,8.125499
3,0.2111111,-0.1906422,-0.1250341,-0.4408668,-1.228632,-0.5866507,-2.805814,-1.076061,-0.006488004,0,0,5.939394,-0.1380057,-0.1944211,0.1569017,-0.4900158,-0.8639497,0.2484567,-0.1355946,-0.02811886,-0.2997618,-0.7893071,3.728209,0.2717873,-0.6927786,1.200411,-0.3311148,306.8363,195.503,8.813497
3,0.2222222,-0.2096481,-0.1011459,-0.5150681,-1.220791,-0.5892169,-2.8021,-1.074221,0.1680553,0,0,5.939394,-0.08375138,-0.2343301,0.1729729,-0.4887662,-0.8729789,0.2556286,-0.1187685,-0.05054089,-0.3152511,-0.7933131,3.727814,0.273202,-0.6939368,1.202639,-0.3311042,306.6248,194.649,9.520082
3,0.2333333,-0.2143879,-0.08280009,-0.5553947,-1.213451,-0.5916399,-2.798768,-1.07417,0.003281062,0,0,5.939394,-0.05274537,-0.2506492,0.1917264,-0.4857361,-0.8808139,0.2620828,-0.111998,-0.08427116,-0.3202567,-0.7974761,3.726368,0.2752388,-0.6953451,1.204945,-0.3308269,306.5156,193.9982,10.11345
3,0.2444444,-0.2149821,-0.05055053,-0.6063389,-1.20562,-0.595315,-2.795053,-1.07405,0.01108526,0,0,5.939394,-0.02217337,-0.2620204,0.2550126,-0.4847736,-0.8892683,0.2680101,-0.09675923,-0.1421278,-0.3279316,-0.8019471,3.722668,0.278748,-0.6971353,1.207272,-0.3304624,306.4777,193.4905,10.73262
3,0.2555556,-0.2081791,-0.007645361,-0.6637038,-1.197414,-0.5998994,-2.791388,-1.074485,-0.03979732,0,0,8.848485,-0.01420191,-0.2538611,0.2944105,-0.4809669,-0.896925,0.2748651,-0.08785005,-0.1749761,-0.3201236,-0.8056163,3.719878,0.2818548,-0.6992996,1.209725,-0.3299303,306.5454,192.9364,11.46184
3,0.2666667,-0.210551,0.0600801,-0.7751607,-1.186651,-0.6069871,-2.7863,-1.074684,-0.01772657,0,0,8.848485,-0.01130399,-0.2458406,0.3541044,-0.4758749,-0.9056787,0.2826714,-0.07236511,-0.2097894,-0.3060405,-0.8094316,3.716322,0.284603,-0.701771,1.212347,-0.3291785,306.5789,192.389,12.27959
3,0.2777778,-0.2101003,0.0955384,-0.8282348,-1.17727,-0.6132568,-2.781635,-1.07514,-0.04160213,0,0,8.848485,-0.005434871,-0.2344593,0.3935427,-0.471281,-0.9131181,0.2892614,-0.05778903,-0.2253343,-0.2979363,-0.8130178,3.713404,0.2870283,-0.7044634,1.215217,-0.3280996,306.6033,191.9076,13.09899
3,0.2888889,-0.214137,0.1534967,-0.901362,-1.167212,-0.6217922,-2.775747,-1.074743,0.03673082,0,0,8.848485,0.02716386,-0.2393953,0.4495811,-0.4654657,-0.9233946,0.2970117,-0.04610035,-0.2483432,-0.295303,-0.8169657,3.709895,0.2894712,-0.7074763,1.218306,-0.3268096,306.6333,191.3709,14.00225
3,0.3,-0.2265322,0.2039217,-0.9616449,-1.156913,-0.6305189,-2.769507,-1.074886,-0.01341123,0,0,8.848485,0.05286515,-0.2771228,0.4820001,-0.4607258,-0.9367142,0.3075815,-0.02064347,-0.2980145,-0.3156879,-0.8222265,3.705251,0.2925509,-0.7109149,1.221689,-0.3251764,306.6906,190.6871,14.99488
3,0.3111111,-0.234293,0.2424333,-0.9900999,-1.147329,-0.639082,-2.763171,-1.074646,0.02208722,0,0,6.30303,0.06986767,-0.3178727,0.5016971,-0.4565414,-0.9509056,0.3190813,0.004112244,-0.3268922,-0.3111487,-0.8266575,3.700591,0.2948593,-0.7147827,1.225347,-0.3232484,306.6667,190.1366,16.05543
3,0.3222222,-0.258166,0.308742,-1.032046,-1.137321,-0.6497756,-2.754958,-1.074466,0.01639442,0,0,6.30303,0.109306,-0.3738176,0.5359402,-0.4516881,-0.9690742,0.3331279,0.01475716,-0.377454,-0.3197122,-0.831792,3.694488,0.2988929,-0.7190567,1.229288,-0.3210808,306.6482,189.713,17.16112
3,0.3333333,-0.2906831,0.379398,-1.08557,-1.127202,-0.6620864,-2.745671,-1.074424,0.003717803,0,0,6.30303,0.1382575,-0.4094583,0.5715383,-0.4462931,-0.9870815,0.3469076,0.04090038,-0.4156225,-0.3270954,-0.8372313,3.688409,0.3016443,-0.7235743,1.233563,-0.3186612,306.6436,189.3432,18.36726
3,0.3444445,-0.323386,0.4298837,-1.149858,-1.116063,-0.674991,-2.735335,-1.073602,0.0751441,0,0,6.30303,0.2134234,-0.500282,0.6721281,-0.4401438,-1.013924,0.3663945,0.06814992,-0.4558179,-0.3377116,-0.8428937,3.681815,0.304684,-0.7280752,1.238142,-0.3159944,306.5518,188.9398,19.70731
3,0.3555556,-0.3430239,0.4674231,-1.192016,-1.105452,-0.6876868,-2.725539,-1.073376,0.02016731,0,0,6.30303,0.2571758,-0.5498717,0.7074367,-0.4346183,-1.038241,0.3844342,0.08448201,-0.5146099,-0.3486212,-0.8489763,3.673878,0.3088316,-0.7324923,1.243045,-0.3130841,306.4852,188.5681,20.91617
3,0.3666667,-0.3578048,0.5563512,-1.276553,-1.093826,-0.7046857,-2.713464,-1.072899,0.04371143,0,0,6.424242,0.3094473,-0.6145143,0.7487891,-0.4309469,-1.065886,0.4040921,0.09538716,-0.5733039,-0.3754787,-0.8563331,3.665374,0.3129968,-0.7370795,1.248339,-0.3102362,306.517,188.1988,22.03838
3,0.3777778,-0.3614063,0.6077036,-1.315634,-1.083011,-0.7206178,-2.702084,-1.073636,-0.06768519,0,0,6.424242,0.3298365,-0.6361572,0.7739537,-0.4253132,-1.092098,0.4237489,0.09685051,-0.6092704,-0.3868594,-0.8629835,3.657407,0.3173798,-0.7418492,1.25407,-0.3074035,306.4831,187.6579,23.31942
3,0.3888889,-0.369354,0.7028023,-1.365061,-1.07276,-0.7398778,-2.688643,-1.073717,-0.006590359,0,0,6.424242,0.364664,-0.6475759,0.8384365,-0.4180385,-1.120841,0.444464,0.1354881,-0.6876233,-0.3845092,-0.8701911,3.646356,0.3217424,-0.7466978,1.26025,-0.3045433,306.3437,187.0256,24.75254
3,0.4,-0.3781596,0.7647771,-1.395492,-1.062721,-0.7590408,-2.675046,-1.07424,-0.04758094,0,0,6.424242,0.3851467,-0.651082,0.8594774,-0.4119862,-1.148341,0.4646023,0.1540291,-0.7210877,-0.3778598,-0.8765076,3.636826,0.3259078,-0.7515604,1.266927,-0.3013512,306.1301,186.2739,26.24497
3,0.4111111,-0.4052795,0.8417769,-1.442663,-1.052339,-0.7806737,-2.658927,-1.074069,0.01600827,0,0,8.121212,0.414263,-0.6718536,0.9005123,-0.4055318,-1.180035,0.4880107,0.187125,-0.7689209,-0.3673843,-0.8833966,3.625753,0.3297678,-0.7564672,1.274021,-0.2977921,305.8359,185.5357,27.81153
3,0.4222222,-0.4301797,0.891022,-1.478318,-1.041897,-0.8024184,-2.642172,-1.074132,-0.005627805,0,0,8.121212,0.4373198,-0.704605,0.977756,-0.3981809,-1.216979,0.5166373,0.2366936,-0.8042604,-0.3589072,-0.8899181,3.615126,0.3325455,-0.7614185,1.281494,-0.293786,305.5201,184.918,29.37604
3,0.4333333,-0.4509748,0.9061933,-1.523778,-1.030972,-0.8231144,-2.626011,-1.073136,0.09104877,0,0,8.121212,0.4643611,-0.7414535,1.032535,-0.3914596,-1.255997,0.5465739,0.2633741,-0.8277885,-0.3510821,-0.8966352,3.604475,0.3353732,-0.7664393,1.289284,-0.2893954,305.2427,184.3581,31.01333
3,0.4444444,-0.4654913,0.9085935,-1.573662,-1.019473,-0.8445837,-2.60897,-1.07285,0.02555003,0,0,8.121212,0.4977449,-0.8179132,1.106108,-0.3853168,-1.303036,0.5834653,0.3034043,-0.9126275,-0.3424656,-0.9042619,3.590323,0.3396505,-0.7714686,1.297451,-0.2846029,305.0716,183.8999,32.63486
3,0.4555556,-0.4786146,0.9119855,-1.603302,-1.00861,-0.8664083,-2.591821,-1.07333,-0.04390921,0,0,8.121212,0.5266795,-0.8503329,1.138528,-0.3798856,-1.347367,0.6177426,0.3358231,-0.9522105,-0.3722905,-0.9130744,3.578141,0.3426026,-0.7764068,1.306065,-0.2794888,304.9525,183.4559,34.36852
3,0.4666667,-0.5208877,0.9538908,-1.662216,-0.9975509,-0.8915027,-2.570897,-1.073324,0.0009359805,0,0,9.818182,0.5776653,-0.8998607,1.156707,-0.3761097,-1.395003,0.6541371,0.3898696,-1.003049,-0.4302458,-0.9238069,3.565677,0.343951,-0.7813644,1.314986,-0.2743835,304.7835,182.7976,36.395
3,0.4777778,-0.5435091,0.9775236,-1.685222,-0.9876807,-0.9161578,-2.550688,-1.073797,-0.0431699,0,0,9.818182,0.6162606,-0.9067258,1.180699,-0.3716234,-1.441009,0.6888426,0.4207948,-1.055777,-0.4464628,-0.9333016,3.552147,0.3468179,-0.7861723,1.324154,-0.2692943,304.6054,181.9716,38.52601
3,0.4888889,-0.5715796,1.007561,-1.717747,-0.9777839,-0.9422019,-2.528916,-1.072257,0.141466,0,0,9.818182,0.6333196,-0.9175537,1.187866,-0.3682289,-1.487792,0.7247543,0.4332318,-1.070355,-0.4372724,-0.9418994,3.539471,0.3490427,-0.7907375,1.333496,-0.2641955,304.4087,181.0821,40.61441
3,0.5,-0.5876433,1.042832,-1.731189,-0.9692905,-0.9685193,-2.507298,-1.07304,-0.07258034,0,0,9.818182,0.6376896,-0.9166086,1.196361,-0.3650858,-1.535065,0.7617908,0.4494862,-1.092028,-0.385654,-0.9485162,3.525888,0.3516803,-0.7950725,1.343115,-0.2590704,304.304,180.3021,42.50771
3,0.5111111,-0.5983816,1.054572,-1.739546,-0.9606544,-0.9946854,-2.485379,-1.072833,0.01986846,0,0,10.54545,0.6237459,-0.932503,1.197462,-0.3633063,4.699779,0.8004309,0.4731399,-1.114194,-0.3468754,-0.9554319,3.511699,0.3538292,-0.7991642,1.353027,-0.253881,304.1561,179.4552,44.46253
3,0.5222223,-0.6134504,1.076011,-1.757345,-0.9526953,-1.021911,-2.462586,-1.073541,-0.06482067,0,0,10.54545,0.6153802,-0.9572092,1.226132,-0.3618714,4.647174,0.8432937,0.4948826,-1.147692,-0.3297466,-0.9634464,3.498172,0.3562013,-0.8029798,1.363277,-0.248649,304.0294,178.6553,46.42974
3,0.5333334,-0.6156665,1.076167,-1.778669,-0.9441508,-1.049176,-2.440483,-1.073631,-0.007418393,0,0,10.54545,0.6286858,-0.9469616,1.266565,-0.3594538,4.59529,0.8846672,0.5094476,-1.151757,-0.2765315,-0.9699808,3.484365,0.3580388,-0.8064963,1.373828,-0.2433747,303.8459,177.7425,48.53867
3,0.5444446,-0.6113888,1.051553,-1.771412,-0.9365581,-1.074578,-2.418794,-1.073709,-0.007150695,0,0,10.54545,0.6465448,-0.9112531,1.313528,-0.3565712,4.542897,0.9259822,0.5096024,-1.154102,-0.2468905,-0.9754403,3.470421,0.360559,-0.8096923,1.384598,-0.2380885,303.6623,176.6863,50.79735
3,0.5555557,-0.6027526,1.003556,-1.760066,-0.9287519,-1.099424,-2.397683,-1.074751,-0.09502589,0,0,10.54545,0.6371367,-0.870643,1.30653,-0.3549413,4.495459,0.9638146,0.5127863,-1.153941,-0.2479799,-0.9825573,3.457174,0.3621539,-0.8125937,1.395504,-0.2327838,303.5049,175.5286,53.11375
3,0.5666668,-0.5974464,0.9523586,-1.754037,-0.9207837,-1.124053,-2.37625,-1.074429,0.03019289,0,0,8.969697,0.5953554,-0.8124061,1.254231,-0.3540145,4.455114,0.996482,0.5009832,-1.18067,-0.2697124,-0.9909511,3.44318,0.3648054,-0.8151627,1.406454,-0.2274148,303.408,174.2909,55.50234
3,0.577778,-0.6079211,0.89372,-1.738254,-0.9129721,-1.147764,-2.354887,-1.074836,-0.03753267,0,0,8.969697,0.5586178,-0.7301396,1.256406,-0.3513849,4.412427,1.031811,0.49916,-1.191016,-0.2890617,-0.9994007,3.429668,0.3666739,-0.8174626,1.417266,-0.222119,303.3051,173.0475,57.96271
3,0.5888891,-0.6301399,0.8371536,-1.719154,-0.9052479,-1.17139,-2.332486,-1.074629,0.01923962,0,0,8.969697,0.5662501,-0.6507682,1.31556,-0.3471745,4.363317,1.071523,0.5108375,-1.165919,-0.2918488,-1.006842,3.417694,0.3670281,-0.8194662,1.42777,-0.216956,303.2746,171.7933,60.39449
3,0.6000003,-0.6522033,0.7997599,-1.692455,-0.8986635,-1.194971,-2.309938,-1.074317,0.02837652,0,0,8.969697,0.5779257,-0.6529512,1.31329,-0.3469816,4.31426,1.110707,0.5179416,-1.132631,-0.2880006,-1.0136,3.406276,0.3670515,-0.8211637,1.437875,-0.2119678,303.3626,170.6544,62.62272
3,0.6111114,-0.6700108,0.770902,-1.667902,-0.8926,-1.218756,-2.287137,-1.073444,0.07969179,0,0,6.181818,0.5720581,-0.6857206,1.286457,-0.3491175,4.267586,1.14833,0.4996803,-1.116925,-0.2555704,-1.019841,3.394438,0.3664797,-0.8224561,1.447573,-0.2071636,303.5452,169.7789,64.52159
3,0.6222225,-0.6705395,0.7397487,-1.624418,-0.8870531,-1.241732,-2.265268,-1.07347,-0.002971657,0,0,6.181818,0.5699962,-0.7300042,1.229654,-0.3535996,4.225399,1.181717,0.4805351,-1.088006,-0.2452475,-1.025493,3.383958,0.3661202,-0.8233992,1.457009,-0.2026889,303.8189,169.2035,66.05808
3,0.6333337,-0.6617115,0.7002093,-1.601319,-0.8813055,-1.264167,-2.244198,-1.073663,-0.01735397,0,0,6.181818,0.5557742,-0.7125514,1.189469,-0.3560732,4.185804,1.213134,0.4753538,-1.03959,-0.2250189,-1.030702,3.373765,0.3662853,-0.824049,1.46634,-0.1985758,304.093,168.6245,67.46288
3,0.6444448,-0.6639316,0.6661389,-1.605766,-0.875111,-1.288074,-2.221399,-1.074364,-0.06379487,0,0,6.181818,0.5295018,-0.6269956,1.171302,-0.3559123,4.147755,1.243826,0.4800026,-1.023461,-0.2215322,-1.036788,3.362906,0.3663266,-0.8243626,1.475706,-0.194775,304.3529,167.9604,68.86511
3,0.655556,-0.6606032,0.6074705,-1.592299,-0.8686289,-1.309739,-2.200398,-1.075074,-0.06435083,0,0,6.181818,0.5158296,-0.5767092,1.158024,-0.3565083,4.109745,1.274256,0.4964477,-1.038258,-0.2454107,-1.044469,3.351163,0.3663508,-0.824432,1.48513,-0.1912627,304.5921,166.9733,70.54041
3,0.6666671,-0.6615465,0.5860831,-1.582848,-0.8632376,-1.332511,-2.178369,-1.074492,0.05372597,0,0,4.848485,0.5062954,-0.5338695,1.138244,-0.3573792,4.073685,1.302847,0.500255,-1.054847,-0.2606843,-1.051941,3.33939,0.3666563,-0.8242782,1.494502,-0.1879121,304.8705,165.7024,72.42757
3,0.6777782,-0.659454,0.5558243,-1.501012,-0.8597243,-1.351542,-2.15897,-1.074923,-0.03994896,0,0,4.848485,0.5060833,-0.531599,1.120144,-0.3602937,4.037297,1.331341,0.467725,-1.040527,-0.2484057,-1.058089,3.328544,0.3679543,-0.8240299,1.503851,-0.1846239,305.2495,164.4781,74.2268
3,0.6888894,-0.655727,0.5320841,-1.455405,-0.8558558,-1.371501,-2.138709,-1.074788,0.01264301,0,0,4.848485,0.4948311,-0.5321835,1.070199,-0.3637415,4.005372,1.35606,0.4498171,-0.997515,-0.2516457,-1.064223,3.319521,0.3679879,-0.8237248,1.513054,-0.1813508,305.6288,163.2446,76.12041
3,0.7000005,-0.6583958,0.4956526,-1.412969,-0.8519223,-1.390644,-2.118926,-1.07506,-0.02482025,0,0,4.848485,0.4536791,-0.5218023,1.008986,-0.3672403,3.976788,1.379103,0.4346974,-0.942008,-0.2344078,-1.069261,3.311214,0.3676457,-0.8232772,1.522037,-0.1780407,305.9337,162.1891,77.93258
3,0.7111117,-0.6547855,0.4602031,-1.371672,-0.8480623,-1.409099,-2.099352,-1.074899,0.01503977,0,0,4.848485,0.417227,-0.5171132,0.9870828,-0.3709245,3.946211,1.404204,0.4369029,-0.894125,-0.224902,-1.074281,3.302886,0.3668393,-0.8225806,1.530619,-0.174784,306.0981,161.2796,79.72379
3,0.7222228,-0.6532667,0.3992773,-1.333695,-0.8433411,-1.426777,-2.080642,-1.074881,0.00138429,0,0,6.787879,0.381862,-0.5081778,0.9652019,-0.3747163,3.916356,1.428943,0.4366758,-0.8652617,-0.2285761,-1.079895,3.2947,0.3658459,-0.8217095,1.53879,-0.1717497,306.343,160.5978,81.26844
3,0.7333339,-0.6497777,0.3682532,-1.309407,-0.8395258,-1.444773,-2.061751,-1.074711,0.01547048,0,0,6.787879,0.3751498,-0.5036111,0.9344202,-0.3787985,3.889024,1.450279,0.4198999,-0.8271689,-0.2500265,-1.086024,3.287503,0.3651732,-0.8207359,1.54656,-0.1690385,306.679,160.0175,82.59546
3,0.7444451,-0.6386779,0.3242911,-1.266111,-0.835562,-1.461106,-2.043979,-1.075119,-0.03739838,0,0,6.787879,0.369682,-0.4660158,0.9007038,-0.3817886,3.863755,1.469739,0.4051231,-0.8055171,-0.2452041,-1.091323,3.279915,0.3647101,-0.8196625,1.554029,-0.1667338,307.0569,159.5885,83.67606
3,0.7555562,-0.6271974,0.2951517,-1.197165,-0.8328056,-1.475958,-2.027526,-1.075245,-0.01123967,0,0,6.787879,0.3578225,-0.4454638,0.8765123,-0.3850143,3.838768,1.489336,0.376237,-0.7762302,-0.2272911,-1.095661,3.272457,0.3650243,-0.8185559,1.561229,-0.1648652,307.5165,159.0308,84.74728
3,0.7666674,-0.621358,0.2820786,-1.15256,-0.8302889,-1.49138,-2.010282,-1.075291,-0.004058245,0,0,5.575758,0.325233,-0.4469532,0.8246818,-0.3894697,3.818298,1.505772,0.3700197,-0.7552693,-0.2225519,-1.100553,3.265283,0.36439,-0.8173131,1.568162,-0.1632463,307.9815,158.3482,85.77283
3,0.7777785,-0.6076463,0.2443525,-1.07517,-0.8276966,-1.503908,-1.995622,-1.07561,-0.02923752,0,0,5.575758,0.2900171,-0.4295676,0.8103188,-0.3934442,3.795291,1.524978,0.3573115,-0.7335702,-0.2187175,-1.105326,3.257788,0.3644259,-0.8159338,1.574838,-0.1618345,308.3951,157.6792,86.77558
3,0.7888896,-0.5997875,0.2185431,-1.038116,-0.8249067,-1.517708,-1.979711,-1.075219,0.03603762,0,0,5.575758,0.2756295,-0.3827348,0.8279171,-0.3958533,3.769473,1.546255,0.3489673,-0.7127016,-0.2139655,-1.109969,3.251112,0.3638011,-0.8144106,1.581247,-0.1605892,308.7453,157.0802,87.70064
3,0.8000008,-0.5830835,0.1819814,-0.9788777,-0.8221141,-1.529457,-1.966043,-1.075771,-0.05087392,0,0,5.575758,0.2530699,-0.340699,0.7880448,-0.398141,3.749404,1.562564,0.3368755,-0.7049156,-0.2092456,-1.114367,3.242708,0.3644589,-0.8127817,1.5875,-0.1595147,309.0897,156.6483,88.47379
3,0.8111119,-0.5834054,0.1561122,-0.9225895,-0.8195623,-1.540998,-1.952069,-1.075404,0.03394533,0,0,5.575758,0.2283973,-0.3232894,0.7639748,-0.4012031,3.729487,1.579164,0.3281217,-0.6727023,-0.191361,-1.118193,3.235263,0.3643127,-0.8110582,1.593543,-0.158648,309.4318,156.1376,89.36445
3,0.8222231,-0.5945648,0.1473468,-0.875625,-0.8178706,-1.552074,-1.937524,-1.07615,-0.06864627,0,0,3.757576,0.178199,-0.3046628,0.7434141,-0.4041981,3.710396,1.596437,0.3162659,-0.6426268,-0.174683,-1.121671,3.229454,0.3637247,-0.8092601,1.599392,-0.157979,309.8276,155.621,90.211
3,0.8333342,-0.6096457,0.1203511,-0.8042462,-0.8158232,-1.560913,-1.924557,-1.075707,0.04100067,0,0,3.757576,0.1461523,-0.2936805,0.730033,-0.4073731,3.691209,1.613575,0.2946028,-0.609736,-0.1641806,-1.125289,3.223092,0.3640714,-0.8074244,1.604954,-0.1574767,310.2183,154.9625,91.15204
3,0.8444453,-0.6325299,0.08602557,-0.7551613,-0.8133166,-1.569749,-1.910721,-1.074709,0.09087042,0,0,3.757576,0.1032822,-0.2814355,0.7018702,-0.4104474,3.674398,1.629332,0.2827388,-0.5824926,-0.165676,-1.129071,3.218049,0.3634562,-0.8056829,1.610261,-0.1571922,310.571,154.4284,91.92545
3,0.8555565,-0.6575574,0.04960167,-0.7092608,-0.8106204,4.705556,-1.897583,-1.07467,0.002858931,0,0,3.757576,0.08202839,-0.2663391,0.6969117,-0.4134046,3.656143,1.645704,0.2710241,-0.5605997,-0.1704217,-1.133315,3.212378,0.3635385,-0.8040204,1.615401,-0.1571358,310.8647,154.0865,92.4894
3,0.8666676,-0.6720173,0.02810262,-0.669788,-0.808385,4.697848,-1.884531,-1.073883,0.07195865,0,0,7.030303,0.07413274,-0.2691981,0.6618236,-0.4169205,3.641754,1.658302,0.2629248,-0.5450682,-0.1647217,-1.136749,3.207408,0.3630421,-0.8022742,1.620345,-0.1573626,311.1231,153.8205,93.04924
3,0.8777788,-0.689232,0.0213449,-0.5971851,-0.8071802,4.692444,-1.872925,-1.073961,-0.007733055,0,0,7.030303,0.04911512,-0.2804453,0.6258002,-0.4208317,3.628999,1.670308,0.2555476,-0.5230485,-0.164187,-1.140236,3.202526,0.362616,-0.8005055,1.625168,-0.1580248,311.4417,153.5385,93.61313
3,0.8888899,-0.6999714,0.02944797,-0.518181,-0.8069026,4.687952,-1.861837,-1.074089,-0.01140341,0,0,7.030303,0.001110792,-0.3232294,0.5557051,-0.4263444,3.62168,1.678646,0.2268167,-0.5262198,-0.1746664,-1.144504,3.197335,0.3632341,-0.7986591,1.629842,-0.159115,311.8168,153.1013,94.18143
3,0.900001,-0.7116227,0.03749099,-0.427442,-0.8070624,4.685368,-1.852052,-1.074083,0.0006933387,0,0,7.030303,-0.06962979,-0.3042386,0.5087532,-0.4293516,3.612706,1.689996,0.1965783,-0.5180645,-0.1699714,-1.148248,3.192127,0.3645998,-0.7967088,1.634426,-0.1605993,312.1735,152.5846,94.68927
3,0.9111122,-0.7110044,0.03288832,-0.3741721,-0.8064861,4.682629,-1.842159,-1.074085,-7.723871E-05,0,0,7.030303,-0.1440047,-0.232153,0.4846518,-0.4300558,3.602154,1.70374,0.1647091,-0.4912376,-0.1404137,-1.150406,3.187746,0.3656627,-0.7947214,1.638893,-0.1624771,312.4403,151.8911,95.31313
3,0.9222233,-0.7196662,0.01649603,-0.2963835,-0.8060089,4.682091,-1.833784,-1.07418,-0.008583304,0,0,11.51515,-0.2241378,-0.1208601,0.4907646,-0.4285101,3.587894,1.721624,0.1457151,-0.4679248,-0.1206203,-1.15256,3.183588,0.3664195,-0.7927564,1.643262,-0.1647482,312.6473,151.1489,95.93606
3,0.9333345,-0.7465638,0.003384471,-0.2290187,-0.8055381,4.68175,-1.824416,-1.074291,-0.01004726,0,0,11.51515,-0.268572,-0.05440703,0.479048,-0.4276392,3.575461,1.737489,0.1359876,-0.4377276,-0.1050325,-1.154495,3.179889,0.3667184,-0.790735,1.647418,-0.1673681,312.8193,150.4094,96.56375
3,0.9444456,-0.7915753,-0.00330627,-0.1624611,-0.8053612,4.682251,-1.814465,-1.074387,-0.008601611,0,0,11.51515,-0.3242015,-0.01533738,0.4374085,-0.4272904,3.56691,1.750661,0.1330004,-0.3912034,-0.0913133,-1.156031,3.177231,0.3663585,-0.7886062,1.651342,-0.1703163,313.0644,149.7532,97.06698
3,0.9555568,-0.8504937,-0.002476692,-0.1020968,-0.8055007,4.683148,-1.803992,-1.073379,0.0923316,0,0,11.51515,-0.3663297,-0.02320665,0.3930922,-0.4284909,3.560684,1.761587,0.1172986,-0.3237588,-0.08456245,-1.157655,3.176288,0.3659497,-0.786486,1.654967,-0.1735528,313.3459,148.9127,97.63437
3,0.9666679,-0.8926499,-0.007948875,-0.06326604,-0.8054075,4.684075,-1.793351,-1.072301,0.09791066,0,0,13.93939,-0.3849065,-0.05594149,0.3728044,-0.4308473,3.553378,1.773136,0.1100767,-0.2793815,-0.07937341,-1.158859,3.174964,0.3655093,-0.7845419,1.658383,-0.1771256,313.5934,148.1372,98.06334
3,0.977779,-0.9484167,-0.001781881,-0.006095044,-0.8060483,4.68659,-1.78262,-1.071714,0.05304705,0,0,13.93939,-0.3930873,-0.09498987,0.3342343,-0.4337022,3.548576,1.781983,0.1075571,-0.224718,-0.09853038,-1.160691,3.175134,0.364313,-0.7828177,1.661728,-0.1810897,313.7844,147.5267,98.32661
3,0.9888902,-0.9869739,0.007489979,0.06258631,-0.8069698,4.690461,-1.773473,-1.071857,-0.01310943,0,0,13.93939,-0.4532509,-0.1941182,0.2595665,-0.4392735,3.550574,1.787174,0.0792703,-0.1639446,-0.1056322,-1.161898,3.176007,0.3640592,-0.7811574,1.665089,-0.1854319,313.9755,147.012,98.48025
3,1.000001,-1.003616,0.01585829,0.09478984,-0.8078071,4.693112,-1.763732,-1.071107,0.06903373,0,0,13.93939,-0.4717276,-0.2087189,0.2372871,-0.4422072,3.547593,1.795763,0.05516306,-0.1311598,-0.1442159,-1.164806,3.176743,0.36397,-0.7794043,1.668531,-0.1900309,314.2257,146.3968,98.6229
3,1.011112,-1.019112,0.01352817,0.1354475,-0.8084878,4.697226,-1.754574,-1.072094,-0.09060854,0,0,13.93939,-0.5454434,-0.1695415,0.1979972,-0.4430169,3.546498,1.805515,0.0370765,-0.08672523,-0.1655737,-1.167048,3.178205,0.3635841,-0.7775271,1.672157,-0.1949024,314.4048,145.6391,98.89864
3,1.022224,-1.031648,0.01023948,0.1558064,-0.8087706,4.700299,-1.745217,-1.072837,-0.0668347,0,0,18.06061,-0.5960884,-0.1256356,0.2138788,-0.4433678,3.539396,1.820011,0.03482597,-0.06104635,-0.1746433,-1.169052,3.179293,0.3628525,-0.7753388,1.675848,-0.199947,314.5838,144.6768,99.37788
3,1.033335,-1.048198,0.005775809,0.1964319,-0.8090737,4.704961,-1.736745,-1.072778,0.00618893,0,0,18.06061,-0.6161929,-0.1245194,0.2247812,-0.4453418,3.53377,1.832528,0.03832607,-0.04283407,-0.1711204,-1.170633,3.180134,0.3619904,-0.7729251,1.679613,-0.2051037,314.8472,143.608,99.89996
3,1.044446,-1.068026,0.0002866983,0.2317963,-0.8095748,4.710141,-1.727765,-1.073535,-0.06912415,0,0,18.06061,-0.6603937,-0.1591797,0.20158,-0.4487096,3.532462,1.842509,0.02380496,-0.003913803,-0.175567,-1.172132,3.182223,0.361392,-0.7705313,1.683536,-0.2104522,315.1279,142.4915,100.4587
3,1.055557,-1.085927,-0.001902938,0.2490287,-0.8099946,-1.568645,-1.718243,-1.073615,-0.00662504,0,0,18.06061,-0.6948251,-0.1726169,0.1805668,-0.4512758,3.531464,1.852245,-0.004858166,0.04277216,-0.1722852,-1.173144,3.184899,0.361335,-0.7681392,1.687498,-0.2158591,315.459,141.325,101.0579
3,1.066668,-1.129018,-0.003170609,0.2985442,-0.8106433,-1.561714,-1.709125,-1.072947,0.06125161,0,0,18.06061,-0.7453507,-0.1837343,0.1491158,-0.4537424,3.531662,1.861919,-0.01681969,0.07312635,-0.1694616,-1.17414,3.187461,0.3609486,-0.7657695,1.691387,-0.2212749,315.7375,140.1584,101.6812
3,1.077779,-1.191282,0.02012628,0.3441335,-0.8123233,-1.554914,-1.698943,-1.073098,-0.01419415,0,0,22.78788,-0.786196,-0.1971126,0.126057,-0.4563172,3.532083,1.871361,-0.03499876,0.09802844,-0.1741513,-1.175361,3.190255,0.360898,-0.7635132,1.695221,-0.2267721,315.9564,139.1113,102.2179
3,1.08889,-1.239682,0.02952039,0.3937706,-0.8137773,-1.546864,-1.68918,-1.072058,0.09542413,0,0,22.78788,-0.8584743,-0.1667585,0.122903,-0.457506,3.530237,1.884963,-0.054787,0.1308528,-0.2053112,-1.177574,3.194125,0.3607023,-0.7612793,1.698949,-0.2322969,316.182,138.1562,102.6593
3,1.100002,-1.269145,0.0230056,0.4249517,-0.8143036,-1.53933,-1.679729,-1.071327,0.0662287,0,0,22.78788,-0.875498,-0.1473876,0.1136761,-0.458689,3.528589,1.896461,-0.07012504,0.1595852,-0.2355225,-1.180006,3.197832,0.3604474,-0.7590669,1.702622,-0.2379695,316.3087,137.2347,103.0905
3,1.111113,-1.289144,0.01439786,0.4464498,-0.8147835,-1.531573,-1.670107,-1.071257,0.006291139,0,0,22.78788,-0.8971848,-0.1694568,0.09457804,-0.4613032,3.529674,1.906157,-0.09429349,0.1953768,-0.2644546,-1.182448,3.202657,0.3604178,-0.7567723,1.70628,-0.2438741,316.3814,136.3304,103.4979
3,1.122224,-1.308072,0.01750267,0.466906,-0.8154876,-1.523893,-1.660485,-1.072357,-0.1003139,0,0,19.39394,-0.9211002,-0.198935,0.07118596,-0.4644404,3.532061,1.91482,-0.1097899,0.2292472,-0.2849675,-1.184728,3.207866,0.3601731,-0.7543175,1.709987,-0.250096,316.4885,135.4026,103.8748
3,1.133335,-1.337554,0.04616749,0.4918841,-0.8173188,-1.51556,-1.650451,-1.072522,-0.01385461,0,0,19.39394,-0.9441531,-0.2368458,0.03599434,-0.4679217,3.536671,1.922084,-0.1165179,0.2562492,-0.3174342,-1.187872,3.213374,0.3597257,-0.7515904,1.713659,-0.25657,316.7379,134.3438,104.2857
3,1.144446,-1.3691,0.08014286,0.5222762,-0.8198659,-1.506469,-1.640183,-1.072884,-0.03292663,0,0,19.39394,-1.004981,-0.2891482,-0.03189307,-0.4717768,3.546158,1.926913,-0.1263226,0.3015793,-0.339942,-1.186201,3.223255,0.3465958,-0.7486106,1.717311,-0.2632567,317.0412,133.2006,104.67
3,1.155557,-1.381436,0.1076658,0.5555471,-0.8221727,-1.496869,-1.631232,-1.072364,0.04803288,0,0,19.39394,-1.075667,-0.2969543,-0.05881004,-0.4743596,3.552002,1.93601,-0.1499347,0.3293267,-0.3392129,-1.188173,3.2294,0.3468149,-0.7453374,1.720906,-0.2700368,317.346,131.9794,105.071
3,1.166668,-1.396732,0.1233656,0.6112146,-0.8246925,-1.485291,-1.622822,-1.071887,0.04337704,0,0,19.39394,-1.109911,-0.2245558,-0.02372076,-0.4747292,3.5503,1.951257,-0.1644547,0.3552729,-0.3214166,-1.185517,3.237761,0.3408335,-0.7419339,1.724584,-0.276969,317.5945,130.7,105.4952
3,1.17778,-1.411544,0.1243807,0.6198937,-0.8261717,-1.475727,-1.61325,-1.073156,-0.1161191,0,0,13.57576,-1.104706,-0.2073821,-0.04388796,-0.4758638,3.554121,1.959715,-0.1630209,0.3712856,-0.3189675,-1.187249,3.243757,0.3403206,-0.7384654,1.728454,-0.284078,317.7941,129.4004,105.9439
3,1.188891,-1.432483,0.1242443,0.6510367,-0.8278841,-1.464541,-1.604127,-1.072803,0.03353846,0,0,13.57576,-1.121511,-0.2345367,-0.09717837,-0.4780869,3.562952,1.964885,-0.1892901,0.4111729,-0.3392286,-1.188291,3.252027,0.3378329,-0.7348512,1.732358,-0.2912217,318.0327,127.9824,106.518
3,1.200002,-1.447794,0.1356882,0.7055856,-0.8300317,-1.451774,-1.596273,-1.073216,-0.03796507,0,0,13.57576,-1.122478,-0.2517315,-0.07921356,-0.4812646,3.5669,1.973972,-0.2058897,0.4431341,-0.3789923,-1.191351,3.258881,0.3375503,-0.7311709,1.736261,-0.2984369,318.25,126.5279,107.1343
3,1.211113,-1.461272,0.1461987,0.7356332,-0.8322506,-1.439269,-1.587851,-1.072877,0.0315599,0,0,13.57576,-1.123566,-0.2624112,-0.07502574,-0.4839928,3.571034,1.982944,-0.1910485,0.4677469,-0.4064111,-1.194298,3.266795,0.3367975,-0.7273263,1.740005,-0.3055648,318.5547,125.1625,107.6456
3,1.222224,-1.478659,0.1800019,0.7924758,-0.8354597,-1.425167,-1.580462,-1.073289,-0.03783373,0,0,11.75758,-1.171142,-0.2915521,-0.1173195,-0.4865515,3.579996,1.989431,-0.2011196,0.5015493,-0.4120542,-1.19661,3.27522,0.3361929,-0.7233938,1.743647,-0.312657,318.8025,123.8268,108.0999
3,1.233335,-1.48484,0.1862985,0.8095955,-0.8375642,-1.412735,-1.572447,-1.073198,0.008840501,0,0,11.75758,-1.208187,-0.2625629,-0.1134457,-0.4878006,3.583955,2.00057,-0.2366674,0.5360392,-0.4047289,-1.196738,3.283174,0.336484,-0.7193639,1.747168,-0.3197486,318.9624,122.4696,108.5795
3,1.244446,-1.509284,0.1980369,0.813144,-0.8401527,-1.400313,-1.563071,-1.073383,-0.01693679,0,0,11.75758,-1.233878,-0.240891,-0.1364107,-0.4883124,3.589856,2.00996,-0.2621886,0.5828385,-0.4015014,-1.198168,3.29297,0.3367056,-0.7152541,1.7506,-0.3268815,319.0952,121.1343,109.031
3,1.255558,-1.524156,0.1948291,0.8175489,-0.8419472,-1.388334,-1.554098,-1.074107,-0.06586593,0,0,11.75758,-1.241698,-0.2598583,-0.1567186,-0.4905846,3.597736,2.016441,-0.2717496,0.6086583,-0.3806821,-1.198885,3.301831,0.3367711,-0.7110472,1.753949,-0.3340974,319.2026,119.778,109.5099
3,1.266669,-1.52309,0.1873647,0.818561,-0.8436095,-1.376087,-1.545404,-1.073029,0.09927453,0,0,11.75758,-1.232152,-0.269528,-0.1547804,-0.492884,3.60404,2.024238,-0.2984605,0.6365338,-0.3873007,-1.198054,3.312312,0.3339423,-0.7067218,1.757157,-0.3412897,319.4473,118.4499,109.8755
3,1.27778,-1.517724,0.1798562,0.8237553,-0.8449033,-1.363844,-1.537182,-1.073797,-0.07105269,0,0,16.36364,-1.215207,-0.2695661,-0.1635159,-0.494492,3.610665,2.030984,-0.3159981,0.6477424,-0.3975798,-1.199715,3.321604,0.3332312,-0.7023434,1.760388,-0.3484376,319.7163,117.1942,110.0704
3,1.288891,-1.479182,0.1679803,0.8413481,-0.8460585,-1.350456,-1.530912,-1.074181,-0.03420093,0,0,16.36364,-1.232764,-0.2883641,-0.1954219,-0.4964942,3.620412,2.036623,-0.3448158,0.6467374,-0.411278,-1.202105,3.330601,0.3348209,-0.6978123,1.763596,-0.3553291,320.0151,115.9497,110.2515
3,1.300002,-1.427812,0.1709968,0.8609955,-0.8477534,-1.336797,-1.525705,-1.074794,-0.05581131,0,0,16.36364,-1.255539,-0.2565457,-0.1586798,-0.4978369,3.623641,2.048431,-0.3697108,0.654353,-0.4194918,-1.204248,3.34022,0.3359815,-0.6931929,1.766847,-0.3620008,320.2849,114.6652,110.5752
3,1.311113,-1.393384,0.1803806,0.8883417,-0.8496267,-1.322233,-1.52097,-1.076069,-0.1160977,0,0,16.36364,-1.272166,-0.233168,-0.1369829,-0.4990423,3.626998,2.060208,-0.3790187,0.6943676,-0.4164645,-1.204278,3.350517,0.3374926,-0.6884681,1.770048,-0.3684658,320.539,113.3456,111.0473
3,1.322224,-1.336485,0.2110081,0.9219224,-0.8525136,-1.306983,-1.517778,-1.076983,-0.08275822,0,0,16.36364,-1.295954,-0.246673,-0.1591902,-0.5006444,3.634656,2.068544,-0.4101645,0.7491797,-0.4013316,-1.20488,3.361689,0.3389142,-0.6836926,1.773054,-0.3746745,320.8265,111.9218,111.5535
3,1.333336,-1.317212,0.2279788,0.9281591,-0.8548641,-1.293114,-1.512797,-1.076753,0.02153748,0,0,15.51515,-1.310881,-0.2533284,-0.2453722,-0.5007665,3.648269,2.071625,-0.4359941,0.7780232,-0.4092013,-1.208245,3.372806,0.3402622,-0.6789769,1.775728,-0.3805455,321.0887,110.4323,112.0421
3,1.344447,-1.285042,0.2672752,0.9407804,-0.8585504,-1.278412,-1.509156,-1.077584,-0.07645793,0,0,15.51515,-1.306101,-0.2198126,-0.3101456,-0.4993608,3.659878,2.075868,-0.4667333,0.7933928,-0.4503139,-1.211786,3.38333,0.342502,-0.6744851,1.77816,-0.386295,321.2222,109.0162,112.5335
3,1.355558,-1.236636,0.3149505,0.9745481,-0.8628157,-1.262476,-1.507245,-1.076566,0.09349322,0,0,15.51515,-1.30868,-0.2312399,-0.3411002,-0.4995424,3.671088,2.080575,-0.4836377,0.8335546,-0.4728468,-1.21385,3.395404,0.3444977,-0.6702588,1.780242,-0.3919469,321.3035,107.6542,113.0448
3,1.366669,-1.171131,0.3700421,1.011369,-0.8680233,-1.245596,-1.507079,-1.077027,-0.0431145,0,0,15.51515,-1.317981,-0.2349306,-0.4038784,-0.4987558,3.686061,2.082534,-0.4988243,0.887152,-0.4727938,-1.215082,3.407616,0.3459286,-0.6663391,1.782064,-0.3975913,321.3604,106.5112,113.3382
3,1.37778,-1.096169,0.4230529,1.03846,-0.8735754,-1.229118,-1.507468,-1.077798,-0.07025762,0,0,22.54546,-1.316808,-0.2289475,-0.4880216,-0.4970226,3.703539,2.081796,-0.5267421,0.9359465,-0.4716108,-1.215379,3.421042,0.3489492,-0.6627013,1.783683,-0.4031563,321.3596,105.4135,113.5064
3,1.388891,-1.053317,0.4580542,1.05413,-0.8790999,-1.212612,-1.507567,-1.078718,-0.08381882,0,0,22.54546,-1.32276,-0.2327642,-0.5380559,-0.4956462,3.720548,2.081899,-0.5290765,0.9664172,-0.4539435,-1.215576,3.434576,0.3502446,-0.6592951,1.785051,-0.4084962,321.2599,104.2502,113.7181
3,1.400002,-0.9785386,0.5047321,1.06732,-0.8853093,-1.1967,-1.509149,-1.079247,-0.04797778,0,0,22.54546,-1.311944,-0.2340041,-0.5232699,-0.4953117,3.73246,2.085686,-0.5239239,0.991539,-0.4322818,-1.217025,3.445454,0.3533202,-0.6561418,1.786149,-0.4135922,321.0954,103.0235,114.0341
3,1.411114,-0.8952293,0.5343498,1.082478,-0.8913781,-1.180234,-1.512078,-1.07857,0.06186172,0,0,22.54546,-1.285472,-0.2597792,-0.5227304,-0.4958348,3.746583,2.086668,-0.5306484,1.024077,-0.4209443,-1.216745,3.459502,0.3545381,-0.6532718,1.786953,-0.4183975,320.9161,101.8388,114.3507
3,1.422225,-0.7917342,0.5469015,1.095172,-0.897138,-1.163812,-1.516703,-1.079917,-0.1240393,0,0,22.54546,-1.271888,-0.2757322,-0.5358111,-0.4957117,3.761945,2.086842,-0.5417998,1.056702,-0.4298939,-1.217647,3.473003,0.3562732,-0.6506936,1.787575,-0.4230023,320.673,100.7954,114.5975
3,1.433336,-0.7181413,0.5595248,1.102884,-0.9030108,-1.147724,-1.520796,-1.080557,-0.05794749,0,0,15.39394,-1.247374,-0.2609251,-0.543441,-0.4946992,3.775957,2.087456,-0.553586,1.079926,-0.4442802,-1.21827,3.487727,0.3577179,-0.6483618,1.787918,-0.4272127,320.4509,99.76498,114.8255
3,1.444447,-0.6158929,0.5668378,1.099599,-0.9090557,-1.132098,-1.527146,-1.08171,-0.1054412,0,0,15.39394,-1.222,-0.2063574,-0.5912516,-0.4907061,3.791551,2.086254,-0.5624587,1.128388,-0.446515,-1.218238,3.501623,0.3603715,-0.6463694,1.787985,-0.4310834,320.2061,98.64742,115.189
3,1.455558,-0.5808873,0.5924284,1.085464,-0.9159436,-1.117348,-1.530469,-1.080817,0.08199044,0,0,15.39394,-1.196952,-0.1580081,-0.6625431,-0.4860461,3.809978,2.082379,-0.5706649,1.169495,-0.4403368,-1.217498,3.51772,0.3613601,-0.6448377,1.787786,-0.4348116,319.9436,97.523,115.6268
3,1.466669,-0.4967703,0.6168371,1.078223,-0.9232939,-1.102409,-1.537009,-1.082512,-0.1563493,0,0,15.39394,-1.147653,-0.1492652,-0.7323107,-0.4821514,3.831115,2.074663,-0.5832546,1.212349,-0.4299104,-1.216803,3.533362,0.3629737,-0.6438069,1.787348,-0.4384445,319.5992,96.56796,115.9167
3,1.47778,-0.4042248,0.6508063,1.068751,-0.9310475,-1.088442,-1.544254,-1.079522,0.2741608,0,0,17.45455,-1.105442,-0.1589289,-0.7616706,-0.4798862,3.85111,2.067797,-0.5859382,1.243766,-0.415492,-1.216164,3.548736,0.3651007,-0.643306,1.786584,-0.4419235,319.2454,95.68352,116.1568
3,1.488891,-0.3244739,0.696596,1.049963,-0.9401773,-1.074581,-1.551518,-1.081618,-0.1947024,0,0,17.45455,-1.089532,-0.1761165,-0.7577384,-0.4782036,3.869505,2.063033,-0.5847536,1.243487,-0.3984576,-1.214785,3.563996,0.3662307,-0.643302,1.785737,-0.4453559,318.7118,95.04568,116.2352
3,1.500003,-0.255643,0.7350656,1.024775,-0.9498553,-1.062943,-1.556476,-1.082491,-0.07848024,0,0,17.45455,-1.071267,-0.1849006,-0.742068,-0.4767735,3.886639,2.059013,-0.5989529,1.245703,-0.3898704,-1.21422,3.578399,0.3693719,-0.6437009,1.78463,-0.4482319,318.3023,94.55016,115.8158
3,1.511114,-0.1929677,0.7499545,1.000698,-0.9578804,-1.049845,-1.564192,-1.081854,0.05808786,0,0,17.45455,-1.044982,-0.139542,-0.7100642,-0.473574,3.90007,2.057655,-0.6031017,1.26358,-0.387271,-1.212295,3.594674,0.3712449,-0.6446531,1.783333,-0.4497358,317.8772,94.05467,115.1276
3,1.522225,-0.1569912,0.7499948,0.9810908,-0.9659397,-1.037301,-1.570607,-1.08006,0.1627782,0,0,17.45455,-0.993005,-0.06127059,-0.6844745,-0.4686407,3.911351,2.05695,-0.5907816,1.272762,-0.3936248,-1.21159,3.610834,0.3718364,-0.6463848,1.782311,-0.450556,317.3898,93.31633,115.2144
3,1.533336,-0.1200384,0.751013,0.9551936,-0.9740293,-1.025815,-1.576928,-1.081136,-0.1002227,0,0,11.15152,-0.9422607,-0.05492365,-0.7223393,-0.4648835,3.930222,2.04867,-0.5730367,1.283876,-0.3754307,-1.209643,3.626448,0.3719243,-0.6489463,1.781685,-0.4509327,316.613,92.29819,116.4914
3,1.544447,-0.08825022,0.7793303,0.9328492,-0.9908328,-1.012048,-1.585544,-1.079711,0.1309892,0,0,11.15152,-0.917362,-0.08353782,-0.7622879,-0.4621719,3.951633,2.038858,-0.5537267,1.309608,-0.3356549,-1.206454,3.643248,0.3717674,-0.6520199,1.781969,-0.4537242,315.5461,91.11848,119.4697
3,1.555558,-0.07243568,0.8049035,0.923196,-1.000566,-1.000491,-1.591067,-1.079493,0.01819904,0,0,11.15152,-0.8686723,-0.1557031,-0.8380356,-0.4608387,3.979836,2.021677,-0.5391893,1.319632,-0.3238852,-1.204367,3.659595,0.3717411,-0.654691,1.781398,-0.457278,314.7442,90.56149,120.7286
3,1.566669,-0.0141207,0.8544971,0.9020762,-1.013168,-0.9889766,-1.599072,-1.080048,-0.05128058,0,0,11.15152,-0.8297209,-0.170758,-0.8651736,-0.4591785,4.002765,2.009133,-0.5283263,1.319547,-0.2941329,-1.201105,3.675225,0.3715946,-0.6567451,1.779719,-0.4607586,314.0916,90.29391,120.3469
3,1.577781,0.02456313,0.8763661,0.892588,-1.024497,-0.979215,-1.605199,-1.077818,0.2036507,0,0,11.39394,-0.7871631,-0.1442523,-0.885704,-0.4553925,4.024914,1.996604,-0.5196009,1.317304,-0.2696804,-1.197385,3.69035,0.3718822,-0.6584762,1.777371,-0.4635171,313.315,89.69461,119.6327
3,1.588892,0.08536321,0.9093063,0.8824651,-1.036438,-0.968279,-1.614108,-1.079717,-0.1753564,0,0,11.39394,-0.7555816,-0.08285749,-0.8642957,-0.4508077,4.043088,1.987799,-0.5500383,1.281932,-0.2765162,-1.195644,3.704791,0.3737744,-0.6600834,1.775116,-0.466121,312.5095,89.16881,119.4716
3,1.600003,0.1237384,0.9379455,0.8842738,-1.04779,-0.9578022,-1.621974,-1.078615,0.1020124,0,0,11.39394,-0.7304527,-0.0320819,-0.8407434,-0.4461445,4.059866,1.979868,-0.5560102,1.277205,-0.258343,-1.192642,3.721265,0.3742471,-0.6616164,1.773081,-0.4687321,311.8854,88.45004,119.9074
3,1.611114,0.1762664,0.9867335,0.9020134,-1.060943,-0.9466552,-1.631317,-1.080203,-0.1466763,0,0,11.39394,-0.719876,0.04856139,-0.8039565,-0.4400586,4.071764,1.976781,-0.54813,1.270792,-0.2393449,-1.189498,3.735706,0.3745883,-0.6631669,1.77114,-0.4711876,311.3789,87.59647,120.4551
3,1.622225,0.2097495,1.039673,0.939203,-1.074035,-0.934394,-1.640312,-1.079139,0.09832539,0,0,11.39394,-0.7015514,0.07076567,-0.7986653,-0.4353661,4.088923,1.96835,-0.5035086,1.251685,-0.1932362,-1.185351,3.750805,0.3749933,-0.6648605,1.769276,-0.4735979,310.855,86.55489,121.1636
3,1.633336,0.2335092,1.09917,0.9584218,-1.088683,-0.9230692,-1.648703,-1.079689,-0.05171194,0,0,10.18182,-0.6496228,0.01782501,-0.8817552,-0.432279,4.118053,1.94723,-0.4328513,1.194246,-0.1991312,-1.183365,3.764243,0.3734758,-0.6667867,1.767482,-0.4759844,310.2411,85.58671,121.7882
3,1.644447,0.2613018,1.16617,0.962724,-1.103828,-0.912709,-1.65706,-1.078477,0.1109016,0,0,10.18182,-0.5647183,-0.07419109,-1.03587,-0.4303711,4.159394,1.912868,-0.4305938,1.089833,-0.2533837,-1.184958,3.774838,0.3741558,-0.6689699,1.765476,-0.4781857,309.6252,84.39758,122.6819
3,1.655559,0.2934021,1.197985,0.9753078,-1.118671,-0.9018859,-1.665785,-1.077875,0.05383026,0,0,10.18182,-0.5355842,-0.05214494,-1.017923,-0.4265862,4.182419,1.896842,-0.4701859,1.113097,-0.2249939,-1.181504,3.790017,0.3773513,-0.6714771,1.76321,-0.4804278,308.9128,83.0753,123.8159
3,1.66667,0.3650515,1.214766,0.9947845,-1.133809,-0.8907043,-1.67713,-1.077986,-0.01098703,0,0,10.18182,-0.5447158,0.0228799,-0.9319515,-0.4214687,4.196611,1.890345,-0.4791602,1.177852,-0.174685,-1.176242,3.805315,0.3770261,-0.6742326,1.76064,-0.4827037,308.0799,81.926,124.8218
3,1.677781,0.443924,1.203912,1.007629,-1.148035,-0.8800474,-1.688302,-1.07794,0.004129965,0,0,10.18182,-0.5718369,0.1193488,-0.8487961,-0.4150643,4.208836,1.886293,-0.4931227,1.202235,-0.1475253,-1.171455,3.82003,0.3784711,-0.6771784,1.75774,-0.4849052,307.1857,80.96677,125.6203
3,1.688892,0.5001574,1.177236,0.992963,-1.161366,-0.8703588,-1.699632,-1.080115,-0.1991102,0,0,6.909091,-0.566469,0.1599495,-0.8644947,-0.4087702,4.230801,1.872625,-0.4549801,1.164113,-0.1272449,-1.167886,3.832103,0.3775497,-0.6802164,1.754654,-0.4870889,306.1675,80.11854,126.3643
3,1.700003,0.5179513,1.166638,0.9756718,-1.175315,-0.8610452,-1.70907,-1.079995,0.01235345,0,0,6.909091,-0.5133138,0.1785693,-0.9736485,-0.4022891,4.265075,1.845091,-0.4154792,1.141711,-0.09185436,-1.163613,3.844121,0.3770205,-0.6832397,1.75125,-0.4892116,305.2204,79.10041,127.3158
3,1.711114,0.5253583,1.174204,0.9564562,-1.190852,-0.8517183,-1.719122,-1.080011,-0.002202564,0,0,6.909091,-0.502335,0.1693972,-1.032458,-0.3973756,4.298019,1.819744,-0.3760539,1.148169,-0.05690046,-1.15833,3.857062,0.3745566,-0.6862292,1.747377,-0.4913056,304.3589,78.00279,128.3426
3,1.722225,0.5092256,1.191528,0.9289805,-1.207273,-0.8441486,-1.726738,-1.077841,0.1979632,0,0,6.909091,-0.5222604,0.1297104,-0.9835256,-0.3951439,4.32037,1.80563,-0.3763295,1.161795,0.009347662,-1.151282,3.8699,0.3745179,-0.6893222,1.743315,-0.4937354,303.5093,77.06179,129.1706
3,1.733337,0.4930587,1.174591,0.9184189,-1.221112,-0.8360296,-1.734304,-1.077902,-0.007583974,0,0,11.63636,-0.5376295,0.1144101,-0.9238004,-0.3925057,4.34058,1.793391,-0.3645391,1.142247,0.05681443,-1.144627,3.881906,0.3742391,-0.6925322,1.739282,-0.4965166,302.4957,76.34264,129.6672
3,1.744448,0.4691479,1.138593,0.888674,-1.233795,-0.8288812,-1.74092,-1.075981,0.1755831,0,0,11.63636,-0.5470995,0.1254877,-0.8265634,-0.3885296,4.35282,1.788294,-0.3401905,1.074159,0.04890764,-1.140983,3.891496,0.3733592,-0.6957072,1.735268,-0.4992295,301.3402,75.70123,129.9937
3,1.755559,0.4495827,1.101488,0.8631387,-1.246045,-0.8218324,-1.747518,-1.075449,0.04681656,0,0,11.63636,-0.5506242,0.1378521,-0.7720757,-0.3851123,4.369034,1.779414,-0.3044805,0.9856951,0.01815888,-1.138804,3.900264,0.3725813,-0.6987375,1.731508,-0.5016286,300.0898,75.16689,130.3228
3,1.76667,0.4179605,1.058131,0.8164203,-1.257303,-0.8160719,-1.752535,-1.07485,0.05471433,0,0,11.63636,-0.5408831,0.1323289,-0.7562565,-0.3822851,4.388852,1.766718,-0.2913517,0.9290223,0.00101462,-1.136249,3.909134,0.3716567,-0.7015097,1.728312,-0.5039096,298.9962,74.53404,131.0063
3,1.777781,0.3821921,1.033909,0.7805209,-1.269103,-0.8103323,-1.756719,-1.074877,-0.002955463,0,0,11.63636,-0.5279803,0.1203781,-0.739457,-0.3799393,4.409042,1.753374,-0.288698,0.8919167,-0.003948331,-1.132871,3.918638,0.3713485,-0.7039155,1.725766,-0.506184,298.1752,73.68135,131.9611
3,1.788892,0.3445423,1.017095,0.7531774,-1.280911,-0.8047913,-1.760862,-1.073839,0.09504291,0,0,7.636364,-0.5255728,0.1233842,-0.7181529,-0.3772528,4.427531,1.741876,-0.3012821,0.8870948,-0.004993707,-1.129466,3.928561,0.3708508,-0.7059323,1.723801,-0.5084828,297.6098,72.50954,133.1125
3,1.800003,0.2993457,1.001394,0.7227272,-1.292681,-0.7997739,-1.763826,-1.073089,0.06776601,0,0,7.636364,-0.5205811,0.1324804,-0.6627363,-0.3746061,4.441248,1.734702,-0.2925905,0.880166,-0.01265292,-1.125993,3.938814,0.3700334,-0.7076604,1.72242,-0.5108541,297.2311,71.25237,134.1894
3,1.811115,0.2680511,0.9792504,0.6931476,-1.303831,-0.7949834,-1.767023,-1.073306,-0.02013461,0,0,7.636364,-0.5129024,0.1301297,-0.642595,-0.3722183,4.458067,1.724465,-0.2870125,0.8487366,-0.0292649,-1.123799,3.94778,0.3691573,-0.7091534,1.721409,-0.5130991,296.9491,69.8039,135.3425
3,1.822226,0.220314,0.9498637,0.6328033,-1.313913,-0.7921903,-1.768014,-1.072609,0.06406924,0,0,7.636364,-0.4994181,0.06820798,-0.6379381,-0.3724287,4.477373,1.711561,-0.2791061,0.7885854,-0.04430841,-1.122194,3.955245,0.3691541,-0.710452,1.720614,-0.5151086,296.7025,68.2468,136.6274
3,1.833337,0.2121614,0.880883,0.5909522,-1.322346,-0.7886813,-1.770661,-1.073132,-0.04818545,0,0,10.54545,-0.4988542,0.05390197,-0.582657,-0.3716116,4.489833,1.705508,-0.2787672,0.7586662,-0.0406011,-1.119844,3.962956,0.3688614,-0.7116591,1.719959,-0.5168808,296.4914,66.69666,137.957
3,1.844448,0.1994672,0.7875054,0.519197,-1.328341,-0.7861183,-1.773429,-1.071853,0.1176341,0,0,10.54545,-0.4944455,0.07233131,-0.4919978,-0.3695381,4.495768,1.705352,-0.2768517,0.7217879,-0.003979325,-1.115881,3.969609,0.3694193,-0.7129118,1.71948,-0.5185522,296.3201,65.26477,139.2307
3,1.855559,0.1901587,0.7185346,0.4710015,-1.334621,-0.7835787,-1.775437,-1.073495,-0.1510659,0,0,10.54545,-0.4923622,0.07376373,-0.4078392,-0.3683631,4.500471,1.706416,-0.2599505,0.6816263,0.01751478,-1.112531,3.976108,0.3692262,-0.7143185,1.719302,-0.520173,296.1099,64.21919,140.1489
3,1.86667,0.1611356,0.6125664,0.3780828,-1.337938,-0.7832304,-1.776294,-1.074294,-0.07132491,0,0,10.54545,-0.4739553,0.04453713,-0.3667491,-0.3684238,4.508166,1.703946,-0.2431169,0.662264,0.0106146,-1.110194,3.983196,0.3682526,-0.7159094,1.719394,-0.5219882,296.1037,62.86628,141.7461
3,1.877781,0.1278667,0.5246942,0.2885181,-1.341049,-0.7833614,-1.776131,-1.073752,0.05001398,0,0,10.54545,-0.4490882,0.01093459,-0.3172456,-0.3690896,4.514678,1.702138,-0.2306109,0.639882,-0.01656837,-1.108981,3.990549,0.3674856,-0.717548,1.719524,-0.5246147,296.27,61.41697,143.7176
3,1.888893,0.1012526,0.4399236,0.2148604,-1.343198,-0.7838439,-1.776294,-1.073209,0.04924287,0,0,8.484849,-0.4390274,0.01268423,-0.278997,-0.3686214,4.519877,1.701918,-0.2257724,0.601961,-0.03009567,-1.107722,3.996695,0.3671724,-0.719025,1.71928,-0.5274315,296.162,60.86109,144.187
3,1.900004,0.03341763,0.3742806,0.1684059,-1.345814,-0.7837656,-1.774262,-1.072472,0.06716758,0,0,8.484849,-0.4192845,0.04319352,-0.2491438,-0.3667721,4.524277,1.701955,-0.2090903,0.5398666,-0.03352513,-1.106536,4.001427,0.3670829,-0.7204806,1.718828,-0.530177,295.8922,61.1815,143.4513
3,1.911115,-0.02886412,0.345848,0.1316943,-1.348681,-0.7840996,-1.771774,-1.073073,-0.05526838,0,0,8.484849,-0.3602608,0.04677543,-0.2157286,-0.3659673,4.527679,1.700825,-0.1908484,0.4906346,-0.03672489,-1.105639,4.005642,0.3667232,-0.7221198,1.71852,-0.5326503,295.5577,61.77076,142.4204
3,1.922226,-0.1168814,0.3165001,0.08137294,-1.351289,-0.7860458,-1.766861,-1.071148,0.176744,0,0,8.484849,-0.3171912,0.0397425,-0.1736869,-0.3656893,4.529726,1.701146,-0.1927439,0.4383858,-0.0419473,-1.105167,4.009361,0.3673232,-0.7240133,1.718494,-0.5346587,295.33,62.15905,141.7504
3,1.933337,-0.1803216,0.2753228,0.04028178,-1.352746,-0.7879788,-1.761861,-1.07098,0.01418789,0,0,8.484849,-0.2901839,0.009329349,-0.1252555,-0.366549,4.530087,1.703403,-0.1819632,0.4151058,-0.02542749,-1.103388,4.013587,0.3673647,-0.7261646,1.718952,-0.5361688,295.1044,62.14482,141.6985
3,1.944448,-0.209686,0.2148779,-0.00018221,-1.352875,-0.7893695,-1.75826,-1.069455,0.139772,0,0,4,-0.2929256,0.002618432,-0.08372676,-0.366786,4.528972,1.707766,-0.1489096,0.396919,0.001645245,-1.10118,4.017132,0.3663431,-0.7284646,1.72005,-0.5372198,294.9297,61.95185,142.0331
3,1.955559,-0.2340351,0.162012,-0.06730428,-1.35246,-0.7920992,-1.754279,-1.069816,-0.03372219,0,0,4,-0.2836867,0.005221397,-0.0231066,-0.3672425,4.52497,1.714969,-0.1280916,0.3860303,0.007646468,-1.099577,4.021233,0.3651998,-0.7308537,1.722043,-0.5378306,294.7916,61.90898,142.3102
3,1.966671,-0.2706083,0.1238622,-0.09051932,-1.352222,-0.7938787,-1.749717,-1.07175,-0.1759724,0,0,4,-0.2425813,0.02913381,0.01495123,-0.3663444,4.520608,1.720346,-0.1167462,0.3715864,0.009410776,-1.098147,4.024934,0.3643753,-0.7330858,1.724886,-0.537982,294.8718,61.73594,142.8798
3,1.977782,-0.3276721,0.08374372,-0.1327394,-1.351574,-0.7972689,-1.742813,-1.07232,-0.05031149,0,0,4,-0.2221911,0.02352212,0.03385391,-0.3662821,4.517918,1.725238,-0.1059503,0.347358,0.01951079,-1.096684,4.027934,0.3639404,-0.7349952,1.728299,-0.5377897,295.3229,61.24707,143.8063
3,1.988893,-0.3695933,0.04668039,-0.1580162,-1.350453,-0.7997382,-1.736774,-1.071941,0.03515024,0,0,6.060606,-0.2179639,0.007462218,0.04006401,-0.3668398,4.516245,1.729025,-0.09310271,0.3253202,0.0317778,-1.094971,4.030619,0.3633124,-0.7366078,1.732019,-0.5374674,296.0305,60.614,144.7866
3,2.000004,-0.3765858,-0.006351054,-0.2008563,-1.348107,-0.8033298,-1.731853,-1.070322,0.147968,0,0,6.060606,-0.2203136,-0.01700553,0.03880695,-0.3677453,4.516899,1.731551,-0.08922151,0.3105113,0.03466198,-1.09345,4.033576,0.3630901,-0.7379037,1.735698,-0.5371113,296.7926,59.92116,145.7215
3,2.011115,-0.3863633,-0.03716803,-0.2115588,-1.346279,-0.8057985,-1.726712,-1.071309,-0.09110912,0,0,6.060606,-0.2140715,-0.03300151,0.03540463,-0.3686976,4.516539,1.734047,-0.08323347,0.2949338,0.02686427,-1.092458,4.03642,0.3624932,-0.738995,1.739358,-0.5369084,297.4263,59.58393,146.2085
3,2.022226,-0.411363,-0.05929506,-0.2497487,-1.344339,-0.8096894,-1.72029,-1.073236,-0.17495,0,0,6.060606,-0.1877401,-0.06508152,0.03055746,-0.3700857,4.517318,1.734897,-0.09043626,0.2892443,0.02789279,-1.091001,4.039512,0.3624221,-0.7399608,1.743015,-0.5369803,298.0017,59.49384,146.392
3,2.033337,-0.4126231,-0.08693561,-0.2616158,-1.341954,-0.8129768,-1.714879,-1.073261,-0.0006998453,0,0,6.060606,-0.160818,-0.08366651,0.06629645,-0.3717528,4.513353,1.739827,-0.08950393,0.2689931,0.02964195,-1.089685,4.041945,0.362457,-0.7409021,1.746522,-0.5373322,298.6235,59.5818,146.3251
3,2.044448,-0.3746785,-0.1305519,-0.2889214,-1.338496,-0.8166999,-1.711111,-1.072523,0.06748468,0,0,3.030303,-0.1528363,-0.07123163,0.1025262,-0.3725251,4.507288,1.746922,-0.09241748,0.2390635,0.02592345,-1.088938,4.043598,0.362815,-0.7418536,1.74966,-0.5378503,299.186,59.63732,146.2166
3,2.055559,-0.3401411,-0.1612747,-0.3363848,-1.335036,-0.8219991,-1.707059,-1.073577,-0.09665834,0,0,3.030303,-0.1414353,-0.04506276,0.1505488,-0.372605,4.498347,1.756753,-0.0862245,0.1957914,0.016548,-1.088861,4.044421,0.3631319,-0.7429677,1.75257,-0.5385367,299.5722,59.89923,145.8651
3,2.06667,-0.3017549,-0.1954939,-0.3274222,-1.331464,-0.825205,-1.704026,-1.075601,-0.1841535,0,0,3.030303,-0.1174593,-0.03595944,0.1897545,-0.3733768,4.489204,1.765835,-0.08577038,0.1627588,0.01593887,-1.088483,4.045071,0.3637931,-0.7441666,1.755201,-0.5391861,299.8256,60.32078,145.4396
3,2.077781,-0.3042494,-0.2049257,-0.3572691,-1.328246,-0.8296652,-1.699417,-1.075893,-0.0251226,0,0,3.030303,-0.09268545,-0.007423896,0.1971434,-0.3729672,4.482663,1.772419,-0.08288097,0.1468385,0.01881962,-1.087679,4.046222,0.3641002,-0.7454243,1.75743,-0.5397044,300.1406,60.8249,145.0312
3,2.088892,-0.316064,-0.2155204,-0.3635798,-1.324969,-0.8338006,-1.694384,-1.076334,-0.04035894,0,0,4,-0.07033555,0.04166814,0.1674448,-0.3709517,4.479071,1.775784,-0.07431905,0.1529126,0.05721313,-1.085237,4.047488,0.3640746,-0.746846,1.759323,-0.5401139,300.4248,61.40242,144.5388
3,2.100003,-0.3116302,-0.2198803,-0.3476775,-1.322028,-0.8369617,-1.689935,-1.075005,0.1216724,0,0,4,-0.05701581,0.04941568,0.1204683,-0.3701176,4.479662,1.775739,-0.05443522,0.1680186,0.09673514,-1.082177,4.04911,0.3633036,-0.7484698,1.761001,-0.5404697,300.6343,61.84993,144.2031
3,2.111114,-0.3093563,-0.2188995,-0.3349268,-1.319098,-0.8402449,-1.685535,-1.074341,0.05969089,0,0,4,-0.03272929,0.04189628,0.1073247,-0.3701197,4.477458,1.777469,-0.03937705,0.1693411,0.1200662,-1.079501,4.050317,0.3626613,-0.7503319,1.762636,-0.5409501,300.7979,62.26108,144.0051
3,2.122225,-0.285685,-0.2414474,-0.3108156,-1.315417,-0.8426614,-1.682432,-1.074689,-0.03219426,0,0,4,-0.009127997,0.04162148,0.1208881,-0.3700574,4.472285,1.78162,-0.01761343,0.143031,0.1545515,-1.076716,4.050017,0.3622373,-0.7523189,1.764334,-0.541471,300.8487,62.80112,143.647
3,2.133336,-0.2579328,-0.2617831,-0.3027263,-1.311596,-0.8456314,-1.679592,-1.074865,-0.01579085,0,0,4,0.02539414,0.04644156,0.1535392,-0.3699493,4.464327,1.78773,-0.01479258,0.1291551,0.1617327,-1.074505,4.050223,0.3623382,-0.7542965,1.766151,-0.5419182,300.851,63.29897,143.31
3,2.144447,-0.2023306,-0.2790537,-0.2821532,-1.307589,-0.8477672,-1.678628,-1.07596,-0.09993988,0,0,6.787879,0.04680285,0.02802847,0.1723072,-0.3707509,4.457548,1.792795,0.007209238,0.06927508,0.1668318,-1.073013,4.047987,0.362534,-0.7560495,1.768018,-0.5421902,300.8833,63.6879,143.1785
3,2.155558,-0.1529244,-0.2857478,-0.2465328,-1.303957,-0.8489252,-1.678118,-1.076394,-0.03901603,0,0,6.787879,0.03294882,0.03560966,0.1682684,-0.3706055,4.453001,1.797299,0.01493645,0.03885147,0.1587528,-1.071697,4.046948,0.3626983,-0.757412,1.769776,-0.5422903,301.0723,63.97185,143.1757
3,2.166669,-0.1231137,-0.2815371,-0.2489867,-1.300695,-0.8514674,-1.677122,-1.077897,-0.1372897,0,0,6.787879,0.04394925,0.09095477,0.165394,-0.3681724,4.446598,1.802454,0.02479351,0.00854541,0.1495845,-1.070827,4.045404,0.3628024,-0.7584141,1.771387,-0.5423247,301.3837,64.21155,143.1227
3,2.17778,-0.07806712,-0.2764331,-0.2239123,-1.297693,-0.8529221,-1.677216,-1.077956,-0.004467659,0,0,6.787879,0.05787531,0.1068712,0.1621546,-0.3667269,4.441157,1.806356,0.03780577,-0.0186531,0.1532349,-1.069396,4.043613,0.3628552,-0.7590858,1.77269,-0.5424125,301.7782,64.27623,143.1974
3,2.188891,-0.05331345,-0.2616702,-0.2049445,-1.295119,-0.8543506,-1.677085,-1.077478,0.04335821,0,0,5.818182,0.07580443,0.1143605,0.1428224,-0.3654395,4.437703,1.8081,0.04149541,-0.02819899,0.15942,-1.067774,4.042101,0.362991,-0.7595909,1.773714,-0.5428528,302.1573,64.27826,143.2584
3,2.200002,-0.01449563,-0.2438491,-0.1669472,-1.292864,-0.8547586,-1.677734,-1.077896,-0.03880586,0,0,5.818182,0.09338006,0.09425175,0.1104685,-0.3653671,4.437928,1.806355,0.04903069,-0.02708539,0.1753574,-1.06545,4.04093,0.3627963,-0.7600528,1.774345,-0.543581,302.4678,64.50513,142.9316
3,2.211113,0.02420895,-0.2270286,-0.1396069,-1.290865,-0.8551591,-1.679207,-1.07739,0.04642626,0,0,5.818182,0.09520167,0.08695526,0.08907842,-0.3647455,4.436922,1.806178,0.04964625,-0.03991189,0.1783128,-1.0638,4.039134,0.3630975,-0.7605754,1.774506,-0.5444704,302.6635,64.80822,142.4363
3,2.222224,0.102436,-0.2103577,-0.1020703,-1.28897,-0.8547692,-1.682929,-1.077514,-0.01208042,0,0,5.818182,0.1098509,0.1276862,0.04554842,-0.3618059,4.437963,1.80383,0.04371531,-0.07324606,0.1777531,-1.062776,4.036217,0.364187,-0.7612568,1.774314,-0.5455319,302.6833,65.14085,141.9624
3,2.233335,0.157987,-0.1934831,-0.0919707,-1.287341,-0.8552438,-1.68659,-1.078032,-0.04741058,0,0,5.818182,0.09908941,0.1695926,0.01299043,-0.3580556,4.438327,1.80284,0.02945923,-0.08585243,0.1893683,-1.060929,4.033663,0.3656158,-0.7620979,1.773868,-0.5467684,302.5742,65.47921,141.5619
3,2.244446,0.2209788,-0.1723585,-0.08300763,-1.286,-0.855989,-1.690715,-1.079705,-0.1528601,0,0,4,0.08303217,0.21364,-0.01841654,-0.3539091,4.439246,1.801648,0.03250771,-0.07675624,0.2236095,-1.057573,4.031527,0.3662763,-0.7630373,1.773114,-0.5480653,302.4244,65.80478,141.225
3,2.255557,0.2508733,-0.1564685,-0.08009456,-1.284416,-0.85705,-1.693883,-1.079543,0.01574667,0,0,4,0.08375816,0.2234721,-0.04924095,-0.3509173,4.441863,1.798756,0.03634464,-0.06510971,0.2376374,-1.054832,4.029998,0.3664422,-0.7640526,1.771935,-0.5494071,302.329,66.03859,140.9981
3,2.266668,0.2722642,-0.1448222,-0.07495411,-1.283102,-0.857581,-1.6975,-1.079478,0.005237618,0,0,4,0.1143656,0.2159595,-0.06884864,-0.348505,4.444592,1.793882,0.04937616,-0.06700937,0.256665,-1.051928,4.027552,0.3667109,-0.7652328,1.770289,-0.5507427,302.2396,66.34116,140.626
3,2.277779,0.3023462,-0.133274,-0.05499773,-1.281926,-0.8573664,-1.701828,-1.078093,0.1262391,0,0,4,0.1501464,0.2052912,-0.09707674,-0.3460735,4.449327,1.787047,0.0504915,-0.06713252,0.2651766,-1.049184,4.02524,0.3674475,-0.766674,1.768194,-0.5520233,302.0847,66.74462,140.115
3,2.28889,0.3260701,-0.1131933,-0.03385924,-1.281374,-0.8569493,-1.706408,-1.077817,0.02385608,0,0,2.060606,0.1699643,0.2075794,-0.1335203,-0.3431547,4.455703,1.778474,0.05132971,-0.06180273,0.2673984,-1.046502,4.023424,0.3677413,-0.7684476,1.765933,-0.5532494,301.7288,67.36653,139.419
3,2.300001,0.3466041,-0.07498984,-0.0147257,-1.281764,-0.8566377,-1.710837,-1.077937,-0.01138808,0,0,2.060606,0.1854718,0.2141959,-0.1741432,-0.3397608,4.46423,1.768413,0.05853676,-0.05231711,0.2909473,-1.042843,4.021543,0.3678025,-0.7704916,1.763652,-0.5544137,301.3146,67.94351,138.9147
3,2.311112,0.3552629,-0.05694209,-0.006208539,-1.281788,-0.8563831,-1.715146,-1.077791,0.01323481,0,0,2.060606,0.1919038,0.2387424,-0.1836065,-0.3356856,4.468862,1.761992,0.05984358,-0.05277772,0.3186308,-1.038843,4.019032,0.368377,-0.7726558,1.761317,-0.5554941,300.9091,68.32524,138.7135
3,2.322223,0.3724886,-0.0314721,0.004377097,-1.282244,-0.8560859,-1.720005,-1.077316,0.04310576,0,0,2.060606,0.1951347,0.2483202,-0.1857069,-0.3323114,4.473903,1.755109,0.05536529,-0.0672919,0.3418466,-1.035084,4.015675,0.3695583,-0.7747709,1.758888,-0.5564506,300.4847,68.5944,138.6609
3,2.333334,0.3928031,-0.01343016,0.007424317,-1.282508,-0.8561093,-1.725007,-1.07687,0.04019087,0,0,2.060606,0.1875958,0.2633847,-0.1993672,-0.3286666,4.481495,1.746485,0.04757625,-0.08173259,0.3533713,-1.031572,4.012364,0.3711091,-0.7767723,1.756451,-0.5573648,300.0665,68.83039,138.6212
3,2.344445,0.4131885,0.008854322,0.01582805,-1.283441,-0.8557642,-1.730403,-1.077109,-0.02235892,0,0,4.484848,0.1837119,0.2877744,-0.1820733,-0.324462,4.483737,1.742447,0.03945915,-0.09256889,0.3425875,-1.028886,4.009373,0.3724894,-0.7786261,1.754117,-0.5582963,299.6882,69.0948,138.5197
3,2.355556,0.4407958,0.0152258,0.007021435,-1.283615,-0.8560321,-1.735932,-1.07712,-0.0009471625,0,0,4.484848,0.1905054,0.3024632,-0.1564808,-0.3200832,4.484641,1.739395,0.0710956,-0.1268245,0.3693778,-1.025315,4.004447,0.3731278,-0.7803054,1.751891,-0.5593272,299.399,69.26428,138.503
3,2.366668,0.4641341,0.004557602,0.0003040731,-1.283275,-0.8562185,-1.741713,-1.077143,-0.002304917,0,0,4.484848,0.2068106,0.3031979,-0.1300353,-0.3167633,4.484594,1.736645,0.04706427,-0.07492456,0.330054,-1.022859,4.004628,0.3733453,-0.781756,1.749631,-0.5602999,299.1369,69.49128,138.3009
3,2.377779,0.4969094,-0.0241776,-0.0172727,-1.281939,-0.8569397,-1.748155,-1.077187,-0.004181723,0,0,4.484848,0.2203073,0.2862008,-0.1463302,-0.3136458,4.490666,1.728642,0.03901359,-0.08688177,0.3224466,-1.020267,4.001854,0.3747749,-0.7830269,1.747333,-0.5611502,298.8815,69.69424,138.0579
3,2.38889,0.5103528,-0.05814546,-0.04637013,-1.279904,-0.8581249,-1.753881,-1.07715,0.003197839,0,0,4.484848,0.2282232,0.2640786,-0.1838968,-0.3110125,4.500105,1.716905,0.04778711,-0.09088266,0.3297551,-1.017101,3.99898,0.3754527,-0.7842415,1.745035,-0.561975,298.6927,69.93079,137.7987
3,2.400001,0.4918235,-0.07178807,-0.08032218,-1.278277,-0.859972,-1.758071,-1.077674,-0.04815884,0,0,5.939394,0.2275856,0.2398997,-0.2213891,-0.3084457,4.511723,1.703664,0.05393418,-0.06093815,0.3398417,-1.013155,3.997394,0.3755097,-0.7854761,1.742687,-0.5626994,298.5374,70.31639,137.3323
3,2.411112,0.4691757,-0.06948368,-0.1045527,-1.277238,-0.8618767,-1.761986,-1.076861,0.07456426,0,0,5.939394,0.2204704,0.26542,-0.2083123,-0.30428,4.515834,1.697377,0.03406176,-0.04880333,0.3263698,-1.010511,3.995981,0.3765574,-0.7868845,1.740253,-0.5633079,298.4373,70.79971,136.7503
3,2.422223,0.4507875,-0.09810731,-0.1236622,-1.275013,-0.8634411,-1.765817,-1.075216,0.1495696,0,0,5.939394,0.2330187,0.299022,-0.1591776,-0.2999092,4.514523,1.695654,0.02766527,-0.07730377,0.2949988,-1.009146,3.99307,0.3780325,-0.7886087,1.73784,-0.563924,298.2927,71.34223,136.2303
3,2.433334,0.4517605,-0.1183275,-0.1280403,-1.2727,-0.8646453,-1.770527,-1.074718,0.04425374,0,0,5.939394,0.2452358,0.3092453,-0.1219614,-0.2968642,4.514419,1.692963,0.03241943,-0.1131819,0.2857625,-1.007402,3.989075,0.3798187,-0.7906877,1.73559,-0.5646464,298.0239,71.97182,135.7325
3,2.444445,0.4684893,-0.1704699,-0.1466239,-1.268599,-0.8662629,-1.775959,-1.074526,0.01728775,0,0,4.969697,0.2605558,0.3067217,-0.08700766,-0.293589,4.512101,1.691738,0.03677872,-0.1366394,0.2959463,-1.004921,3.984868,0.3814731,-0.7929428,1.733469,-0.5652152,297.6395,72.75179,135.0974
3,2.455556,0.4757843,-0.1970817,-0.1564308,-1.265108,-0.8676462,-1.781205,-1.075313,-0.07202274,0,0,4.969697,0.2615844,0.2917765,-0.08396862,-0.2907256,4.515351,1.685285,0.02668072,-0.1235803,0.3133222,-1.001245,3.982061,0.3832976,-0.7951987,1.731483,-0.5655452,297.2502,73.58409,134.4895
3,2.466667,0.4736292,-0.197066,-0.1585366,-1.262528,-0.8690544,-1.786064,-1.076208,-0.08120582,0,0,4.969697,0.259278,0.2705042,-0.0862466,-0.2882771,4.518179,1.679711,0.01947018,-0.130189,0.3068684,-0.9988665,3.978761,0.3850995,-0.7972574,1.729547,-0.565594,296.9528,74.3108,134.0815
3,2.477778,0.4651966,-0.1853765,-0.1519826,-1.260552,-0.8701155,-1.790534,-1.075939,0.02514865,0,0,4.969697,0.2465659,0.2587837,-0.07554059,-0.2857737,4.519059,1.676186,0.01771521,-0.1397811,0.3013843,-0.9965394,3.975044,0.3870585,-0.7990503,1.727558,-0.565528,296.8503,74.868,133.9241
3,2.488889,0.4536433,-0.1832936,-0.1379886,-1.258391,-0.8707653,-1.79503,-1.075414,0.04758012,0,0,4.969697,0.2408006,0.2744564,-0.03272583,-0.282327,4.513519,1.67902,0.02347906,-0.1500768,0.2958162,-0.9944254,3.971391,0.3886026,-0.8006341,1.725533,-0.56565,296.791,75.29474,133.813
3,2.5,0.4259402,-0.183244,-0.1387443,-1.255833,-0.8720627,-1.798587,-1.074818,0.05411412,0,0,7.393939,0.2248728,0.2723893,-0.02829134,-0.2794673,4.512996,1.677316,0.02396803,-0.1645888,0.2742157,-0.9933351,3.967792,0.3901947,-0.8020532,1.723495,-0.5659551,296.6508,75.7878,133.4368
3,2.511111,0.4003112,-0.1842283,-0.1437811,-1.25337,-0.8733927,-1.801796,-1.074667,0.01343528,0,0,7.393939,0.2236151,0.2489885,-0.03165847,-0.2774433,4.513681,1.674008,0.02414435,-0.1707279,0.2602445,-0.9919007,3.964262,0.3917262,-0.8033713,1.721539,-0.5665581,296.4481,76.32643,132.9527
3,2.522222,0.3639747,-0.1958433,-0.1519633,-1.250137,-0.8751073,-1.804156,-1.073977,0.06305312,0,0,7.393939,0.2233596,0.2256146,-0.03930539,-0.275643,4.515531,1.669748,0.02807193,-0.1640688,0.2560731,-0.9900104,3.961255,0.3929127,-0.8045415,1.719607,-0.5672607,296.2596,77.01392,132.2339
3,2.533333,0.3234724,-0.2010931,-0.1526036,-1.247175,-0.8764852,-1.806065,-1.073679,0.02673504,0,0,7.393939,0.2274269,0.2096805,-0.04800573,-0.2736196,4.517731,1.664642,0.0284536,-0.1510873,0.2477789,-0.9881579,3.958957,0.3939923,-0.8056518,1.717792,-0.5680816,296.1312,77.79578,131.3943
3,2.544444,0.2841641,-0.1978591,-0.1436111,-1.244846,-0.8773316,-1.807654,-1.073103,0.05262267,0,0,6.060606,0.2187325,0.1980837,-0.05545405,-0.271717,4.520281,1.660043,0.01856054,-0.1460491,0.239432,-0.98651,3.956231,0.395624,-0.8067025,1.716102,-0.5688112,296.0271,78.64067,130.4482
3,2.555555,0.267221,-0.1946816,-0.1359296,-1.24241,-0.8778722,-1.810048,-1.072716,0.03508525,0,0,6.060606,0.1943845,0.2035119,-0.04764424,-0.2693574,4.519605,1.659078,0.007951878,-0.1505312,0.2244981,-0.9856295,3.953301,0.3978286,-0.8077513,1.714646,-0.5694466,295.9551,79.4773,129.563
3,2.566666,0.2737857,-0.2224973,-0.1159074,-1.239026,-0.8776383,-1.813319,-1.072471,0.02234657,0,0,6.060606,0.1831581,0.2235969,-0.01857751,-0.2663167,4.51567,1.661214,0.002954803,-0.160093,0.2105092,-0.9847608,3.950138,0.3997197,-0.8087373,1.713414,-0.5698391,295.8774,80.21172,128.806
3,2.577777,0.2845056,-0.2385485,-0.1075983,-1.235669,-0.8779318,-1.816779,-1.073433,-0.08792476,0,0,6.060606,0.1780589,0.2374097,-0.008795697,-0.2631917,4.51276,1.661987,0.0017507,-0.1579508,0.2073703,-0.9831272,3.94735,0.4013517,-0.8096467,1.712491,-0.5700441,295.7897,80.6701,128.438
3,2.588888,0.2770767,-0.2428107,-0.1043388,-1.232649,-0.8782599,-1.819521,-1.074367,-0.08441429,0,0,6.060606,0.1672332,0.212984,-0.008865874,-0.261663,4.512693,1.660595,-0.004217558,-0.1452881,0.2001985,-0.9817994,3.945126,0.4028492,-0.8104568,1.711825,-0.5702558,295.8013,80.828,128.4897
3,2.599999,0.2675942,-0.2342565,-0.0927972,-1.231152,-0.8841268,-1.81978,-1.074914,-0.0493329,0,0,8,0.1531288,0.197194,-0.02160176,-0.2602159,4.514435,1.657523,-0.01256689,-0.1255393,0.2070222,-0.9796939,3.943207,0.4045728,-0.8110278,1.711098,-0.5703592,295.9199,80.96673,128.477
3,2.61111,0.2602655,-0.2268316,-0.08308636,-1.22877,-0.8841503,-1.822452,-1.074308,0.05579349,0,0,8,0.143427,0.2037572,-0.0352708,-0.2577285,4.516293,1.65428,-0.008720681,-0.1168166,0.2060736,-0.978088,3.94106,0.4057123,-0.8114717,1.710198,-0.5704232,296.1013,81.1254,128.3111
3,2.622221,0.2424505,-0.1917349,-0.06459568,-1.227659,-0.8840805,-1.824713,-1.073679,0.0570029,0,0,8,0.1283911,0.2210719,-0.05518981,-0.2545865,4.520215,1.649574,-0.001651987,-0.1098897,0.1954906,-0.9768443,3.939049,0.4065995,-0.8121247,1.709386,-0.5711558,296.293,80.70186,129.2445
3,2.633332,0.2340306,-0.1736828,-0.05914613,-1.225503,-0.8851746,-1.826874,-1.074217,-0.04938713,0,0,8,0.1282341,0.2190435,-0.06797675,-0.2522067,4.523153,1.645044,0.00207945,-0.0971166,0.2063491,-0.9746349,3.937255,0.4077475,-0.8131098,1.708691,-0.5735552,296.5224,80.31039,130.4843
3,2.644443,0.2267421,-0.1652079,-0.04623434,-1.223936,-0.8848406,-1.829293,-1.07396,0.02398292,0,0,8,0.1280101,0.1871568,-0.06819469,-0.2498146,4.522977,1.643362,0.007037826,-0.09032755,0.1979123,-0.9731244,3.935391,0.4085694,-0.8135883,1.707119,-0.5758047,296.4376,81.11407,129.4032
3,2.655554,0.2213989,-0.1715927,-0.04619784,-1.221604,-0.8846962,-1.831658,-1.074327,-0.03371444,0,0,4.848485,0.1247801,0.1765195,-0.06609566,-0.24796,4.524175,1.640646,0.005402196,-0.07960965,0.1906733,-0.9715536,3.933662,0.4097646,-0.81378,1.705041,-0.5777354,296.1814,82.18398,127.7436
3,2.666665,0.2257262,-0.185494,-0.03779491,-1.219124,-0.8841354,-1.834483,-1.074247,0.007663925,0,0,4.848485,0.1217418,0.1775016,-0.05327021,-0.2459413,4.524518,1.63919,0.003197901,-0.08143327,0.1693464,-0.9708873,3.932084,0.4107077,-0.8139482,1.702828,-0.5794409,296.0001,83.24393,126.2735
3,2.677776,0.2268277,-0.1844484,-0.0345972,-1.217151,-0.8837636,-1.837101,-1.074331,-0.007725422,0,0,4.848485,0.1154881,0.1828135,-0.04568639,-0.2436515,4.524593,1.6379,0.005722523,-0.09182604,0.1606058,-0.9700101,3.929658,0.4121809,-0.8141484,1.700689,-0.5807096,295.8082,84.27727,124.9038
3,2.688887,0.2311429,-0.1876807,-0.02933658,-1.214992,-0.8833018,-1.83996,-1.074731,-0.03642553,0,0,4.848485,0.1102602,0.1924157,-0.04341709,-0.2411439,4.525764,1.635669,0.00490531,-0.09625185,0.1669218,-0.9686061,3.92731,0.4134856,-0.8144991,1.698868,-0.5816334,295.6566,85.13117,123.8815
3,2.699998,0.2344253,-0.1781306,-0.0240055,-1.213294,-0.8830302,-1.842811,-1.07468,0.004978403,0,0,4.121212,0.1080653,0.1935544,-0.04976626,-0.2388493,4.528075,1.632188,0.004318904,-0.08253841,0.1735728,-0.9667711,3.925913,0.4142097,-0.8149366,1.697369,-0.582189,295.5571,85.7342,123.2697
3,2.711109,0.2291458,-0.1717432,-0.02178839,-1.211499,-0.8828357,-1.845334,-1.074911,-0.02114375,0,0,4.121212,0.1069035,0.2000499,-0.06141819,-0.2363193,4.532179,1.627058,0.006154817,-0.07605668,0.1736808,-0.9652505,3.924274,0.4150102,-0.8155043,1.696233,-0.5825084,295.5063,86.05631,123.0235
3,2.72222,0.2228534,-0.1557762,-0.01630831,-1.210387,-0.8824874,-1.847715,-1.07501,-0.008835373,0,0,4.121212,0.09192394,0.2076833,-0.07075987,-0.2337968,4.536274,1.622581,-0.002689827,-0.06619812,0.1941763,-0.9628382,3.922482,0.4163618,-0.8161348,1.695336,-0.5826267,295.5009,86.18618,123.025
3,2.733331,0.2176273,-0.1419391,-0.01086743,-1.209298,-0.8823495,-1.850099,-1.074729,0.02575679,0,0,4.121212,0.0844484,0.2034621,-0.06963144,-0.2316977,4.538548,1.619705,-0.005929817,-0.06532325,0.1963363,-0.9612185,3.920686,0.4176683,-0.8168556,1.69461,-0.5826646,295.5268,86.19855,123.1476
3,2.744442,0.2135937,-0.1185683,0.00421229,-1.209026,-0.8816043,-1.852541,-1.074531,0.01792179,0,0,4.121212,0.08117568,0.1960601,-0.07177854,-0.2295474,4.541339,1.616178,-0.01046912,-0.06200255,0.1793874,-0.9602352,3.919431,0.418658,-0.8176374,1.693951,-0.5827007,295.5367,86.18712,123.3149
3,2.755553,0.2158056,-0.1154095,0.01059486,-1.208009,-0.8809231,-1.855227,-1.074637,-0.009794705,0,0,5.939394,0.08422105,0.1779392,-0.07408757,-0.2282883,4.544536,1.611954,-0.0003443323,-0.05084098,0.1773751,-0.9587753,3.918371,0.4190021,-0.8183982,1.693259,-0.5827588,295.4933,86.22521,123.4327
3,2.766664,0.2201103,-0.1229138,0.01478748,-1.206269,-0.8797955,-1.858416,-1.074545,0.008534174,0,0,5.939394,0.07889079,0.1705026,-0.07087575,-0.2264443,4.546351,1.609314,0.005971117,-0.04753875,0.1869773,-0.9567204,3.916717,0.4196495,-0.8190891,1.692477,-0.5828447,295.4127,86.35883,123.4156
3,2.777775,0.2200796,-0.1335609,0.01580247,-1.204682,-0.8790717,-1.860822,-1.074844,-0.02739631,0,0,5.939394,0.07885566,0.1619611,-0.06881178,-0.2249679,4.548959,1.605917,0.001221988,-0.03713921,0.1893536,-0.9546218,3.915492,0.4207043,-0.8196644,1.691615,-0.583023,295.2778,86.51246,123.3744
3,2.788886,0.2115232,-0.1377919,0.01374932,-1.203092,-0.8784591,-1.863107,-1.075238,-0.03582318,0,0,5.939394,0.0680943,0.1664024,-0.08036073,-0.2227574,4.554241,1.600345,0.0007839575,-0.02756343,0.18954,-0.9526644,3.914472,0.421327,-0.8201155,1.690664,-0.5833855,295.193,86.70989,123.2738
3,2.799997,0.2040946,-0.1346383,0.01386113,-1.201063,-0.8775941,-1.865846,-1.074643,0.05480698,0,0,5.939394,0.06186705,0.1716922,-0.0706415,-0.220661,4.555387,1.598595,0.006496672,-0.01149213,0.1993851,-0.9501882,3.913813,0.4215667,-0.8204631,1.689575,-0.5839877,295.2038,86.94262,123.0317
3,2.811108,0.1764411,-0.1217969,0.01531091,-1.200279,-0.8770919,-1.866987,-1.074516,0.01105065,0,0,5.939394,0.0535589,0.1908731,-0.06398973,-0.2178189,4.55703,1.596718,0.008477204,-0.009144299,0.1930212,-0.948463,3.912846,0.4219568,-0.8207142,1.688267,-0.5846397,295.213,87.28522,122.5196
3,2.822219,0.1626588,-0.116464,0.02085764,-1.19945,-0.8757608,-1.868688,-1.074916,-0.03656834,0,0,5.939394,0.04067755,0.1749883,-0.06288137,-0.2161714,4.558605,1.595024,-0.003559388,-0.005111665,0.1772158,-0.9470115,3.912356,0.4228189,-0.8210053,1.686918,-0.5855548,295.1852,87.49421,122.3212
3,2.83333,0.1573468,-0.1196732,0.02194817,-1.19776,-0.8752596,-1.870661,-1.07356,0.1243251,0,0,5.939394,0.03640102,0.167535,-0.05969194,-0.2145347,4.560831,1.592603,-0.007000085,-0.000899855,0.1719943,-0.9453215,3.911666,0.4234804,-0.8213554,1.685486,-0.5870322,295.177,87.58472,122.3669
3,2.844441,0.1498997,-0.116489,0.02110584,-1.196453,-0.8726321,-1.87325,-1.073788,-0.02184905,0,0,5.939394,0.03836451,0.1569326,-0.06724283,-0.2130582,4.564071,1.58891,-0.004224438,0.00593685,0.1561208,-0.9440714,3.911369,0.4235848,-0.8215653,1.683936,-0.5885411,294.9909,88.33784,121.3968
3,2.855552,0.1370835,-0.1100545,0.01702863,-1.19542,-0.8721789,-1.874535,-1.074536,-0.06804787,0,0,3.515152,0.03158267,0.1401147,-0.08966866,-0.2120968,4.572205,1.580812,-0.007679109,0.01017188,0.1498351,-0.9425769,3.910975,0.4241723,-0.821649,1.682517,-0.5899307,294.7662,89.33189,120.0882
3,2.866663,0.114735,-0.08871073,0.01427504,-1.195015,-0.8707263,-1.875677,-1.074541,0.0002585338,0,0,3.515152,0.0219442,0.1273723,-0.08646093,-0.2111232,4.57625,1.576957,-0.008174608,0.01989096,0.1425671,-0.941135,3.910905,0.4243244,-0.821614,1.681279,-0.5910057,294.6774,90.16713,118.9578
3,2.877774,0.09667885,-0.06735955,0.01459412,-1.195146,-0.8705122,-1.876268,-1.07409,0.04113993,0,0,3.515152,0.02303419,0.1198553,-0.08014394,-0.2100653,4.579404,1.573582,-0.01034273,0.01894257,0.1308371,-0.9402716,3.910483,0.4246786,-0.8215026,1.680264,-0.591731,294.6399,90.53955,118.3593
3,2.888885,0.09140656,-0.05457511,0.01685052,-1.195065,-0.8701911,-1.877234,-1.073644,0.04051651,0,0,3.515152,0.0276036,0.1206894,-0.055683,-0.2085985,4.577432,1.574978,-0.01558503,0.01472974,0.1158794,-0.9395733,3.91013,0.4252424,-0.8214874,1.679587,-0.5922872,294.6508,90.628,118.1534
3,2.899997,0.09249864,-0.05458574,0.01897379,-1.194565,-0.8696089,-1.878602,-1.073656,-0.001297683,0,0,4.727273,0.0322182,0.1332584,-0.03433313,-0.2067668,4.576306,1.575491,-0.01389331,-2.831407E-05,0.1113185,-0.9387195,3.909114,0.4261721,-0.8215585,1.679244,-0.5926757,294.6338,90.59035,118.1475
3,2.911108,0.09779785,-0.06098389,0.01781492,-1.19376,-0.8691615,-1.880041,-1.074148,-0.0448146,0,0,4.727273,0.02797357,0.130066,-0.03111183,-0.2054378,4.577439,1.574221,-0.01440427,-0.01280481,0.1089536,-0.9377363,3.907842,0.4272123,-0.8217439,1.679204,-0.5929173,294.6424,90.45775,118.2855
3,2.922219,0.09772814,-0.06096235,0.01246523,-1.19292,-0.869341,-1.880958,-1.074619,-0.04258936,0,0,4.727273,0.02776678,0.1055916,-0.03450603,-0.2051294,4.580023,1.571361,-0.007198513,-0.008084508,0.1025962,-0.9368649,3.907452,0.4272904,-0.8220104,1.679355,-0.5930051,294.6901,90.23161,118.5756
3,2.93333,0.09243881,-0.0609667,0.01572223,-1.192366,-0.8688281,-1.881985,-1.074841,-0.01993235,0,0,4.727273,0.02548677,0.09501386,-0.0409569,-0.2043071,4.583328,1.567846,-0.007479116,-0.001741711,0.1048467,-0.9356707,3.907139,0.4276235,-0.8219118,1.679621,-0.5924571,294.8766,89.20027,119.5434
