loc,t,aDotS,bDotS,gDotS,aS,bS,gS,qE,qDotE,tpad,enable,emg,aDotSH,bDotSH,gDotSH,aSH,bSH,gSH,aDotUB,bDotUB,gDotUB,aUB,bUB,gUB,xHand,yHand,zHand,aHand,bHand,gHand
1,0,-0.4036269,-0.8550152,0.4107981,-1.32803,-0.68024,-2.888044,-1.073436,0.04148539,0,0,4.363636,-0.5590484,0.3075122,0.1058111,-0.4949964,-0.8747233,0.1700034,-0.1659606,0.2209773,-0.1928428,-0.7591522,3.783494,0.2588007,-0.6973134,1.175818,-0.3024415,310.2429,211.1121,359.582
1,0.01111111,-0.4441356,-0.8122976,0.3918721,-1.329535,-0.6718713,-2.883906,-1.073063,0.03390738,0,0,4.363636,-0.5617807,0.2836354,0.157806,-0.4919306,-0.8710151,0.1728439,-0.1793992,0.2026433,-0.2205952,-0.7619911,3.787016,0.2586883,-0.6968583,1.176445,-0.3052428,310.3366,210.5533,359.9771
1,0.02222222,-0.507093,-0.7471652,0.3507321,-1.330362,-0.6650947,-2.877861,-1.071978,0.09916381,0,0,6.181818,-0.5708905,0.2352026,0.2246305,-0.4869473,-0.8709469,0.1794102,-0.1933971,0.1961287,-0.257791,-0.7652146,3.791487,0.2579564,-0.696182,1.177393,-0.3084471,310.3597,210.0518,0.06819148
1,0.03333334,-0.5702242,-0.6883788,0.2840321,-1.329726,-0.6595287,-2.870798,-1.072272,-0.0275713,0,0,6.181818,-0.5676143,0.1666035,0.271942,-0.482821,-0.8733134,0.1878346,-0.2068003,0.1777598,-0.2823479,-0.7686639,3.794819,0.2583002,-0.6954585,1.178765,-0.3121635,310.3424,209.6753,359.8682
1,0.04444445,-0.6109799,-0.6616365,0.2288912,-1.328523,-0.6530545,-2.864204,-1.071188,0.0997877,0,0,6.181818,-0.5656829,0.1153404,0.2853368,-0.4793477,-0.875976,0.1963373,-0.2108221,0.1691639,-0.2909158,-0.7714635,3.798145,0.2583333,-0.6947171,1.180586,-0.3162871,310.1277,209.1608,359.6824
1,0.05555556,-0.6679921,-0.6199171,0.1248117,-1.324621,-0.6481357,-2.856215,-1.070781,0.036606,0,0,6.181818,-0.5693524,0.01934546,0.3026914,-0.4760885,-0.8838675,0.2097671,-0.2208665,0.1528041,-0.293114,-0.7743695,3.800919,0.2591272,-0.6940879,1.182925,-0.3206677,309.8369,208.5284,359.4994
1,0.06666667,-0.6948537,-0.5995893,0.07706714,-1.322599,-0.6424205,-2.849331,-1.071487,-0.06432363,0,0,4.121212,-0.5802537,-0.02000552,0.3056819,-0.4730887,-0.8878787,0.2201561,-0.2245033,0.1356577,-0.2975238,-0.7773943,3.80352,0.2597783,-0.6938296,1.185791,-0.3251928,309.4536,207.7406,359.4255
1,0.07777778,-0.7409393,-0.5653776,0.01876457,-1.319364,-0.6379219,-2.840684,-1.071007,0.04472601,0,0,4.121212,-0.6263964,-0.07404259,0.3100545,-0.4701603,-0.8953292,0.2351859,-0.2405645,0.1351257,-0.3058743,-0.7805352,3.80689,0.26059,-0.6939865,1.189159,-0.3296179,308.9239,206.8066,359.5635
1,0.08888889,-0.7698994,-0.5546338,-0.01944092,-1.316003,-0.6328667,-2.832704,-1.072286,-0.1168974,0,0,4.121212,-0.655158,-0.08882976,0.3198707,-0.466727,-0.9000036,0.2476439,-0.2477632,0.1233422,-0.3251032,-0.7843782,3.809926,0.261296,-0.6947669,1.192937,-0.3338545,308.3368,205.7909,359.9033
1,0.1,-0.8235669,-0.5406418,-0.09155548,-1.310966,-0.6285923,-2.822846,-1.071361,0.0857492,0,0,4.121212,-0.6951954,-0.08027989,0.3513299,-0.4621298,-0.904083,0.2603469,-0.2693002,0.120706,-0.3547244,-0.7888821,3.813439,0.2625986,-0.6960579,1.196984,-0.3377885,307.6067,204.9563,0.3735899
1,0.1111111,-0.85044,-0.5448284,-0.1265348,-1.306847,-0.6231227,-2.813734,-1.072155,-0.07309781,0,0,4.121212,-0.7140815,-0.07928544,0.3750055,-0.45762,-0.9090295,0.2733359,-0.2818334,0.1128105,-0.3600087,-0.7927842,3.816304,0.2640423,-0.6978211,1.20119,-0.3414899,306.9577,204.2507,0.9538786
1,0.1222222,-0.8901084,-0.5649707,-0.1614617,-1.301714,-0.6172643,-2.803979,-1.070972,0.1091441,0,0,6.060606,-0.757185,-0.06544912,0.4140044,-0.4518926,-0.9133215,0.2871982,-0.2919804,0.1047238,-0.3408029,-0.7955011,3.818544,0.2660953,-0.699863,1.205465,-0.3450052,306.3687,203.4948,1.730761
1,0.1333333,-0.9308299,-0.5883046,-0.1921322,-1.296363,-0.611073,-2.793963,-1.071689,-0.06616683,0,0,6.060606,-0.8143717,-0.04280072,0.430857,-0.4470073,-0.9160246,0.3008637,-0.3044094,0.09774381,-0.3322176,-0.7985649,3.820955,0.2682429,-0.7021564,1.209839,-0.3484839,305.9796,202.6851,2.551209
1,0.1444445,-0.9778432,-0.5988356,-0.2110508,-1.291094,-0.6054745,-2.783126,-1.071454,0.02239946,0,0,6.060606,-0.8576902,-0.03204352,0.4538441,-0.4416757,-0.9207448,0.3159654,-0.3265322,0.08845875,-0.3416708,-0.8024477,3.823432,0.2708749,-0.7044041,1.214385,-0.351934,305.5833,201.8782,3.44421
1,0.1555556,-1.009841,-0.6115501,-0.2129959,-1.28621,-0.5993662,-2.772523,-1.071471,-0.001480575,0,0,6.060606,-0.8790815,-0.04039609,0.4519051,-0.4371259,-0.9260887,0.3313763,-0.3402388,0.08164698,-0.3522473,-0.8063876,3.825945,0.2733999,-0.7065665,1.219039,-0.3556461,305.1809,200.9819,4.39568
1,0.1666667,-1.016228,-0.6115172,-0.2087274,-1.281529,-0.5937107,-2.762493,-1.071234,0.02205512,0,0,6.060606,-0.9047,-0.04448676,0.451131,-0.4325224,-0.9319232,0.3476384,-0.3605286,0.07887694,-0.3659098,-0.8106582,3.828683,0.2761466,-0.708491,1.223831,-0.3596908,304.7767,200.0009,5.326017
1,0.1777778,-1.001275,-0.6317956,-0.1949767,-1.277053,-0.5868019,-2.753753,-1.071717,-0.04401384,0,0,4.848485,-0.9980732,-0.03336632,0.4758065,-0.4267567,-0.9373928,0.3669263,-0.3670703,0.08696714,-0.3497669,-0.8135531,3.831582,0.2784862,-0.7102072,1.228801,-0.3642358,304.3935,198.9879,6.152339
1,0.1888889,-1.00664,-0.639246,-0.1970751,-1.272143,-0.5805489,-2.744117,-1.072833,-0.1014168,0,0,4.848485,-1.014957,-0.006611109,0.4741151,-0.4215145,-0.9403941,0.3815476,-0.3688115,0.1060204,-0.3431497,-0.8164554,3.835421,0.279952,-0.7116033,1.233974,-0.3691966,303.8941,197.8711,6.963568
1,0.2,-1.031198,-0.6626295,-0.1980044,-1.266833,-0.5735863,-2.733919,-1.074125,-0.1170863,0,0,4.848485,-1.092148,0.1316392,0.442114,-0.4158925,-0.9294214,0.3863674,-0.3769688,0.1217766,-0.3503443,-0.8199047,3.839498,0.281625,-0.7125759,1.239314,-0.3743767,303.2711,196.6534,7.766586
1,0.2111111,-1.063123,-0.6785197,-0.1829237,-1.262099,-0.5668006,-2.722972,-1.073685,0.04118337,0,0,4.848485,-1.144158,0.227118,0.4041437,-0.4108128,-0.9204428,0.3925507,-0.3885257,0.1447972,-0.3510418,-0.8232369,3.844259,0.2828618,-0.7131189,1.24468,-0.3797015,302.5986,195.3096,8.608602
1,0.2222222,-1.093871,-0.6699402,-0.1614302,-1.258145,-0.5604516,-2.711735,-1.072992,0.063108,0,0,7.515152,-1.170734,0.2476088,0.3971833,-0.4056357,-0.9165168,0.4028886,-0.4013675,0.144366,-0.3573007,-0.8268662,3.847821,0.2852581,-0.7133365,1.249954,-0.385118,301.9892,193.8668,9.457213
1,0.2333333,-1.15944,-0.6325223,-0.0907678,-1.256417,-0.5545165,-2.6984,-1.072436,0.05046201,0,0,7.515152,-1.180005,0.2849234,0.4018806,-0.3996036,-0.9114839,0.4117628,-0.4081268,0.1475545,-0.3795648,-0.8311321,3.851963,0.2872406,-0.7134532,1.255069,-0.3907835,301.5129,192.4068,10.2915
1,0.2444444,-1.189106,-0.6196758,-0.06612453,-1.253324,-0.5484802,-2.686236,-1.072494,-0.005507207,0,0,7.515152,-1.169288,0.2965934,0.399698,-0.3943391,-0.907829,0.4207171,-0.4124127,0.1453791,-0.3902015,-0.8352429,3.855742,0.2892662,-0.7135045,1.26011,-0.3966298,301.1279,191.0429,11.03594
1,0.2555556,-1.247602,-0.582264,-0.06362802,-1.250386,-0.5438244,-2.67196,-1.070884,0.1475704,0,0,7.515152,-1.190048,0.260698,0.3783417,-0.3903965,-0.9075211,0.4343216,-0.40096,0.1553003,-0.3795654,-0.838419,3.859827,0.2906369,-0.7135018,1.265164,-0.4025481,300.6999,189.8148,11.68708
1,0.2666667,-1.28906,-0.5470179,-0.06123498,-1.247417,-0.5395207,-2.657663,-1.072239,-0.1249317,0,0,7.515152,-1.176957,0.2043916,0.3488967,-0.3881381,-0.9096501,0.4489317,-0.3844051,0.1738644,-0.3603756,-0.8409496,3.864557,0.2909951,-0.713429,1.270344,-0.408609,300.268,188.8667,12.19422
1,0.2777778,-1.349614,-0.4776077,-0.05345869,-1.245142,-0.5372043,-2.641065,-1.071143,0.1018398,0,0,5.333333,-1.156057,0.09819341,0.290216,-0.3881461,-0.9173961,0.4682958,-0.3819609,0.1972427,-0.3452297,-0.8432862,3.869684,0.2917418,-0.7132838,1.275721,-0.4147762,299.7936,187.6204,12.94776
1,0.2888889,-1.392946,-0.3741628,-0.03187448,-1.2448,-0.536391,-2.624441,-1.07151,-0.03424002,0,0,5.333333,-1.086072,0.01194644,0.2267959,-0.389253,-0.9237105,0.4839177,-0.3813543,0.2377334,-0.3405316,-0.8457374,3.876213,0.2916017,-0.7131983,1.281329,-0.4210637,299.2574,186.2196,13.78841
1,0.3,-1.411811,-0.3027588,-0.006158739,-1.244958,-0.5351601,-2.608615,-1.07037,0.1049308,0,0,5.333333,-1.041726,-0.06017113,0.1489396,-0.3915496,-0.9298922,0.4996396,-0.384694,0.2695472,-0.336949,-0.8480384,3.882809,0.2915946,-0.7132322,1.287229,-0.4273739,298.6345,184.7576,14.69527
1,0.3111111,-1.41484,-0.2633589,0.005604833,-1.244368,-0.5331073,-2.593898,-1.071199,-0.076317,0,0,5.333333,-1.027556,-0.08222747,0.1006149,-0.3926842,-0.9320542,0.5125861,-0.3850499,0.2770777,-0.3432614,-0.8509519,3.888649,0.2920196,-0.7135442,1.293507,-0.4338094,298.0073,183.5384,15.45575
1,0.3222222,-1.412678,-0.2464791,-0.0007126033,-1.243011,-0.5310903,-2.579046,-1.072431,-0.1115464,0,0,6.545455,-1.029939,-0.08096862,0.07934625,-0.3929723,-0.934222,0.526058,-0.3880654,0.2706495,-0.3507558,-0.8541002,3.893597,0.2930292,-0.7141407,1.300295,-0.4403187,297.3076,182.52,16.16518
1,0.3333333,-1.410468,-0.1845237,-0.004034966,-1.242279,-0.5313997,-2.56337,-1.073723,-0.1169705,0,0,6.545455,-1.029605,-0.03194666,0.07864714,-0.3918101,-0.9319413,0.5356712,-0.3921267,0.2631256,-0.3593168,-0.8574015,3.898633,0.2942037,-0.7147494,1.307544,-0.4465894,296.42,181.3519,17.19868
1,0.3444445,-1.395426,-0.1387577,-0.0009008646,-1.24236,-0.5313305,-2.54847,-1.073924,-0.01734568,0,0,6.545455,-1.027285,-0.007470131,0.079889,-0.390641,-0.9314896,0.5466263,-0.3939524,0.2853647,-0.3516071,-0.8598309,3.905061,0.2942109,-0.7152286,1.315037,-0.4525933,295.4077,179.7593,18.71273
1,0.3555556,-1.377194,-0.03864267,-0.01802754,-1.243147,-0.5344852,-2.532828,-1.073996,-0.006398882,0,0,6.545455,-1.10489,0.08076727,0.04215051,-0.3892135,-0.9213227,0.5520922,-0.3998726,0.3318683,-0.336115,-0.8614846,3.912817,0.2937627,-0.715569,1.322502,-0.4583726,294.3483,177.822,20.51468
1,0.3666667,-1.376105,0.005004764,-0.02972078,-1.243252,-0.5358599,-2.517073,-1.074759,-0.06968814,0,0,6.545455,-1.107849,0.1352262,0.02985366,-0.3876934,-0.9139479,0.5576132,-0.4000862,0.3690182,-0.3207805,-0.862771,3.920804,0.292879,-0.7159387,1.329754,-0.4640931,293.3392,175.9318,22.19433
1,0.3777778,-1.371734,0.06358841,-0.03291148,-1.244414,-0.5385327,-2.501196,-1.075183,-0.03809367,0,0,6.424242,-1.071845,0.1779348,-0.01284432,-0.3871139,-0.904042,0.5591472,-0.3951251,0.4095638,-0.3065377,-0.863857,3.929386,0.291491,-0.7164398,1.336682,-0.4697269,292.4131,174.1344,23.69426
1,0.3888889,-1.363052,0.124165,-0.02765149,-1.245792,-0.5408102,-2.485686,-1.074546,0.05845217,0,0,6.424242,-1.067014,0.1611158,-0.04394328,-0.3877802,-0.8997655,0.566723,-0.404542,0.4285682,-0.321142,-0.8662075,3.937687,0.2908105,-0.7172372,1.343215,-0.4751604,291.5606,172.4012,25.11663
1,0.4,-1.337326,0.1933452,-0.02563173,-1.248191,-0.5445184,-2.470443,-1.074791,-0.02293206,0,0,6.424242,-1.061052,0.1249682,-0.05816855,-0.3886223,-0.8978235,0.5765421,-0.4092633,0.4329557,-0.3476686,-0.8693516,3.945727,0.2903333,-0.7183068,1.349382,-0.4803002,290.8847,170.8672,26.45726
1,0.4111111,-1.318043,0.2440391,-0.01850396,-1.248872,-0.5469968,-2.455888,-1.07509,-0.0270209,0,0,6.424242,-1.019941,0.06401384,-0.05607197,-0.3900956,-0.8980174,0.5875059,-0.4151877,0.4179435,-0.3616695,-0.8726609,3.952538,0.2907746,-0.7196651,1.355286,-0.4851571,290.3165,169.6214,27.61369
1,0.4222222,-1.276279,0.3238422,-0.006967515,-1.25306,-0.5518847,-2.44147,-1.075812,-0.06583706,0,0,8.484849,-0.9592611,0.04968727,-0.05160117,-0.3904093,-0.8972679,0.5955582,-0.4150061,0.4147056,-0.3563561,-0.8748751,3.959664,0.290683,-0.7212061,1.361048,-0.4896598,289.7946,168.6276,28.62921
1,0.4333333,-1.227236,0.3791169,-0.0158022,-1.256071,-0.557121,-2.427512,-1.076099,-0.02574946,0,0,8.484849,-0.9316783,0.04637003,-0.05838884,-0.3909638,-0.893939,0.6021157,-0.429627,0.4374522,-0.3442273,-0.8765784,3.96799,0.2906569,-0.7229077,1.366759,-0.4938734,289.2513,167.669,29.70244
1,0.4444444,-1.161285,0.3992606,-0.03856727,-1.258135,-0.5618668,-2.415136,-1.076858,-0.06936496,0,0,8.484849,-0.9509729,0.0369556,-0.06249516,-0.3916067,-0.8925563,0.6120282,-0.4291776,0.4585955,-0.3258936,-0.8778338,3.97646,0.2897943,-0.7246771,1.372469,-0.4978323,288.7288,166.5885,30.92286
1,0.4555556,-1.087966,0.3938144,-0.0698804,-1.259605,-0.5663958,-2.404005,-1.077276,-0.03777277,0,0,8.484849,-0.939541,0.06277049,-0.1007653,-0.3926021,-0.8848891,0.6152523,-0.4297929,0.4806911,-0.3022017,-0.8784879,3.985034,0.2890973,-0.72656,1.378254,-0.5016618,288.0805,165.7361,31.96804
1,0.4666667,-1.039248,0.3798847,-0.1138252,-1.260176,-0.5709402,-2.392306,-1.078423,-0.1048694,0,0,8.484849,-0.9317298,0.156646,-0.1214274,-0.3915544,-0.8703178,0.6130911,-0.4379954,0.5026734,-0.293357,-0.8797007,3.994074,0.2882811,-0.7285398,1.384065,-0.5054923,287.3853,164.5353,33.44014
1,0.4777778,-0.978572,0.3659227,-0.1173749,-1.261623,-0.574642,-2.382445,-1.079304,-0.0799932,0,0,7.636364,-0.9176996,0.1949434,-0.128745,-0.3910112,-0.860577,0.6138709,-0.4289524,0.5219964,-0.2740651,-0.8801678,4.003018,0.2870134,-0.7305053,1.389735,-0.5091166,286.7091,162.5898,35.55298
1,0.4888889,-0.9200494,0.3594307,-0.1283921,-1.262854,-0.5788338,-2.372716,-1.078347,0.08773634,0,0,7.636364,-0.8667552,0.2086186,-0.1515982,-0.3912482,-0.8514973,0.6135811,-0.422265,0.5465922,-0.2578946,-0.8806099,4.012305,0.2853803,-0.732504,1.395087,-0.5124919,286.0823,160.2235,37.97377
1,0.5,-0.8549493,0.3891323,-0.1180815,-1.265865,-0.5835657,-2.363806,-1.079325,-0.0906584,0,0,7.636364,-0.8053965,0.1891983,-0.1759416,-0.3927151,-0.8442791,0.6138091,-0.4206455,0.5594606,-0.258836,-0.8815234,4.021614,0.2840541,-0.7346191,1.400033,-0.5156616,285.572,158.0069,40.22166
1,0.5111111,-0.8091379,0.4029034,-0.1204804,-1.268228,-0.5883769,-2.354691,-1.079225,0.009721846,0,0,7.636364,-0.7480431,0.1867144,-0.1862366,-0.3934581,-0.8372467,0.6143234,-0.4212729,0.5734074,-0.2682749,-0.8829482,4.031316,0.2824746,-0.7368273,1.404473,-0.518564,285.0917,156.0194,42.28753
1,0.5222223,-0.7333394,0.430438,-0.100644,-1.271946,-0.5929192,-2.347707,-1.079632,-0.03778167,0,0,7.636364,-0.6854269,0.1992713,-0.2135252,-0.3946714,-0.826585,0.6097986,-0.4174481,0.585259,-0.2660556,-0.8838035,4.040978,0.2808237,-0.7391336,1.408366,-0.5211966,284.6792,154.4663,43.96103
1,0.5333334,-0.6469777,0.4366494,-0.0873017,-1.275005,-0.5970584,-2.341949,-1.078948,0.06255873,0,0,9.333334,-0.6706975,0.1971718,-0.2265565,-0.396174,-0.8163574,0.6079368,-0.4205215,0.5921848,-0.229725,-0.8831378,4.049779,0.2798042,-0.7415615,1.411726,-0.5235923,284.2817,153.4337,45.17447
1,0.5444446,-0.5520706,0.4374347,-0.07031487,-1.278352,-0.6008731,-2.335969,-1.080341,-0.1284121,0,0,9.333334,-0.6407437,0.2236341,-0.2320248,-0.3965457,-0.8049468,0.6033975,-0.4234661,0.5907993,-0.2116057,-0.8831154,4.058519,0.2790042,-0.7441091,1.414649,-0.5258635,283.9762,152.9502,45.90353
1,0.5555557,-0.4635721,0.4405434,-0.0563741,-1.281717,-0.6045994,-2.334058,-1.080965,-0.05635747,0,0,9.333334,-0.5988804,0.2745324,-0.2374151,-0.3958741,-0.7903873,0.595089,-0.4184936,0.5820633,-0.1765963,-0.8821199,4.066439,0.2783877,-0.7466221,1.417149,-0.5278566,283.656,152.618,46.51799
1,0.5666668,-0.4093278,0.4350274,-0.05354176,-1.283822,-0.6080498,-2.329162,-1.079998,0.0883708,0,0,9.333334,-0.5818409,0.3086687,-0.2576097,-0.3965884,-0.7751998,0.5872414,-0.4043858,0.583391,-0.1511927,-0.8814989,4.074881,0.2767432,-0.74906,1.419232,-0.5296705,283.3603,152.4058,47.02557
1,0.577778,-0.3337431,0.409319,-0.05397823,-1.286016,-0.6111129,-2.327121,-1.08316,-0.2904534,0,0,12.48485,-0.5607985,0.3579426,-0.3085931,-0.3978411,-0.755616,0.5746177,-0.4006341,0.5994064,-0.1404025,-0.8806749,4.084251,0.2750686,-0.7514115,1.420987,-0.5314412,283.1111,152.5012,47.21313
1,0.5888891,-0.2869344,0.3889586,-0.05213635,-1.287944,-0.6138938,-2.324149,-1.079659,0.3220642,0,0,12.48485,-0.5409076,0.3944359,-0.3596868,-0.3998736,-0.7359092,0.5618433,-0.3887719,0.6284445,-0.1221049,-0.8793162,4.094502,0.2723199,-0.753637,1.42223,-0.5331029,282.7898,151.6023,48.32629
1,0.6000003,-0.2358379,0.3814147,-0.05668665,-1.29025,-0.6173069,-2.322466,-1.081216,-0.145982,0,0,12.48485,-0.508531,0.403209,-0.4186017,-0.4029949,-0.7166796,0.5486857,-0.384163,0.6498235,-0.1112652,-0.8780378,4.104791,0.2698078,-0.7559676,1.422994,-0.5350202,282.5691,151.1278,48.9377
1,0.6111114,-0.2071538,0.4026689,-0.07281047,-1.293113,-0.6219099,-2.319412,-1.079749,0.135252,0,0,12.48485,-0.4818985,0.4094325,-0.4220676,-0.4046071,-0.70061,0.5384248,-0.3767046,0.6829818,-0.09395583,-0.8764362,4.115877,0.2663372,-0.7582557,1.423255,-0.536955,282.4142,150.9799,49.21723
1,0.6222225,-0.1480225,0.4376609,0.01317962,-1.299602,-0.6241624,-2.31905,-1.080361,-0.05773177,0,0,12.48485,-0.4060975,0.4291141,-0.420687,-0.4058753,-0.6827594,0.523843,-0.3664304,0.6960412,-0.08220404,-0.8747839,4.126388,0.2633169,-0.7604825,1.423113,-0.5389231,282.3511,151.5609,48.77753
1,0.6333337,-0.08796645,0.5036541,0.06300361,-1.308206,-0.6284235,-2.318143,-1.078802,0.1426665,0,0,11.63636,-0.3955269,0.4130455,-0.4166681,-0.4074253,-0.6678787,0.5145949,-0.3596941,0.6918508,-0.06634766,-0.8730998,4.135754,0.2609453,-0.76263,1.422581,-0.5407466,282.2766,151.9569,48.46325
1,0.6444448,-0.04190719,0.5482713,0.09791934,-1.314939,-0.6320331,-2.317884,-1.080082,-0.1186739,0,0,11.63636,-0.3782576,0.398858,-0.3903643,-0.4086248,-0.6547472,0.5063412,-0.347451,0.6866838,-0.03885332,-0.870899,4.145031,0.2582459,-0.7647507,1.421819,-0.5423666,282.1722,153.1768,47.31428
1,0.655556,-0.008805692,0.5557517,0.1020323,-1.321758,-0.6362175,-2.317398,-1.079649,0.04042887,0,0,11.63636,-0.3590616,0.3858896,-0.3811064,-0.410007,-0.6405163,0.4967232,-0.3169893,0.6749094,-0.02439575,-0.8688739,4.153975,0.2549769,-0.7667863,1.420971,-0.5438083,281.8829,155.3217,45.33779
1,0.6666671,0.05609161,0.5482323,0.08677782,-1.327125,-0.6403241,-2.31862,-1.079439,0.01824331,0,0,11.63636,-0.340478,0.3658089,-0.4177266,-0.4137711,-0.625894,0.4865361,-0.2856317,0.6654149,-0.02058569,-0.8673809,4.162887,0.2510932,-0.7688041,1.420159,-0.5452396,281.5237,157.8269,43.08378
1,0.6777782,0.1197479,0.5001846,0.05761997,-1.329778,-0.6433984,-2.32144,-1.078777,0.05998965,0,0,6.909091,-0.346244,0.3586565,-0.4496789,-0.4175085,-0.6106548,0.4767125,-0.2801209,0.6613411,-0.01855888,-0.8657404,4.172155,0.2480426,-0.7708228,1.419396,-0.546715,281.243,159.5018,41.62524
1,0.6888894,0.1557754,0.4681731,0.0436191,-1.333439,-0.6458378,-2.3231,-1.079844,-0.09844331,0,0,6.909091,-0.3398536,0.3586103,-0.4497436,-0.4198708,-0.5964714,0.4673573,-0.2734331,0.6582439,-0.004812257,-0.8636056,4.181141,0.244855,-0.7729591,1.418712,-0.5482749,280.9983,160.6225,40.6235
1,0.7000005,0.211066,0.4361122,0.03582441,-1.336291,-0.6484004,-2.326643,-1.080711,-0.07878937,0,0,6.909091,-0.2811699,0.3752516,-0.4524446,-0.4223566,-0.5807715,0.4540354,-0.2626305,0.6605414,0.01747021,-0.8608838,4.190182,0.2414235,-0.7752165,1.417983,-0.5498041,280.7429,160.9425,40.43048
1,0.7111117,0.2281639,0.4328619,0.04848684,-1.340075,-0.6510203,-2.328928,-1.078853,0.1699597,0,0,6.909091,-0.2445031,0.4100118,-0.4355596,-0.423784,-0.563446,0.4398024,-0.2469855,0.6747985,0.0355508,-0.8582873,4.199997,0.2370331,-0.7774148,1.416935,-0.5509719,280.5409,160.7263,40.75633
1,0.7222228,0.2431348,0.4189691,0.06224567,-1.343944,-0.6530178,-2.331739,-1.079964,-0.1035179,0,0,6.909091,-0.1905909,0.4766227,-0.4218067,-0.4244008,-0.5424625,0.4209731,-0.2199233,0.6702563,0.05756013,-0.8555655,4.208733,0.2328407,-0.7795728,1.415554,-0.5517702,280.4066,161.6397,39.96577
1,0.7333339,0.2250681,0.4136783,0.06442876,-1.347328,-0.655993,-2.333404,-1.078331,0.1499379,0,0,6.060606,-0.1686867,0.4703404,-0.4572974,-0.4283716,-0.5258268,0.4068948,-0.1863893,0.6432875,0.1059131,-0.851468,4.216054,0.2289823,-0.7817366,1.413777,-0.552389,280.2623,162.7169,39.14502
1,0.7444451,0.210183,0.41477,0.0644662,-1.35075,-0.6592037,-2.33479,-1.078047,0.02432603,0,0,6.060606,-0.1856012,0.4111193,-0.4991329,-0.4338875,-0.5147635,0.3995849,-0.1545524,0.6055964,0.1541791,-0.8470503,4.222437,0.2254329,-0.7840603,1.411654,-0.5532261,280.1498,164.6444,37.54026
1,0.7555562,0.2208749,0.407285,0.07398859,-1.35463,-0.6613822,-2.337121,-1.076756,0.1176404,0,0,6.060606,-0.1901938,0.359992,-0.496306,-0.4380298,-0.5049705,0.3929939,-0.1444124,0.5921083,0.1560527,-0.8439403,4.229885,0.2217612,-0.7864435,1.409255,-0.5543158,280.1301,167.0665,35.43706
1,0.7666674,0.248531,0.3880519,0.06847058,-1.357455,-0.6636518,-2.340713,-1.076131,0.05600526,0,0,6.060606,-0.1723218,0.3000767,-0.4810361,-0.4418482,-0.498205,0.3881384,-0.1274022,0.5640746,0.1470287,-0.8417624,4.236391,0.218216,-0.7889099,1.406738,-0.5557833,280.2542,169.751,33.02075
1,0.7777785,0.2824784,0.3688193,0.05015548,-1.359857,-0.6661621,-2.344487,-1.076611,-0.0443554,0,0,6.060606,-0.1465156,0.2922339,-0.4569083,-0.4447143,-0.4882187,0.3798397,-0.1096233,0.5465953,0.1509076,-0.838859,4.243065,0.2143704,-0.7913198,1.404318,-0.5574242,280.5033,172.6759,30.28434
1,0.7888896,0.2962036,0.3549691,0.02873996,-1.36208,-0.6693706,-2.34778,-1.077725,-0.1015413,0,0,18.42424,-0.1366881,0.3027003,-0.4430989,-0.4475133,-0.4757887,0.3698079,-0.1030146,0.5425338,0.1550549,-0.8357431,4.250272,0.2104022,-0.7934759,1.402143,-0.5590121,280.7434,175.4692,27.6712
1,0.8000008,0.298323,0.3464394,0.02659813,-1.3649,-0.6717249,-2.350863,-1.077767,-0.00330626,0,0,18.42424,-0.1109187,0.3905055,-0.3894157,-0.4473322,-0.4571652,0.3536073,-0.09627169,0.5403726,0.180529,-0.8316573,4.257375,0.2064499,-0.7953259,1.40024,-0.5604939,280.9051,177.2599,26.03033
1,0.8111119,0.2908609,0.3411344,0.02450164,-1.367616,-0.6743183,-2.353559,-1.077096,0.06111869,0,0,18.42424,-0.09231433,0.4253676,-0.369132,-0.4488353,-0.4410189,0.3395509,-0.06740594,0.5239013,0.227995,-0.8263949,4.263574,0.201931,-0.7969902,1.398532,-0.5618564,280.9427,178.0398,25.27166
1,0.8222231,0.2865387,0.3336969,0.01493522,-1.370033,-0.6769441,-2.356118,-1.076368,0.06583886,0,0,18.42424,-0.0838936,0.4328682,-0.3819543,-0.4516993,-0.4269069,0.3275137,-0.05428433,0.4983651,0.2670069,-0.8212299,4.268435,0.1988444,-0.7987412,1.396984,-0.5632199,280.9161,178.6692,24.59229
1,0.8333342,0.2854902,0.3294536,0.01917884,-1.372751,-0.679693,-2.358654,-1.075776,0.05347489,0,0,33.45455,-0.06152743,0.4262954,-0.3780294,-0.4543518,-0.4136832,0.3156296,-0.04699042,0.4803067,0.2859084,-0.8165689,4.273709,0.1954987,-0.800687,1.395564,-0.564649,280.8517,179.5918,23.6934
1,0.8444453,0.2897292,0.3294503,0.01277093,-1.375351,-0.6823482,-2.36168,-1.075471,0.02735282,0,0,33.45455,-0.02098715,0.4184736,-0.3679222,-0.4564823,-0.401397,0.3035508,-0.02916658,0.4402196,0.3087322,-0.811772,4.277457,0.1922557,-0.8028484,1.39419,-0.5661237,280.777,180.5513,22.8321
1,0.8555565,0.2950341,0.3219829,0.01167094,-1.377743,-0.6846838,-2.364663,-1.075373,0.008737617,0,0,33.45455,-0.009221435,0.4269209,-0.3690596,-0.4589303,-0.3879725,0.2911823,-0.01088813,0.4140485,0.3284895,-0.8068638,4.28124,0.1891105,-0.8051929,1.392844,-0.5675687,280.7803,181.6043,21.88603
1,0.8666676,0.2939609,0.3166648,0.00743209,-1.380238,-0.687062,-2.367756,-1.075768,-0.03618809,0,0,33.45455,-0.006866515,0.4417404,-0.359368,-0.4608153,-0.3740713,0.2788114,0.006116539,0.3931675,0.3462006,-0.8017851,4.284945,0.1857358,-0.8077202,1.391528,-0.5688936,280.8125,182.7825,20.81691
1,0.8777788,0.2895589,0.2921821,-0.00853854,-1.381455,-0.6892825,-2.370374,-1.075625,0.01336685,0,0,33.45455,0.03001308,0.46886,-0.3212333,-0.4613101,-0.3594639,0.2641084,0.02509847,0.3817184,0.386354,-0.7956178,4.288797,0.1821434,-0.8103606,1.390196,-0.5700957,280.8077,184.0817,19.75745
1,0.8888899,0.2820329,0.2794306,-0.0181299,-1.382773,-0.6920256,-2.372796,-1.075632,-0.0008734092,0,0,30.78788,0.05921951,0.4801017,-0.2905982,-0.461945,-0.346391,0.2508546,0.03460363,0.3667263,0.4233726,-0.7892693,4.29206,0.1790347,-0.8130483,1.388821,-0.5712602,280.8141,185.4518,18.7033
1,0.900001,0.2733732,0.2538905,-0.03301133,-1.383398,-0.6940315,-2.37511,-1.075068,0.05160066,0,0,30.78788,0.0775035,0.4819919,-0.2769682,-0.4634348,-0.3331327,0.2376347,0.05835339,0.3466934,0.4783465,-0.7815999,4.294731,0.1755082,-0.815781,1.387375,-0.5725123,280.8324,186.707,17.75634
1,0.9111122,0.2605037,0.2358164,-0.04360222,-1.384279,-0.6961263,-2.377336,-1.07488,0.01667925,0,0,30.78788,0.08198225,0.5000252,-0.2704614,-0.4646177,-0.3183468,0.2232872,0.07654047,0.3257608,0.5088009,-0.7744733,4.297152,0.1723222,-0.8184438,1.385848,-0.5738228,280.9202,187.7501,16.99876
1,0.9222233,0.2433758,0.2230707,-0.05629167,-1.384967,-0.6983069,-2.379301,-1.074636,0.02220628,0,0,30.78788,0.09519327,0.5477999,-0.2616972,-0.4653869,-0.3004035,0.2057974,0.102039,0.3052262,0.5264098,-0.7676242,4.299283,0.1687342,-0.8210137,1.384262,-0.5752072,281.0417,188.6354,16.34351
1,0.9333345,0.2369771,0.1996429,-0.04881293,-1.385733,-0.6995836,-2.381465,-1.074574,0.005478653,0,0,22.30303,0.1364686,0.5498306,-0.2856128,-0.4680037,-0.2850088,0.1891071,0.1376606,0.2732683,0.5501822,-0.7606606,4.300527,0.1649237,-0.8235003,1.382643,-0.5766876,281.1817,189.3526,15.77384
1,0.9444456,0.2422537,0.1719419,-0.04991376,-1.386238,-0.7007602,-2.384357,-1.074381,0.01767226,0,0,22.30303,0.1482435,0.5043958,-0.3415173,-0.4726312,-0.2740372,0.1773572,0.1556282,0.2494593,0.5475903,-0.7544773,4.302179,0.161391,-0.8259656,1.381025,-0.5783097,281.3113,190.0251,15.19123
1,0.9555568,0.2582061,0.1506005,-0.04682091,-1.386572,-0.7018154,-2.387558,-1.074459,-0.007220285,0,0,22.30303,0.1719939,0.4394377,-0.3657822,-0.4770366,-0.2661925,0.1677136,0.1571714,0.2049424,0.5300342,-0.748997,4.302304,0.1594626,-0.8284392,1.379431,-0.5800583,281.4261,190.6436,14.6451
1,0.9666679,0.2827554,0.1377679,-0.03631216,-1.387448,-0.7028348,-2.391521,-1.075225,-0.06987116,0,0,22.30303,0.1976655,0.4306148,-0.3512468,-0.4794793,-0.2551644,0.155046,0.1562704,0.1759939,0.5393237,-0.742501,4.302493,0.1574876,-0.8308249,1.37785,-0.5818381,281.516,191.2406,14.1411
1,0.977779,0.3211603,0.1238294,-0.02162291,-1.388236,-0.7033371,-2.396319,-1.07558,-0.03194489,0,0,22.30303,0.214381,0.4449821,-0.2991245,-0.480235,-0.2430497,0.1412573,0.152134,0.1592319,0.5924532,-0.734095,4.302304,0.1560327,-0.8330669,1.37624,-0.5835876,281.5953,191.7169,13.75094
1,0.9888902,0.3477868,0.1099189,-0.01858241,-1.388671,-0.7039592,-2.401061,-1.076285,-0.06429353,0,0,18.18182,0.2056639,0.4787048,-0.2454657,-0.4800598,-0.2283133,0.1264298,0.1450211,0.159621,0.6266236,-0.7257982,4.303229,0.1537717,-0.8351156,1.374577,-0.5852318,281.7118,192.2433,13.2901
1,1.000001,0.375447,0.08215548,-0.01770148,-1.38837,-0.7040924,-2.406441,-1.076942,-0.05963216,0,0,18.18182,0.1890039,0.5581077,-0.1689805,-0.4785556,-0.2087631,0.1079036,0.1406219,0.1688004,0.6480809,-0.7174646,4.304696,0.1512588,-0.8370068,1.372835,-0.5867867,281.8328,192.8923,12.69202
1,1.011112,0.3870687,0.04485382,-0.0231011,-1.387669,-0.7038943,-2.411271,-1.076761,0.01686749,0,0,18.18182,0.1639335,0.5857803,-0.1439428,-0.4785812,-0.1924459,0.09236641,0.1428348,0.1636994,0.6341511,-0.7107886,4.305808,0.1484177,-0.8387788,1.370945,-0.5882897,281.9449,193.4841,12.13766
1,1.022224,0.3860028,0.03099801,-0.02202592,-1.387495,-0.7038788,-2.415763,-1.077047,-0.02659918,0,0,18.18182,0.1513254,0.5964562,-0.1351755,-0.4793163,-0.1773356,0.07767136,0.1384415,0.157565,0.596836,-0.7053276,4.307126,0.145881,-0.8405764,1.368846,-0.5899025,282.0512,193.9121,11.76998
1,1.033335,0.3773606,0.00545609,-0.03371134,-1.386459,-0.7037851,-2.41974,-1.076254,0.07264187,0,0,12.36364,0.1553722,0.5955026,-0.1522789,-0.4810393,-0.1627703,0.06294328,0.1265903,0.1511283,0.5606672,-0.7001903,4.308227,0.144019,-0.8424295,1.366414,-0.5917221,282.1502,194.0778,11.67458
1,1.044446,0.3730971,-0.01264612,-0.02731873,-1.385888,-0.7035267,-2.423772,-1.075691,0.05072228,0,0,12.36364,0.160136,0.5808728,-0.1897529,-0.4841456,-0.1492712,0.0490208,0.1133888,0.1623504,0.5609277,-0.693689,4.310599,0.1411846,-0.8443068,1.363652,-0.5936143,282.4156,194.3952,11.30233
1,1.055557,0.3560424,-0.03711622,-0.01978035,-1.385106,-0.702626,-2.427319,-1.075025,0.06039311,0,0,12.36364,0.1472569,0.5325116,-0.2571196,-0.4890118,-0.1394255,0.0390992,0.1113678,0.1631785,0.5748092,-0.6866162,4.311986,0.1389174,-0.8461576,1.360648,-0.5954192,282.8,194.9437,10.67325
1,1.066668,0.3506836,-0.06480026,-0.01657137,-1.384063,-0.7015501,-2.43136,-1.074958,0.005683327,0,0,12.36364,0.1444901,0.505126,-0.2914156,-0.4932457,-0.1288022,0.02846679,0.1107477,0.1524914,0.574694,-0.6801538,4.312821,0.1366953,-0.8479494,1.357496,-0.5970305,283.2402,195.4509,10.11214
1,1.077779,0.3602374,-0.1031762,-0.00812503,-1.382622,-0.6995304,-2.436053,-1.074375,0.05328612,0,0,12.36364,0.1747915,0.4603554,-0.3145284,-0.4975238,-0.1211136,0.01874519,0.1103604,0.1354205,0.5744998,-0.6738974,4.313185,0.1349914,-0.8497446,1.354347,-0.598537,283.6947,196.0607,9.50836
1,1.08889,0.376225,-0.1351667,0.005563825,-1.380923,-0.6979607,-2.441001,-1.074815,-0.0405953,0,0,8.727273,0.1969431,0.4228762,-0.3097962,-0.500711,-0.1135295,0.009265936,0.1086637,0.1226248,0.569049,-0.6676865,4.313349,0.1337096,-0.8515154,1.351322,-0.600011,284.1362,196.6769,8.96062
1,1.100002,0.4124915,-0.1640248,0.024526,-1.379867,-0.6951873,-2.447297,-1.075366,-0.05001586,0,0,8.727273,0.2227587,0.3904135,-0.2709582,-0.5022775,-0.1070756,0.0001296959,0.09254102,0.09138447,0.5433055,-0.6625758,4.312067,0.1342214,-0.8532013,1.3485,-0.6014959,284.5176,197.0723,8.655001
1,1.111113,0.4306359,-0.1843116,0.03826194,-1.378831,-0.6924938,-2.45319,-1.075721,-0.032042,0,0,8.727273,0.2255291,0.4081637,-0.2282211,-0.5032789,-0.09611934,-0.01202044,0.08151738,0.066723,0.519712,-0.657609,4.311262,0.1343618,-0.8546197,1.345865,-0.6028767,284.8272,197.2039,8.56743
1,1.122224,0.4146821,-0.184276,0.04156314,-1.378147,-0.6905417,-2.457683,-1.076761,-0.09498117,0,0,8.727273,0.2076881,0.4327206,-0.2182328,-0.5058605,-0.08419584,-0.02393276,0.08221231,0.0743071,0.5112566,-0.6521102,4.311958,0.1327772,-0.8557916,1.343402,-0.6041701,285.0805,197.1965,8.553187
1,1.133335,0.3892131,-0.1831658,0.05875151,-1.37781,-0.6882178,-2.461662,-1.076313,0.04161611,0,0,8.727273,0.1806664,0.4988167,-0.2003103,-0.5077711,-0.06833831,-0.0389181,0.09638406,0.08994703,0.496362,-0.646917,4.313371,0.1301348,-0.8566315,1.340954,-0.6053919,285.1845,197.208,8.551328
1,1.144446,0.3828824,-0.1884829,0.07050487,-1.377292,-0.6857299,-2.466373,-1.074859,0.1324326,0,0,5.69697,0.1808078,0.5179752,-0.196969,-0.5103485,-0.05539694,-0.05195881,0.09615256,0.09427087,0.4910873,-0.6413786,4.314562,0.1283207,-0.8571995,1.338408,-0.6066364,285.3042,197.2331,8.453288
1,1.155557,0.3904254,-0.2012935,0.09069653,-1.376922,-0.6825011,-2.471612,-1.074109,0.06741603,0,0,5.69697,0.1911461,0.4881453,-0.2058651,-0.5131709,-0.04644873,-0.062245,0.1029448,0.08591769,0.4983797,-0.6355187,4.314485,0.1269835,-0.8577467,1.33578,-0.6081165,285.5428,197.3601,8.153261
1,1.166668,0.3947645,-0.1981129,0.103464,-1.376902,-0.6798065,-2.476716,-1.074805,-0.0639654,0,0,5.69697,0.1891644,0.4149363,-0.240534,-0.5171055,-0.04258235,-0.0679162,0.1054232,0.04671599,0.4861819,-0.6307937,4.31239,0.1271201,-0.8581762,1.333143,-0.6096213,285.8725,197.5682,7.739742
1,1.17778,0.4087096,-0.1864312,0.1161761,-1.377251,-0.6773564,-2.482235,-1.075306,-0.04519228,0,0,5.69697,0.1855562,0.3767073,-0.2525269,-0.5205798,-0.03708505,-0.07463589,0.1002924,0.0299533,0.4434345,-0.6272927,4.311203,0.1271462,-0.8585235,1.330538,-0.6111163,286.197,197.6986,7.405712
1,1.188891,0.4108924,-0.1768527,0.122569,-1.377562,-0.6750624,-2.487283,-1.0753,0.0008806587,0,0,7.636364,0.1908549,0.3402802,-0.2326656,-0.5227801,-0.03224342,-0.08089831,0.09689123,0.03109732,0.4253575,-0.6233267,4.311322,0.1258445,-0.8586562,1.327955,-0.6124259,286.4769,197.8253,7.104457
1,1.200002,0.4141501,-0.1768574,0.1332282,-1.378124,-0.6722314,-2.492579,-1.075705,-0.03716605,0,0,7.636364,0.1857685,0.3454937,-0.2133894,-0.5248467,-0.02394714,-0.08965292,0.1036856,0.04433887,0.4094415,-0.6192691,4.312318,0.1236098,-0.8586823,1.32538,-0.613613,286.7254,198.0145,6.728562
1,1.211113,0.4108806,-0.1917606,0.125781,-1.377441,-0.6693813,-2.497562,-1.075251,0.0417984,0,0,7.636364,0.1674227,0.3340074,-0.2260468,-0.5280825,-0.01795503,-0.09604584,0.1040331,0.05943528,0.3957542,-0.6152413,4.313539,0.1214412,-0.8586081,1.322791,-0.6146035,286.9551,198.2427,6.310077
1,1.222224,0.4022591,-0.2162385,0.1172922,-1.376259,-0.6661295,-2.502337,-1.075294,-0.004360997,0,0,7.636364,0.1575446,0.3203582,-0.2420211,-0.5316516,-0.01262978,-0.1020057,0.09405573,0.06254521,0.370326,-0.6118852,4.314229,0.1201839,-0.8585607,1.32018,-0.6154686,287.2044,198.4946,5.866618
1,1.233335,0.3989743,-0.2300746,0.1066497,-1.375085,-0.6631953,-2.507178,-1.074964,0.03026943,0,0,7.636364,0.1364152,0.3171702,-0.2247559,-0.5340762,-0.006506635,-0.1079105,0.08980678,0.0572872,0.3500524,-0.6089371,4.314575,0.1188667,-0.8584976,1.317542,-0.6161712,287.4604,198.754,5.482986
1,1.244446,0.3851765,-0.2225884,0.1131344,-1.375125,-0.6604437,-2.511514,-1.074641,0.02922353,0,0,6.060606,0.1283604,0.3201315,-0.1884039,-0.5352336,0.0006418218,-0.1153748,0.0784464,0.04014101,0.320144,-0.6065419,4.313901,0.1187384,-0.8584767,1.314874,-0.6168346,287.7595,198.8103,5.339199
1,1.255558,0.3607714,-0.1969732,0.1207421,-1.375635,-0.6584165,-2.515082,-1.074763,-0.01135027,0,0,6.060606,0.1270919,0.2967302,-0.1917787,-0.5377098,0.005028581,-0.1205067,0.07171384,0.03820374,0.2807748,-0.6047746,4.31413,0.1180036,-0.8584424,1.312214,-0.6174237,288.1034,198.755,5.298119
1,1.266669,0.3406422,-0.1780071,0.1176137,-1.372928,-0.6545581,-2.52044,-1.074356,0.03735514,0,0,6.060606,0.1288893,0.2584001,-0.1963778,-0.5402819,0.007393468,-0.1238897,0.07131034,0.04375032,0.2627368,-0.6021524,4.315584,0.1161343,-0.8583828,1.309608,-0.6179063,288.4539,198.7731,5.150209
1,1.27778,0.3129525,-0.1662272,0.1145786,-1.373057,-0.6526843,-2.523283,-1.073765,0.05377549,0,0,6.060606,0.1367019,0.1924643,-0.217262,-0.5433909,0.006239254,-0.124673,0.06469868,0.04271295,0.2382922,-0.600383,4.316007,0.1153087,-0.8583139,1.307127,-0.6182947,288.7947,199.0857,4.717479
1,1.288891,0.2990634,-0.1672651,0.1061306,-1.372514,-0.6504419,-2.526772,-1.075222,-0.1335747,0,0,5.575758,0.1493063,0.1496873,-0.2071128,-0.5453094,0.006541256,-0.1269012,0.05868861,0.02570728,0.213658,-0.5989343,4.315181,0.1156028,-0.8582718,1.304844,-0.6186795,289.1221,199.3782,4.371195
1,1.300002,0.285123,-0.1768152,0.09341857,-1.37165,-0.6481644,-2.529871,-1.073346,0.172834,0,0,5.575758,0.1462724,0.1356845,-0.1858839,-0.5467363,0.008111456,-0.1297636,0.04763648,0.006172184,0.2071698,-0.596972,4.313637,0.1167559,-0.8581681,1.302701,-0.619015,289.3817,199.0747,4.584406
1,1.311113,0.2733549,-0.1725223,0.08283342,-1.37107,-0.64633,-2.532881,-1.073816,-0.04454124,0,0,5.575758,0.1381602,0.1408281,-0.1548495,-0.5476668,0.01198636,-0.1342793,0.03613049,-0.0006124675,0.2040278,-0.5946658,4.313082,0.1172923,-0.8581293,1.300778,-0.6194202,289.6597,199.1811,4.380508
1,1.322224,0.2626618,-0.1692984,0.07437226,-1.370492,-0.6445079,-2.535861,-1.073663,0.01468057,0,0,5.575758,0.1175309,0.16942,-0.1149456,-0.5481185,0.0178272,-0.1397869,0.02835627,0.003526561,0.1892418,-0.5930721,4.313127,0.1172063,-0.8581376,1.299612,-0.6197202,289.7943,198.9345,4.622578
1,1.333336,0.2413529,-0.1543345,0.06810781,-1.370312,-0.6431918,-2.538158,-1.073792,-0.01180864,0,0,5.575758,0.1001178,0.2001093,-0.07505874,-0.548037,0.02426459,-0.1457878,0.02502221,0.004555803,0.1818345,-0.5912228,4.313033,0.1173325,-0.8581249,1.299225,-0.6198606,289.7347,198.7891,4.749865
1,1.344447,0.2114686,-0.1478619,0.05229492,-1.36959,-0.6420647,-2.54008,-1.07393,-0.01242135,0,0,7.151515,0.08552627,0.2128215,-0.0545361,-0.5485137,0.02936401,-0.1504883,0.02614191,-0.001596134,0.1647122,-0.5899174,4.312511,0.1174521,-0.858169,1.299051,-0.6201968,289.4159,198.9922,4.496391
1,1.355558,0.1911982,-0.1371594,0.04282603,-1.369066,-0.6410234,-2.541705,-1.073512,0.03837137,0,0,7.151515,0.07576591,0.1787558,-0.04937366,-0.5489957,0.03092569,-0.1523347,0.02624683,-0.008860527,0.1486428,-0.5889586,4.311968,0.1176933,-0.8582112,1.298867,-0.6205919,289.1899,198.8829,4.490341
1,1.366669,0.1591613,-0.1295849,0.02918164,-1.368865,-0.6403672,-2.542218,-1.073303,0.01887805,0,0,7.151515,0.07444485,0.1446823,-0.05069694,-0.549588,0.03138535,-0.1535246,0.02424668,-0.02032852,0.1197615,-0.5887818,4.311018,0.1183264,-0.8583408,1.298701,-0.6210699,289.0256,198.7954,4.438973
1,1.37778,0.1346248,-0.1156763,0.01760752,-1.368235,-0.6398165,-2.542968,-1.073212,0.008407927,0,0,7.151515,0.08781806,0.08604322,-0.05667394,-0.5502096,0.02906148,-0.1529853,0.0156317,-0.02566907,0.09209518,-0.5887285,4.310161,0.1191227,-0.8586157,1.29857,-0.6216971,288.8988,198.8873,4.179631
1,1.388891,0.1164822,-0.1092207,0.01238997,-1.367912,-0.6391507,-2.543637,-1.072414,0.07308783,0,0,7.636364,0.09392732,0.05086279,-0.05917351,-0.5509042,0.02779914,-0.1530468,0.01022109,-0.02576206,0.08255263,-0.5882534,4.309753,0.1192958,-0.858856,1.298448,-0.6221845,288.7832,198.8836,4.035224
1,1.400002,0.1079328,-0.1081339,0.00711146,-1.367185,-0.6382313,-2.544718,-1.072862,-0.04140155,0,0,7.636364,0.09492004,0.04234244,-0.0603219,-0.5516323,0.02788276,-0.1541965,0.005168395,-0.03340325,0.0814582,-0.5874891,4.30843,0.1205269,-0.8590828,1.29837,-0.6224881,288.7867,198.7653,4.045802
1,1.411114,0.09289992,-0.109112,-0.008766875,-1.36657,-0.6378377,-2.54499,-1.073092,-0.02039799,0,0,7.636364,0.08349832,0.03901576,-0.03357426,-0.5511603,0.02910835,-0.1556692,0.003341677,-0.04095537,0.08460022,-0.5862858,4.307246,0.1216881,-0.8593267,1.298325,-0.6226988,288.7669,198.7622,3.962298
1,1.422225,0.09180151,-0.1080407,-0.01515206,-1.3656,-0.6370857,-2.546117,-1.073697,-0.05504316,0,0,7.636364,0.07642892,0.04843272,-0.007829569,-0.5504269,0.03077123,-0.1578504,0.00239937,-0.04624032,0.07709517,-0.5857911,4.305812,0.122813,-0.8596015,1.298296,-0.6228712,288.728,198.8978,3.756873
1,1.433336,0.06836089,-0.08559138,-0.02243918,-1.365593,-0.6373509,-2.54584,-1.073256,0.04093693,0,0,7.636364,0.06211264,0.07060402,0.02875289,-0.5490708,0.03413107,-0.160926,0.006823231,-0.05136656,0.07379452,-0.5851908,4.304379,0.1237922,-0.8599367,1.298203,-0.6226227,288.3709,199.2746,3.409853
