loc,t,aDotS,bDotS,gDotS,aS,bS,gS,qE,qDotE,tpad,enable,emg,aDotSH,bDotSH,gDotSH,aSH,bSH,gSH,aDotUB,bDotUB,gDotUB,aUB,bUB,gUB,xHand,yHand,zHand,aHand,bHand,gHand
1,0,-0.05924975,-0.7190556,0.08363789,-1.384969,-0.6995325,-2.923081,-1.074789,0.002199376,0,0,2.424242,-0.4170912,0.2576903,0.0513612,-0.5192871,-0.7657526,0.1204641,-0.2713497,0.232951,-0.1520923,-0.8460277,3.883102,0.1284096,-0.7052658,1.161861,-0.3110677,310.8422,216.27,354.0718
1,0.01111111,-0.06463771,-0.7052287,0.06452376,-1.384119,-0.6920969,-2.923298,-1.07453,0.02374662,0,0,2.424242,-0.4035913,0.2278552,0.04028755,-0.519017,-0.7627373,0.1218545,-0.2777058,0.2352677,-0.1605929,-0.8477481,3.886972,0.1291308,-0.7044823,1.161922,-0.3126549,310.9377,215.8228,354.2355
1,0.02222222,-0.0646743,-0.69248,0.05171113,-1.382633,-0.6846092,-2.92401,-1.074795,-0.02434252,0,0,2.909091,-0.4004987,0.2171927,0.03802922,-0.5184013,-0.7586206,0.1226772,-0.2837937,0.2492503,-0.1594458,-0.8491952,3.891718,0.1291641,-0.7036067,1.161986,-0.3142727,310.9651,215.3223,354.4483
1,0.03333334,-0.06577669,-0.6594846,0.03355088,-1.381034,-0.678476,-2.924412,-1.074423,0.0342319,0,0,2.909091,-0.3972969,0.205389,0.04534741,-0.5173899,-0.7550392,0.1238743,-0.2942505,0.2590913,-0.1646985,-0.8507702,3.89629,0.1297716,-0.7026065,1.162073,-0.3159007,310.9839,214.8023,354.5885
1,0.04444445,-0.07323876,-0.6339023,0.02399775,-1.380241,-0.6725861,-2.924356,-1.074898,-0.04370854,0,0,2.909091,-0.4079075,0.2032979,0.0497232,-0.5163646,-0.7507249,0.1249446,-0.2985229,0.2592192,-0.1710878,-0.852529,3.900408,0.1305529,-0.7015115,1.162194,-0.317514,311.0057,214.3055,354.6469
1,0.05555556,-0.08602221,-0.6030108,0.01865869,-1.379038,-0.6669855,-2.924019,-1.074919,-0.001490802,0,0,2.909091,-0.4280904,0.2001861,0.05739207,-0.5153568,-0.7465293,0.1268924,-0.3047335,0.2690443,-0.1880641,-0.8547527,3.905242,0.1309822,-0.7003794,1.162275,-0.3191542,310.9914,213.7828,354.7462
1,0.06666667,-0.1105465,-0.5774508,0.005958129,-1.378029,-0.6613737,-2.922939,-1.074519,0.03655764,0,0,2.909091,-0.4448605,0.216178,0.07051894,-0.5137712,-0.7409729,0.1275673,-0.3109983,0.2756949,-0.2071876,-0.8572247,3.910128,0.1311913,-0.6993064,1.162315,-0.3207926,311.0207,213.3084,354.7804
1,0.07777778,-0.1265495,-0.5614809,-0.004673399,-1.376348,-0.6558114,-2.92204,-1.074295,0.02018074,0,0,2.909091,-0.4553658,0.2182927,0.08132067,-0.5122276,-0.7363102,0.1288746,-0.3098652,0.2788612,-0.2061038,-0.8590474,3.914731,0.1315982,-0.6983621,1.16235,-0.3224559,311.1082,212.9306,354.7742
1,0.08888889,-0.1713212,-0.541254,-0.02477295,-1.374672,-0.6505048,-2.91987,-1.073626,0.06112103,0,0,2.909091,-0.4648101,0.2054154,0.1005045,-0.5102244,-0.7328524,0.131403,-0.3109308,0.2789185,-0.2135566,-0.8611544,3.918952,0.1321828,-0.6975666,1.162429,-0.3241299,311.1866,212.5366,354.8193
1,0.1,-0.202234,-0.5402004,-0.03427429,-1.372665,-0.6445798,-2.917925,-1.073876,-0.0232101,0,0,2.909091,-0.4681213,0.1905305,0.1004183,-0.5089402,-0.7296672,0.1339517,-0.3130797,0.2790481,-0.2242051,-0.8635268,3.923813,0.1326387,-0.696936,1.162607,-0.3258382,311.2572,212.1349,354.9071
1,0.1111111,-0.2640809,-0.539117,-0.05003912,-1.37064,-0.6390564,-2.913856,-1.072863,0.09293504,0,0,2.909091,-0.4778768,0.1511041,0.1097911,-0.5073519,-0.7293748,0.1393166,-0.3143226,0.2717278,-0.2423594,-0.8664211,3.927964,0.1334614,-0.696481,1.162948,-0.327577,311.3153,211.6885,355.0386
1,0.1222222,-0.2971219,-0.5433767,-0.0573878,-1.368447,-0.6331154,-2.91088,-1.073065,-0.01907186,0,0,1.939394,-0.4898237,0.1192244,0.1096619,-0.5061849,-0.7291762,0.1448706,-0.3123481,0.2643104,-0.2562714,-0.8694933,3.931934,0.1340452,-0.6962473,1.163531,-0.3294147,311.3872,211.2478,355.2016
1,0.1333333,-0.348302,-0.5540207,-0.07317528,-1.365859,-0.6271995,-2.906615,-1.071345,0.1576223,0,0,1.939394,-0.50274,0.09906751,0.1107143,-0.5048725,-0.7287027,0.1504342,-0.3090767,0.2685701,-0.2669021,-0.8723578,3.936503,0.1344124,-0.6962153,1.16437,-0.331398,311.3584,210.7668,355.4412
1,0.1444445,-0.3845686,-0.5636101,-0.08371463,-1.362997,-0.6210002,-2.902486,-1.072508,-0.1073441,0,0,1.939394,-0.5348791,0.08657926,0.1046021,-0.5039489,-0.7274179,0.1564493,-0.3088209,0.2802971,-0.2679155,-0.8750694,3.941634,0.1343879,-0.6964688,1.165499,-0.3337216,311.3406,210.3122,355.6862
1,0.1555556,-0.4367939,-0.577444,-0.08992543,-1.360151,-0.6144818,-2.897214,-1.071733,0.07215312,0,0,1.939394,-0.5721694,0.09648037,0.09875195,-0.5028474,-0.7249348,0.1617029,-0.3093588,0.3059202,-0.2741476,-0.8777267,3.94768,0.1339535,-0.696861,1.166971,-0.3363034,311.1594,209.781,356.0117
1,0.1666667,-0.4922318,-0.5912963,-0.1003695,-1.357201,-0.6077461,-2.891421,-1.072063,-0.03065341,0,0,1.939394,-0.6051782,0.1074146,0.09392294,-0.5017374,-0.7220607,0.1670209,-0.3090117,0.3230393,-0.2857702,-0.8808368,3.953722,0.1334529,-0.6973791,1.168737,-0.3392102,310.899,209.2022,356.3632
1,0.1777778,-0.5529829,-0.615785,-0.107601,-1.353919,-0.600538,-2.884978,-1.071286,0.07166699,0,0,0.7272727,-0.6519554,0.1205327,0.094621,-0.500213,-0.7188415,0.1729529,-0.3126437,0.3541072,-0.3004871,-0.8839964,3.960893,0.1324851,-0.6979193,1.170782,-0.3423401,310.5412,208.5381,356.7293
1,0.1888889,-0.6062556,-0.6413224,-0.1073813,-1.350932,-0.593128,-2.878267,-1.07105,0.02119854,0,0,0.7272727,-0.6987202,0.1315026,0.09741904,-0.4987355,-0.7154966,0.179369,-0.3147444,0.3552965,-0.3121996,-0.8873168,3.966611,0.132166,-0.6985541,1.173014,-0.3458104,310.186,207.8598,357.0703
1,0.2,-0.6424733,-0.6572972,-0.1061739,-1.34781,-0.5856717,-2.87179,-1.070755,0.02723884,0,0,0.7272727,-0.7392428,0.1318222,0.09471023,-0.4976761,-0.7128675,0.1865664,-0.3156577,0.36169,-0.3100475,-0.8903161,3.972366,0.1319042,-0.6992519,1.175416,-0.3496205,309.8136,207.1286,357.4416
1,0.2111111,-0.7138796,-0.6902962,-0.1112276,-1.344052,-0.5774186,-2.863365,-1.070904,-0.01343648,0,0,0.7272727,-0.762781,0.126709,0.08962847,-0.4966247,-0.7106544,0.1938877,-0.3153557,0.3766534,-0.3184776,-0.8934847,3.97896,0.1312456,-0.6999645,1.178,-0.3537246,309.443,206.3434,357.8267
1,0.2222222,-0.7362523,-0.694564,-0.1122289,-1.340553,-0.5698877,-2.856312,-1.071616,-0.06464184,0,0,0.7272727,-0.7702675,0.1278524,0.08653836,-0.4954428,-0.7080674,0.2003224,-0.3142145,0.3808782,-0.3184452,-0.8963338,3.984899,0.1310875,-0.7006127,1.180814,-0.3580596,309.051,205.5451,358.2242
1,0.2333333,-0.818291,-0.7179792,-0.1107364,-1.337915,-0.5612335,-2.846076,-1.07004,0.1450423,0,0,0.969697,-0.7991879,0.1303047,0.07306132,-0.4948068,-0.7051241,0.2077425,-0.3162067,0.3884706,-0.3333102,-0.8999338,3.991414,0.1306206,-0.7011505,1.183781,-0.3625829,308.5645,204.6837,358.6673
1,0.2444444,-0.8534321,-0.7275188,-0.1042369,-1.334385,-0.5535849,-2.837344,-1.071865,-0.1677766,0,0,0.969697,-0.8261287,0.1328986,0.05103281,-0.4946278,-0.6992039,0.2133219,-0.3190243,0.40658,-0.3246648,-0.9024878,3.99829,0.1300866,-0.701698,1.186844,-0.3674566,308.1299,203.7346,359.1211
1,0.2555556,-0.9109468,-0.7253554,-0.1008703,-1.330964,-0.5460812,-2.826981,-1.069167,0.2486585,0,0,0.969697,-0.8443657,0.140612,0.0364065,-0.4943546,-0.6953982,0.2200107,-0.3227559,0.4310862,-0.3117244,-0.9047744,4.005915,0.1290685,-0.7021308,1.190019,-0.372397,307.5687,202.7422,359.5616
1,0.2666667,-0.966327,-0.7029281,-0.09540433,-1.327975,-0.5396704,-2.815966,-1.071118,-0.1803784,0,0,0.969697,-0.8594412,0.1590466,0.01334864,-0.4938923,-0.6896767,0.2250331,-0.3267409,0.4450298,-0.3127067,-0.9076426,4.01334,0.1284448,-0.7026627,1.193232,-0.3778088,307.1594,201.9131,359.9189
1,0.2777778,-1.00677,-0.664547,-0.08895865,-1.325219,-0.534,-2.804649,-1.070328,0.07449767,0,0,3.757576,-0.8852977,0.1594366,-0.008705065,-0.494288,-0.6853752,0.2322785,-0.3287175,0.452543,-0.3147882,-0.9105332,4.02063,0.1277076,-0.7031084,1.196626,-0.3834116,306.6973,200.9309,0.3971019
1,0.2888889,-1.051386,-0.5920286,-0.06126565,-1.32407,-0.5300937,-2.792513,-1.070351,-0.002547374,0,0,3.757576,-0.8917886,0.1638342,-0.0192421,-0.4944158,-0.6810443,0.2386893,-0.3319063,0.4525875,-0.3137389,-0.913623,4.027269,0.1273995,-0.7035899,1.200208,-0.3892469,306.2275,199.9258,0.8234751
1,0.3,-1.084298,-0.53872,-0.0357019,-1.322925,-0.5256712,-2.780521,-1.070788,-0.03946034,0,0,3.757576,-0.8850161,0.1999334,-0.009428687,-0.4933501,-0.6735992,0.2417133,-0.3404833,0.4495183,-0.3052242,-0.9160688,4.033919,0.1274621,-0.7041505,1.204056,-0.3952247,305.6979,198.9677,1.196105
1,0.3111111,-1.105493,-0.4779049,-0.0005751252,-1.322918,-0.5221015,-2.768018,-1.07097,-0.015876,0,0,3.757576,-0.9038918,0.2159203,0.00689394,-0.492239,-0.6676396,0.2475525,-0.3563384,0.4550779,-0.2913411,-0.918382,4.04078,0.1279425,-0.7048585,1.208191,-0.4012894,305.0897,198.0984,1.52784
1,0.3222222,-1.121353,-0.4427058,0.02710843,-1.322714,-0.5179795,-2.756304,-1.071487,-0.04680631,0,0,3.757576,-0.9181516,0.2263286,0.0550985,-0.4894054,-0.6615117,0.253036,-0.3509903,0.4537183,-0.2604805,-0.9198244,4.047417,0.1275883,-0.7057825,1.212616,-0.4074838,304.4232,197.4394,1.802244
1,0.3333333,-1.154248,-0.3754874,0.06541425,-1.323639,-0.5155837,-2.742757,-1.071689,-0.01773861,0,0,3.030303,-0.9309487,0.2135835,0.06153937,-0.4880291,-0.6579872,0.2606476,-0.3553175,0.4506122,-0.2604941,-0.9220599,4.053957,0.1277068,-0.7067752,1.217335,-0.4136955,303.6876,196.8069,2.179426
1,0.3444445,-1.17761,-0.3424568,0.08350562,-1.323528,-0.5120279,-2.729878,-1.07274,-0.09583489,0,0,3.030303,-0.9278172,0.1922331,0.06989627,-0.4860589,-0.6545177,0.2680107,-0.3541745,0.4548814,-0.2658043,-0.9247087,4.060935,0.1274538,-0.7077172,1.22233,-0.4198591,302.9049,196.2245,2.564817
1,0.3555556,-1.204174,-0.3030021,0.09949645,-1.324212,-0.5095202,-2.716223,-1.071798,0.0872729,0,0,3.030303,-0.902164,0.1951991,0.07493369,-0.4845015,-0.6503732,0.2734616,-0.3600117,0.4304905,-0.2648818,-0.9270895,4.066315,0.1284413,-0.7085218,1.227497,-0.4259797,302.0534,195.6099,2.99624
1,0.3666667,-1.21475,-0.2784474,0.1240223,-1.32536,-0.5063143,-2.703044,-1.072409,-0.05650618,0,0,3.030303,-0.9030806,0.1898076,0.09090289,-0.4822005,-0.6456046,0.2794655,-0.3615327,0.4080785,-0.2554225,-0.9289926,4.071154,0.1295444,-0.7092116,1.232753,-0.4321795,301.205,195.0702,3.353075
1,0.3777778,-1.213623,-0.2656323,0.1421062,-1.326289,-0.5030274,-2.690353,-1.07232,0.009006072,0,0,3.636364,-0.899554,0.1595768,0.1353493,-0.4789993,-0.6459689,0.2896819,-0.3652056,0.3846489,-0.2449089,-0.9308515,4.075743,0.1309916,-0.7096991,1.238047,-0.4383488,300.3472,194.3638,3.789138
1,0.3888889,-1.205004,-0.2325565,0.1676024,-1.328139,-0.5004831,-2.678035,-1.072918,-0.05460341,0,0,3.636364,-0.8762041,0.1262903,0.1496713,-0.4770457,-0.6460296,0.2990674,-0.3590306,0.3738159,-0.237535,-0.9327897,4.080903,0.1316915,-0.7100251,1.243372,-0.4445444,299.5753,193.7694,4.094016
1,0.4,-1.181505,-0.2240113,0.1866912,-1.329641,-0.4972585,-2.666689,-1.073712,-0.07197614,0,0,3.636364,-0.8250998,0.0831117,0.1721151,-0.4746392,-0.649169,0.3089086,-0.36054,0.3525507,-0.2419216,-0.9351685,4.085063,0.1331533,-0.7101279,1.248758,-0.4507724,298.8532,193.2185,4.378673
1,0.4111111,-1.076989,-0.190975,0.2203962,-1.332354,-0.4946902,-2.659173,-1.074512,-0.07250412,0,0,3.636364,-0.7757161,-0.002419531,0.1654556,-0.4741135,-0.6562146,0.3221109,-0.3527631,0.3172584,-0.2474747,-0.93774,4.088376,0.1348097,-0.7099598,1.254185,-0.4569124,298.0997,192.5825,4.678442
1,0.4222222,-1.022652,-0.2016598,0.221317,-1.333293,-0.4911529,-2.650562,-1.075463,-0.08626135,0,0,3.636364,-0.7351388,-0.01348525,0.1787025,-0.4720948,-0.6586035,0.3309164,-0.3448495,0.2894102,-0.2529818,-0.9403206,4.091705,0.1365997,-0.7095331,1.259629,-0.4628964,297.3222,191.9935,4.895448
1,0.4333333,-1.025857,-0.2101668,0.2235105,-1.334472,-0.4873686,-2.639731,-1.079401,-0.359547,0,0,5.939394,-0.7350991,-0.02957261,0.19135,-0.4699707,-0.6623047,0.3422583,-0.3419791,0.2744915,-0.2626649,-0.9431841,4.095338,0.1381547,-0.7089078,1.265012,-0.4687276,296.5646,191.4255,5.070065
1,0.4444444,-1.062074,-0.1728652,0.222474,-1.336099,-0.4856157,-2.626837,-1.078139,0.118168,0,0,5.939394,-0.7614747,-0.01992077,0.20667,-0.4673581,-0.6641274,0.3533631,-0.3262106,0.2645003,-0.2520913,-0.9452128,4.098991,0.13931,-0.708038,1.270149,-0.4741845,295.6969,190.8085,5.31861
1,0.4555556,-1.107839,-0.1131782,0.2267658,-1.33879,-0.4850037,-2.613007,-1.075338,0.2545913,0,0,5.939394,-0.7506728,0.006687343,0.2035751,-0.4648873,-0.6629663,0.3605052,-0.3160841,0.2886652,-0.2306502,-0.9464917,4.104228,0.1394404,-0.7070158,1.27479,-0.4793072,294.8925,190.0255,5.70536
1,0.4666667,-1.110986,-0.06416504,0.2362718,-1.341703,-0.4842431,-2.600752,-1.073384,0.176453,0,0,5.939394,-0.7385669,0.06520414,0.2007504,-0.4617937,-0.6590748,0.3647228,-0.3145218,0.3109359,-0.2188063,-0.9480172,4.109697,0.1395984,-0.7060214,1.278928,-0.4843118,294.331,189.3686,5.922573
1,0.4777778,-1.09603,-0.04497796,0.2468445,-1.344454,-0.4827422,-2.589436,-1.072684,0.06278849,0,0,5.939394,-0.7234098,0.1109648,0.1934964,-0.4590203,-0.654557,0.3682156,-0.3131834,0.3236681,-0.2144687,-0.9496513,4.115064,0.1398769,-0.7052344,1.282824,-0.4892929,294.0352,189.0263,5.806592
1,0.4888889,-1.052345,-0.04287371,0.2509657,-1.346587,-0.4805962,-2.579854,-1.074379,-0.1551688,0,0,7.757576,-0.7063122,0.1322136,0.1838971,-0.4565628,-0.652083,0.3729901,-0.3051532,0.3011065,-0.2124797,-0.9515491,4.118455,0.1412647,-0.7047769,1.286835,-0.4942466,293.849,188.9445,5.491956
1,0.5,-1.009817,-0.05361105,0.2220991,-1.347332,-0.478846,-2.570569,-1.07545,-0.09646885,0,0,7.757576,-0.7060743,0.1395432,0.1988725,-0.4533084,-0.6504717,0.3793894,-0.2960106,0.280723,-0.2222098,-0.9540327,4.121856,0.1423974,-0.7045757,1.291182,-0.4990084,293.5253,188.836,5.353664
1,0.5111111,-0.9652696,-0.08672354,0.166638,-1.346254,-0.4771549,-2.561564,-1.077071,-0.1475488,0,0,7.757576,-0.724749,0.1025822,0.1785301,-0.4519906,-0.6511999,0.3895035,-0.2864947,0.2773401,-0.2243738,-0.9561931,4.125889,0.1429364,-0.70452,1.295913,-0.5035782,293.0244,188.6581,5.4581
1,0.5222223,-0.9558851,-0.08792274,0.09950033,-1.344739,-0.4768108,-2.551269,-1.077415,-0.03043058,0,0,7.757576,-0.7220976,0.06547952,0.1579109,-0.451393,-0.6522928,0.3987775,-0.2757206,0.2823525,-0.2115737,-0.957619,4.130123,0.1433012,-0.7044175,1.300932,-0.5078743,292.336,188.1836,5.924778
1,0.5333334,-0.9581401,-0.03475899,0.0514957,-1.34482,-0.4783794,-2.539993,-1.077439,-0.002292211,0,0,9.575758,-0.6869804,0.05347055,0.1616392,-0.4495315,-0.6536159,0.4065092,-0.2680922,0.2895735,-0.1987559,-0.9588919,4.134654,0.1434315,-0.7043157,1.306003,-0.5120117,291.5206,187.2556,6.753155
1,0.5444446,-0.9550171,-0.01458566,0.02696528,-1.344895,-0.4789269,-2.529125,-1.076187,0.1143648,0,0,9.575758,-0.6509601,0.06510162,0.1389243,-0.4481978,-0.6521623,0.4112134,-0.260305,0.306417,-0.1943825,-0.9601782,4.139674,0.1434909,-0.7042731,1.310908,-0.5159826,290.7021,185.9148,7.874143
1,0.5555557,-0.9529802,0.03115229,-0.01041105,-1.344816,-0.4813738,-2.518041,-1.07533,0.07719781,0,0,9.575758,-0.6580801,0.05173671,0.08775741,-0.4487863,-0.6513267,0.4181328,-0.2600137,0.320256,-0.1932332,-0.9617042,4.144916,0.1433793,-0.704486,1.315576,-0.5198179,290.0507,184.6791,8.787652
1,0.5666668,-0.9392135,0.05242392,-0.03822927,-1.344305,-0.4833935,-2.507475,-1.075359,-0.003222325,0,0,9.575758,-0.6571237,0.0710699,0.06768324,-0.447949,-0.6485623,0.4230969,-0.2546026,0.3243665,-0.1868153,-0.9629713,4.149734,0.1434416,-0.7051029,1.320117,-0.5235332,289.5648,183.9878,9.268755
1,0.577778,-0.9158428,0.0757838,-0.06496868,-1.343925,-0.4854687,-2.497655,-1.07553,-0.01559186,0,0,9.575758,-0.6584606,0.06270152,0.05058145,-0.4478467,-0.6477175,0.4297205,-0.2504049,0.3210625,-0.1836453,-0.9643839,4.154273,0.1434845,-0.706044,1.324584,-0.527073,289.1136,183.4283,9.808807
1,0.5888891,-0.8956414,0.09920111,-0.08746082,-1.343664,-0.4883971,-2.487929,-1.075899,-0.03370878,0,0,11.63636,-0.6467383,0.06369555,0.05044556,-0.4468715,-0.6464392,0.4353858,-0.2539358,0.3062515,-0.1901192,-0.9662641,4.158065,0.1444677,-0.7073969,1.329039,-0.5305498,288.6854,182.7798,10.48686
1,0.6000003,-0.8818639,0.135341,-0.1184584,-1.343413,-0.4919599,-2.47795,-1.076577,-0.06172763,0,0,11.63636,-0.6537634,0.08486301,0.07308649,-0.444652,-0.6444402,0.441044,-0.2603738,0.3041989,-0.1826621,-0.9674657,4.162256,0.145325,-0.7090452,1.33353,-0.533835,288.242,182.0462,11.33019
1,0.6111114,-0.8680909,0.1860793,-0.158145,-1.341422,-0.4954113,-2.46897,-1.076756,-0.01602644,0,0,11.63636,-0.6403459,0.1303679,0.09781487,-0.4415297,-0.6397722,0.4435239,-0.2568728,0.316743,-0.1548921,-0.9677006,4.167068,0.1453239,-0.7109141,1.338029,-0.5369156,287.7379,181.2905,12.25241
1,0.6222225,-0.8629276,0.2200277,-0.2178753,-1.340174,-0.5006519,-2.458491,-1.076457,0.02731398,0,0,11.63636,-0.6314254,0.1739516,0.1044472,-0.4390168,-0.63301,0.4439854,-0.2586261,0.3348485,-0.1473211,-0.9684463,4.172578,0.1452573,-0.7129838,1.342509,-0.5398591,287.215,180.5462,13.18625
1,0.6333337,-0.8607928,0.2381371,-0.217913,-1.340358,-0.5047463,-2.448097,-1.077186,-0.06705382,0,0,9.212122,-0.6467091,0.1753891,0.07374986,-0.4383813,-0.6284112,0.4475514,-0.2676992,0.359545,-0.1471573,-0.9693294,4.178691,0.145081,-0.7152416,1.346935,-0.5426217,286.7074,179.6117,14.26163
1,0.6444448,-0.8554923,0.2551746,-0.2339692,-1.340081,-0.509549,-2.437789,-1.075974,0.1112041,0,0,9.212122,-0.6153487,0.1627033,0.03274243,-0.4390285,-0.6249853,0.4502369,-0.2694664,0.3777046,-0.1502378,-0.9703968,4.184568,0.1449108,-0.7177111,1.351232,-0.5451573,286.1976,178.2534,15.74862
1,0.655556,-0.841727,0.286011,-0.2649571,-1.339738,-0.5154378,-2.427709,-1.075512,0.04122294,0,0,9.212122,-0.5660494,0.1296819,-0.01075967,-0.440293,-0.6227136,0.4527797,-0.2736762,0.3810601,-0.1619306,-0.9719115,4.190087,0.1449202,-0.7205426,1.355396,-0.5478188,285.7165,177.2288,17.01628
1,0.6666671,-0.8141229,0.3061745,-0.2991518,-1.339001,-0.5215055,-2.41836,-1.07564,-0.01199619,0,0,9.212122,-0.5491165,0.1253459,-0.01741458,-0.4401859,-0.6197048,0.4555885,-0.2758817,0.3790615,-0.1768483,-0.9736623,4.195339,0.1451678,-0.7235765,1.359497,-0.5505177,285.2773,176.6981,17.89035
1,0.6777782,-0.776926,0.3220708,-0.334433,-1.338089,-0.5277197,-2.409735,-1.076046,-0.0371377,0,0,9.212122,-0.5311908,0.1253418,-0.03254972,-0.4403771,-0.6158544,0.4573468,-0.2750259,0.3683305,-0.1673268,-0.9746339,4.200044,0.1455306,-0.7266883,1.363557,-0.5532405,284.8662,176.0363,18.91321
1,0.6888894,-0.7333516,0.3379927,-0.3697755,-1.336915,-0.5347819,-2.40116,-1.076727,-0.06198856,0,0,34.06061,-0.5194443,0.129526,-0.03267214,-0.4400086,-0.6117308,0.4591215,-0.2730618,0.3608164,-0.1673748,-0.9758472,4.204663,0.1459522,-0.7298331,1.367615,-0.5558134,284.5009,175.0911,20.101
1,0.7000005,-0.7110035,0.3486176,-0.3783849,-1.336459,-0.540986,-2.392485,-1.077349,-0.05659547,0,0,34.06061,-0.5119233,0.1508424,-0.04003811,-0.4395031,-0.6057456,0.4591428,-0.2695622,0.3767729,-0.1747294,-0.9772294,4.21079,0.1455913,-0.7330428,1.371687,-0.558166,284.1401,173.8958,21.48367
1,0.7111117,-0.6812788,0.365596,-0.4136553,-1.335426,-0.5484919,-2.384022,-1.077392,-0.00368639,0,0,34.06061,-0.4992557,0.1518958,-0.04976971,-0.4394738,-0.6012752,0.4603125,-0.2564309,0.3935067,-0.1714604,-0.9784118,4.216764,0.144766,-0.7363731,1.37571,-0.5602797,283.7294,172.4289,23.14837
1,0.7222228,-0.6408269,0.3730282,-0.4223289,-1.334781,-0.5553197,-2.376341,-1.076818,0.05232724,0,0,34.06061,-0.4630386,0.1601933,-0.05548425,-0.4394653,-0.596172,0.459529,-0.2456811,0.3985952,-0.1714506,-0.9796444,4.222395,0.1441412,-0.7398953,1.379619,-0.5621714,283.3035,170.9163,24.91133
1,0.7333339,-0.5908098,0.3665942,-0.4395092,-1.333289,-0.5624442,-2.369619,-1.077024,-0.01947105,0,0,24.60606,-0.4279785,0.1492956,-0.05707088,-0.4395233,-0.5927174,0.4599889,-0.242508,0.3974634,-0.1714625,-0.9809136,4.227989,0.143636,-0.7436156,1.383382,-0.5639462,282.8852,169.5681,26.6039
1,0.7444451,-0.5513719,0.3751101,-0.4374942,-1.333143,-0.5689343,-2.363366,-1.077423,-0.03646296,0,0,24.60606,-0.373799,0.1436528,-0.06523039,-0.4396123,-0.5885032,0.4588949,-0.2318883,0.3961228,-0.1640197,-0.9817876,4.233386,0.1430735,-0.7475342,1.386932,-0.5655953,282.4903,168.0991,28.46276
1,0.7555562,-0.4959933,0.3836077,-0.4440631,-1.332606,-0.5760891,-2.35805,-1.078191,-0.07013822,0,0,24.60606,-0.3327231,0.1244045,-0.09253187,-0.4410227,-0.5848717,0.4579803,-0.2169542,0.3957151,-0.1480631,-0.9822755,4.238869,0.1419497,-0.751511,1.390224,-0.5670437,282.1553,166.8167,30.20225
1,0.7666674,-0.4416519,0.42087,-0.4453637,-1.333078,-0.5841479,-2.352944,-1.078222,-0.002589263,0,0,24.60606,-0.3113556,0.1263522,-0.08956996,-0.4410354,-0.580909,0.4571449,-0.2129557,0.3827167,-0.128962,-0.9824572,4.243517,0.1418424,-0.7555546,1.393233,-0.5683175,281.9233,165.5886,31.81214
1,0.7777785,-0.3946652,0.4667239,-0.4104269,-1.335415,-0.5914737,-2.348278,-1.078895,-0.06182878,0,0,24.60606,-0.288653,0.1484423,-0.07580925,-0.4402631,-0.5753669,0.4545545,-0.2024881,0.3728277,-0.1151739,-0.9827347,4.24825,0.1410874,-0.759662,1.395982,-0.5694923,281.7021,164.7928,33.0108
1,0.7888896,-0.3626446,0.4923206,-0.3914046,-1.337282,-0.5989438,-2.343427,-1.07893,-0.00298902,0,0,25.57576,-0.2573245,0.1864502,-0.06308359,-0.4390104,-0.5680736,0.4498295,-0.1942843,0.356525,-0.09078178,-0.9824343,4.252445,0.1409313,-0.7637343,1.398379,-0.5704628,281.4513,163.8409,34.39298
1,0.8000008,-0.3146613,0.517898,-0.3777404,-1.339328,-0.6064668,-2.339779,-1.078702,0.02042569,0,0,25.57576,-0.227227,0.2171024,-0.05998154,-0.4379318,-0.5603781,0.4443407,-0.1807691,0.3390938,-0.07824081,-0.9825264,4.256135,0.1410104,-0.7678289,1.400408,-0.571257,281.187,163.2354,35.39945
1,0.8111119,-0.2581291,0.5264489,-0.3502147,-1.341672,-0.6129041,-2.337265,-1.078067,0.05762221,0,0,25.57576,-0.197561,0.230916,-0.08153555,-0.4380911,-0.5523295,0.4382365,-0.1685583,0.3110591,-0.06452309,-0.98239,4.259225,0.1406178,-0.7719198,1.402086,-0.5719666,280.8897,163.375,35.74134
1,0.8222231,-0.2026239,0.5382176,-0.3163234,-1.344417,-0.6193293,-2.335337,-1.07877,-0.06507032,0,0,25.57576,-0.1839448,0.2202662,-0.09353244,-0.4387696,-0.5463672,0.4346713,-0.1562923,0.2862208,-0.05189495,-0.9822787,4.262237,0.1405563,-0.7759775,1.403458,-0.5727192,280.6658,163.742,35.89056
1,0.8333342,-0.1652564,0.5542282,-0.2908892,-1.34748,-0.6258088,-2.333263,-1.079266,-0.04508909,0,0,25.57576,-0.1726263,0.2033281,-0.1161887,-0.439975,-0.5408918,0.4312451,-0.1393954,0.2795204,-0.05941841,-0.982748,4.265813,0.139605,-0.7798937,1.404514,-0.5734122,280.4688,163.985,36.12841
1,0.8444453,-0.1460439,0.568099,-0.2781781,-1.350587,-0.6325849,-2.330737,-1.079364,-0.008998252,0,0,25.93939,-0.1344956,0.2064199,-0.1357991,-0.4407254,-0.5333598,0.424783,-0.1265669,0.2824309,-0.05835367,-0.9829509,4.269724,0.1386846,-0.783569,1.405235,-0.5740402,280.2645,164.5014,36.07868
1,0.8555565,-0.09911836,0.5904868,-0.2613093,-1.354138,-0.6395789,-2.329555,-1.0787,0.06046133,0,0,25.93939,-0.09662367,0.20219,-0.1725224,-0.4427037,-0.5258982,0.4178891,-0.1144445,0.2990232,-0.0241836,-0.9815964,4.274222,0.1370508,-0.7869505,1.405632,-0.5746044,280.0855,165.3015,35.69302
1,0.8666676,-0.07024258,0.5958713,-0.2230707,-1.358048,-0.6454166,-2.328393,-1.077766,0.08446638,0,0,25.93939,-0.08186615,0.2000525,-0.1844463,-0.4441599,-0.5188493,0.4119388,-0.1003926,0.3070314,0.008860099,-0.9799613,4.278014,0.1358947,-0.7901015,1.405751,-0.5751678,279.9541,166.2833,35.02261
1,0.8777788,-0.01580806,0.6012474,-0.1870171,-1.362335,-0.650932,-2.328813,-1.078634,-0.08026619,0,0,25.93939,-0.05971554,0.204326,-0.2049218,-0.4458206,-0.510879,0.4047398,-0.09400134,0.3057522,0.02268,-0.9788086,4.281903,0.1345978,-0.7931407,1.405738,-0.5757638,279.8988,167.5224,34.00985
1,0.8888899,0.02152508,0.6097821,-0.1764892,-1.366301,-0.657184,-2.329181,-1.078085,0.0505769,0,0,27.39394,-0.04070723,0.2139329,-0.223196,-0.4477626,-0.5020612,0.396835,-0.08049458,0.2894003,0.03535024,-0.9777189,4.28475,0.1337485,-0.7961113,1.405621,-0.5763287,279.7828,168.6128,33.15639
1,0.900001,0.0694769,0.5948659,-0.1712745,-1.369483,-0.6628011,-2.330435,-1.079071,-0.09093008,0,0,27.39394,-0.03324723,0.2256641,-0.2306453,-0.4492279,-0.4933655,0.3890159,-0.06289075,0.2633164,0.05857888,-0.9762062,4.286792,0.132941,-0.7990366,1.405455,-0.576917,279.636,170.0826,31.9831
1,0.9111122,0.1163572,0.5703658,-0.1617782,-1.372412,-0.6678643,-2.332096,-1.078802,0.02513385,0,0,27.39394,-0.03096837,0.2512415,-0.2336517,-0.4503943,-0.483286,0.3802123,-0.04480301,0.2606745,0.07882836,-0.9742535,4.28998,0.1308605,-0.8018316,1.405161,-0.5774489,279.417,171.2677,31.13043
1,0.9222233,0.1291663,0.5629225,-0.1532776,-1.375885,-0.6732125,-2.332751,-1.079004,-0.01919831,0,0,27.39394,-0.01808763,0.2628557,-0.2315753,-0.4514,-0.4739745,0.3718076,-0.02340876,0.264397,0.09159288,-0.9724884,4.293161,0.1288999,-0.8046175,1.404685,-0.5780358,279.205,172.1795,30.51818
1,0.9333345,0.1580172,0.5427305,-0.1213669,-1.379508,-0.6772344,-2.334671,-1.078827,0.01605824,0,0,27.39394,0.01546931,0.2511998,-0.2683092,-0.4543673,-0.4654353,0.3628112,-0.0137058,0.2683523,0.109704,-0.9703115,4.296595,0.1268024,-0.8073425,1.403922,-0.5785536,279.0347,172.9086,30.06297
1,0.9444456,0.1751387,0.5257243,-0.09687154,-1.383221,-0.6810566,-2.336539,-1.077404,0.1296664,0,0,31.39394,0.01290029,0.2429562,-0.2981941,-0.4577127,-0.4566325,0.3550628,-0.007385805,0.2649828,0.1182165,-0.9681107,4.299909,0.1250767,-0.8100193,1.402823,-0.5790113,278.9238,174.0089,29.23024
1,0.9555568,0.1965211,0.5097876,-0.06920815,-1.387037,-0.6845118,-2.338857,-1.077876,-0.04449359,0,0,31.39394,0.02884683,0.2385798,-0.2984264,-0.4600297,-0.4487442,0.3471777,-0.0002581328,0.2488399,0.1202383,-0.9664505,4.302402,0.1234285,-0.812737,1.401492,-0.5795563,278.9174,176.1105,27.42423
1,0.9666679,0.2253519,0.486383,-0.0458148,-1.390465,-0.6876751,-2.341704,-1.077513,0.03344223,0,0,31.39394,0.03738785,0.234222,-0.2943041,-0.462002,-0.4413007,0.3398582,0.009817809,0.2197252,0.1402948,-0.9639727,4.303473,0.1225195,-0.8153539,1.399963,-0.5801275,278.9347,178.4858,25.39247
1,0.977779,0.2722858,0.4619091,-0.02353554,-1.393881,-0.690416,-2.345784,-1.077507,-1.713324E-05,0,0,31.39394,0.05167717,0.2434632,-0.2635079,-0.4626246,-0.4330758,0.3314427,0.01113315,0.1779709,0.1688049,-0.9610459,4.303581,0.1222697,-0.8177903,1.398284,-0.5807481,278.9833,180.9924,23.225
1,0.9888902,0.3010923,0.4502072,-0.01186055,-1.397529,-0.6934147,-2.349681,-1.077658,-0.01404114,0,0,30.06061,0.06473616,0.2560252,-0.2486413,-0.4636286,-0.4245984,0.322712,0.01709927,0.1564369,0.183579,-0.9584435,4.304235,0.1216324,-0.8199317,1.396501,-0.5813517,279.0665,183.4095,21.09517
1,1.000001,0.3448147,0.4353028,0.0008271346,-1.400879,-0.6962142,-2.354655,-1.078471,-0.07442788,0,0,30.06061,0.09061611,0.2684689,-0.23074,-0.4643402,-0.4160449,0.3130812,0.03229074,0.168747,0.2091955,-0.9550213,4.306503,0.1198028,-0.821769,1.394641,-0.5819448,279.1577,185.4688,19.24682
1,1.011112,0.367094,0.4224715,-0.02797855,-1.40305,-0.7003485,-2.358632,-1.078023,0.0413284,0,0,30.06061,0.09907472,0.2888004,-0.2477219,-0.4664143,-0.4053123,0.3021545,0.04638056,0.1790236,0.2241475,-0.9517866,4.308898,0.117439,-0.8233269,1.39266,-0.5825288,279.1994,187.1799,17.67272
1,1.022224,0.3735003,0.4043722,-0.02157396,-1.405808,-0.7031374,-2.362467,-1.078586,-0.05221036,0,0,30.06061,0.1129181,0.3026096,-0.2552164,-0.4680516,-0.3954837,0.2919099,0.05392946,0.1830039,0.2433472,-0.9480709,4.310856,0.1158616,-0.8247867,1.390559,-0.5832341,279.2573,188.9451,15.97679
1,1.033335,0.3862643,0.3447177,-0.01938204,-1.406881,-0.7046479,-2.36674,-1.077485,0.1008322,0,0,30.06061,0.1244812,0.3101266,-0.2723406,-0.4704804,-0.3853807,0.2811262,0.05610906,0.1839237,0.2603934,-0.9443473,4.312901,0.1139753,-0.8262292,1.388283,-0.5840046,279.3413,190.3731,14.56228
1,1.044446,0.3958518,0.3148876,-0.01723441,-1.408568,-0.706576,-2.371121,-1.076656,0.07455657,0,0,24.36364,0.1307383,0.2983819,-0.2757209,-0.472816,-0.3777007,0.272762,0.05771214,0.158264,0.2698379,-0.9408022,4.313678,0.1130565,-0.8278193,1.385848,-0.5847695,279.5381,191.5983,13.29783
1,1.055557,0.4214486,0.2733583,-0.003388606,-1.410008,-0.7074347,-2.376543,-1.076573,0.006959185,0,0,24.36364,0.1658771,0.2713703,-0.2614654,-0.4746339,-0.3719072,0.2645563,0.05882671,0.1092408,0.2674101,-0.9379664,4.312788,0.1128882,-0.8295687,1.383325,-0.5854764,279.7934,193.1715,11.78828
1,1.066668,0.4449083,0.2510027,0.006171517,-1.411841,-0.7088115,-2.382059,-1.076548,0.00218883,0,0,24.36364,0.1811037,0.2645937,-0.2308257,-0.4755585,-0.3657127,0.2568078,0.05928267,0.08045352,0.2672342,-0.9350635,4.312084,0.1128669,-0.8313565,1.380756,-0.5861093,280.1018,194.6917,10.46447
1,1.077779,0.4640714,0.2041248,0.006196037,-1.412239,-0.7091817,-2.387851,-1.077197,-0.05949612,0,0,24.36364,0.1963169,0.2535711,-0.2002087,-0.4760576,-0.3600477,0.2490532,0.06517986,0.05578087,0.2745334,-0.9318348,4.311314,0.1123838,-0.8330592,1.378227,-0.586651,280.4517,196.3415,9.076929
1,1.08889,0.4821379,0.1625582,-0.002307653,-1.412231,-0.7097569,-2.393552,-1.077194,0.0005619428,0,0,24.36364,0.1963778,0.2588862,-0.1980192,-0.4772108,-0.3523272,0.2401082,0.07137363,0.04599037,0.2861944,-0.9279902,4.311083,0.1117862,-0.8345351,1.375716,-0.5870638,280.72,197.7344,7.928747
1,1.100002,0.4821006,0.1380381,-0.01291845,-1.412239,-0.7105852,-2.398758,-1.077034,0.01443759,0,0,23.51515,0.2020049,0.2982523,-0.1966877,-0.478202,-0.3412591,0.2278491,0.07667699,0.04363234,0.3064212,-0.9237025,4.311111,0.1109364,-0.835818,1.373183,-0.5874477,280.9221,198.9338,6.914188
1,1.111113,0.4734665,0.09643034,-0.04584142,-1.41075,-0.7113511,-2.403486,-1.076709,0.02937003,0,0,23.51515,0.2191493,0.3162612,-0.1988696,-0.4794228,-0.3312477,0.2160556,0.08825057,0.03474937,0.3265897,-0.9194276,4.310671,0.109857,-0.8369005,1.370586,-0.5878615,281.1504,199.6451,6.321478
1,1.122224,0.4648915,0.09107391,-0.06499797,-1.410245,-0.713161,-2.408147,-1.076019,0.06265397,0,0,23.51515,0.2232898,0.3195259,-0.2106121,-0.4813568,-0.3221967,0.2053918,0.09657271,0.02497324,0.3307821,-0.9155847,4.310302,0.1088532,-0.8378925,1.36791,-0.5883868,281.4246,200.0463,5.940628
1,1.133335,0.4510737,0.09109598,-0.05430479,-1.410807,-0.7140329,-2.412564,-1.07533,0.062463,0,0,23.51515,0.2335493,0.289748,-0.2259172,-0.4841914,-0.3164091,0.1972401,0.1024177,-0.001797263,0.3327423,-0.911901,4.308595,0.1085438,-0.8389093,1.36519,-0.58905,281.7565,200.3653,5.581268
1,1.144446,0.443661,0.1049805,-0.0383297,-1.412062,-0.7153176,-2.417027,-1.075297,0.002430868,0,0,24.48485,0.2473076,0.2683008,-0.2209296,-0.4858282,-0.3108037,0.1890072,0.1096704,-0.01155536,0.3348021,-0.9081608,4.307424,0.1079619,-0.8400589,1.362477,-0.5898254,282.1406,200.4175,5.445553
1,1.155557,0.4340999,0.09967314,-0.02870496,-1.412687,-0.7160079,-2.421453,-1.074883,0.03795305,0,0,24.48485,0.2770091,0.2349823,-0.2119883,-0.4876248,-0.3069171,0.181426,0.116074,-0.01059012,0.3294706,-0.9046683,4.306843,0.1067976,-0.8413894,1.359842,-0.5905957,282.5186,200.7944,5.014936
1,1.166668,0.4255655,0.07517463,-0.03184066,-1.412341,-0.716401,-2.425927,-1.074948,-0.00624433,0,0,24.48485,0.2846661,0.240121,-0.1971309,-0.4888626,-0.3002991,0.1724618,0.1214067,-0.009606883,0.3252122,-0.9010875,4.306422,0.1056258,-0.8427802,1.357351,-0.5912107,282.8722,201.714,4.145384
1,1.17778,0.4244548,0.0378677,-0.04455576,-1.411098,-0.7164191,-2.430683,-1.074837,0.01015936,0,0,24.48485,0.2701203,0.2635275,-0.1807723,-0.4896669,-0.2918878,0.1625026,0.1266163,-0.01616421,0.334752,-0.8970912,4.305376,0.104691,-0.8442236,1.355044,-0.5917165,283.1677,202.7374,3.26503
1,1.188891,0.4169607,0.005897976,-0.05087534,-1.409808,-0.7162497,-2.434951,-1.074842,-0.0004775229,0,0,24.48485,0.2619266,0.2804982,-0.1634782,-0.4902698,-0.2833433,0.1524425,0.1275256,-0.02480576,0.3506836,-0.8926011,4.303943,0.1042739,-0.8456042,1.352913,-0.5921144,283.4143,203.4477,2.762163
1,1.200002,0.402022,-0.0068928,-0.05507119,-1.408978,-0.7163701,-2.438751,-1.075079,-0.02165139,0,0,16.84849,0.2576367,0.2773381,-0.1634463,-0.4915764,-0.2765672,0.1438027,0.1295588,-0.0291163,0.3527898,-0.8886175,4.302906,0.1036169,-0.8468968,1.350919,-0.5924899,283.6111,203.6573,2.739362
1,1.211113,0.3764445,-0.02393453,-0.05709784,-1.407884,-0.7161767,-2.442065,-1.074601,0.04389118,0,0,16.84849,0.2595763,0.2592313,-0.167906,-0.4935392,-0.2716115,0.1366074,0.1262854,-0.03220069,0.3453194,-0.8850973,4.301847,0.1029972,-0.8480613,1.348983,-0.592854,283.7635,203.5419,2.967842
1,1.222224,0.3593977,-0.04417852,-0.05700646,-1.406662,-0.7155738,-2.445668,-1.074171,0.03892507,0,0,16.84849,0.2635984,0.2422258,-0.1755755,-0.4956521,-0.2663086,0.1291455,0.1240996,-0.03426386,0.3421168,-0.8814269,4.300838,0.1024052,-0.8491133,1.347077,-0.5932301,283.9405,203.4875,3.06547
1,1.233335,0.3604902,-0.05907447,-0.04633085,-1.405784,-0.7147866,-2.449852,-1.073695,0.04331288,0,0,16.84849,0.2656697,0.2304748,-0.17357,-0.4973128,-0.2613876,0.1217411,0.1132944,-0.04035182,0.328249,-0.8782967,4.299597,0.1022891,-0.8501292,1.345199,-0.5937009,284.1361,203.595,2.984949
1,1.244446,0.3669073,-0.06544486,-0.03887238,-1.405284,-0.7142353,-2.454401,-1.074005,-0.02860514,0,0,11.27273,0.2562839,0.2389606,-0.1606082,-0.4984122,-0.2546429,0.1135202,0.1100273,-0.04345082,0.3250404,-0.8748116,4.298613,0.1017905,-0.8511237,1.343383,-0.59431,284.3788,203.7189,2.900617
1,1.255558,0.3765086,-0.06011356,-0.03464829,-1.404793,-0.7140052,-2.459011,-1.074706,-0.06375177,0,0,11.27273,0.2429833,0.2654463,-0.1314537,-0.4984953,-0.246516,0.1041123,0.1045318,-0.05188068,0.3281948,-0.8711253,4.296999,0.1018342,-0.8520554,1.341645,-0.5950601,284.6185,203.7533,2.907731
1,1.266669,0.3658746,-0.0568939,-0.02716155,-1.40454,-0.7137144,-2.462669,-1.075227,-0.04708605,0,0,11.27273,0.2368607,0.2728046,-0.1142734,-0.4989416,-0.2395364,0.09544557,0.1032895,-0.06035396,0.3238859,-0.8677452,4.29536,0.1016771,-0.8528291,1.339948,-0.5958395,284.8,203.7652,2.89631
1,1.27778,0.3445907,-0.06326056,-0.01964588,-1.403877,-0.713177,-2.46593,-1.075376,-0.01325816,0,0,11.27273,0.2250851,0.2557996,-0.1089463,-0.4997502,-0.2345941,0.08899193,0.1010628,-0.06452087,0.3164134,-0.8644168,4.293907,0.1015024,-0.853449,1.338218,-0.5965875,284.9286,203.7984,2.80628
1,1.288891,0.3232974,-0.07496411,-0.01423708,-1.403146,-0.7121916,-2.469018,-1.074416,0.08790527,0,0,11.27273,0.2098799,0.2314924,-0.1185543,-0.5013624,-0.230659,0.0836427,0.09480838,-0.0568701,0.3058166,-0.8613814,4.292994,0.1012491,-0.8539853,1.336402,-0.5972722,285.0777,203.8537,2.647263
1,1.300002,0.3094621,-0.09305858,-0.009901226,-1.402227,-0.7109282,-2.472368,-1.073924,0.04423205,0,0,9.454546,0.2056143,0.2272439,-0.1164072,-0.5023808,-0.2255969,0.07709505,0.09709562,-0.04832439,0.2973426,-0.8583661,4.292612,0.1003809,-0.854563,1.334535,-0.5979678,285.315,204.0084,2.408656
1,1.311113,0.2977697,-0.1015613,-0.0002646297,-1.401606,-0.7096419,-2.475487,-1.073755,0.01524173,0,0,9.454546,0.2066467,0.2208297,-0.1154172,-0.5035627,-0.2209598,0.07070719,0.090857,-0.0407308,0.2963333,-0.8551538,4.291893,0.100056,-0.855203,1.332662,-0.5987063,285.5916,204.1189,2.272492
1,1.322224,0.2924447,-0.1057995,0.001904011,-1.401224,-0.7086539,-2.478713,-1.074095,-0.03108192,0,0,9.454546,0.1960014,0.2176908,-0.1121222,-0.5045832,-0.2157661,0.06443811,0.08219211,-0.04692621,0.2952507,-0.851893,4.290712,0.1003349,-0.8558276,1.330858,-0.5994486,285.8982,204.2412,2.168155
1,1.333336,0.2839372,-0.1207005,0.008346394,-1.400359,-0.7069718,-2.481855,-1.074023,0.006907795,0,0,9.454546,0.1863861,0.2156379,-0.1130868,-0.5057077,-0.2108489,0.05841564,0.07690018,-0.04464827,0.2888812,-0.8489694,4.289747,0.1002912,-0.8563747,1.329167,-0.6001937,286.1785,204.3049,2.127621
1,1.344447,0.2743427,-0.1260338,0.00625997,-1.399365,-0.7056141,-2.484828,-1.074279,-0.02339274,0,0,6.30303,0.1790187,0.2113577,-0.1045055,-0.506415,-0.2063316,0.05248451,0.07688338,-0.0445918,0.2803615,-0.846172,4.288823,0.100051,-0.8568449,1.327614,-0.6009315,286.419,204.3381,2.038312
1,1.355558,0.2615542,-0.1334896,0.005244717,-1.398321,-0.7041818,-2.487487,-1.074207,0.006818217,0,0,6.30303,0.1739674,0.211206,-0.08207098,-0.5064043,-0.201539,0.04654966,0.0737383,-0.04127326,0.2707988,-0.8435723,4.288032,0.09988186,-0.857312,1.326212,-0.6016641,286.6062,204.338,1.929714
1,1.366669,0.2445241,-0.1419897,0.01170085,-1.397555,-0.7025334,-2.489876,-1.074179,0.002624854,0,0,6.30303,0.1675602,0.2144668,-0.08410141,-0.5074009,-0.1962739,0.04042439,0.06970544,-0.02940041,0.260219,-0.8411072,4.287958,0.09924536,-0.8577294,1.324918,-0.6023616,286.7281,204.2391,1.964808
1,1.37778,0.2381473,-0.1441094,0.01704962,-1.396849,-0.7009557,-2.492558,-1.073956,0.02036452,0,0,6.30303,0.1557059,0.2028691,-0.08831587,-0.5084784,-0.1923884,0.03572417,0.06960134,-0.03470624,0.2580473,-0.8385,4.286993,0.09898783,-0.8581483,1.323687,-0.6030727,286.8232,204.0547,2.086292
1,1.388891,0.2232479,-0.1377098,0.02239522,-1.396243,-0.6997221,-2.494743,-1.073752,0.01861999,0,0,6.30303,0.1448444,0.1870215,-0.09577966,-0.5098569,-0.1894211,0.03192331,0.05889262,-0.03656554,0.2495313,-0.8360685,4.28605,0.0993431,-0.8585317,1.32251,-0.6037516,286.9456,203.9438,2.146655
1,1.400002,0.2083321,-0.1302637,0.01923353,-1.395562,-0.6985887,-2.496866,-1.07417,-0.03823343,0,0,9.454546,0.1363455,0.1827859,-0.09144667,-0.510626,-0.1855392,0.02725053,0.05684252,-0.03219911,0.2399689,-0.8338379,4.285581,0.09899795,-0.8588718,1.321404,-0.6044452,287.098,203.9249,2.141563
1,1.411114,0.1891359,-0.1270759,0.0118267,-1.394693,-0.6976262,-2.498472,-1.073907,0.02446526,0,0,9.454546,0.1225105,0.1689596,-0.0818093,-0.5112167,-0.1824771,0.02376578,0.05587586,-0.0256653,0.2197687,-0.8321617,4.2853,0.09861313,-0.8591449,1.320351,-0.6051421,287.2201,203.8887,2.151164
1,1.422225,0.1678381,-0.1323915,0.01402698,-1.393873,-0.6961588,-2.499992,-1.073953,-0.004396098,0,0,9.454546,0.1192281,0.1572671,-0.08188048,-0.5123107,-0.1795098,0.01991485,0.0529239,-0.01160337,0.1953519,-0.8308237,4.285696,0.09786904,-0.8593798,1.319353,-0.6058884,287.3484,203.8492,2.146828
1,1.433336,0.1561082,-0.1419818,0.0108818,-1.392756,-0.6946387,-2.501616,-1.073615,0.03105958,0,0,9.454546,0.1136282,0.1285891,-0.08738229,-0.5134713,-0.1785245,0.01797714,0.04447465,-0.005961465,0.1719628,-0.8296998,4.285744,0.09764586,-0.8596189,1.318401,-0.6066553,287.4532,203.6793,2.20518
1,1.444447,0.1433219,-0.1441052,0.0119968,-1.39202,-0.6931212,-2.503047,-1.073564,0.004481503,0,0,10.30303,0.1070168,0.1159244,-0.09593268,-0.5148396,-0.1767332,0.01576884,0.03485774,-0.006797964,0.1687773,-0.8278665,4.285544,0.09775639,-0.8599089,1.317494,-0.6074101,287.5472,203.4583,2.28231
1,1.455558,0.1347885,-0.1515657,0.008838676,-1.390846,-0.6915414,-2.504558,-1.073825,-0.02367208,0,0,10.30303,0.09519102,0.106448,-0.09906393,-0.5160977,-0.1750198,0.01362527,0.03056391,-0.007727707,0.1623785,-0.8263389,4.285345,0.09766398,-0.8602474,1.316642,-0.6081181,287.644,203.277,2.349793
1,1.466669,0.1219624,-0.1473089,-0.0007176101,-1.389797,-0.6905934,-2.505474,-1.073814,0.001293409,0,0,10.30303,0.094312,0.1148923,-0.0883306,-0.51673,-0.1715129,0.009599631,0.02935339,-0.01519288,0.1676624,-0.8243464,4.284508,0.09795399,-0.8606125,1.315852,-0.6087879,287.7496,203.134,2.442713
1,1.47778,0.1208826,-0.1462495,-0.004982851,-1.388654,-0.6894935,-2.506969,-1.074019,-0.0186349,0,0,10.30303,0.08297329,0.1254201,-0.06359719,-0.5165329,-0.1678692,0.005911152,0.02605105,-0.02043274,0.1644382,-0.8226829,4.283772,0.09814574,-0.8609857,1.315143,-0.6094524,287.864,203.0483,2.516564
1,1.488891,0.126206,-0.1398627,-0.005007684,-1.387813,-0.6883835,-2.508707,-1.073698,0.02957604,0,0,10.30303,0.07902899,0.1220119,-0.03587024,-0.5158958,-0.1656598,0.003225621,0.02400445,-0.01496436,0.1484929,-0.8215809,4.283739,0.09796864,-0.861315,1.314501,-0.6100727,287.9459,202.8534,2.686551
1,1.500003,0.1315823,-0.1389174,-0.008231729,-1.385471,-0.686099,-2.511623,-1.07434,-0.05891364,0,0,12.48485,0.08107685,0.1027911,-0.03179555,-0.5161393,-0.1645684,0.001219728,0.02193133,-0.01053277,0.12935,-0.8207197,4.283959,0.09766078,-0.861623,1.313934,-0.6106532,288.0227,202.6573,2.832962
1,1.511114,0.1166648,-0.1282642,-0.01033785,-1.38469,-0.6853554,-2.512534,-1.074747,-0.03654985,0,0,12.48485,0.07879502,0.07828377,-0.02984454,-0.5164253,-0.1645205,0.0003587278,0.02075519,-0.01468823,0.115478,-0.8199362,4.283422,0.09783468,-0.8619236,1.313429,-0.6111897,288.08,202.4508,2.977352
1,1.522225,0.09751533,-0.1080287,-0.007128812,-1.384144,-0.6847983,-2.513226,-1.075759,-0.09223866,0,0,12.48485,0.07873242,0.06760927,-0.02779883,-0.5166218,-0.1637652,-0.0009914949,0.01629152,-0.02412801,0.1079622,-0.8191292,4.282772,0.09814122,-0.8622171,1.312948,-0.6116798,288.1219,202.2141,3.155674
1,1.533336,0.07516059,-0.09203594,-0.002831038,-1.383928,-0.684328,-2.513405,-1.074136,0.1490776,0,0,12.48485,0.07025104,0.06228954,-0.02134719,-0.5166224,-0.1627783,-0.002350506,0.01401481,-0.0304233,0.09940583,-0.8184022,4.281916,0.0986568,-0.8624385,1.312388,-0.6120468,288.1386,201.7607,3.527795
1,1.544447,0.06451756,-0.07924207,-0.002803806,-1.383873,-0.6838646,-2.513992,-1.07382,0.02761012,0,0,12.48485,0.05668619,0.06753996,-0.001961388,-0.5160705,-0.1612102,-0.004031493,0.01177236,-0.03567317,0.09511063,-0.817583,4.281167,0.09904695,-0.8627339,1.311774,-0.6124384,288.2313,201.6768,3.554287
1,1.555558,0.05707189,-0.07071217,0.0003986582,-1.3837,-0.6833964,-2.514438,-1.073455,0.03335004,0,0,11.51515,0.05365561,0.06851909,0.01086806,-0.5155406,-0.1596549,-0.005891977,0.01157803,-0.04412998,0.08440726,-0.8170594,4.280076,0.09967147,-0.8631238,1.311166,-0.6128771,288.3607,201.7798,3.435263
1,1.566669,0.05599249,-0.06750654,-0.001722008,-1.38349,-0.6829394,-2.515039,-1.073988,-0.04888681,0,0,11.51515,0.05468114,0.05461989,0.01605864,-0.5152934,-0.1593177,-0.006790528,0.01157035,-0.04407867,0.07587808,-0.8166615,4.27938,0.09991621,-0.8635858,1.31067,-0.6133745,288.5448,201.9675,3.263314
1,1.577781,0.06348548,-0.06533884,-0.006021516,-1.38324,-0.6831253,-2.516718,-1.074053,-0.005368666,0,0,11.51515,0.05550274,0.04086379,0.00421476,-0.5156476,-0.1593668,-0.007402522,0.008320613,-0.04495746,0.05776252,-0.8167564,4.278948,0.1002736,-0.8640635,1.310343,-0.6139015,288.6821,202.0683,3.187608
1,1.588892,0.07094825,-0.05468593,-0.004996328,-1.383056,-0.6828883,-2.517799,-1.074321,-0.02443309,0,0,11.51515,0.05422747,0.02817241,-0.00440174,-0.516021,-0.1592315,-0.007897871,0.007277645,-0.04387029,0.05777077,-0.816147,4.278244,0.1007112,-0.8644893,1.310195,-0.6144026,288.7424,202.084,3.19245
1,1.600003,0.05283919,-0.04507202,-0.001752477,-1.383313,-0.6827871,-2.517617,-1.0756,-0.1166964,0,0,12.60606,0.04783741,0.02715998,-0.004321852,-0.5159315,-0.1585209,-0.009002283,0.006208885,-0.04382844,0.05670536,-0.8156043,4.277764,0.1010347,-0.8648357,1.310209,-0.6148686,288.7422,202.0564,3.238601
1,1.611114,0.02514479,-0.03228141,-0.001694834,-1.383366,-0.682884,-2.516918,-1.075052,0.05113731,0,0,12.60606,0.0362992,0.03031964,0.008617461,-0.5156604,-0.1579217,-0.009522133,0.002923414,-0.04801593,0.0556206,-0.8150791,4.276776,0.101794,-0.8650485,1.310286,-0.6151825,288.6443,201.9113,3.373788
1,1.622225,0.01667432,-0.03116708,0.002584291,-1.383631,-0.682982,-2.517472,-1.073752,0.1182756,0,0,12.60606,0.03539825,0.03985335,0.01723323,-0.5151768,-0.1560149,-0.0114452,-0.0003057048,-0.04897159,0.04815379,-0.8149933,4.275925,0.1024707,-0.8652588,1.310317,-0.6154628,288.5298,201.7936,3.441666
1,1.633336,0.02198152,-0.03437542,-0.003817286,-1.383134,-0.6827115,-2.517938,-1.073262,0.04386525,0,0,12.60606,0.03119617,0.0334199,0.02575361,-0.5146047,-0.155608,-0.01199914,-0.006860901,-0.05511492,0.02895246,-0.8154024,4.274824,0.1035362,-0.8655879,1.310305,-0.6158372,288.5032,201.8435,3.345891
1,1.644447,0.03475554,-0.03438087,-0.00490279,-1.383015,-0.682303,-2.518774,-1.074631,-0.1252915,0,0,12.60606,0.03647933,0.02162196,0.02984955,-0.5141541,-0.1562088,-0.01193389,-0.004730169,-0.05398867,0.01190957,-0.8158813,4.274227,0.1038159,-0.865983,1.310328,-0.6162524,288.5658,201.9472,3.242497
1,1.655559,0.03264821,-0.01519389,0.001461683,-1.383512,-0.6825575,-2.519018,-1.074722,-0.007095126,0,0,10.06061,0.03945708,0.01212125,0.01695393,-0.5143102,-0.1565933,-0.01229209,-0.005629759,-0.04647775,0.007696228,-0.8158738,4.274055,0.1037669,-0.8663733,1.310383,-0.6166366,288.5783,201.9484,3.273164
1,1.66667,0.01774558,0.006120523,0.003584781,-1.383916,-0.6832857,-2.518528,-1.075085,-0.03322976,0,0,10.06061,0.03611226,0.01224736,0.005275492,-0.5146751,-0.156204,-0.01283777,-0.004531814,-0.04547282,0.01409226,-0.8155462,4.273373,0.1042497,-0.8667144,1.310429,-0.6169615,288.5629,201.8522,3.393324
1,1.677781,0.002806366,0.01890568,-0.003840392,-1.384212,-0.6839796,-2.517879,-1.074673,0.03795493,0,0,10.06061,0.0266019,0.01441025,0.009673133,-0.5143992,-0.1556799,-0.01337333,-0.007839408,-0.05074736,0.01833543,-0.8151302,4.27247,0.1051997,-0.8669916,1.310436,-0.6172229,288.5367,201.8236,3.425266
1,1.688892,-0.008937548,0.01463262,-0.01232142,-1.3839,-0.6842359,-2.517354,-1.074024,0.0589639,0,0,10.06061,0.02350897,0.01220954,0.02033566,-0.5139486,-0.1555979,-0.01340129,-0.01310007,-0.04743521,0.0172986,-0.8150018,4.271837,0.1059533,-0.8672489,1.310405,-0.6174568,288.5345,201.9788,3.277643
1,1.700003,-0.01321183,0.0114304,-0.01656469,-1.383651,-0.6844441,-2.517029,-1.073894,0.01156103,0,0,9.212122,0.0193159,0.01217987,0.02678364,-0.5133818,-0.1554903,-0.01342713,-0.01295237,-0.03993686,0.01201839,-0.8150588,4.271857,0.1060399,-0.86756,1.310392,-0.6177367,288.5978,202.1646,3.10128
1,1.711114,-0.01323392,0.009286808,-0.02401801,-1.383222,-0.6847722,-2.516821,-1.074058,-0.01493768,0,0,9.212122,0.01291482,0.009020586,0.02790098,-0.5130452,-0.1554599,-0.01338132,-0.00867888,-0.03892882,0.006690624,-0.8152043,4.271346,0.106328,-0.8678952,1.310471,-0.6179845,288.6808,202.2303,3.033975
1,1.722225,-0.01645301,0.007148159,-0.03146647,-1.382754,-0.6851861,-2.516505,-1.074381,-0.02935502,0,0,9.212122,0.01284354,0.004787266,0.02466435,-0.5129775,-0.1556367,-0.01337147,-0.006428814,-0.0325405,0.0003349334,-0.8153737,4.271257,0.1064007,-0.8682542,1.31066,-0.6182158,288.7077,202.1438,3.134222
1,1.733337,-0.01860298,0.0156581,-0.03893219,-1.382462,-0.6859376,-2.516084,-1.074634,-0.02282228,0,0,9.212122,0.02237101,-0.001663253,0.0234269,-0.5127789,-0.1561385,-0.01350169,-0.004374174,-0.03574842,-0.005014114,-0.8156676,4.270613,0.1068159,-0.8686182,1.310942,-0.6184164,288.6667,202.0235,3.274563
1,1.744448,-0.02286585,0.02738195,-0.03680173,-1.382699,-0.6866305,-2.515427,-1.074622,0.001344031,0,0,9.212122,0.02962677,-0.02083561,0.01785897,-0.5126084,-0.1576272,-0.01284656,-0.004415542,-0.03787991,-0.002901156,-0.8157241,4.270147,0.1071909,-0.8689732,1.311275,-0.6185498,288.5857,201.8634,3.43306
1,1.755559,-0.02075267,0.03163147,-0.04320704,-1.382419,-0.6874402,-2.515131,-1.074621,1.431183E-05,0,0,8.969697,0.03171582,-0.03473461,0.02198004,-0.5121781,-0.1593273,-0.01186145,-0.002529234,-0.04850737,-0.01361539,-0.8162072,4.269083,0.1079414,-0.8693439,1.311629,-0.6185877,288.5085,201.7198,3.556892
1,1.76667,-0.01757213,0.04120833,-0.04963069,-1.382205,-0.6885896,-2.514863,-1.074429,0.01761014,0,0,8.969697,0.03502834,-0.03698865,0.03257452,-0.511443,-0.1605705,-0.01130166,-0.004785974,-0.05372638,-0.02323098,-0.8168682,4.26822,0.1086333,-0.8697348,1.311993,-0.6185305,288.4546,201.7088,3.598791
1,1.777781,-0.01544542,0.04653998,-0.05072035,-1.382087,-0.6896628,-2.514538,-1.074841,-0.03780638,0,0,8.969697,0.04383556,-0.02975449,0.05063538,-0.510316,-0.1608666,-0.01195227,-0.01141934,-0.06528119,-0.02648206,-0.8173279,4.266968,0.1097667,-0.8701128,1.312381,-0.6183911,288.427,201.8215,3.578557
1,1.788892,-0.01226563,0.04760621,-0.05499081,-1.381898,-0.6906578,-2.514262,-1.07501,-0.0150564,0,0,8.969697,0.04284901,-0.0298012,0.05703961,-0.50945,-0.1615378,-0.011801,-0.01687003,-0.0704451,-0.03502596,-0.8180938,4.26577,0.1109571,-0.8705165,1.31277,-0.6182594,288.3885,201.8173,3.679741
1,1.800003,-0.004801486,0.03908869,-0.05180581,-1.381562,-0.6910738,-2.514376,-1.074958,0.004874343,0,0,8,0.04617371,-0.02670782,0.06554464,-0.5085258,-0.1621322,-0.01192723,-0.01820575,-0.08429722,-0.02978115,-0.8184352,4.26401,0.1122389,-0.8709494,1.313143,-0.6181319,288.3444,201.7918,3.785783
1,1.811115,-0.00586706,0.03802365,-0.05180088,-1.38131,-0.6917518,-2.514141,-1.074988,-0.00283553,0,0,8,0.03881047,-0.01922537,0.06889512,-0.5076576,-0.1620544,-0.01220607,-0.01611103,-0.08650319,-0.0244711,-0.8186451,4.262621,0.113289,-0.871376,1.313487,-0.6179864,288.303,201.8079,3.851065
1,1.822226,-0.01333743,0.03802164,-0.05604016,-1.38096,-0.6926136,-2.51356,-1.075267,-0.02550206,0,0,8,0.03575438,-0.01286106,0.07538119,-0.5065988,-0.1618014,-0.01294935,-0.01080135,-0.08769125,-0.0212924,-0.8188816,4.261463,0.1139697,-0.871753,1.313799,-0.617784,288.28,201.8334,3.902625
1,1.833337,-0.02186409,0.04547716,-0.05815906,-1.380825,-0.6936437,-2.512844,-1.074984,0.02611027,0,0,8,0.02941795,-0.01071236,0.07867371,-0.5056219,-0.1618541,-0.01299063,-0.005357642,-0.08250224,-0.0170098,-0.8189886,4.260488,0.1145074,-0.8720356,1.314064,-0.617538,288.2621,201.8289,3.99564
1,1.844448,-0.02720021,0.05719552,-0.05815162,-1.381068,-0.6947538,-2.511991,-1.074642,0.03101761,0,0,8,0.02406125,-0.01279893,0.07765502,-0.5048448,-0.1624145,-0.01256772,-0.003120996,-0.07718618,-0.02231178,-0.8195596,4.259767,0.1148885,-0.8722813,1.314269,-0.6173359,288.2462,201.808,4.081879
1,1.855559,-0.03464789,0.06466218,-0.05495809,-1.381144,-0.6959463,-2.511091,-1.07454,0.009114244,0,0,7.636364,0.02403726,-0.01064128,0.0744774,-0.5041412,-0.1624752,-0.0127616,-0.005352765,-0.08135796,-0.02978978,-0.8202749,4.258434,0.1159546,-0.8725172,1.314427,-0.617192,288.243,201.78,4.14449
1,1.86667,-0.03783789,0.0636014,-0.05281641,-1.381136,-0.6967937,-2.510396,-1.074466,0.006753046,0,0,7.636364,0.03332803,-0.02549995,0.05932195,-0.5039883,-0.1642547,-0.01186252,-0.003180526,-0.07926574,-0.03084709,-0.820767,4.257381,0.1166278,-0.8727689,1.314584,-0.6170927,288.2779,201.8303,4.099288
1,1.877781,-0.03675601,0.05615519,-0.04641476,-1.381115,-0.6972315,-2.509969,-1.074491,-0.002276702,0,0,7.636364,0.04155964,-0.04676498,0.04732424,-0.5038019,-0.1668588,-0.01042867,-0.003189601,-0.07923438,-0.03617346,-0.8214622,4.256303,0.1173983,-0.8729131,1.315024,-0.6166424,288.1682,201.9888,3.906637
