loc,t,aDotS,bDotS,gDotS,aS,bS,gS,qE,qDotE,tpad,enable,emg,aDotSH,bDotSH,gDotSH,aSH,bSH,gSH,aDotUB,bDotUB,gDotUB,aUB,bUB,gUB,xHand,yHand,zHand,aHand,bHand,gHand
1,0,-0.1462079,-0.5858345,0.1872468,-1.360434,-0.7080291,-2.876916,-1.073968,0.03891524,0,0,0,-0.3949846,0.2834777,0.02033142,-0.5359697,-0.7438369,0.1445002,-0.2156773,0.293729,-0.1145372,-0.904009,3.943411,0.1133194,-0.7010412,1.174455,-0.3057158,308.7903,214.5861,356.8781
1,0.01111111,-0.1707478,-0.5720007,0.1723807,-1.360229,-0.7018378,-2.875473,-1.074008,-0.003924279,0,0,0,-0.4076248,0.2631346,0.04376096,-0.5343356,-0.7397133,0.1458917,-0.2228779,0.3066936,-0.1197786,-0.9050732,3.948473,0.1128893,-0.700643,1.174505,-0.3077771,308.8985,214.0254,357.2662
1,0.02222222,-0.2219155,-0.5528266,0.1533229,-1.359833,-0.6962723,-2.872573,-1.073398,0.05584718,0,0,0,-0.4140365,0.2417928,0.05430938,-0.5332101,-0.7359209,0.1474169,-0.2270857,0.3100094,-0.127219,-0.9064426,3.953048,0.1127353,-0.7000429,1.174619,-0.3102265,308.8835,213.5515,357.4246
1,0.03333334,-0.2965541,-0.5368609,0.1279546,-1.35908,-0.6906285,-2.868071,-1.073325,0.006373021,0,0,0,-0.4043127,0.2095106,0.08482274,-0.5309965,-0.7339256,0.150092,-0.225118,0.3025404,-0.1325912,-0.9077299,3.95723,0.1125742,-0.6992072,1.17486,-0.3128971,308.8277,213.1092,357.3778
1,0.04444445,-0.3370922,-0.5336884,0.1067578,-1.357984,-0.6847658,-2.864423,-1.072236,0.09971944,0,0,2.30303,-0.402133,0.1891196,0.1006097,-0.5291674,-0.7315575,0.1524186,-0.2209816,0.2971276,-0.1347567,-0.9088762,3.961099,0.1125881,-0.6982847,1.175291,-0.3158005,308.8764,212.6975,357.2302
1,0.05555556,-0.3904331,-0.5198288,0.08346616,-1.356907,-0.6798086,-2.859291,-1.070844,0.1266436,0,0,2.30303,-0.4030808,0.1558633,0.1291083,-0.5266971,-0.7310153,0.1564482,-0.2161532,0.273635,-0.14342,-0.9105241,3.964124,0.1129753,-0.697529,1.176029,-0.3190424,309.0402,212.2489,357.0847
1,0.06666667,-0.4256406,-0.5028014,0.06437879,-1.355796,-0.674805,-2.854577,-1.071939,-0.1007694,0,0,2.30303,-0.4061917,0.131207,0.1502514,-0.5242369,-0.7303416,0.1605002,-0.20645,0.2798598,-0.1497924,-0.9120144,3.968493,0.1122706,-0.6969898,1.177281,-0.3224742,309.12,211.7014,357.0213
1,0.07777778,-0.4800014,-0.476173,0.05064194,-1.354581,-0.6705691,-2.848285,-1.07122,0.06708167,0,0,2.30303,-0.4200109,0.09168461,0.1756876,-0.5210485,-0.7317131,0.1668577,-0.2062291,0.2904951,-0.1486764,-0.9133082,3.973135,0.1117356,-0.6966709,1.179105,-0.3259777,308.9447,211.0931,357.0901
1,0.08888889,-0.5311699,-0.4697937,0.02844705,-1.353189,-0.6658483,-2.842172,-1.071949,-0.06708622,0,0,1.090909,-0.4506462,0.07355776,0.2079078,-0.5172477,-0.7313674,0.17271,-0.2055819,0.2713806,-0.1626346,-0.9152624,3.976417,0.1119851,-0.6966722,1.181439,-0.3295501,308.5913,210.5267,357.1936
1,0.1,-0.5834438,-0.4815428,0.004111379,-1.35074,-0.6602845,-2.835207,-1.071054,0.08284669,0,0,1.090909,-0.4771,0.06292015,0.2283797,-0.5141153,-0.7317759,0.1791911,-0.1997013,0.2478923,-0.1776931,-0.9175346,3.979054,0.1124413,-0.6969572,1.184192,-0.3330613,308.0767,209.9657,357.3476
1,0.1111111,-0.6197259,-0.4932669,-0.01066479,-1.348565,-0.6547983,-2.828214,-1.07146,-0.03759575,0,0,1.090909,-0.4992908,0.0436894,0.2551337,-0.5103975,-0.733157,0.1867925,-0.2000762,0.2297926,-0.1788601,-0.9192987,3.981745,0.1130203,-0.6976612,1.187248,-0.3366417,307.6027,209.4739,357.5261
1,0.1222222,-0.6793948,-0.5017649,-0.009425834,-1.346523,-0.649088,-2.819708,-1.070944,0.04788026,0,0,1.090909,-0.5140851,0.0255155,0.275404,-0.5068219,-0.7352157,0.1947919,-0.1995967,0.2009762,-0.1737015,-0.9209211,3.98354,0.1141814,-0.6987388,1.190527,-0.3403245,307.1061,208.9156,357.8757
1,0.1333333,-0.7125858,-0.5550902,-0.05931871,-1.341724,-0.6422176,-2.812191,-1.071332,-0.03547201,0,0,1.090909,-0.5523454,0.01395157,0.2896274,-0.5031809,-0.7372833,0.2040996,-0.200782,0.195709,-0.1801212,-0.9229009,3.986396,0.1147484,-0.6999853,1.194006,-0.3440452,306.6008,208.2661,358.3922
1,0.1444445,-0.7243474,-0.5710964,-0.07523501,-1.338276,-0.6359884,-2.805343,-1.07031,0.09410834,0,0,3.030303,-0.5704786,0.01409292,0.2877179,-0.5001784,-0.7382101,0.2117053,-0.1998187,0.191458,-0.1876127,-0.9251076,3.989107,0.1153205,-0.7012309,1.197658,-0.3478129,306.1006,207.645,358.9187
1,0.1555556,-0.7681107,-0.5860302,-0.1027662,-1.334259,-0.6300213,-2.796821,-1.07141,-0.1010957,0,0,3.030303,-0.5971103,0.01428127,0.2880469,-0.497013,-0.7392418,0.2200762,-0.2042131,0.1863047,-0.202549,-0.9276552,3.991817,0.1160962,-0.7025576,1.201416,-0.351934,305.6892,206.9906,359.4541
1,0.1666667,-0.7957968,-0.5796204,-0.09843579,-1.331287,-0.6243829,-2.788406,-1.07278,-0.1239039,0,0,3.030303,-0.6312345,0.02203846,0.2821485,-0.4938875,-0.7394251,0.2284396,-0.2041862,0.1884799,-0.2110617,-0.9300238,3.994852,0.1165788,-0.7038795,1.205237,-0.3563776,305.214,205.9701,0.1920191
1,0.1777778,-0.8469213,-0.5668135,-0.09511468,-1.328391,-0.6190731,-2.778586,-1.071637,0.1057138,0,0,3.030303,-0.6462411,0.02006549,0.2759179,-0.4911402,-0.7405154,0.2370189,-0.2073538,0.1895853,-0.2067946,-0.9319785,3.997829,0.1172166,-0.7049701,1.209131,-0.3608041,304.6397,204.9651,0.8016832
1,0.1888889,-0.9012424,-0.5550432,-0.08963667,-1.325657,-0.6140179,-2.767928,-1.072028,-0.03649836,0,0,6.666667,-0.6703752,0.04567307,0.2924229,-0.486967,-0.7395806,0.244605,-0.208718,0.1758097,-0.2153927,-0.9344654,4.000112,0.1182135,-0.7059135,1.213073,-0.3652465,304.1563,204.0633,1.273214
1,0.2,-0.9342437,-0.5496981,-0.082095,-1.322848,-0.6085557,-2.757824,-1.071152,0.08072776,0,0,6.666667,-0.6820809,0.04360718,0.2946815,-0.4836412,-0.7405218,0.2533502,-0.2045089,0.1735943,-0.2164857,-0.9367653,4.002716,0.1188707,-0.7068484,1.216987,-0.3698416,303.6761,203.2286,1.705841
1,0.2111111,-0.989594,-0.5261897,-0.06387809,-1.320786,-0.6040374,-2.745895,-1.070721,0.03907603,0,0,6.666667,-0.6992185,0.04487216,0.2874369,-0.4807373,-0.7405835,0.2619421,-0.2032938,0.1810398,-0.2185763,-0.9389709,4.005889,0.1191813,-0.7078931,1.220895,-0.3747416,303.2788,202.4574,2.114677
1,0.2222222,-1.0364,-0.4995289,-0.04567772,-1.319015,-0.5994536,-2.733952,-1.071613,-0.08152653,0,0,6.666667,-0.6963121,0.05575156,0.2576632,-0.4787341,-0.7394954,0.268538,-0.2093143,0.1992612,-0.2163375,-0.9409949,4.00967,0.1195605,-0.7090073,1.224914,-0.3799359,302.8927,201.6502,2.588786
1,0.2333333,-1.074695,-0.464319,-0.02751467,-1.317642,-0.5956256,-2.721682,-1.070598,0.09394237,0,0,6.666667,-0.7159294,0.0486986,0.2259004,-0.4770797,-0.7397606,0.2773911,-0.2112078,0.2098953,-0.2056211,-0.9425902,4.013286,0.1198247,-0.7100347,1.229137,-0.3852362,302.4223,200.7804,3.110886
1,0.2444444,-1.094873,-0.4302049,-0.007272691,-1.316635,-0.5918199,-2.709663,-1.070934,-0.03131455,0,0,15.15152,-0.7193041,0.04991293,0.2110366,-0.4750989,-0.7396834,0.2854807,-0.2089065,0.2172457,-0.1949316,-0.9440868,4.016757,0.1200162,-0.7110676,1.233621,-0.3907897,301.9482,200.0048,3.544158
1,0.2555556,-1.127767,-0.3640593,0.03000322,-1.317334,-0.5895994,-2.696619,-1.071343,-0.03669624,0,0,15.15152,-0.7462938,0.04392403,0.1857481,-0.4738754,-0.7397915,0.2948282,-0.2127029,0.2396874,-0.1926677,-0.9457093,4.02128,0.1198436,-0.7121316,1.238386,-0.3966166,301.3685,199.1931,3.992309
1,0.2666667,-1.150057,-0.3097073,0.04702869,-1.31754,-0.5874544,-2.683733,-1.072082,-0.06692818,0,0,15.15152,-0.7389807,0.0504005,0.1707835,-0.4722956,-0.7387167,0.301893,-0.2177494,0.2536606,-0.1979136,-0.947827,4.025499,0.1199727,-0.7131199,1.243477,-0.4025217,300.672,198.3363,4.469783
1,0.2777778,-1.161698,-0.2393332,0.06610447,-1.318533,-0.5869336,-2.670492,-1.071926,0.0151375,0,0,15.15152,-0.7113612,0.10592,0.132556,-0.4713199,-0.7322819,0.3030917,-0.2323989,0.2689596,-0.2148543,-0.9504864,4.030022,0.1206638,-0.7140171,1.248814,-0.4083947,299.8486,197.4937,4.925864
1,0.2888889,-1.168081,-0.2297538,0.06610236,-1.317978,-0.5843993,-2.657949,-1.072437,-0.04672092,0,0,15.15152,-0.777258,0.1523008,0.121987,-0.4696932,-0.7255282,0.3086646,-0.2417619,0.2797951,-0.2126474,-0.9523645,4.034636,0.1209965,-0.7149629,1.254336,-0.4143761,299.0357,196.8658,5.22214
1,0.3,-1.175526,-0.2105407,0.07037812,-1.318151,-0.5825185,-2.645293,-1.072872,-0.03910299,0,0,14.78788,-0.7953398,0.1706019,0.1138392,-0.4679973,-0.7212852,0.3142168,-0.2459142,0.2851411,-0.2051641,-0.954054,4.038521,0.1217113,-0.7160048,1.259995,-0.420438,298.2234,196.177,5.587171
1,0.3111111,-1.185088,-0.1806978,0.07777163,-1.318373,-0.5811534,-2.632086,-1.073373,-0.04531946,0,0,14.78788,-0.7931249,0.1876845,0.1097004,-0.4660431,-0.7160153,0.3177633,-0.2454552,0.3063702,-0.1922613,-0.9552274,4.043778,0.1213595,-0.7171735,1.265738,-0.4265177,297.3787,195.4495,6.043419
1,0.3222222,-1.194633,-0.147667,0.08839405,-1.319215,-0.5799369,-2.618906,-1.073684,-0.02793116,0,0,14.78788,-0.8041191,0.1730055,0.09052999,-0.4653347,-0.7134614,0.3247669,-0.2470147,0.3340631,-0.1878514,-0.9567305,4.049386,0.1209485,-0.7183616,1.271466,-0.4324899,296.5054,194.4783,6.76581
1,0.3333333,-1.193503,-0.1114172,0.1064332,-1.320654,-0.5790287,-2.606011,-1.073471,0.01976243,0,0,14.78788,-0.8076872,0.1540408,0.07022212,-0.4643573,-0.7111359,0.3315774,-0.257401,0.3470567,-0.186696,-0.9582304,4.054837,0.1209752,-0.7195172,1.277081,-0.4382472,295.618,193.5215,7.474136
1,0.3444445,-1.188159,-0.08160076,0.1085046,-1.321777,-0.5783678,-2.593245,-1.073685,-0.01964058,0,0,12.60606,-0.7866618,0.1465854,0.05178485,-0.4639759,-0.7082496,0.3369738,-0.2593263,0.3577644,-0.189831,-0.9599391,4.060264,0.1208769,-0.7207507,1.282514,-0.4439466,294.8098,192.7217,8.055655
1,0.3555556,-1.159391,-0.04538196,0.106203,-1.322865,-0.5785766,-2.581387,-1.074229,-0.04934933,0,0,12.60606,-0.7881535,0.1362027,0.02295621,-0.4641053,-0.704869,0.3426764,-0.2685854,0.3739432,-0.1907901,-0.9614912,4.066271,0.120719,-0.7220516,1.287785,-0.4495853,294.0961,192.0751,8.514289
1,0.3666667,-1.141294,-0.02303229,0.1018416,-1.323778,-0.5783464,-2.569235,-1.074581,-0.03174826,0,0,12.60606,-0.7977364,0.1341327,0.02411938,-0.463324,-0.7020849,0.3493127,-0.272656,0.383583,-0.1864689,-0.9628361,4.071955,0.120785,-0.7233588,1.292925,-0.4551113,293.4214,191.4902,8.942361
1,0.3777778,-1.108272,0.003580816,0.09744479,-1.325077,-0.5786873,-2.558018,-1.075763,-0.1078364,0,0,12.60606,-0.7887752,0.1605334,0.04447388,-0.46126,-0.6973413,0.3535202,-0.2863003,0.3934043,-0.1789281,-0.9639855,4.077742,0.1211653,-0.7246652,1.29795,-0.460501,292.7709,190.8438,9.425368
1,0.3888889,-1.089095,0.02487066,0.09628931,-1.326456,-0.5789244,-2.546457,-1.075445,0.02994647,0,0,12.60606,-0.7822688,0.1797113,0.04242864,-0.4599476,-0.69138,0.3566194,-0.2947564,0.3967547,-0.1713632,-0.965064,4.083558,0.121262,-0.726,1.302851,-0.4657338,292.114,190.1215,9.984635
1,0.4,-1.05715,0.06321318,0.08013318,-1.327741,-0.5807853,-2.53565,-1.076375,-0.08538333,0,0,12.72727,-0.7684829,0.1860672,0.03379612,-0.4590427,-0.6869113,0.3607323,-0.3041004,0.4075278,-0.1649803,-0.9662151,4.089353,0.1217832,-0.7273354,1.30765,-0.4707523,291.5137,189.4479,10.50539
1,0.4111111,-1.024144,0.08551523,0.06185037,-1.328405,-0.5821958,-2.525509,-1.075986,0.03612217,0,0,12.72727,-0.7383029,0.2530733,0.02438045,-0.4574863,-0.6751997,0.3575067,-0.3158309,0.4066793,-0.1607048,-0.9672968,4.094968,0.1225323,-0.7287123,1.312357,-0.4755708,290.9206,188.8055,11.00556
1,0.4222222,-0.9836962,0.1174304,0.04677373,-1.329774,-0.5841761,-2.515437,-1.076913,-0.08518364,0,0,12.72727,-0.7306422,0.2849939,0.02242199,-0.4558655,-0.6665903,0.3577012,-0.3285796,0.4101444,-0.1649223,-0.9686465,4.100695,0.1236266,-0.7301666,1.316987,-0.4802486,290.3573,188.2444,11.46795
1,0.4333333,-0.9442679,0.1237507,0.04448617,-1.330669,-0.5850075,-2.506331,-1.077356,-0.03995681,0,0,12.72727,-0.73344,0.3147179,0.03762183,-0.4533717,-0.6575323,0.3578396,-0.3349688,0.4091328,-0.1510683,-0.9693059,4.106312,0.1243723,-0.7317645,1.321543,-0.4847585,289.793,187.5576,12.04202
1,0.4444444,-0.9112546,0.1301195,0.04225513,-1.331965,-0.5860558,-2.496909,-1.077321,0.003299178,0,0,13.69697,-0.7335036,0.3040565,0.03860089,-0.4519033,-0.6517959,0.3609092,-0.334976,0.4090565,-0.1414744,-0.9698764,4.111681,0.1252881,-0.7334961,1.326001,-0.4889512,289.2305,186.7664,12.7192
1,0.4555556,-0.8569299,0.1439511,0.03885283,-1.333238,-0.5876728,-2.488752,-1.077702,-0.03509166,0,0,13.69697,-0.7361817,0.2638233,0.01804732,-0.4517866,-0.6467945,0.365024,-0.3422262,0.418765,-0.1360805,-0.9705704,4.11794,0.1258378,-0.7354833,1.330306,-0.4930487,288.6242,186.1251,13.40112
1,0.4666667,-0.8313807,0.1599074,0.03342956,-1.334768,-0.5894033,-2.479726,-1.077175,0.04828171,0,0,13.69697,-0.7011834,0.2519034,0.01112735,-0.4509605,-0.6415768,0.3668734,-0.3527868,0.4242948,-0.1349532,-0.9712858,4.124048,0.1268959,-0.737616,1.334358,-0.4971766,288.018,185.5683,14.153
1,0.4777778,-0.789863,0.1843883,0.01939125,-1.33611,-0.5921437,-2.471699,-1.078187,-0.09325973,0,0,13.69697,-0.6829479,0.2613195,0.01630758,-0.4494425,-0.6348198,0.3679165,-0.3603351,0.420205,-0.1381591,-0.9723382,4.129722,0.1279702,-0.7396957,1.338185,-0.5012056,287.5435,185.17,14.71492
1,0.4888889,-0.7473637,0.2141372,-0.02446912,-1.336728,-0.5960187,-2.463752,-1.077135,0.09683692,0,0,13.69697,-0.6634198,0.2930834,0.02594357,-0.4471096,-0.6256346,0.3663671,-0.3687449,0.425594,-0.1232027,-0.9726067,4.135373,0.1293969,-0.741645,1.341765,-0.505044,287.0976,184.6933,15.26336
1,0.5,-0.6909533,0.2013074,-0.03845716,-1.33715,-0.5979127,-2.457307,-1.077911,-0.07208011,0,0,13.45455,-0.6406743,0.332275,0.03345042,-0.444717,-0.6150773,0.3631686,-0.3675197,0.4329513,-0.1103619,-0.9725587,4.141518,0.1300797,-0.743531,1.345168,-0.5087531,286.7396,184.3173,15.62646
1,0.5111111,-0.6515837,0.1895557,-0.05774169,-1.337145,-0.6002158,-2.450925,-1.078012,-0.008859042,0,0,13.45455,-0.6481023,0.3665782,0.01676148,-0.4434264,-0.6027389,0.3596626,-0.3693095,0.4477926,-0.0900349,-0.9721124,4.148138,0.1305029,-0.7454819,1.348424,-0.5123336,286.3962,183.7776,16.08367
1,0.5222223,-0.6005405,0.1756381,-0.08662304,-1.336507,-0.6025903,-2.445337,-1.078662,-0.0597112,0,0,13.45455,-0.6386818,0.3644727,0.004910223,-0.4423527,-0.5940676,0.3586836,-0.3714622,0.4466689,-0.07726862,-0.972123,4.153674,0.1318081,-0.7476081,1.351608,-0.5157311,286.1201,183.1922,16.6024
1,0.5333334,-0.5612122,0.1745112,-0.1186758,-1.335996,-0.6056294,-2.439647,-1.078465,0.01822327,0,0,13.45455,-0.609377,0.3378473,-0.02230562,-0.4424405,-0.5871609,0.3581464,-0.3748369,0.4370952,-0.06772824,-0.9719228,4.159208,0.1329572,-0.7498943,1.354679,-0.5189532,285.7898,182.4879,17.35403
1,0.5444446,-0.5282758,0.1765651,-0.1539402,-1.334942,-0.6091603,-2.434041,-1.078799,-0.03100774,0,0,15.0303,-0.5703927,0.3153729,-0.04428061,-0.4426184,-0.580241,0.3570015,-0.3749264,0.4338911,-0.07095075,-0.9723095,4.164639,0.1342646,-0.752345,1.357578,-0.5220666,285.4435,181.7327,18.22713
1,0.5555557,-0.4995653,0.1712035,-0.173191,-1.334102,-0.6122543,-2.428629,-1.078443,0.03243414,0,0,15.0303,-0.5374627,0.3109083,-0.04794133,-0.4421343,-0.5720236,0.3548625,-0.3770114,0.4360587,-0.06986874,-0.9723675,4.170652,0.1351461,-0.7549017,1.360252,-0.5249918,285.1342,180.8801,19.1947
1,0.5666668,-0.4782861,0.1647846,-0.1785656,-1.333511,-0.6148483,-2.423217,-1.078169,0.0244837,0,0,15.0303,-0.5107808,0.3170881,-0.04608377,-0.4412373,-0.563518,0.3523487,-0.3748487,0.4380918,-0.06453843,-0.9722594,4.176447,0.1361752,-0.7576532,1.362694,-0.5277894,284.8917,180.1277,20.03779
1,0.577778,-0.4474022,0.1647668,-0.1839792,-1.333071,-0.61779,-2.418672,-1.077845,0.02911201,0,0,15.0303,-0.4957418,0.3179518,-0.03560235,-0.4399872,-0.5558385,0.3505327,-0.3799472,0.4488215,-0.0591435,-0.9719899,4.182915,0.1368953,-0.7606497,1.364938,-0.5304939,284.7256,179.4978,20.79472
1,0.5888891,-0.4069485,0.1689926,-0.1936767,-1.33261,-0.6208819,-2.414717,-1.077348,0.04504904,0,0,15.0303,-0.4745435,0.3242621,-0.04753135,-0.4396213,-0.5474735,0.3474858,-0.3831239,0.4498541,-0.0463497,-0.9713752,4.188589,0.138274,-0.7637814,1.367019,-0.5330446,284.5864,179.1076,21.41457
1,0.6000003,-0.3813839,0.1700483,-0.194812,-1.332242,-0.6238593,-2.410694,-1.077919,-0.05283067,0,0,10.66667,-0.4639513,0.3295732,-0.05508209,-0.4392245,-0.5383495,0.3441329,-0.3843368,0.4423634,-0.03678992,-0.9707318,4.194111,0.1395174,-0.7669213,1.368997,-0.5354851,284.4692,178.9611,21.87143
1,0.6111114,-0.3484166,0.1678731,-0.2151474,-1.331068,-0.6273736,-2.407073,-1.07826,-0.03096572,0,0,10.66667,-0.4263135,0.359035,-0.04251685,-0.4375968,-0.5272212,0.3377937,-0.3790873,0.4379593,-0.0304303,-0.9701944,4.199768,0.1402993,-0.7699955,1.370896,-0.5378453,284.338,178.7444,22.3753
1,0.6222225,-0.3175973,0.1539655,-0.2386464,-1.329228,-0.6305434,-2.403759,-1.077818,0.04035684,0,0,10.66667,-0.4093153,0.3749828,-0.05430368,-0.4369549,-0.5162735,0.3319846,-0.3675602,0.4280096,-0.01239298,-0.9690886,4.204684,0.1414386,-0.7729657,1.372709,-0.540127,284.1891,178.4128,22.93903
1,0.6333337,-0.2984626,0.1315669,-0.2503748,-1.327414,-0.6332123,-2.400361,-1.077928,-0.01069345,0,0,10.66667,-0.4071758,0.3813615,-0.05640687,-0.436204,-0.5061854,0.3274854,-0.3579592,0.4277672,-0.003889635,-0.9681624,4.210387,0.1419012,-0.775844,1.374438,-0.5423935,284.0528,178.0419,23.5045
1,0.6444448,-0.2825382,0.1080912,-0.2663514,-1.325199,-0.6357887,-2.397046,-1.077818,0.009961342,0,0,10.66667,-0.3923252,0.3791545,-0.05980302,-0.4355579,-0.4963759,0.3225709,-0.3515423,0.4286424,0.005703285,-0.9669917,4.216033,0.1425092,-0.7786497,1.376073,-0.5446172,283.9459,177.3344,24.34497
1,0.655556,-0.2601708,0.09530528,-0.2663927,-1.32348,-0.6384162,-2.394198,-1.077269,0.04977426,0,0,12.9697,-0.3692222,0.3824485,-0.08881733,-0.4359318,-0.4844151,0.3151484,-0.3344561,0.4304196,0.006749161,-0.9661815,4.221849,0.1423364,-0.7814655,1.377574,-0.546829,283.8512,176.4007,25.35951
1,0.6666671,-0.2324828,0.08251071,-0.2707293,-1.321406,-0.6412652,-2.391679,-1.076983,0.02547969,0,0,12.9697,-0.3332499,0.3588175,-0.09690537,-0.4360937,-0.4762872,0.3101824,-0.3156511,0.4129896,0.005551681,-0.9656286,4.226724,0.1427121,-0.7843316,1.378951,-0.5490699,283.7892,175.6149,26.23611
1,0.6777782,-0.2132891,0.07611556,-0.2633133,-1.319811,-0.6435364,-2.38934,-1.077181,-0.01833972,0,0,12.9697,-0.3110033,0.3416157,-0.09732305,-0.4361683,-0.4681528,0.305557,-0.303491,0.3818193,0.009617589,-0.9649261,4.2305,0.1435191,-0.7872605,1.380218,-0.5513598,283.7638,174.9601,27.00535
1,0.6888894,-0.179183,0.0771782,-0.2580807,-1.318451,-0.6461138,-2.387847,-1.077323,-0.01310579,0,0,12.9697,-0.2727541,0.2921659,-0.07690704,-0.4359674,-0.4640867,0.3038536,-0.2812142,0.323703,0.02735228,-0.9639061,4.23196,0.145301,-0.7902081,1.3814,-0.5536418,283.7561,174.4645,27.64179
1,0.7000005,-0.1461276,0.08144523,-0.2453876,-1.317405,-0.6485372,-2.386601,-1.077103,0.02004865,0,0,15.75758,-0.2458163,0.2874858,-0.04958085,-0.4348047,-0.4571417,0.29953,-0.2607026,0.2848478,0.03669654,-0.962851,4.234052,0.1467404,-0.7931602,1.382494,-0.5558902,283.7531,173.9741,28.28414
1,0.7111117,-0.1322397,0.09105147,-0.2347934,-1.316683,-0.6512382,-2.384951,-1.077713,-0.05615989,0,0,15.75758,-0.2060066,0.290159,-0.01914239,-0.4330066,-0.4496194,0.2938202,-0.2430545,0.2609961,0.04612058,-0.9617271,4.236442,0.1474792,-0.7960236,1.383519,-0.5580408,283.7563,173.7141,28.72801
1,0.7222228,-0.1225928,0.1123813,-0.2124831,-1.316768,-0.6538151,-2.383139,-1.07768,0.003302155,0,0,15.75758,-0.1867787,0.2910589,-0.01510828,-0.4321421,-0.4418877,0.2883522,-0.2211798,0.234827,0.06937739,-0.9599071,4.238095,0.1484952,-0.7987212,1.384448,-0.5600239,283.7311,173.4178,29.20733
1,0.7333339,-0.1161194,0.1252083,-0.1858985,-1.317084,-0.6561576,-2.381524,-1.077023,0.05972622,0,0,15.75758,-0.167695,0.2920525,-0.02280274,-0.4318587,-0.4338513,0.2823715,-0.2035528,0.2087817,0.09050639,-0.9580136,4.239557,0.1493216,-0.8013126,1.385246,-0.5619189,283.6762,173.0854,29.68456
1,0.7444451,-0.09270702,0.1283598,-0.1976972,-1.315859,-0.6591622,-2.380491,-1.076502,0.0469388,0,0,15.75758,-0.1453356,0.2897612,-0.02200723,-0.4308643,-0.426395,0.2766271,-0.1889411,0.1945422,0.09893093,-0.956477,4.240923,0.1506252,-0.8038961,1.385928,-0.5638472,283.6296,172.937,29.95545
1,0.7555562,-0.05422278,0.1199058,-0.1434548,-1.316767,-0.6595947,-2.380939,-1.076388,0.009976012,0,0,13.93939,-0.1229416,0.2949381,-0.02330451,-0.4302236,-0.4181717,0.2697412,-0.1617073,0.1705005,0.1072748,-0.9548375,4.241959,0.1508585,-0.8064443,1.38653,-0.5657901,283.5892,173.0771,29.95853
1,0.7666674,-0.04139642,0.1231231,-0.127514,-1.317157,-0.6613247,-2.380482,-1.076937,-0.05040355,0,0,13.93939,-0.09512901,0.3032202,-0.01720008,-0.4294507,-0.4091723,0.262051,-0.1406782,0.1560782,0.1273978,-0.9526708,4.242777,0.1516779,-0.8089644,1.387081,-0.5678126,283.561,173.1747,30.02671
1,0.7777785,-0.01893947,0.1370163,-0.09137413,-1.318501,-0.6627452,-2.380342,-1.077588,-0.0593178,0,0,13.93939,-0.0811532,0.3083894,-0.009869263,-0.428378,-0.4007583,0.2548914,-0.1206874,0.1415929,0.1613867,-0.94954,4.243305,0.1525211,-0.8114588,1.387557,-0.5698826,283.552,172.9554,30.37779
1,0.7888896,-0.003962152,0.1359792,-0.06797448,-1.31946,-0.6638036,-2.380518,-1.076802,0.07224092,0,0,13.93939,-0.06201294,0.3093348,-0.01222854,-0.4277047,-0.3925126,0.2476687,-0.1028276,0.128428,0.1687155,-0.9472736,4.244083,0.152744,-0.8136904,1.387862,-0.5718174,283.4328,172.9967,30.5045
1,0.8000008,0.02699023,0.1402651,-0.04462564,-1.320756,-0.664831,-2.381491,-1.076696,0.008758114,0,0,11.27273,-0.03346601,0.2889366,-0.01808272,-0.4275567,-0.3863421,0.2415652,-0.09584834,0.1059655,0.1695931,-0.945451,4.243883,0.1543566,-0.8156934,1.387956,-0.5737121,283.3256,173.1583,30.47885
1,0.8111119,0.05259874,0.1370927,-0.02656252,-1.322093,-0.6655506,-2.382681,-1.076705,-0.0009746511,0,0,11.27273,0.007926941,0.2673311,-0.01771319,-0.4272712,-0.3808741,0.2353539,-0.08153594,0.07695813,0.15983,-0.9440523,4.243446,0.1550261,-0.8174475,1.387831,-0.5755513,283.244,173.4768,30.26202
1,0.8222231,0.09740037,0.1296567,-0.003231767,-1.3234,-0.6658409,-2.385218,-1.077265,-0.05128575,0,0,11.27273,0.03136425,0.2618168,-0.01484914,-0.4266688,-0.3742817,0.2282377,-0.07353837,0.05006155,0.1735515,-0.9415409,4.242949,0.1559741,-0.8190336,1.387509,-0.5774602,283.216,173.812,29.98077
1,0.8333342,0.1432611,0.11797,0.01797018,-1.324767,-0.6660694,-2.388237,-1.077206,0.005589204,0,0,11.27273,0.05451015,0.2500797,-0.03121956,-0.4271023,-0.3677378,0.2210714,-0.06204696,0.03695262,0.1968879,-0.9387147,4.242301,0.1568216,-0.8204438,1.386957,-0.5793414,283.1959,174.0983,29.67221
1,0.8444453,0.1858912,0.1073182,0.02852768,-1.325758,-0.6662095,-2.391542,-1.078128,-0.08457087,0,0,11.27273,0.06909892,0.2630311,-0.0643184,-0.4281521,-0.3590634,0.212088,-0.05149812,0.02908237,0.2149665,-0.9355354,4.242149,0.156922,-0.821701,1.386187,-0.5811433,283.2095,174.574,29.14892
1,0.8555565,0.205052,0.09238435,0.0253143,-1.326223,-0.6663378,-2.394262,-1.078335,-0.0184142,0,0,11.0303,0.07868597,0.2972123,-0.08439514,-0.4288659,-0.3481401,0.2009344,-0.03237963,0.02434403,0.2362045,-0.9322246,4.241558,0.1570858,-0.8228269,1.385152,-0.5828616,283.2097,175.0128,28.68743
1,0.8666676,0.227421,0.06361859,0.02743103,-1.326261,-0.6658393,-2.397715,-1.078207,0.01142701,0,0,11.0303,0.1010371,0.3227276,-0.09832317,-0.4296483,-0.3375834,0.1899516,-0.01645675,0.01960751,0.2617069,-0.9287279,4.240474,0.1576485,-0.8238443,1.383787,-0.5844725,283.2176,175.4605,28.21599
1,0.8777788,0.2743531,0.02848606,0.05292769,-1.326696,-0.6642616,-2.402581,-1.077232,0.08878057,0,0,11.0303,0.1169504,0.3301521,-0.1080452,-0.4304265,-0.3276817,0.1791431,-0.007986475,0.01507299,0.2808415,-0.9249851,4.239752,0.1578887,-0.8248594,1.382067,-0.5860445,283.2912,175.9755,27.65068
1,0.8888899,0.2978368,0.01891387,0.06990865,-1.327327,-0.6634158,-2.406883,-1.07739,-0.01545113,0,0,11.0303,0.1433799,0.3033556,-0.1107129,-0.4311338,-0.3213754,0.1707779,-0.004248049,-0.01061138,0.2849595,-0.9218106,4.237768,0.1593167,-0.8259823,1.380076,-0.5876731,283.4995,176.7425,26.83484
1,0.900001,0.349018,0.005076744,0.08684278,-1.328187,-0.6620901,-2.412812,-1.078252,-0.07878333,0,0,11.0303,0.1718961,0.2797752,-0.117658,-0.4323376,-0.3151212,0.1622723,-0.0004329234,-0.0320212,0.2858974,-0.9188929,4.235532,0.160856,-0.8270789,1.377862,-0.5892045,283.7606,177.6389,25.94995
1,0.9111122,0.3788713,0.004015878,0.09635405,-1.329239,-0.6611431,-2.418144,-1.077604,0.05964495,0,0,10.18182,0.1923115,0.2816547,-0.1040448,-0.4325815,-0.3069975,0.1522516,0.00794859,-0.0385515,0.2805194,-0.9160838,4.23413,0.1613537,-0.8280018,1.375445,-0.5905713,284.0157,178.6973,24.94771
1,0.9222233,0.3937906,-0.003441565,0.1005894,-1.329976,-0.6600634,-2.423139,-1.078654,-0.09689698,0,0,10.18182,0.2031465,0.3007185,-0.09976026,-0.4329789,-0.2972887,0.1409339,0.02297623,-0.03357572,0.289048,-0.9125699,4.233144,0.1613404,-0.8287625,1.372902,-0.5917962,284.3114,179.8697,23.78076
1,0.9333345,0.4118746,-0.0173085,0.0920413,-1.330114,-0.6590626,-2.42857,-1.077882,0.07122714,0,0,10.18182,0.2042097,0.3231833,-0.1123829,-0.4342433,-0.286489,0.1288829,0.0414981,-0.01485642,0.3050955,-0.9086498,4.232863,0.1604496,-0.8293821,1.370222,-0.5929142,284.5392,180.8648,22.78972
1,0.9444456,0.4203544,-0.02905104,0.08138332,-1.329977,-0.6581172,-2.433536,-1.077057,0.07446568,0,0,10.18182,0.1998544,0.339333,-0.1292453,-0.4357922,-0.275749,0.1170888,0.04828468,0.002988778,0.3264776,-0.9044207,4.232471,0.1600467,-0.8299525,1.367426,-0.5941005,284.7815,181.9179,21.75032
1,0.9555568,0.4309542,-0.06849311,0.06650837,-1.328906,-0.6563041,-2.439029,-1.077143,-0.008655905,0,0,10.06061,0.1939843,0.3354447,-0.1697005,-0.4387558,-0.2665441,0.107034,0.0495314,0.01032947,0.3435606,-0.8999796,4.232067,0.15971,-0.8305505,1.364582,-0.595409,285.0994,182.8459,20.76323
1,0.9666679,0.4383868,-0.08661686,0.05906023,-1.328199,-0.6548159,-2.444476,-1.076467,0.06171422,0,0,10.06061,0.1927314,0.3323638,-0.182493,-0.4407446,-0.2577466,0.09707808,0.05803536,0.009057309,0.3467354,-0.8961478,4.230905,0.1595859,-0.8311673,1.361716,-0.5967265,285.4265,183.4582,20.03693
1,0.977779,0.4437112,-0.1036619,0.05907054,-1.327647,-0.6530625,-2.450046,-1.076503,-0.003959903,0,0,10.06061,0.2011347,0.3334638,-0.1932414,-0.4428805,-0.2482263,0.08586484,0.05909422,0.009054106,0.3435374,-0.8924455,4.230262,0.1592996,-0.8318542,1.358858,-0.5980203,285.7504,183.9605,19.41957
1,0.9888902,0.4341187,-0.1047288,0.05695443,-1.327233,-0.6518438,-2.454924,-1.076365,0.01262865,0,0,10.06061,0.2009771,0.3271449,-0.2018117,-0.4450584,-0.2397175,0.07600901,0.05379664,0.01130959,0.3392929,-0.8889264,4.229746,0.1592767,-0.8325638,1.356022,-0.5992337,286.0826,184.3764,18.93283
1,1.000001,0.4181258,-0.09408344,0.05271968,-1.327097,-0.6509581,-2.459186,-1.076236,0.01150642,0,0,10.06061,0.195806,0.321727,-0.1858162,-0.4463746,-0.2314894,0.06662749,0.05812032,0.01440979,0.3403689,-0.8850835,4.229257,0.1587833,-0.8332737,1.353246,-0.6003205,286.4292,184.8974,18.35528
1,1.011112,0.4010651,-0.08556414,0.045278,-1.326773,-0.6504601,-2.463221,-1.075523,0.06499624,0,0,8.242424,0.1894773,0.3110234,-0.1751901,-0.4479735,-0.2242243,0.0580902,0.06025782,0.01547352,0.3329135,-0.8816714,4.228836,0.1583103,-0.8339694,1.350562,-0.6012729,286.7628,185.5001,17.73194
1,1.022224,0.3914626,-0.07598925,0.03677072,-1.326575,-0.6498885,-2.467526,-1.074843,0.06164151,0,0,8.242424,0.1896019,0.2916743,-0.1540453,-0.4488257,-0.2180474,0.05038701,0.06234015,0.01444296,0.3179876,-0.878653,4.228292,0.1578812,-0.8347198,1.348004,-0.6022288,287.0725,186.0835,17.15915
1,1.033335,0.3775848,-0.07067498,0.02506745,-1.326013,-0.6496111,-2.471339,-1.074644,0.0176809,0,0,8.242424,0.1926488,0.2724702,-0.1542539,-0.4505589,-0.2126124,0.0434295,0.06026002,0.01885127,0.29884,-0.8759552,4.228209,0.157335,-0.8355798,1.345621,-0.6032301,287.3617,186.6051,16.62289
1,1.044446,0.3732993,-0.07281797,0.01656221,-1.325411,-0.6489308,-2.475474,-1.07491,-0.02436337,0,0,8.242424,0.1933774,0.2480704,-0.1672516,-0.4528205,-0.2080211,0.03720542,0.05920785,0.01994274,0.2977839,-0.8726524,4.22789,0.1569997,-0.8365559,1.343453,-0.6042635,287.6261,187.034,16.18178
1,1.055557,0.3636842,-0.06642666,0.008058526,-1.325109,-0.6487721,-2.479095,-1.074552,0.03292831,0,0,6.909091,0.1812895,0.2259299,-0.1843317,-0.4554006,-0.203857,0.03190707,0.05912389,0.01680607,0.2871136,-0.8698704,4.227417,0.1566394,-0.8375729,1.341492,-0.6052055,287.8358,187.3572,15.85942
1,1.066668,0.3530057,-0.05579207,-0.001531273,-1.324543,-0.6488334,-2.482583,-1.074769,-0.02012488,0,0,6.909091,0.181414,0.2279592,-0.174735,-0.4569473,-0.1983442,0.02505742,0.06019618,0.01787259,0.2828597,-0.8667988,4.227084,0.1561987,-0.8386127,1.339722,-0.6060306,288.0132,187.5891,15.65559
1,1.077779,0.3338211,-0.04620734,-0.004689246,-1.324319,-0.6487109,-2.485606,-1.074456,0.02883847,0,0,6.909091,0.1730811,0.2268203,-0.1586609,-0.4580999,-0.1926925,0.01834039,0.06128066,0.0189222,0.2817982,-0.8637047,4.226782,0.1556721,-0.8396624,1.338079,-0.6067593,288.1332,187.7358,15.55351
1,1.08889,0.3220985,-0.0419462,-0.006795898,-1.324009,-0.6485484,-2.488815,-1.074399,0.005100847,0,0,6.909091,0.1574677,0.2224018,-0.1276146,-0.4585393,-0.1877017,0.01243004,0.05798278,0.01475557,0.275391,-0.8608136,4.226121,0.1556285,-0.8407373,1.336541,-0.6074209,288.2533,187.9806,15.37086
1,1.100002,0.3007771,-0.04620071,-0.009931721,-1.323479,-0.6481729,-2.491455,-1.073972,0.03896558,0,0,6.909091,0.1479457,0.2149324,-0.1179711,-0.4594816,-0.182851,0.006773218,0.05991233,0.006290819,0.2572265,-0.8586873,4.225364,0.1553012,-0.8418322,1.335071,-0.6080709,288.3723,188.2214,15.23277
1,1.111113,0.2943996,-0.04832288,-0.005654514,-1.323125,-0.647652,-2.494746,-1.074206,-0.02163046,0,0,4.363636,0.1383202,0.2000312,-0.1115906,-0.4606251,-0.1791002,0.002316417,0.05757953,-0.002093308,0.2401395,-0.856658,4.224525,0.1552652,-0.8429255,1.333663,-0.6087419,288.5071,188.5151,15.04258
1,1.122224,0.2880137,-0.04512129,-0.004575849,-1.322922,-0.6473404,-2.497875,-1.07374,0.04297266,0,0,4.363636,0.1287052,0.1915547,-0.1083417,-0.4616574,-0.1748514,-0.002514823,0.05236021,0.004467335,0.2284719,-0.8543698,4.224494,0.1548993,-0.8439816,1.332304,-0.609453,288.6435,188.7678,14.88227
1,1.133335,0.277458,-0.02714148,0.002847314,-1.321378,-0.6459875,-2.502034,-1.074417,-0.06222533,0,0,4.363636,0.1263928,0.1809854,-0.1169245,-0.4632659,-0.171237,-0.007053915,0.05451744,0.007731151,0.2082449,-0.8527122,4.224402,0.154246,-0.8449677,1.331006,-0.6102249,288.8007,189.0051,14.72717
1,1.144446,0.2604287,-0.01114867,0.007129349,-1.321866,-0.6462107,-2.504306,-1.074482,-0.00526488,0,0,4.363636,0.1168375,0.1778225,-0.1125721,-0.4644004,-0.1669839,-0.01185133,0.04820903,0.01213452,0.2061531,-0.8503655,4.224369,0.1539275,-0.8458363,1.329739,-0.6110535,288.9208,189.1819,14.61592
1,1.155557,0.23382,0.01123352,0.01248683,-1.322642,-0.6467545,-2.505851,-1.075295,-0.07433652,0,0,8,0.1093241,0.1640095,-0.1094074,-0.4656074,-0.1636694,-0.01582717,0.04845079,0.02496201,0.1977008,-0.8484048,4.224925,0.1530167,-0.8465529,1.328473,-0.6118715,289.0335,189.2605,14.53755
1,1.166668,0.2050895,0.03469266,0.02211175,-1.323812,-0.6473702,-2.506994,-1.073921,0.1262485,0,0,8,0.1038924,0.1437742,-0.1063041,-0.4665837,-0.1619234,-0.01834146,0.0560541,0.03228872,0.1934585,-0.8464522,4.225303,0.1517853,-0.8470503,1.327122,-0.6125021,289.1279,189.1012,14.60252
1,1.17778,0.1859746,0.03793523,0.02642429,-1.324882,-0.6477996,-2.509141,-1.07322,0.06304934,0,0,8,0.09833962,0.1118545,-0.1065021,-0.4677555,-0.1617322,-0.01938542,0.06032996,0.03441514,0.178548,-0.8449571,4.225614,0.1507623,-0.8475675,1.325733,-0.6131636,289.2704,189.4371,14.18946
1,1.188891,0.1774655,0.03581514,0.03177606,-1.325512,-0.6477261,-2.51082,-1.072979,0.02169562,0,0,8,0.09372076,0.08323951,-0.1194748,-0.4696303,-0.1614371,-0.02061287,0.05044572,0.02307295,0.1454808,-0.8444314,4.225315,0.1507775,-0.8481844,1.324427,-0.6139467,289.4873,190.0532,13.56654
1,1.200002,0.1721678,0.03265474,0.02648444,-1.326278,-0.6482038,-2.513179,-1.074123,-0.1045513,0,0,8,0.08948909,0.07254594,-0.1109887,-0.4705752,-0.1605822,-0.02220996,0.04820436,0.01780232,0.1433252,-0.8429363,4.22503,0.1505115,-0.8488855,1.323338,-0.6148255,289.7381,190.6823,12.96286
1,1.211113,0.1604737,0.03163556,0.0275832,-1.327147,-0.6487098,-2.514794,-1.07382,0.02878999,0,0,7.393939,0.08130948,0.07987723,-0.08633544,-0.4708751,-0.1572458,-0.0256505,0.04700553,0.01258561,0.127317,-0.8420777,4.224729,0.1501994,-0.8495705,1.322507,-0.6156871,289.8886,191.0575,12.63406
1,1.222224,0.149804,0.03375993,0.02441115,-1.327515,-0.6489468,-2.515906,-1.074695,-0.0802759,0,0,7.393939,0.07496399,0.07988967,-0.08199082,-0.4716213,-0.1552825,-0.02793203,0.04608388,0.02008891,0.1230984,-0.8407706,4.225253,0.1493535,-0.8501838,1.321888,-0.6164593,289.9252,191.183,12.51415
1,1.233335,0.1359635,0.04016815,0.02337674,-1.328291,-0.649489,-2.51697,-1.074145,0.05102751,0,0,7.393939,0.06546669,0.07988941,-0.07336341,-0.4723734,-0.1532202,-0.02996909,0.04077606,0.0224027,0.1092718,-0.8399733,4.225567,0.148867,-0.8507321,1.321397,-0.6170341,289.8525,191.2074,12.44819
1,1.244446,0.1199802,0.04549656,0.02341459,-1.328947,-0.6498156,-2.51764,-1.073609,0.04858269,0,0,7.393939,0.06437065,0.07349792,-0.07233396,-0.4731265,-0.15192,-0.03184102,0.04076489,0.02241969,0.1060762,-0.8388446,4.225644,0.1484435,-0.8512987,1.320965,-0.6175404,289.782,191.3721,12.31824
1,1.255558,0.1114525,0.04656342,0.02129956,-1.329373,-0.650239,-2.518493,-1.073733,-0.01162668,0,0,7.393939,0.06207967,0.04580235,-0.07039411,-0.4736443,-0.1528255,-0.03179255,0.04378045,0.01385838,0.1017622,-0.8378944,4.22524,0.1481287,-0.8519112,1.320567,-0.6180629,289.7825,191.5422,12.20768
1,1.266669,0.09969355,0.0433708,0.01176319,-1.329745,-0.6507024,-2.518909,-1.073477,0.02372376,0,0,8.363637,0.05981189,0.02982543,-0.0705121,-0.4746051,-0.1536575,-0.03128123,0.04256219,0.007564846,0.08895022,-0.8372808,4.225046,0.1478385,-0.8525559,1.320221,-0.6185848,289.8147,191.7405,12.05722
1,1.27778,0.08901148,0.04442211,0.003269834,-1.32987,-0.6512036,-2.519326,-1.073821,-0.03155789,0,0,8.363637,0.06513356,0.01801741,-0.06428353,-0.4750952,-0.1541688,-0.03172704,0.04449905,-0.0009339582,0.07718136,-0.8368861,4.224563,0.1476161,-0.853238,1.319924,-0.6191617,289.84,191.9546,11.91604
1,1.288891,0.08047867,0.04761663,9.457953E-05,-1.330229,-0.6517559,-2.51977,-1.073602,0.02042525,0,0,8.363637,0.05983141,0.01590542,-0.0610383,-0.4756294,-0.1536442,-0.03267486,0.04227313,-0.004004456,0.06331952,-0.8366129,4.224489,0.1473804,-0.8538938,1.319665,-0.6197547,289.8433,192.0847,11.86107
1,1.300002,0.06873427,0.03801675,-0.008378336,-1.330009,-0.652002,-2.520085,-1.073743,-0.01302581,0,0,8.363637,0.05461299,0.0169363,-0.05244088,-0.4759532,-0.1530828,-0.03354012,0.04016183,-0.001768086,0.05268583,-0.8362672,4.224621,0.1469902,-0.8545052,1.319447,-0.6203349,289.8553,192.173,11.80772
1,1.311113,0.06017862,0.03483084,-0.0189938,-1.330095,-0.652768,-2.520231,-1.073955,-0.01913411,0,0,5.575758,0.05691992,0.01465805,-0.03651778,-0.4760278,-0.1528345,-0.03439712,0.03569052,-0.01121484,0.0430541,-0.8361676,4.223986,0.1471804,-0.8550586,1.319285,-0.6208571,289.8831,192.2467,11.73999
1,1.322224,0.06015376,0.03694785,-0.02539073,-1.329963,-0.6534401,-2.520651,-1.073914,0.004013736,0,0,5.575758,0.05809553,0.006016448,-0.02275418,-0.4758568,-0.1532132,-0.03475612,0.03647334,-0.02505921,0.03871385,-0.835979,4.222932,0.1473607,-0.8555322,1.319193,-0.6212817,289.904,192.3206,11.683
1,1.333336,0.05585862,0.04333278,-0.03283587,-1.330065,-0.6543221,-2.52069,-1.073994,-0.0072116,0,0,5.575758,0.06150697,-0.001644492,-0.001543228,-0.4750217,-0.1539552,-0.03498781,0.02874605,-0.03877809,0.04291361,-0.8354976,4.221614,0.1481532,-0.8559766,1.319146,-0.6216829,289.9014,192.3052,11.72338
1,1.344447,0.04839814,0.05185186,-0.03389395,-1.330253,-0.6552036,-2.520742,-1.074369,-0.03421157,0,0,5.575758,0.05733863,0.002604045,0.003869036,-0.474856,-0.1534822,-0.03587385,0.03199977,-0.03674848,0.04930581,-0.8348344,4.221062,0.1479964,-0.8564504,1.319143,-0.6221212,289.8947,192.3198,11.73594
1,1.355558,0.04199725,0.06037224,-0.03709201,-1.330339,-0.6563872,-2.520667,-1.074178,0.01788005,0,0,5.575758,0.04666808,0.003757786,0.001865844,-0.4751175,-0.1533736,-0.03616173,0.03418861,-0.03357867,0.04612333,-0.8344568,4.220578,0.1478518,-0.8568952,1.319176,-0.6224915,289.8881,192.3301,11.74796
1,1.366669,0.029207,0.07208349,-0.04027631,-1.330522,-0.6576495,-2.520248,-1.074258,-0.007481786,0,0,12,0.04349468,0.0005479828,0.006131499,-0.4750642,-0.1535984,-0.03624136,0.02973082,-0.04192491,0.03117325,-0.83468,4.219731,0.1481865,-0.857318,1.319255,-0.6227776,289.8915,192.3887,11.71284
1,1.37778,0.0217297,0.07102767,-0.04344388,-1.330668,-0.6586855,-2.519856,-1.074307,-0.004303742,0,0,12,0.0532425,0.00465335,0.01669999,-0.4744933,-0.1531429,-0.03757454,0.02529842,-0.04922976,0.01942268,-0.8349846,4.218715,0.1487397,-0.8577762,1.319372,-0.6230404,289.8798,192.451,11.68428
1,1.388891,0.0121217,0.06678,-0.0476639,-1.330735,-0.6597172,-2.519301,-1.074082,0.0206999,0,0,12,0.05853657,-0.004989348,0.01975419,-0.4741311,-0.1536692,-0.03791862,0.0260783,-0.06307773,0.0150747,-0.8352888,4.217143,0.1494398,-0.858272,1.31953,-0.6232597,289.8676,192.5069,11.67155
1,1.400002,0.002520518,0.06038326,-0.0508242,-1.330434,-0.6604586,-2.518819,-1.074134,-0.004870171,0,0,12,0.0583958,-0.01559725,0.01434035,-0.4741497,-0.1548612,-0.0375061,0.02282158,-0.066193,0.01186639,-0.8353474,4.216038,0.1498931,-0.8587959,1.319741,-0.6234087,289.8593,192.5744,11.6537
1,1.411114,-0.003874579,0.05824921,-0.05186304,-1.330324,-0.6612118,-2.518384,-1.07409,0.004175824,0,0,8.727273,0.06043637,-0.02841094,0.01527263,-0.4739516,-0.1567973,-0.03632552,0.02490671,-0.06836032,0.01078534,-0.8353921,4.214921,0.150291,-0.8593437,1.320011,-0.6234816,289.8403,192.6152,11.66295
1,1.422225,-0.006003724,0.0593144,-0.04972657,-1.330333,-0.6620315,-2.518005,-1.074195,-0.00960278,0,0,8.727273,0.06475307,-0.03704227,0.02473673,-0.4733167,-0.1582003,-0.03595108,0.01836314,-0.07566544,0.006491756,-0.8356696,4.213504,0.1511554,-0.8599094,1.320337,-0.6234968,289.8052,192.6393,11.71941
1,1.433336,-0.006001337,0.06464192,-0.04973827,-1.330389,-0.6631548,-2.517686,-1.074356,-0.01456605,0,0,8.727273,0.06490527,-0.04249574,0.03959928,-0.4724469,-0.1596501,-0.0354813,0.01509347,-0.07876674,0.001154228,-0.8359828,4.212224,0.1519557,-0.8604397,1.3207,-0.6234725,289.7578,192.6306,11.85229
1,1.444447,-0.004948549,0.0699645,-0.05081552,-1.330426,-0.6642947,-2.517256,-1.074525,-0.01525849,0,0,8.727273,0.06621695,-0.03839314,0.05772706,-0.4712437,-0.1601343,-0.03572471,0.009647354,-0.08393901,-0.006325102,-0.8365186,4.210906,0.1528777,-0.8609041,1.321087,-0.6234404,289.7086,192.6468,11.96024
1,1.455558,-0.003892563,0.0763684,-0.04974577,-1.330947,-0.6654632,-2.516778,-1.074733,-0.01889689,0,0,8.727273,0.05255287,-0.03413863,0.07072265,-0.4699531,-0.1604555,-0.03550553,0.005322378,-0.08704805,-0.006334132,-0.8367652,4.209462,0.1539342,-0.861292,1.32148,-0.6234188,289.6553,192.6629,12.03188
1,1.466669,-0.01031084,0.0795483,-0.0593241,-1.330645,-0.6668827,-2.516057,-1.074688,0.004303711,0,0,6.909091,0.03666268,-0.02658138,0.07310648,-0.4691659,-0.1602275,-0.03574761,0.005363207,-0.08490221,-0.00952074,-0.8371173,4.208328,0.1545536,-0.8616468,1.321854,-0.6234286,289.5906,192.6447,12.09402
1,1.47778,-0.02099874,0.06569627,-0.06352808,-1.330202,-0.6675234,-2.514998,-1.074677,0.0009877111,0,0,6.909091,0.03659913,-0.02439766,0.06673295,-0.4686109,-0.1605998,-0.03582751,0.006614406,-0.07531476,-0.01373152,-0.8374858,4.207706,0.1548567,-0.8619537,1.322188,-0.6234292,289.5183,192.6379,12.14283
1,1.488891,-0.03274192,0.05077571,-0.07306016,-1.329391,-0.6683165,-2.514113,-1.074538,0.01274913,0,0,6.909091,0.03519138,-0.03166147,0.04324295,-0.469053,-0.1622557,-0.03469753,0.00774163,-0.07101242,-0.02543227,-0.8382912,4.207017,0.1552418,-0.8622696,1.322459,-0.6234898,289.4488,192.6818,12.14947
1,1.500003,-0.03275304,0.0443788,-0.07517895,-1.328834,-0.6690468,-2.513543,-1.074067,0.04297021,0,0,6.909091,0.04244141,-0.05298191,0.03871797,-0.468654,-0.1650531,-0.03287459,0.00884591,-0.06889213,-0.02755333,-0.8387679,4.206187,0.1556612,-0.8625226,1.322693,-0.6234651,289.4476,192.6283,12.21639
1,1.511114,-0.02956037,0.03479875,-0.07516229,-1.3284,-0.6695768,-2.513211,-1.074319,-0.0233,0,0,6.909091,0.0498497,-0.0690497,0.04381569,-0.4680069,-0.1675698,-0.03140932,0.00116175,-0.07937987,-0.0297223,-0.8392803,4.204531,0.1571502,-0.8627647,1.322933,-0.6233881,289.4908,192.5019,12.32378
1,1.522225,-0.02103948,0.04331276,-0.07839256,-1.328053,-0.6707757,-2.513031,-1.074733,-0.03757369,0,0,5.333333,0.05425912,-0.0659721,0.05444461,-0.4669927,-0.16878,-0.03098961,-0.004165769,-0.07926171,-0.03184628,-0.8398619,4.203442,0.1580551,-0.8630335,1.323207,-0.6232656,289.5182,192.3436,12.47001
1,1.533336,-0.01572576,0.0496979,-0.08054209,-1.327776,-0.6719629,-2.512612,-1.075004,-0.02450966,0,0,5.333333,0.05006488,-0.05741146,0.05350607,-0.4663807,-0.169507,-0.0310426,-0.005275976,-0.08136441,-0.03292109,-0.8404074,4.202236,0.1589537,-0.863317,1.323526,-0.6230959,289.5095,192.258,12.5974
1,1.544447,-0.01466452,0.06673697,-0.08376643,-1.327715,-0.6736519,-2.512061,-1.075341,-0.03060699,0,0,5.333333,0.03958585,-0.04568164,0.06118923,-0.4654455,-0.1697147,-0.03091078,-0.00839439,-0.07700033,-0.0403477,-0.8411903,4.201435,0.1596083,-0.8635768,1.323867,-0.6228714,289.4773,192.2499,12.68914
1,1.555558,-0.01146712,0.07846058,-0.08378845,-1.327824,-0.6753148,-2.511595,-1.075111,0.02128609,0,0,5.333333,0.03766534,-0.03617723,0.07300638,-0.4642891,-0.1698639,-0.03113661,-0.008274734,-0.07058074,-0.04563925,-0.8419786,4.200809,0.1601183,-0.8638332,1.324226,-0.6226146,289.45,192.2067,12.79533
1,1.566669,-0.01679301,0.08485123,-0.08378217,-1.327754,-0.6768275,-2.510832,-1.07505,0.005289403,0,0,7.151515,0.03960225,-0.04782944,0.06435607,-0.4639093,-0.1716168,-0.03004285,-0.008135766,-0.06308337,-0.05305696,-0.8429022,4.200369,0.1604517,-0.8641583,1.324568,-0.6223382,289.4016,192.1392,12.88588
1,1.577781,-0.0210548,0.0859146,-0.08270865,-1.327554,-0.6780866,-2.510086,-1.075115,-0.005988581,0,0,7.151515,0.03300077,-0.0529948,0.05054525,-0.4637666,-0.1732898,-0.02866147,-0.00155694,-0.05473905,-0.04450076,-0.8431472,4.2,0.1605031,-0.8645243,1.324906,-0.6219922,289.3609,192.1741,12.91469
1,1.588892,-0.03171584,0.07952607,-0.08267223,-1.327199,-0.6792387,-2.508985,-1.074788,0.0299923,0,0,7.151515,0.02971939,-0.04863933,0.04103836,-0.4635434,-0.174403,-0.0279291,0.001636479,-0.05592696,-0.03279146,-0.8431121,4.199155,0.1609543,-0.8649629,1.325221,-0.6216282,289.3146,192.2604,12.93937
1,1.600003,-0.04023684,0.08059532,-0.08052058,-1.327076,-0.6804941,-2.507895,-1.074723,0.005650023,0,0,7.151515,0.02959023,-0.04748427,0.03039511,-0.4635253,-0.1754208,-0.0272998,0.006924711,-0.05818637,-0.02855113,-0.8433805,4.19825,0.1613316,-0.8653955,1.325531,-0.6212209,289.3003,192.3559,12.98905
1,1.611114,-0.04980116,0.0784933,-0.07090412,-1.327272,-0.6816126,-2.506732,-1.074384,0.0310759,0,0,7.151515,0.03073465,-0.05182654,0.03991784,-0.4630273,-0.1768041,-0.02630963,0.005902827,-0.05490534,-0.0402498,-0.8442897,4.197772,0.1616368,-0.8658499,1.325824,-0.6208582,289.2672,192.345,13.13314
1,1.622225,-0.05404102,0.07851255,-0.0602331,-1.327586,-0.682524,-2.505718,-1.074446,-0.005896706,0,0,4.848485,0.03831401,-0.05089203,0.04942285,-0.4620813,-0.177946,-0.02595197,0.005748764,-0.06121251,-0.05518948,-0.8453917,4.196791,0.1621737,-0.8662868,1.326106,-0.620555,289.2365,192.3474,13.25561
1,1.633336,-0.04762804,0.07532826,-0.05172235,-1.32777,-0.6833187,-2.505205,-1.074422,0.002355312,0,0,4.848485,0.04571736,-0.06375987,0.05242379,-0.461316,-0.180639,-0.02429442,0.005654536,-0.06544944,-0.05947377,-0.8463281,4.195812,0.1627676,-0.866616,1.326416,-0.6202309,289.227,192.4194,13.28411
1,1.644447,-0.05080985,0.06787781,-0.04850835,-1.327706,-0.6840478,-2.504448,-1.074582,-0.01467351,0,0,4.848485,0.04342458,-0.07861164,0.04807024,-0.4608994,-0.1833384,-0.02216389,0.01085059,-0.07306403,-0.04886167,-0.8464741,4.194576,0.1632763,-0.8668499,1.326795,-0.6199309,289.231,192.5651,13.21765
1,1.655559,-0.04760817,0.06894559,-0.0463877,-1.327826,-0.6849698,-2.503818,-1.075114,-0.04845325,0,0,4.848485,0.03923795,-0.07755735,0.05345852,-0.4601015,-0.185029,-0.02097612,0.0106938,-0.08162709,-0.04038768,-0.8468692,4.193147,0.1641264,-0.8669857,1.327274,-0.6196874,289.2231,192.6855,13.16968
1,1.66667,-0.0550513,0.0689636,-0.03783396,-1.328345,-0.6856436,-2.502674,-1.074923,0.01794811,0,0,4.484848,0.03086426,-0.06582768,0.06005209,-0.4591572,-0.1855408,-0.02041286,0.006344896,-0.08692431,-0.0297556,-0.8470322,4.191613,0.1652111,-0.8669983,1.327817,-0.6194822,289.1529,192.6436,13.26578
1,1.677781,-0.07208535,0.08069152,-0.03354603,-1.328928,-0.6868095,-2.500986,-1.075065,-0.01328911,0,0,4.484848,0.005557664,-0.03477937,0.06381688,-0.4583843,-0.1841203,-0.02097106,-0.006331056,-0.08132638,-0.03077612,-0.8476698,4.190937,0.1661392,-0.8669437,1.328391,-0.6193567,289.0696,192.5171,13.40051
1,1.688892,-0.09014548,0.09562954,-0.01754638,-1.330074,-0.6878455,-2.499171,-1.074526,0.04947604,0,0,4.484848,-0.0101965,-0.009131592,0.06742539,-0.4574512,-0.1825197,-0.02186082,-0.006163988,-0.07278839,-0.03392576,-0.8482307,4.190361,0.1665733,-0.8668134,1.328975,-0.6192319,288.9827,192.4197,13.47198
1,1.700003,-0.08801082,0.09030443,-0.01434619,-1.330499,-0.6884884,-2.498114,-1.074091,0.03939183,0,0,4.484848,-0.02496414,0.01763214,0.0646335,-0.4568509,-0.1800617,-0.02327443,-0.01094572,-0.04493511,-0.04334668,-0.848857,4.191115,0.1663512,-0.8666346,1.329585,-0.6191056,288.9194,192.4388,13.42574
1,1.711114,-0.08053452,0.06900724,-0.01433164,-1.330447,-0.6886935,-2.497844,-1.073992,0.008862527,0,0,4.484848,-0.02826097,0.01450449,0.05825711,-0.4564221,-0.1803077,-0.02266084,-0.01273583,-0.0278335,-0.04644592,-0.8494318,4.191652,0.166205,-0.8665125,1.330231,-0.6190552,288.8381,192.4748,13.3789
1,1.722225,-0.07520784,0.04343741,-0.01963916,-1.329869,-0.6887872,-2.497482,-1.074747,-0.06908143,0,0,2.424242,-0.03402608,-0.01619991,0.03995813,-0.4566363,-0.1832516,-0.01948955,-0.01475375,-0.0213333,-0.05812621,-0.8504634,4.191892,0.1662071,-0.8664643,1.330919,-0.6191225,288.7277,192.5529,13.33337
1,1.733337,-0.07627177,0.03811296,-0.01856277,-1.329863,-0.689053,-2.496551,-1.075545,-0.07229055,0,0,2.424242,-0.03113182,-0.04813052,0.03326666,-0.4564429,-0.1871579,-0.0157771,-0.02008106,-0.02121946,-0.05918124,-0.851175,4.191745,0.1667123,-0.8664148,1.331618,-0.6192122,288.6047,192.4433,13.46778
1,1.744448,-0.08053447,0.04024461,-0.017489,-1.330063,-0.6895675,-2.495315,-1.075469,0.007462847,0,0,2.424242,-0.03312862,-0.04606437,0.04183104,-0.4556791,-0.1881582,-0.01465511,-0.02646943,-0.02221102,-0.04852359,-0.8513897,4.191423,0.1673605,-0.8662626,1.332248,-0.6192151,288.4808,192.1928,13.73992
1,1.755559,-0.08264241,0.04878498,-0.01855881,-1.330599,-0.6906413,-2.49441,-1.074883,0.05344537,0,0,2.424242,-0.03625077,-0.03752905,0.04300585,-0.4551598,-0.1884107,-0.01393446,-0.0304922,-0.01153786,-0.03673961,-0.8513268,4.191751,0.1676215,-0.8660239,1.332775,-0.6191352,288.4105,191.9304,13.98901
1,1.76667,-0.09116206,0.04984864,-0.01535848,-1.330638,-0.6911766,-2.492919,-1.074577,0.02748998,0,0,2.424242,-0.04565768,-0.0001161285,0.035972,-0.4550874,-0.1853326,-0.01597337,-0.03417933,0.01733733,-0.04189965,-0.8517034,4.193491,0.166961,-0.8657653,1.333195,-0.6190075,288.3586,191.8071,14.07388
1,1.777781,-0.09435722,0.04239418,-0.01427325,-1.330664,-0.6914237,-2.491699,-1.075041,-0.0425648,0,0,1.575758,-0.06180194,0.004387215,0.02022576,-0.4554218,-0.1849949,-0.01505831,-0.03201367,0.01944748,-0.04615331,-0.8523069,4.194016,0.1668918,-0.8655568,1.333551,-0.6188643,288.3481,191.8515,13.97941
1,1.788892,-0.1007279,0.03601275,-0.004649349,-1.331057,-0.6912213,-2.490402,-1.074413,0.05777874,0,0,1.575758,-0.06509034,-0.01158131,0.02120111,-0.4551161,-0.186653,-0.01284629,-0.03636267,0.0175378,-0.07172659,-0.8540869,4.194398,0.1671789,-0.8654276,1.333886,-0.6186605,288.336,191.8916,13.90351
1,1.800003,-0.1134916,0.04135458,0.003898509,-1.331686,-0.6915249,-2.4886,-1.074584,-0.01613244,0,0,1.575758,-0.05765122,-0.03624012,0.03368771,-0.454338,-0.1893577,-0.01001562,-0.038731,0.00700454,-0.08562671,-0.8554888,4.19428,0.1677022,-0.8654202,1.334204,-0.6184739,288.3115,191.89,13.93283
1,1.811115,-0.1123595,0.04456134,0.009201977,-1.332122,-0.6919915,-2.488042,-1.074489,0.008970968,0,0,1.575758,-0.05766877,-0.04692948,0.03785755,-0.453824,-0.1913167,-0.007695204,-0.04197162,0.003816109,-0.07498503,-0.8559549,4.194282,0.1682654,-0.865432,1.334544,-0.6182682,288.2949,191.9264,13.97341
1,1.822226,-0.1123475,0.05202564,0.01558283,-1.332932,-0.6923819,-2.48662,-1.074162,0.0298715,0,0,1.212121,-0.05862785,-0.04271462,0.04430041,-0.4530687,-0.1920523,-0.006314355,-0.04203623,-0.000511568,-0.06222597,-0.8561844,4.194152,0.1688524,-0.8653473,1.334934,-0.6180115,288.2678,192.0472,13.94619
1,1.833337,-0.1091055,0.04883143,0.01556256,-1.333144,-0.6927766,-2.486114,-1.075459,-0.118872,0,0,1.212121,-0.06495726,-0.02559169,0.0402524,-0.4528365,-0.1913423,-0.005952165,-0.04698392,0.01767371,-0.05679123,-0.8564652,4.195323,0.1687842,-0.8651701,1.335421,-0.617783,288.2463,192.2442,13.83912
1,1.844448,-0.1038005,0.0445568,0.0102303,-1.333267,-0.6930381,-2.485002,-1.074737,0.06708353,0,0,1.212121,-0.07355398,-0.01263482,0.02661738,-0.4530128,-0.1906616,-0.005520467,-0.04560502,0.03364906,-0.06096755,-0.8571671,4.196696,0.1683874,-0.8648634,1.33599,-0.6175551,288.1687,192.2402,13.88876
1,1.855559,-0.1069556,0.0413579,0.009165902,-1.333339,-0.6933354,-2.484262,-1.075539,-0.07398842,0,0,1.212121,-0.08971486,-0.01348649,0.01296107,-0.4533121,-0.1915159,-0.003106577,-0.04746135,0.04869021,-0.07686196,-0.8584177,4.198455,0.1678106,-0.8644931,1.336608,-0.6173701,288.0572,192.1945,13.92229
1,1.86667,-0.1090754,0.04239909,0.01129083,-1.333493,-0.6933849,-2.483028,-1.074981,0.05172791,0,0,1.212121,-0.1003751,-0.02087937,0.01621277,-0.4532029,-0.1921636,-0.001158475,-0.05062109,0.05201805,-0.08855933,-0.8597158,4.199636,0.1678303,-0.8640954,1.33721,-0.6172211,287.9005,191.9203,14.14361
1,1.877781,-0.1047944,0.03815322,0.02087268,-1.334097,-0.693281,-2.481975,-1.075262,-0.02625515,0,0,1.818182,-0.1002274,-0.02419075,0.03003439,-0.4524007,-0.1929892,0.000679905,-0.05682861,0.06177893,-0.09702268,-0.8609456,4.201194,0.1675983,-0.8637335,1.33774,-0.6171002,287.7674,191.6505,14.32911
1,1.888893,-0.09092571,0.02431709,0.02724013,-1.334315,-0.6929635,-2.481634,-1.074742,0.04778182,0,0,1.818182,-0.101376,-0.02948318,0.02680014,-0.452347,-0.1941029,0.002907107,-0.06100614,0.06613743,-0.09912193,-0.8619342,4.202559,0.1675158,-0.8633978,1.338185,-0.6169338,287.6707,191.4328,14.47249
1,1.900004,-0.08348008,0.01685491,0.02723457,-1.334519,-0.6927159,-2.480833,-1.074837,-0.009073377,0,0,1.818182,-0.1099073,-0.03262971,0.02794548,-0.4519906,-0.1951724,0.005386243,-0.06616677,0.07478112,-0.1022669,-0.8630288,4.204236,0.1673602,-0.8631047,1.338538,-0.6167266,287.6009,191.3551,14.5163
1,1.911115,-0.08026666,0.01361291,0.026146,-1.334144,-0.6922541,-2.480444,-1.075518,-0.06211718,0,0,1.818182,-0.1118311,-0.02204926,0.03870542,-0.4512684,-0.1948315,0.006390255,-0.06823386,0.07802534,-0.1033107,-0.8640482,4.205788,0.1671925,-0.8628042,1.338821,-0.6164894,287.5529,191.4602,14.45694
1,1.922226,-0.08241825,0.004017962,0.02190601,-1.334051,-0.6919462,-2.479408,-1.075119,0.03692539,0,0,0.1212121,-0.1180424,-0.003931731,0.04319656,-0.4506138,-0.1935042,0.006703443,-0.06608197,0.07905598,-0.1054282,-0.864951,4.207114,0.1669099,-0.8624383,1.339017,-0.6162496,287.5107,191.4955,14.49543
1,1.933337,-0.08667167,-0.003495146,0.01871121,-1.333249,-0.6911973,-2.47873,-1.075391,-0.02530221,0,0,0.1212121,-0.130752,0.002542853,0.04447863,-0.4499863,-0.1928912,0.007828629,-0.06373702,0.08966903,-0.1064401,-0.8659407,4.209146,0.1662273,-0.8620356,1.339132,-0.6160511,287.5005,191.4261,14.55974
1,1.944448,-0.1069167,-0.008890935,0.01341952,-1.33221,-0.6904655,-2.477164,-1.074797,0.05460762,0,0,0.1212121,-0.1309691,-0.003734171,0.03057801,-0.4501483,-0.1936113,0.009971142,-0.06249499,0.100413,-0.1266147,-0.8675817,4.211576,0.1653637,-0.8616215,1.339159,-0.6158569,287.4834,191.2018,14.70183
1,1.955559,-0.1239664,-0.0003655814,0.01131993,-1.332473,-0.6906748,-2.475187,-1.074979,-0.01718906,0,0,0.1212121,-0.1274401,-0.03004211,-0.01231767,-0.4520758,-0.1965786,0.01418586,-0.06369014,0.09632598,-0.1543314,-0.8699929,4.213362,0.1648664,-0.8612245,1.339126,-0.6156992,287.4821,191.0928,14.76267
1,1.966671,-0.1260588,0.01023394,0.01660475,-1.332157,-0.6903494,-2.47412,-1.074158,0.07525767,0,0,0.1212121,-0.1143854,-0.08098288,-0.04806707,-0.4539885,-0.2028418,0.02062112,-0.06300842,0.07822946,-0.1608274,-0.8720089,4.214029,0.1651599,-0.8608019,1.339028,-0.6155634,287.4656,190.8322,15.01539
1,1.977782,-0.113204,0.03690518,0.04422692,-1.334053,-0.6905044,-2.473173,-1.073957,0.01781446,0,0,1.69697,-0.09245521,-0.1129527,-0.06564491,-0.4552972,-0.2080957,0.02564864,-0.07307173,0.05388503,-0.152418,-0.8733304,4.214077,0.1662289,-0.8603635,1.338879,-0.6154875,287.4593,190.5958,15.2301
1,1.988893,-0.06946101,0.04119053,0.06967274,-1.335306,-0.6902652,-2.473871,-1.074824,-0.07922889,0,0,1.69697,-0.0699184,-0.1003798,-0.05942706,-0.4557079,-0.2095151,0.02698395,-0.08554374,0.06678092,-0.1256925,-0.8736606,4.21568,0.1665877,-0.8599623,1.338776,-0.6154771,287.4765,190.5782,15.17554
1,2.000004,-0.01726316,0.04330809,0.07060277,-1.336343,-0.6900506,-2.475345,-1.075195,-0.03325645,0,0,1.69697,-0.07059908,-0.046046,-0.05896617,-0.4563284,-0.2065649,0.02514956,-0.08940782,0.0837626,-0.09789542,-0.8735115,4.217847,0.1663256,-0.8595576,1.338745,-0.6154214,287.4597,190.5836,15.09188
1,2.011115,0.02427113,0.02731722,0.06838792,-1.336564,-0.6897134,-2.476937,-1.076718,-0.1389971,0,0,1.69697,-0.0999089,0.01587929,-0.05063564,-0.4566469,-0.2018346,0.0232193,-0.1004425,0.1147317,-0.06894331,-0.8728495,4.220891,0.1658625,-0.8591195,1.338812,-0.615347,287.3876,190.9688,14.73856
1,2.022226,0.04981449,0.01558445,0.0630148,-1.336845,-0.6891893,-2.478238,-1.077481,-0.06873085,0,0,1.575758,-0.1175103,0.06168707,-0.03512044,-0.4564381,-0.1969195,0.0207154,-0.1034813,0.1211235,-0.05611618,-0.8728441,4.222939,0.16572,-0.8585673,1.338881,-0.6152275,287.2414,191.1392,14.64279
1,2.033337,0.07004543,-0.009983752,0.06299564,-1.336738,-0.6880761,-2.479907,-1.077359,0.0114006,0,0,1.575758,-0.1254126,0.1180526,-0.01750026,-0.4558597,-0.1901188,0.01608203,-0.09902598,0.1294936,-0.04436082,-0.8726332,4.225175,0.1652185,-0.8578619,1.338791,-0.6150061,287.0674,190.9998,14.78125
1,2.044448,0.0796187,-0.01638358,0.06085202,-1.336989,-0.6873544,-2.481096,-1.076726,0.05747296,0,0,1.575758,-0.118772,0.140311,-0.009940464,-0.4557942,-0.1855376,0.01301806,-0.09682103,0.1314599,-0.02305055,-0.8720425,4.226932,0.1651804,-0.8571849,1.338455,-0.6147897,286.9904,190.8044,14.86611
1,2.055559,0.08070005,-0.01210807,0.0672368,-1.337843,-0.686833,-2.482133,-1.076656,0.005753491,0,0,1.575758,-0.1027316,0.1508599,-0.01111549,-0.4559449,-0.1810513,0.009623866,-0.09362207,0.1302546,-0.009214448,-0.871438,4.228667,0.1649804,-0.8565839,1.337873,-0.614614,287.0313,190.8346,14.75583
1,2.06667,0.07645082,-0.003572393,0.0746941,-1.338918,-0.6863872,-2.482779,-1.076077,0.05283953,0,0,1.575758,-0.09324475,0.1530095,-0.02186811,-0.4565457,-0.1771748,0.00661689,-0.08267932,0.1415787,0.02171706,-0.8699285,4.230767,0.1642081,-0.8560544,1.33705,-0.6144851,287.1367,190.9473,14.59759
1,2.077781,0.06472054,-0.008898802,0.07260262,-1.339302,-0.6857118,-2.483183,-1.075763,0.02812706,0,0,3.151515,-0.09568933,0.1553766,-0.04845034,-0.4579284,-0.1731135,0.004153999,-0.06409063,0.1623564,0.05054754,-0.8682161,4.233734,0.1624342,-0.8555303,1.336056,-0.6143118,287.3145,191.2725,14.21858
1,2.088892,0.0508534,-0.02061909,0.0683968,-1.339462,-0.6848292,-2.48344,-1.075271,0.04469447,0,0,3.151515,-0.1022818,0.157696,-0.06645726,-0.4591753,-0.1691826,0.00192227,-0.05121709,0.166339,0.0537417,-0.8672084,4.236145,0.1609971,-0.8551014,1.335021,-0.6141552,287.5437,191.7919,13.62334
1,2.100003,0.02951704,-0.03766326,0.06315005,-1.339328,-0.6837671,-2.483147,-1.074888,0.03466068,0,0,3.151515,-0.1003859,0.1449991,-0.07830589,-0.4604158,-0.1664124,0.0004775048,-0.03973289,0.1566202,0.03342757,-0.8673543,4.237916,0.1599351,-0.8547887,1.33406,-0.6140696,287.7615,192.3383,13.06249
1,2.111114,0.01885582,-0.04937685,0.06213437,-1.339358,-0.6826044,-2.483259,-1.074664,0.02022629,0,0,3.151515,-0.09292382,0.129984,-0.07106762,-0.4609873,-0.1639495,-0.001271393,-0.03163796,0.1373799,0.01413201,-0.8676568,4.239185,0.159212,-0.8545561,1.333249,-0.6140795,287.941,192.641,12.77488
1,2.122225,0.01024714,-0.06008001,0.02915188,-1.338215,-0.6821804,-2.483219,-1.074104,0.0511397,0,0,3.151515,-0.08112656,0.1095154,-0.05327311,-0.4609879,-0.1626419,-0.001937716,-0.0329806,0.1246549,0.007681145,-0.8674736,4.240426,0.1589385,-0.854323,1.332636,-0.614111,288.0541,192.7343,12.67501
1,2.133336,0.01456948,-0.0706906,0.05579465,-1.338726,-0.6802827,-2.483901,-1.074506,-0.03709602,0,0,3.393939,-0.06080574,0.09755116,-0.04083306,-0.4609735,-0.1610179,-0.003502589,-0.03322337,0.1118221,0.01720011,-0.8668318,4.241365,0.1587004,-0.8540142,1.332265,-0.6141234,288.131,192.7638,12.62215
1,2.144447,0.01879512,-0.07496542,0.04727024,-1.338442,-0.6793063,-2.484314,-1.074643,-0.0121818,0,0,3.393939,-0.05231427,0.09323364,-0.04097404,-0.4614465,-0.1589273,-0.005112204,-0.02906622,0.1052709,0.03100095,-0.8658895,4.242499,0.158151,-0.8536288,1.332131,-0.6141003,288.1239,192.5935,12.73118
1,2.155558,0.01561524,-0.07617378,0.03766286,-1.336449,-0.6773612,-2.485429,-1.075073,-0.03920618,0,0,3.393939,-0.05355963,0.1008573,-0.06007738,-0.4629272,-0.1557779,-0.007310111,-0.02800916,0.1041437,0.03845002,-0.8650304,4.243794,0.1575782,-0.8532305,1.332154,-0.6140436,288.04,192.2024,13.02155
1,2.166669,0.01238191,-0.07406063,0.02382309,-1.335903,-0.676901,-2.485499,-1.075068,0.0008438705,0,0,3.393939,-0.05906362,0.1031812,-0.0759645,-0.46423,-0.1523286,-0.009577526,-0.02369802,0.1072936,0.03100672,-0.8646752,4.245516,0.1565707,-0.8527607,1.332245,-0.6139172,287.8741,192.0004,13.16691
1,2.17778,0.02088156,-0.08152891,0.01635714,-1.335178,-0.6759742,-2.48618,-1.075516,-0.04108685,0,0,4.727273,-0.06135926,0.102242,-0.0887282,-0.4656031,-0.1497842,-0.01110591,-0.02258478,0.1116539,0.009724429,-0.8650304,4.247572,0.1554663,-0.8522167,1.332269,-0.6137268,287.7041,191.5932,13.50727
1,2.188891,0.02941812,-0.09013501,0.01207162,-1.333561,-0.6741813,-2.487619,-1.074837,0.06240101,0,0,4.727273,-0.06461607,0.1001618,-0.09295496,-0.4665624,-0.1477042,-0.01223776,-0.02142092,0.1169863,0.004425037,-0.8649356,4.249557,0.1543568,-0.8516563,1.332116,-0.6134189,287.6136,190.8818,14.04476
1,2.200002,0.03469529,-0.08590253,-0.00712261,-1.332567,-0.6739619,-2.488161,-1.075242,-0.03759278,0,0,4.727273,-0.06023546,0.09470108,-0.08027087,-0.4670694,-0.1457404,-0.01343751,-0.01705286,0.1222387,0.002308272,-0.8647891,4.251605,0.1530575,-0.851313,1.331799,-0.6132113,287.6152,190.6408,14.16501
1,2.211113,0.03579774,-0.0912587,0.002442369,-1.331439,-0.6724759,-2.489166,-1.075815,-0.0520867,0,0,4.727273,-0.04536901,0.09249845,-0.08366214,-0.468,-0.1434608,-0.01557017,-0.01792868,0.1307349,0.01087847,-0.8641478,4.253765,0.1518942,-0.851154,1.331317,-0.6131085,287.6443,190.5456,14.26589
1,2.222224,0.03895153,-0.101933,-0.01246275,-1.330077,-0.6716481,-2.489852,-1.075281,0.04929158,0,0,4.727273,-0.03903966,0.09677775,-0.09116104,-0.4692708,-0.1407768,-0.01773559,-0.01561048,0.1402827,0.01093268,-0.8636013,4.256253,0.1504995,-0.8510069,1.330588,-0.6130074,287.6674,190.2813,14.57484
1,2.233335,0.04535892,-0.1157669,-0.005002029,-1.329176,-0.6701366,-2.490948,-1.075323,-0.004404166,0,0,1.69697,-0.03370596,0.1256355,-0.1069658,-0.4710301,-0.1356129,-0.02210983,-0.01008421,0.1486142,0.02588207,-0.8625318,4.258662,0.1488601,-0.8508703,1.329648,-0.612865,287.7568,190.1791,14.67249
1,2.244446,0.04642061,-0.1221696,-0.007121935,-1.328083,-0.6688433,-2.491846,-1.075137,0.01703916,0,0,1.69697,-0.03594746,0.1471324,-0.1280676,-0.473281,-0.13039,-0.02628114,-0.002672032,0.1452093,0.03543873,-0.8616312,4.260323,0.1474867,-0.850756,1.328527,-0.6127875,287.8931,190.1984,14.6645
1,2.255557,0.03788592,-0.1157797,-0.01137096,-1.327292,-0.6681328,-2.492121,-1.075333,-0.01801473,0,0,1.69697,-0.04675046,0.1601277,-0.1459443,-0.4756454,-0.1261635,-0.02883271,0.001469463,0.1386977,0.04178812,-0.8607502,4.26192,0.1462896,-0.8506652,1.327324,-0.6127799,288.1212,190.2448,14.57451
1,2.266668,0.02942468,-0.1135869,0.00570102,-1.327409,-0.6670675,-2.492704,-1.075179,0.0141818,0,0,1.69697,-0.05238658,0.1614458,-0.1714293,-0.4782883,-0.1222386,-0.03153156,0.01650965,0.1447941,0.0396684,-0.860046,4.264158,0.1441204,-0.8505898,1.326107,-0.6128029,288.3348,190.252,14.46784
1,2.277779,0.02623925,-0.100799,0.007821605,-1.32713,-0.6663804,-2.493129,-1.074664,0.04690294,0,0,4,-0.05908075,0.1542019,-0.1916467,-0.4810931,-0.1192798,-0.03325676,0.01699379,0.1693238,0.03447745,-0.8594106,4.267724,0.1417262,-0.850565,1.324933,-0.6128545,288.5113,190.2292,14.38301
1,2.28889,0.0262722,-0.05709972,0.01841079,-1.328138,-0.6667586,-2.493267,-1.07485,-0.01729,0,0,4,-0.06989385,0.1436697,-0.1980012,-0.4836098,-0.1170012,-0.03402694,0.01570153,0.2098052,0.04108945,-0.8582303,4.272442,0.1384937,-0.8506252,1.323874,-0.6129542,288.6683,190.3055,14.22601
1,2.300001,0.03695697,-0.01446463,0.03109933,-1.329492,-0.6673418,-2.493724,-1.074835,0.001535919,0,0,4,-0.08134989,0.1435731,-0.1765515,-0.4848722,-0.1137276,-0.03563469,0.01235634,0.2013005,0.04957157,-0.8571458,4.274675,0.1369088,-0.8507051,1.322993,-0.6130241,288.775,190.4851,14.01223
1,2.311112,0.05190761,-0.0005752482,0.02999042,-1.330559,-0.6679096,-2.49519,-1.074821,0.001293716,0,0,4,-0.0883453,0.1540173,-0.1454756,-0.4854234,-0.1094794,-0.03829306,0.00444749,0.1779468,0.06330899,-0.8558521,4.276094,0.1361815,-0.8507749,1.3223,-0.6130663,288.8392,190.6256,13.86703
1,2.322223,0.07001774,0.006878966,0.02886853,-1.330918,-0.6679655,-2.49654,-1.075197,-0.03442858,0,0,4,-0.08830577,0.1486378,-0.1391255,-0.4867955,-0.1063848,-0.04005181,-0.001357928,0.15464,0.05999963,-0.8551655,4.277211,0.1355589,-0.8508525,1.321833,-0.6130261,288.8508,190.863,13.60634
1,2.333334,0.09345685,0.01010286,0.01922931,-1.331546,-0.6686808,-2.498599,-1.076199,-0.09132461,0,0,0.969697,-0.09700927,0.1349115,-0.1465873,-0.4887556,-0.1044343,-0.04051973,-0.01209088,0.1528419,0.03870346,-0.8552167,4.279413,0.1345916,-0.8509479,1.321551,-0.6129008,288.7751,191.1128,13.37545
1,2.344445,0.0998382,0.003727304,0.005386319,-1.331633,-0.6691006,-2.500196,-1.075962,0.02232784,0,0,0.969697,-0.09388869,0.128514,-0.147741,-0.4904493,-0.1017109,-0.04175224,-0.02007421,0.1807926,0.02288903,-0.8550739,4.28344,0.1324214,-0.8510517,1.321342,-0.6126791,288.63,191.1605,13.37792
1,2.355556,0.08707424,0.01865452,0.01178676,-1.33234,-0.6695166,-2.500627,-1.076639,-0.06228903,0,0,0.969697,-0.09729531,0.1286817,-0.1647417,-0.4928414,-0.09879262,-0.0431219,-0.01960951,0.2031359,0.02726964,-0.8542345,4.287347,0.1300627,-0.8512126,1.321069,-0.6124525,288.4916,191.0759,13.50581
1,2.366668,0.06052347,0.04322553,0.03311272,-1.334315,-0.6703464,-2.500453,-1.076026,0.0564987,0,0,0.969697,-0.1044805,0.1435172,-0.149617,-0.4941543,-0.09474462,-0.0450242,-0.0248431,0.2063711,0.04008029,-0.8529743,4.290316,0.1285044,-0.8514506,1.320622,-0.6121731,288.3601,190.9639,13.62633
1,2.377779,0.03923923,0.06987306,0.0427126,-1.335873,-0.6711885,-2.499876,-1.074677,0.1227019,0,0,0.969697,-0.1073151,0.1646987,-0.1323602,-0.495161,-0.08957862,-0.04829376,-0.02694248,0.2074458,0.04648501,-0.8519495,4.293225,0.1270056,-0.8517598,1.319906,-0.6118239,288.2869,190.9909,13.63502
1,2.38889,0.06804953,0.06991179,0.05437536,-1.33756,-0.6713893,-2.501813,-1.074041,0.05722505,0,0,1.454545,-0.09527384,0.1761648,-0.1121714,-0.4958385,-0.08482168,-0.05174655,-0.01554641,0.1889515,0.0740632,-0.850015,4.294851,0.1257033,-0.8521309,1.318993,-0.6114807,288.3618,191.4762,13.25378
1,2.400001,0.1138471,0.05498097,0.05429184,-1.338103,-0.6709685,-2.504608,-1.073693,0.03149343,0,0,1.454545,-0.08138201,0.1621256,-0.1007363,-0.4965922,-0.0821468,-0.05365364,-0.01250327,0.1802966,0.08679318,-0.8484874,4.296887,0.1244378,-0.8525117,1.318025,-0.6112167,288.5247,192.2922,12.60126
1,2.411112,0.1106488,0.0699074,0.04256005,-1.339209,-0.6722437,-2.505812,-1.076097,-0.2199851,0,0,1.454545,-0.0657225,0.1279886,-0.1076125,-0.4981571,-0.08148155,-0.0539916,-0.01162982,0.1718059,0.07715803,-0.8477449,4.298951,0.1232045,-0.8528262,1.317162,-0.6110302,288.7414,193.0465,11.98337
1,2.422223,0.09360434,0.09121853,0.0447009,-1.340668,-0.6732716,-2.505813,-1.076999,-0.08060893,0,0,1.454545,-0.06073289,0.1046351,-0.1217188,-0.5000202,-0.08077154,-0.0540888,-0.00655064,0.160015,0.06962813,-0.8471201,4.300611,0.1219384,-0.852947,1.316408,-0.6108232,288.8232,193.4214,11.69788
1,2.433334,0.09576072,0.09868993,0.05427164,-1.342182,-0.6738176,-2.506814,-1.075696,0.1195637,0,0,3.515152,-0.05688712,0.08348805,-0.144315,-0.5024304,-0.08057873,-0.0539101,-0.008761615,0.1569091,0.06109303,-0.8465465,4.302704,0.1207118,-0.8528671,1.315632,-0.6105605,288.7949,193.459,11.64469
1,2.444445,0.1032201,0.1072127,0.05850545,-1.343679,-0.6743896,-2.50802,-1.074197,0.1358214,0,0,3.515152,-0.05578603,0.08666945,-0.1432381,-0.5040522,-0.07839014,-0.05522757,-0.01308005,0.1548859,0.05789088,-0.8458087,4.304904,0.1197107,-0.8527426,1.314842,-0.6102471,288.8117,193.6437,11.35498
1,2.455556,0.09255721,0.1093438,0.05427023,-1.34487,-0.6752237,-2.508474,-1.07496,-0.07078473,0,0,3.515152,-0.04681729,0.1076955,-0.1176149,-0.504652,-0.07443535,-0.05821777,-0.00907778,0.1419908,0.06420496,-0.8447153,4.306468,0.1187458,-0.8526948,1.314111,-0.6099677,288.889,194.0764,10.87298
1,2.466667,0.08403072,0.1051131,0.04791337,-1.346111,-0.676273,-2.509078,-1.075292,-0.02960069,0,0,3.515152,-0.04975592,0.125744,-0.1067604,-0.5053993,-0.07013701,-0.06130037,-0.003869623,0.1354515,0.07161763,-0.8435104,4.308033,0.1175735,-0.852698,1.313471,-0.6097161,288.9409,194.4697,10.50259
1,2.477778,0.07337908,0.09979097,0.04901345,-1.347128,-0.6766682,-2.509422,-1.074621,0.06154471,0,0,3.515152,-0.04655866,0.120369,-0.1036482,-0.5065237,-0.06786906,-0.06287723,-0.002959549,0.1268521,0.08222303,-0.8420766,4.309298,0.1167359,-0.8527066,1.312887,-0.6094243,288.9436,194.7431,10.24743
1,2.488889,0.05951836,0.09555629,0.05651815,-1.348584,-0.6769282,-2.509142,-1.074759,-0.01320546,0,0,3.393939,-0.04998812,0.09165375,-0.1070427,-0.5078792,-0.068374,-0.06186736,0.001909763,0.1054967,0.07144245,-0.8416681,4.309735,0.1162947,-0.8527584,1.312384,-0.6090761,288.9767,195.0076,9.968528
1,2.5,0.06592532,0.105156,0.06714202,-1.350361,-0.6774107,-2.509836,-1.074422,0.03100361,0,0,3.393939,-0.03608389,0.06048144,-0.0850999,-0.5080544,-0.06926935,-0.06111715,0.001963258,0.1098408,0.05654928,-0.8413756,4.311654,0.1151055,-0.8528382,1.311984,-0.6086305,289.0024,195.279,9.721664
1,2.511111,0.07232025,0.1104932,0.07032054,-1.352053,-0.6780797,-2.510608,-1.073809,0.05588842,0,0,3.393939,-0.0264779,0.060401,-0.08308651,-0.5089418,-0.06777745,-0.06234647,0.003094263,0.1141421,0.04485181,-0.8411104,4.313524,0.1137942,-0.8529784,1.311677,-0.6082081,288.9977,195.5565,9.529119
1,2.522222,0.07016733,0.1253934,0.06071422,-1.353442,-0.6794779,-2.510985,-1.07486,-0.09646872,0,0,3.393939,-0.02660532,0.0572769,-0.09163421,-0.5103101,-0.06674574,-0.06293476,0.00963223,0.1214549,0.04701054,-0.8402891,4.315585,0.112208,-0.8531237,1.311484,-0.6078494,288.9844,195.9416,9.255462
1,2.533333,0.05733525,0.1221843,0.04582851,-1.354144,-0.6806464,-2.510761,-1.075146,-0.02525863,0,0,3.515152,-0.02997005,0.04457017,-0.09809101,-0.5116332,-0.06677663,-0.06243062,0.01913067,0.1169986,0.04696932,-0.8396254,4.317035,0.1106906,-0.8532037,1.311389,-0.6075222,288.9345,196.3291,8.963225
1,2.544444,0.04555716,0.1093858,0.02991223,-1.354682,-0.681341,-2.510488,-1.074925,0.02032234,0,0,3.515152,-0.02793069,0.03817675,-0.1013554,-0.5127139,-0.06677823,-0.06205192,0.02108207,0.1084331,0.04585188,-0.8390944,4.317994,0.1097987,-0.8531882,1.311356,-0.6071841,288.8727,196.6209,8.718041
1,2.555555,0.03807748,0.1061789,0.02141297,-1.355304,-0.682254,-2.510476,-1.074269,0.05983251,0,0,3.515152,-0.02044538,0.02740363,-0.09301284,-0.5134521,-0.06691033,-0.06195338,0.02719485,0.09443942,0.04896177,-0.8383769,4.318623,0.1088655,-0.8531883,1.311333,-0.6068534,288.7943,196.7177,8.590251
1,2.566666,0.03274097,0.1083042,0.01716176,-1.356104,-0.683284,-2.510421,-1.074121,0.01305791,0,0,3.515152,-0.01293512,0.0241009,-0.08780894,-0.5143118,-0.0669817,-0.06215126,0.03253132,0.09542044,0.04362382,-0.8380515,4.320014,0.1074434,-0.8532854,1.311314,-0.6065425,288.7514,196.7428,8.521195
1,2.577777,0.04339985,0.1221558,0.02244088,-1.357571,-0.6845011,-2.510882,-1.07451,-0.03565536,0,0,3.515152,-0.009637699,0.02186964,-0.0782783,-0.5148711,-0.06666638,-0.06241464,0.03139246,0.09226492,0.04041528,-0.8376025,4.321256,0.1063808,-0.8533187,1.311462,-0.605935,288.6398,196.6955,8.531625
