loc,t,aDotS,bDotS,gDotS,aS,bS,gS,qE,qDotE,tpad,enable,emg,aDotSH,bDotSH,gDotSH,aSH,bSH,gSH,aDotUB,bDotUB,gDotUB,aUB,bUB,gUB,xHand,yHand,zHand,aHand,bHand,gHand
1,0,-0.02987644,-0.4884135,0.3034592,-1.186916,-0.5759687,-2.900845,-1.07414,0.03666726,0,0,5.818182,-0.3008533,0.2761917,-0.09475792,-0.5257661,-0.7094821,0.08362778,-0.257296,0.317671,-0.03546036,-0.8425491,3.887625,0.1547792,-0.7061493,1.180404,-0.303677,311.5121,196.0783,12.02129
1,0.01111111,-0.04484464,-0.4597165,0.2799757,-1.188172,-0.5710297,-2.901639,-1.074005,0.01203019,0,0,5.818182,-0.3019124,0.2729835,-0.09264293,-0.5264809,-0.7035379,0.08186317,-0.2563456,0.3145327,-0.04186447,-0.8423206,3.892348,0.1543771,-0.7050391,1.179661,-0.3053211,311.7057,195.4936,12.35293
1,0.02222222,-0.05235666,-0.4459486,0.2511948,-1.188929,-0.5657784,-2.902944,-1.074036,-0.002830443,0,0,5.818182,-0.3062215,0.2623487,-0.09162517,-0.527324,-0.6983283,0.08078779,-0.254482,0.3093272,-0.05578583,-0.8427733,3.897192,0.1544391,-0.703539,1.178721,-0.307203,311.84,195.0934,12.32413
1,0.03333334,-0.05775505,-0.4385414,0.2213656,-1.189338,-0.560931,-2.903815,-1.073836,0.01847863,0,0,7.515152,-0.3061592,0.2387594,-0.07479266,-0.5274279,-0.6946025,0.08094039,-0.2535809,0.3029839,-0.06225059,-0.8432037,3.901534,0.154315,-0.7016848,1.177656,-0.3091656,311.9209,194.8213,12.02778
1,0.04444445,-0.05780075,-0.4375442,0.1989979,-1.189695,-0.555407,-2.905299,-1.074334,-0.04555853,0,0,7.515152,-0.3050092,0.2204934,-0.0589971,-0.5274481,-0.6911042,0.08122615,-0.2527995,0.2935087,-0.07409687,-0.8441976,3.905932,0.1544333,-0.6997573,1.176554,-0.3112784,312.127,194.6388,11.54812
1,0.05555556,-0.05682249,-0.4354743,0.1638386,-1.189254,-0.5508178,-2.90625,-1.074216,0.01125778,0,0,7.515152,-0.3069789,0.1893549,-0.03048781,-0.5266699,-0.6892719,0.0831098,-0.2520873,0.2830206,-0.09231995,-0.8454226,3.909941,0.1545576,-0.6979346,1.175564,-0.3134823,312.3915,194.3997,11.11333
1,0.06666667,-0.06118296,-0.4356031,0.1318497,-1.188245,-0.5452098,-2.907277,-1.074639,-0.03875676,0,0,7.515152,-0.3100521,0.1721598,-0.01142269,-0.5260116,-0.6865028,0.0843764,-0.255476,0.2789347,-0.1040797,-0.846882,3.914458,0.1546812,-0.6962855,1.174826,-0.3156459,312.6093,194.1161,10.80096
1,0.07777778,-0.06547897,-0.4324819,0.108417,-1.187569,-0.5399884,-2.908578,-1.074564,0.007259327,0,0,7.515152,-0.3160935,0.1687315,0.01845976,-0.5246071,-0.6831253,0.08519159,-0.2588907,0.2651463,-0.1052446,-0.8476991,3.917988,0.1553486,-0.6948688,1.1744,-0.3176903,312.7362,193.7819,10.61216
1,0.08888889,-0.08044656,-0.4239998,0.09243257,-1.186869,-0.5352591,-2.908724,-1.074305,0.02363701,0,0,3.636364,-0.320017,0.1695811,0.04515413,-0.5230417,-0.679505,0.0857743,-0.2625277,0.2418621,-0.1139619,-0.8488821,3.921101,0.1563968,-0.6937702,1.174276,-0.3195423,312.757,193.3689,10.56282
1,0.1,-0.1124832,-0.4187516,0.06370268,-1.18533,-0.5305768,-2.907979,-1.074754,-0.04125419,0,0,3.636364,-0.3292212,0.1682772,0.07721891,-0.5210496,-0.676419,0.08722305,-0.2628984,0.2227597,-0.1205381,-0.8501183,3.924011,0.1576541,-0.6930032,1.174397,-0.3211568,312.7356,192.9571,10.61907
1,0.1111111,-0.1551374,-0.4081492,0.04138322,-1.183957,-0.5264089,-2.906522,-1.073905,0.07802013,0,0,3.636364,-0.3312468,0.1596531,0.08995119,-0.5195124,-0.6737409,0.08862121,-0.2628636,0.2281274,-0.1247474,-0.8511878,3.927843,0.1580035,-0.6925941,1.174718,-0.3226514,312.7533,192.6735,10.71536
1,0.1222222,-0.199896,-0.3933118,0.0265061,-1.182667,-0.5218065,-2.904778,-1.073061,0.0766096,0,0,3.636364,-0.3418465,0.1500385,0.09959079,-0.5179582,-0.671499,0.09089316,-0.2638912,0.2346044,-0.1321323,-0.8524438,3.931869,0.158078,-0.692432,1.175226,-0.3240469,312.7806,192.443,10.89197
1,0.1333333,-0.2403976,-0.3741153,0.01910586,-1.182015,-0.5185031,-2.901965,-1.072679,0.03452884,0,0,2.424242,-0.3577389,0.1447258,0.1093297,-0.5162772,-0.668896,0.09317601,-0.2662822,0.2219174,-0.1386237,-0.8538473,3.934979,0.1590786,-0.692548,1.175876,-0.3255261,312.8307,192.1678,11.12557
1,0.1444445,-0.2670298,-0.364553,0.01275557,-1.181101,-0.5144151,-2.89983,-1.07247,0.01907153,0,0,2.424242,-0.3672011,0.1361234,0.1242875,-0.5142937,-0.6668699,0.09589963,-0.2676264,0.2070946,-0.1440713,-0.8551431,3.937972,0.1601263,-0.6929309,1.176655,-0.327252,312.8531,191.8938,11.38128
1,0.1555556,-0.3298846,-0.3613157,0.01607496,-1.180285,-0.5105509,-2.895453,-1.072185,0.02609529,0,0,2.424242,-0.3895139,0.1287276,0.1330275,-0.512307,-0.6648155,0.09918384,-0.2625732,0.1943064,-0.1517086,-0.856813,3.940581,0.1611556,-0.6934161,1.177608,-0.3292225,312.8242,191.6389,11.63431
1,0.1666667,-0.3597023,-0.3580968,0.02359182,-1.179983,-0.5062259,-2.892112,-1.072852,-0.06095862,0,0,2.424242,-0.4002272,0.1202764,0.1330772,-0.5108603,-0.6628405,0.1023642,-0.2700096,0.2008958,-0.1579283,-0.8579299,3.944613,0.1618824,-0.6939861,1.178738,-0.3316125,312.7885,191.4669,11.81748
1,0.1777778,-0.3927308,-0.3697763,0.02476326,-1.179102,-0.5018961,-2.888287,-1.071116,0.1595108,0,0,2.424242,-0.4226689,0.1086923,0.1332394,-0.5094745,-0.6616512,0.1066892,-0.2690155,0.1977054,-0.1601011,-0.8594282,3.947726,0.1627884,-0.6944547,1.180136,-0.3343468,312.7467,191.2179,12.0125
1,0.1888889,-0.4086916,-0.3910437,0.03336553,-1.178432,-0.4965986,-2.885371,-1.072162,-0.09680522,0,0,1.818182,-0.4568231,0.09825414,0.133571,-0.5079021,-0.6604938,0.111918,-0.263604,0.1997118,-0.1547752,-0.8600546,3.951096,0.1633114,-0.694827,1.181843,-0.3375723,312.7037,190.9348,12.18508
1,0.2,-0.4896218,-0.4187376,0.04638568,-1.177681,-0.4898975,-2.879955,-1.072199,-0.00207888,0,0,1.818182,-0.4951028,0.09737432,0.1404309,-0.5060065,-0.658654,0.1170805,-0.2605992,0.19124,-0.1612973,-0.8618506,3.954472,0.1639359,-0.694898,1.1839,-0.3410892,312.4583,190.4663,12.42787
1,0.2111111,-0.5715883,-0.4036933,0.07847913,-1.178362,-0.4855118,-2.872663,-1.073048,-0.0775315,0,0,1.818182,-0.5409374,0.1094566,0.1325886,-0.5045881,-0.6557603,0.1220921,-0.2511518,0.1933827,-0.1773584,-0.8639811,3.95783,0.164275,-0.6947789,1.186189,-0.3448903,312.107,189.8609,12.63406
1,0.2222222,-0.6269257,-0.3887349,0.09561706,-1.178941,-0.4808678,-2.86593,-1.070458,0.2377894,0,0,1.818182,-0.5600862,0.1309677,0.1244916,-0.5033071,-0.6513208,0.1250213,-0.2499759,0.2094732,-0.1899819,-0.8657671,3.962075,0.1642268,-0.6944318,1.188573,-0.3488896,311.6572,189.1724,12.93482
1,0.2333333,-0.7195753,-0.3503038,0.1095813,-1.179894,-0.4778382,-2.856027,-1.069671,0.07017265,0,0,1.333333,-0.5909109,0.1685702,0.1113656,-0.5021092,-0.6449739,0.1271454,-0.2529098,0.2298003,-0.194013,-0.8675119,3.966734,0.1641527,-0.6939996,1.190859,-0.3533651,311.307,188.55,13.16248
1,0.2444444,-0.7802505,-0.3268358,0.1224463,-1.18083,-0.4741375,-2.846837,-1.070678,-0.09203693,0,0,1.333333,-0.6154999,0.181639,0.09794016,-0.5011334,-0.6400029,0.1303769,-0.2548592,0.2405049,-0.1928246,-0.8689953,3.97157,0.1639626,-0.6936178,1.193134,-0.3584583,311.0579,188.0939,13.15429
1,0.2555556,-0.8718147,-0.2894455,0.1449237,-1.182558,-0.471633,-2.83497,-1.068878,0.1658896,0,0,1.333333,-0.6626334,0.1896619,0.07732604,-0.5003675,-0.6329354,0.1339101,-0.2504795,0.2543707,-0.2012588,-0.8709123,3.97634,0.1635034,-0.6932149,1.195564,-0.3639249,310.758,187.5802,13.12467
1,0.2666667,-0.9537678,-0.2584841,0.1695342,-1.184611,-0.4687664,-2.822856,-1.069794,-0.08481341,0,0,1.333333,-0.7183784,0.1804869,0.05679085,-0.5000325,-0.6291436,0.1400232,-0.2483832,0.2725906,-0.2256419,-0.8729005,3.98164,0.162186,-0.6929547,1.198252,-0.3698232,310.4446,187.1021,13.04539
1,0.2777778,-1.022951,-0.233972,0.1898556,-1.186431,-0.4655131,-2.810821,-1.068424,0.1266709,0,0,1.333333,-0.7345665,0.1852369,0.03665161,-0.4997054,-0.6230524,0.1436911,-0.2492631,0.2856108,-0.2350404,-0.8756894,3.987292,0.1613647,-0.6927959,1.201334,-0.3759952,310.0147,186.539,13.08719
1,0.2888889,-1.090045,-0.2072462,0.2016536,-1.18844,-0.4634582,-2.797286,-1.068641,-0.02048468,0,0,3.151515,-0.7659385,0.1707995,0.006015137,-0.5004761,-0.619871,0.1504342,-0.2434316,0.3185978,-0.235819,-0.8771036,3.994239,0.1593345,-0.6928276,1.204853,-0.382553,309.5114,186.0721,13.14022
1,0.3,-1.163575,-0.172112,0.1921369,-1.189815,-0.461872,-2.782537,-1.069396,-0.0681115,0,0,3.151515,-0.7861434,0.1634232,0.0125836,-0.4999201,-0.6165745,0.1568346,-0.2377367,0.3376662,-0.2292856,-0.8784245,4.000814,0.1575803,-0.6929109,1.208898,-0.3893902,308.8798,185.539,13.35244
1,0.3111111,-1.240321,-0.1412382,0.1708986,-1.190603,-0.4609293,-2.76684,-1.069162,0.02247064,0,0,3.151515,-0.8072892,0.1752023,0.02041245,-0.4990119,-0.6119923,0.1624707,-0.238673,0.3408044,-0.2217871,-0.8799819,4.006276,0.1567824,-0.6929435,1.213402,-0.3963755,308.0645,184.8148,13.73665
1,0.3222222,-1.278691,-0.1253059,0.1656018,-1.191635,-0.4590283,-2.752141,-1.068817,0.03176918,0,0,3.151515,-0.8286171,0.1742863,0.01960297,-0.4985602,-0.6079879,0.1688375,-0.2367407,0.3258798,-0.2198204,-0.8817572,4.011252,0.1562298,-0.693092,1.218222,-0.4037079,307.1962,184.0664,14.10144
1,0.3333333,-1.341555,-0.09760819,0.158162,-1.19269,-0.4583332,-2.735664,-1.068833,-0.001116858,0,0,5.454545,-0.8444162,0.1710469,0.0357521,-0.4973325,-0.6046361,0.1757729,-0.2302653,0.3267848,-0.2134884,-0.8833178,4.016347,0.1553406,-0.6933497,1.223392,-0.4112616,306.3571,183.2375,14.50059
1,0.3444445,-1.377775,-0.07742422,0.1560569,-1.194012,-0.4570432,-2.719706,-1.070205,-0.1249534,0,0,5.454545,-0.8476176,0.153954,0.04415756,-0.4963871,-0.6024629,0.1833006,-0.2345429,0.3247016,-0.2102783,-0.8850057,4.021617,0.1551022,-0.6937374,1.228922,-0.4188845,305.4761,182.2606,15.03138
1,0.3555556,-1.42995,-0.02839017,0.1613204,-1.196062,-0.457693,-2.702121,-1.069687,0.04890402,0,0,5.454545,-0.8411759,0.1025063,0.07657346,-0.4952196,-0.6039644,0.1941926,-0.2368972,0.3108979,-0.2114542,-0.8868896,4.025869,0.155082,-0.6941395,1.234743,-0.4263242,304.4772,181.1915,15.71366
1,0.3666667,-1.462952,0.0120607,0.1666021,-1.19837,-0.457905,-2.68493,-1.070529,-0.07703462,0,0,5.454545,-0.8561069,0.07371074,0.0893108,-0.4936361,-0.6049839,0.2048466,-0.2467298,0.3048083,-0.2241813,-0.889074,4.030897,0.1551582,-0.6946419,1.240767,-0.433691,303.5105,180.2235,16.37108
1,0.3777778,-1.472561,0.03555185,0.1569442,-1.200038,-0.458607,-2.667961,-1.07031,0.02116289,0,0,5.454545,-0.8604534,0.05453974,0.09237437,-0.4926678,-0.6054867,0.2150401,-0.2520004,0.3167208,-0.2357276,-0.8914596,4.036511,0.1546093,-0.6951604,1.246947,-0.440935,302.5604,179.3012,17.06928
1,0.3888889,-1.462979,0.05258302,0.1526156,-1.201957,-0.4589495,-2.651816,-1.071057,-0.06821207,0,0,8.484849,-0.844444,0.06511098,0.08802335,-0.4914938,-0.6040502,0.22237,-0.2700631,0.3234633,-0.2407944,-0.8936285,4.042376,0.1545994,-0.6957806,1.253275,-0.4482396,301.6799,178.5284,17.64782
1,0.4,-1.435306,0.07386387,0.1290548,-1.203166,-0.4601846,-2.636479,-1.072031,-0.08804639,0,0,8.484849,-0.8621523,0.09061664,0.1076511,-0.4893415,-0.6011394,0.2300843,-0.2881036,0.3226536,-0.2342164,-0.895318,4.047934,0.1548639,-0.6964647,1.25977,-0.4556123,300.7997,177.7038,18.29817
1,0.4111111,-1.405528,0.1036318,0.1022674,-1.204437,-0.4620036,-2.620939,-1.073187,-0.1047727,0,0,8.484849,-0.8773391,0.1436421,0.1435105,-0.4857174,-0.5960421,0.2357329,-0.3049822,0.3260061,-0.2233486,-0.8968472,4.053117,0.155604,-0.6972182,1.266361,-0.4630646,299.8625,176.656,19.14469
1,0.4222222,-1.386364,0.1216695,0.09580354,-1.206136,-0.4630742,-2.605669,-1.074653,-0.1329768,0,0,8.484849,-0.8747305,0.1839448,0.1619541,-0.482634,-0.590238,0.2403998,-0.3290377,0.3444133,-0.2101125,-0.897839,4.059785,0.1556335,-0.6979092,1.273017,-0.4702606,298.8995,175.4828,20.04959
1,0.4333333,-1.3449,0.1737424,0.05291177,-1.207036,-0.4669459,-2.590554,-1.074894,-0.02095385,0,0,8.484849,-0.8517672,0.2529463,0.1729673,-0.4791586,-0.5809185,0.2405761,-0.3487053,0.3755293,-0.2010739,-0.898949,4.066766,0.1558152,-0.6986513,1.279635,-0.4771472,297.9526,174.1532,21.03829
1,0.4444444,-1.307648,0.2226688,0.03778692,-1.20906,-0.470473,-2.575755,-1.074925,-0.002787077,0,0,11.63636,-0.8685535,0.2935334,0.1735463,-0.4761871,-0.5721333,0.2431402,-0.3698314,0.3811571,-0.193345,-0.9002107,4.073421,0.1563912,-0.6994995,1.28611,-0.4835448,297.0105,172.8081,22.07454
1,0.4555556,-1.282099,0.2727216,0.0258605,-1.211462,-0.4748432,-2.560724,-1.076053,-0.103171,0,0,11.63636,-0.867509,0.3010775,0.1672264,-0.4737023,-0.5650647,0.2463765,-0.3773979,0.3748919,-0.1943908,-0.9017383,4.078819,0.1574509,-0.7004694,1.292384,-0.4894483,296.1656,171.6343,23.04363
1,0.4666667,-1.241653,0.3461515,0.002141237,-1.214223,-0.480904,-2.546253,-1.076267,-0.01869404,0,0,11.63636,-0.8428593,0.2997555,0.1786432,-0.4704772,-0.5593986,0.2495861,-0.394487,0.3752163,-0.1995231,-0.9033607,4.084489,0.1587438,-0.701771,1.298452,-0.4949519,295.4427,170.4867,23.9859
1,0.4777778,-1.206561,0.4280671,-0.02696627,-1.217052,-0.4880493,-2.531288,-1.07619,0.007023523,0,0,11.63636,-0.8162055,0.2877942,0.1867219,-0.4675264,-0.5547221,0.2536688,-0.3996637,0.3848846,-0.1993728,-0.904809,4.090716,0.1594967,-0.7034743,1.304318,-0.5000919,294.7482,169.5861,24.81884
1,0.4888889,-1.161895,0.4949834,-0.05821347,-1.219426,-0.4953879,-2.517386,-1.07714,-0.08708409,0,0,10.90909,-0.7897527,0.2684897,0.1819544,-0.465136,-0.5508024,0.2580249,-0.4108492,0.403011,-0.177775,-0.9052058,4.09805,0.1597244,-0.7055833,1.310045,-0.5049747,294.1105,168.9609,25.53274
1,0.5,-1.12037,0.5194336,-0.06901023,-1.222368,-0.5016085,-2.504219,-1.076888,0.02358172,0,0,10.90909,-0.7673901,0.2683549,0.1816756,-0.4624041,-0.5452529,0.2610734,-0.4181333,0.4084305,-0.1701868,-0.9059941,4.105029,0.1603082,-0.7081188,1.315684,-0.509578,293.4785,168.3294,26.29937
1,0.5111111,-1.024587,0.5607251,-0.0939523,-1.224274,-0.5086867,-2.493703,-1.077692,-0.07394934,0,0,10.90909,-0.7428749,0.2714537,0.1803293,-0.4597447,-0.5386558,0.2626686,-0.4222547,0.4159313,-0.1679387,-0.9069917,4.111526,0.1611375,-0.7110858,1.321291,-0.5138611,292.8628,167.7284,27.08676
1,0.5222223,-0.9734793,0.5841266,-0.1015573,-1.227573,-0.5155406,-2.48215,-1.077807,-0.01013557,0,0,10.90909,-0.7310981,0.2745457,0.1834055,-0.4568909,-0.5330722,0.2653717,-0.4316778,0.4202934,-0.1592744,-0.9076628,4.118343,0.1620408,-0.7144163,1.326909,-0.5177706,292.2591,167.151,27.96978
1,0.5333334,-0.9042684,0.6107064,-0.1220288,-1.230539,-0.5232499,-2.471812,-1.080316,-0.2295769,0,0,10.90909,-0.7375855,0.2779168,0.1738998,-0.4547699,-0.5260921,0.2675436,-0.4358377,0.4245885,-0.1559918,-0.9084692,4.124767,0.1630675,-0.7179555,1.332508,-0.5214445,291.629,166.6422,28.97546
1,0.5444446,-0.8500607,0.6433728,-0.1443894,-1.233672,-0.5308058,-2.460873,-1.078932,0.1280341,0,0,11.63636,-0.7514429,0.2897747,0.1677884,-0.4522186,-0.5192546,0.2702997,-0.4356364,0.4363309,-0.1548079,-0.9091877,4.132114,0.1633628,-0.7215339,1.337901,-0.5247328,290.9056,165.7126,30.39828
1,0.5555557,-0.8222783,0.6671355,-0.1596497,-1.237291,-0.5401934,-2.450031,-1.079672,-0.06935007,0,0,11.63636,-0.7388676,0.2887716,0.1537385,-0.4503363,-0.5127336,0.272644,-0.4364835,0.4458711,-0.1483137,-0.9097614,4.13901,0.1640204,-0.7250829,1.342963,-0.5278237,290.1697,165.1139,31.55568
1,0.5666668,-0.7818393,0.7150115,-0.1768712,-1.241549,-0.549588,-2.439619,-1.078576,0.1004578,0,0,11.63636,-0.7276254,0.2986658,0.1111147,-0.4490271,-0.5046887,0.2732494,-0.4318204,0.4627653,-0.1364726,-0.9097955,4.146832,0.163814,-0.7285651,1.347624,-0.5309068,289.5311,164.5963,32.59837
1,0.577778,-0.7381903,0.7725048,-0.180272,-1.246754,-0.5592771,-2.429591,-1.078637,-0.006789081,0,0,11.63636,-0.723604,0.283818,0.1002751,-0.4474995,-0.4993171,0.2765288,-0.4273803,0.4668552,-0.1258251,-0.9099585,4.153785,0.1641833,-0.7320226,1.351908,-0.5340753,289.0344,164.2003,33.35275
1,0.5888891,-0.6859469,0.8343556,-0.1581699,-1.253331,-0.5689769,-2.420578,-1.078604,0.002783273,0,0,12.72727,-0.6716428,0.2654672,0.08987865,-0.4461253,-0.494581,0.2778918,-0.4179001,0.461401,-0.1281111,-0.9106024,4.160219,0.1645682,-0.7355557,1.355902,-0.5372652,288.5905,163.8377,33.92131
1,0.6000003,-0.62945,0.9153693,-0.1371786,-1.261094,-0.5794975,-2.412133,-1.078588,0.001140036,0,0,12.72727,-0.6390243,0.2270198,0.07739693,-0.4454094,-0.4919434,0.2815643,-0.4179844,0.4582398,-0.1313561,-0.9114136,4.166741,0.1652625,-0.7391764,1.359674,-0.5402012,288.1378,163.5756,34.31786
1,0.6111114,-0.5644305,0.9569591,-0.1225141,-1.268258,-0.5893639,-2.404919,-1.079088,-0.0460082,0,0,12.72727,-0.579155,0.189794,0.02832025,-0.4469232,-0.489113,0.2834986,-0.4199378,0.4732367,-0.1365146,-0.9121433,4.174254,0.1653756,-0.7429319,1.36332,-0.542743,287.6566,163.6629,34.43415
1,0.6222225,-0.5239816,0.9707742,-0.1332773,-1.27427,-0.599068,-2.397526,-1.079401,-0.02846344,0,0,12.72727,-0.582526,0.1920586,0.0145351,-0.4464843,-0.4841025,0.2857593,-0.4144467,0.4773694,-0.1291017,-0.9124906,4.18157,0.1651722,-0.7468761,1.366899,-0.5450519,287.0963,164.0906,34.4184
1,0.6333337,-0.4622229,0.9547532,-0.1504261,-1.279222,-0.6083943,-2.391655,-1.079837,-0.04009192,0,0,12.72727,-0.5780246,0.2325247,0.01483538,-0.4451974,-0.4753146,0.2844639,-0.4025542,0.4694609,-0.1016044,-0.9118994,4.187816,0.1653874,-0.7510094,1.370405,-0.5471764,286.4664,164.6051,34.43582
1,0.6444448,-0.4249554,0.9419414,-0.1611107,-1.284477,-0.6174326,-2.385657,-1.079031,0.07357251,0,0,8.484849,-0.5671894,0.270853,0.009720318,-0.4440709,-0.4655941,0.2815494,-0.3928674,0.4660196,-0.08897149,-0.9116767,4.194558,0.1651858,-0.7552301,1.373747,-0.5491058,285.8244,164.8503,34.79538
1,0.655556,-0.3695228,0.9366709,-0.1431132,-1.290645,-0.6259931,-2.380859,-1.079744,-0.06636678,0,0,8.484849,-0.5748574,0.2774639,-0.008272413,-0.4441045,-0.4574075,0.2812841,-0.3882822,0.4742976,-0.07082478,-0.9108192,4.201456,0.1650752,-0.7594914,1.376851,-0.5509094,285.2635,164.852,35.38161
1,0.6666671,-0.3556592,0.9302986,-0.1356668,-1.2967,-0.6344475,-2.375099,-1.079036,0.06494033,0,0,8.484849,-0.5301752,0.2782785,-0.01308304,-0.4435703,-0.4505983,0.2795925,-0.3744157,0.4740766,-0.06994201,-0.9109987,4.208241,0.1646105,-0.7637814,1.379644,-0.5526261,284.7692,164.6962,36.06018
1,0.6777782,-0.330091,0.937746,-0.1400132,-1.302777,-0.6437563,-2.369869,-1.079429,-0.03682448,0,0,8.484849,-0.4778908,0.2949935,-0.01356881,-0.4424464,-0.4417481,0.275431,-0.3615237,0.4867414,-0.07847694,-0.9112208,4.215769,0.1635173,-0.7680432,1.382111,-0.5542541,284.3124,164.946,36.31499
1,0.6888894,-0.3023903,0.9292302,-0.1357735,-1.308809,-0.6521107,-2.365318,-1.077953,0.1349617,0,0,6.666667,-0.4375133,0.3119498,-0.03201364,-0.442211,-0.4319764,0.2699889,-0.3397793,0.5022364,-0.06043205,-0.9101161,4.223857,0.1616334,-0.7721654,1.384208,-0.5557064,283.8331,165.5297,36.2374
1,0.7000005,-0.2853746,0.9078954,-0.144218,-1.314169,-0.6601055,-2.360717,-1.078069,-0.01209187,0,0,6.666667,-0.4109065,0.3235617,-0.03969811,-0.4418264,-0.4227358,0.2654431,-0.3159848,0.5090979,-0.03720088,-0.9089326,4.231099,0.1600011,-0.7762515,1.386034,-0.5572781,283.4451,166.5054,35.76137
1,0.7111117,-0.2661843,0.8834078,-0.1399166,-1.319549,-0.667695,-2.356545,-1.078093,-0.002345178,0,0,6.666667,-0.3815855,0.3194566,-0.07845484,-0.4431021,-0.4135894,0.2603525,-0.2846543,0.511449,-0.0002167895,-0.9068053,4.238093,0.1577875,-0.7803268,1.387645,-0.5589245,283.0995,167.3032,35.36566
1,0.7222228,-0.2267669,0.8471981,-0.1334941,-1.324512,-0.674526,-2.353636,-1.077543,0.05015628,0,0,6.666667,-0.3588843,0.2920201,-0.1237285,-0.4452699,-0.4067968,0.2575383,-0.2696871,0.5046844,0.0155194,-0.9054157,4.24498,0.156225,-0.7843383,1.389062,-0.560514,282.7572,167.998,35.01114
1,0.7333339,-0.1799212,0.8066664,-0.1526689,-1.328357,-0.6818374,-2.351366,-1.077433,0.009294355,0,0,6.666667,-0.3174987,0.2661652,-0.1234167,-0.4461088,-0.4015621,0.2551117,-0.2519761,0.4691085,0.02990442,-0.9039664,4.249887,0.1553827,-0.788306,1.390327,-0.5620154,282.4494,168.7063,34.61357
1,0.7444451,-0.1095381,0.7545727,-0.1121983,-1.333264,-0.6867414,-2.351129,-1.078137,-0.06456995,0,0,7.878788,-0.2751534,0.2425367,-0.1326728,-0.4471959,-0.3960211,0.2518072,-0.2458077,0.4432761,0.04875626,-0.9021431,4.255162,0.154997,-0.7922603,1.391508,-0.5635175,282.1534,169.5813,34.11434
1,0.7555562,-0.07650775,0.7354134,-0.1100779,-1.337979,-0.6931553,-2.349785,-1.078564,-0.03874389,0,0,7.878788,-0.2764762,0.2288118,-0.1466334,-0.4487639,-0.3903001,0.2497963,-0.2416697,0.4260341,0.06239695,-0.9003274,4.260154,0.1544418,-0.7961172,1.392571,-0.5650046,281.833,170.1998,33.93411
1,0.7666674,-0.04025293,0.7130837,-0.09624186,-1.342695,-0.6989642,-2.34922,-1.079568,-0.09191702,0,0,7.878788,-0.2485701,0.2734572,-0.1540101,-0.4492534,-0.3786578,0.2408723,-0.2177916,0.4317569,0.09627871,-0.8975023,4.26655,0.1522827,-0.7998614,1.393436,-0.5664948,281.5204,170.6385,33.91405
1,0.7777785,-0.02427415,0.7013664,-0.09728618,-1.347362,-0.7050767,-2.348093,-1.078409,0.1064587,0,0,7.878788,-0.2450881,0.3278119,-0.1588886,-0.4498558,-0.3649569,0.2311389,-0.2024462,0.4452001,0.1175454,-0.8946458,4.273688,0.1497296,-0.8032878,1.39401,-0.5678486,281.1969,171.4799,33.46646
1,0.7888896,0.005589068,0.6811947,-0.07173315,-1.35238,-0.7101063,-2.347911,-1.07841,-0.001490181,0,0,7.878788,-0.2296096,0.4054215,-0.1519956,-0.449809,-0.3481354,0.2183347,-0.1860288,0.4521089,0.1483385,-0.8911571,4.279914,0.1473373,-0.8065183,1.394304,-0.5692025,280.9572,172.6278,32.62789
1,0.8000008,0.02486447,0.6599928,-0.03228317,-1.357885,-0.714222,-2.347988,-1.077511,0.08203498,0,0,8,-0.1975601,0.4319118,-0.1585539,-0.4506314,-0.3344531,0.2071945,-0.1688959,0.4420346,0.171454,-0.8882292,4.285043,0.1454089,-0.8096583,1.394334,-0.5706074,280.7613,173.6915,31.78884
1,0.8111119,0.03554513,0.6483096,-0.01842612,-1.3629,-0.718915,-2.347759,-1.077738,-0.02172723,0,0,8,-0.1784239,0.4403602,-0.1650925,-0.4514303,-0.3224204,0.197859,-0.1507849,0.4212204,0.2019609,-0.8844677,4.28954,0.1436179,-0.8128319,1.394143,-0.5721029,280.5866,174.8663,30.80561
1,0.8222231,0.05582924,0.6238484,-0.002419129,-1.367596,-0.7229907,-2.348295,-1.077487,0.02293921,0,0,8,-0.1596694,0.4223527,-0.1899931,-0.4535358,-0.3120154,0.1896496,-0.1326135,0.4025124,0.2367425,-0.8802445,4.294104,0.1418621,-0.8159715,1.393715,-0.5736287,280.3783,176.345,29.57623
1,0.8333342,0.08356325,0.5887392,0.01572412,-1.371936,-0.7262414,-2.349506,-1.07695,0.04873171,0,0,8,-0.1356805,0.4022298,-0.220318,-0.4563742,-0.3020611,0.1815655,-0.1111062,0.3987518,0.260985,-0.8760031,4.298923,0.1392836,-0.8190401,1.393105,-0.5752487,280.2195,178.3817,27.83489
1,0.8444453,0.1081073,0.5408308,0.02752915,-1.37568,-0.7289717,-2.351084,-1.077237,-0.02691505,0,0,8.242424,-0.1043493,0.3799959,-0.2582132,-0.4598214,-0.2924231,0.1734096,-0.08415261,0.396945,0.2947695,-0.8711445,4.303704,0.136323,-0.8219884,1.392369,-0.5769365,280.1419,180.3816,26.11435
1,0.8555565,0.1326193,0.5003626,0.03290795,-1.379018,-0.7315853,-2.352874,-1.077492,-0.0231335,0,0,8.242424,-0.08123514,0.3715173,-0.2798858,-0.4629634,-0.2825177,0.1646633,-0.07133302,0.391309,0.3063012,-0.8668211,4.30841,0.1336103,-0.8247653,1.391528,-0.5786476,280.0689,182.0769,24.66221
1,0.8666676,0.1752433,0.4513751,0.03934014,-1.381881,-0.7336071,-2.35583,-1.077469,0.002013091,0,0,8.242424,-0.04648247,0.3512405,-0.3007475,-0.4664133,-0.2739093,0.156535,-0.0556784,0.3524699,0.333452,-0.8621259,4.311151,0.1320206,-0.8273075,1.390565,-0.5803592,279.9866,183.6346,23.32132
1,0.8777788,0.209343,0.4183637,0.04468077,-1.384787,-0.7356066,-2.359006,-1.07734,0.0115626,0,0,8.242424,-0.03780448,0.3671263,-0.2964501,-0.4688149,-0.2627326,0.1466502,-0.05357906,0.3459821,0.3429332,-0.8577104,4.315496,0.1300496,-0.8296148,1.389476,-0.5821076,279.9371,185.0635,22.06526
1,0.8888899,0.2743361,0.3501825,0.04367299,-1.386444,-0.7364972,-2.364197,-1.078053,-0.06555633,0,0,8.242424,-0.01868653,0.4636641,-0.2638424,-0.4691893,-0.2433964,0.1291833,-0.03298783,0.3518271,0.3672781,-0.852365,4.32009,0.1267193,-0.8316954,1.388249,-0.5838759,279.9232,186.3049,20.93563
1,0.900001,0.2935306,0.3022306,0.03950179,-1.388112,-0.737693,-2.368036,-1.077991,0.006002648,0,0,4.484848,-0.0001966357,0.5178509,-0.2603827,-0.4710695,-0.2262792,0.1133665,-0.01022005,0.3489616,0.409629,-0.845894,4.324265,0.123359,-0.8335515,1.386823,-0.5856014,279.9062,187.3204,19.97045
1,0.9111122,0.2988626,0.2819977,0.04273722,-1.390246,-0.7390682,-2.371297,-1.079364,-0.125936,0,0,4.484848,0.002052128,0.5305823,-0.256064,-0.4734472,-0.2118784,0.1007477,-0.0007363558,0.3272991,0.4317008,-0.8400425,4.327284,0.1210444,-0.8353003,1.385167,-0.5873438,279.915,188.3292,18.97692
1,0.9222233,0.3052158,0.2755399,0.0171776,-1.391977,-0.741684,-2.37452,-1.077777,0.1458435,0,0,4.484848,0.02231652,0.4994045,-0.2384877,-0.4750914,-0.2015086,0.0906271,0.01134416,0.2856117,0.4290244,-0.8354656,4.329247,0.1194923,-0.8369459,1.383131,-0.589036,279.921,188.9385,18.35786
1,0.9333345,0.3383474,0.2564947,0.07042265,-1.39543,-0.7413953,-2.379441,-1.076671,0.09946276,0,0,4.484848,0.0467234,0.473632,-0.2326266,-0.4770329,-0.1915686,0.08046714,0.014089,0.2611251,0.4223737,-0.830772,4.33134,0.1178353,-0.8385948,1.380737,-0.590734,280.0765,190.119,17.16498
1,0.9444456,0.3596388,0.230908,0.06299575,-1.397097,-0.7423684,-2.38398,-1.076509,0.01396337,0,0,4.121212,0.06135195,0.4566243,-0.2468078,-0.4799011,-0.1811413,0.07003235,0.02126856,0.2483226,0.4157834,-0.8261008,4.334413,0.1154004,-0.840319,1.378124,-0.5924351,280.3801,191.7587,15.51888
1,0.9555568,0.3670816,0.221308,0.05448621,-1.398846,-0.7440318,-2.388033,-1.077456,-0.08684703,0,0,4.121212,0.07917923,0.4492196,-0.2652043,-0.4831693,-0.1702708,0.05898609,0.03915963,0.232055,0.4197074,-0.820954,4.336862,0.1127487,-0.8421132,1.375435,-0.5940053,280.7564,193.5553,13.74448
1,0.9666679,0.3681416,0.1925305,0.0503066,-1.400047,-0.744525,-2.392155,-1.077142,0.0294179,0,0,4.121212,0.1034198,0.4353371,-0.2784164,-0.4864684,-0.1603111,0.04825301,0.04518668,0.2031187,0.4278994,-0.8157758,4.337895,0.1113052,-0.8437653,1.372711,-0.595376,281.0219,195.5229,11.93891
1,0.977779,0.3798652,0.1595191,0.05141892,-1.401065,-0.7449054,-2.396737,-1.076468,0.06105167,0,0,4.121212,0.1246759,0.4245288,-0.2766507,-0.4892877,-0.1506422,0.03771968,0.05557267,0.1869975,0.4276575,-0.8105586,4.339707,0.1093406,-0.8453432,1.369931,-0.5966259,281.2612,196.6758,10.83532
1,0.9888902,0.3894529,0.132889,0.0525272,-1.401868,-0.7449373,-2.401373,-1.076072,0.03553726,0,0,4.121212,0.1426647,0.4073592,-0.2759916,-0.4924696,-0.14198,0.02826386,0.06719981,0.1804139,0.4285423,-0.805602,4.341496,0.10698,-0.847023,1.367186,-0.59772,281.5528,197.6001,9.835777
1,1.000001,0.4171375,0.07536022,0.04942058,-1.401613,-0.7438715,-2.407029,-1.076322,-0.02321525,0,0,4,0.1425802,0.380666,-0.2687713,-0.4951056,-0.1346745,0.02034469,0.07649227,0.158953,0.4335696,-0.800551,4.342673,0.1050604,-0.8488568,1.364534,-0.5988379,281.8191,198.6747,8.876359
1,1.011112,0.4309768,0.05193773,0.04943709,-1.401893,-0.7437495,-2.412128,-1.076197,0.01158356,0,0,4,0.1458987,0.3687718,-0.2518982,-0.4975525,-0.1267324,0.01183296,0.0800418,0.1206411,0.4225256,-0.7962479,4.342149,0.1044068,-0.8506464,1.361946,-0.5999181,282.0349,199.6689,8.110672
1,1.022224,0.4373613,0.02636164,0.04522713,-1.401851,-0.7431237,-2.417342,-1.07684,-0.05903737,0,0,4,0.1600817,0.3673778,-0.2243842,-0.4990407,-0.1180041,0.001913215,0.07651298,0.1058882,0.4138998,-0.7918888,4.342971,0.1032103,-0.8522279,1.359392,-0.6009507,282.2481,200.551,7.47144
1,1.033335,0.4330862,0.01141352,0.03673835,-1.401483,-0.7427045,-2.422074,-1.076326,0.04735147,0,0,4,0.1654027,0.3759145,-0.2296888,-0.5017012,-0.1087933,-0.008285094,0.07778946,0.1186431,0.4150693,-0.7871004,4.344731,0.1010651,-0.8534132,1.356808,-0.6018491,282.4801,201.0046,7.132741
1,1.044446,0.4224125,0.004997529,0.02719381,-1.401391,-0.7425846,-2.426383,-1.076115,0.01868231,0,0,4,0.1674868,0.4091086,-0.2496558,-0.5052741,-0.0969071,-0.02053217,0.08015153,0.1292116,0.4225908,-0.7820809,4.346817,0.0986584,-0.8543595,1.354209,-0.6026673,282.7537,201.4147,6.667792
1,1.055557,0.4117371,-0.009929277,0.01659177,-1.400928,-0.7424622,-2.430571,-1.075524,0.05386453,0,0,9.69697,0.1588364,0.4124649,-0.2601871,-0.5087847,-0.08718231,-0.03026656,0.08739739,0.1174142,0.4213452,-0.7773362,4.347782,0.09685837,-0.8551678,1.351574,-0.6035548,282.9641,201.8486,6.271337
1,1.066668,0.4128043,-0.02483083,0.01875179,-1.400695,-0.7418507,-2.435273,-1.075018,0.04574179,0,0,9.69697,0.1619979,0.3846341,-0.2487727,-0.511402,-0.08080297,-0.03768133,0.085901,0.09837589,0.4084017,-0.773186,4.347923,0.09584317,-0.8559129,1.348852,-0.6046821,283.1556,202.1589,6.024098
1,1.077779,0.4266557,-0.03974713,0.01875089,-1.400155,-0.7411045,-2.440649,-1.074835,0.01642509,0,0,9.69697,0.1653809,0.3545122,-0.2181853,-0.5129003,-0.07484548,-0.0447712,0.08650436,0.08257549,0.3890742,-0.7694405,4.348295,0.09474169,-0.856672,1.346098,-0.6059772,283.4494,202.3939,5.679338
1,1.08889,0.4351684,-0.05253348,0.01451246,-1.399719,-0.7403945,-2.445895,-1.075251,-0.03812958,0,0,9.69697,0.1709106,0.3446898,-0.1970362,-0.5145515,-0.06813218,-0.05268931,0.08636924,0.08377655,0.374171,-0.7656711,4.349187,0.09313394,-0.8574053,1.343381,-0.6072384,283.8273,202.647,5.256015
1,1.100002,0.4266397,-0.06212694,0.0102911,-1.399121,-0.7396951,-2.450553,-1.075912,-0.06013311,0,0,12.12121,0.1687339,0.3254708,-0.1907842,-0.5166373,-0.06222582,-0.05959861,0.08301047,0.08505237,0.3571645,-0.7622218,4.350274,0.09158984,-0.8580485,1.340785,-0.6083028,284.2316,202.9714,4.804766
1,1.111113,0.4117162,-0.07809737,0.009298027,-1.398455,-0.7387012,-2.45476,-1.07577,0.01338522,0,0,12.12121,0.1654483,0.3094926,-0.1898239,-0.518918,-0.05684677,-0.06599606,0.08157833,0.07567687,0.3357857,-0.759117,4.350675,0.09043216,-0.8585438,1.338297,-0.6090569,284.5547,203.1423,4.55209
1,1.122224,0.3978747,-0.08873398,0.01361583,-1.397917,-0.7374879,-2.458994,-1.075081,0.062721,0,0,12.12121,0.162167,0.2881777,-0.1857127,-0.5210496,-0.05186613,-0.07200948,0.07256183,0.06221051,0.3101907,-0.7562893,4.350958,0.0898191,-0.8590195,1.335886,-0.6095814,284.7975,203.2751,4.353019
1,1.133335,0.382952,-0.1089703,0.01264028,-1.396942,-0.73589,-2.463039,-1.074491,0.0534706,0,0,12.12121,0.1611789,0.2699237,-0.1688264,-0.5226496,-0.04724554,-0.07752089,0.0679553,0.05070605,0.2941518,-0.7535238,4.350858,0.08928061,-0.8595211,1.333544,-0.609937,285.0397,203.4742,4.134602
1,1.144446,0.3701668,-0.1377369,0.01060992,-1.395478,-0.7338804,-2.467216,-1.074466,0.001924818,0,0,12.12121,0.1572706,0.2611371,-0.1358309,-0.523325,-0.0418585,-0.08376014,0.06539682,0.03491427,0.276975,-0.7511963,4.350277,0.08909179,-0.8601131,1.331309,-0.610241,285.3198,203.7272,3.904416
1,1.155557,0.3531141,-0.1601078,0.006452829,-1.394171,-0.7319943,-2.471,-1.074284,0.01667831,0,0,10.90909,0.1521337,0.2514045,-0.1166797,-0.5243077,-0.03719957,-0.08946117,0.06591526,0.01377838,0.258675,-0.7488117,4.349563,0.08910165,-0.8607607,1.329195,-0.6105751,285.5816,203.9834,3.736455
1,1.166668,0.3339357,-0.1707616,0.005452663,-1.392798,-0.7301892,-2.474373,-1.074401,-0.01073852,0,0,10.90909,0.1499483,0.2257594,-0.1072896,-0.5252036,-0.03437555,-0.09333155,0.06756222,-0.003103618,0.2371973,-0.7469347,4.348468,0.0890902,-0.8613465,1.327198,-0.6109392,285.8329,204.1278,3.692824
1,1.17778,0.3019871,-0.1760646,0.009777039,-1.391661,-0.7285866,-2.477005,-1.07413,0.02494028,0,0,10.90909,0.1474122,0.1757703,-0.1140998,-0.5267307,-0.03393506,-0.0951433,0.06502526,-0.009199411,0.2094805,-0.7452755,4.348169,0.08893014,-0.8617793,1.325326,-0.6113247,286.0962,204.0887,3.763816
1,1.188891,0.2774821,-0.1717839,0.01087397,-1.390769,-0.7273093,-2.479434,-1.073808,0.02926024,0,0,10.90909,0.1564957,0.1247008,-0.129582,-0.5285341,-0.03520646,-0.0961758,0.06470719,-0.01215323,0.182822,-0.7441101,4.347699,0.08856582,-0.8621167,1.323595,-0.6117812,286.3469,203.9746,3.81672
1,1.200002,0.2519025,-0.1696646,0.004529774,-1.389551,-0.7260102,-2.481716,-1.073224,0.05332214,0,0,7.393939,0.1586065,0.1097265,-0.1233492,-0.5297906,-0.03356968,-0.09934576,0.06446725,-0.01734148,0.1699993,-0.7424999,4.347503,0.08829178,-0.862333,1.322002,-0.6122606,286.5488,203.8428,3.861703
1,1.211113,0.2220575,-0.1632857,-0.001809902,-1.388463,-0.7247766,-2.483463,-1.073217,0.0003600839,0,0,7.393939,0.1587104,0.09894475,-0.1095956,-0.5305651,-0.03227964,-0.1022036,0.06842186,-0.03333709,0.1644878,-0.7409484,4.345954,0.08851948,-0.8624608,1.320574,-0.6127565,286.7426,203.7454,3.847321
1,1.222224,0.2071261,-0.1568939,-0.00606481,-1.387384,-0.7238094,-2.485371,-1.07329,-0.006455241,0,0,7.393939,0.1439266,0.08931252,-0.09351976,-0.5311781,-0.03095978,-0.1043142,0.06604862,-0.04280272,0.1559019,-0.7395098,4.344862,0.08872268,-0.8625974,1.319345,-0.613308,286.9301,203.647,3.815951
1,1.233335,0.1836733,-0.1590325,-0.01240738,-1.386011,-0.7226093,-2.48683,-1.072997,0.0269588,0,0,7.393939,0.1196649,0.09035432,-0.072985,-0.5317049,-0.02869023,-0.1065027,0.06057775,-0.03828278,0.1368133,-0.738746,4.344505,0.08875703,-0.8627666,1.318333,-0.61388,287.0951,203.4467,3.887576
1,1.244446,0.1623533,-0.1633104,-0.01980957,-1.384469,-0.7213246,-2.488237,-1.073397,-0.03667587,0,0,7.393939,0.1060663,0.08491799,-0.05049218,-0.5316799,-0.02700339,-0.1087616,0.06263568,-0.03608988,0.1261587,-0.7377265,4.343883,0.0884521,-0.8629634,1.317539,-0.6144056,287.211,203.2211,3.998047
1,1.255558,0.1431771,-0.1665001,-0.01976918,-1.383092,-0.719992,-2.48945,-1.073175,0.02086255,0,0,5.212121,0.1019413,0.0816419,-0.0376951,-0.5319446,-0.02521747,-0.1112626,0.05275857,-0.03676601,0.09960069,-0.7377585,4.34314,0.08883853,-0.8631827,1.316936,-0.6148295,287.2731,202.9594,4.159358
1,1.266669,0.1271855,-0.1665117,-0.0250597,-1.381657,-0.7187456,-2.490539,-1.07329,-0.01058144,0,0,5.212121,0.1030524,0.06233904,-0.02403133,-0.5317512,-0.02502732,-0.1125734,0.04484344,-0.05135798,0.07717434,-0.7376993,4.34159,0.08973601,-0.8634981,1.316506,-0.6152043,287.3316,202.6718,4.361554
1,1.27778,0.1101266,-0.1643881,-0.03143162,-1.380136,-0.7178316,-2.491423,-1.073317,-0.002226667,0,0,5.212121,0.09449668,0.04100604,-0.01453381,-0.5316991,-0.02537247,-0.1127843,0.0402311,-0.05963033,0.05689087,-0.7379166,4.340296,0.09054508,-0.8639241,1.316221,-0.6155773,287.3675,202.3655,4.63605
1,1.288891,0.09627063,-0.1622629,-0.03460606,-1.378714,-0.7167451,-2.492238,-1.073415,-0.008774585,0,0,5.212121,0.09234416,0.0175028,-0.006182354,-0.5312735,-0.02646383,-0.1130917,0.03803969,-0.05737989,0.04734438,-0.7377515,4.339402,0.09082817,-0.8644103,1.316032,-0.6159397,287.3678,202.083,4.92002
1,1.300002,0.08667625,-0.1548077,-0.03567372,-1.377482,-0.7158545,-2.493001,-1.073481,-0.005844465,0,0,4.606061,0.08594339,0.003640398,0.0001671985,-0.5310301,-0.02712483,-0.1132496,0.03694149,-0.05625823,0.04416529,-0.7373734,4.33883,0.09110115,-0.8649137,1.315897,-0.616273,287.3561,201.793,5.21142
1,1.311113,0.06644056,-0.1462749,-0.0345773,-1.376571,-0.7149608,-2.493308,-1.073572,-0.008148003,0,0,4.606061,0.08289668,0.01103035,0.008804351,-0.5305544,-0.02655651,-0.1144864,0.04011568,-0.0562897,0.04200274,-0.7370506,4.337849,0.09127665,-0.8653643,1.315779,-0.616519,287.3524,201.5182,5.495543
1,1.322224,0.06217205,-0.150533,-0.03348867,-1.375242,-0.7136558,-2.494002,-1.073741,-0.01520451,0,0,4.606061,0.0818973,0.01313335,0.01309932,-0.5302886,-0.02589658,-0.1159221,0.03893785,-0.06267073,0.04194836,-0.7367725,4.336349,0.09208386,-0.8657397,1.315666,-0.616703,287.371,201.2792,5.749152
1,1.333336,0.0579239,-0.1601051,-0.02599242,-1.373958,-0.7118651,-2.494866,-1.073471,0.02485489,0,0,4.606061,0.08179644,-0.001787834,0.01296536,-0.5300921,-0.02705505,-0.1157207,0.03874886,-0.07114372,0.036547,-0.7366495,4.33473,0.09285617,-0.8660631,1.315535,-0.6168624,287.3922,201.0688,5.946508
1,1.344447,0.05259272,-0.1675597,-0.02383958,-1.372429,-0.7102986,-2.495453,-1.073914,-0.04056177,0,0,4.606061,0.08174656,-0.0263621,0.02126921,-0.5294743,-0.02905189,-0.1149058,0.03935573,-0.08588295,0.01508886,-0.7375326,4.332685,0.09397816,-0.8663611,1.315402,-0.6170465,287.4346,200.9144,6.077579
1,1.355558,0.04949068,-0.1601109,-0.01961813,-1.370968,-0.7091396,-2.497456,-1.074181,-0.02392292,0,0,6.666667,0.07970288,-0.03603238,0.03293175,-0.5286316,-0.02983752,-0.1150861,0.04026472,-0.09118478,0.009710938,-0.7375715,4.330803,0.09510148,-0.8666149,1.315255,-0.617278,287.481,200.7059,6.269942
1,1.366669,0.04631713,-0.1398541,-0.01219776,-1.370586,-0.7082762,-2.498141,-1.074084,0.009117986,0,0,6.666667,0.07020985,-0.02747978,0.03632336,-0.5281011,-0.02977094,-0.1156262,0.04144807,-0.08050266,0.00446841,-0.7377563,4.33002,0.0951867,-0.8667344,1.315114,-0.6175373,287.5621,200.5021,6.472261
1,1.37778,0.04105804,-0.1206839,-0.01011745,-1.36987,-0.7076962,-2.499484,-1.075626,-0.1410208,0,0,6.666667,0.06181733,-0.00825765,0.03661985,-0.5274668,-0.02862152,-0.1171775,0.03720487,-0.07396457,-0.00395804,-0.7381824,4.329281,0.09542106,-0.8666815,1.314982,-0.6177843,287.6512,200.1991,6.715467
1,1.388891,0.03042041,-0.1185335,-0.002644248,-1.36931,-0.7065441,-2.499663,-1.074549,0.09968928,0,0,6.666667,0.05640519,-0.007092193,0.02923983,-0.5274188,-0.02868011,-0.1175716,0.04141264,-0.07398488,-0.009326768,-0.7385414,4.328107,0.09569537,-0.8664678,1.315215,-0.6174288,287.3043,200.8843,5.87229
