loc,t,aDotS,bDotS,gDotS,aS,bS,gS,qE,qDotE,tpad,enable,emg,aDotSH,bDotSH,gDotSH,aSH,bSH,gSH,aDotUB,bDotUB,gDotUB,aUB,bUB,gUB,xHand,yHand,zHand,aHand,bHand,gHand
3,0,-0.01678015,-0.9990031,0.3567124,-1.470031,-0.7609269,-2.838859,-0.9971583,0.03604406,0,0,5.212121,-0.1772867,0.1137101,-0.01338132,-0.5618247,-0.6768882,0.1527682,-0.03740396,0.0172228,-0.08841202,-0.8290117,3.897903,0.1003303,-0.7034984,1.149813,-0.3157673,309.7491,225.7003,348.7856
3,0.01111111,-0.01086857,-0.9409304,0.3143818,-1.469556,-0.7520761,-2.839982,-0.99783,-0.06167904,0,0,5.212121,-0.1849058,0.1159683,-0.03033775,-0.5625214,-0.6741052,0.1526993,-0.04497963,0.02350242,-0.09155081,-0.8300716,3.89868,0.1005559,-0.7018015,1.149783,-0.3179138,309.8931,225.5629,348.4918
3,0.02222222,-0.02943605,-0.8634738,0.2964369,-1.470032,-0.7442949,-2.839566,-0.9995925,-0.1605739,0,0,3.515152,-0.1913958,0.1395521,-0.05252499,-0.5634828,-0.6693605,0.1510236,-0.05997105,0.03616654,-0.08930963,-0.8308994,3.899938,0.1007703,-0.6993123,1.149655,-0.3207445,310.0306,225.1738,348.1905
3,0.03333334,-0.05425831,-0.8137614,0.2767615,-1.470169,-0.7364131,-2.838912,-0.9987546,0.07788598,0,0,3.515152,-0.1967824,0.1524297,-0.06519419,-0.5643531,-0.6650664,0.149786,-0.06941169,0.04474795,-0.0764638,-0.8312882,3.900982,0.1010318,-0.6961649,1.14939,-0.3240414,310.0523,224.4733,347.9008
3,0.04444445,-0.1062564,-0.6900815,0.2221785,-1.469602,-0.7236618,-2.836212,-0.9971418,0.1466632,0,0,3.515152,-0.2009517,0.1374499,-0.04711933,-0.5644442,-0.6601715,0.1503735,-0.0789108,0.0511485,-0.06784935,-0.8323209,3.902872,0.1017844,-0.6926679,1.148993,-0.3274512,310.1234,223.6457,347.4394
3,0.05555556,-0.1323091,-0.6074048,0.1978279,-1.469811,-0.7196282,-2.834238,-0.9951195,0.18373,0,0,3.515152,-0.1955811,0.1149739,-0.03023447,-0.5639195,-0.6592778,0.15163,-0.08464096,0.0594046,-0.08595654,-0.8338293,3.904459,0.1018292,-0.6892433,1.148545,-0.3309381,310.3792,222.9397,347.0203
3,0.06666667,-0.1571735,-0.5492719,0.1727755,-1.469998,-0.7148798,-2.832283,-0.9960734,-0.08844455,0,0,5.69697,-0.1912888,0.09891185,-0.01864529,-0.5636703,-0.6584809,0.1528684,-0.08911909,0.05170242,-0.102829,-0.8354448,3.905063,0.10243,-0.6860048,1.148187,-0.3347246,310.7342,222.0412,346.9448
3,0.07777778,-0.1961391,-0.4690391,0.1282788,-1.46909,-0.7129043,-2.828699,-0.9963509,-0.02422805,0,0,5.69697,-0.1689319,0.05072242,0.005388342,-0.5629166,-0.6612474,0.1561619,-0.0848318,0.02816877,-0.1143412,-0.8371631,3.904611,0.1035224,-0.6831833,1.148236,-0.338188,310.9258,221.2294,346.4954
3,0.08888889,-0.2231167,-0.4269837,0.09384659,-1.468302,-0.7099865,-2.825758,-0.996525,-0.01564444,0,0,5.69697,-0.1528621,0.02709344,0.02746396,-0.5620729,-0.6621918,0.1581699,-0.0815213,0.006824903,-0.1194683,-0.8386827,3.903809,0.1048281,-0.6811708,1.148772,-0.3409935,310.9292,220.7188,345.8698
3,0.1,-0.2579214,-0.3587984,0.0239026,-1.465551,-0.7091646,-2.821679,-0.9954161,0.1016849,0,0,5.69697,-0.1229228,-0.01158317,0.05892242,-0.5604655,-0.665753,0.1613718,-0.0707528,-0.02194655,-0.1289002,-0.8406017,3.902268,0.106229,-0.6801019,1.149744,-0.3429918,310.738,220.3651,345.5043
3,0.1111111,-0.2732345,-0.3188867,-0.01488508,-1.463364,-0.7077622,-2.818256,-0.9960979,-0.06303369,0,0,5.69697,-0.1058568,-0.05761503,0.0861958,-0.559202,-0.6702026,0.1658017,-0.06652568,-0.05088294,-0.1467343,-0.842923,3.900572,0.1079904,-0.680115,1.151092,-0.3442443,310.5204,220.1516,345.4608
3,0.1222222,-0.293034,-0.2579831,-0.07630253,-1.460212,-0.7080999,-2.814296,-0.9955381,0.05202358,0,0,10.42424,-0.1004367,-0.07798725,0.106279,-0.5576212,-0.6736019,0.1696532,-0.06864771,-0.07449199,-0.1591978,-0.8453001,3.898652,0.1101057,-0.6811187,1.152744,-0.3449093,310.2345,220.0035,345.7614
3,0.1333333,-0.3072924,-0.2062656,-0.1088595,-1.45775,-0.7087087,-2.81029,-0.9963226,-0.07202914,0,0,10.42424,-0.1056242,-0.08549897,0.1233331,-0.5559892,-0.6763119,0.173236,-0.0664259,-0.07976684,-0.1570444,-0.8470306,3.897661,0.1114157,-0.6829915,1.154649,-0.3451041,309.9204,219.8748,346.2692
3,0.1444445,-0.3252503,-0.1417878,-0.2214737,-1.451572,-0.7114944,-2.806296,-0.9963014,0.002778493,0,0,10.42424,-0.09884399,-0.09213787,0.1647703,-0.5529969,-0.6797218,0.1769758,-0.05986135,-0.08387503,-0.1496519,-0.8485289,3.896444,0.1126413,-0.6854243,1.156742,-0.3449642,309.5059,219.847,346.9042
3,0.1555556,-0.3247252,-0.1053391,-0.2859084,-1.446102,-0.7133229,-2.802586,-0.9964787,-0.01614591,0,0,10.42424,-0.07723513,-0.1084112,0.2028176,-0.5497116,-0.6837512,0.1804286,-0.05331449,-0.09978375,-0.149574,-0.8503415,3.894566,0.1142198,-0.6881446,1.158937,-0.3446088,309.0611,219.8882,347.538
3,0.1666667,-0.3250484,-0.08989387,-0.3276691,-1.441177,-0.7145836,-2.798739,-0.9969479,-0.04261401,0,0,10.90909,-0.05561139,-0.1225421,0.2281501,-0.5456945,-0.6893092,0.18287,-0.04817533,-0.12667,-0.1749128,-0.853534,3.89173,0.1164196,-0.6908984,1.161205,-0.3441057,308.6679,219.8955,348.1288
3,0.1777778,-0.3116139,-0.06816584,-0.3813051,-1.435207,-0.7167792,-2.795456,-0.9973155,-0.03320148,0,0,10.90909,-0.008739054,-0.1452864,0.2402631,-0.5442324,-0.6961918,0.1871635,-0.04733977,-0.1686301,-0.2106538,-0.8576977,3.887871,0.1194974,-0.6936173,1.163535,-0.3433494,308.3127,219.5869,348.7952
3,0.1888889,-0.2907764,-0.01858985,-0.4257696,-1.429715,-0.7203329,-2.792547,-0.997251,0.006179397,0,0,10.90909,0.001920968,-0.1528279,0.244389,-0.5416742,-0.7011336,0.190975,-0.04734883,-0.1772208,-0.2169467,-0.8604823,3.885442,0.1214654,-0.6963341,1.165781,-0.3424817,307.9426,219.2774,349.465
3,0.2,-0.2826076,0.03012252,-0.4509614,-1.424787,-0.7245204,-2.789092,-0.9979999,-0.06849908,0,0,10.90909,0.02323043,-0.1540157,0.2452306,-0.5392427,-0.7055705,0.1936978,-0.042052,-0.1932747,-0.227502,-0.8637883,3.882295,0.1237851,-0.6989019,1.167914,-0.3415743,307.6282,219.0534,350.1052
3,0.2111111,-0.2683121,0.1148621,-0.4947885,-1.419571,-0.7316225,-2.785429,-0.9986641,-0.06012405,0,0,10.90909,0.03722477,-0.1520499,0.2525216,-0.5371143,-0.7107524,0.1965621,-0.03853871,-0.2101855,-0.2188369,-0.8662736,3.878785,0.126387,-0.70127,1.169905,-0.3406086,307.354,218.7541,350.7237
3,0.2222222,-0.241236,0.2060539,-0.5376928,-1.414546,-0.7399976,-2.782739,-0.998247,0.03862322,0,0,10.54545,0.0587239,-0.1565375,0.2735856,-0.5337082,-0.7159216,0.1995874,-0.03183798,-0.2184905,-0.2060685,-0.8684398,3.875486,0.1286307,-0.7035094,1.171692,-0.3395619,307.1092,218.499,351.2081
3,0.2333333,-0.2213997,0.2568515,-0.5704395,-1.40907,-0.7474055,-2.779927,-0.9983887,-0.01334742,0,0,10.54545,0.0887033,-0.168529,0.2945243,-0.530156,-0.7220266,0.2027198,-0.01532382,-0.2383408,-0.1880279,-0.8703818,3.871438,0.1306952,-0.7056655,1.173355,-0.3383498,307.0281,218.3687,351.535
3,0.2444444,-0.1966415,0.33474,-0.6515121,-1.401844,-0.7574168,-2.777156,-0.9995339,-0.1045845,0,0,10.54545,0.1473639,-0.2052305,0.3182352,-0.5266017,-0.7317387,0.2070019,0.0118224,-0.2656093,-0.1743256,-0.8723184,3.866478,0.1327509,-0.7078888,1.175065,-0.3368387,307.0706,218.2572,351.7938
3,0.2555556,-0.1939961,0.3840759,-0.7086421,-1.394679,-0.7668167,-2.773476,-0.9992857,0.02351381,0,0,10.54545,0.2090629,-0.2578747,0.3375728,-0.5231966,-0.7431561,0.2121482,0.04309538,-0.3057954,-0.1754541,-0.8749198,3.860536,0.1349293,-0.7104222,1.176784,-0.334938,306.9797,218.143,352.0847
3,0.2666667,-0.1911221,0.4134445,-0.7442098,-1.387596,-0.7753319,-2.770226,-0.9995776,-0.02721844,0,0,13.81818,0.2728016,-0.3201153,0.3514644,-0.5201105,-0.7566914,0.2183965,0.07203487,-0.3439856,-0.1872427,-0.8781928,3.854472,0.1369983,-0.7132673,1.178524,-0.3325295,306.8344,218.0155,352.5247
3,0.2777778,-0.1851795,0.458716,-0.787455,-1.380337,-0.7857396,-2.766468,-0.9985213,0.09672056,0,0,13.81818,0.3408674,-0.3727849,0.370748,-0.5172956,-0.7706022,0.224411,0.09873131,-0.3865749,-0.2074467,-0.8820426,3.847457,0.1394005,-0.71647,1.180334,-0.3293958,306.6952,217.8267,353.0977
3,0.2888889,-0.1760307,0.5136811,-0.8233957,-1.373361,-0.7969115,-2.762777,-0.9986327,-0.01113707,0,0,13.81818,0.3942183,-0.4158237,0.4030218,-0.5131698,-0.7841848,0.230017,0.1160063,-0.4162804,-0.2105763,-0.8851357,3.840595,0.1419273,-0.7201347,1.182218,-0.3256723,306.6443,217.7821,353.8163
3,0.3,-0.1572821,0.5622561,-0.8614421,-1.365974,-0.808427,-2.75947,-0.9984894,0.01325724,0,0,13.81818,0.4265807,-0.4354318,0.4526621,-0.5078036,-0.7985404,0.2366275,0.1527081,-0.4820831,-0.2200216,-0.8890585,3.831147,0.1448211,-0.7241325,1.184224,-0.3215389,306.6207,217.8381,354.7167
3,0.3111111,-0.1523,0.5948528,-0.8959921,-1.358452,-0.820211,-2.755546,-0.9986902,-0.01846976,0,0,13.81818,0.4492957,-0.4442741,0.4907373,-0.5024021,-0.8124756,0.243019,0.1764652,-0.526656,-0.2252239,-0.8926405,3.822466,0.1476307,-0.7283059,1.186437,-0.3170545,306.5906,217.976,355.626
3,0.3222222,-0.1464819,0.6440971,-0.9606012,-1.349639,-0.8335081,-2.75158,-0.9991531,-0.042197,0,0,12.9697,0.4816152,-0.4734749,0.5413945,-0.4962726,-0.8292269,0.2512772,0.2152294,-0.5839046,-0.2337433,-0.8967774,3.812043,0.1503277,-0.732524,1.188902,-0.3123061,306.5089,218.1714,356.5154
3,0.3333333,-0.146711,0.669382,-0.9822422,-1.342023,-0.8460522,-2.747061,-0.9986103,0.04984467,0,0,12.9697,0.5094345,-0.5003968,0.5676061,-0.4908946,-0.8465102,0.2598231,0.2356142,-0.6232645,-0.2464328,-0.9011743,3.802396,0.1530814,-0.7366732,1.191589,-0.3073515,306.3382,218.2971,357.4316
3,0.3444445,-0.1587509,0.7073066,-1.011431,-1.334217,-0.8596119,-2.74186,-0.9988217,-0.01989912,0,0,12.9697,0.5577878,-0.5393282,0.6287028,-0.4838191,-0.8673431,0.2701223,0.2570909,-0.6883522,-0.2726696,-0.9067445,3.790399,0.1568109,-0.7407484,1.19444,-0.3022798,306.1458,218.3483,358.3391
3,0.3555556,-0.1707778,0.7442183,-1.036357,-1.326523,-0.8738481,-2.735963,-0.9981629,0.06039114,0,0,12.9697,0.6506467,-0.5954751,0.6754068,-0.4773226,-0.8901494,0.2797997,0.2968998,-0.7509298,-0.2833017,-0.9118333,3.778135,0.1597279,-0.7446317,1.197504,-0.2969407,305.9538,218.3118,359.2466
3,0.3666667,-0.174124,0.7674619,-1.050484,-1.319056,-0.8875155,-2.730915,-0.9977075,0.04114139,0,0,16.48485,0.6846986,-0.6287429,0.6908751,-0.471967,-0.9109609,0.2896185,0.3248177,-0.8094712,-0.3022888,-0.9175506,3.765321,0.1629961,-0.7483885,1.200721,-0.2914715,305.7611,218.3765,0.1187878
3,0.3777778,-0.1935952,0.7861074,-1.084706,-1.310675,-0.9020446,-2.724176,-0.9972665,0.04004255,0,0,16.48485,0.7455964,-0.6612189,0.7252431,-0.4654897,-0.9352271,0.3006855,0.3474139,-0.8670034,-0.32118,-0.9237409,3.751575,0.1666042,-0.7520424,1.204071,-0.2859496,305.5691,218.477,0.9796962
3,0.3888889,-0.2021961,0.7750932,-1.107962,-1.301857,-0.9152858,-2.718211,-0.9980868,-0.07522733,0,0,16.48485,0.8029926,-0.68075,0.7256305,-0.460395,-0.9585431,0.3106966,0.3746625,-0.9134845,-0.313718,-0.9289244,3.737856,0.1697052,-0.7555688,1.207599,-0.2803766,305.3885,218.5681,1.831873
3,0.4,-0.212927,0.7544414,-1.135311,-1.292907,-0.9280152,-2.712083,-0.9968697,0.1119377,0,0,16.48485,0.8275601,-0.6980122,0.7412721,-0.4546809,-0.9826148,0.3222556,0.4010201,-0.963098,-0.296545,-0.933618,3.722973,0.1731697,-0.7590147,1.211219,-0.2748105,305.1105,218.557,2.752662
3,0.4111111,-0.2150573,0.7351395,-1.144641,-1.284259,-0.940759,-2.705787,-0.9973639,-0.04619941,0,0,16.48485,0.867287,-0.7005258,0.7728155,-0.447949,-1.00674,0.3329439,0.4301982,-0.9871526,-0.2830013,-0.9382796,3.709592,0.1755345,-0.7622752,1.214974,-0.2691424,304.8608,218.4655,3.712774
3,0.4222222,-0.2107589,0.7318569,-1.141505,-1.275749,-0.9530036,-2.700195,-0.9973405,0.002635896,0,0,21.81818,0.8831866,-0.7113008,0.7769053,-0.4424347,-1.031645,0.3455976,0.4604729,-1.025161,-0.278825,-0.9433833,3.694773,0.1780936,-0.7653949,1.218814,-0.2634411,304.5983,218.2456,4.808897
3,0.4333333,-0.2031654,0.7429206,-1.112932,-1.269379,-0.9661943,-2.694484,-0.9973565,-0.001466188,0,0,21.81818,0.9036864,-0.7084149,0.8076481,-0.4357102,-1.057235,0.3584186,0.4789844,-1.04935,-0.2704322,-0.9483336,3.68047,0.1805764,-0.768343,1.222667,-0.2577474,304.3105,217.9892,5.958619
3,0.4444444,-0.209444,0.76015,-1.085502,-1.262803,-0.9790131,-2.688254,-0.9980851,-0.06648327,0,0,21.81818,0.9462262,-0.7150285,0.8039887,-0.430264,-1.082939,0.3695093,0.5052727,-1.088291,-0.2512595,-0.9527895,3.664479,0.1832574,-0.7709897,1.226527,-0.2520371,304.0305,217.761,7.072485
3,0.4555556,-0.2285166,0.7699535,-1.064207,-1.256914,-0.9924696,-2.680999,-0.9984127,-0.02938316,0,0,21.81818,0.9530606,-0.7404444,0.7633706,-0.4271865,-1.109652,0.3834188,0.5044897,-1.112758,-0.2532326,-0.9581984,3.649477,0.1863965,-0.7733369,1.230317,-0.2463565,303.752,217.5938,8.10428
3,0.4666667,-0.2455037,0.7634907,-1.060846,-1.249947,-1.005474,-2.673641,-0.9978795,0.04908155,0,0,24.24242,0.9614401,-0.7586658,0.7631921,-0.4227955,-1.138635,0.3990134,0.499193,-1.138522,-0.2656279,-0.9641905,3.633829,0.1900139,-0.7753636,1.234001,-0.240761,303.4847,217.6315,8.953145
3,0.4777778,-0.2710521,0.7644685,-1.059642,-1.243311,-1.019172,-2.665425,-0.9970758,0.07295242,0,0,24.24242,0.969842,-0.7778827,0.7619429,-0.4188034,-1.167929,0.4145716,0.554238,-1.207171,-0.26813,-0.9704127,3.615623,0.1920611,-0.7770557,1.237564,-0.235272,303.2696,217.6744,9.746891
3,0.4888889,-0.2849873,0.7847652,-1.052382,-1.237472,-1.033982,-2.656638,-0.9969277,0.01300678,0,0,24.24242,0.9908508,-0.8014625,0.7531231,-0.4153722,-1.198554,0.4310688,0.5770261,-1.231302,-0.2620703,-0.9759431,3.599249,0.1940632,-0.778581,1.241016,-0.2300334,303.1136,217.7308,10.53556
3,0.5,-0.3053087,0.8532728,-1.022252,-1.234085,-1.050052,-2.647526,-0.9965016,0.03890754,0,0,24.24242,1.003051,-0.8193951,0.7049664,-0.4139293,-1.226698,0.4452512,0.5823487,-1.221604,-0.2569444,-0.9810926,3.584308,0.1957786,-0.7799586,1.244396,-0.2250962,302.9725,217.6383,11.44525
3,0.5111111,-0.3085134,0.8855419,-0.9992296,-1.23017,-1.065668,-2.638716,-0.9965016,-0.0001121347,0,0,24.24242,1.011251,-0.8288951,0.6771237,-0.4121966,-1.255062,0.4597093,0.5912102,-1.208423,-0.225286,-0.9849403,3.569487,0.19734,-0.7811013,1.24784,-0.2203442,302.8468,217.5111,12.24296
3,0.5222223,-0.3095289,0.9189854,-0.9676815,-1.227344,-1.081004,-2.63022,-0.9968367,-0.03039397,0,0,29.69697,1.006715,-0.8265913,0.6484162,-0.4108363,-1.282232,0.4735212,0.6063764,-1.186676,-0.1991574,-0.9885787,3.555161,0.1979413,-0.7821732,1.25147,-0.2156701,302.6786,217.4861,12.79629
3,0.5333334,-0.3105633,0.9213209,-0.951737,-1.223712,-1.095771,-2.621446,-0.997234,-0.03573596,0,0,29.69697,0.9811274,-0.8104479,0.6402571,-0.4085348,-1.309089,0.4885092,0.6130025,-1.179969,-0.183743,-0.9929106,3.540838,0.1988471,-0.7833742,1.255306,-0.2110424,302.3611,217.674,13.21852
3,0.5444446,-0.3040173,0.9130646,-0.9335344,-1.22039,-1.109351,-2.613883,-0.9976255,-0.03566212,0,0,29.69697,0.9556737,-0.7869115,0.6427861,-0.4059424,-1.335132,0.5030866,0.6151828,-1.192722,-0.1763114,-0.9973368,3.525821,0.2005528,-0.7845809,1.259391,-0.2063539,301.9848,217.8237,13.79595
3,0.5555557,-0.2909324,0.8825535,-0.9108223,-1.216779,-1.122285,-2.606912,-0.9973176,0.02854352,0,0,29.69697,0.9347144,-0.7656016,0.6654787,-0.4026545,-1.362235,0.5185094,0.6230996,-1.222371,-0.1665391,-1.001689,3.509387,0.2023475,-0.7856963,1.263658,-0.2015813,301.5171,217.8872,14.55981
3,0.5666668,-0.2831543,0.8681688,-0.8765515,-1.214227,-1.135304,-2.599812,-0.9981725,-0.07850088,0,0,26.78788,0.9306619,-0.7550168,0.6826637,-0.3995072,-1.39088,0.5348104,0.6269642,-1.245253,-0.1733925,-1.007459,3.494944,0.20278,-0.7866828,1.268007,-0.1967703,301.024,217.8513,15.48715
3,0.577778,-0.2764486,0.864604,-0.8253781,-1.212994,-1.147743,-2.592676,-0.9986806,-0.04575145,0,0,26.78788,0.9059191,-0.7600921,0.661576,-0.3982262,-1.418468,0.5510504,0.6340683,-1.258222,-0.2010972,-1.013495,3.479117,0.2039236,-0.7876406,1.272242,-0.1921237,300.5104,217.7879,16.52495
3,0.5888891,-0.2783263,0.8424954,-0.8069538,-1.210454,-1.160201,-2.585385,-0.9985986,0.007782627,0,0,26.78788,0.8878109,-0.7600305,0.6606586,-0.3966928,-1.447277,0.5682563,0.6311897,-1.236155,-0.2310891,-1.019607,3.465157,0.2043646,-0.788425,1.276239,-0.1877231,300.0363,217.719,17.55354
3,0.6000003,-0.3494034,0.7751114,-0.8045884,-1.206307,-1.171047,-2.575198,-0.9983045,0.02679243,0,0,26.78788,0.8621001,-0.7555336,0.6438922,-0.3956499,-1.474226,0.5844789,0.6116037,-1.195783,-0.2464126,-1.025171,3.452835,0.2045321,-0.7888593,1.279922,-0.1835824,299.6117,217.791,18.34285
3,0.6111114,-0.3947394,0.6942042,-0.7872759,-1.202319,-1.180644,-2.566092,-0.9981075,0.01781044,0,0,26.78788,0.8233888,-0.746592,0.6016845,-0.3956946,-1.499296,0.5995561,0.5975761,-1.145632,-0.2330295,-1.029617,3.440674,0.2046051,-0.7889747,1.283289,-0.1797627,299.2911,217.9743,18.86414
3,0.6222225,-0.4093396,0.6292859,-0.7778031,-1.198135,-1.190054,-2.557678,-0.9947434,0.3073624,0,0,27.39394,0.8029369,-0.7463641,0.5805824,-0.3957356,-1.525517,0.6154845,0.5902049,-1.116752,-0.2107816,-1.033512,3.42793,0.2048267,-0.7889315,1.286325,-0.1762507,299.0633,217.9043,19.4659
3,0.6333337,-0.4077401,0.521897,-0.7636099,-1.192801,-1.196986,-2.55069,-0.9953107,-0.05442761,0,0,27.39394,0.7771904,-0.7611066,0.5722243,-0.3960312,-1.553865,0.6337833,0.5624557,-1.083874,-0.1956525,-1.037415,3.415581,0.2056967,-0.7890159,1.289186,-0.1731795,299.0721,217.7606,20.06716
3,0.6444448,-0.3935401,0.4549954,-0.7510846,-1.187894,-1.204265,-2.544125,-0.9963988,-0.09844381,0,0,27.39394,0.7687296,-0.7578989,0.5765881,-0.3956659,4.70115,0.6512777,0.549458,-1.061596,-0.1937095,-1.042095,3.403228,0.2061609,-0.7890856,1.292139,-0.1704686,299.128,217.5429,20.64063
3,0.655556,-0.3586654,0.3267374,-0.7133712,-1.182211,-1.207789,-2.540174,-0.9972792,-0.07952563,0,0,27.39394,0.7431714,-0.7363842,0.5652379,-0.3955657,4.676159,0.6668651,0.5287031,-1.035295,-0.2074297,-1.046981,3.391796,0.2066706,-0.7889696,1.295339,-0.1680144,299.0906,217.1752,21.33064
3,0.6666671,-0.3465979,0.2652217,-0.6966542,-1.176917,-1.213217,-2.53459,-0.9980393,-0.06892399,0,0,25.81818,0.6889327,-0.7009352,0.5552679,-0.3954416,4.652636,0.6824582,0.5151971,-1.00633,-0.209787,-1.051538,3.38067,0.2060876,-0.788693,1.298734,-0.1657895,298.931,216.4943,22.27563
3,0.6777782,-0.3364753,0.1750868,-0.6678109,-1.171186,-1.216155,-2.530005,-0.9993379,-0.1181284,0,0,25.81818,0.6241916,-0.6397762,0.5445222,-0.3943289,4.632578,0.6960675,0.4945985,-0.9542507,-0.1970832,-1.055042,3.371155,0.2059915,-0.7882303,1.302262,-0.1637337,298.6826,215.6996,23.33226
3,0.6888894,-0.3307522,0.09993368,-0.6316907,-1.165801,-1.219133,-2.524385,-0.9984846,0.07877482,0,0,25.81818,0.588195,-0.5969725,0.540807,-0.3933883,4.611626,0.7097399,0.464988,-0.9072878,-0.1749385,-1.058235,3.36191,0.2058107,-0.7876366,1.305645,-0.1619128,298.3368,214.63,24.66228
3,0.7000005,-0.3227404,0.03556899,-0.5850784,-1.160845,-1.22073,-2.520537,-0.9983616,0.01050767,0,0,25.81818,0.5394118,-0.5358934,0.5277746,-0.3918256,4.59495,0.7209499,0.4241439,-0.8650447,-0.1439821,-1.061139,3.352408,0.2065194,-0.7869524,1.308751,-0.1602516,298.0689,213.674,25.80338
3,0.7111117,-0.3245089,-0.003294811,-0.5440545,-1.156566,-1.222797,-2.515863,-0.9973325,0.09396278,0,0,25.81818,0.5022649,-0.501631,0.5261703,-0.3907635,4.576134,0.7340865,0.4023724,-0.8328322,-0.1205859,-1.062984,3.34447,0.2071532,-0.7861277,1.311545,-0.1587882,297.9717,212.8735,26.79614
3,0.7222228,-0.3153459,-0.06636135,-0.4804152,-1.152449,-1.222175,-2.512906,-0.9984718,-0.1048807,0,0,21.09091,0.4513007,-0.4640191,0.5215579,-0.3891123,4.558995,0.7468862,0.374209,-0.7787559,-0.1109184,-1.065167,3.337179,0.2075577,-0.785228,1.314056,-0.1575427,297.9928,212.2141,27.59645
3,0.7333339,-0.2997723,-0.1443985,-0.4262231,-1.147608,-1.220559,-2.510917,-0.9979759,0.04629647,0,0,21.09091,0.4065711,-0.4156838,0.493485,-0.3879901,4.54446,0.75706,0.3224638,-0.7099014,-0.1194844,-1.068089,3.332133,0.2077234,-0.7845912,1.316232,-0.1566916,297.9928,211.5984,28.3619
3,0.7444451,-0.2997723,-0.1443985,-0.4262231,-1.147608,-1.220559,-2.510917,-0.9985128,-0.04960205,0,0,21.09091,0.4065711,-0.4156838,0.493485,-0.3879901,4.54446,0.75706,0.3224638,-0.7099014,-0.1194844,-1.068089,3.332133,0.2077234,-0.7841097,1.318121,-0.1562486,298.0162,211.1694,28.95473
3,0.7555562,-0.2728612,-0.3197826,-0.3239711,-1.136953,-1.212849,-2.508855,-1.001642,-0.2857107,0,0,21.09091,0.2582074,-0.3291831,0.413377,-0.3867283,4.522295,0.7756084,0.2587736,-0.5492129,-0.07639629,-1.070638,3.324513,0.2067572,-0.783701,1.319713,-0.1563168,297.9983,210.7387,29.50734
3,0.7666674,-0.2728612,-0.3197826,-0.3239711,-1.136953,-1.212849,-2.508855,-0.9967828,0.4464889,0,0,21.09091,0.2582074,-0.3291831,0.413377,-0.3867283,4.522295,0.7756084,0.2587736,-0.5492129,-0.07639629,-1.070638,3.324513,0.2067572,-0.7832791,1.320812,-0.1568755,297.8372,210.2426,30.08321
3,0.7777785,-0.2623877,-0.4220759,-0.2470733,-1.13217,-1.205885,-2.509274,-1.001064,-0.3955511,0,0,21.09091,0.1814863,-0.2753242,0.3803285,-0.3856502,4.513392,0.784062,0.2328605,-0.4982529,-0.06682422,-1.071976,3.320473,0.2066696,-0.7823566,1.321628,-0.1579315,298.3012,209.6023,30.57955
3,0.7888896,-0.2532874,-0.599027,-0.09357235,-1.12331,-1.188289,-2.511587,-0.9985496,0.2335873,0,0,19.87879,0.0539178,-0.1657299,0.3438565,-0.3816991,4.499538,0.7990543,0.1548711,-0.3800251,-0.06041203,-1.07339,3.31335,0.2083007,-0.7814741,1.322167,-0.1592877,298.4009,208.9017,30.76869
3,0.8000008,-0.2532874,-0.599027,-0.09357235,-1.12331,-1.188289,-2.511587,-0.9958214,0.2469925,0,0,19.87879,0.0539178,-0.1657299,0.3438565,-0.3816991,4.499538,0.7990543,0.1548711,-0.3800251,-0.06041203,-1.07339,3.31335,0.2083007,-0.7801514,1.322505,-0.1608033,298.647,208.4116,30.99023
3,0.8111119,-0.3187169,-0.7102023,0.0412029,-1.115538,-1.170011,-2.511366,-1.00079,-0.4564067,0,0,19.87879,-0.1222364,-0.05332496,0.2418545,-0.3787058,4.498518,0.8075597,0.07331096,-0.2077118,-0.08669403,-1.076003,3.313112,0.2093399,-0.778425,1.322715,-0.1630207,299.2615,207.777,31.4164
3,0.8222231,-0.3187169,-0.7102023,0.0412029,-1.115538,-1.170011,-2.511366,-0.9947258,0.5585175,0,0,19.87879,-0.1222364,-0.05332496,0.2418545,-0.3787058,4.498518,0.8075597,0.07331096,-0.2077118,-0.08669403,-1.076003,3.313112,0.2093399,-0.7769331,1.322811,-0.1657023,299.3881,207.067,31.5563
3,0.8333342,-0.3453044,-0.7525471,0.09216949,-1.112354,-1.158474,-2.511413,-1.000666,-0.5481602,0,0,19.87879,-0.1786749,-0.02628297,0.2287275,-0.3767989,4.495625,0.8142471,0.04427039,-0.1315184,-0.1101622,-1.077762,3.314977,0.2089964,-0.7756279,1.322808,-0.1692127,299.7663,206.4581,31.62223
3,0.8444453,-0.3764731,-0.8304883,0.1721944,-1.109166,-1.144789,-2.512218,-0.9973341,0.3098133,0,0,19.87879,-0.2504863,-0.007459775,0.1762736,-0.3764543,4.496174,0.8188038,0.01008658,-0.07152422,-0.135543,-1.079833,3.315446,0.2094728,-0.7744132,1.322852,-0.1727384,299.798,205.3902,31.59476
3,0.8555565,-0.3919058,-0.892755,0.2231391,-1.105475,-1.131345,-2.513453,-0.9959088,0.1271572,0,0,19.87879,-0.2817981,-0.008111119,0.1360963,-0.3765475,4.495406,0.8234355,-0.01549749,0.001472294,-0.14629,-1.081097,3.317336,0.2095854,-0.7733547,1.322919,-0.1761373,299.8551,204.551,31.59138
3,0.8666676,-0.4283264,-1.025133,0.2932104,-1.100647,-1.11373,-2.515666,-0.9957799,0.01101985,0,0,19.87879,-0.3913219,0.005852312,0.043531,-0.3779643,4.501358,0.8257682,-0.04493359,0.08758395,-0.1208913,-1.080826,3.321683,0.2089876,-0.7725648,1.323007,-0.1797048,300.0466,203.9028,31.78551
3,0.8777788,-0.4427217,-1.093008,0.3239649,-1.096043,-1.097676,-2.517765,-0.9965213,-0.06757653,0,0,19.87879,-0.4500731,0.04156592,0.007043272,-0.3774056,4.50593,0.828176,-0.07209706,0.1459098,-0.1081036,-1.081001,3.325335,0.2085905,-0.7718162,1.323129,-0.183667,300.303,203.3055,32.07406
3,0.8888899,-0.4761279,-1.180852,0.3806874,-1.09161,-1.078973,-2.519869,-0.9958848,0.05905518,0,0,21.57576,-0.5377397,0.09357065,-0.05356352,-0.3771617,4.516226,0.8274924,-0.1036566,0.2159258,-0.09426861,-1.080511,3.330869,0.2082469,-0.7709273,1.323284,-0.1881093,300.5453,202.4796,32.47383
3,0.900001,-0.5106763,-1.23661,0.4465852,-1.088334,-1.059989,-2.521814,-0.9965442,-0.06070399,0,0,21.57576,-0.5983701,0.1387897,-0.07079343,-0.3760394,4.524259,0.828393,-0.1333365,0.2771867,-0.1103453,-1.081318,3.335792,0.208652,-0.7700685,1.323326,-0.1932862,300.7579,201.3136,33.0079
3,0.9111122,-0.5484717,-1.262401,0.5248979,-1.086495,-1.041014,-2.523221,-0.9955876,0.08816452,0,0,21.57576,-0.687882,0.1949267,-0.1057831,-0.3745848,4.536825,0.8275512,-0.1662935,0.3481023,-0.1189001,-1.081642,3.343127,0.208175,-0.7689981,1.323205,-0.1989999,300.9016,199.9055,33.48675
3,0.9222233,-0.5852481,-1.29259,0.5915516,-1.084696,-1.021296,-2.524769,-0.9953895,0.01742067,0,0,21.57576,-0.759523,0.2275884,-0.1506694,-0.3742354,4.54994,0.8259549,-0.2078679,0.4305457,-0.1361093,-1.082093,3.350624,0.208664,-0.7678121,1.322863,-0.2052921,301.0569,198.5907,33.75578
3,0.9333345,-0.6083602,-1.324218,0.6251197,-1.082177,-1.001505,-2.526523,-0.995128,0.02396983,0,0,23.87879,-0.8332733,0.2442231,-0.1839134,-0.3742194,4.562401,0.8258162,-0.23003,0.4877225,-0.1479487,-1.082587,3.359286,0.2079165,-0.7664934,1.322328,-0.212108,301.2347,197.443,33.7611
3,0.9444456,-0.6376749,-1.379101,0.6749862,-1.079746,-0.9795873,-2.528824,-0.9952057,-0.007112524,0,0,23.87879,-0.9136028,0.2513689,-0.2299308,-0.374735,4.576271,0.8258116,-0.2619472,0.550056,-0.1553123,-1.082867,3.368434,0.2068174,-0.7650626,1.321693,-0.2194117,301.4294,196.4563,33.55396
3,0.9555568,-0.6703045,-1.421313,0.7172108,-1.077402,-0.9577292,-2.530626,-0.9956909,-0.04391668,0,0,23.87879,-0.9895917,0.2766452,-0.2790946,-0.3752714,4.592992,0.8234769,-0.29908,0.6004704,-0.1755332,-1.08356,3.376941,0.2069505,-0.7634965,1.321036,-0.2270866,301.6485,195.3573,33.35502
3,0.9666679,-0.7221517,-1.436868,0.767737,-1.076179,-0.936368,-2.531341,-0.995561,0.01257355,0,0,23.87879,-1.03874,0.2973369,-0.3051066,-0.3752485,4.608785,0.8218491,-0.3352458,0.661687,-0.1925218,-1.084261,3.387848,0.2067076,-0.7617431,1.320444,-0.2349334,301.8883,194.0723,33.24866
3,0.977779,-0.7560893,-1.435504,0.8029904,-1.075325,-0.9154505,-2.531455,-0.995324,0.02166608,0,0,23.87879,-1.124228,0.3300897,-0.3498629,-0.3755025,4.628106,0.8190003,-0.3716347,0.7409106,-0.2076305,-1.084636,3.39925,0.2061494,-0.7599559,1.319912,-0.2429922,302.0958,192.753,33.22349
3,0.9888902,-0.8411707,-1.399011,0.8519822,-1.075967,-0.8952141,-2.528944,-0.9947594,0.05165733,0,0,23.51515,-1.189184,0.3700216,-0.3702732,-0.374874,4.648005,0.8159878,-0.3991566,0.8022948,-0.2162378,-1.085032,3.412037,0.2055364,-0.7581277,1.319468,-0.2512351,302.2687,191.4811,33.20049
3,1.000001,-0.9016849,-1.365468,0.9115713,-1.077704,-0.8744713,-2.526716,-0.9946704,0.007869713,0,0,23.51515,-1.237026,0.401263,-0.3791826,-0.3740282,4.666731,0.8134948,-0.4409854,0.8922015,-0.2226695,-1.085134,3.426438,0.2045736,-0.7562277,1.319188,-0.2596009,302.4035,190.3153,33.06968
3,1.011112,-0.9333684,-1.363966,0.9564809,-1.0788,-0.8527879,-2.525885,-0.9928376,0.1679171,0,0,23.51515,-1.290143,0.4325008,-0.382718,-0.3727808,4.686689,0.8110667,-0.4706648,0.9535465,-0.2323052,-1.085396,3.441049,0.203943,-0.7541887,1.319169,-0.2679477,302.4789,189.1216,32.91961
3,1.022224,-0.9565797,-1.387211,0.9792851,-1.078826,-0.83038,-2.525236,-0.993259,-0.03969157,0,0,23.51515,-1.32622,0.4358786,-0.3706111,-0.3719797,4.703402,0.8111962,-0.4937333,0.9904217,-0.2493168,-1.086242,3.454901,0.2036032,-0.7524116,1.319459,-0.2765552,302.4631,188.0698,32.69463
3,1.033335,-0.974565,-1.412756,0.9881548,-1.078235,-0.8081256,-2.524546,-0.9948563,-0.1451867,0,0,24.12121,-1.351837,0.4275106,-0.3704016,-0.3715552,-1.563276,0.8116519,-0.5080432,1.009303,-0.2641705,-1.08721,3.468706,0.2032743,-0.7507457,1.320129,-0.2854324,302.3528,187.01,32.59843
3,1.044446,-1.012686,-1.45757,0.9953308,-1.077192,-0.7844954,-2.523384,-0.995316,-0.040298,0,0,24.12121,-1.415004,0.3917463,-0.3806486,-0.3725885,-1.548297,0.8152876,-0.5277339,1.040103,-0.2819277,-1.088974,3.485085,0.2029624,-0.7489237,1.321102,-0.2944594,302.1724,185.6389,32.83105
3,1.055557,-1.059448,-1.484384,0.9979872,-1.07607,-0.7615149,-2.521302,-0.9957154,-0.03593184,0,0,24.12121,-1.443775,0.3866082,-0.3793347,-0.3723691,-1.532007,0.8169135,-0.5517216,1.067436,-0.298758,-1.090135,3.50005,0.2032298,-0.7467924,1.322261,-0.303528,301.9978,183.9911,33.25125
3,1.066668,-1.097703,-1.503669,1.001648,-1.075058,-0.737954,-2.518959,-0.9949378,0.07160717,0,0,24.12121,-1.48757,0.3794602,-0.3863919,-0.3725959,-1.515558,0.8196073,-0.5727715,1.103219,-0.3232207,-1.091739,3.51585,0.2029992,-0.7442845,1.323489,-0.3124929,301.8245,182.1832,33.72229
3,1.077779,-1.19241,-1.531631,1.018168,-1.072612,-0.6915931,-2.512411,-0.9945767,0.0326018,0,0,21.57576,-1.55505,0.425445,-0.3450009,-0.3692558,-1.481908,0.8244801,-0.5986828,1.144089,-0.3761991,-1.095933,3.547391,0.2023347,-0.741556,1.324693,-0.3214989,301.7093,180.4536,34.09847
3,1.08889,-1.19241,-1.531631,1.018168,-1.072612,-0.6915931,-2.512411,-0.9804454,1.2918,0,0,21.57576,-1.55505,0.425445,-0.3450009,-0.3692558,-1.481908,0.8244801,-0.5986828,1.144089,-0.3761991,-1.095933,3.547391,0.2023347,-0.7391383,1.32566,-0.3313587,301.607,178.8883,34.58976
3,1.100002,-1.242461,-1.558648,1.005922,-1.069294,-0.644648,-2.506115,-1.007644,-2.497284,0,0,21.57576,-1.604775,0.439467,-0.3199154,-0.3660659,-1.449472,0.8309598,-0.6150269,1.184454,-0.3676917,-1.098362,3.579276,0.2019936,-0.7365789,1.326643,-0.3434192,302.1418,178.1947,34.35953
3,1.111113,-1.257348,-1.59068,1.002126,-1.067022,-0.6200585,-2.50331,-0.9825195,2.319791,0,0,21.57576,-1.623976,0.4289225,-0.3166158,-0.3651614,-1.433965,0.8350909,-0.6226293,1.203607,-0.3591252,-1.098984,3.595511,0.2017949,-0.7319727,1.328164,-0.353221,301.8663,175.2632,34.97766
3,1.122224,-1.269021,-1.613189,0.9990816,-1.064447,-0.5959073,-2.500827,-0.9947386,-1.139249,0,0,21.57576,-1.635878,0.418416,-0.3315277,-0.3651806,-1.417866,0.8382659,-0.6270874,1.213103,-0.3644552,-1.100358,3.611673,0.2016056,-0.7280313,1.329724,-0.3651087,301.9973,174.0209,34.67213
3,1.133335,-1.29048,-1.646413,0.9866633,-1.060933,-0.5713594,-2.497321,-0.996721,-0.1683632,0,0,16.72727,-1.671339,0.4156086,-0.3599534,-0.3651471,-1.399559,0.8405836,-0.6351144,1.234155,-0.3869007,-1.102542,3.628331,0.2013174,-0.7230037,1.331783,-0.3767315,302.0428,171.6099,35.17685
3,1.144446,-1.305341,-1.664755,0.9762316,-1.057757,-0.5468823,-2.49471,-0.9974492,-0.06601726,0,0,16.72727,-1.70532,0.4499319,-0.3679099,-0.3634443,-1.378959,0.8415336,-0.6376163,1.263941,-0.3892554,-1.103866,3.645769,0.2006801,-0.7172308,1.334211,-0.3874227,301.8074,168.6972,35.83737
3,1.155557,-1.320323,-1.677648,0.9689987,-1.054527,-0.5219284,-2.491505,-0.9963685,0.09932972,0,0,16.72727,-1.725265,0.489437,-0.3621428,-0.361065,-1.357995,0.8419352,-0.640783,1.27892,-0.3744006,-1.104531,3.662904,0.2002527,-0.7113395,1.336759,-0.3972182,301.4518,165.7284,36.61229
3,1.166668,-1.341544,-1.663576,0.9681249,-1.04951,-0.4946848,-2.490322,-0.9972414,-0.08057036,0,0,16.72727,-1.747493,0.5001929,-0.3544084,-0.3590948,-1.338718,0.8441067,-0.650134,1.287488,-0.3530349,-1.104679,3.679728,0.2002468,-0.7057523,1.339276,-0.4063281,301.2337,163.0627,37.37971
3,1.17778,-1.341544,-1.663576,0.9681249,-1.04951,-0.4946848,-2.490322,-0.9965943,0.05999298,0,0,16.72727,-1.747493,0.5001929,-0.3544084,-0.3590948,-1.338718,0.8441067,-0.650134,1.287488,-0.3530349,-1.104679,3.679728,0.2002468,-0.7007957,1.341564,-0.4150826,301.0757,160.6512,38.21524
3,1.188891,-1.390322,-1.56714,0.9548972,-1.044283,-0.4494574,-2.479718,-1.011667,-1.378953,0,0,19.15152,-1.787582,0.5109385,-0.3230678,-0.3546388,-1.302324,0.8510035,-0.6614121,1.293147,-0.3303343,-1.106144,3.715805,0.1992156,-0.6960902,1.343757,-0.4227358,301.0474,158.7503,38.63398
3,1.200002,-1.390322,-1.56714,0.9548972,-1.044283,-0.4494574,-2.479718,-0.9819347,2.729265,0,0,19.15152,-1.787582,0.5109385,-0.3230678,-0.3546388,-1.302324,0.8510035,-0.6614121,1.293147,-0.3303343,-1.106144,3.715805,0.1992156,-0.6920409,1.345551,-0.4279605,300.5839,155.8918,40.01872
3,1.211113,-1.434425,-1.489472,0.9499657,-1.043692,-0.4298805,-2.47202,-1.009716,-2.564966,0,0,19.15152,-1.807915,0.4993566,-0.3250642,-0.3531314,-1.284502,0.8551309,-0.6581719,1.313568,-0.3092067,-1.105838,3.733131,0.1986058,-0.6895106,1.346594,-0.4359857,301.0467,155.8328,39.89337
3,1.222224,-1.480711,-1.406728,0.9331891,-1.043011,-0.411363,-2.46344,-0.9963748,1.244405,0,0,19.15152,-1.828107,0.4994814,-0.3217036,-0.351418,-1.266327,0.8587395,-0.6604686,1.317835,-0.3155096,-1.10654,3.75084,0.1984127,-0.6862971,1.347647,-0.4413929,301.1887,154.3704,40.43786
3,1.233335,-1.538972,-1.265525,0.907252,-1.042448,-0.3755323,-2.445694,-0.9935471,0.2453749,0,0,21.21212,-1.823364,0.4688537,-0.3634959,-0.350031,-1.227418,0.8624807,-0.6596125,1.317777,-0.31754,-1.107756,3.784571,0.198311,-0.6837573,1.348597,-0.4474332,301.2804,154.2933,39.95258
3,1.244446,-1.538972,-1.265525,0.907252,-1.042448,-0.3755323,-2.445694,-0.976424,1.564911,0,0,21.21212,-1.823364,0.4688537,-0.3634959,-0.350031,-1.227418,0.8624807,-0.6596125,1.317777,-0.31754,-1.107756,3.784571,0.198311,-0.6816165,1.349673,-0.4557267,301.5483,154.535,39.60915
3,1.255558,-1.568303,-1.192559,0.8711837,-1.041465,-0.3595949,-2.435268,-1.011069,-3.179956,0,0,21.21212,-1.83428,0.4413234,-0.3742442,-0.3498744,-1.209508,0.8664904,-0.6641863,1.316504,-0.3291728,-1.108661,3.801421,0.1986715,-0.6785653,1.351779,-0.4672571,302.427,155.5056,38.5829
3,1.266669,-1.591136,-1.123742,0.8322313,-1.040901,-0.3448181,-2.424333,-0.996998,1.315322,0,0,21.21212,-1.829965,0.4327106,-0.3636859,-0.3487761,-1.192464,0.8709104,-0.6619456,1.318725,-0.3196315,-1.108967,3.818401,0.1984407,-0.673108,1.355186,-0.4748282,302.1912,152.5336,39.75757
3,1.27778,-1.608553,-1.078222,0.8114247,-1.039889,-0.3291566,-2.413528,-0.9943998,0.2230959,0,0,21.21212,-1.806388,0.4024962,-0.3354896,-0.3485737,-1.179745,0.8778868,-0.6584612,1.315654,-0.312342,-1.109434,3.835091,0.1980811,-0.6672855,1.359389,-0.4817216,301.5124,149.8014,40.49667
3,1.288891,-1.648693,-0.9562614,0.7686611,-1.040622,-0.3180294,-2.399296,-0.9947391,-0.03137827,0,0,27.63636,-1.785978,0.3798205,-0.3049311,-0.3473486,-1.167947,0.8860459,-0.6571226,1.298653,-0.307983,-1.109922,3.851045,0.1982737,-0.6616183,1.364264,-0.4891438,300.9287,147.2312,41.50124
3,1.300002,-1.669359,-0.8894835,0.7444754,-1.040584,-0.3053959,-2.386267,-0.9948717,-0.01141878,0,0,27.63636,-1.786043,0.3500144,-0.295525,-0.3468581,-1.155199,0.893931,-0.6577455,1.265683,-0.3085892,-1.110499,3.866137,0.1988276,-0.6561959,1.369639,-0.4971999,300.4269,144.6305,42.90666
3,1.311113,-1.676285,-0.796196,0.7040203,-1.041269,-0.2954628,-2.372452,-0.9941649,0.06499316,0,0,27.63636,-1.80525,0.3234599,-0.2827114,-0.3464144,-1.143585,0.9038854,-0.657512,1.23906,-0.3167344,-1.111471,3.881358,0.1993472,-0.650897,1.375358,-0.5053998,299.9626,142.0584,44.39738
3,1.322224,-1.659859,-0.717956,0.6454579,-1.041012,-0.2864943,-2.359081,-0.9949501,-0.07214716,0,0,27.63636,-1.804986,0.312651,-0.2508106,-0.3448666,-1.133839,0.9145692,-0.6595237,1.218775,-0.3206598,-1.112483,3.896195,0.2000447,-0.6457914,1.38145,-0.5135248,299.5041,139.7015,45.67615
3,1.333336,-1.649544,-0.6630921,0.6054844,-1.040938,-0.2766758,-2.346337,-0.9960057,-0.09550276,0,0,27.63636,-1.781353,0.302009,-0.2222015,-0.3416042,-1.12288,0.9235305,-0.6504829,1.189161,-0.3205362,-1.113261,3.910352,0.2006905,-0.6408519,1.38782,-0.5212371,299.0378,137.2524,47.11313
3,1.344447,-1.639522,-0.5582161,0.5551447,-1.041843,-0.2708978,-2.331753,-0.9972878,-0.1163147,0,0,24,-1.756793,0.272976,-0.1981252,-0.3406987,-1.115847,0.935415,-0.6392357,1.152079,-0.3097654,-1.113947,3.92352,0.2015025,-0.6361649,1.394393,-0.5284807,298.5771,134.7628,48.66206
3,1.355558,-1.627352,-0.4553172,0.5133845,-1.043408,-0.2659017,-2.316584,-0.9977357,-0.03991161,0,0,24,-1.742791,0.260083,-0.169467,-0.3386364,-1.107424,0.9471077,-0.6334291,1.111802,-0.3144246,-1.114675,3.936524,0.202449,-0.6318251,1.401021,-0.535146,298.1424,132.0996,50.46066
3,1.366669,-1.620276,-0.3907269,0.4806434,-1.044567,-0.2604518,-2.30181,-0.9980148,-0.02526818,0,0,24,-1.711011,0.2279134,-0.1633717,-0.337774,-1.101134,0.9592742,-0.6247748,1.093762,-0.3208335,-1.116056,3.949891,0.2032011,-0.6278387,1.40752,-0.5412076,297.6932,129.5384,52.30768
3,1.37778,-1.611227,-0.2911429,0.4390289,-1.046951,-0.2573897,-2.286074,-0.9978667,0.01370013,0,0,24,-1.645935,0.197395,-0.1333952,-0.3373016,-1.0978,0.972392,-0.6051623,1.080392,-0.3142982,-1.116548,3.963557,0.2029395,-0.6243226,1.413909,-0.5470374,297.2935,127.4094,53.821
3,1.388891,-1.607296,-0.2274784,0.4190812,-1.049119,-0.2536059,-2.270551,-0.9980265,-0.01477389,0,0,21.81818,-1.595828,0.1616845,-0.108814,-0.3378028,-1.095376,0.9860446,-0.5930358,1.059289,-0.3036962,-1.11724,3.976194,0.203511,-0.6212797,1.42027,-0.5526465,296.9608,125.6375,55.06762
3,1.400002,-1.579792,-0.04002684,0.318621,-1.054802,-0.2532416,-2.236706,-0.9982865,-0.02356905,0,0,21.81818,-1.527067,0.1290747,-0.03292352,-0.3350922,-1.094812,1.017295,-0.5708106,0.9935573,-0.3047623,-1.119845,3.9995,0.2051819,-0.618628,1.426666,-0.5580993,296.6735,124.0252,56.26174
3,1.411114,-1.576947,0.009510458,0.2808616,-1.057436,-0.252351,-2.219978,-0.9816833,1.51851,0,0,21.81818,-1.484305,0.1286995,-0.01734695,-0.3335801,-1.09322,1.030814,-0.5498773,0.9630796,-0.2866654,-1.120239,4.010713,0.2055798,-0.6164507,1.433351,-0.5642086,296.3649,122.7569,57.1103
3,1.422225,-1.576947,0.009510458,0.2808616,-1.057436,-0.252351,-2.219978,-0.9981389,-1.516945,0,0,21.81818,-1.484305,0.1286995,-0.01734695,-0.3335801,-1.09322,1.030814,-0.5498773,0.9630796,-0.2866654,-1.120239,4.010713,0.2055798,-0.6144167,1.441588,-0.57281,296.1711,123.5497,56.26323
3,1.433336,-1.554409,0.1215017,0.1931303,-1.063206,-0.254962,-2.18478,-1.017135,-1.722436,0,0,24.9697,-1.389194,0.05002391,0.06027852,-0.3322815,-1.104598,1.069441,-0.5253611,0.8653637,-0.3035364,-1.123726,4.030533,0.2077407,-0.6116677,1.450725,-0.5788265,295.9257,121.2467,58.51906
3,1.444447,-1.528224,0.1744294,0.1423615,-1.066493,-0.2578334,-2.167248,-0.984364,3.009149,0,0,24.9697,-1.339278,0.002696991,0.0755426,-0.3329404,-1.11102,1.088832,-0.5090164,0.8068225,-0.331353,-1.127115,4.039979,0.2090462,-0.6088029,1.459055,-0.5808668,295.346,115.2334,63.84666
3,1.455558,-1.528224,0.1744294,0.1423615,-1.066493,-0.2578334,-2.167248,-0.9975658,-1.234363,0,0,24.9697,-1.339278,0.002696991,0.0755426,-0.3329404,-1.11102,1.088832,-0.5090164,0.8068225,-0.331353,-1.127115,4.039979,0.2090462,-0.6066323,1.468323,-0.5857266,294.7041,113.5794,64.97689
3,1.466669,-1.500097,0.2644583,0.0878472,-1.070741,-0.2624311,-2.149133,-1.016434,-1.711806,0,0,24.9697,-1.301838,-0.00512135,0.09535667,-0.3324094,-1.116397,1.107084,-0.4908126,0.7803199,-0.3474416,-1.129823,4.049455,0.2098744,-0.6043667,1.477827,-0.5894132,294.3763,110.7348,67.83205
3,1.47778,-1.480295,0.3140655,0.04346254,-1.074383,-0.2664535,-2.131081,-1.001054,1.418979,0,0,24.9697,-1.203647,0.008098006,0.1060362,-0.3312445,-1.118173,1.119201,-0.4744575,0.7486009,-0.359211,-1.132605,4.058793,0.2104478,-0.6022229,1.485677,-0.5899059,294.1676,104.7632,73.64495
3,1.488891,-1.431757,0.3808716,0.001924336,-1.078975,-0.2716291,-2.114453,-0.9985394,0.2155414,0,0,24.9697,-1.12988,0.01294363,0.1266447,-0.3297451,-1.122604,1.133479,-0.4570048,0.7189982,-0.3550295,-1.134911,4.06725,0.2113889,-0.6009187,1.492508,-0.5912747,293.8478,101.3583,76.67507
3,1.500003,-1.382254,0.4819038,-0.02830392,-1.085632,-0.2780393,-2.097449,-0.9980963,0.03981086,0,0,22.06061,-1.061454,0.01237011,0.1505092,-0.3284381,-1.129624,1.149854,-0.4313024,0.6886773,-0.3215248,-1.136756,4.075834,0.2114901,-0.6004707,1.498905,-0.5939652,293.638,100.2638,77.5445
3,1.511114,-1.349823,0.5569965,-0.09009504,-1.09166,-0.2858733,-2.079658,-0.9999307,-0.1678991,0,0,22.06061,-1.021145,-0.002706528,0.1436873,-0.3279513,-1.133937,1.164146,-0.4123986,0.6645697,-0.2920174,-1.138141,4.084136,0.2119067,-0.6006898,1.505293,-0.5976469,293.5497,100.2342,77.60181
3,1.522225,-1.312824,0.6048688,-0.1068379,-1.097886,-0.292006,-2.063402,-1.000131,-0.01703372,0,0,22.06061,-1.005419,-0.03046405,0.1369954,-0.328666,-1.139138,1.179818,-0.4132903,0.6517876,-0.2897991,-1.139755,4.092149,0.2131575,-0.601388,1.511856,-0.6014203,293.4287,100.0794,77.88883
3,1.533336,-1.272824,0.6705745,-0.1461754,-1.104718,-0.2997132,-2.047262,-0.9997256,0.03694791,0,0,22.06061,-0.9603479,-0.04273301,0.1769435,-0.328282,-1.150039,1.199183,-0.4093534,0.6147137,-0.2984034,-1.14288,4.099955,0.213748,-0.6024138,1.518738,-0.6046644,293.1594,99.53567,78.65796
3,1.544447,-1.205569,0.7880739,-0.2297568,-1.119839,-0.3167143,-2.015474,-1.000146,-0.03900314,0,0,26.90909,-0.8366771,-0.05109036,0.190544,-0.3278362,-1.164347,1.227641,-0.3629378,0.5137088,-0.3176852,-1.148556,4.110762,0.21667,-0.6036669,1.526081,-0.607251,292.8799,98.47163,80.03207
3,1.555558,-1.178025,0.8210729,-0.2463523,-1.127418,-0.3249483,-2.000089,-0.9888876,1.029732,0,0,26.90909,-0.7556016,-0.04957867,0.2014329,-0.3274314,-1.17248,1.241183,-0.3435859,0.4925882,-0.3220686,-1.151135,4.116621,0.2173875,-0.6051691,1.53416,-0.6097355,292.608,97.01733,81.61945
3,1.566669,-1.132606,0.8590974,-0.2875104,-1.135323,-0.3345149,-1.984855,-1.000814,-1.099171,0,0,26.90909,-0.7026114,-0.06687021,0.1837893,-0.3280967,-1.178298,1.252664,-0.3274228,0.4942166,-0.310938,-1.151167,4.122712,0.2171296,-0.6072131,1.544314,-0.6130887,292.1016,96.6854,82.04415
3,1.577781,-1.09675,0.8992831,-0.3317628,-1.144154,-0.3447185,-1.969328,-1.002504,-0.1440464,0,0,26.90909,-0.6219671,-0.1131969,0.1837605,-0.330012,-1.186771,1.265104,-0.3105204,0.4828121,-0.278418,-1.15203,4.128597,0.2176564,-0.6093116,1.555349,-0.614895,291.8485,93.41291,85.95409
3,1.588892,-1.066227,0.9318991,-0.3760059,-1.152491,-0.3553094,-1.953847,-1.002689,-0.01702247,0,0,29.45455,-0.5644066,-0.1360795,0.2011418,-0.3313516,-1.197431,1.279724,-0.2965641,0.4607508,-0.2694259,-1.153156,4.133121,0.2180767,-0.6112767,1.566217,-0.6150517,291.7584,88.03236,92.17398
3,1.600003,-1.04619,0.9605134,-0.39887,-1.161556,-0.3654741,-1.938407,-1.002046,0.05838287,0,0,29.45455,-0.48373,-0.1963565,0.2138019,-0.334623,-1.209367,1.293828,-0.2789766,0.4194264,-0.2619952,-1.155051,4.137197,0.218927,-0.6131611,1.576322,-0.6140845,291.8901,82.43437,98.40068
3,1.611114,-1.04619,0.9605134,-0.39887,-1.161556,-0.3654741,-1.938407,-1.001592,0.04061315,0,0,29.45455,-0.48373,-0.1963565,0.2138019,-0.334623,-1.209367,1.293828,-0.2789766,0.4194264,-0.2619952,-1.155051,4.137197,0.218927,-0.6151869,1.585527,-0.6128699,292.1207,77.8613,103.3705
3,1.622225,-0.896639,0.9982862,-0.4981103,-1.178728,-0.3883262,-1.913204,-1.011891,-0.9425477,0,0,29.45455,-0.4109365,-0.2194865,0.2619457,-0.3380446,-1.234777,1.324939,-0.2447292,0.3080101,-0.2766982,-1.160377,4.142288,0.2207057,-0.6172883,1.593554,-0.6115932,292.3654,74.35489,107.5328
3,1.633336,-0.896639,0.9982862,-0.4981103,-1.178728,-0.3883262,-1.913204,-0.9913462,1.88585,0,0,29.45455,-0.4109365,-0.2194865,0.2619457,-0.3380446,-1.234777,1.324939,-0.2447292,0.3080101,-0.2766982,-1.160377,4.142288,0.2207057,-0.61919,1.59933,-0.6101751,292.8895,71.03858,111.3229
3,1.644447,-0.8311631,0.9854343,-0.6165585,-1.193266,-0.4125833,-1.887699,-1.009456,-1.673257,0,0,29.21212,-0.3075823,-0.2015511,0.3547234,-0.3393128,-1.267903,1.360149,-0.1772876,0.2278965,-0.2346147,-1.163596,4.14571,0.2215526,-0.621823,1.605276,-0.6108723,292.384,71.13186,111.2473
3,1.655559,-0.817398,0.9991353,-0.6391684,-1.201939,-0.4242682,-1.875089,-0.997462,1.112389,0,0,29.21212,-0.2317631,-0.2139408,0.3815602,-0.34103,-1.284252,1.375757,-0.1470173,0.2240905,-0.2040938,-1.164349,4.148499,0.2210988,-0.6244786,1.609884,-0.6110111,292.5282,70.54069,112.0856
3,1.66667,-0.7738215,1.018456,-0.6385757,-1.210969,-0.4350178,-1.864274,-1.000086,-0.2512071,0,0,29.21212,-0.1765205,-0.2185076,0.3692445,-0.3428245,-1.295975,1.38687,-0.1348507,0.2115605,-0.1839108,-1.165041,4.150756,0.2212757,-0.628326,1.615077,-0.6120543,292.307,71.59463,110.7379
3,1.677781,-0.7367241,1.033252,-0.6644737,-1.220317,-0.4471591,-1.85291,-1.001206,-0.0995611,0,0,29.21212,-0.1084458,-0.1943183,0.343098,-0.3435393,-1.304393,1.393569,-0.1257696,0.1883173,-0.1594256,-1.16568,4.1524,0.221718,-0.63308,1.620608,-0.6123036,292.1545,72.09377,110.5677
3,1.688892,-0.6900108,1.050263,-0.683023,-1.229967,-0.4593761,-1.842506,-1.002268,-0.09656513,0,0,28,-0.04078156,-0.2265737,0.3134483,-0.34675,-1.313504,1.400242,-0.1201529,0.1724111,-0.146637,-1.166532,4.153899,0.222538,-0.6383635,1.62637,-0.6115121,291.9205,71.36468,112.2379
3,1.700003,-0.6262608,1.055685,-0.6982129,-1.239387,-0.4705667,-1.833786,-1.001741,0.04862245,0,0,28,-0.02249658,-0.239641,0.3398076,-0.3491798,-1.328239,1.413793,-0.1048646,0.1203121,-0.1625887,-1.168784,4.153938,0.2232355,-0.6437261,1.632233,-0.6097181,291.6658,69.86065,114.9973
3,1.711114,-0.5933534,1.064148,-0.7144638,-1.248817,-0.4824466,-1.824522,-1.002047,-0.02905345,0,0,28,0.01005718,-0.2251863,0.3843147,-0.3499767,-1.345695,1.428789,-0.09296708,0.08736095,-0.1775223,-1.171217,4.154401,0.2237015,-0.6489665,1.638255,-0.6073143,291.5656,68.13339,117.9203
3,1.722225,-0.5509589,1.045554,-0.7762196,-1.257127,-0.4959973,-1.815338,-1.00281,-0.06972206,0,0,28,0.03784963,-0.2222215,0.391505,-0.3517173,-1.359388,1.440314,-0.06700803,0.03968246,-0.1893615,-1.173612,4.153836,0.2237844,-0.6540091,1.644447,-0.6046571,291.6381,66.17121,120.9041
3,1.733337,-0.529686,1.027263,-0.8048275,-1.265658,-0.5087761,-1.806204,-1.001926,0.08093923,0,0,28,0.04956284,-0.2372708,0.4008855,-0.3543123,-1.374307,1.453333,-0.05724918,0.01953324,-0.1936673,-1.17596,4.153877,0.2240733,-0.6587708,1.6506,-0.6019093,291.8595,63.97359,123.9986
3,1.744448,-0.4850519,1.005747,-0.8357245,-1.273626,-0.5220008,-1.798015,-1.001807,0.009745962,0,0,24.36364,0.08568811,-0.249235,0.4004382,-0.3569531,-1.387704,1.463809,-0.0496174,0.01539044,-0.1841576,-1.177622,4.154391,0.2242384,-0.663294,1.656523,-0.5992296,292.2248,61.9482,126.7645
3,1.755559,-0.4210557,0.9857132,-0.8421893,-1.281789,-0.5342493,-1.791852,-1.001048,0.06885112,0,0,24.36364,0.1373525,-0.2717518,0.3635469,-0.3604647,-1.396536,1.468789,-0.04833625,0.02188092,-0.1607591,-1.178588,4.155097,0.2244438,-0.667723,1.661964,-0.5964861,292.7203,60.36814,128.9103
3,1.76667,-0.3795291,0.9815694,-0.8434429,-1.290304,-0.5464088,-1.785344,-1.001531,-0.0449045,0,0,24.36364,0.1619937,-0.2249083,0.342269,-0.3609143,-1.406127,1.475044,-0.04505359,0.03050326,-0.1469699,-1.179469,4.156027,0.2244312,-0.6722293,1.666975,-0.5939201,293.1251,59.06929,130.7683
3,1.777781,-0.3304218,0.9883898,-0.8382754,-1.300143,-0.5581266,-1.780591,-1.002768,-0.113002,0,0,24.36364,0.1981474,-0.1866199,0.3101606,-0.3614613,-1.413301,1.478368,-0.03122106,0.04240958,-0.1375927,-1.180466,4.157241,0.2238595,-0.6768489,1.671417,-0.5913719,293.4353,58.10083,132.3273
3,1.788892,-0.2941987,0.997173,-0.8236891,-1.309418,-0.5695266,-1.775226,-1.001914,0.07868087,0,0,25.45455,0.2053699,-0.1897059,0.2855754,-0.3633527,-1.421229,1.482936,-0.02044591,0.0415065,-0.1281247,-1.18146,4.157942,0.2235652,-0.6816496,1.675183,-0.5888138,293.6597,57.2164,133.8262
3,1.800003,-0.2941987,0.997173,-0.8236891,-1.309418,-0.5695266,-1.775226,-1.002786,-0.08085645,0,0,25.45455,0.2053699,-0.1897059,0.2855754,-0.3633527,-1.421229,1.482936,-0.02044591,0.0415065,-0.1281247,-1.18146,4.157942,0.2235652,-0.6866544,1.6784,-0.5863428,293.6784,56.5235,135.1928
3,1.811115,-0.2322591,0.9872044,-0.7907283,-1.327763,-0.5905656,-1.76644,-1.00386,-0.09782286,0,0,25.45455,0.2374778,-0.2322066,0.2253323,-0.3697085,-1.432342,1.487194,-0.03072483,0.02760503,-0.1098327,-1.183222,4.158784,0.2241729,-0.6916282,1.680895,-0.5838566,293.6069,55.51729,137.2206
3,1.822226,-0.1928619,0.9755649,-0.7940288,-1.336251,-0.6017306,-1.762589,-0.9988798,0.4557215,0,0,25.45455,0.2224591,-0.2063856,0.1979425,-0.3711994,-1.436748,1.489345,-0.04112545,0.02650526,-0.09051477,-1.183416,4.159353,0.2246603,-0.6958547,1.682408,-0.5817469,293.4772,54.80585,138.9857
3,1.833337,-0.1928619,0.9755649,-0.7940288,-1.336251,-0.6017306,-1.762589,-1.001166,-0.2133636,0,0,25.45455,0.2224591,-0.2063856,0.1979425,-0.3711994,-1.436748,1.489345,-0.04112545,0.02650526,-0.09051477,-1.183416,4.159353,0.2246603,-0.7005217,1.684161,-0.5798573,293.0018,55.4267,138.2438
3,1.844448,-0.1627397,0.9514723,-0.7778977,-1.345165,-0.6124514,-1.759366,-1.002475,-0.1175456,0,0,25.45455,0.2261387,-0.1435892,0.2035916,-0.3706849,-1.443365,1.492938,-0.04224349,0.02434143,-0.09688633,-1.18461,4.159878,0.2249764,-0.7054585,1.686015,-0.577647,292.6897,55.16492,138.9795
3,1.855559,-0.1189601,0.9175724,-0.7734984,-1.352499,-0.6227445,-1.757009,-1.000913,0.1432867,0,0,22.18182,0.2487628,-0.0989276,0.194031,-0.3700137,-1.448937,1.494084,-0.04546094,0.009352606,-0.1138405,-1.186482,4.160005,0.2254038,-0.7096254,1.687462,-0.5755187,292.6104,54.1203,141.3475
3,1.86667,-0.07508221,0.8923949,-0.7532038,-1.360046,-0.6323553,-1.755578,-1.000748,0.0134613,0,0,22.18182,0.2584495,-0.05523151,0.1760573,-0.3693426,-1.451472,1.49327,-0.04942299,-0.02160078,-0.1179542,-1.188236,4.158931,0.226496,-0.713306,1.688809,-0.5736973,292.5948,53.8075,142.29
3,1.877781,-0.02363484,0.885797,-0.6926904,-1.368395,-0.6399139,-1.755136,-1.001084,-0.0308766,0,0,22.18182,0.2425425,-0.04127195,0.175242,-0.3693037,-1.457004,1.496535,-0.04162767,-0.03851893,-0.1062732,-1.189072,4.158069,0.2269546,-0.7169584,1.690204,-0.5718089,292.5817,53.76446,142.3478
3,1.888893,-0.003155515,0.8831592,-0.6501545,-1.376762,-0.6474448,-1.754329,-1.001437,-0.03236577,0,0,22.18182,0.2099933,-0.06317614,0.1328366,-0.3707349,-1.457583,1.496011,-0.02552453,-0.04044187,-0.09793629,-1.189963,4.157702,0.2268188,-0.7207797,1.69162,-0.5696555,292.6245,53.51873,142.7209
3,1.900004,0.005623028,0.8955575,-0.5938473,-1.386076,-0.6540351,-1.753467,-1.00155,-0.01029715,0,0,20.24242,0.2283208,-0.08849399,0.06751989,-0.3726343,-1.454736,1.490233,-0.01388662,-0.02964186,-0.09491209,-1.190874,4.158114,0.2263703,-0.7248134,1.692966,-0.5672346,292.6898,52.85382,143.8348
3,1.911115,-0.01427046,0.9080763,-0.5161166,-1.40431,-0.6669173,-1.750187,-1.000722,0.07560035,0,0,20.24242,0.2004824,-0.1896922,-0.08513573,-0.3796219,-1.440226,1.472932,-0.01230684,0.07494693,-0.04305293,-1.189213,4.162981,0.2246041,-0.7289577,1.694141,-0.5646898,292.7136,51.74714,145.6513
3,1.922226,0.01682388,0.8914505,-0.4894542,-1.412609,-0.6733499,-1.750299,-0.9994833,0.1122387,0,0,20.24242,0.1808512,-0.2096225,-0.1159447,-0.3828475,-1.434676,1.466464,-0.03177799,0.1045677,-0.039718,-1.189021,4.165402,0.224746,-0.7332749,1.695164,-0.5621994,292.7338,50.64454,147.3234
3,1.933337,0.05645808,0.8619988,-0.4690889,-1.420116,-0.6793564,-1.751285,-0.9987738,0.06388803,0,0,20.24242,0.164165,-0.1594519,-0.1133487,-0.382741,-1.432577,1.463457,-0.0587062,0.09565398,-0.07346028,-1.190879,4.166702,0.2258086,-0.7382134,1.69618,-0.5595633,292.6567,49.17593,149.1552
3,1.944448,0.1073651,0.8022897,-0.4681495,-1.426822,-0.68565,-1.752469,-1.000206,-0.1315292,0,0,20.84849,0.1656239,-0.08696623,-0.123599,-0.3815026,-1.427817,1.45699,-0.07166649,0.07944486,-0.1020156,-1.192669,4.167536,0.2267575,-0.7433321,1.697088,-0.5568988,292.5107,47.79237,151.4819
3,1.955559,0.1378148,0.7569286,-0.4619014,-1.431743,-0.6916459,-1.754718,-1.000884,-0.06099629,0,0,20.84849,0.134884,-0.01840021,-0.1537812,-0.379672,-1.419919,1.4492,-0.07057377,0.06237064,-0.1158258,-1.194339,4.168069,0.2272936,-0.7481598,1.697695,-0.554374,292.432,46.68748,153.7662
3,1.966671,0.1732896,0.7073946,-0.4284513,-1.437318,-0.6960821,-1.757064,-1.000808,0.007053331,0,0,20.84849,0.09573278,0.02235723,-0.1552737,-0.3786142,-1.414799,1.444569,-0.05560382,0.05188712,-0.1223654,-1.195718,4.168934,0.2269599,-0.7524198,1.697875,-0.5521496,292.3917,45.75576,155.7079
3,1.977782,0.1917426,0.6684571,-0.3918884,-1.442654,-0.7002771,-1.759272,-1.001409,-0.05535614,0,0,20.84849,0.08302719,0.03844167,-0.1582459,-0.3778578,-1.409505,1.439187,-0.05138037,0.05299357,-0.1245494,-1.197,4.169925,0.2270236,-0.7560752,1.697615,-0.550373,292.3598,45.09781,157.0596
3,1.988893,0.1963101,0.6540444,-0.3491038,-1.4489,-0.7039411,-1.761246,-1.000941,0.04302405,0,0,17.81818,0.09796924,0.03511374,-0.1530927,-0.377934,-1.405414,1.433712,-0.05752823,0.06794932,-0.09042567,-1.196424,4.171398,0.2273011,-0.75914,1.696871,-0.5490969,292.3172,44.71928,157.8678
3,2.000004,0.1933505,0.6416452,-0.3137911,-1.455007,-0.7074549,-1.762867,-1.000331,0.055114,0,0,17.81818,0.08199809,0.02024743,-0.1423607,-0.3783968,-1.402272,1.430418,-0.06343137,0.1032557,-0.01588627,-1.193522,4.173288,0.2275194,-0.7617036,1.695711,-0.5483584,292.1497,44.30065,158.5107
3,2.011115,0.19689,0.6016906,-0.2685889,-1.460097,-0.7097596,-1.764694,-0.9996537,0.06128011,0,0,17.81818,0.06078523,0.03102847,-0.1399499,-0.3780048,-1.398091,1.426635,-0.06099832,0.1418125,0.04575615,-1.190455,4.175683,0.2271913,-0.7638806,1.694315,-0.5481554,291.8246,43.95227,158.9507
3,2.022226,0.1789956,0.5538146,-0.2572826,-1.464193,-0.7130715,-1.765625,-0.9989848,0.06056297,0,0,17.81818,0.05764082,0.03850703,-0.1398743,-0.3775601,-1.393573,1.421899,-0.05870674,0.1557715,0.07231811,-1.188633,4.177695,0.2269828,-0.7658103,1.692885,-0.5483595,291.3853,43.65493,159.2136
3,2.033337,0.1482952,0.5036322,-0.2565556,-1.467579,-0.7167179,-1.765876,-0.9988255,0.01396322,0,0,17.81818,0.04970745,0.08956138,-0.1160589,-0.3749624,-1.391163,1.419324,-0.04703367,0.1665729,0.07854127,-1.18706,4.179721,0.2264017,-0.7675416,1.69151,-0.5486962,290.9351,43.4058,159.3882
3,2.044448,0.1209001,0.451521,-0.2387646,-1.470526,-0.7193901,-1.766255,-0.9979397,0.08084179,0,0,17.69697,0.04436903,0.09495064,-0.1212976,-0.374091,-1.386608,1.414625,-0.03762242,0.1623603,0.0603492,-1.186552,4.1815,0.2258643,-0.7691091,1.690252,-0.5490234,290.6018,43.18669,159.5738
3,2.055559,0.1031759,0.3931991,-0.208186,-1.472783,-0.7212448,-1.766664,-0.9971845,0.06835099,0,0,17.69697,0.02611783,0.09515392,-0.1349583,-0.3733518,-1.380779,1.409511,-0.03479271,0.1537598,0.02092221,-1.187322,4.183285,0.2254715,-0.7706245,1.689225,-0.5492592,290.3525,43.17439,159.5676
3,2.06667,0.08208151,0.3634874,-0.1896113,-1.475578,-0.723241,-1.766883,-0.9972036,-0.002196649,0,0,17.69697,0.02792065,0.07393181,-0.1521434,-0.373584,-1.374693,1.403543,-0.03721417,0.1408537,-0.01630338,-1.188443,4.184901,0.2254334,-0.7721936,1.688572,-0.5493223,290.1473,43.24712,159.5068
3,2.077781,0.05662172,0.356103,-0.1744822,-1.479102,-0.7255574,-1.766531,-0.9972547,-0.004503774,0,0,17.69697,0.01578996,0.02826099,-0.1618705,-0.3751254,-1.369492,1.398894,-0.03509153,0.126989,-0.03013766,-1.189037,4.186118,0.2253042,-0.7738178,1.688336,-0.5491939,290.0385,43.07861,159.8015
3,2.088892,0.03852949,0.362523,-0.1659328,-1.483012,-0.7279655,-1.766191,-0.9971749,0.007426982,0,0,17.69697,-0.003392041,0.02410997,-0.1595609,-0.3753571,-1.365227,1.395593,-0.03382719,0.1195749,-0.02054529,-1.18861,4.187269,0.2251711,-0.7753863,1.688456,-0.5489074,290.0334,42.68489,160.4469
3,2.100003,0.01078661,0.3752154,-0.1648579,-1.487169,-0.7305642,-1.765252,-0.9967322,0.0404747,0,0,13.09091,-0.02001863,0.03361638,-0.1252429,-0.3747132,-1.364292,1.395527,-0.03799703,0.1259594,-0.006665345,-1.187877,4.188848,0.225129,-0.7768697,1.688881,-0.5485368,290.1245,42.19678,161.192
3,2.111114,-0.0007789694,0.3550863,-0.1507211,-1.490104,-0.7325158,-1.764718,-0.9968351,-0.009634236,0,0,13.09091,-0.02931912,0.03779711,-0.1006132,-0.3741033,-1.363543,1.395249,-0.04321305,0.1483659,0.02422506,-1.186094,4.191206,0.2249154,-0.7782639,1.689515,-0.548065,290.2745,41.68468,161.8875
3,2.122225,-0.02857151,0.3204083,-0.1938249,-1.491977,-0.7359912,-1.763452,-0.9964212,0.03804726,0,0,13.09091,-0.07171126,0.03260997,-0.07569504,-0.3740474,-1.363442,1.397275,-0.04099946,0.1644329,0.04652545,-1.184289,4.19339,0.2244669,-0.7796686,1.690313,-0.5475396,290.4884,41.16977,162.5204
3,2.133336,-0.04520204,0.2728834,-0.1505908,-1.493351,-0.7364902,-1.762396,-0.9968824,-0.04239303,0,0,13.09091,-0.08312191,0.03679962,-0.0489215,-0.3734322,-1.364028,1.399098,-0.03801978,0.191118,0.05387763,-1.182828,4.196392,0.223611,-0.7811778,1.691296,-0.5470586,290.6811,40.63374,163.2036
3,2.144447,-0.1057314,0.1882274,-0.1737999,-1.492239,-0.7387252,-1.759154,-0.9964904,0.03635336,0,0,9.818182,-0.08538426,0.01763602,-0.04900493,-0.3739771,-1.362925,1.398981,-0.04163335,0.2069965,0.03365025,-1.182603,4.199416,0.223003,-0.7827589,1.69241,-0.5467084,290.8818,40.2678,163.8196
3,2.155558,-0.1621473,0.1591076,-0.1859585,-1.492577,-0.741317,-1.755253,-0.9965847,-0.008867692,0,0,9.818182,-0.09160571,0.01010089,-0.02767607,-0.3741028,-1.363909,1.401098,-0.05470967,0.2067843,0.008232547,-1.182867,4.202011,0.2230935,-0.7843994,1.693613,-0.5465493,291.0412,40.14441,164.2106
3,2.166669,-0.2324069,0.1331779,-0.1927557,-1.492789,-0.7437783,-1.749991,-0.994787,0.1646575,0,0,9.818182,-0.09781317,-0.0006517395,-0.003169451,-0.3742822,-1.366105,1.404316,-0.05792934,0.1896619,-0.009789828,-1.18318,4.203887,0.2231673,-0.7858505,1.694769,-0.5465057,291.1328,39.97035,164.6668
3,2.17778,-0.2770645,0.1159972,-0.1891297,-1.493149,-0.745879,-1.74524,-0.9943066,0.04276237,0,0,9.818182,-0.1188829,-0.004914865,0.02259233,-0.3742966,-1.369233,1.409253,-0.05784608,0.1822053,-0.009770868,-1.182893,4.205778,0.2230981,-0.7870988,1.696036,-0.546699,291.1305,40.2306,164.6143
3,2.188891,-0.3143843,0.1243637,-0.1900933,-1.494588,-0.7482098,-1.740651,-0.9933772,0.0851693,0,0,9.818182,-0.1384915,0.007699989,0.07506842,-0.373437,-1.375921,1.417646,-0.05896481,0.1779087,-0.01933046,-1.182968,4.207834,0.2228725,-0.7881665,1.697584,-0.5469711,291.0464,40.63506,164.2243
3,2.200002,-0.3432171,0.1305485,-0.198532,-1.495812,-0.7509385,-1.735694,-0.9942736,-0.08231267,0,0,8.969697,-0.1455522,-0.005301826,0.1219428,-0.3734647,-1.384036,1.427016,-0.05910971,0.1810792,-0.02892543,-1.183165,4.210171,0.2226493,-0.7891143,1.699659,-0.5471997,290.9493,40.97204,163.8249
3,2.211113,-0.432707,0.1130069,-0.2117001,-1.49619,-0.7536703,-1.72783,-0.995031,-0.06811011,0,0,8.969697,-0.1678991,-0.02654617,0.1391041,-0.3741139,-1.390002,1.435202,-0.05382156,0.202498,-0.01199737,-1.182122,4.213329,0.2218323,-0.7899361,1.702294,-0.5472567,291.0594,41.19204,163.5595
3,2.222224,-0.4848629,0.09034082,-0.2196917,-1.496065,-0.7562919,-1.720775,-0.9951556,-0.01058352,0,0,8.969697,-0.1691728,-0.04246277,0.1294376,-0.3749624,-1.393319,1.440209,-0.05597164,0.2216929,0.005022855,-1.180812,4.216452,0.2213324,-0.7907054,1.705399,-0.5470471,291.4184,41.23349,163.4774
3,2.233335,-0.5657834,0.06111044,-0.2327872,-1.495314,-0.7592512,-1.711574,-0.9926885,0.2258943,0,0,8.969697,-0.1630393,-0.06262991,0.1133165,-0.3758759,-1.396301,1.443957,-0.0645851,0.24507,0.01998697,-1.179253,4.219983,0.2209454,-0.7915461,1.708923,-0.5466307,291.9248,41.25396,163.4686
3,2.244446,-0.6210547,0.03001451,-0.2310707,-1.494449,-0.7614952,-1.702886,-0.9937543,-0.09900688,0,0,8.969697,-0.1616318,-0.09697478,0.1642809,-0.3771388,-1.407401,1.4554,-0.06993567,0.2418014,0.01472917,-1.178715,4.222685,0.2208757,-0.7925709,1.71304,-0.5461162,292.3437,41.38639,163.4039
3,2.255557,-0.6582243,-0.01070392,-0.2389437,-1.492687,-0.7641792,-1.694135,-0.9923908,0.1261235,0,0,8.969697,-0.1712247,-0.05470438,0.2381288,-0.375902,-1.420915,1.470211,-0.07205672,0.2140155,-0.01179899,-1.179601,4.224278,0.2210868,-0.7935732,1.717502,-0.5453183,292.8463,41.59437,163.3785
3,2.266668,-0.6730358,-0.03954679,-0.2406752,-1.490998,-0.7667065,-1.686027,-0.9933058,-0.08440753,0,0,8.969697,-0.1407739,0.01538172,0.2478127,-0.372703,-1.428881,1.477793,-0.07152351,0.1340456,-0.0446308,-1.181782,4.223125,0.2221292,-0.7944968,1.722364,-0.5443337,293.3477,41.76788,163.4791
3,2.277779,-0.6953268,-0.07062602,-0.2487341,-1.488839,-0.7695587,-1.67747,-0.9939929,-0.06154846,0,0,8.969697,-0.138816,0.01110452,0.2381848,-0.3726519,-1.435599,1.485716,-0.07354681,0.1276386,-0.04139606,-1.181866,4.224496,0.2225021,-0.7951498,1.727477,-0.5431611,293.9539,41.90055,163.6647
3,2.28889,-0.6973456,-0.0661124,-0.2253194,-1.488179,-0.7710149,-1.669668,-0.9951759,-0.1073378,0,0,8.969697,-0.152912,-0.05384654,0.2539773,-0.3749582,-1.446856,1.498083,-0.0692926,0.1159432,-0.05418953,-1.182445,4.225955,0.2224775,-0.7954354,1.732664,-0.5418389,294.6706,42.13781,163.6917
3,2.300001,-0.6887808,-0.05954576,-0.2126534,-1.487554,-0.7729409,-1.662032,-0.9952712,-0.007595852,0,0,9.333334,-0.1392299,-0.08593628,0.2589682,-0.3770392,-1.455171,1.507026,-0.07214515,0.07860927,-0.06045925,-1.183421,4.225781,0.2234552,-0.7953879,1.737788,-0.5404956,295.4953,42.38367,163.6396
3,2.311112,-0.6460915,-0.0420419,-0.1875028,-1.487793,-0.7742033,-1.656315,-0.9962246,-0.08697787,0,0,9.333334,-0.1318674,-0.1191008,0.2725652,-0.3792235,-1.465455,1.517911,-0.07805322,0.03699758,-0.05923957,-1.184355,4.224903,0.2247844,-0.7950897,1.742818,-0.5393102,296.2815,42.58488,163.5826
3,2.322223,-0.571281,-0.04235414,-0.1442065,-1.487081,-0.7741324,-1.652482,-0.9967738,-0.04925176,0,0,9.333334,-0.1484627,-0.1545731,0.3396515,-0.3823681,-1.482617,1.536094,-0.07554822,-0.001335192,-0.06450323,-1.185428,4.223981,0.2257998,-0.7945323,1.747621,-0.538312,296.991,42.61756,163.616
3,2.333334,-0.5146226,-0.06212431,-0.1219148,-1.485673,-0.7746369,-1.64857,-0.9987925,-0.1841327,0,0,9.333334,-0.1526734,-0.09956156,0.4113876,-0.381452,-1.502006,1.556051,-0.06605674,-0.02580756,-0.09757702,-1.187751,4.223373,0.2264686,-0.7937838,1.752105,-0.5374624,297.5741,42.71791,163.4404
3,2.344445,-0.4932893,-0.08347544,-0.1324478,-1.483861,-0.7764164,-1.643341,-1.000697,-0.1726491,0,0,8.969697,-0.1287768,-0.06297538,0.3250815,-0.3803793,-1.504036,1.55808,-0.07158177,-0.02483824,-0.11457,-1.189586,4.223661,0.2274004,-0.7929149,1.756126,-0.5366474,298.1034,42.79977,163.2088
3,2.355556,-0.4729204,-0.1185721,-0.1342963,-1.481229,-0.7778262,-1.638497,-1.000588,0.01108124,0,0,8.969697,-0.1436322,-0.06767091,0.2314558,-0.3813263,-1.502319,1.558589,-0.06789035,0.02847549,-0.1126046,-1.190322,4.22606,0.2271881,-0.7919823,1.759461,-0.5359489,298.7121,42.82102,163.1103
3,2.366668,-0.4471943,-0.1374921,-0.1193115,-1.47903,-0.7785421,-1.634238,-0.9990715,0.1381867,0,0,8.969697,-0.1426789,-0.06123143,0.2197542,-0.3821881,-1.508095,1.566079,-0.05203643,0.05318705,-0.1000552,-1.190704,4.2277,0.2265884,-0.7911474,1.762051,-0.5355257,299.2678,42.99734,162.8513
3,2.377779,-0.3895724,-0.1252563,-0.09311341,-1.477894,-0.7787046,-1.63164,-0.999078,-0.001879156,0,0,8.969697,-0.1217001,-0.03767327,0.1727946,-0.3817428,-1.50944,1.567983,-0.04332671,0.05545662,-0.08098031,-1.190864,4.228471,0.2264928,-0.7906352,1.764114,-0.5354634,299.5752,43.41454,162.2971
3,2.38889,-0.2723529,-0.1032316,-0.07054154,-1.47753,-0.7786689,-1.632702,-0.9994737,-0.03617893,0,0,8.969697,-0.110512,-0.05240867,0.1300014,-0.3826062,-1.510197,1.569342,-0.04418405,0.06403179,-0.05436287,-1.190478,4.229354,0.2266065,-0.790441,1.765744,-0.5356357,299.6382,43.89672,161.6895
3,2.400001,-0.1058565,-0.1857032,-0.07370229,-1.471764,-0.7788164,-1.638065,-1.000913,-0.1314038,0,0,9.090909,-0.1011814,-0.08013417,0.1233547,-0.3845029,-1.513115,1.572844,-0.04934525,0.0693464,-0.03407634,-1.189902,4.230256,0.2269847,-0.7905098,1.767132,-0.5359448,299.5112,44.21982,161.3149
3,2.411112,-0.01883922,-0.2676308,0.001325464,-1.465781,-0.7761277,-1.640693,-1.004288,-0.3078135,0,0,9.090909,-0.08081536,-0.0878708,0.1443563,-0.3859581,-1.518103,1.578325,-0.04085386,0.06196554,-0.0448042,-1.190684,4.231022,0.2268033,-0.7907568,1.768399,-0.5363871,299.369,44.31145,161.2661
3,2.422223,-0.03600533,-0.2045854,0.02414789,-1.465707,-0.7751737,-1.639666,-1.008174,-0.3533396,0,0,9.090909,-0.07786407,-0.05247481,0.09766179,-0.385475,-1.517442,1.578478,-0.03453007,0.05028503,-0.06402604,-1.191997,4.231647,0.226586,-0.7910098,1.769187,-0.5368029,299.4436,44.37085,161.3293
3,2.433334,-0.04374972,-0.1439919,0.01499134,-1.466039,-0.775374,-1.638862,-1.004537,0.3346161,0,0,9.090909,-0.089887,-0.03293982,0.0531506,-0.3848294,-1.514751,1.577092,-0.03661264,0.04173012,-0.06824557,-1.192851,4.23205,0.2269149,-0.7908967,1.768515,-0.537053,299.7956,44.66153,161.2545
3,2.444445,-0.02686595,-0.07766709,0.03333697,-1.467253,-0.7746726,-1.639206,-0.9998173,0.4275813,0,0,9.090909,-0.104825,-0.01998879,0.04378934,-0.3845407,-1.515309,1.579559,-0.04504546,0.03418764,-0.06813545,-1.193465,4.232508,0.2274888,-0.7905247,1.766726,-0.537585,299.7299,44.84349,161.1019
3,2.455556,0.03395712,-0.0320956,0.08577722,-1.468542,-0.7720893,-1.64183,-0.9993102,0.04265678,0,0,9.454546,-0.08421746,-0.03423026,0.08824015,-0.3853919,-1.521928,1.585921,-0.04269084,0.01076901,-0.0713052,-1.194488,4.23203,0.2280872,-0.7903364,1.764864,-0.5387412,299.1407,44.9433,160.7572
3,2.466667,0.06925184,-0.01557127,0.1227005,-1.468812,-0.7694192,-1.644156,-1.000153,-0.07717401,0,0,9.454546,-0.1023324,-0.01913451,0.07786058,-0.3852081,-1.523436,1.589049,-0.03931242,-0.02011343,-0.08618792,-1.196156,4.23118,0.228659,-0.7904267,1.763392,-0.540239,298.394,45.23116,160.1394
3,2.477778,0.09267221,0.0210115,0.1466733,-1.470482,-0.7670373,-1.646259,-1.002036,-0.1716483,0,0,9.454546,-0.08497208,0.02499394,-0.02327821,-0.3832906,-1.513869,1.580626,-0.0232191,-0.01777863,-0.07358414,-1.196632,4.231133,0.2284191,-0.7906262,1.762301,-0.5416303,297.7757,45.36163,159.7713
3,2.488889,0.08621973,0.065973,0.1685777,-1.472769,-0.7647762,-1.647077,-1.001512,0.04907114,0,0,9.454546,-0.07716168,0.01895012,-0.09049585,-0.3828374,-1.505735,1.573229,-0.001835031,0.01770527,-0.03128386,-1.195387,4.232388,0.2272403,-0.7906591,1.761279,-0.5426783,297.4899,45.08656,160.0005
3,2.5,0.09997732,0.1162966,0.1871237,-1.475677,-0.7622516,-1.648961,-1.000808,0.06339246,0,0,9.090909,-0.06212388,-0.002031632,-0.1664188,-0.3834771,-1.493616,1.562277,-0.0008806437,0.05292509,-0.005801976,-1.194231,4.234048,0.2266102,-0.7904577,1.760247,-0.5435267,297.4364,44.70145,160.4204
3,2.511111,0.1403302,0.1709724,0.2033482,-1.479566,-0.7597572,-1.652063,-0.9991482,0.1510359,0,0,9.090909,-0.05696185,-0.02227332,-0.1708382,-0.3841173,-1.488475,1.557682,-0.01049255,0.08270515,0.021929,-1.192856,4.235822,0.2264228,-0.7900429,1.75908,-0.544189,297.4842,44.30175,160.7406
3,2.522222,0.1816734,0.2115439,0.1962905,-1.483238,-0.7580837,-1.655465,-0.999797,-0.06071829,0,0,9.090909,-0.06313876,-0.01271232,-0.1558049,-0.3837796,-1.485459,1.555968,-0.01235754,0.07206053,0.03582101,-1.192057,4.235969,0.226577,-0.7895964,1.757993,-0.5448183,297.4646,43.85141,161.0364
3,2.533333,0.1858515,0.2167564,0.1844913,-1.486001,-0.7565923,-1.657841,-1.000883,-0.09875756,0,0,9.090909,-0.06029916,0.0649402,-0.1383468,-0.3803457,-1.483632,1.554963,-0.01651076,0.05495384,0.02844525,-1.191926,4.235991,0.2268784,-0.7891718,1.756986,-0.5454586,297.4517,43.33049,161.4111
3,2.544444,0.1719873,0.2038148,0.1751228,-1.487828,-0.75511,-1.659146,-1.00105,-0.01472455,0,0,9.090909,-0.06356572,0.08641321,-0.1616198,-0.3785311,-1.476803,1.548988,-0.01676508,0.06344259,0.01351909,-1.192028,4.237138,0.2266086,-0.7888035,1.755857,-0.5459851,297.4526,42.81002,161.7249
3,2.555555,0.1783775,0.1748303,0.1530389,-1.488845,-0.7542546,-1.661386,-0.9997208,0.121274,0,0,8.848485,-0.05435736,0.0897571,-0.2000507,-0.3775127,-1.467198,1.540356,-0.01818172,0.08898275,0.007087795,-1.191761,4.23914,0.2261213,-0.7886398,1.754524,-0.5463936,297.4717,42.39519,161.9431
3,2.566666,0.1869993,0.1342645,0.1428012,-1.489086,-0.7528644,-1.663787,-0.9982913,0.1294969,0,0,8.848485,-0.05567309,0.08560307,-0.2202871,-0.3771324,-1.459587,1.534098,-0.01826786,0.1039093,0.01451611,-1.190972,4.240729,0.2256768,-0.7887785,1.753048,-0.5467878,297.4089,42.06816,162.1714
3,2.577777,0.2084206,0.1098847,0.1461558,-1.489596,-0.7511659,-1.666967,-0.9990284,-0.06841206,0,0,8.848485,-0.04699551,0.08225378,-0.2033505,-0.3763515,-1.454733,1.529832,-0.02032848,0.1006967,0.01774106,-1.190452,4.2417,0.2256118,-0.7891999,1.751594,-0.5472094,297.1717,41.84867,162.4017
3,2.588888,0.226557,0.09173048,0.1356098,-1.490169,-0.7500367,-1.670321,-0.9991376,-0.009382382,0,0,8.848485,-0.03704025,0.07880402,-0.1683005,-0.3754141,-1.453642,1.528552,-0.01493037,0.09863581,0.02195251,-1.189854,4.242659,0.2251727,-0.7897727,1.750155,-0.5476632,296.9437,41.71493,162.6775
3,2.599999,0.2373273,0.05979735,0.1337766,-1.489928,-0.7485725,-1.673381,-0.9997368,-0.05489391,0,0,9.212122,-0.01122972,0.07528641,-0.1430224,-0.3747835,-1.451814,1.526094,0.00540325,0.08713517,0.01856213,-1.189644,4.243227,0.2242062,-0.7903284,1.748681,-0.548157,296.7119,41.53197,163.0257
3,2.61111,0.233098,0.0351381,0.1212887,-1.489498,-0.7476111,-1.67589,-0.9998263,-0.007867447,0,0,9.212122,-0.004995301,0.0550421,-0.1474415,-0.3746492,-1.44751,1.521538,0.01200714,0.06803509,0.01853797,-1.189328,4.243351,0.2237801,-0.7907682,1.747167,-0.5487238,296.4951,41.30567,163.3552
3,2.622221,0.2192115,0.004913017,0.09080509,-1.488596,-0.7475232,-1.677877,-0.9993006,0.04793329,0,0,9.212122,-0.005042836,0.04330662,-0.1443097,-0.3747025,-1.443436,1.517801,0.007701967,0.06477714,0.01113318,-1.189317,4.244019,0.2235916,-0.7910786,1.745574,-0.5493724,296.3025,41.15575,163.5072
3,2.633332,0.2020442,-0.01367846,0.05381405,-1.48773,-0.7481086,-1.679472,-0.9985741,0.06589143,0,0,9.212122,-0.003847733,0.04534896,-0.1325831,-0.3742993,-1.44087,1.515579,0.002160173,0.06574403,-0.007982213,-1.189841,4.245049,0.2234166,-0.7912773,1.743973,-0.5501136,296.0609,41.13292,163.4597
3,2.644443,0.1913554,-0.02775252,0.03698941,-1.487064,-0.7480037,-1.681257,-0.9979722,0.05445335,-0.1010773,0,9.212122,-0.008092776,0.03788206,-0.1251204,-0.3741251,-1.437703,1.513011,0.005370835,0.05937832,-0.01332921,-1.190005,4.245634,0.2230081,-0.791436,1.742508,-0.5509931,295.8069,41.262,163.2384
3,2.655554,0.1881665,-0.06427901,0.01077795,-1.485028,-0.7485794,-1.683159,-0.9975722,0.03617079,-0.1007097,0,9.333334,-0.006889082,0.03031825,-0.1070633,-0.3740868,-1.436174,1.511632,-0.003008503,0.04543402,-0.01427754,-1.190176,4.245718,0.223264,-0.7916269,1.741253,-0.5519453,295.5704,41.57125,162.795
3,2.666665,0.1967242,-0.07597453,0.009806505,-1.483922,-0.7481027,-1.685609,-0.9977011,-0.01202315,-0.1007403,0,9.333334,0.001196124,0.03851512,-0.05593314,-0.3731579,-1.440395,1.514802,-0.0114261,0.03575485,-0.01523361,-1.190319,4.245909,0.2234768,-0.7919049,1.740241,-0.5528006,295.3283,41.95137,162.2205
3,2.677776,0.2053437,-0.1068911,0.004777759,-1.481677,-0.7479733,-1.688212,-0.9979296,-0.02073194,-0.1014023,0,9.333334,0.005968548,0.06598996,-0.02495244,-0.3717112,-1.441851,1.515973,-0.01447926,0.02080215,-0.01730251,-1.190657,4.245632,0.223852,-0.7922392,1.739402,-0.5533493,295.1187,42.22426,161.7937
3,2.688887,0.1947168,-0.1154889,0.001745086,-1.480192,-0.7476798,-1.690113,-0.9984121,-0.0439376,-0.1023712,0,9.333334,0.003804497,0.06064996,-0.02281809,-0.3714987,-1.441455,1.515946,-0.006917808,0.02304322,-0.005663004,-1.190159,4.245989,0.2234246,-0.7926547,1.738792,-0.5536767,295.0066,42.47389,161.5535
3,2.699998,0.1659672,-0.1284697,-0.005417088,-1.478252,-0.7477666,-1.690891,-0.9986039,-0.01720239,-0.1026222,0,9.333334,0.01324964,0.04033939,-0.02304256,-0.3718524,-1.440176,1.514312,-0.00490683,0.03692094,-0.002515122,-1.189876,4.246888,0.2230858,-0.793052,1.738251,-0.553799,295.0122,42.51615,161.6256
3,2.711109,0.1253759,-0.1191937,-0.01914273,-1.477293,-0.7481528,-1.690909,-0.9978604,0.06803854,-0.103295,0,8.727273,0.01624114,0.03507257,-0.03802119,-0.3716356,-1.437514,1.511702,-0.0008136071,0.04654643,-0.008969614,-1.190012,4.247951,0.222465,-0.7934195,1.737709,-0.5538731,295.0822,42.59173,161.6751
3,2.72222,0.1103881,-0.1108006,-0.025536,-1.476364,-0.7483041,-1.691639,-0.9967141,0.1042323,-0.1038336,0,8.727273,0.01520188,0.03720455,-0.03693319,-0.3711786,-1.436413,1.510535,-0.0006178543,0.03804293,0.0006327885,-1.189668,4.248003,0.2224416,-0.793777,1.737128,-0.5539868,295.1311,42.67547,161.6568
3,2.733331,0.08904465,-0.1002224,-0.02447625,-1.475596,-0.7484617,-1.691868,-0.9960068,0.06395382,-0.1040217,0,8.727273,0.01531124,0.04248136,-0.02945286,-0.3706257,-1.436003,1.510097,0.01023797,0.03499518,0.01650684,-1.188871,4.248094,0.22193,-0.7941782,1.736602,-0.5542365,295.0972,42.87941,161.4456
3,2.744442,0.07201419,-0.1024034,-0.0222295,-1.474267,-0.74841,-1.692082,-0.9968292,-0.07552239,-0.1043231,0,8.727273,0.01964998,0.04882614,-0.02626768,-0.3698657,-1.435447,1.509201,0.0155166,0.03931504,0.01644301,-1.188561,4.248653,0.2213614,-0.7946622,1.736197,-0.5545214,294.9849,43.11036,161.1306
3,2.755553,0.04861671,-0.1077886,-0.01885098,-1.472873,-0.7483387,-1.691838,-0.9966081,0.02107571,-0.1038663,0,8.121212,0.02249351,0.02759368,-0.04558767,-0.3705224,-1.432271,1.505953,0.01745491,0.05638871,0.01639432,-1.188124,4.250014,0.2206378,-0.7951862,1.735886,-0.5547961,294.9178,43.23184,161.0023
3,2.766664,0.04648879,-0.1056308,-0.01565455,-1.471799,-0.7480995,-1.692297,-0.9967003,-0.008537238,-0.1031799,0,8.121212,0.02671879,0.02654113,-0.05094816,-0.3700899,-1.430851,1.503799,0.0184562,0.05638869,0.00998868,-1.188137,4.250727,0.220098,-0.7956992,1.735664,-0.5550529,294.8576,43.30148,160.9842
3,2.777775,0.03902244,-0.09923404,-0.0124904,-1.470908,-0.7480212,-1.692496,-0.9964276,0.02512258,-0.1016569,0,8.121212,0.02249275,0.01693058,-0.04136785,-0.3702582,-1.430496,1.503315,0.01752054,0.04572656,0.01108365,-1.187945,4.250856,0.2198751,-0.7961038,1.73548,-0.5552723,294.8243,43.40781,160.9619
3,2.788886,0.03684691,-0.08755055,-0.01366119,-1.470128,-0.7479307,-1.692999,-0.9972436,-0.07471144,-0.09998192,0,8.121212,0.01199815,0.02866082,-0.0326642,-0.3697362,-1.430535,1.503791,0.01872064,0.02547966,0.002585237,-1.188299,4.250383,0.2198021,-0.7963614,1.735361,-0.5555043,294.8181,43.52121,160.9255
3,2.799997,0.03465033,-0.07587734,-0.0169809,-1.469619,-0.7483797,-1.693252,-0.9972153,0.003296463,-0.09828012,0,8.121212,0.01964672,0.04772521,-0.02526763,-0.3689943,-1.426581,1.499917,0.02615958,0.01702088,-0.008130939,-1.188749,4.250385,0.2192666,-0.7964606,1.735255,-0.555774,294.8842,43.59226,160.8776
3,2.811108,0.02713891,-0.04808581,-0.005531556,-1.46994,-0.7481187,-1.693341,-0.9975887,-0.03414836,-0.0963309,0,5.69697,0.02487537,0.04453615,-0.03279229,-0.3686348,-1.424932,1.497854,0.02418152,0.01275478,0.00148635,-1.188434,4.250378,0.2189845,-0.7964545,1.735161,-0.55615,294.9966,43.60526,160.8807
3,2.822219,0.02284248,-0.0331654,-0.002464405,-1.469871,-0.7478204,-1.69364,-0.997503,0.008190301,-0.09386755,0,5.69697,0.01822468,0.03295638,-0.04983263,-0.3687397,-1.421704,1.494879,0.02643334,0.01493409,0.01530842,-1.187765,4.250483,0.2185699,-0.7964241,1.735053,-0.5567573,295.1516,43.68399,160.7427
3,2.83333,0.01108316,-0.0150331,0.00378738,-1.470348,-0.747618,-1.693395,-0.9973187,0.01677562,-0.09120958,0,5.69697,0.01617789,0.02868176,-0.04128509,-0.368312,-1.422203,1.494944,0.03398742,0.02144244,0.03226814,-1.186606,4.250814,0.2179275,-0.7964778,1.734849,-0.5573357,295.1692,43.90352,160.2428
3,2.844441,-0.003847487,-0.007625591,0.004849241,-1.470452,-0.7475286,-1.692992,-0.9975765,-0.02364312,-0.0880608,0,5.69697,0.01616884,0.02869899,-0.04340336,-0.3678459,-1.421219,1.493632,0.04253814,0.02901642,0.04282471,-1.18564,4.251299,0.216976,-0.7966906,1.734675,-0.557906,295.0918,43.92072,160.0697
3,2.855552,-0.01135748,-0.001325388,-0.0005138587,-1.470556,-0.7478071,-1.692615,-0.9971488,0.03941774,-0.08634941,0,7.030303,0.008719694,0.0298152,-0.0433188,-0.3675439,-1.419751,1.492411,0.04156207,0.02901977,0.05135775,-1.184717,4.251453,0.2164796,-0.7970146,1.734513,-0.5584305,295.014,43.89423,160.0782
3,2.866663,-0.004966345,0.004030878,0.0004597178,-1.470649,-0.7478039,-1.69302,-0.9970438,0.009292784,-0.08257311,0,7.030303,0.007648245,0.02556267,-0.04119547,-0.3672211,-1.41879,1.491459,0.03718793,0.02575636,0.03756236,-1.184694,4.251671,0.2162188,-0.7973996,1.734377,-0.5588766,294.9308,43.84715,160.1613
3,2.877774,0.005670564,0.01050858,0.004614854,-1.470958,-0.7473421,-1.6933,-0.9972111,-0.01529693,-0.07832649,0,7.030303,0.01201886,0.01371584,-0.02319547,-0.3674694,-1.419954,1.492283,0.03709704,0.01186644,0.01415032,-1.185427,4.251429,0.2158982,-0.7978038,1.734308,-0.5592456,294.8641,43.8404,160.2244
3,2.888885,0.0120406,0.008348344,-0.0006992025,-1.471038,-0.7471999,-1.693603,-0.9980617,-0.07756206,-0.07416122,0,7.030303,0.01751843,0.01998708,-0.009376203,-0.3670848,-1.420669,1.492777,0.04040953,-0.0115518,0.0003092922,-1.186036,4.250644,0.2156239,-0.7981939,1.734317,-0.5595149,294.8263,43.86402,160.2493
3,2.899997,0.007745104,0.01041331,-0.003878405,-1.471047,-0.7471008,-1.693388,-0.9980052,0.00584207,-0.0700844,0,7.030303,0.02606325,0.02204304,-0.008403856,-0.3668377,-1.419994,1.491606,0.04154754,-0.02006559,-0.001818053,-1.186253,4.25012,0.2153243,-0.7985473,1.73437,-0.5596852,294.8322,43.82117,160.3234
3,2.911108,-0.004006207,0.0156613,-0.005987789,-1.471314,-0.7470114,-1.692887,-0.9980415,-0.003429401,-0.0676515,0,6.909091,0.02382581,0.01359934,-0.01586028,-0.366664,-1.41957,1.490587,0.03950083,-0.01900432,0.006724465,-1.185846,4.249979,0.2149219,-0.7988366,1.73443,-0.5597682,294.8626,43.70588,160.4637
3,2.922219,-0.01147147,0.01881266,-0.00705877,-1.471555,-0.7472798,-1.692638,-0.9975455,0.04540664,-0.06181982,0,6.909091,0.02701019,0.01358327,-0.01695939,-0.3665437,-1.418966,1.489614,0.04483275,-0.01147307,0.01517793,-1.185351,4.250009,0.2142111,-0.7990908,1.734457,-0.5598426,294.9592,43.60582,160.5987
3,2.93333,-0.008282971,0.02632843,-0.0007437225,-1.471817,-0.7467765,-1.692574,-0.9972532,0.02633242,-0.05308162,0,6.909091,0.02802842,0.01999715,-0.02333015,-0.3662012,-1.417414,1.488152,0.04713311,-0.01675496,0.02581516,-1.184818,4.249518,0.2137956,-0.7993361,1.734509,-0.5599942,295.0157,43.54082,160.6982
3,2.944441,-0.005118833,0.03377779,-0.002972892,-1.472455,-0.7469437,-1.692755,-0.9975861,-0.03057334,-0.04318556,0,6.909091,0.02799762,0.01792406,-0.02758444,-0.3655982,-1.416784,1.486837,0.03972038,-0.01362622,0.03333855,-1.184327,4.24941,0.2136161,-0.799595,1.734622,-0.5602483,295.0446,43.51026,160.7352
3,2.955552,-0.0009457394,0.04542995,-0.01058182,-1.473302,-0.7474177,-1.692825,-0.9977906,-0.01837977,-0.03814156,0,8.484849,0.02907269,0.002944723,-0.0170243,-0.36606,-1.417265,1.486915,0.03547315,-0.0168732,0.03125791,-1.184104,4.249027,0.2135256,-0.7998522,1.734756,-0.5605639,295.0691,43.46965,160.7847
3,2.966663,0.003306979,0.04219748,-0.01484501,-1.47346,-0.747985,-1.692952,-0.9981427,-0.03203131,-0.02854491,0,8.484849,0.02600158,0.001807759,-0.003140576,-0.3662656,-1.418853,1.488427,0.03652152,-0.02859802,0.01741817,-1.184524,4.248426,0.2133314,-0.800037,1.734863,-0.560922,295.0817,43.37617,160.9025
3,2.977774,0.01930151,0.02939828,-0.02224271,-1.473277,-0.7484793,-1.693684,-0.9980947,0.004657385,-0.02413377,0,8.484849,0.03169767,0.01120078,0.02561584,-0.365692,-1.422221,1.491056,0.03646636,-0.04354861,-0.003862149,-1.185507,4.247525,0.2132604,-0.8002008,1.734904,-0.5612849,295.1141,43.34652,160.8806
3,2.988885,0.03105786,0.0080231,-0.03270692,-1.472565,-0.7489358,-1.694436,-0.9981363,-0.003890773,-0.01600669,0,8.484849,0.03487935,0.009035666,0.02664536,-0.3657191,-1.423406,1.491804,0.02798042,-0.06071852,-0.01865903,-1.186452,4.246289,0.2137024,-0.8003795,1.734857,-0.5615775,295.1178,43.35675,160.8024
3,2.999996,0.02463123,0.005771115,-0.04117167,-1.472461,-0.7496894,-1.694409,-0.9987062,-0.05208213,-0.01192288,0,8.484849,0.04021972,0.01433713,0.0244873,-0.3653942,-1.423852,1.491553,0.01937816,-0.05655834,-0.0217729,-1.186907,4.24585,0.2139496,-0.8005992,1.734727,-0.5617861,295.1136,43.43975,160.6939
3,3.011107,0.02685567,-0.01337106,-0.03883696,-1.471654,-0.7498742,-1.694726,-0.9987168,-0.0005755313,-0.00593067,0,8.848485,0.03922962,0.03465143,0.01608953,-0.3640147,-1.42325,1.490267,0.019436,-0.05334373,-0.01324655,-1.186624,4.245363,0.2138481,-0.8008804,1.734469,-0.561918,295.1583,43.55657,160.5834
3,3.022218,0.03225601,-0.03901418,-0.04709386,-1.470179,-0.7503765,-1.695373,-0.9978987,0.0747154,-0.001873347,0,8.848485,0.0410811,0.03260879,-0.007438564,-0.3642224,-1.4182,1.485268,0.03010803,-0.03828036,0.004728276,-1.185928,4.245338,0.2131445,-0.8012652,1.73407,-0.5620369,295.2093,43.64812,160.5149
3,3.033329,0.03762645,-0.05072125,-0.04805665,-1.469156,-0.7508431,-1.69592,-0.9980761,-0.01688488,-0.0001916181,0,8.848485,0.04620862,0.005905006,-0.006613112,-0.3656424,-1.416814,1.483702,0.03224846,-0.02545546,0.01959847,-1.185214,4.24523,0.2127474,-0.8017829,1.733649,-0.5622067,295.1458,43.69423,160.5221
3,3.04444,0.04192573,-0.05170292,-0.04167163,-1.468524,-0.7509075,-1.696536,-0.9984516,-0.03412657,0.003831226,0,8.848485,0.05040366,-0.006918933,-0.004596955,-0.3661942,-1.416984,1.483152,0.02908131,-0.0201508,0.02814514,-1.184607,4.245049,0.2126092,-0.8023348,1.733215,-0.5624225,295.0377,43.7768,160.5581
3,3.055551,0.04935657,-0.04420339,-0.04072808,-1.468254,-0.7513049,-1.697293,-0.9983477,0.009712603,0.008190652,0,8.848485,0.05700985,0.006823178,0.006055317,-0.365603,-1.417775,1.483044,0.02166013,-0.02770085,0.02290624,-1.184722,4.244442,0.2127895,-0.8028448,1.732764,-0.5627025,294.9406,43.97103,160.4888
3,3.066662,0.04825295,-0.03999666,-0.04503634,-1.467836,-0.7520037,-1.697712,-0.9983147,0.002917366,0.01259433,0,9.575758,0.05277755,0.01536364,0.005090374,-0.3653601,-1.418107,1.483217,0.02164527,-0.03624066,0.012265,-1.185142,4.243775,0.2127871,-0.8032749,1.7323,-0.5630103,294.8367,44.13551,160.3822
3,3.077773,0.04607484,-0.02613397,-0.04304861,-1.467975,-0.7524453,-1.698078,-0.9984425,-0.01175425,0.01482206,0,9.575758,0.05177514,0.01210747,0.01356998,-0.3655625,-1.417917,1.482612,0.02159807,-0.04478525,-0.001570093,-1.185802,4.243043,0.2128292,-0.8035998,1.73185,-0.5633299,294.7287,44.20585,160.3288
3,3.088884,0.04608664,-0.0218154,-0.03777444,-1.467818,-0.7527601,-1.698605,-0.9981102,0.03043202,0.01873659,0,9.575758,0.05075532,0.01318054,0.01573844,-0.365186,-1.419402,1.483255,0.02162104,-0.04905154,-0.003692193,-1.185974,4.242344,0.2128918,-0.8038259,1.731401,-0.5636151,294.6577,44.28943,160.231
3,3.099995,0.04821462,-0.02072279,-0.03673892,-1.467614,-0.7532101,-1.699097,-0.9979727,0.01231955,0.02103932,0,9.575758,0.05071027,0.01425935,0.01145564,-0.3651631,-1.418144,1.481676,0.02600237,-0.06072298,-0.004783792,-1.186302,4.241201,0.2128718,-0.8039879,1.730969,-0.5638397,294.6012,44.4179,160.0693
3,3.111106,0.03759389,-0.03359733,-0.04080227,-1.466767,-0.7536916,-1.699127,-0.9981033,-0.01201228,0.02509697,0,9.575758,0.05176235,0.01103449,0.0135648,-0.3652376,-1.419028,1.482093,0.02817174,-0.0574874,0.001585703,-1.18606,4.240651,0.2125354,-0.8041641,1.730661,-0.5640441,294.544,44.48392,159.9713
3,3.122217,0.02589206,-0.04006969,-0.04386651,-1.46612,-0.7542173,-1.699083,-0.9980904,0.001280336,0.02834689,0,9.575758,0.0517358,0.0121171,0.01037484,-0.3650651,-1.419015,1.481505,0.02606776,-0.05110241,0.01118384,-1.18572,4.240222,0.2125011,-0.8043343,1.730441,-0.5642013,294.5171,44.53075,159.9236
3,3.133328,0.01419311,-0.04330233,-0.04270472,-1.465467,-0.7545662,-1.698805,-0.9976313,0.04195804,0.03128123,0,9.575758,0.04734223,0.002551336,0.007134011,-0.3657553,-1.417343,1.480117,0.02495936,-0.04045013,0.01863567,-1.185288,4.240034,0.2123208,-0.8045141,1.730284,-0.564309,294.528,44.61611,159.8476
3,3.144439,0.005704621,-0.03683908,-0.03315982,-1.465265,-0.7548234,-1.69875,-0.9975455,0.00750929,0.03271858,0,9.575758,0.0515414,-0.00921822,0.009163595,-0.3663322,-1.418252,1.480301,0.02812945,-0.04148786,0.01540939,-1.185342,4.239439,0.2121882,-0.8047165,1.730197,-0.564405,294.5569,44.74941,159.7402
3,3.15555,0.002503331,-0.03686427,-0.03420842,-1.464787,-0.7551643,-1.698641,-0.9973485,0.01805586,0.03523912,0,9.575758,0.04420903,-0.01352472,0.02517302,-0.3667221,-1.419526,1.481505,0.02499802,-0.0511176,0.01119544,-1.185527,4.238523,0.2123546,-0.8049456,1.730175,-0.5644929,294.5874,44.86223,159.6515
3,3.166661,0.001431169,-0.03795045,-0.03630458,-1.464401,-0.7553518,-1.698637,-0.9976063,-0.02370943,0.03624451,0,8.484849,0.04529291,-0.009270784,0.02517975,-0.3666283,-1.420065,1.481629,0.02074073,-0.05649964,0.005918808,-1.185835,4.237708,0.2125927,-0.805169,1.730215,-0.5645604,294.5745,44.92002,159.6231
3,3.177772,0.0003979243,-0.05078498,-0.04041792,-1.463345,-0.7558195,-1.698548,-0.9976489,-0.003618228,0.03792727,0,8.484849,0.03144079,-0.00489717,0.02215443,-0.3665202,-1.420376,1.482052,0.01644939,-0.05868636,0.0006394875,-1.186164,4.236955,0.2128297,-0.8053592,1.730321,-0.5645887,294.5545,44.95142,159.6263
3,3.188883,0.0004532225,-0.05822407,-0.03819497,-1.462322,-0.7558759,-1.698736,-0.9977794,-0.01190324,0.03916096,0,8.484849,0.02193555,-0.005913738,0.02864039,-0.3663157,-1.42173,1.483103,0.01850479,-0.05973784,-0.00791111,-1.186768,4.236404,0.2127083,-0.8054975,1.730449,-0.5645783,294.5823,44.99621,159.6212
3,3.199994,0.004731825,-0.05709366,-0.03396814,-1.461688,-0.756032,-1.698924,-0.9977714,0.0008915626,0.03979974,0,8.484849,0.03055705,-0.002815314,0.03601898,-0.3661868,-1.423413,1.484057,0.01735123,-0.05869624,-0.01535839,-1.187317,4.235833,0.2127647,-0.8055856,1.73058,-0.5645585,294.645,45.04149,159.6143
3,3.211105,-0.003858328,-0.04332131,-0.03726693,-1.461557,-0.7564619,-1.698686,-0.9980228,-0.02299781,0.03997588,0,8.484849,0.03046485,-0.004951499,0.03064139,-0.3667988,-1.422209,1.48294,0.01734559,-0.05228674,-0.008976649,-1.187257,4.235545,0.2127053,-0.805631,1.73071,-0.5645924,294.7169,45.1307,159.586
3,3.222216,-0.01560827,-0.03590252,-0.03621178,-1.461356,-0.756619,-1.698029,-0.9980665,-0.003793824,0.03949513,0,8.484849,0.02602784,-0.01231518,0.01892932,-0.3672163,-1.421736,1.482394,0.01625366,-0.04270498,-0.00152677,-1.187138,4.235266,0.2125804,-0.8056197,1.730825,-0.5647451,294.7834,45.19976,159.5746
3,3.233327,-0.02624196,-0.02730673,-0.02559858,-1.461378,-0.7565444,-1.697381,-0.9976771,0.03563123,0.0370725,0,8.484849,0.02168005,-0.007940752,0.006233251,-0.3669607,-1.421379,1.48173,0.01515559,-0.03205165,0.006990975,-1.18676,4.235218,0.2124755,-0.8055592,1.730874,-0.5649863,294.8282,45.25986,159.5042
3,3.244438,-0.02516691,-0.02618428,-0.02134684,-1.461174,-0.756498,-1.697073,-0.9972265,0.04089646,0.03438979,0,8.484849,0.02365583,-0.02393969,0.003987216,-0.3679551,-1.421215,1.481593,0.01719971,-0.02564384,0.005890194,-1.186862,4.23505,0.2123269,-0.8055035,1.730898,-0.5653203,294.8394,45.31367,159.4056
3,3.255549,-0.01982197,-0.02397244,-0.01607222,-1.460991,-0.756457,-1.697009,-0.9972447,-0.001929583,0.03336681,0,8.484849,0.02695469,-0.03363618,0.01987985,-0.3685847,-1.423453,1.483269,0.01618843,-0.03525084,0.0005880776,-1.18715,4.234347,0.2124561,-0.8054559,1.730918,-0.565691,294.8017,45.37819,159.2762
3,3.26666,-0.01455628,-0.01223876,-0.01621892,-1.461152,-0.7565215,-1.69686,-0.9976755,-0.03925806,0.0321699,0,8.727273,0.02714179,-0.02732736,0.03376437,-0.3686763,-1.425949,1.485351,0.01303431,-0.04382393,-0.004698394,-1.187586,4.233483,0.2127533,-0.8053924,1.730964,-0.5660133,294.7205,45.45049,159.1304
3,3.277771,-0.01246873,0.0005764253,-0.01424134,-1.461568,-0.7566738,-1.696785,-0.9980121,-0.03038625,0.0317115,0,8.727273,0.004948616,0.02081418,0.02036687,-0.367267,-1.423163,1.483611,0.006704651,-0.05028896,-0.00569003,-1.187837,4.232686,0.2131996,-0.8052616,1.73099,-0.5661728,294.6629,45.53629,158.9952
3,3.288882,-0.01891483,0.01228085,-0.01327185,-1.462094,-0.7568715,-1.696172,-0.9979823,0.002941697,0.03082479,0,8.727273,-0.001404476,0.0326168,0.01410065,-0.3664792,-1.422421,1.482797,0.004541622,-0.04071806,0.001768379,-1.187676,4.232465,0.2132896,-0.8051019,1.731043,-0.5662314,294.6694,45.56476,158.9631
3,3.299993,-0.0242355,0.02409446,-0.002721773,-1.462801,-0.7566435,-1.695758,-0.9980569,-0.006890391,0.03015132,0,8.727273,0.001525956,0.01241888,0.002240149,-0.3670347,-1.421499,1.48183,0.003286057,-0.02155074,0.004949911,-1.18742,4.232835,0.2132345,-0.8049613,1.731155,-0.5662443,294.7193,45.53078,158.9982
3,3.311104,-0.02420141,0.02308902,0.002617506,-1.463028,-0.7564517,-1.695539,-0.9975451,0.04686468,0.02971722,0,9.090909,0.01409248,-0.01429181,-0.000159373,-0.3681532,-1.42204,1.481872,0.004126137,-0.004499677,0.00172074,-1.187407,4.233399,0.2129597,-0.8048755,1.731293,-0.5662066,294.7877,45.47979,159.0139
3,3.322215,-0.01884555,0.01242721,-0.0004821513,-1.46285,-0.7564762,-1.695518,-0.997675,-0.0122342,0.02866397,0,9.090909,0.01716893,-0.03564944,0.002866856,-0.3694263,-1.421932,1.48156,0.007477125,-0.01405132,0.00702524,-1.187331,4.232698,0.2131107,-0.8048784,1.731485,-0.5660983,294.8113,45.41304,159.0384
3,3.333326,-0.01243791,0.006038869,-0.002575071,-1.462709,-0.7565551,-1.695579,-0.9979312,-0.02324898,0.027659,0,9.090909,0.01840056,-0.03144947,0.01461434,-0.3693693,-1.424305,1.483372,0.01086176,-0.02785864,0.0102065,-1.187283,4.231865,0.213189,-0.8049689,1.731765,-0.5659867,294.8431,45.27145,159.211
3,3.344437,-0.0102819,-0.001425579,-0.004633454,-1.462576,-0.7566616,-1.6956,-0.998189,-0.02334139,0.02670782,0,9.090909,0.01333965,-0.005893685,0.02333417,-0.368434,-1.425817,1.48487,0.007653246,-0.02896781,0.008108173,-1.187389,4.231396,0.2134622,-0.8050786,1.732055,-0.5658421,294.8748,45.20368,159.3213
3,3.355548,-0.004991085,0.001744986,-0.008957538,-1.462651,-0.7569183,-1.695706,-0.9982833,-0.00847361,0.02634735,0,9.090909,0.003798989,0.01344395,0.01183487,-0.3671423,-1.425274,1.484107,0.01080331,-0.01826902,0.01551899,-1.186953,4.231443,0.2132225,-0.8051625,1.732274,-0.5656137,294.9197,45.22145,159.3408
3,3.366659,-0.007159703,0.00594409,-0.01432041,-1.462937,-0.7572991,-1.695628,-0.9982247,0.005366162,0.02554257,0,8.969697,0.001515525,0.01352659,-0.001973749,-0.3671615,-1.42455,1.483566,0.01170701,-0.003346839,0.01655042,-1.186717,4.231827,0.2129469,-0.805239,1.732415,-0.5653895,295.0005,45.20916,159.4072
3,3.37777,-0.0007530455,0.01030272,-0.008009701,-1.463216,-0.7571873,-1.695844,-0.9982865,-0.005731681,0.02521105,0,8.969697,0.01205016,-0.01000561,0.002047661,-0.3680531,-1.425029,1.483561,0.002025077,-0.004535302,0.005996187,-1.187003,4.231803,0.2132609,-0.80533,1.73247,-0.5652019,295.0708,45.17856,159.47
3,3.388881,0.005684766,0.008272218,-0.001623255,-1.463282,-0.756913,-1.696223,-0.9980963,0.01746309,0.02451425,0,8.969697,0.01843262,-0.01324976,0.0040938,-0.3682145,-1.425533,1.483729,-0.003231269,-0.01739362,-0.001392499,-1.187432,4.231121,0.2137517,-0.8054568,1.732451,-0.5650935,295.1004,45.15232,159.5121
3,3.399992,0.01101861,0.01046044,0.001521009,-1.463493,-0.7568097,-1.696544,-0.9982907,-0.01797549,0.02419121,0,8.969697,0.01958715,-0.00370116,0.007308445,-0.3681554,-1.425261,1.483408,-0.002105575,-0.02270767,-0.001396714,-1.187545,4.230659,0.2139067,-0.8056306,1.732389,-0.5650221,295.0537,45.14865,159.5076
3,3.411103,0.006746826,0.01364105,0.001510955,-1.463794,-0.756816,-1.696492,-0.998426,-0.01222011,0.02320702,0,8.969697,0.01107223,0.006025214,-0.001045658,-0.3672259,-1.425155,1.483077,6.968714E-05,-0.02481735,0.0007163747,-1.187518,4.230153,0.2139733,-0.8057966,1.732277,-0.5649685,294.9727,45.11265,159.5587
3,3.422215,0.005648904,0.01250757,-0.004858728,-1.463983,-0.7570818,-1.696405,-0.9983536,0.006666791,0.02266929,0,6.545455,-0.002811251,0.01575997,-0.01043296,-0.3667546,-1.423778,1.482315,-0.002172444,-0.007795473,0.008170469,-1.187125,4.230552,0.213838,-0.8059071,1.732103,-0.5648701,294.8848,45.10514,159.5739
3,3.433326,0.005647916,0.01143051,-0.005912142,-1.464087,-0.7572011,-1.696428,-0.9979482,0.03698479,0.022385,0,6.545455,-0.002809817,0.01584004,-0.007261812,-0.3651061,-1.422481,1.481664,-0.003395935,0.007107084,0.009228117,-1.18685,4.231155,0.2136958,-0.8060018,1.73194,-0.564823,294.8434,45.07705,159.6265
3,3.444437,0.008811343,0.01675522,-0.00704886,-1.464389,-0.7572741,-1.696556,-0.9978918,0.004808544,0.02184993,0,6.545455,-0.001799294,0.003032444,-0.004145345,-0.3655199,-1.422763,1.481918,-0.003494349,0.0124318,0.004965296,-1.186823,4.231518,0.2135144,-0.8060985,1.731834,-0.5647923,294.7765,45.11685,159.5421
3,3.455548,0.01305788,0.01889167,-0.008159881,-1.464667,-0.7574456,-1.696831,-0.9979935,-0.009278314,0.02157683,0,6.545455,0.002351121,-0.02148018,-0.001113489,-0.3661239,-1.423658,1.482178,-0.002400895,0.007113446,0.001765381,-1.186939,4.231425,0.2135536,-0.8062295,1.731802,-0.5647033,294.7288,45.19899,159.3936
3,3.466659,0.02053305,0.01467512,-0.007082828,-1.464689,-0.7574408,-1.697217,-0.9981043,-0.01002704,0.02089232,0,6.666667,0.007657874,-0.02792497,0.001997304,-0.3666555,-1.424389,1.482713,-0.001336543,-0.003543476,-0.01101235,-1.187531,4.231085,0.2135781,-0.8064036,1.731858,-0.5645917,294.7226,45.20364,159.3804
3,3.47777,0.02162738,0.01044233,-0.004910687,-1.46466,-0.7574366,-1.697515,-0.9982604,-0.01423984,0.02056534,0,6.666667,0.009969316,-0.004486116,0.003171358,-0.3654571,-1.424573,1.482599,-0.003414326,-0.01102853,-0.01417745,-1.187875,4.230726,0.2138082,-0.8066059,1.731981,-0.5644166,294.7224,45.16128,159.4343
3,3.488881,0.02056296,0.008298375,-0.00594299,-1.464702,-0.7574989,-1.697639,-0.9983376,-0.006966603,0.01974385,1,6.666667,0.008964973,-0.0002416596,0.0064114,-0.3653676,-1.425558,1.483499,-0.005558867,-0.006790171,-0.01096305,-1.187825,4.230751,0.2138979,-0.8068032,1.732102,-0.5641977,294.7619,45.08958,159.5585
3,3.499992,0.01311605,0.00721371,-0.004827156,-1.464739,-0.7575148,-1.697533,-0.9208625,6.972971,0.0189073,1,6.666667,-0.0005449438,0.01050608,0.00445045,-0.364631,-1.425669,1.483599,-0.008760504,0.000640891,-0.003481951,-1.18755,4.230973,0.2139344,-0.8088694,1.729166,-0.5654151,297.7555,44.47687,159.9146
3,3.511103,0.009918544,0.0007628258,-0.009009215,-1.464522,-0.7578883,-1.697384,-0.8432186,6.988121,0.01852906,1,6.666667,-0.002686414,0.01486721,0.0002395407,-0.363416,-1.42512,1.483131,-0.006638679,0.007064872,0.002880399,-1.187247,4.231231,0.2138361,-0.8146887,1.720408,-0.5697808,299.7205,42.86724,161.1072
3,3.522214,0.01527612,-0.008820901,-0.01106462,-1.464114,-0.7580944,-1.697752,-0.7653419,7.009146,0.0178649,1,7.515152,-0.00286773,0.005336717,-0.01046308,-0.3637308,-1.423802,1.481933,-0.00445125,0.01243064,0.01457024,-1.186603,4.231439,0.213728,-0.8245195,1.704281,-0.577404,298.5854,41.95064,161.9623
3,3.533325,0.01100334,-0.003488999,-0.008971107,-1.464224,-0.7581631,-1.697709,-0.6874514,7.009985,0.01711984,1,7.515152,0.003527563,0.005292437,-0.01049392,-0.3636552,-1.425153,1.482824,-0.00551327,0.01774979,0.02096788,-1.186075,4.231668,0.213741,-0.8372493,1.680271,-0.5870049,293.8575,42.05008,162.303
3,3.544436,0.008850019,0.01044235,-0.0005923627,-1.464814,-0.7579463,-1.697632,-0.6155226,6.472852,0.01623499,1,7.515152,-0.0007757563,0.006428098,-0.01362969,-0.3631763,-1.424763,1.48283,-0.003434073,0.01670128,0.01455958,-1.186092,4.231822,0.2136558,-0.8482678,1.652416,-0.59477,284.964,49.05618,156.6061
3,3.555547,0.003513155,0.02329735,0.007815287,-1.465519,-0.7576832,-1.697513,-0.5522549,5.695065,0.01581703,1,7.515152,-0.002925058,0.005383251,-0.01467752,-0.3631732,-1.424189,1.482414,-0.005582944,0.01454101,0.01032258,-1.186074,4.231954,0.2137514,-0.8515815,1.642355,-0.5991684,280.9855,58.21303,148.3812
3,3.566658,-0.001781882,0.0233465,0.01423631,-1.465786,-0.7573375,-1.69733,-0.4980772,4.875786,0.01495264,1,6.909091,-0.01027706,0.004306849,-0.003939928,-0.363211,-1.425542,1.484095,-0.003434878,0.0124355,0.01030238,-1.185961,4.232037,0.2137754,-0.8489963,1.640875,-0.6002753,282.6913,70.15611,136.7785
3,3.577769,-0.0006929841,0.01910193,0.01534326,-1.465897,-0.7571324,-1.697382,-0.4499043,4.335589,0.01446297,1,6.909091,-0.00798896,0.01920562,-0.0006860434,-0.362208,-1.425847,1.484121,-0.001227282,0.002868576,0.007096576,-1.186066,4.23172,0.2138276,-0.8425889,1.644111,-0.5974936,288.9662,71.37751,136.1946
3,3.58888,-0.003833051,0.0009359736,0.01236857,-1.465158,-0.756995,-1.697198,-0.4083201,3.742604,0.01347678,1,6.909091,-0.003855838,0.007501131,-0.005055147,-0.3622373,-1.425059,1.483299,-0.002488496,0.01136424,-0.002488526,-1.186308,4.232206,0.213748,-0.8340127,1.648785,-0.5917861,296.4147,64.21577,141.9921
3,3.599991,-0.005931828,-0.006529533,0.01246234,-1.464842,-0.756816,-1.697082,-0.3729123,3.186334,0.01270815,1,6.909091,-0.0008973256,-0.01164474,-0.01477697,-0.3630443,-1.42391,1.482139,0.001779883,0.01354731,0.0006620353,-1.186141,4.232415,0.2134942,-0.8264146,1.652117,-0.5859264,303.4704,60.66216,145.0066
3,3.611102,-0.01121418,-0.008647585,0.01678178,-1.464591,-0.7563207,-1.697021,-0.3421091,2.772784,0.01237852,1,6.909091,0.002216974,-0.01590053,-0.01907998,-0.3633015,-1.423747,1.481896,0.00497365,0.01145111,-0.001499053,-1.186184,4.232544,0.2133131,-0.8271663,1.652595,-0.5864637,302.9149,60.56642,144.9276
3,3.622213,-0.01013632,-0.007563289,0.01890288,-1.464465,-0.7559148,-1.697096,-0.3158866,2.359799,0.01185827,1,6.545455,-0.001922948,-0.008448038,-0.01260372,-0.3631444,-1.423925,1.482216,0.005096218,0.006133517,0.004903723,-1.185901,4.232355,0.2133605,-0.8389208,1.650918,-0.5957369,292.9057,64.44233,141.3715
3,3.633324,-0.005910675,0.002053484,0.01983966,-1.46482,-0.7556858,-1.697208,-0.2923932,2.114385,0.0114316,1,6.545455,-0.0007048007,0.01177352,-0.01143705,-0.362346,-1.423892,1.482143,0.007269049,0.006163117,0.009143427,-1.185653,4.232364,0.2132236,-0.8490641,1.649681,-0.6000006,285.7563,64.073,142.6356
3,3.644435,-0.004892439,0.02130633,0.02601743,-1.465816,-0.755256,-1.697251,-0.2722214,1.815295,0.01117956,1,6.545455,-0.0007729083,0.0128981,-0.01995242,-0.361987,-1.422319,1.480468,0.009358051,0.009382357,0.00911757,-1.185528,4.232573,0.2130281,-0.8559692,1.649493,-0.6011398,282.6376,60.37798,147.2268
3,3.655546,-0.0007131873,0.04049826,0.02578263,-1.466928,-0.7551249,-1.697388,-0.2548262,1.565556,0.01110098,1,6.545455,-0.01364783,-0.00619645,-0.01670205,-0.3626405,-1.422884,1.481515,0.008312537,0.01043937,0.01232273,-1.185268,4.232692,0.2129336,-0.8606282,1.649519,-0.6010851,281.1824,58.00163,150.5779
3,3.666657,0.001369661,0.0543758,0.02775144,-1.467958,-0.7548261,-1.697514,-0.239742,1.357765,0.01097123,0,4.242424,-0.01467483,-0.0115568,-0.009255091,-0.3629793,-1.423725,1.482577,0.007298638,0.006165495,0.01233891,-1.185142,4.232566,0.212896,-0.8620325,1.649595,-0.600631,279.7922,46.97258,162.0824
3,3.677768,0.008908375,0.02878267,0.02267037,-1.467401,-0.7546653,-1.697883,-0.2204384,1.737082,0.008007288,0,4.242424,-0.01352144,-0.01262878,-0.000729529,-0.3624562,-1.425285,1.483977,0.002960667,0.008240855,0.007052744,-1.185209,4.232775,0.2129416,-0.8585104,1.651994,-0.6039584,283.3993,38.05968,164.2237
3,3.688879,0.01533105,0.009537056,0.01432963,-1.466728,-0.7546871,-1.698155,-0.2029078,1.57787,0.004519006,0,4.242424,-0.01133525,-0.001983534,-0.002824174,-0.3621888,-1.425075,1.483759,0.003876757,0.007169601,-0.008932818,-1.185795,4.233002,0.2128049,-0.8577194,1.652651,-0.606828,284.0405,52.26331,150.2982
3,3.69999,0.01538023,-0.003257446,0.01340627,-1.466265,-0.7545087,-1.698345,-0.1880096,1.340471,-0.003791489,0,4.242424,-0.01353902,-0.0008210465,-0.01236043,-0.3617627,-1.424649,1.483175,0.001744777,0.008211751,-0.007847585,-1.185818,4.233149,0.2127991,-0.8581834,1.652887,-0.6091046,284.9688,55.85446,147.5055
3,3.711101,0.01004558,-0.003301056,0.01130551,-1.46629,-0.7544304,-1.698289,-0.1749265,1.17773,-0.009987206,0,4.242424,-0.0231985,0.006738689,-0.02179935,-0.3617212,-1.423269,1.482766,-0.003641618,0.02201163,0.001777139,-1.185316,4.233809,0.2127344,-0.8591588,1.652517,-0.609804,284.4033,57.73471,146.3473
3,3.722212,0.01109104,0.007416224,0.01650278,-1.466819,-0.7541944,-1.698455,-0.1636257,1.017224,-0.02755569,0,5.090909,-0.02856309,0.007863225,-0.02599705,-0.3616296,-1.422,1.482079,-0.001514006,0.0230991,0.002816809,-1.185274,4.234044,0.2125932,-0.8605336,1.652367,-0.6100283,283.6464,57.09238,147.4718
3,3.733323,0.002534224,0.0309573,0.02906941,-1.468031,-0.7535633,-1.698254,-0.1562594,0.6631988,-0.05376946,0,5.090909,-0.02529256,0.01208975,-0.0228127,-0.361278,-1.421619,1.481729,-0.00047292,0.03164175,0.01025408,-1.184801,4.234625,0.2123362,-0.8619233,1.65232,-0.6100741,282.8485,54.88118,149.8788
3,3.744434,-0.004973525,0.04802435,0.03424644,-1.469074,-0.7531356,-1.697957,-0.150663,0.5032018,-0.08639979,0,5.090909,-0.02213794,0.006740715,-0.02287036,-0.3614304,-1.421141,1.481458,-0.0004400918,0.03484465,0.01770911,-1.184265,4.235032,0.2122241,-0.8629649,1.652372,-0.6100937,282.2217,52.33031,152.3975
3,3.755545,-0.0135367,0.0575754,0.03418411,-1.470081,-0.7528841,-1.697564,-0.145375,0.4766421,-0.1019871,0,5.090909,-0.02122359,-0.0007149056,-0.03038489,-0.3622272,-1.419265,1.480183,-0.001487794,0.03696778,0.02197839,-1.183788,4.235447,0.212108,-0.8636174,1.652437,-0.6103196,281.7303,50.84763,153.7625
3,3.766656,-0.01247892,0.05757036,0.03311722,-1.47073,-0.7525795,-1.697494,-0.1410735,0.3869435,-0.126552,0,5.090909,-0.02551037,-0.00708976,-0.02930716,-0.3626421,-1.418531,1.479838,-0.0004441999,0.03697895,0.01984153,-1.183508,4.235849,0.2119405,-0.8638804,1.652451,-0.6107345,281.3699,50.84495,153.6256
3,3.777767,-0.01244337,0.04797152,0.03215841,-1.470978,-0.75227,-1.697361,-0.137426,0.3283318,-0.1330564,0,4.606061,-0.02217423,-0.001803549,-0.02080103,-0.3621026,-1.418258,1.479607,-0.002607784,0.03161748,0.01028078,-1.183661,4.236087,0.2119535,-0.8652308,1.653058,-0.6120794,282.672,51.68663,154.1546
3,3.788878,-0.002772752,0.0277513,0.03019572,-1.470666,-0.7520692,-1.697805,-0.1333232,0.3687741,0,0,4.606061,-0.02219058,-0.001830395,-0.01973077,-0.3624189,-1.418066,1.480054,-0.002665002,0.02520814,-0.002489391,-1.183995,4.236171,0.2120153,-0.8659204,1.652891,-0.6119152,282.4869,50.69065,155.5423
3,3.799989,0.003641786,0.01600161,0.02496669,-1.470455,-0.7519392,-1.698077,-0.1293204,0.3605234,0,0,4.606061,-0.01902357,-0.001841703,-0.02189251,-0.3624685,-1.417174,1.479417,-0.003726711,0.02306306,-0.004607208,-1.184075,4.236402,0.2120087,-0.8664706,1.652864,-0.611831,282.2352,49.07133,157.1772
3,3.8111,0.006899469,0.002172714,0.02509883,-1.470165,-0.7516778,-1.698306,-0.1264378,0.2585852,0,0,4.606061,-0.01360195,0.0002129413,-0.01448283,-0.3623875,-1.417391,1.479578,-0.005797134,0.01343334,-0.009905627,-1.184468,4.236143,0.2122137,-0.8667663,1.652853,-0.6118642,282.0391,47.74564,158.3376
3,3.822211,0.01014413,-0.007392608,0.02624925,-1.469821,-0.7513502,-1.698568,-0.1233315,0.2801687,0,0,6.909091,-0.0178356,0.004493877,-0.01547963,-0.3624024,-1.41685,1.479317,-0.007857841,0.008088578,-0.008807166,-1.184406,4.236135,0.2123783,-0.8668778,1.652866,-0.6120458,281.8601,47.06912,158.7823
3,3.833322,0.008019986,-0.01276325,0.02312374,-1.469523,-0.7511765,-1.698606,-0.1270781,-0.3371733,0,0,6.909091,-0.02103679,0.01200038,-0.02073302,-0.3620317,-1.415563,1.478453,-0.006677971,0.008113877,0.002900094,-1.183959,4.236142,0.2124145,-0.8670081,1.652753,-0.6123974,281.5983,47.27872,158.4569
3,3.844433,0.008033287,-0.01490455,0.02205641,-1.469318,-0.7513379,-1.698809,-0.1312129,-0.3722025,0,0,6.909091,-0.02101004,0.01197715,-0.01859179,-0.3620972,-1.415624,1.478702,-0.003465307,0.01242165,0.009262855,-1.183499,4.236432,0.2121884,-0.866887,1.652687,-0.6125954,281.5526,48.30887,157.4501
3,3.855544,0.01338065,-0.02236232,0.01998124,-1.468854,-0.7511243,-1.699166,-0.1346553,-0.3095603,0,0,6.909091,-0.01024888,0.006478432,-0.00384287,-0.3625265,-1.416051,1.479109,-0.003559351,0.01881066,0.007126003,-1.183397,4.236883,0.2120563,-0.866722,1.652607,-0.6128048,281.5625,49.8407,156.0373
3,3.866655,0.01875745,-0.0254804,0.02531455,-1.468481,-0.7506253,-1.699735,-0.1379816,-0.2997636,0,0,6.909091,-0.003797849,0.01283918,-0.004931587,-0.362029,-1.416186,1.478693,-0.005654043,0.01346088,0.005027507,-1.183359,4.236861,0.2122531,-0.8665224,1.652552,-0.612864,281.6584,50.83259,155.1217
3,3.877766,0.01768492,-0.0276509,0.02214807,-1.468124,-0.7504277,-1.699924,-0.1408205,-0.2555683,0,0,6.181818,-0.007185305,0.008677104,-0.01983145,-0.3621356,-1.414107,1.476931,-0.002363014,0.0124416,0.01351925,-1.182895,4.23684,0.2121706,-0.8663327,1.652552,-0.6127326,281.8244,51.02219,154.9548
3,3.888877,0.01554987,-0.02340392,0.02207939,-1.467902,-0.7506647,-1.700174,-0.141213,-0.03550001,0,0,6.181818,-0.009442585,0.003447266,-0.02941001,-0.36184,-1.4126,1.475507,0.003930413,0.01570506,0.007057569,-1.183006,4.237195,0.2117477,-0.8662205,1.652631,-0.6125565,281.9887,51.03075,155.015
3,3.899988,0.01557393,-0.02874031,0.02106872,-1.467456,-0.7504612,-1.700466,-0.1407736,0.04019011,0,0,6.181818,-0.006186267,0.005527655,-0.02516485,-0.3617974,-1.41264,1.475519,0.003867315,0.01783106,0.002801661,-1.182955,4.237469,0.2115775,-0.8662757,1.652648,-0.6125877,281.9764,51.40073,154.7619
3,3.911099,0.01454783,-0.03403534,0.02432905,-1.466946,-0.7500202,-1.700643,-0.1407188,0.004543557,0,0,6.181818,-0.004094027,0.009836158,-0.03155819,-0.3611257,-1.410883,1.473857,0.001742407,0.01460753,-0.0003701741,-1.183061,4.23756,0.2115996,-0.8662877,1.652646,-0.6126102,281.971,51.5484,154.6505
3,3.92221,0.017737,-0.0318981,0.02322313,-1.466775,-0.7497885,-1.701083,-0.1406266,0.008353496,0,0,4.121212,-0.006211096,0.003423931,-0.02623428,-0.361424,-1.410873,1.473993,-0.0003183414,0.01032454,0.001785252,-1.182975,4.237507,0.2116896,-0.8662975,1.652639,-0.6125987,281.9639,51.35923,154.8053
3,3.933321,0.01984485,-0.03301361,0.01789788,-1.466352,-0.7497118,-1.701388,-0.1347251,0.5313457,0,0,4.121212,-0.006094607,0.002317644,-0.01452526,-0.3611609,-1.411379,1.474612,-0.003492978,0.002826597,-0.004566944,-1.18322,4.237381,0.2118915,-0.8663303,1.652737,-0.6126655,281.9467,51.47496,154.7049
3,3.944432,0.02731867,-0.03079514,0.02315518,-1.466094,-0.7493219,-1.70196,-0.1293125,0.4866432,0,0,4.121212,-0.008137859,0.003358237,-0.007036851,-0.3610591,-1.412002,1.475363,-0.004708149,0.009202966,-0.01201886,-1.183527,4.237873,0.211863,-0.8665371,1.652753,-0.6129612,281.7435,51.96741,154.2651
3,3.955544,0.02408545,-0.02336396,0.02202362,-1.466085,-0.7491201,-1.702151,-0.1242455,0.456368,0,0,4.121212,-0.01546187,0.02477896,-0.01108482,-0.3595086,-1.412038,1.475312,0.0006618476,0.01353492,-0.002487334,-1.183211,4.238098,0.2116047,-0.8667285,1.652743,-0.613303,281.5248,52.72767,153.5735
3,3.966655,0.01981137,-0.01807668,0.02092105,-1.465933,-0.748916,-1.702451,-0.1201698,0.3664152,0,0,4.121212,-0.01768447,0.02056119,-0.01640663,-0.3594287,-1.411024,1.474686,-0.001432866,0.01458495,0.002859374,-1.182919,4.23832,0.2116393,-0.8668957,1.652701,-0.6135713,281.3509,53.32174,153.0429
3,3.977766,0.01449399,-0.01377901,0.02622729,-1.466002,-0.7484356,-1.702472,-0.1161442,0.3629611,0,0,5.454545,-0.01036827,0.005597966,-0.01762992,-0.3599864,-1.41042,1.474298,0.001779505,0.01675644,0.007087396,-1.182635,4.238548,0.2114166,-0.867068,1.652654,-0.6138254,281.1688,53.85476,152.5602
3,3.988877,0.01768764,-0.0137765,0.02516739,-1.465921,-0.7478156,-1.702902,-0.1167588,-0.055715,0,0,5.454545,-0.007247744,0.003473224,-0.02300077,-0.3600754,-1.409241,1.473187,0.000793796,0.01355617,0.01135997,-1.182408,4.238602,0.2113826,-0.8673528,1.652496,-0.6141969,280.8746,54.76278,151.757
3,3.999988,0.01984188,-0.01801652,0.02626894,-1.465622,-0.7474343,-1.703233,-0.1174294,-0.059841,0,0,5.454545,-0.00192491,-0.008295048,-0.01671292,-0.3602825,-1.409985,1.473542,0.003050147,0.0007956899,0.009220493,-1.182472,4.238127,0.211422,-0.867476,1.652395,-0.614448,280.748,55.95627,150.7351
3,4.011099,0.02201821,-0.02114152,0.03162178,-1.465389,-0.7468345,-1.703689,-0.1186864,-0.1139191,0,0,5.454545,-0.007120527,-0.001926668,-0.007043413,-0.3602117,-1.410449,1.474543,0.001006335,-0.007750118,0.008184734,-1.182521,4.23772,0.2116222,-0.8675029,1.652304,-0.614686,280.6845,57.32146,149.5259
3,4.02221,0.02628813,-0.0221616,0.0337394,-1.465228,-0.7464142,-1.704047,-0.1194252,-0.06608451,0,0,4.363636,-0.01231296,0.01193861,-0.003715073,-0.3596141,-1.410678,1.475073,-0.003236289,-0.01206306,0.005033896,-1.182641,4.237427,0.2119181,-0.8673985,1.652258,-0.6149102,280.7175,58.91354,148.0797
3,4.033321,0.02199431,-0.02225075,0.02737012,-1.464978,-0.746296,-1.704154,-0.117079,0.2109392,0,0,4.363636,-0.01340358,0.01514699,-0.006892556,-0.3595513,-1.409704,1.474527,-0.003375157,-0.003538209,0.0007660283,-1.182652,4.23789,0.211781,-0.8671751,1.652266,-0.6150173,280.8577,60.055,147.0137
3,4.044433,0.01455064,-0.02331663,0.02955986,-1.464842,-0.7457511,-1.704085,-0.1145133,0.2310895,0,0,4.363636,-0.01446851,0.01514747,-0.006872044,-0.3595033,-1.40982,1.474831,-0.00236077,-0.002464236,-0.003502765,-1.182782,4.237961,0.2116877,-0.8670459,1.652258,-0.6151595,280.9265,61.00569,146.1152
3,4.055544,0.01132207,-0.02340126,0.02318508,-1.46458,-0.7456872,-1.704101,-0.1120972,0.2177363,0,0,4.363636,-0.01770202,0.009842454,-0.007931433,-0.3596722,-1.409414,1.474599,-0.003441145,-0.001415054,-0.003499703,-1.18294,4.237941,0.2118308,-0.8670079,1.652233,-0.6152812,280.9402,61.70938,145.4668
3,4.066655,0.01132803,-0.02555023,0.02214806,-1.464179,-0.7453634,-1.704337,-0.1099918,0.1896475,0,0,4.363636,-0.01337683,0.007640273,-0.0005282718,-0.3597222,-1.410315,1.475471,-0.005591352,-0.0003685576,-0.0045456,-1.182988,4.238085,0.2118763,-0.8671197,1.652167,-0.6154144,280.8561,62.25392,145.0039
3,4.077766,0.01345767,-0.02661831,0.02108366,-1.463866,-0.7451195,-1.7046,-0.108527,0.1314832,0.02996918,0,3.151515,-0.0144174,0.01078877,-0.002628585,-0.3604471,-1.410362,1.475314,-0.007666581,-0.002520384,-0.001327582,-1.182922,4.237977,0.2120768,-0.8672901,1.652096,-0.6155676,280.7349,62.83407,144.5282
3,4.088878,0.01343664,-0.02447011,0.02104961,-1.463968,-0.7450315,-1.704586,-0.1040465,0.403078,0.02969075,0,3.151515,-0.01871984,0.01722777,-0.00895131,-0.3602884,-1.408921,1.474567,-0.01197468,0.005957252,0.004028984,-1.182676,4.238328,0.2122209,-0.867407,1.652096,-0.6156986,280.6599,63.34061,144.1084
3,4.099989,0.01239322,-0.0244272,0.02531599,-1.463758,-0.7445762,-1.704733,-0.09963205,0.3973806,0.03202567,0,3.151515,-0.02289185,0.01828517,-0.001442861,-0.3600471,-1.409499,1.475506,-0.01194823,0.008092757,0.009353436,-1.182333,4.238465,0.2122917,-0.8676071,1.652034,-0.6159762,280.4827,64.18108,143.338
3,4.1111,0.00705359,-0.02341892,0.02213863,-1.463575,-0.7443866,-1.704761,-0.09547805,0.3742613,0.03375499,0,3.151515,-0.01539464,0.01069973,0.008014762,-0.3605734,-1.410471,1.476475,-0.009819936,0.003847361,0.004007109,-1.18258,4.238318,0.2123482,-0.8677499,1.65196,-0.6161854,280.3426,64.69917,142.838
3,4.122211,0.003840419,-0.01917298,0.02210565,-1.463514,-0.7441794,-1.70475,-0.0922274,0.2922261,0.0370338,0,3.151515,-0.002629163,0.004186768,0.0120981,-0.3608727,-1.411109,1.476927,-0.001314787,-0.002452981,-0.00565911,-1.183061,4.238181,0.212091,-0.8678607,1.651907,-0.6163153,280.2171,64.79906,142.6968
3,4.133323,0.001670168,-0.01390371,0.01779732,-1.46359,-0.7439871,-1.704799,-0.08928674,0.2648612,0.04102411,0,3.757576,0.0004072003,-0.006452947,0.00454221,-0.3613942,-1.410117,1.475913,-0.001263721,-0.007780107,-0.006719968,-1.183233,4.237925,0.2122127,-0.8680183,1.651843,-0.6165076,280.0609,65.25298,142.2489
3,4.144434,0.001638282,-0.0107444,0.01456576,-1.46359,-0.7439184,-1.704799,-0.08838712,0.08094168,0.04465915,0,3.757576,-0.01239252,0.002189928,-0.002727699,-0.3612029,-1.409501,1.475856,-0.003241571,-0.01418293,0.001828794,-1.182929,4.237518,0.2125123,-0.8682421,1.651725,-0.616765,279.8729,66.1562,141.4302
3,4.155545,0.004813804,-0.005390029,0.01662368,-1.463627,-0.7435972,-1.70488,-0.08792906,0.04112808,0.0462914,0,3.757576,-0.02616115,0.02042391,-0.007825145,-0.3603486,-1.407953,1.475061,-0.008500434,-0.01210469,0.01146517,-1.182487,4.237338,0.2128651,-0.8693602,1.652503,-0.6186523,281.061,61.34194,146.4759
3,4.166656,-0.002636444,-0.002173387,0.0208812,-1.463824,-0.7433304,-1.704619,-0.08748324,0.04018845,0.04982044,0,3.757576,-0.0281713,0.02894323,-0.003483858,-0.3596567,-1.408708,1.475938,-0.01393155,0.001683281,0.01683611,-1.181965,4.237742,0.2129978,-0.8694264,1.652394,-0.6190974,280.8457,61.8912,145.7191
3,4.177768,-0.009008011,0.002143575,0.02832348,-1.464061,-0.7427913,-1.704357,-0.08717804,0.02738411,0.05107143,0,4.121212,-0.02049454,0.0319957,0.01455902,-0.3591193,-1.410925,1.477955,-0.01309871,0.01660277,0.01042232,-1.181908,4.238514,0.2128223,-0.8692941,1.652273,-0.619525,280.7629,63.48522,144.0436
3,4.188879,-0.02071929,0.003188819,0.03156859,-1.46408,-0.7423311,-1.703712,-0.08766274,-0.04310231,0.05329135,0,4.121212,-0.01543323,0.009591847,0.006879647,-0.3603768,-1.408307,1.475913,-0.003564965,0.01777435,0.006061335,-1.182075,4.238785,0.2124113,-0.8690568,1.652218,-0.6197258,280.8704,64.82909,142.7295
3,4.19999,-0.02393513,0.005282084,0.02943102,-1.464243,-0.7421032,-1.703358,-0.08845796,-0.07175178,0.05548475,0,4.121212,-0.01767705,-0.003169794,0.004713073,-0.360877,-1.408529,1.476411,-0.003540473,0.0156439,0.006063079,-1.181988,4.238874,0.2124252,-0.8688899,1.652147,-0.6198093,280.9962,65.89977,141.7715
3,4.211102,-0.02714404,0.008464759,0.02941193,-1.46448,-0.741832,-1.702991,-0.08886968,-0.03660376,0.0565812,0,4.121212,-0.01125284,-0.006434684,0.008872313,-0.3610543,-1.408537,1.476246,-0.004578198,0.008166515,0.0007535539,-1.182168,4.238624,0.2127554,-0.8688161,1.652086,-0.6198517,281.0959,66.78231,141.0536
3,4.222213,-0.04104875,0.02760459,0.0324699,-1.465309,-0.7414331,-1.702278,-0.0898444,-0.08837657,0.0592944,0,4.121212,-0.01016864,-4.774239E-05,0.006772347,-0.3609105,-1.408934,1.476743,-0.004592264,0.00496587,-0.004570056,-1.182423,4.238619,0.2128087,-0.8688486,1.651981,-0.6199167,281.1008,67.49211,140.4838
3,4.233324,-0.05505677,0.0648289,0.03212716,-1.46728,-0.7413649,-1.701213,-0.09046012,-0.05519411,0.0599641,0,4.484848,-0.02296289,0.004295517,0.004778792,-0.3609696,-1.407848,1.476728,-0.0002661931,0.001824472,-0.001413573,-1.182343,4.238557,0.2126771,-0.8688679,1.651912,-0.6199657,281.1194,68.0806,140.02
3,4.244435,-0.06477118,0.09891269,0.03499442,-1.469561,-0.7411657,-1.700237,-0.09160209,-0.1023039,0.06104133,0,4.484848,-0.03019375,0.01918657,0.01770776,-0.3603992,-1.409033,1.478703,-0.004457803,-0.006748034,-0.004562345,-1.182556,4.238217,0.2129791,-0.8688786,1.651833,-0.6200446,281.1286,68.73172,139.4736
3,4.255547,-0.06691866,0.1085832,0.03694627,-1.47188,-0.7422715,-1.699606,-0.09269558,-0.098182,0.06138764,0,4.484848,-0.03005187,0.02767124,0.02520638,-0.3597568,-1.410406,1.480332,-0.007712128,-0.007856875,-0.01198773,-1.182959,4.238167,0.2131927,-0.8688172,1.651755,-0.6201332,281.1846,69.55679,138.7554
3,4.266658,-0.06265797,0.1032271,0.03272366,-1.472818,-0.7421761,-1.699061,-0.09402983,-0.1204316,0.06166777,0,4.484848,-0.02591736,0.01917398,0.01659925,-0.3596796,-1.410096,1.479784,-0.003466095,-0.001408436,-0.005638623,-1.182698,4.238369,0.2130228,-0.8686792,1.651667,-0.6202331,281.2967,70.58111,137.8484
3,4.277769,-0.05827099,0.0647985,0.02133995,-1.4725,-0.7433612,-1.698856,-0.09563038,-0.1446456,0.06157063,0,4.121212,-0.01871957,-0.0042712,0.007879975,-0.360576,-1.409689,1.479365,-0.001331867,0.001815669,-0.001400571,-1.182531,4.238479,0.2129253,-0.8684848,1.65154,-0.6202837,281.3974,71.09358,137.3213
3,4.28888,-0.05390059,0.02742702,0.01214526,-1.471482,-0.743399,-1.698416,-0.09558671,0.004263897,0.06074498,1,4.121212,-0.02089664,-0.01388903,0.0110377,-0.361441,-1.410066,1.480262,-0.01082719,-0.002548258,0.002952084,-1.182408,4.238272,0.2134601,-0.8683062,1.651542,-0.6201364,281.4966,70.39236,137.8906
3,4.299992,-0.04724152,-0.04400319,0.003265419,-1.468588,-0.7440888,-1.698349,-0.09583332,-0.02283992,0.05801784,1,4.121212,-0.01752096,-0.01826818,0.03015556,-0.3617052,-1.413086,1.483135,-0.008616794,-0.01744585,-0.006643269,-1.182952,4.237606,0.2137128,-0.8683295,1.65154,-0.6199939,281.4763,69.62113,138.5828
3,4.311103,-0.05444133,-0.108018,-0.001297656,-1.465032,-0.7435557,-1.697759,-0.09531294,0.0476375,0.05330793,1,4.121212,-0.02359947,-0.007698765,0.05368185,-0.3614149,-1.415821,1.486464,-0.006472358,-0.03128181,-0.02156197,-1.183815,4.236933,0.2139794,-0.8684994,1.651546,-0.6198167,281.3729,68.55672,139.5915
3,4.322214,-0.05964869,-0.1475433,-0.00826457,-1.462276,-0.7431018,-1.696829,-0.09550308,-0.01796642,0.05066955,1,4.121212,-0.02010556,0.01031299,0.06971367,-0.3605206,-1.419335,1.48992,-0.007530241,-0.03449318,-0.0247543,-1.18439,4.236567,0.2142281,-0.8687795,1.651533,-0.6196756,281.1857,67.40302,140.6858
3,4.333325,-0.06168826,-0.1677795,-0.006963793,-1.459683,-0.7428142,-1.696092,-0.09472864,0.07090719,0.04599347,1,1.818182,-0.02549818,0.0157519,0.05809342,-0.3598447,-1.420321,1.490963,-0.01393173,-0.02923556,-0.01937134,-1.18444,4.236422,0.2146609,-0.8690458,1.651561,-0.6195667,280.9937,66.17856,141.8101
3,4.344437,-0.06612942,-0.1219588,-0.004253581,-1.459853,-0.7427817,-1.69517,-0.09420293,0.04730256,0.04184438,1,1.818182,-0.03213614,0.008386634,0.04318429,-0.3604471,-1.418975,1.490759,-0.01187707,-0.01535331,-0.01088602,-1.184269,4.23676,0.2145751,-0.8693021,1.651535,-0.6195421,280.7759,65.2055,142.6638
3,4.355548,-0.0587891,-0.08242933,0.004854221,-1.460078,-0.7424595,-1.694833,-0.09431905,-0.01095589,0.04031311,1,1.818182,-0.03113609,0.004134092,0.03995596,-0.3605174,-1.419907,1.491948,-0.01191419,-0.006825611,-0.004501449,-1.18402,4.236938,0.2146372,-0.8694533,1.651498,-0.6195582,280.6209,64.64053,143.127
3,4.366659,-0.06971753,-0.00781017,0.01260039,-1.462614,-0.7424281,-1.693609,-0.0941502,0.01553361,0.03817979,1,1.818182,-0.02369363,-0.0001770807,0.04088268,-0.3604722,-1.419839,1.491854,-0.01185526,-0.01321665,-0.006631759,-1.184325,4.236632,0.2147744,-0.8694765,1.651499,-0.6196027,280.5814,64.63928,143.0961
3,4.37777,-0.08590215,0.05402458,0.02265081,-1.465403,-0.7421665,-1.692137,-0.09464129,-0.04508573,0.03744178,1,1.818182,-0.01724653,-0.005590704,0.04930793,-0.3606469,-1.422252,1.494084,-0.009586278,-0.02171009,-0.002384255,-1.184338,4.236063,0.2150127,-0.8694394,1.651446,-0.619701,280.5848,65.31371,142.4686
3,4.388882,-0.08602083,0.07418691,0.01604307,-1.466519,-0.7422821,-1.691188,-0.09380665,0.07667454,0.03663203,0,1.454545,-0.02039592,-0.002383604,0.0504139,-0.3605649,-1.423406,1.495414,-0.01060571,-0.02491369,-0.001307458,-1.184407,4.235694,0.2153259,-0.8692772,1.651384,-0.6198439,280.6953,66.69662,141.217
3,4.399993,-0.08270848,0.03145941,0.004781499,-1.465358,-0.7425489,-1.690279,-0.0934434,0.03252784,0.03648333,0,1.454545,-0.01950204,-0.008731969,0.03865908,-0.3609643,-1.423888,1.496026,-0.008573454,-0.01636738,-0.001334598,-1.184404,4.235812,0.2153019,-0.8690827,1.651276,-0.6200473,280.8232,68.32544,139.7214
3,4.411104,-0.06872313,-0.003630653,0.007279631,-1.463979,-0.7413953,-1.689736,-0.09401544,-0.05245264,0.03635347,0,1.454545,-0.01855541,-0.01402351,0.03006604,-0.361302,-1.422593,1.494852,-0.006652479,-0.003563876,-0.007761207,-1.184699,4.236412,0.2151168,-0.8689149,1.6511,-0.6202652,280.9079,69.80904,138.3216
3,4.422215,-0.05689579,-0.03558908,0.003311789,-1.462448,-0.7412797,-1.689465,-0.09415074,-0.01187769,0.0319377,0,1.454545,-0.01123846,-0.02897576,0.02672681,-0.3621175,-1.423878,1.495898,-0.002428012,-0.005651073,-0.01419157,-1.185121,4.236365,0.2150132,-0.8688039,1.650954,-0.6204438,280.9618,70.84914,137.326
3,4.433327,-0.04528967,-0.02070145,-0.004347433,-1.462918,-0.7412983,-1.689154,-0.09435526,-0.01865365,0.02702791,0,1.69697,-0.02585036,-0.001222367,0.0366142,-0.3612951,-1.425707,1.498331,-0.006556908,-0.02488157,-0.0237265,-1.185992,4.235539,0.2154865,-0.8687882,1.650835,-0.6205277,280.9692,71.39506,136.8255
3,4.444438,-0.05182054,0.007997002,-0.006736149,-1.463826,-0.7411268,-1.688219,-0.09470787,-0.03217636,0,0,1.69697,-0.02674079,0.02647005,0.03673354,-0.3602532,-1.425413,1.498699,-0.0085699,-0.02702774,-0.01411889,-1.185898,4.235123,0.2157919,-0.8687685,1.650748,-0.6205194,281.0053,71.78013,136.5272
3,4.455549,-0.06261345,0.0463479,-0.002845088,-1.465585,-0.7412504,-1.687168,-0.09464715,0.005777188,0,0,1.69697,-0.02465966,0.02113418,0.03561858,-0.3601206,-1.426391,1.499814,-0.005320132,-0.02378668,-0.004564553,-1.185638,4.234898,0.2158186,-0.8687775,1.650708,-0.6205009,281.0292,71.93361,136.4418
3,4.46666,-0.07334974,0.07513352,0.003290074,-1.467347,-0.7410805,-1.686106,-0.09393182,0.06528997,0,0,1.69697,-0.02053964,-0.002337588,0.03650201,-0.3610091,-1.426941,1.500259,0.0008446077,-0.004541249,-0.005707496,-1.185668,4.235569,0.2152511,-0.8688445,1.650679,-0.6204751,281.0028,71.87498,136.5412
3,4.477772,-0.0861996,0.09213559,0.004232691,-1.468964,-0.7411748,-1.684697,-0.09375818,0.0152911,0,0,1.69697,-0.01117551,-0.02902002,0.03306923,-0.3622634,-1.427836,1.50089,0.007205362,-0.004470472,-0.008963938,-1.185866,4.235569,0.2149656,-0.8689306,1.650598,-0.6204921,280.9533,72.08656,136.3918
3,4.488883,-0.08621713,0.09104876,0.00318638,-1.469601,-0.7411428,-1.683563,-0.09372942,0.002532606,0,0,1.212121,-0.01021591,-0.04398062,0.0340018,-0.3636781,-1.427295,1.500635,0.003048367,-0.01623774,-0.01211119,-1.186199,4.235126,0.2151539,-0.8689722,1.650501,-0.6205474,280.9247,72.48978,136.0443
