loc,t,aDotS,bDotS,gDotS,aS,bS,gS,qE,qDotE,tpad,enable,emg,aDotSH,bDotSH,gDotSH,aSH,bSH,gSH,aDotUB,bDotUB,gDotUB,aUB,bUB,gUB,xHand,yHand,zHand,aHand,bHand,gHand
0,0,-0.1177325,-0.8060479,0.276556,-1.433886,-0.7194929,-2.86496,-1.073963,0.03380109,0,0,3.151515,-0.4829742,0.3172624,-0.09404154,-0.5891754,-0.7660151,0.1022254,-0.1548864,0.2078256,-0.1110379,-0.8641745,3.962732,0.07405452,-0.6892,1.169238,-0.3020763,306.9962,222.817,349.1876
0,0.01111111,-0.1134949,-0.7966141,0.2392297,-1.432866,-0.7108563,-2.86505,-1.074844,-0.08069882,0,0,3.151515,-0.4562304,0.2902956,-0.07111584,-0.5887876,-0.7618931,0.1029445,-0.1527831,0.2037159,-0.1185873,-0.8655785,3.96566,0.07378075,-0.688696,1.168983,-0.3052282,306.9769,220.751,350.7859
0,0.02222222,-0.1155319,-0.7584615,0.2100483,-1.43254,-0.7030063,-2.865149,-1.07493,-0.007100595,0,0,3.151515,-0.4117028,0.2377847,-0.05931903,-0.5896468,-0.7587564,0.104247,-0.151464,0.1803081,-0.1224067,-0.8669436,3.967828,0.07412456,-0.6874565,1.168659,-0.3086836,307.0841,219.4969,351.3143
0,0.03333334,-0.1264188,-0.6924322,0.1716992,-1.43186,-0.699026,-2.863567,-1.075076,-0.01340211,0,0,3.151515,-0.3820546,0.2035397,-0.05886349,-0.5901352,-0.7562749,0.1054606,-0.1450541,0.1451555,-0.1298071,-0.868819,3.968554,0.07474614,-0.6856872,1.168301,-0.3122849,307.2107,218.816,351.0732
0,0.04444445,-0.1510232,-0.6116962,0.1244929,-1.430584,-0.6949897,-2.861703,-1.075199,-0.01105981,0,0,4.363636,-0.3385643,0.1681392,-0.05857687,-0.5907056,-0.7550445,0.1066617,-0.1465595,0.1324225,-0.1302097,-0.8702055,3.970043,0.07545667,-0.6834864,1.168041,-0.3156978,307.3567,218.1152,350.7266
0,0.05555556,-0.1692592,-0.5479041,0.08373857,-1.429152,-0.6919973,-2.859219,-1.074074,0.102921,0,0,4.363636,-0.3235924,0.1594696,-0.04923806,-0.5909213,-0.751689,0.1071715,-0.1442609,0.1127641,-0.1168614,-0.8704585,3.971391,0.0761696,-0.6812153,1.167927,-0.3187908,307.5115,217.4174,350.3376
0,0.06666667,-0.1971471,-0.3970174,1.078472E-05,-1.426663,-0.6931729,-2.856017,-1.073743,0.0294172,0,0,4.363636,-0.3042679,0.1432117,-0.02828028,-0.590426,-0.7499099,0.1084066,-0.1412043,0.08250192,-0.1070516,-0.8713117,3.971475,0.07758454,-0.6793275,1.168023,-0.3214417,307.6579,216.8426,349.9339
0,0.07777778,-0.2057227,-0.3565913,-0.02038762,-1.425383,-0.6911084,-2.853757,-1.073395,0.03174986,0,0,4.363636,-0.2644878,0.1085179,0.02002394,-0.5882742,-0.7497853,0.109878,-0.140746,0.0623171,-0.1108881,-0.8733874,3.971324,0.07869561,-0.6780942,1.168415,-0.3235556,307.757,216.3271,349.7226
0,0.08888889,-0.243213,-0.1961838,-0.1169392,-1.421878,-0.6957354,-2.849101,-1.073416,-0.002004412,0,0,4.363636,-0.2333376,0.07714245,0.05777122,-0.5863791,-0.7505097,0.1120237,-0.1373737,0.02665009,-0.1342764,-0.8757166,3.970424,0.08068499,-0.6777493,1.169148,-0.325163,307.8007,215.894,349.6853
0,0.1,-0.2603672,-0.119717,-0.1673319,-1.418901,-0.6974872,-2.845345,-1.074078,-0.06031341,0,0,6.545455,-0.1859566,0.02625223,0.127136,-0.5828584,-0.7535095,0.1150398,-0.127334,0.001199447,-0.1497937,-0.8780175,3.970015,0.08147142,-0.6783729,1.170339,-0.3260796,307.7507,215.6348,349.7688
0,0.1111111,-0.2860698,-0.02641034,-0.2635999,-1.413784,-0.7021978,-2.840579,-1.072901,0.1081493,0,0,6.545455,-0.1354388,-0.04493283,0.2016379,-0.5784082,-0.7591351,0.1197016,-0.1106233,-0.05082009,-0.1766483,-0.8811218,3.967225,0.08390395,-0.6798737,1.171921,-0.3264963,307.5709,215.5357,350.0777
0,0.1222222,-0.3042737,0.02445186,-0.3319987,-1.408744,-0.7062229,-2.835748,-1.073456,-0.05145721,0,0,6.545455,-0.09911951,-0.08476847,0.2296808,-0.5750676,-0.7636561,0.1234061,-0.09964113,-0.08246266,-0.2008411,-0.884007,3.965034,0.08606165,-0.6821576,1.173996,-0.3262167,307.3563,215.4839,350.4582
0,0.1333333,-0.3416797,0.09634984,-0.449477,-1.400972,-0.7127231,-2.8295,-1.073197,0.02427966,0,0,6.545455,-0.05086732,-0.1312471,0.2799033,-0.5707506,-0.769669,0.1275191,-0.08059395,-0.1141857,-0.1950689,-0.8859447,3.963136,0.08760868,-0.6851255,1.176457,-0.3254529,307.0293,215.4527,351.0562
0,0.1444445,-0.3951135,0.1903841,-0.6171084,-1.390931,-0.7213672,-2.821811,-1.073228,-0.002884672,0,0,5.939394,-0.006472528,-0.1812122,0.3674229,-0.5644804,-0.7778732,0.1331495,-0.07115321,-0.1755698,-0.1860792,-0.8880332,3.958215,0.09119543,-0.6886063,1.179285,-0.3242296,306.6809,215.3825,351.8197
0,0.1555556,-0.4250239,0.2422036,-0.6929048,-1.383598,-0.7282707,-2.814961,-1.072497,0.06706963,0,0,5.939394,0.04313821,-0.21829,0.4390107,-0.557798,-0.7862408,0.1382474,-0.06426704,-0.2257429,-0.1917493,-0.8911523,3.953502,0.09425247,-0.6924339,1.182398,-0.3227315,306.3092,215.2645,352.7269
0,0.1666667,-0.5136052,0.3383796,-0.8498843,-1.371978,-0.7397537,-2.804171,-1.071714,0.07116594,0,0,5.939394,0.06297565,-0.2851821,0.529897,-0.5492339,-0.7986026,0.1473607,-0.03914571,-0.3380454,-0.2095989,-0.894804,3.944334,0.09962167,-0.6966532,1.185801,-0.3209676,306.0189,214.8614,353.6818
0,0.1777778,-0.5392013,0.3605965,-0.884051,-1.363772,-0.7481475,-2.795826,-1.072584,-0.07984278,0,0,5.939394,0.08240062,-0.3239659,0.5709122,-0.5424987,-0.8097352,0.155457,-0.01894292,-0.3746354,-0.2210239,-0.898248,3.938541,0.1028215,-0.7014267,1.189576,-0.3188882,305.7585,214.3476,354.6725
0,0.1888889,-0.6522794,0.4460317,-1.054825,-1.349799,-0.7620854,-2.781665,-1.070105,0.2277091,0,0,5.939394,0.1074879,-0.3715884,0.6458852,-0.5337657,-0.8233354,0.1651495,0.01420349,-0.4313299,-0.2179059,-0.9013075,3.930333,0.1066695,-0.706596,1.193694,-0.3165602,305.3541,214.036,355.7177
0,0.2,-0.7428955,0.4625422,-1.160323,-1.337112,-0.7733948,-2.768106,-1.072205,-0.1937291,0,0,4.969697,0.1492367,-0.4211671,0.6876253,-0.5260239,-0.8384419,0.1752131,0.03396624,-0.4687664,-0.2016041,-0.9030252,3.922539,0.1104272,-0.7123705,1.198222,-0.3141466,305.0629,213.688,356.8831
0,0.2111111,-0.8004482,0.4621966,-1.226347,-1.324371,-0.7843254,-2.754705,-1.068465,0.3442877,0,0,4.969697,0.1653861,-0.4631017,0.7233163,-0.5184914,-0.8541887,0.1866764,0.06278786,-0.4726185,-0.2129761,-0.9063291,3.916086,0.1127268,-0.7184505,1.203164,-0.3117148,304.6026,213.315,358.2493
0,0.2222222,-0.8878188,0.4447354,-1.310394,-1.310358,-0.7953712,-2.739307,-1.06888,-0.04075001,0,0,4.969697,0.1754435,-0.5447845,0.8045701,-0.5088124,-0.8762743,0.2036069,0.1118947,-0.5188702,-0.2550904,-0.9106179,3.908334,0.1148427,-0.7251205,1.2087,-0.3092867,304.3771,212.614,359.6696
0,0.2333333,-0.9804969,0.4059361,-1.400726,-1.295109,-0.8061287,-2.722693,-1.069918,-0.0938166,0,0,4.969697,0.1982312,-0.6457391,0.8908581,-0.4985219,-0.9023301,0.2235955,0.1280657,-0.5559466,-0.2815275,-0.9154904,3.899785,0.1180095,-0.7321808,1.215121,-0.3067746,304.0931,211.8514,1.269477
0,0.2444444,-1.085974,0.3841568,-1.485815,-1.279129,-0.817852,-2.703891,-1.0689,0.09428158,0,0,4.969697,0.2099044,-0.7612859,0.943051,-0.4896003,-0.933064,0.2478932,0.1502507,-0.6078677,-0.3178862,-0.9212108,3.889932,0.1215784,-0.7394236,1.222425,-0.304237,303.5475,211.0244,3.08484
0,0.2555556,-1.157416,0.3935329,-1.520956,-1.265434,-0.8305121,-2.68499,-1.068379,0.04726974,0,0,4.848485,0.2279338,-0.8372632,0.9741936,-0.4814361,-0.9626065,0.2711183,0.1670355,-0.6457156,-0.3198059,-0.9256647,3.880303,0.1254535,-0.7466782,1.230609,-0.3017177,302.9046,209.9558,5.111311
0,0.2666667,-1.246936,0.4113775,-1.561477,-1.251027,-0.8442737,-2.663792,-1.067412,0.08862726,0,0,4.848485,0.2288866,-0.8831792,0.9865922,-0.4736879,-0.9932728,0.2956817,0.186076,-0.6834809,-0.3270153,-0.9306139,3.869869,0.1289649,-0.7539952,1.23959,-0.2993441,302.1769,208.49,7.39425
0,0.2777778,-1.316213,0.4581304,-1.583566,-1.237819,-0.8588061,-2.643108,-1.068529,-0.1021323,0,0,4.848485,0.194541,-0.8855277,0.9737327,-0.4665251,-1.021082,0.3188787,0.187491,-0.7127777,-0.3470389,-0.9359499,3.859808,0.1328385,-0.7615513,1.249269,-0.2972882,301.3743,206.872,9.774601
0,0.2888889,-1.362166,0.54861,-1.583326,-1.227288,-0.8769017,-2.620158,-1.067755,0.07256906,0,0,4.848485,0.1531862,-0.8484663,0.9643018,-0.4596568,-1.044575,0.3402441,0.1849131,-0.7284758,-0.3539425,-0.9411814,3.850022,0.1366841,-0.7691239,1.259578,-0.2954364,300.4022,205.2667,12.20415
0,0.3,-1.379304,0.6189346,-1.57616,-1.217173,-0.8945127,-2.598468,-1.069407,-0.1512863,0,0,4.242424,0.06720734,-0.7412548,0.9395049,-0.452372,-1.061697,0.3577698,0.167103,-0.7252818,-0.3680061,-0.9467031,3.841638,0.1404596,-0.7766982,1.270383,-0.293789,299.4077,203.4891,14.79013
0,0.3111111,-1.390046,0.7180346,-1.56806,-1.208503,-0.9142813,-2.576059,-1.069432,-0.0002793923,0,0,4.242424,0.02888155,-0.6833256,0.9148431,-0.4457535,-1.082289,0.3772037,0.1660166,-0.6963278,-0.3703385,-0.9510505,3.834918,0.1425092,-0.7840331,1.281566,-0.292126,298.3447,201.5219,17.52439
0,0.3222222,-1.389061,0.8096364,-1.55337,-1.200292,-0.9336505,-2.553535,-1.071336,-0.1733554,0,0,4.242424,-0.02967131,-0.6135294,0.8862436,-0.4393289,-1.100185,0.3957593,0.1501524,-0.6648411,-0.3686562,-0.9562234,3.827193,0.145599,-0.7913017,1.292971,-0.2904428,297.2423,199.6601,20.14771
0,0.3333333,-1.38487,0.8566763,-1.536674,-1.19374,-0.9542021,-2.531399,-1.072214,-0.07864206,0,0,4.242424,-0.06373668,-0.5834399,0.8762341,-0.4327621,-1.121792,0.4172939,0.1433864,-0.6422372,-0.3690727,-0.9603844,3.821291,0.1477711,-0.7983671,1.304411,-0.2885919,296.1284,197.6198,23.01307
0,0.3444445,-1.370985,0.9016577,-1.511308,-1.18757,-0.9743803,-2.509799,-1.072563,-0.03100469,0,0,4.242424,-0.05881828,-0.5553627,0.8263351,-0.4281495,-1.140196,0.4345602,0.1402002,-0.6022515,-0.3476817,-0.9641314,3.815604,0.1496036,-0.8053197,1.315669,-0.2865452,295.0731,195.4431,26.02923
0,0.3555556,-1.345451,0.9071127,-1.482576,-1.181157,-0.9931109,-2.488513,-1.073812,-0.1138618,0,0,6.30303,-0.03425056,-0.5419511,0.7292301,-0.4260456,-1.158365,0.4502388,0.1324421,-0.5457609,-0.3364988,-0.9673858,3.811668,0.1503365,-0.8121453,1.326612,-0.2842581,294.1492,193.2639,29.08671
0,0.3666667,-1.318792,0.8988029,-1.438874,-1.175741,-1.010884,-2.468165,-1.074639,-0.07440734,0,0,6.30303,-0.06305534,-0.5228072,0.6221058,-0.4253686,-1.173105,0.4652372,0.1250068,-0.4866737,-0.3423211,-0.971796,3.808381,0.1510715,-0.8188946,1.337123,-0.2817802,293.3204,191.2191,32.09339
0,0.3777778,-1.295363,0.9075551,-1.388834,-1.17166,-1.028924,-2.447583,-1.07467,-0.002377533,0,0,6.30303,-0.07534122,-0.5041449,0.5627444,-0.4235092,-1.189043,0.4811086,0.1272836,-0.4536102,-0.343406,-0.9756091,3.804838,0.1511946,-0.8254941,1.347131,-0.2791371,292.633,189.2368,35.10724
0,0.3888889,-1.262323,0.9271125,-1.306903,-1.169982,-1.04606,-2.428259,-1.075353,-0.06259041,0,0,6.30303,-0.08246559,-0.4543748,0.4737389,-0.4232061,-1.198397,0.4907628,0.1204153,-0.4014532,-0.33237,-0.9792315,3.80239,0.1514526,-0.8319502,1.356534,-0.2765099,292.0616,187.185,38.22823
0,0.4,-1.239957,0.9507898,-1.258013,-1.168208,-1.064341,-2.408091,-1.075362,-0.0002104346,0,0,14.42424,-0.09974676,-0.4156097,0.4337638,-0.4215688,-1.210001,0.5029521,0.1045036,-0.3350275,-0.323186,-0.9824859,3.801503,0.1510351,-0.838106,1.365303,-0.2739639,291.5818,185.3204,41.09525
0,0.4111111,-1.177096,1.003594,-1.132557,-1.170905,-1.080874,-2.390972,-1.076238,-0.08001198,0,0,14.42424,-0.123424,-0.3404327,0.3760505,-0.4203395,-1.214522,0.5093408,0.08689404,-0.2866591,-0.3156342,-0.9858868,3.800377,0.1513253,-0.8438797,1.373541,-0.2715421,291.1823,183.8732,43.43982
0,0.4222222,-1.128667,1.043764,-1.058408,-1.171831,-1.098349,-2.372618,-1.075862,0.03506031,0,0,14.42424,-0.1532677,-0.2589749,0.3344432,-0.4183022,-1.218054,0.5151501,0.07099332,-0.2202411,-0.3063861,-0.9879321,3.801101,0.1503429,-0.8492507,1.381294,-0.2693161,290.7417,182.5361,45.60077
0,0.4333333,-1.090795,1.077823,-0.9880393,-1.175707,-1.114757,-2.356278,-1.077965,-0.192904,0,0,14.42424,-0.2037376,-0.198516,0.2694522,-0.4177935,-1.220071,0.5208592,0.05894761,-0.1417817,-0.3116619,-0.9906629,3.803187,0.1483317,-0.8542501,1.388693,-0.2672599,290.3396,181.2293,47.58734
0,0.4444444,-1.001292,1.103954,-0.8742087,-1.180685,-1.129528,-2.342436,-1.077065,0.08410309,0,0,14.42424,-0.2298633,-0.145557,0.1945384,-0.4180455,-1.219164,0.5234981,0.0443967,-0.07682781,-0.3270179,-0.9945964,3.805274,0.147121,-0.8589477,1.395711,-0.2653914,289.7452,179.7565,49.70662
0,0.4555556,-0.9545394,1.108499,-0.8156274,-1.184534,-1.145059,-2.326308,-1.078153,-0.1008606,0,0,8.848485,-0.2465396,-0.1364085,0.1276778,-0.4193728,-1.221653,0.5287496,0.02817544,-0.02490087,-0.3310301,-0.9975163,3.808079,0.1454635,-0.8633964,1.40241,-0.2636673,289.2674,178.3049,51.72351
0,0.4666667,-0.875669,1.106761,-0.7421523,-1.189526,-1.158729,-2.314112,-1.079702,-0.1408199,0,0,8.848485,-0.256871,-0.1422304,0.06488783,-0.4214351,-1.223778,0.5339108,0.0002068803,0.06124894,-0.3267856,-1.000471,3.812865,0.1437883,-0.8676897,1.408782,-0.2620264,288.7053,176.6389,53.90371
0,0.4777778,-0.7828738,1.065648,-0.6663854,-1.193756,-1.170729,-2.303847,-1.077348,0.2160907,0,0,8.848485,-0.2434156,-0.1463052,0.03059784,-0.4230548,-1.227283,0.5390859,-0.01100872,0.1452733,-0.3063313,-1.002424,3.818317,0.1410184,-0.8716675,1.41465,-0.2603133,288.0746,174.7333,56.31406
0,0.4888889,-0.7124853,1.008387,-0.6203673,-1.197163,-1.181894,-2.294064,-1.079776,-0.2245104,0,0,8.848485,-0.2383605,-0.1386496,0.002903402,-0.4244876,-1.228955,0.5431213,-0.02042907,0.1877679,-0.2902951,-1.004626,3.822945,0.1390692,-0.8754197,1.420099,-0.2584791,287.6297,173.3452,58.16502
0,0.5,-0.6058509,0.9277742,-0.5614732,-1.199912,-1.190717,-2.287644,-1.080797,-0.09142904,0,0,8.848485,-0.2451729,-0.1244083,-0.04164642,-0.4265617,-1.228866,0.5458884,-0.04519346,0.2458753,-0.279371,-1.006658,3.828702,0.1369757,-0.8792143,1.425149,-0.256679,287.1827,171.8974,60.17262
0,0.5111111,-0.5173587,0.8801425,-0.5101786,-1.203461,-1.199649,-2.281716,-1.080337,0.04209672,0,0,17.69697,-0.2506459,-0.08362751,-0.07427582,-0.4279141,-1.225722,0.5460109,-0.06944908,0.2890143,-0.266725,-1.008071,3.834695,0.1350468,-0.8830999,1.429664,-0.2550302,286.7497,170.3536,62.35657
0,0.5222223,-0.4503086,0.8442259,-0.4504033,-1.207898,-1.208388,-2.274565,-1.082021,-0.1549819,0,0,17.69697,-0.2580055,-0.01520389,-0.09921405,-0.4287103,-1.219226,0.5430713,-0.09259962,0.3351846,-0.2508041,-1.009594,3.841209,0.1333549,-0.8868677,1.433524,-0.2534889,286.4161,168.9777,64.33507
0,0.5333334,-0.3788788,0.8339218,-0.3875411,-1.213222,-1.216614,-2.269661,-1.081912,0.01081406,0,0,17.69697,-0.2750728,0.04266909,-0.1294357,-0.4294432,-1.211926,0.5399535,-0.1152739,0.3921871,-0.2409419,-1.011037,3.848702,0.1312547,-0.8903735,1.436532,-0.2520575,286.1237,167.4757,66.36424
0,0.5444446,-0.3010816,0.8386027,-0.3045025,-1.21987,-1.223563,-2.266368,-1.079761,0.1959062,0,0,17.69697,-0.2879782,0.07919472,-0.1577546,-0.4306768,-1.204419,0.5367116,-0.1298675,0.4321512,-0.2410547,-1.012866,3.856218,0.1291724,-0.893561,1.43857,-0.2506562,285.8386,166.3275,67.87092
0,0.5555557,-0.2360693,0.841016,-0.2544788,-1.226258,-1.231109,-2.263188,-1.080849,-0.1016605,0,0,30.78788,-0.3009483,0.1275206,-0.1976988,-0.4323093,-1.19461,0.5314834,-0.1555486,0.496621,-0.2267408,-1.013607,3.86596,0.126481,-0.8965034,1.439781,-0.2492355,285.5615,166.2413,68.20976
0,0.5666668,-0.1518696,0.8402885,-0.1959302,-1.233192,-1.237607,-2.262201,-1.08141,-0.05070529,0,0,30.78788,-0.3020757,0.1553808,-0.2166335,-0.4336015,-1.185576,0.5266625,-0.1829271,0.5719305,-0.2153175,-1.014025,3.877362,0.1229989,-0.8996509,1.440395,-0.2480075,285.2457,166.5962,68.16007
0,0.577778,-0.1018972,0.835152,-0.1660918,-1.239947,-1.244712,-2.259347,-1.080971,0.03999151,0,0,30.78788,-0.3075871,0.1758705,-0.2430367,-0.4352521,-1.176226,0.5217074,-0.1965175,0.6167473,-0.1992461,-1.014201,3.88784,0.1197602,-0.9029494,1.440457,-0.2469739,284.8625,167.203,67.8991
0,0.5888891,-0.02196163,0.8279229,-0.129876,-1.246637,-1.250624,-2.260185,-1.081918,-0.08765811,0,0,30.78788,-0.327315,0.1934929,-0.3002007,-0.4384916,-1.164282,0.5151858,-0.2162354,0.6492986,-0.1602246,-1.013605,3.897717,0.1176292,-0.9062873,1.440091,-0.2460332,284.5357,168.2132,67.17301
0,0.6000003,0.04839677,0.8207123,-0.0893777,-1.253679,-1.256202,-2.261351,-1.079571,0.2148544,0,0,30.78788,-0.3445426,0.2525507,-0.3453462,-0.4409886,-1.148375,0.5050917,-0.2349772,0.6706783,-0.139615,-1.013133,3.907584,0.115292,-0.9095153,1.439297,-0.2450516,284.2069,169.0102,66.60954
0,0.6111114,0.105962,0.8166936,-0.04678348,-1.261035,-1.261504,-2.262768,-1.081835,-0.2094366,0,0,34.18182,-0.3422299,0.296258,-0.3503395,-0.4422365,-1.133946,0.495741,-0.244216,0.6875945,-0.1243386,-1.013015,3.91729,0.113174,-0.9126453,1.438238,-0.2439723,283.8919,170.256,65.60112
0,0.6222225,0.16885,0.812713,0.003250688,-1.268741,-1.266151,-2.265257,-1.081541,0.02831244,0,0,34.18182,-0.3424357,0.3284952,-0.3852439,-0.4447926,-1.118636,0.4853345,-0.2464271,0.7304077,-0.09002442,-1.011584,3.929226,0.1092082,-0.9158199,1.436944,-0.2428811,283.5291,171.174,65.01361
0,0.6333337,0.2083102,0.8054179,0.03096312,-1.276186,-1.271104,-2.26748,-1.080806,0.06621337,0,0,34.18182,-0.3493381,0.3159583,-0.4117871,-0.4479746,-1.106793,0.478492,-0.2468742,0.7555077,-0.07329278,-1.010832,3.940058,0.1061919,-0.9190547,1.435419,-0.2418465,283.1221,172.4163,64.16756
0,0.6444448,0.2669647,0.7757486,0.05662435,-1.282785,-1.274831,-2.271606,-1.080819,-0.002254729,0,0,34.18182,-0.3547268,0.3043755,-0.4247285,-0.4514292,-1.095428,0.4725622,-0.2545257,0.787324,-0.05752097,-1.009718,3.952248,0.1026007,-0.9222293,1.433663,-0.2408687,282.7142,174.0163,62.95447
0,0.655556,0.3202918,0.7332272,0.06637773,-1.288472,-1.278413,-2.275872,-1.079927,0.08118989,0,0,29.09091,-0.3651448,0.3149632,-0.4096254,-0.4533164,-1.083192,0.465842,-0.2517717,0.8083069,-0.04938925,-1.009101,3.963458,0.0991399,-0.9252783,1.431697,-0.2399606,282.3234,175.838,61.4742
0,0.6666671,0.3565674,0.6864294,0.07507737,-1.29376,-1.281636,-2.280156,-1.080672,-0.06944747,0,0,29.09091,-0.3760948,0.3732914,-0.3696028,-0.4531752,-1.068072,0.4567329,-0.2491373,0.8231332,-0.04782172,-1.008542,3.975313,0.0953694,-0.9282827,1.429582,-0.2391604,281.9879,177.8016,59.80772
0,0.6777782,0.3832644,0.647108,0.09334746,-1.299296,-1.284274,-2.284551,-1.080182,0.04504306,0,0,29.09091,-0.4007938,0.4487374,-0.329306,-0.4522857,-1.050315,0.4458515,-0.24004,0.8428739,-0.03959614,-1.007648,3.98763,0.09108836,-0.9311531,1.427245,-0.2384482,281.6946,179.3569,58.51881
0,0.6888894,0.4035353,0.6269524,0.1083352,-1.305123,-1.287223,-2.288923,-1.079382,0.07229742,0,0,29.09091,-0.4101079,0.474259,-0.3172722,-0.4525105,-1.034619,0.4365707,-0.232743,0.8553004,-0.00073082,-1.005592,3.99915,0.08726646,-0.9338982,1.424623,-0.2378193,281.4507,180.8298,57.27151
0,0.7000005,0.4376975,0.5940539,0.1329699,-1.310702,-1.28908,-2.294639,-1.078685,0.06275145,0,0,29.09091,-0.3981911,0.4858053,-0.3056016,-0.4532769,-1.020418,0.4277647,-0.2223068,0.8625638,0.03059513,-1.003224,4.011256,0.08280167,-0.9366237,1.42172,-0.2373149,281.2415,182.5854,55.71996
0,0.7111117,0.4729234,0.5483696,0.1533884,-1.315709,-1.290527,-2.300721,-1.078197,0.04383773,0,0,28.12121,-0.3736607,0.4803024,-0.3005954,-0.4540386,-1.006763,0.4187858,-0.2033171,0.8666102,0.05345225,-1.000869,4.023684,0.07766071,-0.9393556,1.418576,-0.2369567,281.0557,184.9326,53.55584
0,0.7222228,0.5017517,0.501586,0.1706239,-1.32029,-1.291256,-2.307194,-1.078759,-0.05204321,0,0,28.12121,-0.3394366,0.4176852,-0.353714,-0.4584632,-0.9963242,0.4119788,-0.1848594,0.8526917,0.06932773,-0.9988995,4.034385,0.07334186,-0.9420949,1.415297,-0.2367312,280.9291,187.8715,50.77447
0,0.7333339,0.5145667,0.4739174,0.1739314,-1.325053,-1.292884,-2.31304,-1.078637,0.01135076,0,0,28.12121,-0.3232122,0.3839624,-0.4106385,-0.4630715,-0.9840401,0.4042103,-0.1738824,0.8380039,0.08507831,-0.9966236,4.045583,0.06888665,-0.9447151,1.411887,-0.2366106,280.8317,190.7069,48.10022
0,0.7444451,0.5338113,0.4281397,0.1816013,-1.329007,-1.293033,-2.319861,-1.078371,0.02375291,0,0,28.12121,-0.3010964,0.3840224,-0.4332707,-0.4666055,-0.9701438,0.3945462,-0.1548548,0.8101817,0.1016122,-0.9943732,4.055086,0.06476062,-0.9472408,1.40835,-0.2366341,280.7704,193.3625,45.59821
0,0.7555562,0.5423626,0.3845622,0.1988276,-1.333372,-1.293085,-2.325912,-1.077535,0.07601129,0,0,26.78788,-0.2745858,0.395726,-0.4494586,-0.4697981,-0.9553409,0.3836763,-0.132969,0.8005675,0.1123437,-0.9922267,4.0653,0.05993071,-0.9497485,1.404696,-0.2368471,280.7499,195.9149,43.15332
0,0.7666674,0.5317616,0.3462812,0.2181705,-1.337382,-1.292611,-2.331682,-1.077703,-0.01624745,0,0,26.78788,-0.263019,0.4075378,-0.4686684,-0.4734786,-0.9403569,0.3729235,-0.1163352,0.8022389,0.1435794,-0.989057,4.076012,0.05479614,-0.9522746,1.40098,-0.2372129,280.7839,198.6178,40.50962
0,0.7777785,0.5254236,0.3250422,0.2363777,-1.341934,-1.292482,-2.337652,-1.076645,0.09677344,0,0,26.78788,-0.2608386,0.4213964,-0.4707113,-0.4765322,-0.9253286,0.362547,-0.1017215,0.8022328,0.164065,-0.9860652,4.087805,0.04911721,-0.9547668,1.397183,-0.2377243,280.8283,200.9712,38.20404
0,0.7888896,0.5116133,0.299546,0.2567338,-1.346162,-1.291548,-2.343089,-1.075902,0.06691012,0,0,26.78788,-0.2533402,0.4202559,-0.4665431,-0.4796518,-0.9119361,0.3532262,-0.06699252,0.7713727,0.1924918,-0.9825472,4.09669,0.04369635,-0.9572369,1.393299,-0.238375,280.8686,203.3686,35.82767
0,0.8000008,0.5031765,0.2655041,0.2728795,-1.35018,-1.290372,-2.349237,-1.075973,-0.0071105,0,0,26.78788,-0.2512872,0.4053256,-0.4666873,-0.4831826,-0.9002816,0.3456165,-0.04568654,0.7457234,0.2058926,-0.9798851,4.105785,0.03825951,-0.9597766,1.389437,-0.2392278,280.9991,206.1213,33.08722
0,0.8111119,0.4904442,0.2272199,0.2922217,-1.353825,-1.288432,-2.354749,-1.075181,0.07246438,0,0,17.93939,-0.2278753,0.3945202,-0.4638422,-0.4866234,-0.888537,0.3369093,-0.01843736,0.7090899,0.2222991,-0.9765449,4.113523,0.03307034,-0.962387,1.385687,-0.2402523,281.17,208.8199,30.3684
0,0.8222231,0.4841544,0.1782615,0.3084397,-1.357389,-1.285865,-2.361063,-1.075688,-0.0470143,0,0,17.93939,-0.1952733,0.3732562,-0.4910176,-0.4914715,-0.8771478,0.3279427,0.0123218,0.6849328,0.2466008,-0.9726972,4.122377,0.02702096,-0.9649298,1.382092,-0.2414092,281.3492,211.2639,27.88851
0,0.8333342,0.4767666,0.1420416,0.310711,-1.360204,-1.284051,-2.366907,-1.074913,0.07132275,0,0,17.93939,-0.1903698,0.3521448,-0.5178884,-0.4968308,-0.8659689,0.3202488,0.02654892,0.6692583,0.2559509,-0.9694449,4.131319,0.021325,-0.9673695,1.378653,-0.2426643,281.4837,213.2226,25.86151
0,0.8444453,0.4672436,0.0717192,0.3099414,-1.361578,-1.280447,-2.372588,-1.075461,-0.05081909,0,0,17.93939,-0.1830028,0.3511006,-0.5254374,-0.5015084,-0.8542963,0.3117986,0.04275215,0.6432179,0.2522401,-0.9666439,4.138871,0.01597976,-0.9696971,1.375365,-0.244061,281.5915,214.9802,24.05831
0,0.8555565,0.4620969,0.04400131,0.308769,-1.364219,-1.278127,-2.378309,-1.075199,0.02450167,0,0,17.93939,-0.1678197,0.3722223,-0.5115896,-0.5049796,-0.8409395,0.3015196,0.06432208,0.6171137,0.2453904,-0.9642758,4.1465,0.01037621,-0.9718205,1.372125,-0.2455835,281.6268,216.2662,22.69817
0,0.8666676,0.4438682,0.005694095,0.3155173,-1.365691,-1.274878,-2.382963,-1.074614,0.05318506,0,0,11.63636,-0.1591867,0.3902767,-0.5104727,-0.5089413,-0.827769,0.2914734,0.08518741,0.6126033,0.2647849,-0.96064,4.1546,0.004068511,-0.9737835,1.368855,-0.247218,281.6862,217.2494,21.59818
0,0.8777788,0.4353781,-0.01132946,0.3230497,-1.368095,-1.27174,-2.388347,-1.074886,-0.02527709,0,0,11.63636,-0.1569818,0.3955552,-0.5061888,-0.5128897,-0.8156959,0.2826735,0.1050026,0.6141399,0.2981662,-0.9563763,4.163625,-0.00302109,-0.975764,1.365551,-0.2490384,281.852,218.1368,20.53709
0,0.8888899,0.4194152,-0.02945393,0.3231345,-1.370067,-1.268484,-2.393097,-1.073729,0.106079,0,0,11.63636,-0.1419021,0.3996307,-0.4935394,-0.5164929,-0.8038256,0.2733796,0.1173677,0.6089593,0.3142033,-0.9523422,4.171801,-0.009502691,-0.9777156,1.362228,-0.250939,282.0605,219.2148,19.22273
0,0.900001,0.4109153,-0.05284726,0.3359777,-1.371282,-1.26468,-2.397935,-1.074452,-0.06692827,0,0,11.63636,-0.1280279,0.3781623,-0.4821537,-0.5204067,-0.7943874,0.2660351,0.1133374,0.5928468,0.3259193,-0.8694124,4.354883,-0.03117896,-0.9796007,1.358945,-0.252878,282.3374,220.3626,17.84879
0,0.9111122,0.4076923,-0.08261654,0.344603,-1.37281,-1.260706,-2.402221,-1.074002,0.0418654,0,0,11.63636,-0.1174397,0.3621085,-0.4802733,-0.5245719,-0.7850706,0.2588736,0.1201845,0.560701,0.3219548,-0.8637984,4.362891,-0.04176023,-0.9816075,1.355732,-0.2548929,282.5413,221.345,16.65457
0,0.9222233,0.4130493,-0.1092122,0.3521689,-1.374471,-1.256259,-2.407842,-1.074033,-0.003186464,0,0,11.63636,-0.1102291,0.3333772,-0.488054,-0.5294849,-0.7766843,0.252652,0.1284947,0.511109,0.3019956,-0.8613195,4.368289,-0.04698109,-0.9836041,1.352553,-0.2569446,282.6865,222.2451,15.62408
0,0.9333345,0.4141418,-0.1273154,0.3533063,-1.376073,-1.252087,-2.413404,-1.073599,0.03984572,0,0,11.63636,-0.1133372,0.3258569,-0.4763743,-0.5335063,-0.7672226,0.2459597,0.1308617,0.4699091,0.2661595,-0.8592082,4.374181,-0.05227066,-0.9855285,1.349401,-0.2591187,282.8917,223.1322,14.65628
0,0.9444456,0.4216105,-0.1560892,0.3534592,-1.37732,-1.246743,-2.419187,-1.074915,-0.1205602,0,0,11.63636,-0.1080324,0.3001748,-0.4659905,-0.5375953,-0.7602974,0.2410486,0.12938,0.4449231,0.2502952,-0.8576838,4.3791,-0.05694184,-0.9871894,1.346406,-0.2613371,283.2461,224.1017,13.49237
0,0.9555568,0.4312121,-0.1795292,0.351441,-1.378454,-1.241791,-2.425182,-1.075117,-0.01741098,0,0,11.63636,-0.1040188,0.2597019,-0.4685095,-0.542529,-0.7545065,0.237134,0.1249426,0.4263864,0.2281946,-0.8539042,4.397526,-0.07068695,-0.9885741,1.34353,-0.2635866,283.4671,224.7376,12.62377
0,0.9666679,0.4248488,-0.2072286,0.3526267,-1.379285,-1.236656,-2.430673,-1.075116,0.000139898,0,0,8.242424,-0.09780866,0.2223663,-0.4667547,-0.5472455,-0.749936,0.2341188,0.1287664,0.4044996,0.2124653,-0.8523756,4.402663,-0.07562632,-0.9898765,1.340713,-0.2659113,283.5959,225.2143,11.88802
0,0.977779,0.4131465,-0.2349369,0.3484796,-1.379669,-1.231669,-2.435522,-1.075386,-0.02472252,0,0,8.242424,-0.09363049,0.2010155,-0.4637802,-0.5517846,-0.7445729,0.2304689,0.1340953,0.3919486,0.2101111,-0.8507985,4.416347,-0.09054055,-0.991165,1.337872,-0.2683324,283.7034,225.5183,11.28835
0,0.9888902,0.4089,-0.2520081,0.3432281,-1.380241,-1.226649,-2.440864,-1.07486,0.04825757,0,0,8.242424,-0.09355953,0.2073807,-0.4605325,-0.5560904,-0.7377915,0.2257351,0.1318406,0.3887858,0.2110056,-0.8488336,4.422232,-0.09582134,-0.9923918,1.33492,-0.2707692,283.8378,225.7488,10.7164
0,1.000001,0.403539,-0.2679653,0.3422411,-1.381279,-1.221587,-2.445341,-1.074208,0.05926742,0,0,8.242424,-0.09328297,0.2328572,-0.4475656,-0.5600372,-0.728758,0.219229,0.1240464,0.3833742,0.219165,-0.8465204,4.42801,-0.1007399,-0.9935346,1.331838,-0.2731738,284.048,225.9944,10.13816
0,1.011112,0.3950351,-0.2658514,0.33477,-1.382194,-1.216893,-2.450461,-1.074692,-0.04466456,0,0,8,-0.09090292,0.2562974,-0.4463434,-0.5640516,-0.7200522,0.2127943,0.1224415,0.3640375,0.2252909,-0.8406545,4.43778,-0.1120387,-0.9947854,1.328657,-0.2755736,284.3411,226.2641,9.535639
0,1.022224,0.375792,-0.2552946,0.3251582,-1.38281,-1.212834,-2.454184,-1.073962,0.06716558,0,0,8,-0.09394687,0.2667999,-0.4270389,-0.5673993,-0.712018,0.2072768,0.1165447,0.3418023,0.2217017,-0.84498,4.457467,-0.1266107,-0.9958384,1.325432,-0.2778018,284.6825,226.5901,8.868543
0,1.033335,0.3662027,-0.251077,0.3144775,-1.383498,-1.209008,-2.458694,-1.074672,-0.06546582,0,0,8,-0.08938688,0.2665564,-0.3994039,-0.5703815,-0.7051491,0.2024546,0.1169917,0.3132621,0.203704,-0.8425432,4.473369,-0.139694,-0.9967048,1.322234,-0.2798218,285.0414,227.1168,8.023831
0,1.044446,0.3523183,-0.230947,0.2920286,-1.384262,-1.205954,-2.462657,-1.073586,0.1000138,0,0,8,-0.08182144,0.2536023,-0.3836138,-0.5735235,-0.6995128,0.1983608,0.1144168,0.2955506,0.1954702,-0.8410748,4.477259,-0.1434578,-0.9974307,1.319161,-0.2816662,285.425,227.7027,7.211987
0,1.055557,0.348053,-0.2256888,0.2781557,-1.384695,-1.202408,-2.467071,-1.074401,-0.07536235,0,0,8,-0.0667007,0.2373262,-0.3562281,-0.5762026,-0.6944097,0.1944616,0.1120024,0.2821376,0.1863477,-0.8397533,4.481036,-0.1471082,-0.9981017,1.316363,-0.2833967,285.8845,228.2831,6.46677
0,1.066668,0.3405874,-0.2279047,0.2600595,-1.384852,-1.198894,-2.471253,-1.074214,0.01796777,0,0,8.363637,-0.05270043,0.2125415,-0.3310187,-0.5787017,-0.6906221,0.1914022,0.09979191,0.2576891,0.1680531,-0.8388153,4.484016,-0.1498228,-0.9987817,1.313929,-0.2850212,286.2655,228.6033,5.952464
0,1.077779,0.3331392,-0.2397291,0.2366737,-1.384387,-1.195281,-2.475552,-1.074621,-0.0374117,0,0,8.363637,-0.04186255,0.1973662,-0.3057131,-0.5811582,-0.6863009,0.188163,0.08977091,0.2369497,0.1649617,-0.8410273,4.511097,-0.1718013,-0.9994164,1.311856,-0.2864622,286.4864,228.789,5.569747
0,1.08889,0.3214234,-0.2408938,0.2153728,-1.38412,-1.192097,-2.479586,-1.074509,0.01056648,0,0,8.363637,-0.03534341,0.1811962,-0.2867414,-0.5833575,-0.6828595,0.1854487,0.06976469,0.2080624,0.1569897,-0.8397895,4.513159,-0.1732336,-1.00014,1.310044,-0.287814,286.5472,228.8611,5.367022
0,1.100002,0.3128952,-0.2356223,0.2047003,-1.384149,-1.188925,-2.483496,-1.074643,-0.01235511,0,0,8.363637,-0.04357183,0.1778123,-0.2579131,-0.5849953,-0.6786411,0.182907,0.0595407,0.1777933,0.1375598,-0.840156,4.52713,-0.1838103,-1.000713,1.308409,-0.2890106,286.6074,228.8966,5.227087
0,1.111113,0.2926387,-0.2090681,0.1896811,-1.384633,-1.186848,-2.486796,-1.074527,0.01083717,0,0,8.969697,-0.04319471,0.1721796,-0.2206631,-0.5857623,-0.6750778,0.1805386,0.04796231,0.1435772,0.1122828,-0.8443915,4.539262,-0.1884724,-1.001141,1.306886,-0.2901028,286.7111,228.8459,5.186767
0,1.122224,0.2787612,-0.1856695,0.1842631,-1.385353,-1.184679,-2.48981,-1.074446,0.007309328,0,0,8.969697,-0.0280591,0.1644509,-0.1974577,-0.5868734,-0.6718484,0.17766,0.03123775,0.1097389,0.09242243,-0.844066,4.539433,-0.1883774,-1.001432,1.305426,-0.2910993,286.8257,228.7939,5.125706
0,1.133335,0.2670028,-0.1622943,0.1702993,-1.385686,-1.183203,-2.492588,-1.074109,0.03081215,0,0,8.969697,-0.009955704,0.1429637,-0.187187,-0.5886002,-0.6695405,0.175379,0.02150798,0.0897022,0.07650074,-0.8454705,4.54663,-0.1961748,-1.001682,1.303961,-0.2920298,286.9117,228.8052,4.967372
0,1.144446,0.2509983,-0.1528246,0.1468319,-1.385555,-1.181562,-2.495147,-1.073877,0.02100154,0,0,8.969697,0.001926661,0.1224605,-0.1629844,-0.5895285,-0.6679304,0.1736378,0.01812566,0.0794772,0.06854358,-0.8450972,4.54748,-0.1968473,-1.001922,1.302485,-0.2928455,287.0322,228.9714,4.627801
0,1.155557,0.2371457,-0.1454392,0.1340222,-1.385526,-1.179697,-2.49786,-1.073879,-0.0002594264,0,0,8.969697,0.007286653,0.1106419,-0.1535513,-0.5907504,-0.665697,0.1717001,0.02219796,0.07100292,0.06401049,-0.844621,4.548402,-0.1978689,-1.002162,1.301032,-0.2935271,287.2157,229.2316,4.223609
0,1.166668,0.2190268,-0.1455186,0.1201851,-1.385229,-1.177828,-2.500002,-1.073777,0.009460335,0,0,10.18182,0.01381405,0.08484104,-0.1293319,-0.5913571,-0.6653711,0.1710703,0.02386841,0.05408806,0.05907913,-0.8441379,4.548577,-0.1982984,-1.002489,1.29965,-0.2940753,287.4362,229.3779,3.958337
0,1.17778,0.2030339,-0.1381435,0.1041822,-1.384981,-1.176463,-2.50202,-1.074018,-0.0219199,0,0,10.18182,0.02123986,0.06450956,-0.1221241,-0.5924793,-0.6646371,0.1700538,0.02195275,0.03680138,0.04788731,-0.8602612,4.552989,-0.2069993,-1.002877,1.29836,-0.2944849,287.6236,229.4302,3.849676
0,1.188891,0.18703,-0.1233387,0.08388812,-1.384638,-1.175613,-2.503754,-1.073618,0.03685844,0,0,10.18182,0.03506865,0.0345036,-0.1097408,-0.5933757,-0.6656108,0.1699677,0.02078946,0.02670585,0.03569446,-0.8602596,4.552932,-0.2071484,-1.00315,1.297706,-0.2946931,287.6715,229.7069,3.52685
0,1.200002,0.1688965,-0.1117487,0.0572146,-1.383946,-1.175166,-2.505197,-1.073693,-0.007121199,0,0,10.18182,0.04570664,0.01307197,-0.1004604,-0.5944543,-0.6659878,0.169511,0.02180361,0.01168159,0.02411061,-0.8673697,4.561049,-0.2149179,-1.003422,1.297431,-0.2947656,287.4981,229.1313,4.213223
0,1.211113,0.1550283,-0.10014,0.03692914,-1.38323,-1.174629,-2.506674,-1.073684,0.0009972692,0,0,10.78788,0.04581695,0.01512563,-0.09085038,-0.5949997,-0.6651522,0.1684644,0.0175736,0.007088521,0.02448724,-0.8762348,4.571324,-0.2228813,-1.003827,1.297295,-0.294839,287.2889,228.9824,4.40333
0,1.222224,0.1390212,-0.08317258,0.02301738,-1.382829,-1.174466,-2.507735,-1.073629,0.005130124,0,0,10.78788,0.0480778,0.02357506,-0.08334877,-0.5955734,-0.6639692,0.166875,0.01607344,-0.001709595,0.03153822,-0.8755872,4.57111,-0.2228725,-1.004018,1.297265,-0.2946018,286.8165,229.8217,3.48494
