loc,t,aDotS,bDotS,gDotS,aS,bS,gS,qE,qDotE,tpad,enable,emg,aDotSH,bDotSH,gDotSH,aSH,bSH,gSH,aDotUB,bDotUB,gDotUB,aUB,bUB,gUB,xHand,yHand,zHand,aHand,bHand,gHand
0,0,-0.1122313,-0.8366849,0.3699943,-1.346064,-0.6531525,-2.905268,-1.075895,-0.0268115,0,0,5.69697,-0.4768928,0.2956479,-0.196399,-0.5697237,-0.8280487,0.241704,-0.1972964,0.3357864,-0.04966533,-0.9633655,3.937088,0.1353911,-0.7051399,1.166741,-0.3077953,309.7162,211.4602,358.0742
0,0.01111111,-0.081359,-0.8242349,0.3017442,-1.345114,-0.6442938,-2.907239,-1.075653,0.02237295,0,0,5.69697,-0.4491707,0.2965631,-0.1956378,-0.571035,-0.8210073,0.2398616,-0.1898714,0.3432876,-0.0475534,-0.9632973,3.94208,0.1343535,-0.7040894,1.166599,-0.3105978,309.7233,210.6388,358.4938
0,0.02222222,-0.07505465,-0.7968172,0.257882,-1.344791,-0.6359868,-2.908412,-1.076836,-0.108512,0,0,5.69697,-0.4310592,0.3060958,-0.2000144,-0.5724561,-0.8133443,0.2375939,-0.1845528,0.3443911,-0.04758629,-0.9633011,3.946801,0.1335213,-0.7025191,1.166309,-0.313484,309.7276,209.8941,358.5804
0,0.03333334,-0.0828291,-0.7100562,0.1742495,-1.343496,-0.6312097,-2.908204,-1.076818,0.002501152,0,0,3.878788,-0.4203181,0.3070443,-0.1926678,-0.5735006,-0.8062262,0.2359361,-0.1843991,0.3283854,-0.04231375,-0.9630954,3.950456,0.1334545,-0.7005972,1.165869,-0.3163117,309.7502,209.1786,358.4396
0,0.04444445,-0.08399445,-0.68037,0.1537974,-1.34308,-0.624515,-2.908886,-1.075925,0.08148483,0,0,3.878788,-0.3795039,0.2873099,-0.1538759,-0.5732247,-0.8016956,0.234849,-0.1768047,0.3082033,-0.04351202,-0.9632499,3.953797,0.1332372,-0.6985429,1.165229,-0.3189256,309.7996,208.4658,358.2177
0,0.05555556,-0.1037002,-0.5457684,0.06656984,-1.34083,-0.6236537,-2.907238,-1.075109,0.07367826,0,0,3.878788,-0.3143924,0.2430235,-0.1230234,-0.5731266,-0.7992961,0.2340847,-0.1681752,0.2880504,-0.0511318,-0.9639444,3.956847,0.1330047,-0.6965908,1.164473,-0.3212118,309.9849,207.8676,357.8777
0,0.06666667,-0.1104501,-0.4629813,0.0255497,-1.339874,-0.6212643,-2.90606,-1.075432,-0.0301176,0,0,3.878788,-0.2878568,0.2237042,-0.1224159,-0.5739847,-0.7951704,0.2331755,-0.1638464,0.2827379,-0.04692155,-0.9639162,3.96043,0.1326073,-0.6950784,1.163776,-0.3230522,310.2846,207.3858,357.5184
0,0.07777778,-0.1226271,-0.3474167,-0.04453526,-1.337054,-0.6220883,-2.904107,-1.074449,0.09022867,0,0,3.878788,-0.2367086,0.2041726,-0.1125027,-0.574528,-0.7919096,0.2313802,-0.1498865,0.2732446,-0.0449417,-0.9640536,3.963845,0.1316827,-0.6941408,1.163227,-0.3244819,310.5506,206.9774,357.3457
0,0.08888889,-0.1305579,-0.2254811,-0.1199878,-1.333779,-0.6242364,-2.902084,-1.074491,-0.004569969,0,0,4.606061,-0.2035208,0.1824746,-0.08749101,-0.5742734,-0.789247,0.2304596,-0.1432564,0.2349623,-0.05155008,-0.9648089,3.965655,0.1320211,-0.6940362,1.163007,-0.3253969,310.8076,206.6691,357.2048
0,0.1,-0.1405732,-0.1142758,-0.2049547,-1.329518,-0.6275936,-2.899461,-1.074529,-0.003367202,0,0,4.606061,-0.1510464,0.1199366,-0.03429667,-0.573002,-0.7914457,0.2320977,-0.1311686,0.183909,-0.05076778,-0.9652872,3.966252,0.1327615,-0.6948134,1.163215,-0.3258556,310.9566,206.4975,357.2448
0,0.1111111,-0.1537925,-0.00517325,-0.2845858,-1.324819,-0.632219,-2.896032,-1.074825,-0.02695785,0,0,4.606061,-0.09860148,0.04458746,0.02303931,-0.5714595,-0.7956588,0.23527,-0.1224557,0.15627,-0.0509451,-0.9657826,3.967458,0.1332457,-0.696427,1.163957,-0.3257691,311.0049,206.3603,357.4774
0,0.1222222,-0.1636368,0.06150091,-0.3394049,-1.32019,-0.6362196,-2.892873,-1.074591,0.02166742,0,0,4.606061,-0.04840505,-0.01675045,0.06241914,-0.5699884,-0.8006426,0.2383207,-0.1083056,0.1180027,-0.04693075,-0.9661447,3.967545,0.1339112,-0.6988627,1.165253,-0.3251741,310.9529,206.2554,357.8908
0,0.1333333,-0.1820847,0.1544848,-0.4317016,-1.313823,-0.6426432,-2.888719,-1.074132,0.04180729,0,0,4.484848,-0.01620808,-0.05026908,0.09905449,-0.5682349,-0.8041213,0.2405332,-0.09527707,0.0882383,-0.04180878,-0.9664015,3.967702,0.1345155,-0.702059,1.16703,-0.3241181,310.7582,206.1581,358.4818
0,0.1444445,-0.2175989,0.2496067,-0.5133755,-1.30741,-0.6501793,-2.88323,-1.07431,-0.01656937,0,0,4.484848,-0.004152253,-0.05809135,0.1329439,-0.565917,-0.8069479,0.2425487,-0.08440643,0.0659107,-0.03344826,-0.9664851,3.967701,0.1350867,-0.7058898,1.169189,-0.3227168,310.4753,206.1564,359.2074
0,0.1555556,-0.2637586,0.341569,-0.5854498,-1.300604,-0.6593395,-2.876424,-1.074067,0.02246681,0,0,4.484848,0.01243846,-0.06614817,0.1912708,-0.5624031,-0.8101102,0.2446175,-0.07776673,0.03080638,-0.03470449,-0.9670886,3.966867,0.1361802,-0.7101386,1.17161,-0.3211582,310.1743,206.1709,0.06567595
0,0.1666667,-0.3013086,0.4081089,-0.641337,-1.294158,-0.6680907,-2.86943,-1.073166,0.08230881,0,0,4.484848,0.0235157,-0.06868654,0.2305454,-0.5587461,-0.8135083,0.2468399,-0.06680974,-0.01490953,-0.0381569,-0.9678844,3.965086,0.137613,-0.7147459,1.174225,-0.319517,309.9184,206.0749,0.9178593
0,0.1777778,-0.3560464,0.5128005,-0.7156405,-1.286561,-0.680508,-2.860137,-1.072449,0.06501279,0,0,4.484848,0.0530993,-0.09303327,0.3162955,-0.5530294,-0.8195942,0.2505774,-0.05580232,-0.06065634,-0.0341492,-0.9684409,3.962527,0.13934,-0.7196598,1.177092,-0.3177655,309.7168,205.981,1.66418
0,0.1888889,-0.3979442,0.6016954,-0.7727811,-1.279318,-0.6931382,-2.850936,-1.072433,0.001181497,0,0,4.242424,0.05661654,-0.1510749,0.3722049,-0.5482101,-0.8287709,0.2577546,-0.04064819,-0.1010096,-0.0408054,-0.9694418,3.959882,0.1408983,-0.7248414,1.180284,-0.3158825,309.4833,205.9232,2.406363
0,0.2,-0.4268811,0.6501785,-0.8274846,-1.271224,-0.7055289,-2.841524,-1.071558,0.0802923,0,0,4.242424,0.07360092,-0.2259966,0.4011761,-0.5442095,-0.8406311,0.2665212,-0.03092997,-0.1275394,-0.04949806,-0.9706008,3.957253,0.1424237,-0.7301593,1.183816,-0.3138661,309.1717,205.8635,3.209102
0,0.2111111,-0.4721632,0.7846462,-0.9115776,-1.263046,-0.7225731,-2.829873,-1.072085,-0.04850019,0,0,4.242424,0.1022647,-0.2677821,0.4111424,-0.5406574,-0.850848,0.2731684,-0.0179822,-0.166798,-0.06678916,-0.9724261,3.953778,0.1441628,-0.7358776,1.187711,-0.3118557,308.9145,205.804,3.931347
0,0.2222222,-0.4936644,0.8343728,-0.9460436,-1.255242,-0.737515,-2.81901,-1.072338,-0.02240736,0,0,4.242424,0.1151938,-0.3032681,0.4405122,-0.5362408,-0.8626496,0.2815204,-0.01466346,-0.1912472,-0.07436411,-0.9739617,3.950404,0.1461015,-0.7419714,1.192049,-0.3097879,308.5732,205.7153,4.760122
0,0.2333333,-0.5355225,0.9126871,-0.9913917,-1.247505,-0.7543436,-2.80664,-1.071953,0.03550624,0,0,4.242424,0.1058525,-0.3322965,0.4765775,-0.5313156,-0.8743935,0.2909421,-0.007003173,-0.2178359,-0.07132048,-0.9750237,3.946674,0.14819,-0.7484356,1.196797,-0.3076392,308.1392,205.5192,5.705189
0,0.2444444,-0.5837103,0.9749706,-1.040875,-1.239386,-0.7716978,-2.793023,-1.072541,-0.05359554,0,0,3.393939,0.09133977,-0.3496664,0.5213367,-0.5256504,-0.8869876,0.3013678,0.003905848,-0.2465505,-0.0640496,-0.9760416,3.942215,0.1502651,-0.7554098,1.202022,-0.305302,307.6625,205.3839,6.596002
0,0.2555556,-0.6350101,1.021222,-1.095581,-1.230804,-0.7896752,-2.778333,-1.072134,0.03773975,0,0,3.393939,0.09903806,-0.3691561,0.5519733,-0.5202618,-0.9003817,0.3116245,0.0126133,-0.265694,-0.05673365,-0.9770249,3.938072,0.1522175,-0.7627571,1.207659,-0.3027231,307.0435,205.2662,7.691535
0,0.2666667,-0.6713457,1.049486,-1.13518,-1.223513,-0.8066661,-2.764261,-1.071499,0.0580068,0,0,3.393939,0.1140137,-0.3864056,0.5655023,-0.5155267,-0.9138701,0.3215171,0.02227545,-0.2805216,-0.06112041,-0.9784209,3.934023,0.1540306,-0.7703662,1.213656,-0.2999029,306.3915,205.1585,8.902497
0,0.2777778,-0.6873852,1.066313,-1.155555,-1.215631,-0.8243266,-2.750007,-1.071125,0.03398392,0,0,3.393939,0.1151239,-0.3982147,0.5749726,-0.5107543,-0.9275002,0.3320738,0.0297043,-0.2857573,-0.0707797,-0.9800353,3.930279,0.1555326,-0.7782025,1.219967,-0.2968832,305.7564,204.9765,10.20438
0,0.2888889,-0.7109808,1.096897,-1.178154,-1.20832,-0.8426955,-2.734827,-1.071952,-0.07558189,0,0,4,0.09289354,-0.407846,0.5921766,-0.5057391,-0.9417976,0.3442381,0.03716476,-0.2931398,-0.0783209,-0.9816923,3.926224,0.1571196,-0.7863133,1.226539,-0.2938032,305.1302,204.7379,11.58525
0,0.3,-0.7292271,1.126649,-1.178376,-1.201892,-0.8616732,-2.719532,-1.072607,-0.05886754,0,0,4,0.08460438,-0.3972932,0.6083441,-0.5002748,-0.9549552,0.3551211,0.03820956,-0.2984255,-0.0868711,-0.9834596,3.922305,0.1588349,-0.7944531,1.233328,-0.2906641,304.4224,204.505,13.04326
0,0.3111111,-0.7539884,1.18511,-1.180953,-1.196221,-0.8825471,-2.70271,-1.072441,0.01583943,0,0,4,0.07500237,-0.3790486,0.5990244,-0.4956505,-0.9666162,0.3648355,0.0318232,-0.3027197,-0.09003977,-0.9851054,3.918392,0.1609399,-0.8024167,1.240241,-0.2874728,303.6791,204.1829,14.59434
0,0.3222222,-0.7776565,1.229757,-1.175946,-1.191484,-0.9027887,-2.685908,-1.072934,-0.04501522,0,0,4,0.06110102,-0.3575389,0.5844556,-0.4912477,-0.977501,0.3742327,0.03825887,-0.3037597,-0.08476117,-0.9863986,3.914543,0.1624203,-0.8100228,1.247249,-0.2841868,302.9804,203.889,16.05725
0,0.3333333,-0.7980666,1.262733,-1.168721,-1.187089,-0.9233488,-2.668735,-1.07255,0.03582804,0,0,4,0.05654007,-0.3455071,0.5515872,-0.4879321,-0.9883491,0.3832265,0.04465511,-0.298413,-0.07946075,-0.9876306,3.910944,0.1635871,-0.8174112,1.254295,-0.2809719,302.3324,203.6383,17.3789
0,0.3444445,-0.8280096,1.287211,-1.160336,-1.182857,-0.9440581,-2.650899,-1.072678,-0.01182991,0,0,4,0.03197479,-0.323933,0.5360715,-0.484053,-0.9982492,0.3925095,0.04560448,-0.2771207,-0.07405818,-0.9886304,3.908319,0.1644864,-0.8249566,1.261315,-0.2780107,301.6796,203.3866,18.58532
0,0.3555556,-0.8451383,1.301029,-1.145596,-1.179327,-0.9646118,-2.63308,-1.072817,-0.01238622,0,0,4,0.004219174,-0.3119718,0.5247629,-0.4801935,-1.009216,0.4029672,0.04657106,-0.2590276,-0.06973219,-0.9896014,3.905701,0.1653653,-0.8325502,1.268333,-0.2751935,300.9749,203.0852,19.82458
0,0.3666667,-0.8601362,1.312977,-1.104125,-1.177499,-0.984193,-2.615782,-1.072589,0.02116621,0,0,4,-0.02412564,-0.3401747,0.4790096,-0.478692,-1.021772,0.4152017,0.04854125,-0.2355807,-0.06858958,-0.9905937,3.903829,0.1657807,-0.8401085,1.275359,-0.272423,300.2484,202.7048,21.14938
0,0.3777778,-0.8655397,1.321854,-1.051993,-1.176704,-1.003447,-2.598727,-1.072874,-0.02608887,0,0,4,-0.005349636,-0.3303229,0.4384047,-0.4769471,-1.031299,0.4230543,0.04620759,-0.2131982,-0.07381742,-0.9918752,3.902244,0.166263,-0.8475343,1.282405,-0.2696482,299.5427,202.2852,22.54563
0,0.3888889,-0.8656059,1.323308,-1.00292,-1.176721,-1.022177,-2.582166,-1.07337,-0.0448428,0,0,9.454546,0.0004927516,-0.3042303,0.3767819,-0.4760432,-1.037482,0.4281998,0.04278114,-0.1908093,-0.08435785,-0.9933341,3.900915,0.1666116,-0.8547834,1.289492,-0.266846,298.841,201.8775,23.91887
0,0.4,-0.8635129,1.325733,-0.963519,-1.17685,-1.040808,-2.565712,-1.073773,-0.03627347,0,0,9.454546,-0.019981,-0.2675639,0.338983,-0.4746259,-1.042826,0.4339008,0.03736085,-0.1674529,-0.07357685,-0.9939226,3.899828,0.1669863,-0.8618051,1.296568,-0.2640907,298.0624,201.5645,25.25849
0,0.4111111,-0.8550876,1.336811,-0.9029315,-1.178192,-1.058885,-2.549783,-1.074261,-0.04421697,0,0,9.454546,-0.03801203,-0.2140414,0.3215471,-0.4721071,-1.046703,0.4384218,0.03075644,-0.1260006,-0.06164625,-0.9941229,3.899766,0.1668423,-0.8685911,1.303556,-0.2615127,297.2457,201.2975,26.57928
0,0.4222222,-0.8466848,1.3533,-0.8380605,-1.181162,-1.076877,-2.534054,-1.074479,-0.01952847,0,0,9.454546,-0.07326287,-0.1581525,0.2872806,-0.4702594,-1.048313,0.4418317,0.02741271,-0.09304992,-0.04871162,-0.9941815,3.89994,0.166561,-0.8750213,1.310397,-0.2591265,296.4438,200.9367,27.90598
0,0.4333333,-0.838237,1.362225,-0.7891171,-1.184073,-1.0946,-2.518579,-1.074855,-0.03424941,0,0,9.454546,-0.09461702,-0.1248421,0.2686429,-0.4682428,-1.051158,0.4462185,0.02499993,-0.04728839,-0.04213388,-0.9943684,3.901144,0.1656814,-0.8811187,1.31703,-0.2569015,295.6633,200.3783,29.24632
0,0.4444444,-0.8318774,1.357493,-0.7113092,-1.188692,-1.110831,-2.503598,-1.075055,-0.01789211,0,0,13.33333,-0.1116148,-0.07772128,0.2511421,-0.4659653,-1.051631,0.4484944,0.0172906,-0.006882545,-0.03659783,-0.9943545,3.902722,0.1649037,-0.8869516,1.323386,-0.2547988,294.8426,199.8027,30.49755
0,0.4555556,-0.819096,1.32844,-0.6130699,-1.194097,-1.125292,-2.489219,-1.075176,-0.01080092,0,0,13.33333,-0.1202284,-0.05406821,0.231214,-0.4641224,-1.053622,0.4516535,0.01931358,0.01442441,-0.03120653,-0.9944776,3.903718,0.1639847,-0.8926705,1.329419,-0.2528535,294.0107,199.3875,31.58884
0,0.4666667,-0.8072656,1.296884,-0.5659543,-1.198311,-1.139955,-2.475296,-1.075039,0.01240766,0,0,13.33333,-0.1375263,-0.03023942,0.1975263,-0.4630502,-1.053365,0.4535781,0.02028129,0.02297472,-0.03650679,-0.9949639,3.904476,0.163321,-0.8982308,1.335125,-0.2509959,293.2575,199.0588,32.57526
0,0.4777778,-0.7815289,1.249566,-0.4963465,-1.203501,-1.152282,-2.463127,-1.074896,0.01319614,0,0,13.33333,-0.1486156,-0.01163702,0.1498823,-0.4626966,-1.052455,0.4548112,0.02113745,0.0432485,-0.04495838,-0.9955732,3.905832,0.1623423,-0.903636,1.340533,-0.2492612,292.5114,198.906,33.41924
0,0.4888889,-0.7611508,1.21697,-0.4513478,-1.208508,-1.165038,-2.450942,-1.075341,-0.04077182,0,0,13.33333,-0.1651076,-0.001523167,0.09902078,-0.4630992,-1.051843,0.4565758,0.01980108,0.06991769,-0.05656475,-0.9963301,3.908097,0.160938,-0.9088132,1.345609,-0.2477515,291.7604,198.8161,34.24305
0,0.5,-0.7247481,1.165493,-0.3742454,-1.214501,-1.17503,-2.440813,-1.076172,-0.07584488,0,0,11.87879,-0.1806839,-0.01267655,0.04475758,-0.4645634,-1.051573,0.4588792,0.01946427,0.1157371,-0.05957991,-0.9966204,3.91157,0.1587252,-0.9137703,1.350423,-0.2464889,291.1408,198.6208,35.04875
0,0.5111111,-0.6797861,1.118219,-0.314209,-1.220306,-1.18504,-2.431544,-1.07623,-0.004653329,0,0,11.87879,-0.1929882,-0.02497847,-0.002100714,-0.4662369,-1.051487,0.461301,0.01825747,0.1412678,-0.05308192,-0.9966044,3.914313,0.157114,-0.918517,1.354952,-0.245508,290.4983,198.3225,35.87721
0,0.5222223,-0.6348901,1.075185,-0.2531419,-1.226646,-1.194011,-2.42298,-1.07706,-0.07604656,0,0,11.87879,-0.1964106,-0.01622026,-0.02648855,-0.4671935,-1.050116,0.4623724,0.01700253,0.1668305,-0.05403952,-0.9967669,3.917642,0.1551643,-0.9230615,1.359208,-0.2447875,289.8581,198.0233,36.63113
0,0.5333334,-0.5910613,1.034344,-0.1835655,-1.233428,-1.202118,-2.415161,-1.077723,-0.06008875,0,0,11.87879,-0.2019714,0.02464896,-0.06653759,-0.4680788,-1.04491,0.4600776,0.01146969,0.2008656,-0.04854001,-0.9966087,3.921664,0.1530591,-0.927366,1.363111,-0.2443484,289.1567,197.6542,37.42738
0,0.5444446,-0.5611262,1.004929,-0.1449794,-1.240094,-1.2105,-2.407128,-1.077758,-0.003043615,0,0,12.9697,-0.2278218,0.07208124,-0.1137688,-0.4696469,-1.037168,0.4565998,0.002777264,0.2390961,-0.03341702,-0.9958689,3.926327,0.1507786,-0.9314435,1.366567,-0.2441659,288.4698,197.1886,38.23611
0,0.5555557,-0.5140644,0.9587011,-0.08814943,-1.246918,-1.217317,-2.40083,-1.077814,-0.005349031,0,0,12.9697,-0.2640873,0.1054592,-0.1333094,-0.47053,-1.031227,0.4553875,0.0005571097,0.2603535,-0.02478736,-0.9952137,3.930463,0.1485474,-0.9353447,1.369519,-0.2442106,287.8216,196.8215,38.87177
0,0.5666668,-0.4809138,0.9282209,-0.05275941,-1.253582,-1.224208,-2.394492,-1.077315,0.04540758,0,0,12.9697,-0.2929469,0.1335008,-0.1540522,-0.4716336,-1.024215,0.4534082,-0.01032357,0.2943574,-0.02244966,-0.9946965,3.935803,0.1461287,-0.9390783,1.371946,-0.2444284,287.2409,196.6778,39.20856
0,0.577778,-0.40069,0.8502378,0.0139125,-1.259991,-1.227697,-2.391951,-1.078103,-0.07272344,0,0,12.9697,-0.2885868,0.1569333,-0.156021,-0.472139,-1.017508,0.4505267,-0.01810485,0.3305649,-0.0339754,-0.9948376,3.941608,0.1432858,-0.9427602,1.373958,-0.2447386,286.8028,196.8657,39.10771
0,0.5888891,-0.3599511,0.7984166,0.03777406,-1.26575,-1.232545,-2.388034,-1.077791,0.02903419,0,0,12.9697,-0.2813708,0.1667073,-0.1815797,-0.4737311,-1.010967,0.4475967,-0.02045304,0.351892,-0.04346442,-0.9949927,3.947109,0.1405867,-0.9463054,1.375615,-0.245004,286.4034,197.1711,38.87391
0,0.6000003,-0.2731832,0.6840438,0.07914644,-1.270036,-1.233752,-2.387607,-1.080017,-0.2041948,0,0,12.48485,-0.2808127,0.167113,-0.2273946,-0.4766158,-1.003416,0.4439801,-0.02696942,0.3731388,-0.04015365,-0.9947663,3.952815,0.1379509,-0.949828,1.377008,-0.2452586,286.0153,197.7166,38.51864
0,0.6111114,-0.2281481,0.6257062,0.08496195,-1.274544,-1.237078,-2.385632,-1.078784,0.114211,0,0,12.48485,-0.2810856,0.1758835,-0.2560811,-0.4790819,-0.9957799,0.4403489,-0.02591266,0.3911809,-0.02305389,-0.993881,3.958383,0.1351243,-0.953191,1.378008,-0.2455917,285.5459,197.974,38.57085
0,0.6222225,-0.1650406,0.5623202,0.1206193,-1.279176,-1.238486,-2.385499,-1.080427,-0.1518819,0,0,12.48485,-0.2846152,0.1890079,-0.2921481,-0.4820646,-0.9867384,0.435613,-0.02267474,0.3986069,-0.009198137,-0.9929036,3.963844,0.1322837,-0.9564803,1.378582,-0.2460845,285.1563,198.3119,38.50925
0,0.6333337,-0.09776027,0.51917,0.152937,-1.284242,-1.239929,-2.3861,-1.079127,0.1199801,0,0,12.48485,-0.2839155,0.1989299,-0.3293617,-0.4854591,-0.9772368,0.4303615,-0.02594435,0.4209002,0.003696427,-0.9917537,3.970045,0.1293207,-0.9595442,1.378603,-0.2467924,284.836,198.4478,38.57867
0,0.6444448,-0.05929097,0.4938829,0.1669847,-1.289075,-1.24212,-2.386138,-1.079653,-0.04975974,0,0,14.06061,-0.2807629,0.2246226,-0.345147,-0.4880626,-0.9666423,0.4239968,-0.03357613,0.4485314,0.007052153,-0.9907891,3.977006,0.1261491,-0.9624918,1.378132,-0.2476944,284.6575,199.0806,37.99155
0,0.655556,-0.0004753545,0.4453259,0.1940383,-1.293724,-1.242358,-2.388345,-1.079901,-0.02248829,0,0,14.06061,-0.2804296,0.3035213,-0.3519101,-0.4893979,-0.95105,0.413342,-0.0326978,0.4762136,0.01141925,-0.9897707,3.98422,0.1226498,-0.9653391,1.37722,-0.2487617,284.5162,199.9939,37.05719
0,0.6666671,0.05089546,0.3850363,0.2200415,-1.297574,-1.242296,-2.39033,-1.07899,0.08300289,0,0,14.06061,-0.2726503,0.3482831,-0.3591874,-0.4912973,-0.938572,0.4049914,-0.03907228,0.4984392,0.03711707,-0.987841,3.991405,0.1192968,-0.9680995,1.375909,-0.2499323,284.4022,201.0981,35.87856
0,0.6777782,0.1086968,0.3173089,0.2482689,-1.301098,-1.240649,-2.39394,-1.079945,-0.08846843,0,0,14.06061,-0.2642793,0.3632094,-0.3643372,-0.4932489,-0.9252014,0.3958685,-0.03892487,0.5004872,0.0595056,-0.9857216,3.997825,0.1161005,-0.9708762,1.374318,-0.2511413,284.3658,202.4626,34.437
0,0.6888894,0.1814632,0.2528062,0.2733538,-1.305101,-1.238513,-2.39946,-1.079203,0.06824761,0,0,14.06061,-0.2513773,0.3641214,-0.3538271,-0.4951418,-0.9143436,0.3887928,-0.02696449,0.4951255,0.09030409,-0.9830558,4.003801,0.1127404,-0.9734812,1.372463,-0.2523605,284.3357,203.795,33.12186
0,0.7000005,0.2274344,0.2116016,0.2939201,-1.308643,-1.236499,-2.404052,-1.079741,-0.05023494,0,0,14.78788,-0.2407369,0.3640762,-0.3550107,-0.4972894,-0.9033975,0.3814829,-0.01939133,0.4844978,0.0966068,-0.9812209,4.00954,0.1095379,-0.9758014,1.370387,-0.2535805,284.3776,205.1705,31.76879
0,0.7111117,0.2862315,0.1651722,0.320899,-1.311792,-1.234009,-2.409973,-1.080987,-0.1138607,0,0,14.78788,-0.229156,0.3716146,-0.3710467,-0.4999499,-0.8914463,0.3731576,-0.008687288,0.471784,0.09434506,-0.9798979,4.014981,0.1064095,-0.9779667,1.368103,-0.2549241,284.4093,206.3491,30.58158
0,0.7222228,0.3311503,0.1281695,0.3339802,-1.314975,-1.231572,-2.416031,-1.079575,0.1295389,0,0,14.78788,-0.2249751,0.3834251,-0.3837719,-0.5026429,-0.8789273,0.364521,-0.002272666,0.467573,0.09321901,-0.9783964,4.020886,0.1029219,-0.9800429,1.365504,-0.2564076,284.3646,207.3719,29.47144
0,0.7333339,0.3535926,0.1016978,0.3394741,-1.317884,-1.229547,-2.42065,-1.079983,-0.03895346,0,0,14.78788,-0.2200443,0.3880179,-0.4221467,-0.5067095,-0.8654912,0.3550087,0.00209561,0.468594,0.1112905,-0.9761332,4.026896,0.09946321,-0.9819626,1.362582,-0.2580092,284.4106,208.6788,28.07816
0,0.7444451,0.3771774,0.07308904,0.3460821,-1.320809,-1.227076,-2.426728,-1.079614,0.0338253,0,0,21.81818,-0.2201662,0.3977503,-0.4380379,-0.5100731,-0.8526099,0.346167,0.008536726,0.4760393,0.1261893,-0.9736964,4.033316,0.09553505,-0.9836484,1.359281,-0.2596927,284.5064,209.7799,26.84986
0,0.7555562,0.3900792,0.0465245,0.3484079,-1.323576,-1.224228,-2.432183,-1.077713,0.1731096,0,0,21.81818,-0.1999426,0.3901705,-0.4361991,-0.5132066,-0.841512,0.3380491,0.01808843,0.4877948,0.1336383,-0.9714104,4.04008,0.09124576,-0.9851309,1.355621,-0.2613806,284.7023,211.1061,25.31678
0,0.7666674,0.4071992,0.03165438,0.343198,-1.326299,-1.222056,-2.437905,-1.078432,-0.06755082,0,0,21.81818,-0.1839928,0.3815582,-0.4343214,-0.5163577,-0.8304279,0.3300242,0.02456531,0.4718786,0.1292703,-0.9697086,4.045659,0.08760229,-0.9865794,1.351794,-0.2631129,285.0654,212.7262,23.49804
0,0.7777785,0.4350085,0.003084451,0.3540772,-1.329105,-1.218347,-2.444578,-1.077455,0.08978187,0,0,21.81818,-0.1617678,0.3516068,-0.4337707,-0.5199843,-0.8218675,0.3236225,0.03323057,0.4432003,0.1205656,-0.9684159,4.050117,0.08447121,-0.988067,1.347852,-0.2648491,285.3775,214.0928,21.95071
0,0.7888896,0.4210964,0.007392775,0.3646497,-1.332251,-1.216218,-2.448747,-1.077438,0.0004636917,0,0,21.81818,-0.1321745,0.3024414,-0.4324095,-0.5239711,-0.8153086,0.3184773,0.03135175,0.4037902,0.1129795,-0.9670497,4.053825,0.08201364,-0.9894761,1.343917,-0.2665975,285.7576,215.62,20.28966
0,0.8000008,0.4200343,0.008376375,0.3539886,-1.335107,-1.21395,-2.453918,-1.077721,-0.02596659,0,0,19.15152,-0.1195991,0.2854273,-0.4433553,-0.5282151,-0.8071072,0.312278,0.0250369,0.3920304,0.1119125,-0.9655216,4.058544,0.07926526,-0.9907537,1.340122,-0.268232,286.1707,216.9703,18.72584
0,0.8111119,0.4167972,0.0201465,0.3634842,-1.338776,-1.211566,-2.459265,-1.075383,0.2137951,0,0,19.15152,-0.1194971,0.296049,-0.4390036,-0.531707,-0.7967715,0.3048187,0.02075356,0.3909329,0.108746,-0.9639732,4.063648,0.07630516,-0.9916429,1.336493,-0.2697199,286.4971,218.2984,17.30727
0,0.8222231,0.4200355,0.01049618,0.3529039,-1.341463,-1.209008,-2.464622,-1.075946,-0.05345719,0,0,19.15152,-0.1107445,0.2926087,-0.4167578,-0.5345199,-0.7884911,0.2986376,0.01885048,0.3685099,0.1182604,-0.9620686,4.067644,0.07387768,-0.9922628,1.333174,-0.2711524,286.8515,219.6654,15.88828
0,0.8333342,0.4286008,-0.0001336746,0.3508631,-1.34424,-1.206236,-2.47029,-1.076091,-0.01266826,0,0,19.15152,-0.08598489,0.2826357,-0.3872899,-0.5367585,-0.7812021,0.2926793,0.02113554,0.3514696,0.1202987,-0.9604983,4.071574,0.07121,-0.9929446,1.330203,-0.272623,287.087,220.5699,14.84599
0,0.8444453,0.444662,-0.01726689,0.329694,-1.346097,-1.203747,-2.476105,-1.07595,0.01288906,0,0,19.15152,-0.06767443,0.2781,-0.3672907,-0.5391506,-0.7739588,0.2865489,0.01908994,0.3344306,0.1149207,-0.9592456,4.075242,0.06897481,-0.9936903,1.327525,-0.274096,287.1803,221.3666,13.88711
0,0.8555565,0.448928,-0.02697743,0.305277,-1.348239,-1.201798,-2.480952,-1.076076,-0.01175917,0,0,17.45455,-0.05166027,0.2651531,-0.3579949,-0.542022,-0.7670692,0.2807773,0.02548337,0.3355123,0.1202064,-0.9574661,4.079652,0.0661207,-0.9943709,1.325041,-0.2755004,287.2251,221.9379,13.14717
0,0.8666676,0.4520884,-0.03141286,0.2765398,-1.349647,-1.200131,-2.485446,-1.076176,-0.009128002,0,0,17.45455,-0.04848072,0.2747815,-0.3632678,-0.5451858,-0.7581519,0.2737146,0.03083208,0.3344774,0.1222958,-0.9557664,4.084123,0.06301358,-0.9949422,1.322643,-0.2767753,287.2593,222.4004,12.50961
0,0.8777788,0.4414074,-0.02096736,0.2540843,-1.351413,-1.198874,-2.490385,-1.075229,0.08657157,0,0,17.45455,-0.05040255,0.2874606,-0.3503479,-0.5476322,-0.7494923,0.2669281,0.03085822,0.3259655,0.1180106,-0.9543108,4.088184,0.06035256,-0.9953452,1.320219,-0.2778503,287.3013,222.6653,12.05816
0,0.8888899,0.4136702,-0.006269071,0.2411747,-1.353436,-1.197703,-2.494511,-1.074787,0.03957545,0,0,17.45455,-0.04586276,0.2840008,-0.3227188,-0.5493435,-0.7422209,0.261267,0.02681963,0.2939744,0.1157732,-0.9530825,4.090679,0.05873575,-0.9956928,1.317705,-0.278674,287.4109,223.1192,11.40998
0,0.900001,0.3709221,0.02111573,0.2239079,-1.355738,-1.197201,-2.49689,-1.075283,-0.04556059,0,0,10.30303,-0.03612053,0.2774071,-0.3058395,-0.5514059,-0.7354165,0.2555636,0.02595368,0.2652087,0.1146032,-0.9517339,4.093081,0.05708139,-0.9959746,1.31522,-0.2792451,287.7115,223.8057,10.62359
0,0.9111122,0.3527545,0.03592138,0.2173845,-1.358069,-1.196789,-2.500394,-1.074555,0.06696226,0,0,10.30303,-0.02208233,0.26862,-0.2837047,-0.5531961,-0.7289492,0.2500255,0.02613597,0.2491828,0.1262557,-0.9498063,4.095839,0.05527258,-0.9964458,1.312747,-0.279656,287.934,224.3521,10.04042
0,0.9222233,0.3324787,0.0463953,0.204509,-1.360101,-1.19638,-2.503491,-1.07295,0.1461945,0,0,10.30303,-0.001620561,0.2522924,-0.256377,-0.5546027,-0.7236192,0.2449003,0.0348769,0.2300246,0.1378404,-0.947777,4.098126,0.05326216,-0.997209,1.310282,-0.2799911,288.1324,225.1458,9.278553
0,0.9333345,0.2877892,0.03752846,0.1832324,-1.361301,-1.195688,-2.505423,-1.074086,-0.1049695,0,0,10.30303,0.008036703,0.2340001,-0.2417327,-0.5562726,-0.7189443,0.2405018,0.03931755,0.200244,0.1323734,-0.9463831,4.099756,0.05170074,-0.9979166,1.308059,-0.2801846,288.5181,226.2199,8.282356
0,0.9444456,0.2644021,0.02779341,0.1768998,-1.362817,-1.194448,-2.508175,-1.073984,0.01052887,0,0,10.30303,0.01136476,0.1889521,-0.2091566,-0.557553,-0.7168122,0.23853,0.03725286,0.1757893,0.1163133,-0.9455245,4.101171,0.05050658,-0.9986175,1.306154,-0.2802871,288.822,226.9951,7.57346
0,0.9555568,0.2752163,-0.007430678,0.1611835,-1.363166,-1.192657,-2.51197,-1.072891,0.0998226,0,0,7.151515,0.0210107,0.1482036,-0.1851252,-0.5587499,-0.7154555,0.2368357,0.03629009,0.1375247,0.09059288,-0.9454818,4.101452,0.04995771,-0.9992008,1.304588,-0.2802945,289.0144,227.5619,7.068163
0,0.9666679,0.2796045,-0.03416836,0.1464597,-1.363167,-1.19079,-2.515677,-1.073678,-0.0726708,0,0,7.151515,0.02746299,0.1213776,-0.1662628,-0.5598748,-0.7134625,0.2348314,0.02883074,0.11092,0.06497975,-0.9454973,4.101778,0.04985305,-0.9997699,1.303369,-0.2802937,289.1222,227.8881,6.776367
0,0.977779,0.2562385,-0.04617892,0.1198955,-1.362944,-1.189751,-2.51798,-1.074863,-0.1074889,0,0,7.151515,0.0287016,0.09341753,-0.1377618,-0.5604281,-0.7130395,0.2340985,0.02245997,0.09282614,0.04897361,-0.9454573,4.102316,0.04950843,-1.000369,1.302401,-0.2803592,289.0802,228.0805,6.619186
0,0.9888902,0.2370337,-0.0409723,0.1166514,-1.363809,-1.188629,-2.520059,-1.074937,-0.005846933,0,0,7.151515,0.02339129,0.08487128,-0.1313877,-0.5615137,-0.7109085,0.2323771,0.01929893,0.08430038,0.0468418,-0.9447697,4.103367,0.04885809,-1.000836,1.301532,-0.2805133,288.976,228.1137,6.664325
0,1.000001,0.1986152,-0.02206274,0.1026391,-1.364677,-1.188486,-2.521105,-1.073746,0.1088908,0,0,5.575758,0.01067336,0.08595448,-0.1259099,-0.5624692,-0.7085654,0.2307262,0.0161864,0.0768038,0.05109538,-0.9440389,4.104054,0.04838724,-1.001099,1.300596,-0.2807939,288.8994,228.0187,6.790679
0,1.011112,0.1708936,-0.01585136,0.09191151,-1.365321,-1.188363,-2.522072,-1.073497,0.02191425,0,0,5.575758,0.006610103,0.08367513,-0.1056488,-0.5628122,-0.7063044,0.2290819,0.01950274,0.06507319,0.05741016,-0.9432267,4.104262,0.04803038,-1.00122,1.299597,-0.2811286,288.9784,227.9768,6.695442
0,1.022224,0.1581619,-0.02555652,0.08237982,-1.365461,-1.18754,-2.523724,-1.072851,0.05907676,0,0,5.575758,0.007703125,0.06331907,-0.09306131,-0.5634759,-0.7058,0.2286366,0.0206312,0.05337534,0.0541615,-0.9427228,4.104472,0.04764422,-1.001319,1.29894,-0.2813465,289.0531,227.6146,6.957481
0,1.033335,0.1422713,-0.04384206,0.06758532,-1.365079,-1.186421,-2.524973,-1.072947,-0.00903179,0,0,5.575758,0.008786581,0.04190347,-0.08154635,-0.5640516,-0.7060242,0.2287016,0.01629653,0.04275004,0.0349813,-0.9429231,4.104345,0.04787538,-1.001507,1.298701,-0.281412,289.0646,227.6763,6.784921
0,1.044446,0.1359014,-0.04708714,0.06548217,-1.365371,-1.185386,-2.526654,-1.073742,-0.07241713,0,0,5.575758,0.01301519,0.03120999,-0.07955859,-0.564857,-0.7057387,0.2281642,0.01526433,0.03423648,0.0306944,-0.9427228,4.104445,0.0476807,-1.00192,1.298609,-0.2814336,288.8958,227.7869,6.676323
0,1.055557,0.1241663,-0.04186481,0.05797815,-1.365518,-1.184886,-2.527764,-1.073553,0.01797653,0,0,3.878788,0.02267776,0.01291237,-0.06384532,-0.5650716,-0.7064748,0.2282763,0.01091574,0.03213076,0.015797,-0.9431111,4.104839,0.04746552,-1.002124,1.298695,-0.2812377,288.4706,228.5684,5.799327
