loc,t,aDotS,bDotS,gDotS,aS,bS,gS,qE,qDotE,tpad,enable,emg,aDotSH,bDotSH,gDotSH,aSH,bSH,gSH,aDotUB,bDotUB,gDotUB,aUB,bUB,gUB,xHand,yHand,zHand,aHand,bHand,gHand
0,0,0.184886,-0.7362182,0.2417549,-1.359911,-0.6702889,-2.884367,-1.080645,-0.3164986,0,0,2.666667,-0.3922905,0.3066457,-0.1566309,-0.5353817,-0.9596488,0.2633176,-0.1862923,0.2488407,-0.1260813,-0.9070471,3.800159,0.137536,-0.6936871,1.185511,-0.3052836,306.5043,212.7979,357.2193
0,0.01111111,0.1730465,-0.7078199,0.2200329,-1.359977,-0.6626589,-2.887594,-1.075441,0.4785777,0,0,1.818182,-0.375032,0.3031779,-0.1355484,-0.5354387,-0.9527235,0.2611277,-0.1818976,0.2222918,-0.1368599,-0.9086359,3.802723,0.1379222,-0.6926754,1.183915,-0.3064369,306.4896,211.6429,358.0003
0,0.02222222,0.1612042,-0.6751848,0.1961682,-1.360175,-0.6555973,-2.890734,-1.073531,0.1699776,0,0,1.818182,-0.3323349,0.3018169,-0.1275084,-0.5357279,-0.9458163,0.2575277,-0.1839655,0.2126938,-0.1379554,-0.9099116,3.805577,0.1382886,-0.6909752,1.181387,-0.3076425,307.0519,211.1982,358.0255
0,0.03333334,0.1310222,-0.6383319,0.1880294,-1.360585,-0.6491269,-2.892449,-1.074721,-0.1097331,0,0,1.818182,-0.3173292,0.2995214,-0.118112,-0.5360065,-0.9391015,0.2548546,-0.180778,0.2190995,-0.1336905,-0.9109737,3.809324,0.1377712,-0.6888629,1.178371,-0.3089944,308.0496,210.929,357.6831
0,0.04444445,0.09759384,-0.5783134,0.1583088,-1.36044,-0.6443076,-2.893349,-1.074969,-0.02154425,0,0,1.818182,-0.3022539,0.2672155,-0.08874182,-0.5354877,-0.9355541,0.254632,-0.1838706,0.2179241,-0.1123751,-0.9111926,3.812422,0.1380311,-0.6864689,1.175378,-0.3104436,309.1172,210.6169,357.2897
0,0.05555556,0.06082971,-0.4982084,0.117657,-1.359585,-0.6412935,-2.893339,-1.073732,0.1131788,0,0,1.818182,-0.2936213,0.2467624,-0.06984563,-0.5350711,-0.9315439,0.2541849,-0.1858431,0.2050814,-0.1007094,-0.9117481,3.814909,0.138511,-0.6838783,1.172824,-0.3117904,310.0038,210.2704,356.8665
0,0.06666667,0.0123729,-0.4118984,0.07043244,-1.358432,-0.6396258,-2.89249,-1.073254,0.04277977,0,0,2.424242,-0.2890637,0.2390132,-0.04013529,-0.5339862,-0.9270837,0.2533481,-0.18574,0.1848766,-0.1093155,-0.9130685,3.816857,0.1394125,-0.6814765,1.170903,-0.3131897,310.7077,209.9351,356.4334
0,0.07777778,-0.02209836,-0.3498016,0.03639084,-1.35724,-0.6380486,-2.891404,-1.072894,0.03286342,0,0,2.424242,-0.273778,0.2493265,-0.0114437,-0.5324501,-0.9214751,0.2511177,-0.1825036,0.1700644,-0.1243012,-0.9147862,3.819221,0.1398791,-0.6794745,1.169854,-0.3144829,311.1604,209.5412,356.0656
0,0.08888889,-0.08109078,-0.2595518,-0.02913029,-1.354406,-0.6389126,-2.888435,-1.072559,0.03057402,0,0,2.424242,-0.2414649,0.2403168,0.02434021,-0.5305448,-0.9171591,0.2491094,-0.1770584,0.1498859,-0.1297382,-0.9162744,3.820894,0.1406844,-0.6783205,1.169637,-0.3157828,311.3533,209.171,355.8065
0,0.1,-0.1400722,-0.1703771,-0.09460439,-1.351468,-0.6409366,-2.884408,-1.072597,-0.003480012,0,0,2.424242,-0.1893193,0.1898082,0.0424817,-0.529372,-0.9164379,0.2490146,-0.1693979,0.1179977,-0.1341653,-0.917859,3.821497,0.1419659,-0.6781069,1.170278,-0.3169842,311.2996,208.8736,355.7433
0,0.1111111,-0.195538,-0.08994035,-0.1834121,-1.346821,-0.6436946,-2.879911,-1.071572,0.09401163,0,0,2.424242,-0.1628532,0.1266933,0.05653176,-0.5285517,-0.9178249,0.2512954,-0.1552904,0.08187687,-0.1333022,-0.9192007,3.821629,0.1431335,-0.6787436,1.171683,-0.3179307,310.9785,208.6227,355.9093
0,0.1222222,-0.2433624,-0.01910425,-0.279468,-1.341478,-0.6471189,-2.874968,-1.071061,0.04627473,0,0,1.333333,-0.1055213,0.03133951,0.08272976,-0.5274907,-0.9241707,0.2560315,-0.1358827,0.04580945,-0.1377996,-0.9209499,3.821126,0.1443463,-0.6802459,1.17371,-0.3186372,310.5623,208.3843,356.2569
0,0.1333333,-0.2824025,0.01473609,-0.3590778,-1.335214,-0.6501287,-2.869825,-1.071184,-0.01123632,0,0,1.333333,-0.07363012,-0.01049237,0.09584814,-0.5263695,-0.9273521,0.2586814,-0.1239948,0.02245695,-0.1368794,-0.9224242,3.820967,0.1454523,-0.6824936,1.176292,-0.3189412,310.0645,208.1464,356.7254
0,0.1444445,-0.3295899,0.04911067,-0.4781744,-1.326629,-0.654368,-2.863563,-1.07139,-0.01836645,0,0,1.333333,-0.04175644,-0.06942894,0.1152014,-0.5252339,-0.9338662,0.263625,-0.1046345,-0.006158158,-0.1402808,-0.9242224,3.819976,0.1465681,-0.6854026,1.17929,-0.3188446,309.545,207.8702,357.3877
0,0.1555556,-0.3736519,0.101495,-0.6123689,-1.316617,-0.660481,-2.856396,-1.071586,-0.01745981,0,0,1.333333,-0.02544476,-0.1061587,0.1626288,-0.5225367,-0.9395872,0.2685473,-0.08752939,-0.02090711,-0.1521407,-0.9263795,3.819563,0.1471862,-0.6888494,1.182563,-0.3184009,309.0039,207.5613,358.2656
0,0.1666667,-0.3882574,0.1304297,-0.6788921,-1.308344,-0.6655958,-2.850364,-1.071239,0.03205249,0,0,-0.1212121,-0.03447627,-0.1290362,0.2232472,-0.5188754,-0.9460214,0.2748452,-0.08649331,-0.03039904,-0.1734909,-0.9290975,3.819247,0.1483133,-0.6927106,1.185852,-0.3177925,308.4291,207.1606,359.3521
0,0.1777778,-0.4111838,0.165354,-0.7732541,-1.298094,-0.6719864,-2.843413,-1.07125,-0.0008836954,0,0,-0.1212121,-0.04467107,-0.1475478,0.2732647,-0.5149941,-0.9529403,0.2816817,-0.07147574,-0.0642425,-0.2056559,-0.9325953,3.817804,0.1493964,-0.6968066,1.189192,-0.3168772,308.0187,206.5667,0.4692314
0,0.1888889,-0.416171,0.1933085,-0.8418172,-1.287856,-0.6785793,-2.836828,-1.072615,-0.1244307,0,0,-0.1212121,-0.04983005,-0.1562109,0.2924052,-0.5122191,-0.958608,0.2873138,-0.06599517,-0.08869595,-0.2089783,-0.9351994,3.816134,0.1509943,-0.701232,1.192606,-0.3156636,307.747,205.973,1.530191
0,0.2,-0.4054542,0.2659159,-0.9341265,-1.276748,-0.6879414,-2.829972,-1.072574,0.005043745,0,0,-0.1212121,-0.03853723,-0.1803326,0.3613121,-0.5070243,-0.9677224,0.2953424,-0.06688045,-0.1174478,-0.2133543,-0.9380388,3.813823,0.1531448,-0.7058905,1.196062,-0.3143081,307.4758,205.5478,2.633921
0,0.2111111,-0.3820477,0.291461,-0.9618803,-1.26718,-0.6957631,-2.824029,-1.073315,-0.06761968,0,0,-0.1212121,-0.03284562,-0.2116872,0.4089014,-0.5023825,-0.9777833,0.3043421,-0.06235123,-0.1515246,-0.2081859,-0.9404607,3.810973,0.1552532,-0.7106613,1.199589,-0.3128012,307.2554,205.0628,3.828734
0,0.2222222,-0.3554797,0.3359931,-1.007921,-1.256742,-0.7050272,-2.818097,-1.074188,-0.07910962,0,0,16.9697,-0.0240382,-0.2675997,0.4604989,-0.4972995,-0.9918198,0.3166072,-0.05807771,-0.154682,-0.2103487,-0.9431239,3.809182,0.156845,-0.7155015,1.203211,-0.3112041,307.0901,204.5051,5.024546
0,0.2333333,-0.3522736,0.3665218,-1.04552,-1.246101,-0.7146305,-2.811079,-1.074942,-0.06809225,0,0,16.9697,-0.01861262,-0.2880363,0.4783617,-0.4931205,-1.003285,0.3266511,-0.05487451,-0.1620772,-0.2178353,-0.9458265,3.807424,0.1584434,-0.7204925,1.207016,-0.309363,306.9281,203.9077,6.094894
0,0.2444444,-0.6521671,0.5109907,-1.164029,-1.234276,-0.7312257,-2.788311,-1.07555,-0.0550964,0,0,16.9697,-0.02181226,-0.3158329,0.4909282,-0.4889926,-1.016452,0.3386159,-0.04837525,-0.1949457,-0.2446337,-0.9499277,3.804125,0.1607098,-0.725589,1.210944,-0.3072971,306.6835,203.4423,7.171819
0,0.2555556,-0.7224085,0.6166598,-1.075312,-1.229511,-0.7450055,-2.773516,-1.074703,0.07776448,0,0,16.9697,-0.03555864,-0.3265487,0.5058867,-0.4847901,-1.028525,0.3503023,-0.040673,-0.2363935,-0.2522917,-0.953491,3.800124,0.163263,-0.7307554,1.214972,-0.3049799,306.4543,202.9606,8.334155
0,0.2666667,-0.8778341,0.7359001,-1.119683,-1.22101,-0.7626297,-2.752883,-1.061649,1.192966,0,0,16.12121,-0.02766281,-0.3387156,0.5504296,-0.4792241,-1.042606,0.3627066,-0.03095618,-0.2523238,-0.2481405,-0.9566548,3.796562,0.1653392,-0.7360768,1.21905,-0.3024287,306.2495,202.3858,9.526795
0,0.2777778,-0.8942382,0.8056108,-1.157897,-1.212281,-0.7795696,-2.73652,-1.068369,-0.6235732,0,0,16.12121,-0.004747987,-0.3585391,0.6085936,-0.4728032,-1.058875,0.3764879,-0.02217746,-0.2874243,-0.2461954,-0.9599652,3.791998,0.1678734,-0.7421541,1.223841,-0.300065,306.632,202.498,10.04846
0,0.2888889,-0.9021741,0.8544094,-1.167045,-1.204558,-0.7956364,-2.720871,-1.065981,0.2260325,0,0,16.12121,0.005094886,-0.3727131,0.6381873,-0.4671887,-1.074991,0.3904809,-0.01990148,-0.3076477,-0.2441571,-0.963169,3.787909,0.1703909,-0.7487626,1.229821,-0.2980066,306.5576,202.7509,10.77808
0,0.3,-0.9133133,0.9063367,-1.179439,-1.197281,-0.8129358,-2.704129,-1.070651,-0.4293556,0,0,16.12121,-0.001521587,-0.4067291,0.6336883,-0.463046,-1.092652,0.4064628,-0.005909085,-0.3277967,-0.2432389,-0.9665112,3.783275,0.17264,-0.7559969,1.237108,-0.2964596,306.1629,202.6613,11.92467
0,0.3111111,-0.9241159,0.9269953,-1.203333,-1.189913,-0.8298697,-2.687365,-1.07239,-0.1546546,0,0,16.12121,-0.01420015,-0.4481323,0.6185098,-0.4595055,-1.110351,0.4228098,0.001607716,-0.3373134,-0.2454521,-0.9700495,3.779236,0.1746389,-0.7634489,1.245651,-0.295036,305.1876,201.8503,13.70636
0,0.3222222,-0.9240153,0.9494435,-1.225802,-1.181693,-0.848334,-2.670007,-1.07238,0.00222639,0,0,15.75758,-0.005677521,-0.4829489,0.5818976,-0.4579135,-1.129876,0.4401278,0.001532286,-0.3277173,-0.2475423,-0.9734147,3.775912,0.176501,-0.7707779,1.255028,-0.2934822,303.7769,200.7722,15.76567
0,0.3333333,-0.9347929,0.9789258,-1.24858,-1.174459,-0.8670421,-2.652175,-1.072647,-0.02425807,0,0,15.75758,-0.01579362,-0.4910225,0.5371863,-0.4563268,-1.145949,0.4548413,0.007923484,-0.3234285,-0.2432974,-0.9765572,3.772451,0.1780749,-0.7778776,1.264747,-0.2917432,302.2584,199.6082,17.96368
0,0.3444445,-0.9341063,1.023534,-1.261854,-1.167847,-0.8867959,-2.634231,-1.073064,-0.03782116,0,0,15.75758,-0.03297716,-0.4726318,0.5162352,-0.453931,-1.16045,0.4688008,0.004654527,-0.3127979,-0.2432385,-0.979754,3.769351,0.1798675,-0.784722,1.27432,-0.2898844,300.8664,198.2467,20.36647
0,0.3555556,-0.9583719,1.078854,-1.244591,-1.163148,-0.9072021,-2.614468,-1.073111,-0.003844491,0,0,15.75758,-0.05080765,-0.4096446,0.5116809,-0.4499491,-1.171187,0.4795935,0.003416747,-0.2861904,-0.2388624,-0.9826686,3.767155,0.1812004,-0.7914396,1.283432,-0.2878864,299.7576,196.7624,22.73684
0,0.3666667,-0.9738548,1.115106,-1.227036,-1.158943,-0.9272216,-2.595194,-1.073747,-0.05780414,0,0,14.30303,-0.06554765,-0.3562185,0.5027422,-0.4462435,-1.181004,0.4897007,0.00873068,-0.2829667,-0.2367422,-0.9857222,3.764128,0.1826015,-0.7980714,1.291955,-0.2857171,298.9174,195.5051,24.84199
0,0.3777778,-0.9767094,1.154906,-1.196554,-1.156413,-0.9477556,-2.576213,-1.072574,0.1078685,0,0,14.30303,-0.1029716,-0.3120432,0.4694815,-0.4434009,-1.189826,0.5000434,0.005466267,-0.2659854,-0.2270782,-0.9884461,3.761751,0.1839331,-0.8046408,1.299888,-0.2832851,298.2696,194.5444,26.62732
0,0.3888889,-0.9678828,1.192704,-1.160699,-1.154168,-0.9684052,-2.557321,-1.073104,-0.04911355,0,0,14.30303,-0.1245551,-0.2956672,0.4379133,-0.4413785,-1.200262,0.5116572,0.007413536,-0.231929,-0.2152323,-0.9907742,3.760471,0.1845086,-0.8111897,1.307383,-0.280646,297.7822,194.0369,28.04828
0,0.4,-0.9546767,1.228291,-1.135391,-1.152792,-0.9889883,-2.538964,-1.073957,-0.0773507,0,0,14.30303,-0.121846,-0.2984906,0.3952414,-0.4405545,-1.210488,0.5221487,-0.001295105,-0.1958266,-0.2011933,-0.9926699,3.759718,0.1852205,-0.817802,1.314562,-0.2779594,297.335,193.704,29.40357
0,0.4111111,-0.9340053,1.260975,-1.100332,-1.15258,-1.009507,-2.521414,-1.074378,-0.03769931,0,0,14.30303,-0.1237904,-0.3127311,0.3216175,-0.4416043,-1.220044,0.5320144,-0.005706832,-0.1713757,-0.194675,-0.9947327,3.758896,0.1859675,-0.8244218,1.321577,-0.2753661,296.8792,193.5137,30.70208
0,0.4222222,-0.9057285,1.284166,-1.063012,-1.152857,-1.029643,-2.504773,-1.075022,-0.05859773,0,0,12.48485,-0.1413235,-0.3047495,0.2739406,-0.4420437,-1.227828,0.5412092,-0.01131664,-0.1266937,-0.1891365,-0.996541,3.759517,0.1859321,-0.8308036,1.328547,-0.2727272,296.3846,193.1342,32.07198
0,0.4333333,-0.8793542,1.281572,-1.032887,-1.152961,-1.048171,-2.488706,-1.075879,-0.0778492,0,0,12.48485,-0.1706634,-0.2912905,0.2168456,-0.4431287,-1.23359,0.5494852,-0.02214505,-0.09053302,-0.1857577,-0.9984921,3.75971,0.18638,-0.8371074,1.335492,-0.27015,295.7853,192.5898,33.53859
0,0.4444444,-0.8426133,1.282681,-0.9718165,-1.154814,-1.066139,-2.473709,-1.076619,-0.06705248,0,0,12.48485,-0.1782615,-0.2665281,0.192651,-0.4431569,-1.239064,0.5566646,-0.03946543,-0.06402216,-0.1908743,-1.00057,3.760876,0.1868865,-0.8433689,1.342391,-0.2676915,295.1041,191.9935,35.06866
0,0.4555556,-0.8141592,1.26645,-0.9255657,-1.156385,-1.083535,-2.4584,-1.076438,0.01687432,0,0,12.48485,-0.1996186,-0.2161064,0.1656406,-0.4427287,-1.241383,0.5617352,-0.04708549,-0.04168902,-0.1950136,-1.002871,3.761548,0.1871299,-0.8493591,1.349178,-0.2652087,294.4018,191.2589,36.72858
0,0.4666667,-0.7781566,1.227138,-0.8555356,-1.158733,-1.09851,-2.445227,-1.077028,-0.05427389,0,0,12.48485,-0.2356892,-0.1721849,0.1600436,-0.4415713,-1.244208,0.5683412,-0.06118082,-0.006626569,-0.1958686,-1.004838,3.763369,0.1873161,-0.8550652,1.355746,-0.262769,293.7238,190.3786,38.50331
0,0.4777778,-0.7328237,1.179802,-0.7501258,-1.162589,-1.111186,-2.433809,-1.076326,0.0646004,0,0,24.24242,-0.261318,-0.1302755,0.1351388,-0.4410376,-1.24482,0.5727064,-0.07524039,0.02946312,-0.1871329,-1.006294,3.765458,0.1874519,-0.8604435,1.361997,-0.2603454,293.0288,189.5446,40.15433
0,0.4888889,-0.7075943,1.163653,-0.6942937,-1.166131,-1.125646,-2.421163,-1.077149,-0.07607304,0,0,24.24242,-0.2732508,-0.0883107,0.09622614,-0.4411547,-1.24367,0.5749626,-0.08820208,0.05811914,-0.1826931,-1.007817,3.767758,0.1876466,-0.8653541,1.367928,-0.2579342,292.4355,188.8899,41.61473
0,0.5,-0.6687128,1.148904,-0.6213061,-1.170963,-1.138737,-2.410037,-1.07779,-0.05805355,0,0,24.24242,-0.2667933,-0.0263458,0.07328182,-0.440196,-1.24021,0.5745168,-0.1034905,0.1155261,-0.1770521,-1.008933,3.771868,0.1871318,-0.8700593,1.373429,-0.2557957,291.7934,188.1594,43.16523
0,0.5111111,-0.644657,1.139217,-0.5601771,-1.176247,-1.151591,-2.398971,-1.076991,0.07336842,0,0,24.24242,-0.3039394,0.02294767,0.0634882,-0.4387307,-1.23737,0.5765752,-0.105665,0.121903,-0.1770156,-1.010559,3.774116,0.1871765,-0.8745334,1.378363,-0.2541519,291.1103,187.5331,44.6245
0,0.5222223,-0.603755,1.137236,-0.4905051,-1.182519,-1.163775,-2.389192,-1.07752,-0.04940865,0,0,25.33333,-0.3211593,0.04778874,0.0362041,-0.4384415,-1.234022,0.5776719,-0.1144593,0.1686503,-0.1629264,-1.011219,3.778218,0.1866564,-0.8787587,1.382738,-0.2529104,290.5747,186.9535,45.74122
0,0.5333334,-0.5627629,1.126787,-0.4175115,-1.18934,-1.174957,-2.380318,-1.07722,0.02786078,0,0,25.33333,-0.3363646,0.0684365,0.000342513,-0.4386631,-1.229947,0.5781661,-0.1125515,0.2059241,-0.1563966,-1.012212,3.782637,0.1853387,-0.8826551,1.386607,-0.2518833,290.0796,186.5127,46.52595
0,0.5444446,-0.517266,1.100312,-0.3517617,-1.195845,-1.184889,-2.372625,-1.077832,-0.05652387,0,0,25.33333,-0.3176434,0.06550243,-0.04037642,-0.4398637,-1.226907,0.5780903,-0.1086303,0.2687197,-0.1359121,-1.012065,3.788708,0.1831608,-0.8862981,1.390072,-0.2510039,289.6154,186.2848,47.04477
0,0.5555557,-0.4821677,1.079724,-0.3213681,-1.201959,-1.195679,-2.364513,-1.078025,-0.01730695,0,0,25.33333,-0.2902937,0.06457695,-0.07158301,-0.4410738,-1.223125,0.5769813,-0.1109286,0.2932005,-0.1336614,-1.012709,3.793658,0.1819123,-0.8897926,1.393175,-0.2501707,289.1037,186.0221,47.5687
0,0.5666668,-0.4162296,1.038359,-0.2723147,-1.208278,-1.204596,-2.35833,-1.078309,-0.02610596,0,0,25.33333,-0.2270234,0.08938205,-0.1423677,-0.4433822,-1.215168,0.5701205,-0.1197325,0.3262136,-0.1452018,-1.013806,3.799598,0.1803879,-0.8932275,1.395942,-0.2493856,288.5628,185.8572,48.06697
0,0.577778,-0.3799742,1.002951,-0.2342908,-1.214332,-1.212868,-2.352591,-1.077789,0.04746868,0,0,25.57576,-0.240975,0.1259146,-0.1685152,-0.4442973,-1.206863,0.5657066,-0.1253597,0.3666825,-0.1503359,-1.01476,3.806171,0.1784262,-0.8966517,1.398363,-0.2486288,288.0688,185.6331,48.61231
0,0.5888891,-0.3247629,0.9722239,-0.1769029,-1.221369,-1.219923,-2.348645,-1.078531,-0.06860093,0,0,25.57576,-0.2449637,0.1792009,-0.1690602,-0.4440427,-1.197678,0.5602572,-0.1234248,0.3986329,-0.1448852,-1.015187,3.812852,0.1761977,-0.9000866,1.400476,-0.2477867,287.6313,185.3788,49.15147
0,0.6000003,-0.2898686,0.9497572,-0.123052,-1.228729,-1.227054,-2.344147,-1.078382,0.01402766,0,0,25.57576,-0.2287478,0.2538122,-0.1824071,-0.4433385,-1.183975,0.5499265,-0.1033382,0.447621,-0.1074941,-1.014059,3.820486,0.1725158,-0.9034019,1.4022,-0.2467944,287.1404,185.0688,49.81566
0,0.6111114,-0.2678971,0.9525741,-0.08231243,-1.236955,-1.2345,-2.339568,-1.079223,-0.07742589,0,0,25.57576,-0.2182528,0.2752767,-0.2068245,-0.4441114,-1.17341,0.5424145,-0.09914869,0.4678352,-0.09357787,-1.013685,3.827343,0.1697936,-0.9066878,1.403548,-0.2457519,286.6608,185.1264,50.18442
0,0.6222225,-0.2291207,0.9589807,-0.02234352,-1.246158,-1.241105,-2.336291,-1.078284,0.08634418,0,0,27.39394,-0.2049094,0.253157,-0.2423323,-0.4464577,-1.164515,0.5362091,-0.08974221,0.4977066,-0.08817077,-1.013366,3.835193,0.1663093,-0.9099184,1.404437,-0.2447618,286.1282,185.2461,50.54094
0,0.6333337,-0.1723398,0.9667794,0.04951274,-1.25606,-1.24695,-2.334584,-1.077714,0.05086463,0,0,27.39394,-0.2066226,0.2323188,-0.2915025,-0.4495309,-1.155037,0.5300404,-0.08463264,0.5191025,-0.1030242,-1.014033,3.842786,0.1630981,-0.9131567,1.404897,-0.2438996,285.6303,185.9183,50.28952
0,0.6444448,-0.101296,0.9574152,0.09611353,-1.265292,-1.252494,-2.334184,-1.078256,-0.05011625,0,0,27.39394,-0.2155241,0.1995129,-0.3108918,-0.4525275,-1.147984,0.5263525,-0.07626562,0.5288284,-0.1221983,-1.01502,3.850392,0.1596507,-0.9164806,1.405126,-0.2432579,285.2101,187.2452,49.34272
0,0.655556,-0.03654093,0.9510361,0.1309433,-1.274518,-1.257845,-2.334515,-1.07918,-0.08427763,0,0,27.39394,-0.1976721,0.1728864,-0.3219861,-0.4554336,-1.141517,0.5221905,-0.0658218,0.5312113,-0.1637768,-1.017258,3.857949,0.1560825,-0.9195603,1.405126,-0.2427026,284.7177,188.5118,48.42101
0,0.6666671,0.001827374,0.9356682,0.1485295,-1.283126,-1.263289,-2.334307,-1.079928,-0.06798635,0,0,27.39394,-0.1787627,0.1590993,-0.3393603,-0.4583503,-1.13397,0.5167728,-0.06271997,0.5313176,-0.1840317,-1.019089,3.865238,0.1528449,-0.9223107,1.40488,-0.2422748,284.1599,189.7136,47.56885
0,0.6777782,0.06285517,0.8960477,0.1677024,-1.291109,-1.267421,-2.33614,-1.080031,-0.009452366,0,0,25.09091,-0.1749952,0.1391591,-0.3747424,-0.4626204,-1.12645,0.5118084,-0.06056628,0.5207294,-0.1947422,-1.020767,3.87185,0.1500454,-0.924734,1.404305,-0.2419512,283.6245,190.6341,46.91645
0,0.6888894,0.08755395,0.8719243,0.1788868,-1.29915,-1.271969,-2.336757,-1.078892,0.1037076,0,0,25.09091,-0.1903374,0.1427864,-0.4139492,-0.4666817,-1.117055,0.5062293,-0.04251286,0.5442096,-0.1755502,-1.021021,3.879917,0.1455484,-0.9270534,1.403352,-0.2417726,283.1397,191.5128,46.21216
0,0.7000005,0.122936,0.8383876,0.1945008,-1.306814,-1.275857,-2.338272,-1.07984,-0.08797426,0,0,25.09091,-0.2149673,0.1654864,-0.4358436,-0.470326,-1.106091,0.499637,-0.03513852,0.5676259,-0.1584416,-1.021233,3.888236,0.1413206,-0.9294911,1.40207,-0.241702,282.7615,192.7916,45.03097
0,0.7111117,0.1571186,0.8102743,0.2218009,-1.315036,-1.279049,-2.340513,-1.078309,0.1405699,0,0,25.09091,-0.2242759,0.1973984,-0.4258699,-0.4727196,-1.095541,0.4929077,-0.0309059,0.5814534,-0.1445468,-1.021434,3.896429,0.1372694,-0.9319583,1.400424,-0.2416987,282.4291,194.2442,43.72829
0,0.7222228,0.1953498,0.7855637,0.262921,-1.323638,-1.281619,-2.343213,-1.078346,-0.005074826,0,0,25.09091,-0.2209201,0.2122273,-0.4183135,-0.4752443,-1.085516,0.4863135,-0.03079733,0.5855901,-0.1147008,-1.020815,3.904164,0.1335423,-0.9345291,1.398497,-0.2417274,282.1936,196.2993,41.7918
0,0.7333339,0.2228915,0.7797502,0.2888411,-1.332658,-1.284818,-2.345909,-1.078469,-0.01142212,0,0,9.69697,-0.211438,0.2122537,-0.4269413,-0.4786627,-1.076123,0.4800979,-0.02748591,0.5802168,-0.0987642,-1.020648,3.91138,0.1299503,-0.9371379,1.396391,-0.2417288,282.0159,198.7016,39.51642
0,0.7444451,0.2592137,0.7537353,0.3118595,-1.340925,-1.287046,-2.349684,-1.078337,0.01188835,0,0,9.69697,-0.2102401,0.2132129,-0.41522,-0.4812337,-1.067187,0.4745774,-0.0220401,0.5600313,-0.1031348,-1.021217,3.91808,0.1265159,-0.9396986,1.394168,-0.2417182,281.821,201.4488,36.96706
0,0.7555562,0.2767421,0.712348,0.3092702,-1.348065,-1.289396,-2.352854,-1.078038,0.02704732,0,0,9.69697,-0.1931396,0.2194975,-0.4132202,-0.4841046,-1.057542,0.4676604,-0.02300704,0.5451041,-0.1031992,-1.021813,3.924824,0.1233241,-0.9421766,1.391895,-0.2417376,281.6344,204.4715,34.14971
0,0.7666674,0.2749842,0.6782615,0.3117452,-1.355104,-1.291532,-2.3555,-1.078428,-0.03625718,0,0,9.69697,-0.1910574,0.2152539,-0.4164823,-0.4874293,-1.048649,0.4617556,-0.01872244,0.5504178,-0.09470023,-1.022065,3.932242,0.1194121,-0.9446124,1.389648,-0.2418254,281.4555,207.5895,31.26377
0,0.7777785,0.2883258,0.6146794,0.3306337,-1.361217,-1.292041,-2.359226,-1.077501,0.08483469,0,0,9.575758,-0.1924101,0.2144279,-0.4420447,-0.4915726,-1.038757,0.4552117,-0.02084506,0.559924,-0.07867125,-1.021652,3.939847,0.1157383,-0.9470293,1.387391,-0.2420951,281.2612,210.1838,28.93408
0,0.7888896,0.2960445,0.5860985,0.3417439,-1.368973,-1.293151,-2.363018,-1.076493,0.09111739,0,0,9.575758,-0.1958114,0.2242488,-0.4653537,-0.4956835,-1.027691,0.4477639,-0.01230082,0.5705488,-0.0573755,-1.021053,3.947789,0.1114853,-0.949523,1.385091,-0.24254,281.115,212.1933,27.02211
0,0.8000008,0.3146483,0.5341823,0.3499271,-1.374937,-1.293257,-2.367188,-1.076883,-0.03652497,0,0,9.575758,-0.2013525,0.2372926,-0.4907431,-0.500074,-1.01616,0.4400581,-0.005898952,0.5832878,-0.03604591,-1.019985,3.955865,0.1071041,-0.9521406,1.382775,-0.2431392,281.0041,214.3815,24.90332
0,0.8111119,0.3333157,0.4812244,0.3624802,-1.381755,-1.292933,-2.372391,-1.076905,-0.001618917,0,0,9.575758,-0.2270225,0.2610451,-0.510484,-0.5042147,-1.003652,0.4324952,-0.01007473,0.5948212,0.0002311319,-1.01816,3.96382,0.1031709,-0.9547509,1.380436,-0.2439701,280.9421,216.821,22.60032
0,0.8222231,0.3420945,0.4462994,0.3757136,-1.387765,-1.292451,-2.376629,-1.076836,0.005961419,0,0,9.575758,-0.2404079,0.3045959,-0.4886303,-0.5065812,-0.9904094,0.4240546,-0.01529068,0.5999788,0.03223588,-1.016008,3.97173,0.09935375,-0.9572325,1.378082,-0.2449612,280.9116,219.4349,20.03356
0,0.8333342,0.3575582,0.3837416,0.389277,-1.392527,-1.290725,-2.381319,-1.077527,-0.06338155,0,0,9.69697,-0.2379237,0.3256947,-0.4660878,-0.5087788,-0.9783985,0.4161125,-0.006525159,0.5903014,0.06622364,-1.013902,3.978746,0.09529829,-0.9595605,1.375668,-0.2460895,280.896,221.5367,17.88556
0,0.8444453,0.3638691,0.2816987,0.4052861,-1.395782,-1.287414,-2.386256,-1.07636,0.1071148,0,0,9.69697,-0.2258911,0.3317925,-0.4405949,-0.5108864,-0.9677832,0.4089135,0.005491912,0.5678786,0.09803335,-1.011402,3.98503,0.09147639,-0.9617848,1.37313,-0.2472928,280.8479,223.5237,15.7728
0,0.8555565,0.3677376,0.2146834,0.4113515,-1.399468,-1.28429,-2.391078,-1.076246,0.009279799,0,0,9.69697,-0.220395,0.3305576,-0.4246836,-0.5133786,-0.9575976,0.4022915,0.01529643,0.5444464,0.1117337,-1.009307,3.991019,0.08783638,-0.9638821,1.370459,-0.2485984,280.8755,225.7913,13.51362
0,0.8666676,0.3784702,0.1019664,0.4211456,-1.401417,-1.279174,-2.396657,-1.076072,0.01590194,0,0,9.69697,-0.2053429,0.3164582,-0.4058011,-0.5157041,-0.9488124,0.3964086,0.02944282,0.5178212,0.1328609,-1.006807,3.996665,0.08394763,-0.9657815,1.367642,-0.2501817,280.99,227.8067,11.66212
0,0.8777788,0.3914269,-0.02031188,0.4310737,-1.40235,-1.272548,-2.402594,-1.07585,0.0200181,0,0,13.45455,-0.1990375,0.3090099,-0.4102073,-0.5190075,-0.9390343,0.3899475,0.05102527,0.4817223,0.1390062,-1.0047,4.001417,0.0800935,-0.9676502,1.364718,-0.2522263,281.2263,229.2243,10.2511
0,0.8888899,0.398142,-0.151261,0.4324688,-1.40126,-1.265196,-2.407933,-1.076128,-0.02573414,0,0,13.45455,-0.1791264,0.2867097,-0.4287436,-0.5229916,-0.9299689,0.3835985,0.07254896,0.4414334,0.1280902,-1.003303,4.005691,0.07641408,-0.9694352,1.361727,-0.2546466,281.5035,230.3689,8.865932
0,0.900001,0.3979794,-0.2280438,0.4258192,-1.401257,-1.258309,-2.413587,-1.076147,-0.001437762,0,0,13.45455,-0.1572761,0.2570707,-0.4622829,-0.5279983,-0.9217158,0.3775577,0.09186223,0.4107381,0.1118961,-1.002306,4.009873,0.07253598,-0.9710809,1.358661,-0.2574287,281.7789,231.0144,7.885217
0,0.9111122,0.3924104,-0.2974309,0.4190502,-1.40108,-1.251057,-2.418966,-1.075308,0.07662068,0,0,13.45455,-0.1521223,0.2411484,-0.4710089,-0.5323105,-0.9134653,0.3719504,0.1058107,0.3916945,0.1021579,-1.00123,4.014324,0.06849757,-0.9724281,1.355486,-0.2605251,282.0781,231.2757,7.275925
0,0.9222233,0.3708806,-0.3564851,0.398159,-1.399659,-1.243971,-2.423558,-1.075531,-0.02114123,0,0,13.45455,-0.1439475,0.203948,-0.4852893,-0.5375473,-0.9075941,0.3682033,0.1174754,0.3710397,0.06970284,-0.8843245,4.134521,0.08103254,-0.9735262,1.352251,-0.2640012,282.4742,231.0782,7.071476
0,0.9333345,0.3515664,-0.3702003,0.4290171,-1.401357,-1.236674,-2.427963,-1.075178,0.03247797,0,0,12.72727,-0.1355142,0.1697509,-0.4771706,-0.5418217,-0.9024036,0.3651018,0.123512,0.3536855,0.04314239,-0.8831213,4.144372,0.07160388,-0.9744856,1.348995,-0.2676616,282.8701,230.7492,6.721465
0,0.9444456,0.3333399,-0.3629005,0.4319564,-1.402491,-1.230607,-2.431972,-1.074363,0.07419048,0,0,12.72727,-0.1260915,0.149511,-0.4827867,-0.546739,-0.8968504,0.3614322,0.1291579,0.3445832,0.04966121,-0.8335028,4.189374,0.06715108,-0.9754844,1.345795,-0.2713549,283.2602,230.4335,6.27871
0,0.9555568,0.3235545,-0.3354232,0.4209183,-1.403972,-1.225608,-2.436079,-1.074119,0.02186091,0,0,12.72727,-0.1239067,0.1334077,-0.4701744,-0.5509052,-0.8916221,0.3583193,0.1298336,0.345582,0.05960194,-0.8291592,4.197982,0.05672107,-0.9765258,1.342665,-0.2748895,283.6028,230.0055,5.980341
0,0.9666679,0.3481112,-0.3225807,0.401838,-1.404792,-1.220563,-2.441741,-1.074017,0.009078315,0,0,12.72727,-0.1216477,0.1354299,-0.4595266,-0.5547743,-0.8856651,0.3545112,0.1344396,0.3469785,0.06372581,-0.8248827,4.209935,0.04593261,-0.9777331,1.339692,-0.278227,283.8943,230.374,5.054611
0,0.977779,0.3612939,-0.3407734,0.380848,-1.404712,-1.214856,-2.447128,-1.074403,-0.03520179,0,0,8.727273,-0.1193831,0.1363866,-0.4478205,-0.5584025,-0.8796554,0.3506638,0.1347972,0.3468115,0.07650327,-0.8234281,4.21506,0.04093358,-0.9788754,1.336932,-0.2812386,284.1978,230.8454,4.162976
0,0.9888902,0.35303,-0.3505926,0.3670129,-1.404789,-1.20945,-2.451884,-1.076035,-0.1488656,0,0,8.727273,-0.1161219,0.1331065,-0.4404286,-0.5622567,-0.8743131,0.3473031,0.1233422,0.3369542,0.07882646,-0.8223144,4.219629,0.03684403,-0.9799541,1.33441,-0.2838342,284.4445,231.1057,3.552014
0,1.000001,0.3374503,-0.3596269,0.3349978,-1.404044,-1.204435,-2.455905,-1.075766,0.02581268,0,0,8.727273,-0.1061563,0.1348973,-0.4074903,-0.5648192,-0.8692526,0.3437587,0.1076722,0.3090566,0.06930796,-0.8217604,4.223075,0.03380696,-0.9809971,1.332004,-0.2860436,284.545,231.1032,3.314593
0,1.011112,0.323727,-0.3504272,0.3123904,-1.403821,-1.200025,-2.459976,-1.075056,0.06455101,0,0,8.727273,-0.1078002,0.1526954,-0.3710923,-0.566898,-0.8631231,0.3399192,0.1017297,0.2870147,0.06920719,-0.8191436,4.24086,0.008996424,-0.9819369,1.329623,-0.2879003,284.6841,231.142,3.097688
0,1.022224,0.3161067,-0.334543,0.3110841,-1.404521,-1.195361,-2.463984,-1.074301,0.06847492,0,0,8.727273,-0.09766471,0.1832166,-0.3357664,-0.5682855,-0.8562404,0.3348515,0.09369975,0.2581277,0.06685375,-0.8184709,4.243393,0.006508233,-0.9829315,1.327281,-0.2895931,284.9152,231.311,2.843668
0,1.033335,0.299794,-0.2911926,0.2944362,-1.404976,-1.192996,-2.466863,-1.074431,-0.01239875,0,0,7.636364,-0.08879656,0.1967922,-0.3101643,-0.5698728,-0.8499681,0.3303278,0.0943626,0.2539115,0.07686335,-0.8154168,4.252794,-0.005637912,-0.9838992,1.324975,-0.2911587,285.1717,231.2905,2.754783
0,1.044446,0.2854684,-0.2329516,0.276644,-1.406528,-1.190637,-2.469878,-1.074423,0.000947163,0,0,7.636364,-0.0789097,0.1954245,-0.2825853,-0.5712097,-0.8449049,0.3265845,0.08522314,0.2387181,0.08325408,-0.8142689,4.255694,-0.008256066,-0.9848598,1.322736,-0.2926004,285.4189,231.3597,2.509665
0,1.055557,0.2680748,-0.1843448,0.2567841,-1.408015,-1.188961,-2.472496,-1.073767,0.06003205,0,0,7.636364,-0.07015415,0.1812861,-0.2551125,-0.5726558,-0.8409858,0.3238095,0.0785967,0.205978,0.0797386,-0.8145432,4.265079,-0.01819765,-0.9857264,1.320596,-0.293947,285.6646,231.7782,1.982069
0,1.066668,0.2582917,-0.1547879,0.2414626,-1.409168,-1.186786,-2.475168,-1.073957,-0.01781898,0,0,7.636364,-0.05515574,0.1704405,-0.2425924,-0.574316,-0.8370347,0.3205671,0.06731573,0.1793553,0.08167436,-0.8150535,4.271327,-0.02174045,-0.9865298,1.318663,-0.2952181,285.9923,232.2467,1.418184
0,1.077779,0.2411429,-0.1148724,0.2057163,-1.410107,-1.186235,-2.477319,-1.073845,0.01057182,0,0,7.636364,-0.03692946,0.1413654,-0.2185547,-0.5757477,-0.8349133,0.3186347,0.0540038,0.1419123,0.07609006,-0.8143952,4.271783,-0.02221103,-0.9873888,1.317037,-0.2964056,286.2882,232.6345,0.8642549
0,1.08889,0.2318277,-0.1109813,0.1746944,-1.410469,-1.184161,-2.479996,-1.073941,-0.00879044,0,0,8.484849,-0.01839226,0.1291747,-0.1805511,-0.5768173,-0.831971,0.3161974,0.04678954,0.1114329,0.06410598,-0.816195,4.279909,-0.02925669,-0.9882841,1.315706,-0.2974394,286.4235,232.9246,0.4204714
0,1.100002,0.227684,-0.1091584,0.156523,-1.410378,-1.182879,-2.48241,-1.073834,0.009945996,0,0,8.484849,-0.001137272,0.122468,-0.1520053,-0.5766356,-0.8299432,0.3136913,0.04673883,0.09568937,0.04999179,-0.8162647,4.2802,-0.02983619,-0.9892403,1.314617,-0.2983622,286.4643,233.1216,0.1220753
0,1.111113,0.2108672,-0.1012016,0.1211181,-1.409985,-1.18198,-2.484109,-1.074232,-0.03640626,0,0,8.484849,0.01294309,0.1018811,-0.1204034,-0.5769984,-0.8283176,0.3119725,0.05349045,0.06954383,0.04075778,-0.8200741,4.284619,-0.03498888,-0.990102,1.313759,-0.2990076,286.5175,233.2016,359.9074
0,1.122224,0.192766,-0.08457372,0.1005259,-1.410082,-1.181439,-2.48571,-1.07425,-0.001209229,0,0,8.484849,0.02471724,0.06967862,-0.1005856,-0.5775433,-0.8285259,0.3114852,0.04843682,0.05033054,0.03735345,-0.8197743,4.284535,-0.03530979,-0.9909475,1.313063,-0.2994555,286.5328,233.191,359.8612
0,1.133335,0.1648551,-0.0499076,0.08283018,-1.410638,-1.181874,-2.486523,-1.073706,0.04983102,0,0,6.909091,0.04283385,0.03963075,-0.08614714,-0.5782682,-0.8287523,0.3106782,0.04220211,0.02802882,0.02646423,-0.8198238,4.283946,-0.03516358,-0.9916905,1.31244,-0.2996744,286.503,233.0623,359.9674
0,1.144446,0.1455957,-0.03003249,0.06859332,-1.411145,-1.181823,-2.487531,-1.073744,-0.00386066,0,0,6.909091,0.05778053,0.02561858,-0.07685186,-0.5788306,-0.8287619,0.3095706,0.0412218,0.0205905,0.0242298,-0.8196331,4.283919,-0.03555799,-0.9924435,1.311816,-0.2997288,286.4656,232.9621,0.06686465
0,1.155557,0.1317821,-0.01652719,0.05125656,-1.41103,-1.182068,-2.488833,-1.073295,0.04121811,0,0,6.909091,0.06305776,0.0117177,-0.0738368,-0.5795401,-0.8286724,0.3088228,0.04127481,0.005286766,0.02704904,-0.8265291,4.298081,-0.05736422,-0.9933278,1.311195,-0.2996728,286.5069,233.1273,359.9207
0,1.166668,0.1211286,-0.007172029,0.04040277,-1.411251,-1.182152,-2.48987,-1.07355,-0.02343845,0,0,6.909091,0.06959157,0.007287506,-0.05903386,-0.5797068,-0.8287501,0.3078808,0.03836198,-0.01001719,0.02140293,-0.8300647,4.308333,-0.06603122,-0.9943688,1.310654,-0.2995445,286.6413,233.4391,359.665
0,1.17778,0.09676041,0.006106931,0.01125451,-1.410937,-1.183253,-2.490035,-1.074096,-0.04959894,0,0,6.909091,0.08693847,-0.0005343482,-0.02733636,-0.578952,-0.8291198,0.3068404,0.03752484,-0.02070902,0.02226287,-0.8297584,4.307535,-0.06588208,-0.9955078,1.3102,-0.299333,286.7312,233.6631,359.5164
0,1.188891,0.08827532,0.01334398,-0.0006222818,-1.410885,-1.183734,-2.490793,-1.073997,0.009524389,0,0,13.93939,0.08807756,-0.007013038,-0.01782414,-0.5790415,-0.8294095,0.3060862,0.038192,-0.02783766,0.02401248,-0.835587,4.313331,-0.07722341,-0.9966058,1.309826,-0.2990581,286.7712,233.757,359.543
0,1.200002,0.07674248,0.01195681,-0.01882927,-1.410251,-1.184327,-2.491166,-1.07341,0.05364306,0,0,13.93939,0.0924816,-0.01357279,-0.001951849,-0.578649,-0.8303528,0.3056968,0.03522966,-0.04273874,0.02054236,-0.835382,4.311977,-0.07660503,-0.9975581,1.30949,-0.2986718,286.7735,233.7857,359.5616
0,1.211113,0.07374372,0.005380132,-0.03263487,-1.40954,-1.184566,-2.49179,-1.074,-0.05423277,0,0,13.93939,0.09891175,-0.02646807,0.007447759,-0.5784993,-0.8315251,0.3054007,0.03863057,-0.06025131,0.02230789,-0.8361665,4.32061,-0.08076941,-0.998312,1.309238,-0.2980942,286.8303,233.7835,359.5539
0,1.222224,0.06867059,-0.008639183,-0.04318805,-1.40854,-1.184634,-2.492363,-1.073853,0.01397779,0,0,13.93939,0.1169086,-0.04572527,0.006006898,-0.5788088,-0.8335034,0.3051911,0.03881812,-0.07400481,0.01775211,-0.8360254,4.318914,-0.08006261,-0.9991124,1.309059,-0.297429,286.8472,233.7651,359.5956
0,1.233335,0.06566127,-0.0162398,-0.05485567,-1.407689,-1.185048,-2.492812,-1.074154,-0.02753619,0,0,10.18182,0.1221232,-0.05956383,0.002625736,-0.5792103,-0.8350858,0.3050694,0.03974468,-0.08097758,0.01431307,-0.8386773,4.324117,-0.08074784,-0.9999982,1.308937,-0.2967273,286.8555,233.7399,359.7126
0,1.244446,0.06250629,-0.01632024,-0.05914655,-1.406979,-1.185383,-2.493346,-1.074223,-0.006015529,0,0,10.18182,0.1306363,-0.07029898,0.006694817,-0.5793723,-0.8372094,0.3051082,0.03977029,-0.08621462,0.009942476,-0.8386193,4.322599,-0.08016328,-1.000898,1.30885,-0.2960446,286.85,233.6812,359.9155
0,1.255558,0.06027446,-0.003595497,-0.06250049,-1.406579,-1.186217,-2.493929,-1.074257,-0.003045236,0,0,10.18182,0.1201635,-0.05327705,0.01548983,-0.5788993,-0.837324,0.3043082,0.03860913,-0.09127916,0.0149129,-0.844744,4.327557,-0.09418242,-1.001758,1.308776,-0.2953986,286.8551,233.5595,0.1383928
0,1.266669,0.04952466,0.009032576,-0.06595448,-1.405979,-1.1873,-2.494106,-1.074421,-0.01494814,0,0,10.18182,0.1075994,-0.03627528,0.02750413,-0.5781552,-0.8374006,0.3036174,0.03969866,-0.0860941,0.02246558,-0.8441586,4.326607,-0.0940221,-1.002561,1.308712,-0.2947896,286.87,233.4476,0.3074468
0,1.27778,0.04734464,0.01537743,-0.06817366,-1.40553,-1.188101,-2.494437,-1.07464,-0.01983327,0,0,10.18182,0.09295121,-0.01074316,0.03962154,-0.5771352,-0.836582,0.3023801,0.04097716,-0.07742673,0.03096465,-0.8487644,4.33111,-0.1012454,-1.003354,1.308636,-0.2942289,286.8671,233.362,0.4192041
0,1.288891,0.04523221,0.01324797,-0.06710985,-1.40507,-1.18875,-2.494838,-1.07436,0.02588927,0,0,14.66667,0.09093021,-0.001188904,0.04505974,-0.5764359,-0.8364142,0.3012299,0.04213765,-0.06238897,0.03891773,-0.8471499,4.335516,-0.1084572,-1.004194,1.308532,-0.2937393,286.8538,233.4207,0.4522424
0,1.300002,0.04423543,0.007898984,-0.06812775,-1.404391,-1.189152,-2.495235,-1.074499,-0.01296227,0,0,14.66667,0.09085345,-5.520135E-05,0.03761315,-0.5762601,-0.8364248,0.3002315,0.0454103,-0.05931537,0.04745596,-0.8462983,4.334981,-0.1086913,-1.005019,1.308392,-0.293377,286.8654,233.4773,0.5474175
0,1.311113,0.04213861,0.004689271,-0.06704403,-1.403811,-1.18947,-2.495704,-1.074627,-0.01154096,0,0,14.66667,0.09806257,-0.02128312,0.02455712,-0.5766883,-0.8381436,0.3002552,0.04416502,-0.06245615,0.04514765,-0.8503713,4.33462,-0.1214966,-1.005676,1.308235,-0.293017,286.9133,233.3932,0.6354359
0,1.322224,0.03892732,0.001515227,-0.06171376,-1.403357,-1.1897,-2.495978,-1.074645,-0.001485035,0,0,14.66667,0.09142368,-0.03923231,0.01061537,-0.5773163,-0.8397746,0.3008214,0.04535223,-0.0677828,0.04607409,-0.8497422,4.333514,-0.1213073,-1.006158,1.308085,-0.2926113,286.9747,233.2933,0.687018
0,1.333336,0.03025679,0.01317532,-0.05873713,-1.403131,-1.190661,-2.495976,-1.074745,-0.009087865,0,0,14.66667,0.08928524,-0.03599901,0.008538267,-0.5772886,-0.840059,0.3001625,0.04549981,-0.06524475,0.03965681,-0.8538275,4.337025,-0.1290603,-1.006583,1.307947,-0.2921838,287.0279,233.1877,0.7638324
0,1.344447,0.01829803,0.02699385,-0.04940605,-1.403437,-1.191396,-2.495678,-1.074587,0.01449924,0,0,15.75758,0.07985489,-0.02859097,0.0193645,-0.5767763,-0.8405043,0.2999795,0.04759429,-0.06825472,0.03316364,-0.8535585,4.335917,-0.1289465,-1.00702,1.307827,-0.2917674,287.0659,233.1121,0.8510182
0,1.355558,0.01179129,0.0344185,-0.04529651,-1.403327,-1.192139,-2.49557,-1.074465,0.01109164,0,0,15.75758,0.0788276,-0.02647147,0.02152442,-0.5765318,-0.8409315,0.2994211,0.05235649,-0.06665665,0.02952834,-0.8635097,4.340295,-0.140764,-1.007493,1.307716,-0.2913771,287.0766,233.0898,0.9136457
0,1.366669,0.007352562,0.04508943,-0.03905734,-1.40367,-1.192924,-2.495373,-1.074189,0.02511761,0,0,15.75758,0.08093575,-0.03074335,0.02146189,-0.5764534,-0.8419104,0.2992741,0.04812697,-0.06678589,0.03171733,-0.862976,4.339386,-0.1405518,-1.008014,1.30762,-0.2910157,287.083,233.1465,0.9044317
0,1.37778,0.002952999,0.05258079,-0.03173204,-1.403981,-1.193776,-2.495326,-1.074436,-0.02266136,0,0,15.75758,0.07965808,-0.04340009,0.008572792,-0.5770692,-0.8432069,0.2995532,0.05186072,-0.06132055,0.04426,-0.8705986,4.343335,-0.1500316,-1.008527,1.307573,-0.2906512,287.1049,233.2867,0.8074433
0,1.388891,0.003030849,0.04409451,-0.02845734,-1.403778,-1.194199,-2.495512,-1.07446,-0.001983772,0,0,15.0303,0.07320856,-0.04225422,0.003326452,-0.5773195,-0.8438993,0.2995862,0.04890037,-0.05584047,0.04954011,-0.8765342,4.346599,-0.1559598,-1.008998,1.30758,-0.2902828,287.1147,233.3477,0.7906939
0,1.400002,-0.001190368,0.03769048,-0.02523299,-1.403764,-1.194481,-2.495315,-1.074683,-0.02028938,0,0,15.0303,0.06590012,-0.02522109,0.008890848,-0.5769808,-0.8435589,0.2988069,0.04762571,-0.04933243,0.0433059,-0.8762088,4.346255,-0.156245,-1.009421,1.307659,-0.2899041,287.1226,233.484,0.7105143
0,1.411114,-0.004426149,0.0377164,-0.01993988,-1.403955,-1.19496,-2.495245,-1.07491,-0.02055814,0,0,15.0303,0.06389438,-0.02103386,0.01854049,-0.5764652,-0.8439222,0.2984818,0.04578169,-0.06172047,0.03451804,-0.8785214,4.348023,-0.1597617,-1.009805,1.307804,-0.2895807,287.1013,233.6456,0.6793001
0,1.422225,-0.004623803,0.04214573,-0.004003674,-1.404717,-1.195115,-2.495188,-1.074555,0.03260411,0,0,15.0303,0.06929845,-0.02647561,0.0280194,-0.5760071,-0.8450477,0.2984815,0.04380785,-0.07643808,0.02356572,-0.8783979,4.346321,-0.159102,-1.010101,1.307964,-0.2893401,287.0471,233.6218,0.797387
0,1.433336,-0.001544101,0.04442397,0.004487433,-1.405088,-1.19596,-2.494943,-1.074711,-0.01451738,0,0,15.0303,0.07250295,-0.03291972,0.03218208,-0.575794,-0.8462524,0.2986424,0.0378539,-0.08179974,0.01902062,-0.884055,4.342866,-0.161779,-1.010311,1.308135,-0.2891558,287.0168,233.5789,0.8337922
0,1.444447,-0.002704284,0.04872972,0.009760313,-1.40576,-1.196345,-2.494841,-1.074734,-0.001857209,0,0,15.0303,0.07142597,-0.03290445,0.03112871,-0.5756023,-0.8470727,0.2985542,0.03576713,-0.08397339,0.01899943,-0.8836384,4.341634,-0.1613681,-1.010498,1.308316,-0.2890257,286.9904,233.6112,0.7637421
0,1.455558,-0.01121583,0.04969276,0.008592796,-1.40606,-1.196936,-2.494496,-1.074694,0.003624583,0,0,15.0303,0.06067961,-0.03491581,0.02376669,-0.5758218,-0.8479435,0.2990024,0.04004109,-0.08078486,0.02615062,-0.8892396,4.340237,-0.1601069,-1.010294,1.308691,-0.2885967,286.7953,233.9342,0.393965
