loc,t,aDotS,bDotS,gDotS,aS,bS,gS,qE,qDotE,tpad,enable,emg,aDotSH,bDotSH,gDotSH,aSH,bSH,gSH,aDotUB,bDotUB,gDotUB,aUB,bUB,gUB,xHand,yHand,zHand,aHand,bHand,gHand
3,0,0.02908275,-0.1527685,0.7081384,-1.431053,-0.8001457,-2.646273,-0.7742842,0.07341687,0,0,9.939394,-0.2625393,0.265902,-0.4407023,-0.4756576,-0.8567581,0.2924662,-0.1478679,0.3482983,0.02955716,-0.8616988,3.774535,0.1369331,-0.6933771,1.164544,-0.3098298,311.2974,225.4365,351.4162
3,0.01111111,0.03635643,-0.1475618,0.6888617,-1.436356,-0.795442,-2.647584,-0.7739514,0.02995873,0,0,9.939394,-0.2562299,0.244534,-0.4312747,-0.4790654,-0.8490205,0.2883298,-0.143726,0.3526507,0.01783136,-0.8612705,3.77973,0.1350862,-0.6915284,1.163383,-0.3123453,311.5842,224.9902,351.7108
3,0.02222222,0.05190471,-0.1350497,0.6438913,-1.440797,-0.791843,-2.649152,-0.7746624,-0.06502923,0,0,9.939394,-0.2666202,0.2316456,-0.3971436,-0.4816023,-0.8425736,0.2858805,-0.1492571,0.3654329,0.004061714,-0.8610868,3.785623,0.133092,-0.6889599,1.162156,-0.3153467,311.8853,224.7959,351.4627
3,0.03333334,0.0558801,-0.1278527,0.6128974,-1.445296,-0.7879868,-2.650394,-0.7757239,-0.09632505,0,0,7.636364,-0.2748206,0.2251521,-0.3640799,-0.4839203,-0.8355492,0.2828163,-0.1494585,0.3793384,-0.007596467,-0.8607646,3.791971,0.1305791,-0.6859589,1.160968,-0.3187904,312.1546,224.7325,350.747
3,0.04444445,0.06186017,-0.1218846,0.5616622,-1.448707,-0.7848799,-2.651677,-0.7763098,-0.05276078,0,0,7.636364,-0.2755648,0.2068099,-0.320493,-0.4853542,-0.8309638,0.2818519,-0.1516541,0.3740819,-0.03103751,-0.8612642,3.797312,0.1287883,-0.6827637,1.159839,-0.3224345,312.304,224.5593,349.9057
3,0.05555556,0.06986712,-0.1203432,0.4912759,-1.450946,-0.7821614,-2.652878,-0.7760116,0.0276525,0,0,7.636364,-0.2645468,0.2001362,-0.278015,-0.4861952,-0.8247618,0.2791563,-0.1536758,0.354951,-0.0481545,-0.8619918,3.801766,0.1276674,-0.6795608,1.158866,-0.3258878,312.4061,224.3407,349.0497
3,0.06666667,0.07062319,-0.1218424,0.4444087,-1.453215,-0.7793368,-2.65402,-0.7761064,-0.008976947,0,0,7.636364,-0.2575951,0.2040937,-0.2269139,-0.4861861,-0.8183793,0.2762532,-0.1513833,0.3326476,-0.05995777,-0.862437,3.805834,0.1267001,-0.6766849,1.157987,-0.3290441,312.5057,224.1629,348.2774
3,0.07777778,0.06479026,-0.1279939,0.3635464,-1.453835,-0.7770396,-2.654729,-0.7760856,0.00196367,0,0,7.636364,-0.2325526,0.1950589,-0.1697049,-0.4857883,-0.8143643,0.2745306,-0.1447433,0.3061045,-0.06542468,-0.8630165,3.809308,0.1258405,-0.6742569,1.157286,-0.3316176,312.6116,223.9615,347.6547
3,0.08888889,0.04940127,-0.1428232,0.2753664,-1.453003,-0.7751184,-2.654885,-0.7760073,0.007141608,0,0,5.454545,-0.2163878,0.1713332,-0.1337761,-0.4856615,-0.8107871,0.2733546,-0.1379055,0.2614498,-0.06989397,-0.8636413,3.811408,0.1257425,-0.6725041,1.156722,-0.3335422,312.7011,223.7706,347.2378
3,0.1,0.02109886,-0.1525783,0.1733666,-1.45081,-0.7740808,-2.654396,-0.7756398,0.03355221,0,0,5.454545,-0.1896121,0.1314727,-0.09167065,-0.4851971,-0.8108841,0.2746313,-0.1366085,0.2380342,-0.0721247,-0.8642943,3.813957,0.125555,-0.671446,1.156292,-0.3347923,312.763,223.6732,347.0341
3,0.1111111,0.002514232,-0.1501785,0.1084814,-1.449242,-0.7730704,-2.653916,-0.7751397,0.04548872,0,0,5.454545,-0.1659172,0.1140441,-0.05472761,-0.4844919,-0.8094268,0.2745115,-0.1309003,0.1997485,-0.07443455,-0.8650181,3.815408,0.1259433,-0.6711034,1.155989,-0.3354154,312.8361,223.5493,347.0517
3,0.1222222,-0.04094527,-0.169045,-0.0401985,-1.44334,-0.7734022,-2.651893,-0.7746496,0.0445285,0,0,5.454545,-0.1366668,0.1007257,0.0002852809,-0.4825387,-0.8089842,0.2746835,-0.1218088,0.139166,-0.08644296,-0.8664429,3.814977,0.1272991,-0.6714298,1.155889,-0.3354113,312.9395,223.3752,347.2586
3,0.1333333,-0.05947684,-0.1762686,-0.1103278,-1.439515,-0.7731524,-2.650649,-0.7747599,-0.01030556,0,0,9.090909,-0.1171575,0.07793637,0.04789083,-0.4804385,-0.8100425,0.2762598,-0.1148226,0.07431489,-0.1027182,-0.8682635,3.813555,0.1292571,-0.6724145,1.15604,-0.3349206,313.0515,223.2336,347.6295
3,0.1444445,-0.08776584,-0.177365,-0.1974856,-1.433983,-0.773807,-2.648621,-0.7735918,0.1070734,0,0,9.090909,-0.07518766,0.04638888,0.1111911,-0.4771618,-0.8121757,0.2777184,-0.1070117,0.03924849,-0.1050302,-0.8696185,3.81274,0.1307047,-0.6739215,1.156483,-0.3340755,313.1018,223.1247,348.1079
3,0.1555556,-0.1140138,-0.1526481,-0.2603933,-1.429523,-0.7751908,-2.646246,-0.7743998,-0.07462037,0,0,9.090909,-0.0474126,0.01299776,0.1426646,-0.4749306,-0.8147451,0.2796631,-0.09375158,-0.009588264,-0.1116806,-0.8710768,3.811015,0.1324422,-0.6759498,1.157305,-0.3329231,313.1661,222.8265,348.7163
3,0.1666667,-0.1304728,-0.1275612,-0.2946113,-1.425305,-0.7768452,-2.644003,-0.7740754,0.03053335,0,0,9.090909,-0.02810489,-0.02252117,0.1806113,-0.4721518,-0.8198105,0.2838235,-0.08510471,-0.0265004,-0.1224464,-0.8728122,3.810318,0.1336518,-0.6783358,1.158519,-0.3315735,313.0674,222.6276,349.3757
3,0.1777778,-0.1421127,-0.07504633,-0.3632115,-1.420358,-0.7806162,-2.641383,-0.7740158,0.005299963,0,0,9.090909,-0.01186602,-0.05164339,0.2250083,-0.4690674,-0.8247341,0.2877886,-0.07219854,-0.04336688,-0.1332344,-0.8747429,3.80935,0.1346737,-0.6809586,1.16007,-0.3301496,312.8863,222.484,350.0448
3,0.1888889,-0.1306898,-0.06886721,-0.3974368,-1.415253,-0.7826125,-2.64003,-0.7744228,-0.03702928,0,0,4.121212,-0.001065686,-0.06462506,0.2482589,-0.4659823,-0.8286298,0.2909474,-0.06443392,-0.07732988,-0.1429951,-0.8768122,3.807468,0.1362321,-0.6836902,1.161911,-0.3287906,312.6477,222.4368,350.6702
3,0.2,-0.15154,-0.0537292,-0.464543,-1.408842,-0.7857785,-2.637195,-0.7746145,-0.01707565,0,0,4.121212,0.01205078,-0.09485181,0.3012173,-0.4616057,-0.836452,0.29736,-0.05114003,-0.1346497,-0.1603415,-0.8795814,3.80356,0.138862,-0.6863888,1.163939,-0.3275663,312.3281,222.3847,351.2233
3,0.2111111,-0.1722032,-0.03073838,-0.4912659,-1.403434,-0.7893987,-2.633707,-0.77579,-0.1072019,0,0,4.121212,0.05031809,-0.1389505,0.325063,-0.4583939,-0.8453789,0.3035258,-0.04875851,-0.1707471,-0.1839263,-0.8826909,3.800355,0.1412791,-0.6890396,1.166091,-0.3263991,311.9945,222.2486,351.6769
3,0.2222222,-0.2050377,0.02387086,-0.5416309,-1.397961,-0.7949861,-2.629443,-0.7747285,0.0979349,0,0,4.121212,0.09670371,-0.197893,0.3221059,-0.4563614,-0.8566254,0.3109856,-0.03466162,-0.1993255,-0.1937027,-0.8855964,3.796715,0.1434754,-0.6915125,1.168249,-0.3251902,311.6074,221.9851,352.1885
3,0.2333333,-0.2236693,0.06075794,-0.5652962,-1.392858,-0.8000866,-2.625575,-0.7741777,0.0495748,0,0,7.878788,0.1188779,-0.2257759,0.3238433,-0.4539608,-0.8666762,0.3179213,-0.02392437,-0.2056215,-0.1905859,-0.8877919,3.794086,0.1450067,-0.693815,1.170406,-0.3238207,311.3552,221.6627,352.6724
3,0.2444444,-0.2402732,0.1007582,-0.5996543,-1.387259,-0.8062326,-2.621231,-0.7739242,0.02300511,0,0,7.878788,0.1315278,-0.2471807,0.3267847,-0.4515587,-0.8760942,0.3244756,-0.003384262,-0.2373331,-0.1972161,-0.8906825,3.790047,0.1470203,-0.69616,1.172506,-0.3223973,311.2123,221.4454,353.0714
3,0.2555556,-0.2452551,0.1407279,-0.6489983,-1.381131,-0.8129278,-2.617249,-0.7744755,-0.05031748,0,0,7.878788,0.1498261,-0.253833,0.3489303,-0.4480087,-0.8855623,0.330771,0.009636581,-0.2659138,-0.2091178,-0.893947,3.785583,0.1492715,-0.6986938,1.174618,-0.3208855,311.135,221.3302,353.4008
3,0.2666667,-0.2532226,0.1690939,-0.6833047,-1.374989,-0.8199111,-2.612847,-0.7744829,-0.0001433363,0,0,7.878788,0.176558,-0.2744188,0.373033,-0.4445295,-0.897595,0.3387248,0.03459147,-0.3125023,-0.2147549,-0.8970965,3.779858,0.1516907,-0.7014332,1.176789,-0.3192797,311.0148,221.2369,353.8156
3,0.2777778,-0.2756833,0.2417525,-0.749891,-1.368455,-0.829523,-2.607301,-0.7751445,-0.06038371,0,0,7.878788,0.2401268,-0.3453222,0.3921927,-0.4419889,-0.9146723,0.3493942,0.05318725,-0.3612972,-0.2193101,-0.900516,3.77319,0.1546032,-0.7043171,1.179101,-0.3174418,310.8362,221.1009,354.2845
3,0.2888889,-0.2806621,0.2892982,-0.7865304,-1.362376,-0.8387892,-2.602113,-0.7750251,0.01148818,0,0,4.969697,0.2868198,-0.391596,0.4095576,-0.4391414,-0.9316915,0.360249,0.07071152,-0.4079905,-0.2185181,-0.9037767,3.766408,0.1575036,-0.7073588,1.181555,-0.3152758,310.585,220.938,354.8
3,0.3,-0.3033993,0.3864231,-0.8586908,-1.355875,-0.8516586,-2.59536,-0.7745569,0.04277371,0,0,4.969697,0.326231,-0.432551,0.4387386,-0.4359232,-0.9500129,0.3719783,0.0925405,-0.4620661,-0.2263067,-0.9076303,3.758255,0.1608222,-0.7106035,1.184145,-0.3127692,310.365,220.8517,355.3196
3,0.3111111,-0.3090764,0.406402,-0.8812172,-1.349597,-0.8617947,-2.589476,-0.7750055,-0.04120325,0,0,4.969697,0.3572809,-0.4521206,0.4670644,-0.4323514,-0.9672164,0.3826621,0.1097762,-0.4863332,-0.2392767,-0.9116171,3.7513,0.1633117,-0.7141302,1.186964,-0.3098766,310.2171,220.858,355.8291
3,0.3222222,-0.3177732,0.4715443,-0.9691306,-1.341959,-0.8757411,-2.582544,-0.7744632,0.05009278,0,0,4.969697,0.407469,-0.4932249,0.5078489,-0.4284387,-0.9889164,0.3961567,0.1304016,-0.5308027,-0.2544777,-0.9161748,3.742647,0.166405,-0.7179539,1.190026,-0.3066035,310.0132,220.9226,356.3946
3,0.3333333,-0.3132718,0.5093096,-1.035559,-1.334303,-0.8887799,-2.576233,-0.7749181,-0.04188989,0,0,4.969697,0.4547526,-0.5323212,0.572013,-0.4242634,-1.011754,0.4109977,0.1466526,-0.565703,-0.2738772,-0.9209195,3.734372,0.1692788,-0.7221146,1.193415,-0.3028967,309.7921,221.0821,356.9748
3,0.3444445,-0.3053355,0.5409653,-1.076397,-1.326848,-0.9023445,-2.569857,-0.7749857,-0.005837559,0,0,3.515152,0.4976512,-0.5509896,0.6119339,-0.419507,-1.035126,0.4252903,0.1748565,-0.622876,-0.2891651,-0.9260035,3.724495,0.1724487,-0.7265171,1.19709,-0.2988667,309.4759,221.2024,357.761
3,0.3555556,-0.2827592,0.5875249,-1.134517,-1.319223,-0.9174478,-2.563655,-0.7756163,-0.05749497,0,0,3.515152,0.5426643,-0.5686068,0.6497073,-0.4148491,-1.059522,0.4401236,0.1987325,-0.6747515,-0.3086745,-0.9316547,3.713977,0.175754,-0.7310945,1.201103,-0.294394,309.1482,221.2594,358.5557
3,0.3666667,-0.2720219,0.6457021,-1.191606,-1.311639,-0.9341091,-2.556519,-0.7758997,-0.02541114,0,0,3.515152,0.5685587,-0.5572324,0.671877,-0.410122,-1.08226,0.4536325,0.2075569,-0.7023513,-0.3077703,-0.9364313,3.704232,0.1790845,-0.7357929,1.205431,-0.2894611,308.7656,221.3085,359.4206
3,0.3777778,-0.2773725,0.7164864,-1.249766,-1.304279,-0.951866,-2.548635,-0.7765756,-0.06158914,0,0,3.515152,0.5788568,-0.5394971,0.7251304,-0.4038018,-1.105122,0.467959,0.2260363,-0.7394329,-0.3112123,-0.9416304,3.693491,0.1822934,-0.7406042,1.209915,-0.2841809,308.2885,221.4241,0.3685312
3,0.3888889,-0.283354,0.7608583,-1.284239,-1.297165,-0.9692607,-2.540758,-0.7761858,0.0361994,0,0,6.909091,0.6156776,-0.539055,0.7833683,-0.3971109,-1.131894,0.4847369,0.2564179,-0.7934445,-0.3126684,-0.9471085,3.681572,0.1854367,-0.7453539,1.214476,-0.2784979,307.7687,221.571,1.327721
3,0.4,-0.293854,0.8264314,-1.325278,-1.290387,-0.9885761,-2.531916,-0.7757692,0.03769988,0,0,6.909091,0.6595563,-0.5726531,0.826379,-0.391523,-1.161307,0.5032948,0.2664858,-0.8433805,-0.3203799,-0.9528785,3.669171,0.1893627,-0.7500525,1.219044,-0.2723907,307.3206,221.7775,2.188396
3,0.4111111,-0.298942,0.8900075,-1.357808,-1.284122,-1.008437,-2.523045,-0.7757767,-0.0009414065,0,0,6.909091,0.6945647,-0.603886,0.8343304,-0.3872002,-1.191162,0.5221383,0.2796529,-0.885816,-0.3312753,-0.9589531,3.656739,0.1931506,-0.7548205,1.223587,-0.2659437,306.9799,222.0781,3.011474
3,0.4222222,-0.3101832,0.9344015,-1.38264,-1.277891,-1.028044,-2.513716,-0.7754923,0.02604934,0,0,6.909091,0.7528396,-0.6426835,0.8324242,-0.3835021,-1.222962,0.5412207,0.2948648,-0.9165351,-0.3357406,-0.9649586,3.644169,0.1965482,-0.7596153,1.228113,-0.2592652,306.6797,222.4383,3.907999
3,0.4333333,-0.3168862,0.9598358,-1.391372,-1.271947,-1.047633,-2.50421,-0.7757533,-0.02398519,0,0,6.909091,0.7857062,-0.6642306,0.83302,-0.3797385,-1.253787,0.5601214,0.3164194,-0.9429355,-0.3402219,-0.9710615,3.631554,0.1994886,-0.7643684,1.232699,-0.2523976,306.4135,222.8884,4.753106
3,0.4444444,-0.3311731,1.000118,-1.398049,-1.266842,-1.068056,-2.493991,-0.7754251,0.03029414,0,0,5.454545,0.8304232,-0.6913254,0.8515632,-0.3759755,-1.288087,0.5813923,0.3337839,-0.9704796,-0.3340324,-0.9768336,3.618404,0.2025571,-0.7689305,1.237455,-0.2453238,306.1288,223.364,5.562615
3,0.4555556,-0.342928,1.01714,-1.388539,-1.261925,-1.087119,-2.484431,-0.7753751,0.004260752,0,0,5.454545,0.8560658,-0.7193702,0.8766979,-0.3721693,-1.324837,0.6051389,0.3479705,-0.9991072,-0.3310433,-0.9828524,3.605019,0.2056424,-0.7732348,1.242416,-0.2381115,305.8145,223.8219,6.399876
3,0.4666667,-0.3408797,1.030003,-1.382282,-1.257283,-1.106773,-2.474717,-0.775096,0.02552631,0,0,5.454545,0.8776762,-0.7304461,0.9147699,-0.3679216,-1.362998,0.6302419,0.3515259,-1.046918,-0.3546827,-0.9901596,3.590645,0.2096773,-0.7772146,1.247622,-0.2308529,305.4696,224.278,7.249217
3,0.4777778,-0.3429881,1.039664,-1.375944,-1.253103,-1.125861,-2.465437,-0.7755066,-0.03759784,0,0,5.454545,0.8927084,-0.7242414,0.9231761,-0.3642507,-1.397621,0.6524313,0.3795124,-1.083856,-0.3709626,-0.9974481,3.576562,0.2123277,-0.7809871,1.253032,-0.2237047,305.0634,224.775,8.065049
3,0.4888889,-0.3471819,1.04076,-1.370599,-1.248789,-1.145241,-2.455549,-0.775733,-0.0203293,0,0,10.42424,0.885387,-0.7060343,0.922302,-0.3604898,-1.430397,0.6737816,0.3892681,-1.107174,-0.3764705,-1.004466,3.562809,0.2153336,-0.7845148,1.258575,-0.2167956,304.5714,225.1828,8.945025
3,0.5,-0.3577828,1.045048,-1.356719,-1.245095,-1.16446,-2.445148,-0.7761234,-0.03550687,0,0,10.42424,0.8771352,-0.6889958,0.9352709,-0.3565935,-1.465299,0.6971312,0.3936891,-1.12099,-0.3733537,-1.011141,3.549016,0.218204,-0.7878282,1.26416,-0.210166,304.0263,225.4967,9.79198
3,0.5111111,-0.3682818,1.040803,-1.34702,-1.241352,-1.183641,-2.434715,-0.7757351,0.03574565,0,0,10.42424,0.8834234,-0.6847804,0.9234887,-0.3543032,-1.500419,0.7200322,0.4108516,-1.128266,-0.3629256,-1.017603,3.535869,0.220119,-0.7908481,1.269704,-0.2037868,303.437,225.7328,10.61772
3,0.5222223,-0.3840361,1.030168,-1.328703,-1.23796,-1.202091,-2.423927,-0.7752313,0.04570533,0,0,10.42424,0.8744073,-0.7026356,0.8904568,-0.3533919,-1.53502,0.7430912,0.4247224,-1.124971,-0.3523313,-1.023731,3.522688,0.2218554,-0.7936115,1.275125,-0.1976029,302.8704,225.9068,11.39229
3,0.5333334,-0.392076,1.001554,-1.306017,-1.234357,-1.219936,-2.413618,-0.775284,-0.005074168,0,0,10.42424,0.8720616,-0.7079129,0.8776993,-0.3521636,4.711288,0.7681593,0.4236533,-1.118481,-0.3409141,-1.030242,3.511042,0.2232102,-0.7961926,1.280407,-0.1915674,302.3705,226.0963,12.07899
3,0.5444446,-0.3924692,0.9592892,-1.270452,-1.230964,-1.236591,-2.403829,-0.7748691,0.03810182,0,0,8.727273,0.8793116,-0.7110696,0.8605582,-0.3513977,4.676218,0.7909852,0.4257619,-1.115272,-0.3387806,-1.036613,3.497979,0.2250675,-0.7985627,1.285582,-0.1855752,301.918,226.2715,12.74512
3,0.5555557,-0.3864365,0.9193163,-1.221119,-1.228168,-1.252387,-2.394411,-0.775276,-0.03750648,0,0,8.727273,0.8736961,-0.7214905,0.83605,-0.351354,4.641655,0.8136162,0.4330605,-1.112104,-0.3218672,-1.042526,3.485082,0.2270134,-0.8008175,1.290672,-0.1796556,301.5242,226.4929,13.42503
3,0.5666668,-0.3862432,0.8961836,-1.192083,-1.226176,-1.268828,-2.383762,-0.7756036,-0.0295352,0,0,8.727273,0.8573451,-0.7297255,0.8074127,-0.3522233,4.608468,0.8358432,0.4489484,-1.115055,-0.3411455,-1.04962,3.472236,0.227981,-0.8028292,1.295732,-0.1737935,301.1486,226.6713,14.18756
3,0.577778,-0.3941543,0.865562,-1.157599,-1.223864,-1.283418,-2.374624,-0.7758209,-0.01958403,0,0,8.727273,0.8362311,-0.7029246,0.8067265,-0.3513892,4.575644,0.8582902,0.4595935,-1.118108,-0.3486736,-1.056448,3.459331,0.2289243,-0.804584,1.300772,-0.1680823,300.7899,226.8963,14.96582
3,0.5888891,-0.4009725,0.8199542,-1.129423,-1.220847,-1.297775,-2.365075,-0.7749229,0.08229846,0,0,8.969697,0.8278056,-0.676083,0.7931316,-0.3508075,4.544807,0.8782506,0.4650199,-1.114977,-0.3220921,-1.061972,3.446297,0.2300196,-0.8059515,1.305802,-0.1625993,300.3948,227.0742,15.74884
3,0.6000003,-0.3992545,0.7722176,-1.110886,-1.21735,-1.311919,-2.356079,-0.7758145,-0.08210308,0,0,8.969697,0.8141637,-0.6482728,0.7923679,-0.3501492,4.513367,0.8991926,0.456482,-1.102376,-0.3006831,-1.067219,3.433801,0.2313145,-0.8071127,1.310769,-0.1573598,299.9448,227.2348,16.40557
3,0.6111114,-0.3902875,0.7383537,-1.097843,-1.214091,-1.326248,-2.347187,-0.7755306,0.02669822,0,0,8.969697,0.7943381,-0.6086996,0.8013356,-0.3486152,4.482331,0.9202867,0.4595242,-1.076883,-0.278242,-1.072192,3.422011,0.2318242,-0.8081522,1.315642,-0.1524608,299.5127,227.2982,17.14684
3,0.6222225,-0.3812172,0.6992157,-1.076252,-1.210721,-1.339772,-2.338542,-0.7760403,-0.04694624,0,0,8.969697,0.7954715,-0.5926991,0.7960858,-0.348253,4.451259,0.9405909,0.4755666,-1.074661,-0.2623383,-1.077215,3.409453,0.2319733,-0.8091152,1.320388,-0.1479084,299.1336,227.177,17.99577
3,0.6333337,-0.3700696,0.6772301,-1.050544,-1.208276,-1.353071,-2.330613,-0.7763184,-0.02503168,0,0,8.969697,0.7865438,-0.5977623,0.7599033,-0.3498232,4.422909,0.9586781,0.4723572,-1.079019,-0.2611693,-1.082767,3.396534,0.2330119,-0.8099109,1.325015,-0.1436081,298.7841,226.8954,18.86813
3,0.6444448,-0.3568899,0.6584462,-1.022761,-1.206026,-1.366158,-2.322546,-0.7763258,-0.0004521235,0,0,9.454546,0.7779337,-0.5826756,0.7409031,-0.350448,4.395012,0.9765343,0.4658649,-1.066324,-0.2557519,-1.088008,3.384651,0.2335864,-0.810562,1.329541,-0.1394054,298.4532,226.6088,19.63206
3,0.655556,-0.3480515,0.6427044,-1.006662,-1.203601,-1.378862,-2.314715,-0.7769346,-0.05577223,0,0,9.454546,0.7717135,-0.568784,0.7442214,-0.3506414,4.365432,0.9958354,0.4550202,-1.047257,-0.2566362,-1.093233,3.373388,0.2341704,-0.8110344,1.333991,-0.1352251,298.1637,226.4215,20.33142
3,0.6666671,-0.3369363,0.6239965,-0.970339,-1.201892,-1.390886,-2.307285,-0.7767344,0.01882235,0,0,9.454546,0.7569772,-0.5548043,0.7444133,-0.3510611,4.336831,1.014565,0.4571061,-1.050358,-0.2726736,-1.099529,3.361477,0.2343947,-0.8113555,1.338363,-0.131011,297.851,226.2689,21.02608
3,0.6777782,-0.3292056,0.6136317,-0.9489701,-1.200141,-1.403054,-2.299714,-0.7767317,-8.35735E-05,0,0,9.454546,0.7188116,-0.52684,0.7439079,-0.3511159,4.309293,1.033848,0.4474606,-1.043013,-0.2693934,-1.104934,3.350061,0.2349838,-0.811575,1.342596,-0.1267371,297.4979,226.1208,21.77101
3,0.6888894,-0.3308877,0.6012396,-0.9073014,-1.199143,-1.414427,-2.292199,-0.7768191,-0.008066883,0,0,9.454546,0.682999,-0.5021061,0.7593271,-0.3506691,4.280582,1.054353,0.4441915,-1.029263,-0.2554787,-1.10973,3.338808,0.2352565,-0.8117229,1.346669,-0.1224404,297.1789,226.0341,22.53454
3,0.7000005,-0.3474969,0.5832634,-0.8739942,-1.197805,-1.425088,-2.284181,-0.7766678,0.01388452,-0.6444174,0,9.575758,0.6557081,-0.458294,0.7673234,-0.3496118,4.252885,1.074173,0.4450714,-1.013255,-0.2596738,-1.115109,3.328066,0.2350716,-0.8118342,1.350567,-0.1182226,296.9037,226.1021,23.22339
3,0.7111117,-0.3611524,0.5812294,-0.8504524,-1.197079,-1.436589,-2.275668,-0.7763541,0.02847337,-0.645735,0,9.575758,0.648923,-0.4633716,0.7311131,-0.3511362,4.22844,1.089832,0.4341337,-0.9856776,-0.2584438,-1.120301,3.318004,0.2350477,-0.8118744,1.354338,-0.1141678,296.6938,226.2534,23.82574
3,0.7222228,-0.3841986,0.5728478,-0.8076354,-1.196634,-1.446681,-2.267026,-0.7755439,0.07384556,-0.6453261,0,9.575758,0.626977,-0.488546,0.6907279,-0.3538217,4.204144,1.106427,0.4157274,-0.9475886,-0.2411311,-1.124442,3.30866,0.2351313,-0.8119459,1.357982,-0.1103788,296.4549,226.3764,24.42435
3,0.7333339,-0.3931122,0.5445275,-0.7529921,-1.196386,-1.455691,-2.259433,-0.7753122,0.02054255,-0.6456535,0,9.575758,0.6171068,-0.5043495,0.6715265,-0.3563576,4.179269,1.12295,0.4019478,-0.91471,-0.2332551,-1.12857,3.298433,0.2345859,-0.8120676,1.361528,-0.1069435,296.2278,226.4354,25.00243
3,0.7444451,-0.3967856,0.5172465,-0.7047796,-1.196258,-1.464177,-2.251982,-0.7747562,0.0508442,-0.6460781,0,12.60606,0.5930471,-0.5166825,0.6237791,-0.3596652,4.15844,1.136726,0.3900587,-0.9009613,-0.2384609,-1.133496,3.289013,0.2346905,-0.8121902,1.365093,-0.1038355,296.02,226.5267,25.43827
3,0.7555562,-0.4023988,0.4675178,-0.663767,-1.195407,-1.471249,-2.245162,-0.7754656,-0.0651634,-0.6467019,0,12.60606,0.5450848,-0.4863801,0.6010108,-0.3612152,4.138361,1.151047,0.3693228,-0.8532647,-0.236014,-1.137923,3.281084,0.2345326,-0.8122534,1.368772,-0.1011426,295.8073,226.6719,25.85517
3,0.7666674,-0.4071231,0.4272807,-0.6335447,-1.194406,-1.478688,-2.237962,-0.7755882,-0.01056251,-0.6469896,0,12.60606,0.5035996,-0.4550672,0.5845937,-0.3624807,4.118647,1.16536,0.3444248,-0.8023445,-0.237796,-1.142242,3.273805,0.2341084,-0.8121842,1.372552,-0.09891515,295.5026,226.5439,26.46955
3,0.7777785,-0.4061464,0.3563335,-0.5870603,-1.192729,-1.483665,-2.231642,-0.7757618,-0.01579561,-0.6478734,0,12.60606,0.4344389,-0.3989536,0.5515522,-0.3628179,4.102896,1.177504,0.319425,-0.7652277,-0.2588158,-1.147454,3.266838,0.2341715,-0.8120483,1.376357,-0.09713947,295.1194,226.1643,27.2028
3,0.7888896,-0.4029565,0.2790501,-0.5373697,-1.19056,-1.487901,-2.225666,-0.7755791,0.01682283,-0.6485944,0,12.60606,0.379147,-0.3600594,0.5342674,-0.3633457,4.085496,1.191357,0.2910725,-0.7133233,-0.2658664,-1.15204,3.26078,0.2342831,-0.8118725,1.380099,-0.0957855,294.7434,225.5343,28.0569
3,0.8000008,-0.3739592,0.1914971,-0.4685623,-1.187948,-1.489651,-2.22187,-0.7755876,-0.0009144021,-0.6492293,0,16.24242,0.3329953,-0.3488266,0.4954178,-0.3650533,4.070776,1.202921,0.2757863,-0.675154,-0.2602994,-1.156181,3.254715,0.2341353,-0.8116755,1.383725,-0.09470644,294.4128,224.763,28.90275
3,0.8111119,-0.3593377,0.1387396,-0.4298291,-1.185777,-1.492735,-2.217394,-0.7757144,-0.01156695,-0.6505458,0,16.24242,0.2855685,-0.3545629,0.4479654,-0.3677788,4.057531,1.213405,0.2420801,-0.6298045,-0.251383,-1.159891,3.249527,0.235351,-0.8114936,1.387176,-0.09386859,294.1352,223.9498,29.80343
3,0.8222231,-0.3547733,0.05216917,-0.3470343,-1.183322,-1.492273,-2.213883,-0.7769921,-0.1167536,-0.6520218,0,16.24242,0.2449398,-0.331709,0.4187086,-0.3693282,4.044879,1.223755,0.209567,-0.5694605,-0.2392426,-1.163153,3.245444,0.2357073,-0.8113722,1.390364,-0.09329933,293.8895,223.1364,30.79264
3,0.8333342,-0.3594979,0.0130367,-0.3104348,-1.181071,-1.493714,-2.20912,-0.7768803,0.01117414,-0.6547544,0,16.24242,0.1842622,-0.2991723,0.3982301,-0.3703179,4.032859,1.234552,0.1833715,-0.5090188,-0.2356642,-1.166536,3.242047,0.235898,-0.8111162,1.393158,-0.09307443,293.6714,222.2578,31.85435
3,0.8444453,-0.3606268,-0.04708192,-0.2427687,-1.178831,-1.492599,-2.20556,-0.7763929,0.0443368,-0.6577027,0,13.69697,0.1415254,-0.2837993,0.3764148,-0.3717304,4.021301,1.245145,0.1615871,-0.4602893,-0.2267928,-1.169569,3.238487,0.236224,-0.8107101,1.395496,-0.09311922,293.5045,221.4824,32.68551
3,0.8555565,-0.3600793,-0.07761512,-0.2020256,-1.176586,-1.492311,-2.20164,-0.7757612,0.05727984,-0.6596764,0,13.69697,0.08807871,-0.2629776,0.3451474,-0.3731323,4.012115,1.254342,0.1463743,-0.4274443,-0.2201849,-1.172603,3.235171,0.2363721,-0.8101928,1.397358,-0.09355677,293.4489,220.9869,33.25518
3,0.8666676,-0.3631036,-0.1514386,-0.1161096,-1.174259,-1.48833,-2.199057,-0.7759338,-0.01620382,-0.6680306,0,13.69697,0.05709592,-0.244506,0.3242861,-0.3742391,4.00283,1.263452,0.1192714,-0.3787306,-0.2155793,-1.175408,3.232964,0.2367745,-0.809715,1.398894,-0.09436603,293.5564,220.6853,33.49131
3,0.8777788,-0.3621998,-0.2052274,-0.05487581,-1.171773,-1.484252,-2.196791,-0.7759269,0.0008231737,-0.6719694,0,13.69697,-0.003777117,-0.2107635,0.2857173,-0.3746428,3.997473,1.270315,0.08679265,-0.3289745,-0.2183984,-1.17834,3.231487,0.237448,-0.8093703,1.400197,-0.0955556,293.6744,220.3339,33.7104
3,0.8888899,-0.3626525,-0.2399683,-0.009819597,-1.169628,-1.480871,-2.194206,-0.7758512,0.006933222,-0.6786656,0,13.69697,-0.04021591,-0.2049969,0.2616467,-0.375877,3.990582,1.278267,0.07385445,-0.3015161,-0.2223805,-1.181315,3.227645,0.2377095,-0.8091369,1.401355,-0.09709027,293.7595,219.8678,33.99686
3,0.900001,-0.3702372,-0.2937877,0.05786436,-1.167121,-1.474674,-2.192296,-0.7761176,-0.02442628,-0.6835909,0,14.18182,-0.1141231,-0.1913831,0.2167332,-0.3771942,3.986953,1.28532,0.03675508,-0.2208875,-0.2325286,-1.184101,3.228644,0.2381444,-0.8090108,1.402376,-0.09904435,293.8199,219.3427,34.32473
3,0.9111122,-0.379265,-0.3232869,0.1029258,-1.165087,-1.469592,-2.189901,-0.7760894,0.002793714,-0.6874723,0,14.18182,-0.1455033,-0.1919723,0.1744568,-0.3791803,3.98382,1.290747,0.02255607,-0.1785748,-0.2301043,-1.186658,3.226907,0.2383726,-0.8089059,1.403332,-0.1014009,293.9256,218.7671,34.58331
3,0.9222233,-0.3826808,-0.3652909,0.1747016,-1.163189,-1.462144,-2.188663,-0.7756504,0.04007718,-0.6905631,0,14.18182,-0.1852074,-0.1818917,0.1419282,-0.3806802,3.981501,1.296333,-0.006770745,-0.1181959,-0.2180175,-1.188442,3.228164,0.2389471,-0.8087789,1.404256,-0.1040501,293.9885,218.0596,34.88929
3,0.9333345,-0.3839306,-0.4039734,0.2581386,-1.161548,-1.453611,-2.187949,-0.7755727,0.006759215,-0.6919076,0,14.18182,-0.2621268,-0.1533633,0.1024532,-0.3813221,3.982159,1.301151,-0.04265241,-0.04087979,-0.2068973,-1.189895,3.23022,0.2395125,-0.8087138,1.405138,-0.1070276,294.0229,217.3087,35.26025
3,0.9444456,-0.3844928,-0.420513,0.3147565,-1.160486,-1.44541,-2.186942,-0.7758251,-0.02305115,-0.691874,0,18.66667,-0.3412011,-0.1269528,0.062999,-0.3819878,3.983711,1.306281,-0.06123286,0.005796231,-0.2045067,-1.191616,3.2325,0.2399567,-0.8086817,1.406001,-0.1103002,294.0465,216.599,35.58255
3,0.9555568,-0.3950746,-0.4718512,0.4218052,-1.159408,-1.433923,-2.186892,-0.7759578,-0.01194804,-0.6899853,0,18.66667,-0.4222636,-0.1005911,0.03634764,-0.3823005,3.985116,1.312198,-0.09605847,0.07998678,-0.1998146,-1.192958,3.236329,0.2405114,-0.8086432,1.406808,-0.1139672,294.0304,215.9171,35.96268
3,0.9666679,-0.3997105,-0.5108333,0.4743787,-1.157889,-1.423506,-2.186663,-0.775815,0.01316291,-0.6884045,0,18.66667,-0.4787971,-0.07978931,0.01578837,-0.3825929,3.986462,1.318228,-0.1209594,0.118086,-0.20062,-1.194511,3.239694,0.2414949,-0.8085492,1.407473,-0.1181096,293.9929,215.1469,36.36979
3,0.977779,-0.416945,-0.5647771,0.5356864,-1.155691,-1.411409,-2.18634,-0.775463,0.03208068,-0.6874739,0,18.66667,-0.5809846,-0.02769342,-0.01366218,-0.3815292,3.990373,1.324092,-0.1642797,0.1741861,-0.2257721,-1.196898,3.244366,0.2430395,-0.8085368,1.407978,-0.1227283,293.9637,214.4115,36.61103
3,0.9888902,-0.4290954,-0.6060646,0.5766142,-1.153648,-1.399414,-2.186044,-0.7757085,-0.02266447,-0.6870371,0,18.66667,-0.6033819,-0.01894885,-0.02188546,-0.3815655,3.99184,1.330217,-0.1806123,0.2017665,-0.2394422,-1.199175,3.248395,0.2440864,-0.8086385,1.408283,-0.1279468,293.9751,213.7048,36.78176
3,1.000001,-0.4427552,-0.6896497,0.6552061,-1.150659,-1.383967,-2.186952,-0.7750209,0.06319117,-0.6863536,0,17.33333,-0.7005784,0.0118888,-0.0653692,-0.3809769,3.998974,1.334582,-0.1981452,0.2495221,-0.23812,-1.20065,3.253681,0.244997,-0.8086753,1.408416,-0.1336361,294.0846,212.8543,36.87747
3,1.011112,-0.450756,-0.7202802,0.6917875,-1.148292,-1.370358,-2.187037,-0.7750816,-0.006039774,-0.6858974,0,17.33333,-0.7848103,0.03826326,-0.08984099,-0.3800853,4.004536,1.340733,-0.2198801,0.2918907,-0.2357322,-1.20173,3.258993,0.2462516,-0.8087078,1.408455,-0.1397343,294.281,211.9826,36.87337
3,1.022224,-0.480927,-0.7616193,0.746679,-1.146102,-1.354802,-2.186987,-0.7749873,0.008761285,-0.6856804,0,17.33333,-0.8768628,0.05417174,-0.1387899,-0.3797071,4.013536,1.345169,-0.2578368,0.363889,-0.220377,-1.20201,3.266373,0.2478037,-0.8087205,1.408482,-0.1461236,294.4836,211.1083,36.83208
3,1.033335,-0.5144298,-0.796708,0.7908419,-1.143695,-1.339504,-2.186505,-0.7749916,-0.0003390363,-0.686084,0,17.33333,-0.946202,0.07510132,-0.1613446,-0.3788027,4.021463,1.350435,-0.28492,0.4199733,-0.1934141,-1.20165,3.273225,0.2493211,-0.8088692,1.408507,-0.1529113,294.6804,210.1382,36.95458
3,1.044446,-0.5658082,-0.8532431,0.8374619,-1.140759,-1.322591,-2.185642,-0.7741788,0.07438621,-0.6866688,0,17.33333,-1.032255,0.1441084,-0.1876937,-0.3755686,4.031947,1.355279,-0.3076413,0.452772,-0.1953173,-1.202296,3.280229,0.2509877,-0.8090723,1.408522,-0.1599466,294.813,208.997,37.12428
3,1.055557,-0.6246117,-0.9130271,0.8873289,-1.137321,-1.304727,-2.184304,-0.7739354,0.0217218,-0.6885716,0,13.33333,-1.099296,0.1938021,-0.2154305,-0.3725294,4.043605,1.358573,-0.3388931,0.4865462,-0.1950773,-1.201417,3.28793,0.2531614,-0.8093591,1.408614,-0.1672404,294.9756,208.1181,37.0554
3,1.066668,-0.6581128,-0.9459533,0.9336371,-1.134703,-1.286562,-2.183498,-0.7731056,0.07597443,-0.6906564,0,13.33333,-1.162985,0.222007,-0.2145518,-0.3698167,4.051865,1.3658,-0.3583781,0.5204488,-0.1927544,-1.201593,3.295538,0.255178,-0.8096281,1.40889,-0.1747704,295.203,207.2543,36.98143
3,1.077779,-0.6976092,-0.9999368,1.014239,-1.132154,-1.266071,-2.183281,-0.7724462,0.0599152,-0.6926241,0,13.33333,-1.206548,0.2329981,-0.2118946,-0.3673671,4.059866,1.373133,-0.3875414,0.5563926,-0.1988861,-1.202024,3.303821,0.2574286,-0.8098264,1.409431,-0.1825775,295.4476,206.2874,37.03657
3,1.08889,-0.7208625,-1.006333,1.03785,-1.12983,-1.248268,-2.182205,-0.7731375,-0.06333645,-0.6947018,0,13.33333,-1.275731,0.2271125,-0.2026276,-0.3655306,4.066708,1.38294,-0.4090979,0.5711515,-0.21897,-1.203383,3.311535,0.2599173,-0.8098145,1.41031,-0.1907288,295.6662,205.171,37.24206
3,1.100002,-0.7729323,-1.00123,1.067943,-1.128215,-1.229752,-2.179805,-0.7731556,-0.0009186247,-0.698105,0,14.30303,-1.348367,0.2202969,-0.2146323,-0.3638698,4.075489,1.39217,-0.4265116,0.5902651,-0.2539772,-1.205412,3.320087,0.2622055,-0.8095485,1.411511,-0.1992489,295.7404,203.847,37.60706
3,1.111113,-0.8134407,-0.9929856,1.079786,-1.126589,-1.212218,-2.177028,-0.7737255,-0.0519021,-0.7021433,0,14.30303,-1.394353,0.2207668,-0.2311678,-0.3619236,4.085764,1.399251,-0.4514497,0.6167388,-0.285726,-1.207621,3.329078,0.2647611,-0.809101,1.412939,-0.2082807,295.7258,202.3652,38.0943
3,1.122224,-0.8824845,-0.9944413,1.110037,-1.125003,-1.193062,-2.173169,-0.7724754,0.1150456,-0.7055311,0,14.30303,-1.428606,0.1954509,-0.2277275,-0.3609771,4.09311,1.409417,-0.4691452,0.6698951,-0.3067707,-1.209171,3.339716,0.2667912,-0.8084353,1.414511,-0.2176306,295.6649,200.5514,38.66978
3,1.133335,-0.9014197,-1.008298,1.128389,-1.122786,-1.173688,-2.170876,-0.7727295,-0.0240845,-0.7069703,0,14.30303,-1.453269,0.1764965,-0.2297113,-0.3600519,4.101227,1.418518,-0.4886666,0.6984844,-0.3161691,-1.210511,3.349656,0.2693622,-0.8076417,1.416214,-0.2271809,295.5895,198.799,39.09495
3,1.144446,-0.9179929,-1.04125,1.154351,-1.120124,-1.153546,-2.169133,-0.7714283,0.1196358,-0.7114141,0,14.30303,-1.485269,0.1393391,-0.2071865,-0.3600359,4.105342,1.432094,-0.5084065,0.7494465,-0.3244287,-1.211543,3.361047,0.2716086,-0.8067104,1.41805,-0.2367725,295.5242,197.0759,39.50582
3,1.155557,-0.9301653,-1.088002,1.183562,-1.116712,-1.132376,-2.167912,-0.7731838,-0.1611851,-0.7127389,0,15.15152,-1.516402,0.107656,-0.2059693,-0.3600487,4.112202,1.443464,-0.530291,0.7940496,-0.3486733,-1.213452,3.372764,0.2740822,-0.8057533,1.420068,-0.2464934,295.5157,195.5504,39.86434
3,1.166668,-0.9466305,-1.149907,1.186343,-1.11211,-1.111218,-2.166209,-0.7739572,-0.06885875,-0.7153106,0,15.15152,-1.564264,0.1101702,-0.2011885,-0.3589334,4.119208,1.455679,-0.5541592,0.8152341,-0.383575,-1.215967,3.384146,0.2771709,-0.8045352,1.422195,-0.2562282,295.4919,193.7196,40.54193
3,1.17778,-0.9759956,-1.198113,1.188017,-1.107217,-1.089531,-2.164084,-0.7743066,-0.03129322,-0.7180494,0,15.15152,-1.597095,0.1253085,-0.1943425,-0.3572833,4.125308,1.468866,-0.5714822,0.8279755,-0.4240016,-1.219188,3.3958,0.2801813,-0.8029627,1.424313,-0.265928,295.445,191.7572,41.3579
3,1.188891,-0.9970506,-1.223874,1.192567,-1.1028,-1.068449,-2.161836,-0.7740179,0.0267862,-0.7219426,0,15.15152,-1.611962,0.131868,-0.1962914,-0.355736,4.132783,1.479945,-0.5824574,0.8376024,-0.4686603,-1.222886,3.407589,0.282946,-0.8010892,1.426275,-0.2756376,295.4263,189.661,42.28936
3,1.200002,-1.028824,-1.240106,1.198227,-1.098331,-1.046794,-2.159066,-0.7734928,0.0480434,-0.7271001,0,12.12121,-1.632187,0.1127697,-0.1812573,-0.3551304,4.137353,1.494615,-0.5868555,0.8387033,-0.4931325,-1.226314,3.419083,0.2857593,-0.7990234,1.427984,-0.2853492,295.5042,187.5137,43.1684
3,1.211113,-1.0489,-1.249792,1.209089,-1.094173,-1.024968,-2.156717,-0.7737767,-0.0261967,-0.7326339,0,12.12121,-1.642852,0.1032416,-0.1758934,-0.3545434,4.143015,1.507876,-0.5977862,0.8482926,-0.5281992,-1.230251,3.431059,0.288753,-0.7968153,1.429476,-0.2950658,295.6855,185.679,43.71196
3,1.222224,-1.057337,-1.258361,1.214502,-1.089678,-1.003159,-2.154645,-0.7732499,0.04854623,-0.7356266,0,12.12121,-1.661092,0.0831182,-0.1736965,-0.3544587,4.148949,1.521356,-0.6110376,0.8833911,-0.5503977,-1.233782,3.444373,0.2916667,-0.7944256,1.430843,-0.3047535,295.9128,184.0896,44.02914
3,1.233335,-1.066754,-1.272243,1.221072,-1.085085,-0.9809834,-2.152742,-0.7737554,-0.04642725,-0.741973,0,12.12121,-1.667777,0.04481387,-0.1727733,-0.3552801,4.15417,1.535348,-0.6231565,0.9173937,-0.5608795,-1.23684,3.457941,0.2945688,-0.791873,1.432186,-0.3144305,296.1634,182.6221,44.2307
3,1.244446,-1.069868,-1.277551,1.226464,-1.080651,-0.9589159,-2.151041,-0.7742965,-0.04882709,-0.7486657,0,12.12121,-1.667837,0.03735721,-0.1728149,-0.3551831,4.15969,1.548756,-0.6296927,0.9343613,-0.5565346,-1.239404,3.470798,0.2974956,-0.7891133,1.433594,-0.3240981,296.395,181.1222,44.48096
3,1.255558,-1.073941,-1.296756,1.227726,-1.075564,-0.9367035,-2.149551,-0.7744888,-0.01697031,-0.7534658,0,9.575758,-1.673578,0.01943111,-0.1973929,-0.3557291,4.168988,1.558586,-0.6436392,0.952274,-0.5393614,-1.24124,3.483727,0.3008608,-0.7860866,1.435093,-0.3337221,296.6011,179.4612,44.88774
3,1.266669,-1.077048,-1.307457,1.22571,-1.07053,-0.9147111,-2.14808,-0.7748504,-0.03283142,-0.7568647,0,9.575758,-1.687385,0.02914596,-0.2003795,-0.3551006,4.175668,1.571426,-0.6512121,0.9616406,-0.5340444,-1.2433,3.495354,0.3055538,-0.7828175,1.436673,-0.3432903,296.7791,177.6434,45.40023
3,1.27778,-1.080216,-1.311767,1.223636,-1.065601,-0.8928109,-2.146636,-0.7750848,-0.02109439,-0.759339,0,9.575758,-1.711872,0.05074418,-0.2149419,-0.3536539,4.184635,1.582689,-0.6643344,1.009375,-0.5082687,-1.243949,3.509738,0.3086897,-0.7793682,1.43831,-0.3527656,296.9292,175.7064,45.97422
3,1.288891,-1.0878,-1.303318,1.222508,-1.061136,-0.8712867,-2.144697,-0.775252,-0.01496082,-0.7603487,0,9.575758,-1.735819,0.09773302,-0.1994939,-0.3508981,4.189502,1.597938,-0.6698888,1.041215,-0.4921807,-1.244599,3.523855,0.3114588,-0.7757856,1.439956,-0.3620939,297.0901,173.6948,46.60656
3,1.300002,-1.091084,-1.292677,1.224562,-1.056784,-0.8494318,-2.143179,-0.7753384,-0.007734627,-0.7616408,0,8.363637,-1.738711,0.1179256,-0.1865626,-0.3487995,4.194048,1.61301,-0.6744891,1.07632,-0.4899253,-1.245649,3.538832,0.3142818,-0.7720944,1.441571,-0.3712026,297.2548,171.7158,47.2261
3,1.311113,-1.091298,-1.27134,1.226493,-1.052975,-0.8280226,-2.141536,-0.7750379,0.02754607,-0.7620453,0,8.363637,-1.730194,0.1189035,-0.1877038,-0.3474903,4.199807,1.626368,-0.6651185,1.093463,-0.5017081,-1.247584,3.5532,0.3167436,-0.768272,1.443129,-0.3800261,297.4182,169.8806,47.76384
3,1.322224,-1.104356,-1.246135,1.212354,-1.048855,-0.8079621,-2.139315,-0.7752792,-0.02225824,-0.7620564,0,8.363637,-1.716793,0.09121215,-0.2082521,-0.3472549,4.208584,1.636674,-0.6545813,1.099987,-0.5113345,-1.249424,3.567631,0.3190763,-0.76429,1.444646,-0.3885483,297.5885,168.2505,48.17177
3,1.333336,-1.120647,-1.226292,1.188759,-1.044636,-0.7884097,-2.136295,-0.7754225,-0.01281397,-0.7618442,0,8.363637,-1.698995,0.0612607,-0.2160951,-0.347518,4.216481,1.647398,-0.633363,1.098128,-0.5327754,-1.252047,3.581932,0.3209282,-0.7602181,1.446124,-0.3968855,297.7542,166.6763,48.57134
3,1.344447,-1.124241,-1.207419,1.169201,-1.039757,-0.7690352,-2.133492,-0.7755232,-0.009106204,-0.7614763,0,8.363637,-1.700174,0.03351879,-0.2066502,-0.3478791,4.222364,1.660898,-0.6086876,1.080269,-0.5383484,-1.254547,3.595413,0.3228076,-0.7561114,1.447576,-0.405149,297.9015,165.2092,48.91887
3,1.355558,-1.135526,-1.148847,1.146764,-1.038509,-0.7503627,-2.128806,-0.7750012,0.04796351,-0.7608826,0,11.63636,-1.702307,-0.003861308,-0.1813113,-0.3489647,4.226153,1.676298,-0.5818833,1.068788,-0.5278702,-1.256153,3.60873,0.3242228,-0.7520078,1.449058,-0.4134481,298.0973,163.8247,49.21823
3,1.366669,-1.142309,-1.120273,1.131616,-1.035006,-0.7313387,-2.125456,-0.7752691,-0.02484892,-0.7601113,0,11.63636,-1.678809,-0.01263535,-0.1699037,-0.349248,4.230576,1.690001,-0.55402,1.059451,-0.5174183,-1.257728,3.622133,0.3254295,-0.7477463,1.450644,-0.4215835,298.3398,162.3849,49.51645
3,1.37778,-1.15143,-1.072531,1.114127,-1.032564,-0.7142065,-2.1211,-0.7738757,0.1277512,-0.759676,0,11.63636,-1.62116,-0.02101493,-0.1559241,-0.350538,4.232223,1.704421,-0.5389158,1.040425,-0.5175518,-1.259715,3.635014,0.3270079,-0.7431975,1.452376,-0.4293806,298.5327,160.9278,49.82774
3,1.388891,-1.159603,-1.027267,1.103703,-1.027513,-0.6948746,-2.118188,-0.7749943,-0.1036198,-0.7588306,0,11.63636,-1.59684,-0.04462397,-0.1563314,-0.3514979,4.237888,1.716169,-0.5206598,1.030999,-0.5113071,-1.261404,3.648081,0.3282557,-0.7382877,1.454396,-0.436887,298.5988,159.7515,49.94896
3,1.400002,-1.164443,-0.9752413,1.088363,-1.025797,-0.6781569,-2.113947,-0.7752281,-0.01991359,-0.7575836,0,11.63636,-1.568404,-0.08639133,-0.1568798,-0.3536577,4.24377,1.726792,-0.5077775,1.019418,-0.5146034,-1.263365,3.660686,0.3295236,-0.7332892,1.456641,-0.4443471,298.6436,157.9632,50.5897
3,1.411114,-1.163076,-0.9295257,1.060215,-1.023834,-0.6624661,-2.108552,-0.7755786,-0.03193152,-0.7559463,0,11.75758,-1.557731,-0.07566631,-0.1600399,-0.3535591,4.248277,1.739625,-0.5055127,1.001328,-0.5189274,-1.265462,3.673006,0.3315074,-0.7283475,1.459016,-0.4517173,298.6381,155.8237,51.49492
3,1.422225,-1.169766,-0.9073775,1.041961,-1.021376,-0.6459566,-2.104005,-0.7756595,-0.006920297,-0.7540728,0,11.75758,-1.554568,-0.06497741,-0.170667,-0.3535144,4.254916,1.75041,-0.4903976,0.9822963,-0.5169295,-1.267461,3.685056,0.3328144,-0.7233122,1.461387,-0.4587017,298.6796,153.7008,52.40745
3,1.433336,-1.173559,-0.8714335,1.018053,-1.018699,-0.6306978,-2.098778,-0.7750624,0.05431857,0,0,11.75758,-1.548102,-0.05435681,-0.171753,-0.353296,4.260592,1.761985,-0.4858937,0.9644454,-0.5286499,-1.270308,3.69843,0.333725,-0.7183137,1.463755,-0.4653897,298.6245,151.9539,53.06947
3,1.444447,-1.180281,-0.8428348,1.006127,-1.016859,-0.6149351,-2.09373,-0.7754773,-0.03826529,0,0,11.75758,-1.518488,-0.06841648,-0.1806643,-0.3543261,4.267354,1.771657,-0.4689147,0.9582937,-0.5532591,-1.273497,3.711109,0.3346081,-0.7134416,1.466115,-0.4719329,298.5798,150.4171,53.65264
3,1.455558,-1.187531,-0.7770205,0.9788941,-1.016173,-0.6016613,-2.087103,-0.7755482,-0.005955872,0,0,10.66667,-1.465351,-0.08588326,-0.1802841,-0.3554628,4.273805,1.779928,-0.4507404,0.937295,-0.5778849,-1.277067,3.72365,0.3357048,-0.7086446,1.468446,-0.4783182,298.5978,148.8645,54.30597
3,1.466669,-1.190162,-0.7386591,0.9732116,-1.015281,-0.5869996,-2.081036,-0.7754986,0.004619121,0,0,10.66667,-1.43232,-0.09899235,-0.1700529,-0.3566138,4.278775,1.790041,-0.4421119,0.9214283,-0.5875643,-1.280335,3.73547,0.3368883,-0.703889,1.470725,-0.4845895,298.6345,147.3126,54.9863
3,1.47778,-1.18047,-0.6363189,0.9701407,-1.01719,-0.5740753,-2.075045,-0.7752696,0.02081966,0,0,10.66667,-1.404026,-0.1737719,-0.1590522,-0.3603459,4.284978,1.798804,-0.40665,0.8983083,-0.5761365,-1.283038,3.746693,0.3371312,-0.6990851,1.472968,-0.4906129,298.6306,145.8565,55.51884
3,1.488891,-1.1758,-0.5798827,0.9620301,-1.017624,-0.5613251,-2.06879,-0.7751482,0.01092894,0,0,10.66667,-1.393626,-0.1993599,-0.1646794,-0.3627151,4.292913,1.806398,-0.3989981,0.8921528,-0.5569552,-1.285251,3.760209,0.338193,-0.6942425,1.47525,-0.4963631,298.5788,144.5269,55.92766
3,1.500003,-1.17022,-0.5097768,0.9315659,-1.019075,-0.5499076,-2.061983,-0.7762097,-0.0970167,0,0,10.66667,-1.393774,-0.1928639,-0.1827517,-0.3640088,4.301379,1.813897,-0.3948032,0.9123607,-0.5324147,-1.28642,3.772562,0.3389341,-0.6893398,1.477631,-0.5018972,298.5,143.2803,56.29911
3,1.511114,-1.172864,-0.4748333,0.9056839,-1.019508,-0.5380864,-2.054801,-0.7761708,0.004254499,0,0,12.36364,-1.39922,-0.1712688,-0.2059409,-0.3637111,4.310279,1.821519,-0.3853046,0.9241403,-0.5174743,-1.287688,3.785044,0.3397283,-0.6843358,1.480133,-0.507126,298.3097,141.9966,56.73216
3,1.522225,-1.174554,-0.4369271,0.8552947,-1.019913,-0.5282364,-2.046912,-0.7762949,-0.01135514,0,0,12.36364,-1.388447,-0.1414654,-0.2165421,-0.3634938,4.318372,1.828936,-0.374521,0.9178143,-0.504768,-1.289176,3.796586,0.3402654,-0.6793267,1.482764,-0.5121858,298.1597,140.5899,57.27229
3,1.533336,-1.171939,-0.4161133,0.7932398,-1.019138,-0.5192818,-2.038552,-0.7757149,0.05310631,0,0,12.36364,-1.332953,-0.125945,-0.2158828,-0.363734,4.324215,1.836632,-0.3692909,0.9147283,-0.5239561,-1.291909,3.808589,0.3409736,-0.674439,1.485549,-0.5170833,298.0197,139.0473,57.87896
3,1.544447,-1.159696,-0.3973835,0.7280132,-1.018272,-0.5108566,-2.030339,-0.7759887,-0.02545918,0,0,12.36364,-1.277753,-0.1615988,-0.209256,-0.3662379,4.332222,1.841496,-0.3490691,0.9022666,-0.5506681,-1.295155,3.820603,0.3409102,-0.6697558,1.488519,-0.5218648,297.9198,137.4975,58.50566
3,1.555558,-1.129532,-0.3603574,0.6625137,-1.017888,-0.50391,-2.022186,-0.7760297,-0.003510322,0,0,13.93939,-1.224793,-0.2238468,-0.1910845,-0.3699866,4.340334,1.846089,-0.3254605,0.8769716,-0.5647231,-1.298555,3.83164,0.3407499,-0.6653737,1.491725,-0.5264441,297.866,135.9174,59.17684
3,1.566669,-1.084193,-0.3411092,0.6183709,-1.017251,-0.4966614,-2.015204,-0.776435,-0.03697995,0,0,13.93939,-1.176811,-0.2477483,-0.1694029,-0.3727802,4.34626,1.852186,-0.313538,0.8568357,-0.5734451,-1.301968,3.842412,0.3408713,-0.6613649,1.49521,-0.5307708,297.8655,134.3231,59.94633
3,1.577781,-1.056524,-0.2734327,0.5292187,-1.017692,-0.4933746,-2.0062,-0.7772446,-0.07379085,0,0,13.93939,-1.099482,-0.2855869,-0.1821915,-0.3764501,4.356095,1.852597,-0.2929119,0.8271506,-0.5555354,-1.30457,3.852416,0.3408076,-0.6577375,1.498948,-0.5346648,297.8362,132.6641,60.88298
3,1.588892,-1.0542,-0.2055676,0.4859703,-1.019287,-0.4893335,-1.996416,-0.778182,-0.08522584,0,0,13.93939,-1.058921,-0.2688447,-0.1878852,-0.378171,4.364008,1.855861,-0.2841032,0.8154637,-0.5332561,-1.306615,3.862911,0.3408095,-0.6545045,1.502861,-0.5380938,297.7218,130.9572,62.04368
3,1.600003,-1.032327,-0.07925203,0.4080659,-1.023212,-0.4891162,-1.985629,-0.7781006,0.00795512,0,0,13.93939,-1.006433,-0.241602,-0.1819158,-0.3793263,4.370217,1.859587,-0.2624776,0.7953596,-0.5099954,-1.308548,3.872669,0.3404878,-0.6516303,1.50677,-0.5409923,297.5732,129.1942,63.37038
3,1.611114,-1.008968,0.005615443,0.3411183,-1.025957,-0.4884962,-1.975559,-0.7766886,0.1287934,0,0,16.12121,-0.9346275,-0.2455931,-0.1390016,-0.3818803,4.372129,1.866002,-0.2441026,0.7805696,-0.4856017,-1.310009,3.882303,0.3401272,-0.6492646,1.510677,-0.5434619,297.4135,127.6549,64.48479
3,1.622225,-0.9904904,0.05978787,0.3022057,-1.028974,-0.487498,-1.965855,-0.777382,-0.06465086,0,0,16.12121,-0.8972652,-0.2769538,-0.109763,-0.3857418,4.375777,1.871176,-0.2159474,0.7403191,-0.4730917,-1.312203,3.890412,0.3393882,-0.6474235,1.514677,-0.5457538,297.1853,126.6006,65.25274
3,1.633336,-0.9659234,0.1383881,0.2471032,-1.03317,-0.4878959,-1.955533,-0.7778188,-0.03941697,0,0,16.12121,-0.8396233,-0.3084692,-0.07540353,-0.3900359,4.378492,1.876356,-0.1898693,0.6767473,-0.4979236,-1.316424,3.898235,0.338744,-0.6460834,1.518885,-0.5477086,296.9254,125.6794,65.93875
3,1.644447,-0.9570571,0.1956775,0.2092789,-1.037435,-0.4886682,-1.944661,-0.7778215,-0.000110548,0,0,16.12121,-0.7598744,-0.3165365,-0.0837834,-0.3933036,4.38464,1.876591,-0.1672331,0.6418814,-0.5130384,-1.320205,3.906564,0.3378609,-0.6451808,1.523272,-0.549353,296.664,124.5961,66.96191
3,1.655559,-0.9463524,0.2795835,0.1604607,-1.042734,-0.4920041,-1.932952,-0.7776979,0.01112486,0,0,15.87879,-0.6873852,-0.334253,-0.0655144,-0.3972408,4.388514,1.878509,-0.1380332,0.5952941,-0.5154696,-1.324062,3.91353,0.3367477,-0.6445674,1.527756,-0.5507702,296.3541,123.4008,68.25509
3,1.66667,-0.9293485,0.3708992,0.1074024,-1.049315,-0.49565,-1.921298,-0.7771264,0.05198913,0,0,15.87879,-0.6200125,-0.3520509,-0.03013313,-0.401855,4.389935,1.882074,-0.1066597,0.5646183,-0.4837667,-1.326384,3.920504,0.3352954,-0.6441296,1.532267,-0.5520081,295.9865,122.1698,69.60869
3,1.677781,-0.8938574,0.4457527,0.09593642,-1.057053,-0.4976809,-1.911255,-0.7773549,-0.02145821,0,0,15.87879,-0.5710518,-0.3631144,-0.02538376,-0.4059105,4.393266,1.884017,-0.08614953,0.5466477,-0.465822,-1.328947,3.927461,0.333897,-0.6437975,1.536781,-0.5530452,295.6567,120.8857,70.90789
3,1.688892,-0.8637406,0.5117866,0.06214193,-1.06388,-0.5013385,-1.900833,-0.7774156,-0.005458426,0,0,15.87879,-0.5348777,-0.3719054,-0.02151334,-0.4096788,4.396246,1.886224,-0.06130991,0.528737,-0.4414778,-1.331038,3.93428,0.3320376,-0.6436267,1.541272,-0.553625,295.3301,119.4731,72.17531
3,1.700003,-0.8250303,0.5693622,0.02629066,-1.07135,-0.5053833,-1.891031,-0.7780159,-0.05493242,0,0,15.87879,-0.4805139,-0.3734352,-0.01786754,-0.4136624,4.399604,1.886615,-0.02993098,0.4863762,-0.4268646,-1.33379,3.939582,0.3300788,-0.6436642,1.545904,-0.5539794,294.8737,118.5389,73.12428
3,1.711114,-0.8000535,0.6151327,-0.00724557,-1.078833,-0.509174,-1.880969,-0.7782534,-0.02135378,0,0,13.93939,-0.4599889,-0.3672923,0.003282368,-0.4171869,4.40018,1.890415,-0.0006144047,0.446092,-0.4015839,-1.336104,3.944354,0.3279352,-0.6437136,1.55073,-0.5542564,294.3495,117.7864,74.1653
3,1.722225,-0.7909476,0.6522638,-0.0353108,-1.086418,-0.5134761,-1.870584,-0.7787605,-0.04652119,0,0,13.93939,-0.4310137,-0.3676351,0.02213259,-0.421295,4.401199,1.893218,0.01672272,0.4196,-0.3943024,-1.338772,3.949289,0.3260114,-0.6437579,1.555655,-0.5545668,293.9367,116.4972,75.68991
3,1.733337,-0.789368,0.6989541,-0.06018153,-1.095132,-0.5177073,-1.859712,-0.7781048,0.06011054,0,0,13.93939,-0.3683379,-0.3937033,0.02771007,-0.4261281,4.403488,1.893276,0.0448824,0.3793801,-0.3796314,-1.341292,3.953634,0.3236098,-0.643811,1.560517,-0.5547062,293.5547,114.6648,77.58156
3,1.744448,-0.7919195,0.7393215,-0.07116872,-1.104135,-0.5220616,-1.848771,-0.7776499,0.04085542,0,0,13.93939,-0.3022799,-0.4060199,0.03648419,-0.4311035,4.405736,1.892416,0.0632611,0.3571486,-0.3691475,-1.343865,3.957956,0.3212542,-0.6439144,1.565168,-0.5546324,293.15,112.7283,79.52984
3,1.755559,-0.774404,0.801223,-0.08137217,-1.114774,-0.5266572,-1.838437,-0.7768601,0.07175809,0,0,13.93939,-0.2406501,-0.4086004,0.02833673,-0.435364,4.408892,1.890762,0.093932,0.2870877,-0.3492681,-1.346679,3.960118,0.3183119,-0.6441667,1.569666,-0.5545264,292.761,111.1638,81.10001
3,1.76667,-0.743773,0.8291877,-0.0817782,-1.124252,-0.5305922,-1.829351,-0.7766055,0.02264442,0,0,16.48485,-0.2105853,-0.4025616,0.04723214,-0.4398786,4.409439,1.892172,0.1062346,0.2296615,-0.3452603,-1.350096,3.962162,0.3162429,-0.6445796,1.57411,-0.5543905,292.3388,109.9826,82.32687
3,1.777781,-0.7163208,0.858224,-0.08215931,-1.134399,-0.534424,-1.820545,-0.7771594,-0.05087662,0,0,16.48485,-0.1822791,-0.3699345,0.07692602,-0.4434046,4.407652,1.894931,0.1195728,0.1796634,-0.3295139,-1.353036,3.963563,0.3141763,-0.6450835,1.578568,-0.5541102,291.8884,108.9036,83.50962
3,1.788892,-0.6824176,0.8690532,-0.09840053,-1.143844,-0.5387463,-1.811951,-0.7779914,-0.07568467,0,0,16.48485,-0.1737545,-0.3593069,0.07047609,-0.4469573,4.409684,1.894894,0.1293684,0.1679857,-0.311497,-1.355374,3.966265,0.3118804,-0.6455863,1.583016,-0.5534422,291.3889,107.5905,84.97465
3,1.800003,-0.649497,0.8724239,-0.1124532,-1.152979,-0.5431602,-1.80403,-0.7780553,-0.005456385,0,0,16.48485,-0.1599164,-0.3562076,0.06714138,-0.4508215,4.411081,1.894956,0.1424462,0.1520373,-0.2839191,-1.357119,3.968052,0.3094476,-0.6460541,1.587391,-0.5524802,290.9291,105.9188,86.86096
3,1.811115,-0.6153302,0.854494,-0.1241662,-1.161098,-0.546911,-1.796714,-0.7781799,-0.01157896,0,0,18.42424,-0.1194979,-0.3533023,0.06028146,-0.4545579,4.413594,1.892746,0.146985,0.1296874,-0.2765665,-1.359886,3.969912,0.3071927,-0.646536,1.591695,-0.5514549,290.484,104.125,88.86777
3,1.822226,-0.5843619,0.8419285,-0.130609,-1.169443,-0.5507588,-1.789671,-0.7785863,-0.03730607,0,0,18.42424,-0.09212977,-0.360854,0.03542418,-0.4585361,4.417509,1.889245,0.1514383,0.1116046,-0.2723872,-1.362452,3.971411,0.3050467,-0.647015,1.59588,-0.5503957,290.1066,102.3646,90.8356
3,1.833337,-0.5661643,0.8270995,-0.1412337,-1.177648,-0.5548206,-1.782331,-0.7786263,-0.003533637,0,0,18.42424,-0.0943459,-0.3565192,0.02586774,-0.4621298,4.420623,1.887762,0.1529699,0.07642625,-0.25227,-1.364868,3.972094,0.3030438,-0.6475394,1.59989,-0.5493478,289.8083,100.5425,92.82558
3,1.844448,-0.5479038,0.7972497,-0.1623791,-1.184811,-0.5591829,-1.775151,-0.7785853,0.00352741,0,0,18.42424,-0.08482323,-0.3308928,0.001398854,-0.4645139,4.424308,1.885099,0.1564792,0.04772502,-0.2481294,-1.36782,3.973083,0.3009348,-0.6480715,1.603606,-0.5482442,289.5512,98.73993,94.79955
3,1.855559,-0.5318951,0.7811894,-0.1922027,-1.192451,-0.5647233,-1.767828,-0.7780329,0.05024175,0,0,18.42424,-0.06415983,-0.3023865,0.01733707,-0.4670492,4.423762,1.885592,0.1663171,0.0296535,-0.2322587,-1.369884,3.973434,0.2986802,-0.6486372,1.606961,-0.5470898,289.3219,96.94662,96.72201
3,1.86667,-0.5084442,0.7684179,-0.2156631,-1.199769,-0.5696928,-1.761414,-0.7779472,0.007189224,0,0,15.87879,0.001243906,-0.2817369,0.03802351,-0.4696985,4.423116,1.883884,0.1803587,0.008447789,-0.2239048,-1.372058,3.973785,0.2965592,-0.6493449,1.609987,-0.5459873,289.108,95.35651,98.39096
3,1.877781,-0.4872106,0.7695713,-0.2275039,-1.207507,-0.5744092,-1.755116,-0.7779637,-0.001713701,0,0,15.87879,0.04575665,-0.3119469,0.03948363,-0.4740011,4.424899,1.880337,0.1837085,-0.00326772,-0.2154379,-1.374164,3.973968,0.2944058,-0.6502199,1.612776,-0.5448887,288.9081,94.33906,99.4781
3,1.888893,-0.4415863,0.7891653,-0.2279036,-1.216311,-0.5787598,-1.750027,-0.7783712,-0.03742764,0,0,15.87879,0.05612792,-0.3311244,0.02864637,-0.4776864,4.426794,1.877869,0.1627197,-0.02909157,-0.201593,-1.376606,3.973566,0.2933909,-0.6513755,1.615537,-0.5437893,288.7052,93.69719,100.1788
3,1.900004,-0.3853664,0.8162975,-0.228435,-1.225544,-0.5832525,-1.746126,-0.7781352,0.02169567,0,0,15.87879,0.06989692,-0.2959025,-0.004339702,-0.4793349,4.430449,1.873355,0.1416505,-0.04744234,-0.1887607,-1.378522,3.972949,0.2926486,-0.65281,1.618303,-0.5425847,288.4841,92.82954,101.206
3,1.911115,-0.3451167,0.8303764,-0.2447461,-1.234707,-0.5884222,-1.741361,-0.778851,-0.06583635,0,0,16,0.05512322,-0.2145381,-0.05166015,-0.4781754,4.434439,1.869657,0.1258191,-0.05405469,-0.1705632,-1.379524,3.972257,0.2918031,-0.6543844,1.621031,-0.5411148,288.178,91.72721,102.6171
3,1.922226,-0.3389771,0.8483945,-0.2619801,-1.244124,-0.5938924,-1.735957,-0.7797757,-0.08420032,0,0,16,0.05443897,-0.1398375,-0.07361113,-0.4770371,4.437024,1.866709,0.1131,-0.04468468,-0.1406383,-1.380062,3.972201,0.2910113,-0.6559628,1.623638,-0.5393029,287.8221,90.30751,104.4261
3,1.933337,-0.3305741,0.8525001,-0.2940331,-1.25312,-0.6003116,-1.730918,-0.7787871,0.09075002,0,0,16,0.05986278,-0.1238854,-0.0767739,-0.4777349,4.439269,1.863819,0.1013532,-0.004572828,-0.07119243,-1.378138,3.972587,0.2901914,-0.6575795,1.626106,-0.53734,287.4958,88.65818,106.4459
3,1.944448,-0.3191026,0.8608513,-0.3250465,-1.261902,-0.6065546,-1.725881,-0.7777304,0.09544025,0,0,16,0.0599879,-0.133576,-0.05871278,-0.4796598,4.440372,1.862203,0.0981873,0.002792125,-0.05197657,-1.377981,3.972835,0.2891759,-0.6593162,1.628518,-0.5354322,287.1982,87.19698,108.2254
3,1.955559,-0.2947828,0.8704573,-0.3551421,-1.271793,-0.6137537,-1.72106,-0.7779855,-0.02422533,0,0,16,0.06895827,-0.1349374,-0.01833733,-0.481507,4.439019,1.862335,0.086367,0.02709955,-0.0294636,-1.377362,3.973643,0.2883559,-0.66127,1.630981,-0.5336707,286.9499,85.89356,109.7594
3,1.966671,-0.2833329,0.8722987,-0.4009507,-1.280556,-0.6207775,-1.716392,-0.7776883,0.02722486,0,0,12.36364,0.07911479,-0.1085561,0.01151839,-0.4821845,4.437247,1.862569,0.08195911,0.03027872,-0.05176155,-1.378081,3.973557,0.2875916,-0.6635519,1.633528,-0.5319906,286.7675,84.58092,111.2515
3,1.977782,-0.2888701,0.8740696,-0.4371584,-1.28944,-0.6285028,-1.710772,-0.7778732,-0.0172826,0,0,12.36364,0.1114176,-0.0822482,0.02195729,-0.4823576,4.436013,1.86131,0.07869068,0.03453042,-0.05812289,-1.378755,3.974329,0.2866728,-0.6661349,1.636194,-0.5302891,286.4986,83.41358,112.7123
3,1.988893,-0.3126939,0.8777447,-0.4878797,-1.298509,-0.6353232,-1.704949,-0.7777149,0.0144979,0,0,12.36364,0.1954732,-0.06685869,0.0008529797,-0.4824311,4.437763,1.854718,0.07122267,0.03232278,-0.06762924,-1.379173,3.974122,0.2859202,-0.6689513,1.638984,-0.5284083,286.2167,82.19711,114.3284
3,2.000004,-0.3160919,0.8806424,-0.5198461,-1.307482,-0.6438245,-1.699013,-0.7766944,0.0929889,0,0,12.36364,0.2301106,-0.1096841,-0.01362659,-0.4847763,4.440731,1.848268,0.0510078,0.03529513,-0.05686324,-1.379302,3.974677,0.2858925,-0.6719376,1.641749,-0.5261933,286.054,80.65121,116.3107
3,2.011115,-0.3035142,0.8783163,-0.5550448,-1.315985,-0.6525,-1.693744,-0.7759663,0.06566624,0,0,12.36364,0.2236825,-0.1320689,-0.0008921176,-0.4870879,4.440993,1.845956,0.03286638,0.03725086,-0.05673455,-1.379293,3.975087,0.2861817,-0.6750891,1.64454,-0.5236713,285.8775,79.15693,118.2491
3,2.022226,-0.2769761,0.869768,-0.5860126,-1.324258,-0.6614083,-1.68941,-0.776148,-0.01703044,0,0,13.09091,0.2159376,-0.1013608,0.04517763,-0.4877276,4.436643,1.847715,0.01698227,0.02645193,-0.05775506,-1.379964,3.97519,0.286575,-0.678335,1.647435,-0.5208529,285.6479,77.70019,120.2056
3,2.033337,-0.2760919,0.867342,-0.6222047,-1.332647,-0.6705776,-1.684283,-0.776777,-0.05746181,0,0,13.09091,0.1996795,-0.06095982,0.08500824,-0.4875662,4.431143,1.85097,0.02137758,0.02003378,-0.04394767,-1.3801,3.974813,0.2861423,-0.6817009,1.65055,-0.5178775,285.483,76.25549,122.204
3,2.044448,-0.3057478,0.8392653,-0.6377681,-1.340203,-0.6790017,-1.678041,-0.7776649,-0.08074113,0,0,13.09091,0.1941256,0.03978647,0.1783165,-0.4851672,4.417857,1.860795,0.03136042,0.01033502,0.01669289,-1.377866,3.973854,0.2855929,-0.6851647,1.653851,-0.5147097,285.4301,74.68211,124.3354
3,2.055559,-0.4239594,0.7659375,-0.7451702,-1.352677,-0.6998841,-1.660611,-0.7768058,0.07907628,0,0,13.69697,0.188098,0.01129144,0.1377256,-0.4862655,4.415401,1.858976,0.02571023,0.02353989,0.1904224,-1.368043,3.971925,0.2853937,-0.6887782,1.657254,-0.5114331,285.5081,72.77375,126.7936
3,2.06667,-0.4815748,0.6459977,-0.7587379,-1.354984,-0.709448,-1.651044,-0.7700828,0.6139296,0,0,13.69697,0.2069255,-0.02720521,0.1351681,-0.4882272,4.413372,1.857801,0.02259348,0.04252427,0.2416237,-1.363685,3.972104,0.2850781,-0.6928052,1.660814,-0.5082054,285.6497,71.01025,128.8972
3,2.077781,-0.5217159,0.6029949,-0.7603084,-1.359985,-0.7184495,-1.641888,-0.7719886,-0.1792819,0,0,13.69697,0.2518356,-0.08063249,0.09387696,-0.4907167,4.415517,1.851394,0.05487832,0.0002742857,0.2253367,-1.362422,3.970235,0.2834954,-0.6979133,1.665236,-0.5050226,285.5652,70.14882,129.946
3,2.088892,-0.6174026,0.5819219,-0.7585394,-1.36529,-0.7273668,-1.629712,-0.7727327,-0.06591032,0,0,13.69697,0.2966312,-0.1521836,0.05675006,-0.4945213,4.419137,1.843401,0.06995125,-0.0272143,0.2049293,-1.361232,3.968548,0.2825286,-0.7036,1.670261,-0.5014818,285.7798,69.00183,131.9129
3,2.100003,-0.6174026,0.5819219,-0.7585394,-1.36529,-0.7273668,-1.629712,-0.7734523,-0.06519245,0,0,13.69697,0.2966312,-0.1521836,0.05675006,-0.4945213,4.419137,1.843401,0.06995125,-0.0272143,0.2049293,-1.361232,3.968548,0.2825286,-0.7092836,1.675517,-0.4976532,286.2338,67.34055,134.8305
3,2.111114,-0.6560444,0.6016715,-0.7786944,-1.372182,-0.737131,-1.619547,-0.7808905,-0.679217,0,0,13.69697,0.350889,-0.215221,-0.003809854,-0.4992639,4.423982,1.832594,0.09123414,-0.03333746,0.188824,-1.359788,3.967792,0.2811384,-0.7141168,1.680448,-0.4934623,286.6282,64.55453,139.2272
3,2.122225,-0.7301982,0.6486112,-0.8202294,-1.380653,-0.7483605,-1.606605,-0.771334,0.8795034,0,0,16.36364,0.3884714,-0.3221876,-0.180608,-0.504423,4.444638,1.808679,0.1133963,-0.0171093,0.1770504,-1.358182,3.967674,0.2791107,-0.7173056,1.684169,-0.4896024,287.5175,61.17796,144.2017
3,2.133336,-0.7885293,0.7203493,-0.8439142,-1.390987,-0.7589732,-1.593807,-0.772517,-0.1162804,0,0,16.36364,0.3907403,-0.3303091,-0.2520516,-0.5067405,4.456478,1.795162,0.1175095,0.1139718,0.1795907,-1.354621,3.972784,0.2766476,-0.7198268,1.687398,-0.4870871,288.1248,59.83442,145.882
3,2.144447,-0.7852398,0.8030992,-0.8893843,-1.402461,-0.7709042,-1.583106,-0.770738,0.164898,0,0,16.36364,0.3485163,-0.3028829,-0.3313429,-0.5075314,4.470023,1.780737,0.113319,0.2268151,0.192771,-1.350293,3.97851,0.2743029,-0.722177,1.690431,-0.4853691,288.5137,59.62582,145.5771
3,2.155558,-0.7210816,0.8487802,-0.9721869,-1.413168,-0.7849912,-1.575019,-0.771023,-0.02717518,0,0,16.36364,0.278309,-0.2413967,-0.36536,-0.5072528,4.480909,1.770625,0.07937983,0.2295842,0.2281056,-1.34588,3.980273,0.2741461,-0.7248599,1.693717,-0.483798,288.5396,59.85528,144.6504
3,2.166669,-0.6499849,0.8575733,-1.014227,-1.422766,-0.7979789,-1.56815,-0.7738347,-0.2561354,0,0,12.24242,0.2683904,-0.08168095,-0.1353169,-0.5043185,4.466999,1.780078,0.07330219,0.2229769,0.2781748,-1.340867,3.980966,0.2733428,-0.7279632,1.697599,-0.4816684,288.3805,59.78215,144.4039
3,2.17778,-0.5197775,0.8137499,-1.041207,-1.430316,-0.8107483,-1.56501,-0.7772287,-0.3080128,0,0,12.24242,0.2707044,0.05200416,0.1583755,-0.5020165,4.442105,1.798763,0.07059679,0.2099176,0.3527171,-1.33395,3.98106,0.2726062,-0.7313412,1.701866,-0.4782135,288.513,59.15643,145.1562
3,2.188891,-0.4051855,0.7247285,-1.096596,-1.4351,-0.8254542,-1.562385,-0.7783988,-0.1048388,0,0,12.24242,0.3037217,0.1031328,0.3074166,-0.5013289,4.425601,1.808577,0.07067282,0.07154842,0.3192226,-1.332888,3.976843,0.2727061,-0.7350688,1.706219,-0.4731358,289.0592,58.08385,146.7181
3,2.200002,-0.3410066,0.6490372,-1.173006,-1.440123,-0.8413139,-1.558511,-0.7817214,-0.3033544,0,0,12.24242,0.439629,0.04502279,0.4025066,-0.5044693,4.410575,1.812199,0.1113684,-0.08985025,0.2726817,-1.333241,3.970064,0.2716653,-0.7392198,1.710578,-0.4667672,289.6915,56.55961,149.1909
3,2.211113,-0.304499,0.5818863,-1.208778,-1.443931,-0.8549759,-1.554248,-0.7821726,-0.03920117,0,0,12.24242,0.5353633,-0.03696436,0.4488981,-0.509296,4.401247,1.811096,0.1483719,-0.1842455,0.2519475,-1.332436,3.964833,0.2699867,-0.7435918,1.714457,-0.4593534,290.5035,55.30452,151.6943
3,2.222224,-0.2882231,0.5382171,-1.224478,-1.448718,-0.8691466,-1.549767,-0.7803158,0.1691423,0,0,10.90909,0.7348807,-0.2195678,0.4190034,-0.5184669,4.398218,1.798884,0.1616492,-0.2469168,0.2335666,-1.331815,3.959495,0.2689846,-0.7484607,1.717731,-0.4515356,291.3627,54.58628,153.7528
3,2.233335,-0.2672847,0.4401064,-1.257854,-1.450956,-0.884382,-1.545611,-0.7788271,0.1343604,0,0,10.90909,0.8283622,-0.2811533,0.4389037,-0.5244206,4.390544,1.793395,0.1670172,-0.3757082,0.2150148,-1.33233,3.950909,0.2689524,-0.7537563,1.720457,-0.4439196,291.8646,53.89307,156.1406
3,2.244446,-0.2625744,0.3695899,-1.289235,-1.453391,-0.8996819,-1.540946,-0.7780894,0.066191,0,0,10.90909,0.8686028,-0.2412356,0.4823427,-0.5269282,4.377625,1.793937,0.2147669,-0.4976078,0.1632507,-1.334621,3.941695,0.2671057,-0.759089,1.722768,-0.4370629,291.9386,53.36464,158.492
3,2.255557,-0.3037364,0.268321,-1.380845,-1.453944,-0.9183341,-1.533827,-0.7781469,-0.005844175,0,0,10.90909,0.9194561,-0.1639549,0.4949746,-0.5275195,4.365488,1.792375,0.2510146,-0.615524,0.1626899,-1.335793,3.930505,0.265686,-0.7640442,1.724679,-0.4307988,291.6616,53.48762,159.6758
3,2.266668,-0.3684234,0.2012655,-1.435318,-1.455432,-0.9364622,-1.525523,-0.7773682,0.07086387,0,0,13.57576,0.9570285,-0.1055302,0.4767418,-0.5275387,4.35628,1.788659,0.297324,-0.6492924,0.1996416,-1.334422,3.921833,0.2630252,-0.7685261,1.726394,-0.4249291,291.3522,54.42178,159.585
3,2.277779,-0.4223457,0.1560693,-1.432511,-1.456527,-0.9524726,-1.517204,-0.7750843,0.2081827,0,0,13.57576,0.9959766,-0.1355762,0.4569605,-0.5307685,4.348746,1.782721,0.325025,-0.636331,0.2240463,-1.332932,3.914328,0.2602505,-0.7726652,1.728072,-0.4192415,291.2554,55.82327,158.7803
3,2.28889,-0.4446867,0.160277,-1.418581,-1.459756,-0.9678369,-1.509929,-0.7736435,0.1298955,0,0,13.57576,0.9862716,-0.2317085,0.5162082,-0.5381823,4.336715,1.782414,0.3281869,-0.6150953,0.2571352,-1.330596,3.907428,0.2581999,-0.7767187,1.730086,-0.4134457,291.1512,57.43093,157.5441
3,2.300001,-0.390106,0.1514252,-1.38791,-1.462048,-0.9823581,-1.505735,-0.7734906,0.01338523,0,0,13.57576,0.9677305,-0.269287,0.5993132,-0.5444193,4.320669,1.785925,0.3198822,-0.6375511,0.2592362,-1.329699,3.898857,0.2569444,-0.780677,1.732731,-0.4071083,290.9769,58.87967,156.5658
3,2.311112,-0.2880571,0.08020866,-1.349519,-1.461376,-0.9961352,-1.504622,-0.7746875,-0.1092224,0,0,13.57576,0.9630862,-0.2176868,0.7147074,-0.5478085,4.298478,1.794361,0.3286731,-0.6768115,0.2399046,-1.329985,3.889628,0.2552634,-0.7842028,1.736009,-0.3999914,290.9383,59.64923,156.6185
3,2.322223,-0.269697,0.0418781,-1.367409,-1.461631,-1.011862,-1.500517,-0.7778785,-0.2905685,0,0,13.57576,0.9662894,-0.1518954,0.7597682,-0.5491939,4.280174,1.799052,0.3536856,-0.7584527,0.1905153,-1.332539,3.878423,0.2531215,-0.7870438,1.7398,-0.3920657,291.2035,59.75196,157.5685
3,2.333334,-0.2823564,0.02576864,-1.369335,-1.462636,-1.027265,-1.495102,-0.7809773,-0.2811722,0,0,13.57576,0.9546468,-0.1229445,0.7451468,-0.5513079,4.266005,1.800915,0.3880182,-0.7964187,0.1699832,-1.333936,3.868275,0.2500647,-0.7890835,1.743702,-0.3835787,291.9777,59.6056,158.9461
3,2.344445,-0.2959819,0.0205698,-1.340456,-1.4639,-1.041122,-1.48995,-0.7780782,0.2666693,0,0,13.57576,0.9688338,-0.08471751,0.7451897,-0.5530959,4.250815,1.802408,0.4338727,-0.8119067,0.1505233,-1.335155,3.858798,0.2460532,-0.7904382,1.747116,-0.375018,293.2458,59.70193,160.0911
3,2.355556,-0.2937373,0.0358777,-1.295852,-1.465841,-1.053931,-1.485427,-0.7760856,0.1795855,0,0,13.57576,1.021252,-0.09009707,0.6742508,-0.5552195,4.241689,1.797014,0.4660183,-0.8424427,0.1310891,-1.336877,3.848284,0.2422249,-0.7918186,1.750167,-0.3669853,294.3589,60.11305,160.6309
3,2.366668,-0.2758635,0.09725201,-1.238959,-1.470309,-1.066055,-1.481559,-0.7759104,0.01481033,0,0,13.57576,1.031907,-0.1929078,0.5595815,-0.561339,4.239499,1.786734,0.4812773,-0.8700594,0.1490296,-1.337271,3.837309,0.2390682,-0.7935356,1.753016,-0.3596263,294.9886,60.63884,160.8705
3,2.377779,-0.2468818,0.1107965,-1.178507,-1.472979,-1.076878,-1.478763,-0.7763951,-0.04431332,0,0,8,1.033326,-0.2364314,0.5284318,-0.5663441,4.23253,1.781153,0.503753,-0.8720367,0.165955,-1.337205,3.827045,0.2351632,-0.7954149,1.755524,-0.352845,295.2897,61.0836,161.2265
3,2.38889,-0.2064185,0.1510433,-1.12048,-1.476801,-1.0872,-1.476892,-0.7769421,-0.04961402,0,0,8,1.025328,-0.2607089,0.496414,-0.5708385,4.225414,1.775908,0.5465283,-0.8664548,0.208359,-1.335822,3.816874,0.2301714,-0.7971692,1.757521,-0.3464841,295.3767,61.41763,161.6526
3,2.400001,-0.1701429,0.173009,-1.078258,-1.480307,-1.097776,-1.475147,-0.7777783,-0.07603865,0,0,8,0.9664547,-0.1793032,0.5060438,-0.5713493,4.214182,1.776598,0.5604202,-0.8536445,0.2402886,-1.334165,3.806953,0.2258222,-0.7986078,1.758975,-0.3403119,295.3253,61.61187,162.0953
3,2.411112,-0.1583743,0.1807473,-1.057081,-1.483625,-1.108512,-1.472856,-0.7784819,-0.06403865,0,0,8,0.9426261,-0.001325667,0.5307256,-0.5669358,4.19944,1.779531,0.5719829,-0.8269595,0.2573467,-1.332753,3.798004,0.221293,-0.7997331,1.759986,-0.334426,295.3256,61.76795,162.6358
3,2.422223,-0.1593178,0.197121,-1.009273,-1.487284,-1.117495,-1.470349,-0.7783877,0.008981938,0,0,8.969697,0.951184,0.04564404,0.4999889,-0.5657002,4.190495,1.776438,0.5890006,-0.8257267,0.2540687,-1.332095,3.78843,0.2165017,-0.8005933,1.760643,-0.3289125,295.3813,61.88439,163.187
3,2.433334,-0.1356083,0.2117808,-0.93602,-1.490777,-1.12498,-1.468931,-0.7775264,0.07834974,0,0,8.969697,0.954556,-0.01601517,0.4665849,-0.5691596,4.184847,1.770563,0.6092568,-0.836162,0.24008,-1.332132,3.778286,0.2115418,-0.8013506,1.76107,-0.3237793,295.4464,62.1605,163.4244
3,2.444445,-0.04453469,0.2090396,-0.8502071,-1.496851,-1.14069,-1.469542,-0.7768313,0.06273526,0,0,8.969697,0.9809774,-0.1926852,0.3875414,-0.5802549,4.176859,1.754665,0.6073275,-0.9051877,0.1589151,-1.335326,3.756171,0.2035739,-0.8020981,1.761375,-0.3189077,295.4455,62.50564,163.4813
3,2.455556,-0.007257495,0.2071717,-0.8578557,-1.500087,-1.150553,-1.46997,-0.7785549,-0.1581251,0,0,8.969697,0.9830444,-0.1279368,0.4272598,-0.5803949,4.165932,1.752712,0.636623,-0.9868665,0.1212003,-1.338084,3.74211,0.1986729,-0.8024657,1.761401,-0.3139139,295.1702,62.82034,163.4563
3,2.466667,0.02590024,0.1893144,-0.8621466,-1.502518,-1.160019,-1.470729,-0.7790343,-0.0426155,0,0,8.727273,0.9796742,-0.0909,0.4786403,-0.5814607,4.153251,1.752634,0.6657766,-1.0218,0.1347907,-1.338638,3.729088,0.1933354,-0.8021283,1.760926,-0.3079681,294.8414,63.47377,162.9843
3,2.477778,0.06246811,0.1469516,-0.8694522,-1.503651,-1.169869,-1.471949,-0.7790577,-0.002250681,0,0,8.727273,0.9834661,-0.06345415,0.5106955,-0.5827401,4.141506,1.751429,0.6753158,-0.9973896,0.1784772,-1.337193,3.718182,0.1883068,-0.8019844,1.760692,-0.3017997,294.9794,63.56525,163.5438
3,2.488889,0.07454921,0.09147298,-0.8914205,-1.503849,-1.180514,-1.472435,-0.7789592,0.008705879,0,0,8.727273,1.016792,-0.00932771,0.4978311,-0.5819817,4.131801,1.747241,0.6742232,-0.986791,0.1923666,-1.336577,3.707046,0.1834955,-0.8021324,1.760628,-0.295756,295.3367,63.42161,164.5962
3,2.5,0.08131468,0.0316475,-0.9186503,-1.50353,-1.191615,-1.472655,-0.7790444,-0.008139519,-0.2155741,0,8.727273,1.051666,0.006570041,0.4591523,-0.5820845,4.125339,1.739515,0.6945015,-0.9887873,0.1996729,-1.336408,3.695431,0.1779117,-0.8025067,1.760493,-0.290018,295.6692,63.44561,165.4603
3,2.511111,0.08909454,-0.01317728,-0.9353648,-1.503174,-1.202644,-1.47323,-0.7780233,0.09313147,-0.2166137,0,8.848485,1.098507,-0.06388229,0.4134819,-0.5856078,4.121227,1.729078,0.7179851,-0.9991956,0.1899313,-1.336639,3.683579,0.1719028,-0.8030582,1.760086,-0.2846328,295.8634,63.83382,165.8071
3,2.522222,0.09356126,-0.05601048,-0.9659215,-1.502212,-1.214563,-1.473598,-0.7774071,0.05535951,-0.2199015,0,8.848485,1.130141,-0.1399615,0.4382431,-0.5909778,4.112682,1.72253,0.7210662,-0.9938391,0.1814449,-1.336707,3.672119,0.1665088,-0.8036798,1.759299,-0.2795134,295.8216,64.53495,165.7012
3,2.533333,0.08936444,-0.0753839,-0.9849113,-1.501839,-1.226396,-1.47363,-0.7775062,-0.009610184,-0.2228417,0,8.848485,1.151775,-0.1488599,0.4720144,-0.5937433,4.102093,1.717657,0.673667,-0.9621583,0.1349133,-1.338522,3.662554,0.162827,-0.8042825,1.758184,-0.2744902,295.5665,65.41511,165.3137
3,2.544444,0.1044914,-0.1321803,-1.039913,-1.49989,-1.24004,-1.47438,-0.7772116,0.02696621,-0.2245552,0,8.848485,1.16331,-0.1205009,0.5285062,-0.5952948,4.088537,1.715672,0.6682754,-0.9516157,0.145602,-1.338218,3.651899,0.1581276,-0.8048263,1.756879,-0.2694354,295.2245,66.32542,164.8935
3,2.555555,0.1203163,-0.1492494,-1.076107,-1.500491,-1.253305,-1.474618,-0.776696,0.04677232,-0.2255331,0,8.848485,1.16793,-0.107847,0.5498327,-0.5968826,4.076947,1.71221,0.6524618,-0.9762688,0.1413026,-1.33872,3.639865,0.1542231,-0.8052805,1.755523,-0.2642256,294.8744,67.3175,164.4187
3,2.566666,0.142471,-0.1558669,-1.126243,-1.499834,-1.267599,-1.475938,-0.7773789,-0.06284466,-0.2259213,0,9.818182,1.143953,-0.05335367,0.5568025,-0.5965103,4.065346,1.710106,0.6258714,-0.9998389,0.1083405,-1.340453,3.627918,0.1509517,-0.80572,1.754346,-0.258794,294.5789,68.32799,163.9611
3,2.577777,0.150686,-0.1509093,-1.17748,-1.49984,-1.28247,-1.476899,-0.7767929,0.05393554,-0.2264587,0,9.818182,1.133933,-0.01721978,0.5848241,-0.5966887,4.052224,1.708588,0.62795,-1.028442,0.06029546,-1.343149,3.615917,0.1469258,-0.8062332,1.753386,-0.2527887,294.353,70.0864,162.2416
3,2.588888,0.1611847,-0.1586143,-1.217955,-1.499205,-1.297714,-1.477991,-0.7777399,-0.08697338,-0.2268929,0,9.818182,1.127531,-0.04497075,0.6039188,-0.5991015,4.039476,1.706644,0.6332576,-1.041116,0.03788765,-1.345233,3.60367,0.1423846,-0.8071002,1.752801,-0.2453121,294.1624,71.6614,160.3466
3,2.599999,0.1780864,-0.1728358,-1.275454,-1.497977,-1.314301,-1.479567,-0.777356,0.03563668,-0.2272795,0,9.818182,1.137676,-0.08652949,0.5886377,-0.6023862,4.029701,1.701407,0.5990194,-1.036013,0.01344381,-1.347371,3.591966,0.1392692,-0.8083594,1.75259,-0.2367847,294.257,72.10299,160.9105
3,2.61111,0.1831285,-0.1786765,-1.338296,-1.49721,-1.331538,-1.480467,-0.7772899,0.005595734,-0.2276452,0,9.818182,1.14833,-0.1470699,0.539169,-0.6066723,4.023254,1.693508,0.5184013,-0.9685136,-0.002917543,-1.349183,3.583398,0.1381235,-0.8098914,1.752626,-0.2277394,294.4367,72.28682,162.4627
3,2.622221,0.17095,-0.1633048,-1.39802,-1.497505,-1.349154,-1.480683,-0.7777038,-0.03808105,0,0,9.818182,1.153357,-0.1491166,0.5135077,-0.6088242,4.01553,1.686812,0.4508376,-0.9243686,-0.009820059,-1.350583,3.574398,0.1372188,-0.8113349,1.752549,-0.2185626,294.6143,72.67445,163.8893
3,2.633332,0.1683133,-0.1349641,-1.44726,-1.498645,-1.366806,-1.481232,-0.7769623,0.06797466,0,0,9.818182,1.153096,-0.1175106,0.5616575,-0.6102878,4.00172,1.685252,0.4241932,-0.917268,0.01382885,-1.350962,3.563696,0.1355823,-0.8126869,1.752311,-0.2096568,294.7513,73.36044,164.8537
3,2.644443,0.190367,-0.1298671,-1.497493,-1.499008,-1.385175,-1.482729,-0.7761096,0.07732623,0,0,9.818182,1.144967,-0.06253517,0.6494243,-0.6104754,3.983954,1.687357,0.402025,-0.9207698,0.04802458,-1.350721,3.552932,0.1342036,-0.8139215,1.751865,-0.2011562,294.7753,74.30318,165.1873
3,2.655554,0.2136531,-0.1310585,-1.533836,-1.498878,-1.403617,-1.484632,-0.7762992,-0.01785813,0,0,9.818182,1.146861,-0.01164925,0.6859164,-0.6101195,3.968613,1.687277,0.3564541,-0.9425832,0.06845474,-1.350865,3.541039,0.1342827,-0.8150864,1.751295,-0.1928839,294.6514,75.40477,164.905
3,2.666665,0.2325523,-0.1259267,-1.576595,-1.499227,-1.422742,-1.486518,-0.7772568,-0.08733812,0,0,7.757576,1.148684,-0.03397632,0.6751145,-0.6119838,3.956401,1.684403,0.3095585,-0.9567538,0.0398862,-1.352924,3.529826,0.1348164,-0.8161933,1.750681,-0.1845957,294.4738,76.51399,164.4712
3,2.677776,0.2407969,-0.1058414,-1.600252,-1.500223,-1.441375,-1.488144,-0.7776265,-0.0333099,0,0,7.757576,1.155915,-0.0575614,0.6727565,-0.6146054,3.944697,1.680857,0.2827441,-0.9474084,0.03259636,-1.354262,3.519228,0.1347016,-0.817192,1.749939,-0.1761608,294.3827,77.63643,164.2185
3,2.688887,0.2594126,-0.06340849,-1.641201,-1.502587,-1.461052,-1.490418,-0.7774997,0.01165553,0,0,7.757576,1.18133,-0.08016181,0.6755317,-0.617047,3.931965,1.677243,0.2609995,-0.8996448,0.02859545,-1.355227,3.510523,0.1343448,-0.8180547,1.748985,-0.1676016,294.3486,78.77087,164.1371
3,2.699998,0.2643635,-0.04552829,-1.669081,-1.503799,-1.480367,-1.491908,-0.7770044,0.04510349,0,0,7.757576,1.195233,-0.06749642,0.6689893,-0.6180334,3.920052,1.673199,0.2393598,-0.8615206,0.03628543,-1.3557,3.501852,0.1341674,-0.8189412,1.747908,-0.1588696,294.2921,79.88205,164.0526
3,2.711109,0.2873361,-0.02336586,-1.7184,-1.505942,-1.501298,-1.49455,-0.7774848,-0.044335,0,0,7.757576,1.205154,-0.01007009,0.6553307,-0.6171039,3.908188,1.668864,0.1965716,-0.8236347,0.06645285,-1.355054,3.493523,0.1351922,-0.819878,1.746759,-0.1499538,294.1727,80.83812,164.1231
3,2.72222,0.3102428,-0.00564158,-1.787921,-1.508073,-1.523298,-1.497313,-0.7765666,0.084366,0,0,8.242424,1.187037,0.005062938,0.6439081,-0.6171993,3.896445,1.665891,0.1593602,-0.8039048,0.1220954,-1.353152,3.484446,0.1366015,-0.8208008,1.745468,-0.1408251,294.0774,81.45258,164.7981
3,2.733331,0.3281201,0.002746582,-1.823251,-1.509835,-1.544809,-1.500266,-0.777537,-0.08979108,0,0,8.242424,1.169306,0.02424192,0.6633868,-0.6172819,3.882622,1.664729,0.1414046,-0.8073331,0.1466818,-1.351953,3.474751,0.1377342,-0.8213426,1.743797,-0.1318618,293.9337,82.1097,165.7297
3,2.744442,0.3651081,0.0004425049,-1.882024,-1.511361,-1.567946,-1.504197,-0.7776494,-0.00942602,0,0,8.242424,1.187171,0.04293585,0.7208225,-0.6171535,3.865052,1.665123,0.1105935,-0.826782,0.1425153,-1.352119,3.464145,0.1397595,-0.8220618,1.742156,-0.1227751,293.8001,83.51079,165.2281
3,2.755553,0.3863403,-0.0092237,-1.912957,-1.51233,4.69268,-1.507836,-0.7775658,0.007474495,0,0,8.242424,1.203552,0.05865252,0.7441709,-0.6168951,3.849149,1.663856,0.09771828,-0.8289841,0.128726,-1.352561,3.454434,0.1411864,-0.8230397,1.740587,-0.1131543,293.6372,84.98035,164.4022
3,2.766664,0.3863403,-0.0092237,-1.912957,-1.51233,4.69268,-1.507836,-0.7783706,-0.07385311,0,0,8.242424,1.203552,0.05865252,0.7441709,-0.6168951,3.849149,1.663856,0.09771828,-0.8289841,0.128726,-1.352561,3.454434,0.1411864,-0.8241618,1.739046,-0.1027716,293.4118,86.2682,163.9759
3,2.777775,0.4454271,-0.003206968,-2.017732,-1.5151,4.644928,-1.516874,-0.7730443,0.487513,0,0,6.181818,1.226016,0.04398596,0.6692188,-0.6170651,3.827257,1.653917,0.05334726,-0.77705,0.09179996,-1.354056,3.438016,0.1449356,-0.8254089,1.737524,-0.09189825,293.2247,86.36053,165.5657
3,2.788886,0.4454271,-0.003206968,-2.017732,-1.5151,4.644928,-1.516874,-0.7830546,-0.9192898,0,0,6.181818,1.226016,0.04398596,0.6692188,-0.6170651,3.827257,1.653917,0.05334726,-0.77705,0.09179996,-1.354056,3.438016,0.1449356,-0.8266762,1.736279,-0.08214879,292.8112,85.68094,168.4112
3,2.799997,0.4820316,-0.00703001,-2.132953,-1.517303,4.595282,-1.525405,-0.7732669,0.9031646,0,0,6.181818,1.265991,0.1246662,0.6585643,-0.6138549,3.803591,1.644539,0.01531109,-0.6868533,0.1040152,-1.35317,3.424858,0.1486542,-0.8269528,1.733996,-0.07160073,292.8218,88.92997,165.826
3,2.811108,0.5193661,-0.01849723,-2.142649,-1.517729,4.571354,-1.530958,-0.7834508,-0.9396808,0,0,6.181818,1.312641,0.2179952,0.6639096,-0.6088194,3.789674,1.639948,-0.001450866,-0.7200232,0.1050655,-1.353374,3.41561,0.1512332,-0.8274828,1.73209,-0.06124717,292.4394,89.50174,166.3078
3,2.822219,0.5545714,-0.006232738,-2.114178,-1.518814,4.549026,-1.537029,-0.7780697,0.5007024,0,0,7.030303,1.35911,0.3140818,0.5595389,-0.6021551,3.783705,1.628352,-0.01319958,-0.7917912,0.1932836,-1.350368,3.403391,0.1544562,-0.8273424,1.729287,-0.04903467,292.5887,93.34737,162.7184
3,2.83333,0.6216801,0.05267859,-2.020217,-1.521799,4.53008,-1.545008,-0.7782226,-0.02004867,0,0,7.030303,1.309666,0.279907,0.4523,-0.6007548,3.781121,1.617634,0.003566295,-0.8282019,0.2953762,-1.345491,3.391913,0.1565204,-0.8267432,1.725862,-0.03528195,292.3918,94.65251,162.9681
3,2.844441,0.6737211,0.1565444,-1.885011,-1.527102,4.513899,-1.553551,-0.7784617,-0.02135476,0,0,7.030303,1.198596,0.1611743,0.3303471,-0.6027777,3.782211,1.607183,0.02396426,-0.8450863,0.2984151,-1.343593,3.381379,0.157992,-0.8263589,1.722399,-0.02086016,291.9734,94.57346,165.5733
3,2.855552,0.7131534,0.2065613,-1.805745,-1.531117,4.496476,-1.561966,-0.7798348,-0.1254396,0,0,7.030303,1.112271,0.08755875,0.28933,-0.6041716,3.778672,1.600566,0.02716392,-0.8546028,0.2856063,-1.342619,3.371191,0.1599444,-0.8260688,1.718868,-0.006743765,291.4035,94.07223,168.8997
3,2.866663,0.7474095,0.2600552,-1.693445,-1.536026,4.480862,-1.571191,-0.7799163,-0.006485872,0,0,9.939394,1.060309,0.0921526,0.3070018,-0.6031932,3.771703,1.596027,0.01538376,-0.8483034,0.2835532,-1.341066,3.361204,0.1624278,-0.8256279,1.715102,0.006208707,290.8605,93.1637,172.3861
3,2.877774,0.7420729,0.2708935,-1.671151,-1.539346,4.462609,-1.57857,-0.7793006,0.05605457,0,0,9.939394,1.053327,0.1187288,0.3285615,-0.6007079,3.763368,1.59094,0.01723453,-0.8279922,0.2655168,-1.340042,3.352008,0.1643173,-0.8251506,1.711097,0.01739146,290.4352,92.10127,175.502
3,2.888885,0.6985162,0.3194243,-1.580642,-1.544053,4.449014,-1.584815,-0.779438,-0.01374837,0,0,9.939394,1.08699,0.2154804,0.3138411,-0.5948223,3.757011,1.58302,0.06779432,-0.7954228,0.2057008,-1.341059,3.344187,0.1635453,-0.8250428,1.707064,0.02676721,290.031,91.94154,176.9082
3,2.899997,0.6687205,0.3548577,-1.524292,-1.549161,4.433531,-1.591222,-0.7772979,0.195696,0,0,9.939394,1.085651,0.2193816,0.1945497,-0.5922151,3.76077,1.567692,0.09301894,-0.7695889,0.1897671,-1.340491,3.335791,0.1636869,-0.8255987,1.703191,0.03473984,289.623,92.35433,177.0245
3,2.911108,0.6647368,0.4016588,-1.398945,-1.555004,4.42218,-1.598313,-0.775521,0.1603555,0,0,9.939394,1.015584,0.2155934,0.03446087,-0.5898913,3.77047,1.55078,0.09171724,-0.692075,0.2699071,-1.335754,3.32962,0.1642047,-0.8261419,1.699085,0.04159743,289.1109,92.8745,176.948
3,2.922219,0.703608,0.4427869,-1.23543,-1.561091,4.413376,-1.607653,-0.7755077,0.0003446949,0,0,10.66667,0.8789039,0.2067559,-0.07803001,-0.5880084,3.778796,1.538845,0.1031908,-0.6176165,0.3436009,-1.329883,3.32407,0.1642118,-0.8264122,1.694763,0.04731986,288.5303,92.77979,177.6301
3,2.93333,0.7166667,0.4551905,-1.165289,-1.566184,4.402544,-1.616157,-0.7760776,-0.05204237,0,0,10.66667,0.8115002,0.2042621,-0.1007068,-0.5858709,3.782506,1.529086,0.1432739,-0.508921,0.442798,-1.32171,3.320808,0.1620297,-0.8265821,1.690552,0.05236126,287.9278,92.75404,177.97
3,2.944441,0.7190687,0.4664711,-1.096129,4.711853,4.392183,-1.624376,-0.7782364,-0.1967851,0,0,10.66667,0.7274867,0.193136,-0.07956775,-0.584043,3.782274,1.523731,0.169611,-0.414192,0.5398899,-1.312897,3.317592,0.1600722,-0.8265948,1.686567,0.05684162,287.4062,92.05342,179.018
3,2.955552,0.7023205,0.4743395,-1.02899,4.70673,4.382396,-1.631772,-0.7774231,0.07589321,0,0,10.66667,0.6694934,0.2157864,-0.04360333,-0.5807928,3.781279,1.518605,0.1791114,-0.3663571,0.6007079,-1.304843,3.313377,0.1589566,-0.8264418,1.682681,0.06078612,287.1221,91.19504,180.28
3,2.966663,0.7023205,0.4743395,-1.02899,4.70673,4.382396,-1.631772,-0.7767695,0.05858903,0,0,10.66667,0.6694934,0.2157864,-0.04360333,-0.5807928,3.781279,1.518605,0.1791114,-0.3663571,0.6007079,-1.304843,3.313377,0.1589566,-0.8263885,1.678931,0.06445736,286.876,90.83543,180.9712
3,2.977774,0.6524467,0.487183,-0.9733945,4.701392,4.37331,-1.637549,-0.7686197,0.7448468,0,0,10.18182,0.6424572,0.2445588,-0.006892294,-0.5770569,3.779488,1.513836,0.1747358,-0.3610246,0.5868971,-1.299424,3.308449,0.1584541,-0.8266761,1.675487,0.06801806,286.5406,90.14387,182.0942
3,2.988885,0.5855339,0.4977745,-0.9145421,4.69594,4.36455,-1.641925,-0.7754982,-0.6349801,0,0,10.18182,0.640275,0.2847233,0.05197006,-0.5722643,3.775512,1.510037,0.1712081,-0.3810108,0.4920505,-1.298463,3.302892,0.1582765,-0.8274781,1.672973,0.07090383,285.7929,88.49481,184.4815
3,2.999996,0.5234331,0.4908309,-0.7873608,4.686196,4.349816,-1.652195,-0.7750118,0.0508435,0,0,10.18182,0.6050317,0.2775851,0.05019245,-0.5660059,3.774167,1.498557,0.1547807,-0.4317865,0.325801,-1.297943,3.290997,0.1584778,-0.828085,1.670874,0.07325419,285.5249,88.47408,184.7651
3,3.011107,0.5234331,0.4908309,-0.7873608,4.686196,4.349816,-1.652195,-0.7775046,-0.2288497,0,0,10.18182,0.6050317,0.2775851,0.05019245,-0.5660059,3.774167,1.498557,0.1547807,-0.4317865,0.325801,-1.297943,3.290997,0.1584778,-0.8284069,1.668937,0.07570121,285.5861,88.95436,184.0161
3,3.022218,0.4962488,0.4676226,-0.7294983,4.682297,4.343369,-1.65697,-0.769636,0.7216107,0,0,10.18182,0.5876668,0.2586398,0.03643453,-0.5637747,3.774606,1.492193,0.1430237,-0.4297395,0.3216057,-1.295364,3.285566,0.15873,-0.8284862,1.666839,0.07909681,285.9015,88.95066,183.7265
3,3.033329,0.4709674,0.4494829,-0.7057787,4.678591,4.33581,-1.661656,-0.774966,-0.4934418,0,0,11.63636,0.5690563,0.21199,0.02669988,-0.5627004,3.775436,1.485829,0.1260749,-0.4119111,0.3707624,-1.289941,3.280462,0.1593199,-0.8285328,1.664993,0.08273301,285.6556,87.05605,186.3383
3,3.04444,0.38594,0.4404398,-0.6796794,4.674609,4.328785,-1.6629,-0.7746821,0.03108192,0,0,11.63636,0.5371792,0.1865503,0.05254123,-0.5612793,3.772635,1.483069,0.1142817,-0.3865207,0.3975305,-1.285178,3.276011,0.1597122,-0.8284829,1.663253,0.0862388,285.5422,86.15226,188.2121
3,3.055551,0.2384105,0.4902626,-0.6899363,4.667747,4.320021,-1.660778,-0.7745868,0.008147263,0,0,11.63636,0.4908545,0.1887886,0.09890494,-0.5589597,3.767967,1.483167,0.103341,-0.3451054,0.4105071,-1.280536,3.272623,0.1599401,-0.8284179,1.661579,0.08955839,285.4769,85.47626,189.5992
3,3.066662,0.1821223,0.4620364,-0.6979196,4.664257,4.311624,-1.661563,-0.7714059,0.2909158,0,0,11.63636,0.4740088,0.2321384,0.1771192,-0.5543913,3.760588,1.484675,0.09887749,-0.3291211,0.3967344,-1.277239,3.268659,0.1600669,-0.8283857,1.659956,0.09277868,285.4198,84.96542,190.5448
3,3.077773,0.1397967,0.4135969,-0.7175319,4.657842,4.294639,-1.664462,-0.7681451,0.29605,0,0,13.81818,0.4472825,0.2056648,0.1889966,-0.5499795,3.752339,1.482445,0.07654319,-0.365367,0.3434795,-1.272656,3.258239,0.1619697,-0.8286003,1.658741,0.09604533,285.199,83.92783,191.9274
3,3.088884,0.09007123,0.3866975,-0.6968035,4.655174,4.287328,-1.664266,-0.772567,-0.4059817,0,0,13.81818,0.4158495,0.1762512,0.1636067,-0.5489765,3.750837,1.480211,0.04688662,-0.4144788,0.2976759,-1.272032,3.251425,0.1644763,-0.8293144,1.658552,0.09975594,284.8589,82.83011,193.2726
3,3.099995,0.09007123,0.3866975,-0.6968035,4.655174,4.287328,-1.664266,-0.772999,-0.03572912,0,0,13.81818,0.4158495,0.1762512,0.1636067,-0.5489765,3.750837,1.480211,0.04688662,-0.4144788,0.2976759,-1.272032,3.251425,0.1644763,-0.8298928,1.659028,0.1042893,284.8034,83.31847,192.9833
3,3.111106,-0.009630062,0.3692716,-0.6406878,4.648345,4.274292,-1.662015,-0.7725122,0.04468736,0,0,13.81818,0.3906652,0.1462992,0.2180424,-0.5459427,3.739115,1.482134,0.04914705,-0.4421069,0.2794782,-1.267956,3.23956,0.1668399,-0.829532,1.659545,0.1089964,285.0399,83.0159,194.0375
3,3.122217,-0.009630062,0.3692716,-0.6406878,4.648345,4.274292,-1.662015,-0.7714432,0.09763867,0,0,13.81818,0.3906652,0.1462992,0.2180424,-0.5459427,3.739115,1.482134,0.04914705,-0.4421069,0.2794782,-1.267956,3.23956,0.1668399,-0.8285108,1.660029,0.1129616,285.4656,82.19063,196.1331
3,3.133328,-0.06092817,0.2947253,-0.5875776,4.644423,4.262474,-1.660124,-0.7732674,-0.1672603,0,0,22.18182,0.3403551,0.1698221,0.2741559,-0.5408108,3.725477,1.4878,0.04190011,-0.4550126,0.2997202,-1.262636,3.227546,0.169678,-0.8275253,1.660858,0.1166146,285.7621,82.12373,197.0497
3,3.144439,-0.06573761,0.2491144,-0.5626655,4.643335,4.257111,-1.659648,-0.7702981,0.2733335,0,0,22.18182,0.3326353,0.1486251,0.2666556,-0.5395985,3.720232,1.488851,0.04297988,-0.4444096,0.3178562,-1.25921,3.22203,0.1708415,-0.8264807,1.661808,0.1194601,286.1287,82.07718,197.8087
3,3.15555,-0.09459195,0.1607672,-0.5223777,4.644846,4.252962,-1.658006,-0.7729788,-0.2472193,0,0,22.18182,0.3235615,0.1297391,0.2314761,-0.5385998,3.71789,1.487345,0.04070421,-0.4188919,0.3318178,-1.255606,3.217219,0.1719824,-0.8262146,1.663517,0.1222223,286.2819,82.25777,197.9386
3,3.166661,-0.1397066,0.1214468,-0.4589664,4.64511,4.250099,-1.655004,-0.7740691,-0.09720821,0,0,22.18182,0.3192126,0.1383821,0.21773,-0.5366014,3.71436,1.48694,0.03717443,-0.3879793,0.315946,-1.253199,3.213243,0.1729321,-0.8261034,1.665477,0.1246484,286.5247,83.11015,197.3511
3,3.177772,-0.1397066,0.1214468,-0.4589664,4.64511,4.250099,-1.655004,-0.7733772,0.06411955,0,0,22.18182,0.3192126,0.1383821,0.21773,-0.5366014,3.71436,1.48694,0.03717443,-0.3879793,0.315946,-1.253199,3.213243,0.1729321,-0.826013,1.667356,0.1265895,286.8973,84.0948,196.6877
3,3.188883,-0.1470979,0.04749188,-0.3709933,4.646379,4.244417,-1.652026,-0.7754507,-0.1900771,-0.07665911,0,17.69697,0.2869354,0.1864049,0.2482259,-0.5305608,3.702847,1.491416,0.04667401,-0.3899522,0.2935426,-1.248869,3.203302,0.1748096,-0.8258439,1.668873,0.1277844,287.2354,84.92842,196.2093
3,3.199994,-0.1427299,0.04336452,-0.3592639,4.646264,4.240747,-1.650924,-0.7710314,0.4059259,-0.07665336,0,17.69697,0.2524278,0.2098934,0.2881904,-0.5272127,3.694393,1.497105,0.04657414,-0.3835777,0.2892807,-1.246556,3.198385,0.1759662,-0.825675,1.669903,0.1281037,287.5598,85.39338,195.9971
3,3.211105,-0.1201278,0.02016279,-0.3538845,4.647145,4.237111,-1.650617,-0.7742102,-0.2940203,-0.07628293,0,17.69697,0.2375807,0.2046315,0.2979171,-0.5248808,3.687516,1.500951,0.04742634,-0.3590617,0.2872185,-1.244068,3.194607,0.1766182,-0.8263966,1.671253,0.1282109,287.4336,85.84204,195.544
3,3.222216,-0.09643243,-0.008379996,-0.3527321,4.648465,4.233281,-1.650652,-0.7751839,-0.0859211,-0.07581643,0,16.9697,0.2104701,0.1933404,0.2640671,-0.5231668,3.684514,1.501968,0.05150459,-0.3303001,0.2990078,-1.240866,3.191056,0.1771191,-0.8272607,1.672608,0.1280734,287.2783,86.63223,194.5051
3,3.233327,-0.08577473,-0.006125391,-0.3485473,4.648768,4.229623,-1.650328,-0.7761538,-0.08807743,-0.07505328,0,16.9697,0.1844234,0.1873922,0.2270409,-0.5212557,3.68237,1.502672,0.0545733,-0.3111179,0.3054414,-1.237859,3.187531,0.1775817,-0.8280895,1.673899,0.1279295,287.2234,87.37786,193.4502
3,3.244438,-0.08711223,0.03015065,-0.3413611,4.647299,4.226,-1.649499,-0.7765863,-0.03891709,-0.07484553,0,16.9697,0.1862496,0.1843246,0.202505,-0.5192738,3.679519,1.50291,0.05764881,-0.3067885,0.2905346,-1.235695,3.183494,0.1782291,-0.8288472,1.675023,0.1279886,287.2816,88.28872,192.3363
3,3.255549,-0.07652764,0.04416442,-0.3330021,4.646585,4.222556,-1.649292,-0.7762321,0.03258794,-0.07455482,0,16.9697,0.1818427,0.187649,0.1887261,-0.5169222,3.676257,1.504008,0.05764065,-0.3184436,0.269194,-1.23421,3.179013,0.1790608,-0.8294681,1.675875,0.1283611,287.3457,89.13356,191.4264
3,3.26666,-0.02807079,0.002178907,-0.30525,4.648214,4.220219,-1.650741,-0.7756611,0.05189505,-0.07431787,0,16.9697,0.1773216,0.1771241,0.1737974,-0.515164,3.673586,1.504481,0.04146408,-0.3142455,0.2459059,-1.232561,3.174614,0.1809549,-0.8300027,1.676499,0.1291709,287.364,89.48119,191.1118
3,3.277771,0.03420916,-0.05375472,-0.3062325,4.651019,4.216863,-1.653545,-0.7762385,-0.05314457,-0.07428776,0,16.48485,0.1739164,0.1483726,0.1768508,-0.5143379,3.669405,1.5063,0.035898,-0.2982742,0.2322029,-1.230245,3.170722,0.1823269,-0.8304546,1.677045,0.1304788,287.2849,89.22145,191.5108
3,3.288882,0.08366808,-0.1119872,-0.3145827,4.654521,4.213355,-1.65635,-0.7779706,-0.1579688,-0.07431409,0,16.48485,0.1548221,0.1506295,0.1824104,-0.5124401,3.665049,1.508958,0.0346278,-0.2854401,0.2109386,-1.229136,3.16752,0.1830542,-0.8308223,1.677574,0.1321705,287.2051,89.00246,192.0859
3,3.299993,0.1019467,-0.1320978,-0.3177255,4.656927,4.209878,-1.658297,-0.7792244,-0.1135349,-0.07456377,0,16.48485,0.1305461,0.1678313,0.1902492,-0.5097663,3.660549,1.512317,0.01950461,-0.2705671,0.1908435,-1.227779,3.16467,0.1843062,-0.831083,1.677914,0.1339028,287.228,89.28185,192.3658
3,3.311104,0.08987474,-0.1014289,-0.3338735,4.657411,4.205567,-1.659169,-0.7789981,0.02131307,-0.07501752,0,16.48485,0.1106603,0.1999105,0.1981326,-0.5062349,3.655801,1.515981,0.01816911,-0.2428426,0.1792238,-1.226271,3.162333,0.1848481,-0.83136,1.677904,0.1355054,287.2996,90.04323,192.1358
3,3.322215,0.05549491,-0.04391831,-0.2968394,4.655989,4.203331,-1.658537,-0.7777735,0.1114636,-0.07529338,0,16.48485,0.1106844,0.1881231,0.2087157,-0.5044847,3.650471,1.519277,0.01262788,-0.2215581,0.1707854,-1.224972,3.160084,0.1856431,-0.8318022,1.677454,0.1369314,287.3246,90.80028,191.7708
3,3.333326,0.0353337,-0.03320469,-0.265914,4.656315,4.201389,-1.658416,-0.7763098,0.1327322,-0.0759508,0,16.12121,0.1224318,0.1773126,0.2181061,-0.50284,3.644598,1.52249,0.00615567,-0.209884,0.1708547,-1.223321,3.157609,0.1865262,-0.8325293,1.676652,0.1382388,287.1967,91.1027,191.6896
3,3.344437,0.0353337,-0.03320469,-0.265914,4.656315,4.201389,-1.658416,-0.7747332,0.1431297,-0.0759508,0,16.12121,0.1224318,0.1773126,0.2181061,-0.50284,3.644598,1.52249,0.00615567,-0.209884,0.1708547,-1.223321,3.157609,0.1865262,-0.8334731,1.675675,0.1395537,286.8818,90.78048,192.0675
3,3.355548,0.08475976,-0.0828639,-0.2679363,4.660058,4.195561,-1.662036,-0.7754113,-0.06296004,-0.07708479,0,16.12121,0.109792,0.1281724,0.08158323,-0.5015084,3.648796,1.516653,-0.006973207,-0.1906981,0.1315548,-1.22208,3.15338,0.1884874,-0.8343379,1.674734,0.1407504,286.4243,89.6104,193.3171
3,3.366659,0.09672504,-0.1115246,-0.2677829,4.662565,4.192795,-1.663701,-0.7765112,-0.09985469,-0.07844097,0,16.12121,0.1042517,0.1465225,0.04979814,-0.4993214,3.64998,1.514617,-0.01049946,-0.167212,0.1028709,-1.222114,3.152175,0.1891284,-0.8350688,1.673998,0.1416314,286.0804,88.94518,194.2239
3,3.37777,0.09672504,-0.1115246,-0.2677829,4.662565,4.192795,-1.663701,-0.7777384,-0.1114488,-0.07844097,0,16.12121,0.1042517,0.1465225,0.04979814,-0.4993214,3.64998,1.514617,-0.01049946,-0.167212,0.1028709,-1.222114,3.152175,0.1891284,-0.8361918,1.673731,0.1425782,285.9167,89.79498,193.5325
3,3.388881,0.09032874,-0.1104986,-0.2656249,4.663906,4.18997,-1.664398,-0.7756308,0.1935132,-0.07967856,0,8.484849,0.1030099,0.1509079,0.0317209,-0.4973017,3.650388,1.513136,-0.0138692,-0.1533598,0.09013625,-1.221785,3.15066,0.1898512,-0.8370268,1.673447,0.1433509,285.8546,90.51778,192.7869
3,3.399992,0.09055099,-0.1101893,-0.2251454,4.665238,4.188969,-1.665474,-0.7768393,-0.1123676,-0.08137107,0,8.484849,0.1124485,0.1316475,0.03255986,-0.496475,3.649731,1.512136,-0.02796532,-0.1331879,0.0732132,-1.221705,3.149808,0.1909074,-0.8374377,1.673101,0.1438211,285.8135,90.37054,192.9514
3,3.411103,0.1056012,-0.1055579,-0.1943652,4.666275,4.187956,-1.667301,-0.7759998,0.07787705,-0.08218946,0,8.484849,0.1241419,0.09945814,0.05353152,-0.4964335,3.646971,1.512768,-0.0280287,-0.1246652,0.07216728,-1.22115,3.148387,0.191554,-0.8378652,1.672812,0.1442431,285.843,91.06918,192.3251
3,3.422215,0.1228093,-0.1148852,-0.1794736,4.668037,4.186612,-1.669323,-0.7763211,-0.0301368,0,0,8.484849,0.106064,0.1006561,0.05587635,-0.4952366,3.645741,1.513308,-0.0281053,-0.1171999,0.06899157,-1.220695,3.147111,0.1922904,-0.8383373,1.672588,0.1447497,285.8258,91.71387,191.7017
3,3.433326,0.1261346,-0.1222338,-0.168786,4.669885,4.185068,-1.670998,-0.7770667,-0.06787675,0,0,8.484849,0.07290298,0.1149147,0.03396979,-0.4935088,3.646608,1.512816,-0.02923174,-0.1065702,0.07435192,-1.219871,3.146009,0.1930102,-0.8388522,1.672359,0.1452938,285.8566,91.99809,191.4926
3,3.444437,0.1164454,-0.09982051,-0.1529209,4.670248,4.18384,-1.672036,-0.7772148,-0.01306339,0,0,10.06061,0.05774973,0.1066082,0.01917623,-0.4926225,3.647288,1.511983,-0.02187375,-0.09266671,0.07755028,-1.218995,3.145193,0.1932824,-0.83944,1.672015,0.1458031,285.9167,92.21617,191.4069
3,3.455548,0.1010645,-0.03052975,-0.1299274,4.668341,4.183016,-1.672677,-0.7767386,0.04349839,0,0,10.06061,0.04671304,0.09727202,-0.007389154,-0.4919359,3.649467,1.50993,-0.01795029,-0.05957211,0.06376975,-1.218672,3.145659,0.1931918,-0.8401938,1.671482,0.1462869,285.941,92.64644,191.0966
3,3.466659,0.08247914,0.03332904,-0.1164604,4.666119,4.181861,-1.673003,-0.7759786,0.06906553,0,0,10.06061,0.04112756,0.1102868,-0.03920742,-0.4904142,3.652685,1.506779,-0.01194352,-0.02749634,0.03825563,-1.219021,3.146496,0.1928235,-0.8411245,1.670742,0.1467742,285.8643,92.96568,190.8329
3,3.47777,0.08855238,0.07929379,-0.1029936,4.663826,4.180907,-1.674219,-0.775512,0.04211309,0,0,10.06061,0.02381932,0.1137794,-0.06455785,-0.4891162,3.656211,1.503959,-0.01219383,-0.005089494,0.02446675,-1.219094,3.147284,0.192697,-0.8421905,1.669894,0.147292,285.6819,92.63663,191.1782
3,3.488881,0.1000762,0.09744786,-0.1106515,4.662526,4.179244,-1.675875,-0.7751913,0.02903554,0,0,9.090909,0.0182289,0.103264,-0.07947525,-0.4883806,3.659004,1.501537,-0.005835775,0.009830154,0.04257701,-1.218009,3.147617,0.1924802,-0.8432788,1.669049,0.1477995,285.4726,91.6696,192.1918
3,3.499992,0.1106275,0.1243478,-0.08747589,4.660297,4.178802,-1.677462,-0.776117,-0.08482695,0,0,9.090909,0.01998294,0.07134712,-0.08927737,-0.4887689,3.661797,1.498827,-0.003676847,0.01407497,0.05536127,-1.216935,3.14772,0.192411,-0.8442529,1.668291,0.1482302,285.2593,90.65235,193.2829
3,3.511103,0.08452993,0.2096194,-0.05175796,4.653508,4.177838,-1.678662,-0.7766278,-0.04592574,-0.08330935,0,9.090909,-0.02014482,0.001424029,-0.09990296,-0.4909037,3.666657,1.496011,0.001833268,0.00978429,0.08193846,-1.214594,3.147197,0.1921982,-0.8451549,1.667735,0.1486315,285.1179,90.00098,194.002
3,3.522214,0.08452993,0.2096194,-0.05175796,4.653508,4.177838,-1.678662,-0.7772425,-0.05595968,-0.08330935,0,9.090909,-0.02014482,0.001424029,-0.09990296,-0.4909037,3.666657,1.496011,0.001833268,0.00978429,0.08193846,-1.214594,3.147197,0.1921982,-0.8460256,1.667403,0.1490531,285.083,89.50918,194.5844
3,3.533325,0.06562243,0.2249033,0.01961188,4.647875,4.179927,-1.67953,-0.7750209,0.203567,-0.08659622,0,13.21212,-0.04638167,0.03995457,-0.09297895,-0.4891087,3.670971,1.494021,0.007988438,0.008899126,0.03290094,-1.215276,3.147478,0.1917622,-0.8468181,1.667209,0.1494541,285.1892,88.6982,195.4874
3,3.544436,0.04091107,0.2513528,0.02274118,4.644231,4.179741,-1.679162,-0.7757623,-0.06958421,-0.08850263,0,13.21212,-0.05027813,0.0676135,-0.08104832,-0.487269,3.672062,1.493679,0.01315239,0.01433136,0.008390627,-1.215975,3.148029,0.1911929,-0.8473734,1.667081,0.1496712,285.1909,87.89986,196.3741
3,3.555547,0.0163568,0.2683164,0.03979152,4.640543,4.180433,-1.678366,-0.7754688,0.02764722,-0.09307343,0,13.21212,-0.05710685,0.1122805,-0.05832826,-0.4842356,3.671924,1.494706,0.01845444,0.02181491,0.01476835,-1.215492,3.148477,0.1905691,-0.8481928,1.667328,0.1497854,285.3994,86.55508,197.9115
3,3.566658,-0.05209542,0.3244761,0.0781005,4.634632,4.182211,-1.675107,-0.7746193,0.07738932,-0.09426717,1,13.21212,-0.05283476,0.1047459,-0.05202758,-0.4834703,3.672704,1.4944,0.01642312,0.03659786,0.05849484,-1.213145,3.149007,0.190281,-0.8490536,1.667683,0.1496348,285.5804,86.08356,198.4289
3,3.577769,-0.09785053,0.3414079,0.114445,4.629833,4.184322,-1.672133,-0.7155488,5.316216,-0.09656543,1,13.21212,-0.02900944,0.01181987,-0.04433824,-0.4868844,3.672738,1.493759,0.02071936,0.04085752,0.07233333,-1.211722,3.149387,0.189767,-0.8510845,1.665516,0.1498893,287.6123,89.91111,194.4058
3,3.58888,-0.07407285,0.3011217,0.1135553,4.62803,4.185351,-1.672272,-0.6553757,5.418605,-0.09904535,1,12.9697,-0.008994593,-0.03423581,-0.03099264,-0.4890517,3.671978,1.493744,0.01749182,0.04084627,0.0659529,-1.211288,3.149733,0.1895667,-0.8554315,1.65841,0.1510927,289.2116,90.30375,193.6482
3,3.599991,0.0160953,0.191815,0.06701317,4.630388,4.184381,-1.67627,-0.6043133,4.593506,-0.1017096,1,12.9697,0.005830975,-0.05464362,-0.02383125,-0.4902001,3.67197,1.493211,0.01317759,0.03023111,0.03824889,-1.212094,3.14975,0.1895758,-0.8621094,1.645819,0.1531134,288.4964,86.34364,197.4177
3,3.611102,0.07510725,0.09803599,-0.003975654,4.633319,4.181808,-1.679771,-0.5632921,3.687801,-0.103,1,12.9697,-0.01696599,-0.001290323,-0.006205671,-0.4881505,3.671021,1.495079,0.006616428,0.03132758,0.006325383,-1.213241,3.150395,0.1895382,-0.8702297,1.628536,0.1553634,285.4818,77.02151,206.7818
3,3.622213,0.05539223,0.1607195,-0.004339003,4.628875,4.181282,-1.679399,-0.529161,3.068623,-0.1064838,1,12.9697,-0.06204139,0.0725237,0.005403694,-0.4844732,3.670534,1.498035,-0.004091116,0.03869516,0.007463812,-1.213009,3.151104,0.1897686,-0.8785208,1.6081,0.1572515,281.7584,58.77803,225.1178
3,3.633324,0.02427434,0.214039,0.03804073,4.624231,4.182899,-1.6783,-0.4958263,3.003568,-0.1074117,1,12.72727,-0.08626743,0.09825985,0.01116049,-0.4823395,3.670084,1.500356,-0.003154304,0.06423715,0.02135794,-1.212013,3.152866,0.1890256,-0.8858159,1.586579,0.1585334,279.7139,29.04868,254.7735
3,3.644435,-0.002772927,0.2789862,0.06326386,4.618433,4.184073,-1.677083,-0.4629453,2.964239,-0.1090166,1,12.72727,-0.07468512,0.08110894,0.01199618,-0.4824162,3.669602,1.501091,-0.005615167,0.1057622,0.02254285,-1.211164,3.155856,0.1881393,-0.8914864,1.565807,0.1594056,280.8107,358.5659,285.0177
3,3.655546,0.01642554,0.2640918,0.04409635,4.616042,4.183571,-1.678033,-0.4371744,2.317731,-0.1103668,1,12.72727,-0.02204531,0.03392033,-0.009127207,-0.4839438,3.671251,1.497803,-0.005673215,0.1142788,0.02469572,-1.210472,3.157476,0.1876165,-0.8954648,1.547645,0.1600611,284.2028,341.076,302.4519
3,3.666657,0.01968726,0.2394178,0.01763138,4.614535,4.182499,-1.678478,-0.4158888,1.915481,-0.1115966,1,12.72727,0.004778173,-0.0140003,-0.05127709,-0.4862,3.676015,1.492475,-0.001271978,0.1036333,0.03529904,-1.209571,3.158043,0.1872567,-0.8980786,1.533452,0.1604001,287.634,333.3977,310.492
3,3.677768,0.026477,0.2033765,0.03384069,4.613745,4.183205,-1.679055,-0.3998044,1.444591,-0.1126836,1,12.72727,0.001752928,-0.04026195,-0.1110613,-0.4881169,3.683595,1.485834,0.004068531,0.1079127,0.04487078,-1.208474,3.159308,0.1865693,-0.8996999,1.523814,0.1603778,289.9423,330.1355,314.1981
3,3.688879,0.02780467,0.1854228,0.05314592,4.612309,4.184371,-1.679405,-0.3838584,1.437271,-0.1131673,1,14.30303,-0.01065218,-0.005045742,-0.1032531,-0.4867263,3.685446,1.484852,0.01465843,0.1101532,0.03520989,-1.208665,3.160639,0.1854777,-0.9005489,1.51858,0.1600975,290.6385,329.1115,315.3909
3,3.69999,0.0110832,0.1544663,0.0641236,4.611596,4.185502,-1.678709,-0.3750844,0.788905,-0.1143999,1,14.30303,-0.01772223,0.01620705,-0.08387122,-0.48562,3.685823,1.485104,0.02212456,0.09217702,0.007423894,-1.20955,3.161245,0.184695,-0.9008653,1.517213,0.1597969,290.2832,329.6852,314.6931
3,3.711101,0.02525903,0.1183908,0.06751531,4.611566,4.186423,-1.679443,-0.3677644,0.6592239,-0.1147595,1,14.30303,-0.01793563,-0.01684722,-0.07873871,-0.4871454,3.687023,1.484266,0.01573094,0.0783347,-0.01495086,-1.210483,3.161811,0.1845539,-0.9010294,1.518806,0.1595939,289.1843,332.1053,312.1505
3,3.722212,0.03693729,0.1292153,0.07695848,4.609555,4.187387,-1.680201,-0.3606479,0.6418429,-0.1154029,1,14.30303,-0.02836036,-0.01901237,-0.05732627,-0.4874256,3.68675,1.485151,0.007137517,0.0718959,-0.03618284,-1.210796,3.161935,0.1851227,-0.9011108,1.522192,0.1593113,287.7976,336.0487,308.1827
3,3.733323,0.04100527,0.1602634,0.09268174,4.606339,4.188649,-1.680508,-0.3567885,0.3446631,-0.1159256,1,14.30303,-0.04516872,-0.01257581,-0.04111629,-0.4873372,3.686427,1.486569,0.01875957,0.08583112,-0.03301106,-1.210786,3.163553,0.1839134,-0.9012661,1.526297,0.1588565,286.4456,340.4993,303.7203
3,3.744434,0.03450283,0.1773029,0.1011158,4.603558,4.189807,-1.68035,-0.3525184,0.3851871,-0.1162571,1,24.24242,-0.05445524,0.005534321,-0.02811757,-0.4865851,3.686268,1.487581,0.02080808,0.1028456,-0.01908924,-1.209303,3.165055,0.1833491,-0.901533,1.530084,0.1581718,285.2303,345.1058,299.0099
3,3.755545,0.02283708,0.1826655,0.1192491,4.601036,4.191618,-1.679961,-0.3760085,-2.113474,-0.116444,1,24.24242,-0.07637212,0.03971724,-0.01274955,-0.4847097,3.685523,1.489966,0.01437323,0.1293436,0.01509673,-1.207296,3.167451,0.1825951,-0.9018378,1.534164,0.1573633,285.2001,346.1589,297.7379
3,3.766656,0.02734269,0.1507049,0.1141384,4.60053,4.192626,-1.680286,-0.3996276,-2.125354,-0.1165282,1,24.24242,-0.08155068,0.04289442,-0.002016172,-0.4840737,3.684838,1.491681,0.02297513,0.1283164,0.0278416,-1.20611,3.1687,0.1814739,-0.9018736,1.539433,0.156454,285.2297,346.1286,297.5827
3,3.777767,0.01783987,0.1421175,0.1163848,4.599164,4.193878,-1.679974,-0.4206538,-1.89243,-0.1167793,1,24.24242,-0.06864896,0.03523736,0.01377249,-0.4839251,3.683128,1.493446,0.03709621,0.09116024,0.02129308,-1.206198,3.168252,0.1806646,-0.9016597,1.546085,0.1555347,284.8212,347.8227,295.7494
3,3.788878,-0.0259995,0.1652493,0.1249557,4.596171,4.195122,-1.677744,-0.4395649,-1.702984,-0.1168595,1,28,-0.05320723,-0.007408973,-0.002641859,-0.4858261,3.684322,1.492262,0.03834072,0.05288043,-0.004371963,-1.207347,3.167509,0.1804478,-0.9013562,1.553953,0.1547223,284.0041,351.9773,291.4368
3,3.799989,-0.02908181,0.147045,0.1155294,4.595051,4.196011,-1.677518,-0.4652265,-2.308286,-0.117022,1,28,-0.04572866,0.008564554,-0.01222023,-0.4851182,3.685575,1.491503,0.03943624,0.03377273,-0.02892526,-1.20866,3.167394,0.1800108,-0.9007846,1.562911,0.1540012,283.1307,357.3397,285.8722
3,3.8111,-0.02532217,0.08426371,0.1213083,4.596436,4.197728,-1.677186,-0.4871561,-1.971344,-0.1171778,1,28,-0.0330244,0.006360665,-0.01770447,-0.4851502,3.686419,1.490628,0.03746746,0.02095929,-0.01934958,-1.208316,3.167321,0.1795847,-0.8996748,1.572721,0.1532964,282.3304,4.502928,278.4961
3,3.822211,-0.0390991,0.06378107,0.103428,4.596259,4.198256,-1.676171,-0.5096912,-2.032219,-0.1173224,1,28,-0.02589862,-0.02134417,-0.02647436,-0.4865537,3.687524,1.489712,0.03234275,0.01869996,0.01689181,-1.206653,3.167141,0.1794981,-0.8979483,1.583065,0.1526165,281.8219,13.1207,269.6976
3,3.833322,-0.04993131,0.07206049,0.0831816,4.595171,4.198236,-1.675222,-0.5277346,-1.622628,-0.1173966,1,28,-0.0224936,-0.02682982,-0.004172502,-0.4869702,3.685807,1.491344,0.02273603,0.03242802,0.03508357,-1.205397,3.167876,0.1793466,-0.8957953,1.59324,0.1519615,281.47,24.41358,258.3785
3,3.844433,-0.05069888,0.0347391,0.07920498,4.595975,4.199088,-1.674598,-0.5421722,-1.298133,-0.1175925,1,39.27273,-0.0371627,-0.0407469,0.02787136,-0.4877803,3.682327,1.495476,0.0195556,0.03876893,0.04576255,-1.204449,3.168501,0.1788771,-0.8935162,1.602471,0.1512793,281.5412,36.49032,246.3677
3,3.855544,-0.03079454,-0.06756032,0.05323442,4.600717,4.199139,-1.675074,-0.5868158,-4.018535,-0.1178099,1,39.27273,-0.0772182,-0.03635613,0.06244395,-0.4878607,3.677864,1.501869,0.01089252,0.04407165,0.02664375,-1.204746,3.169313,0.1788118,-0.8909805,1.611785,0.1506191,281.7466,40.156,242.6675
3,3.866655,-0.02959935,-0.09648929,0.03001136,4.602956,4.19883,-1.675047,-0.6297497,-3.864639,-0.1179081,1,39.27273,-0.07480685,-0.009774331,0.06790164,-0.4868402,3.676009,1.504261,-0.00310083,0.03129722,-0.02232254,-1.20698,3.169631,0.1792393,-0.8876745,1.62226,0.149917,281.7173,43.15588,239.679
3,3.877766,-0.03378347,-0.1222908,0.00359357,4.605475,4.197991,-1.674581,-0.6677616,-3.422205,-0.1180919,1,39.27273,-0.04785821,0.04012377,0.05937119,-0.484348,3.675891,1.503702,-0.01457688,-0.001803201,-0.02767158,-1.207638,3.168471,0.1801842,-0.8835845,1.634104,0.1491222,281.9171,50.48374,232.5097
3,3.888877,-0.005553685,-0.200013,-0.02153967,4.610572,4.197467,-1.675753,-0.6990494,-2.814418,-0.1182733,1,48.84849,-0.04494429,0.02954619,0.0422291,-0.4844343,3.676218,1.503816,-0.02807932,-0.028605,-0.002096151,-1.206974,3.166868,0.1815757,-0.8786674,1.646666,0.1480234,282.847,61.99887,221.1913
3,3.899988,0.002125209,-0.2427511,-0.04682925,4.614855,4.196483,-1.67606,-0.7525081,-4.810853,-0.1183734,1,48.84849,-0.02378723,0.04014789,0.02074846,-0.4837115,3.677219,1.50239,-0.04395342,-0.02559192,0.02249294,-1.205888,3.166597,0.1826777,-0.8726682,1.660308,0.1465009,284.0763,69.65027,213.6022
3,3.911099,-0.009324376,-0.2683439,-0.03698876,4.618771,4.196839,-1.675508,-0.8039455,-4.632045,-0.1184671,1,48.84849,-0.004683065,0.0271888,0.02365094,-0.4838548,3.676555,1.502323,-0.0470633,-0.02671714,0.03742088,-1.204966,3.16601,0.1835187,-0.8653318,1.675222,0.1444118,285.686,77.23893,206.158
3,3.92221,-0.01346915,-0.2736167,-0.02520965,4.621756,4.197418,-1.675306,-0.8463765,-3.8164,-0.118641,1,48.84849,-0.00962718,0.03559142,0.05145119,-0.4830372,3.673255,1.505627,-0.04826381,-0.02135827,0.02039296,-1.205476,3.166106,0.184087,-0.8567604,1.690694,0.1415954,288.1787,85.1853,198.4472
3,3.933321,0.0058423,-0.2915873,-0.02837286,4.625645,4.197417,-1.676075,-0.8826445,-3.263591,-0.1187857,1,48.84849,0.001106815,0.03225118,0.06089818,-0.4827299,3.671086,1.507149,-0.05040095,-0.02880281,0.007603182,-1.205994,3.16558,0.1849123,-0.8474308,1.70574,0.1381169,291.5143,91.60255,192.1849
3,3.944432,0.03026761,-0.287175,-0.03598667,4.628633,4.197031,-1.677484,-0.9148358,-2.898241,-0.1188514,1,54.78788,0.004333612,0.0332799,0.06299151,-0.4822601,3.669879,1.508074,-0.0502125,-0.05540922,0.00220509,-1.206551,3.164159,0.1859182,-0.8381364,1.719499,0.1341927,295.1686,95.9533,187.887
3,3.955544,0.05298668,-0.2028159,-0.03673707,4.627679,4.19643,-1.678973,-0.9598342,-4.050873,-0.1189697,1,54.78788,-0.002021667,0.04936176,0.05463586,-0.4810628,3.669436,1.50872,-0.05863755,-0.06931222,8.488726E-05,-1.206885,3.163001,0.187322,-0.8292243,1.731934,0.1299207,297.9877,98.42543,185.3808
3,3.966655,0.06104027,-0.1311786,-0.01068394,4.626663,4.197061,-1.679798,-1.000408,-3.651911,-0.119029,1,54.78788,-0.005391613,0.07087273,0.02390347,-0.4796731,3.6715,1.507143,-0.0522695,-0.06075834,0.008593474,-1.206597,3.162521,0.1878602,-0.8206491,1.742872,0.1252858,300.35,100.6056,183.1262
3,3.977766,0.0735485,-0.08724786,0.008096699,4.626121,4.197742,-1.680906,-1.03494,-3.107434,-0.1191091,1,54.78788,-0.007760778,0.08171082,-0.004769258,-0.4785035,3.673838,1.505231,-0.04814475,-0.03199309,0.02461139,-1.205736,3.163154,0.1878746,-0.8126244,1.752175,0.1205959,302.5524,102.3745,181.1097
3,3.988877,0.08491869,-0.04020704,0.0172731,4.62476,4.198132,-1.682234,-1.063916,-2.606998,-0.1191388,1,88.36364,-0.01577482,0.0788545,-0.05157097,-0.4778899,3.678957,1.50114,-0.04820372,-0.006489435,0.05236748,-1.204101,3.163689,0.1882362,-0.8054006,1.759786,0.1162882,304.6061,103.4566,179.6707
3,3.999988,0.08917432,-0.0304969,0.0374094,4.62544,4.199203,-1.682914,-1.142838,-7.103723,-0.1191499,1,88.36364,-0.03846187,0.05245789,-0.05999226,-0.4784049,3.680686,1.500853,-0.03971163,0.004218228,0.06193311,-1.203081,3.163983,0.1882562,-0.7975999,1.767756,0.1118281,304.309,103.1762,179.7303
3,4.011099,0.08083292,-0.04863833,0.04291265,4.626516,4.200046,-1.683477,-1.221971,-7.122139,-0.1190988,1,88.36364,-0.04481337,0.05034544,-0.05460599,-0.4778563,3.681795,1.500728,-0.02806657,0.004342986,0.04802317,-1.203005,3.164021,0.1881371,-0.7870921,1.777486,0.106192,303.9658,103.6929,179.3865
3,4.02221,0.07236102,-0.05296,0.04512114,4.62734,4.200686,-1.683984,-1.300538,-7.070032,-0.1190167,1,88.36364,-0.0342162,0.04280974,-0.05476746,-0.4775831,3.682948,1.499512,-0.02395015,0.007628074,0.02563662,-1.203532,3.164371,0.1882064,-0.7726148,1.789397,0.09867173,305.1059,104.6569,178.8132
3,4.033321,0.05932748,-0.002759263,0.0778462,4.625283,4.202534,-1.683995,-1.378943,-7.056666,-0.1189894,1,88.36364,-0.03180377,0.05441562,-0.03874863,-0.4765663,3.682944,1.49971,-0.02617309,0.008712174,0.009671021,-1.203969,3.164613,0.1884999,-0.7533187,1.802469,0.08834568,308.2845,106.0597,177.8783
3,4.044433,0.06865748,0.03792346,0.09879041,4.623502,4.203986,-1.684597,-1.457273,-7.049637,-0.1189421,1,99.87879,-0.03137897,0.08521948,-0.02365616,-0.4745876,3.682674,1.500299,-0.03132086,-0.02219463,-0.004228729,-1.204892,3.163339,0.1893774,-0.7299895,1.816606,0.07561634,313.5855,107.9302,176.0758
3,4.055544,0.08034471,0.03687163,0.08487095,4.623088,4.20407,-1.686368,-1.535226,-7.015282,-0.1189005,1,99.87879,-0.03770931,0.08630159,-0.01825465,-0.4736688,3.683046,1.500674,-0.03632306,-0.04679304,0.02024468,-1.20411,3.161709,0.1905556,-0.703571,1.830155,0.06105077,320.1728,109.5642,174.1273
3,4.066655,0.0940519,0.04110071,0.06452738,4.62253,4.203982,-1.68794,-1.61369,-7.062808,-0.1188773,1,99.87879,-0.06094456,0.08852956,-0.001997001,-0.4725774,3.682079,1.502993,-0.04263211,-0.04900051,0.033054,-1.203434,3.16095,0.1915622,-0.6753168,1.841424,0.04548683,327.1144,110.6588,172.6216
3,4.077766,0.07917479,0.03133377,0.05935116,4.622574,4.204556,-1.687994,-1.693188,-7.155878,-0.1187498,1,99.87879,-0.06504634,0.09490193,0.007674456,-0.4712261,3.681345,1.504585,-0.04276219,-0.02771193,0.04055948,-1.20265,3.161257,0.1919551,-0.6463841,1.849291,0.0295168,333.9229,111.5397,171.5182
3,4.088878,0.06354567,-0.01896691,0.04594943,4.624474,4.204835,-1.688142,-1.772547,-7.141341,-0.118679,1,99.87879,-0.04823744,0.08846528,-0.008535117,-0.4705198,3.682836,1.503235,-0.03548635,2.753548E-05,0.04804033,-1.201684,3.162164,0.191758,-0.6179779,1.853749,0.01386625,340.4604,112.356,170.5569
3,4.099989,0.0566728,-0.08614108,0.04433004,4.627436,4.205447,-1.688955,-1.840857,-6.145982,-0.1186486,1,99.87879,-0.03064705,0.07676546,-0.0418459,-0.4697624,3.685756,1.500754,-0.03253569,0.02351595,0.03635278,-1.201619,3.163274,0.1915977,-0.59122,1.854892,-0.0008840398,346.6396,112.9682,169.8907
3,4.1111,0.0566728,-0.08614108,0.04433004,4.627436,4.205447,-1.688955,-1.900953,-5.409686,-0.1186486,1,99.87879,-0.03064705,0.07676546,-0.0418459,-0.4697624,3.685756,1.500754,-0.03253569,0.02351595,0.03635278,-1.201619,3.163274,0.1915977,-0.5672091,1.853558,-0.01423564,352.2758,113.3643,169.4872
3,4.122211,0.06978509,-0.1588639,-0.009549037,4.633167,4.204416,-1.690905,-1.952544,-4.642952,-0.1185365,1,99.87879,0.02286316,0.0505731,-0.005297861,-0.4699105,3.684829,1.499331,-0.03797592,0.01078396,-0.004130349,-1.202695,3.163699,0.1923796,-0.5468605,1.850551,-0.02580456,357.2726,113.6365,169.1154
3,4.133323,0.07073569,-0.1525491,-0.02131881,4.634709,4.203956,-1.69176,-1.998377,-4.127148,-0.1184957,1,99.87879,0.02197266,0.05263069,0.008574442,-0.4692176,3.683664,1.500154,-0.04419024,-0.008451003,0.0001193373,-1.202672,3.162872,0.1933319,-0.5313802,1.846838,-0.03486151,0.9280391,114.9617,168.7334
3,4.144434,0.07073569,-0.1525491,-0.02131881,4.634709,4.203956,-1.69176,-2.036386,-3.419449,-0.1184957,1,99.87879,0.02197266,0.05263069,0.008574442,-0.4692176,3.683664,1.500154,-0.04419024,-0.008451003,0.0001193373,-1.202672,3.162872,0.1933319,-0.5248978,1.844696,-0.03565407,1.729461,119.2375,170.6828
3,4.155545,0.06823132,-0.1207683,-0.04287311,4.636454,4.202131,-1.693431,-2.067704,-2.816926,-0.1183987,1,99.87879,-0.01022261,0.1305738,0.0253768,-0.4638353,3.68194,1.502856,-0.04610312,-0.0149353,0.03314143,-1.201176,3.161893,0.1948992,-0.5218386,1.842404,-0.03547414,0.2736329,116.9636,171.2134
3,4.166656,0.06523209,-0.1388419,-0.03420316,4.638618,4.202305,-1.694026,-2.097056,-2.644598,-0.1183764,1,99.87879,-0.001978889,0.1188807,0.009233586,-0.462949,3.683119,1.501583,-0.02901132,0.001105368,0.06611159,-1.199176,3.162138,0.1945234,-0.5197851,1.841258,-0.03611321,358.7681,114.3421,171.3184
3,4.177768,0.06542007,-0.1655304,-0.04147926,4.641536,4.201811,-1.694854,-2.120644,-2.12106,-0.118331,1,99.87879,0.03270148,0.08781523,-0.01051484,-0.4632047,3.684747,1.498463,-0.01510477,0.006505141,0.08522475,-1.197589,3.162151,0.1942193,-0.5193055,1.840365,-0.03629153,357.5851,114.5544,171.304
3,4.188879,0.06896303,-0.1995059,-0.02953181,4.644827,4.202288,-1.695696,-2.140925,-1.825343,-0.1183007,1,74.18182,0.04392075,0.0302089,-0.01311231,-0.4648159,3.68503,1.497328,-0.01083256,0.002287345,0.0809315,-1.196904,3.16187,0.1943183,-0.5188734,1.839754,-0.03653082,356.4938,114.651,171.314
3,4.19999,0.07551255,-0.2207699,-0.02837148,4.648286,4.202089,-1.696376,-2.086818,4.869166,-0.1182873,1,74.18182,0.05017424,0.007764114,-0.009050054,-0.4653922,3.684571,1.49709,0.00194877,-0.01141565,0.05952323,-1.197135,3.1612,0.1941183,-0.5196792,1.841117,-0.03641012,358.0058,113.5513,171.5283
3,4.211102,0.06267796,-0.2134047,-0.02622789,4.650458,4.202133,-1.696622,-2.031042,5.019801,-0.1182711,1,74.18182,0.04828947,0.03760834,-0.008852701,-0.4639599,3.684982,1.496233,-0.001302571,-0.01869086,0.02761202,-1.197952,3.16614,0.1908533,-0.5246362,1.841878,-0.03557659,1.277105,113.255,170.2883
3,4.222213,0.05807241,-0.169727,-0.02013583,4.650869,4.202,-1.696855,-1.981675,4.443399,-0.1182706,1,74.18182,0.0210611,0.09322401,-0.00715363,-0.4607785,3.685689,1.496346,-0.01406175,-0.03476892,0.01057409,-1.200052,3.16559,0.1917287,-0.5347412,1.844031,-0.03313188,2.065016,113.2012,169.2315
3,4.233324,0.06397511,-0.1132189,-0.02058252,4.650362,4.20158,-1.697585,-1.938904,3.849773,-0.1182931,1,74.18182,0.001255669,0.147723,-0.007672891,-0.4573915,3.686441,1.496352,-0.02683488,-0.04241562,0.03181023,-1.199859,3.164977,0.1930496,-0.5497987,1.846488,-0.02864416,359.7587,113.2384,168.342
3,4.244435,0.0872236,-0.07989377,-0.007094244,4.649981,4.201949,-1.699566,-1.902523,3.274104,-0.1183018,1,89.69698,-0.006158665,0.1573901,-0.0107291,-0.4553808,3.687302,1.49586,-0.03619206,-0.03401688,0.082054,-1.197103,3.165607,0.1952558,-0.5683075,1.848586,-0.02223616,355.1095,113.3423,167.579
3,4.255547,0.1266523,-0.0935737,-0.02851422,4.651824,4.201101,-1.702441,-1.915303,-1.150963,-0.1183213,1,89.69698,-0.002095565,0.1296531,-0.008807667,-0.4548669,3.687405,1.495501,-0.03287723,-0.01381928,0.122561,-1.195311,3.167306,0.1927647,-0.586198,1.84988,-0.01550406,347.6165,113.4063,167.2226
3,4.266658,0.1181193,-0.0936605,-0.03060013,4.652919,4.20083,-1.703512,-1.932774,-1.573885,-0.1183315,1,89.69698,0.001831919,0.1009069,-0.01754467,-0.4547289,3.688534,1.494337,-0.0286364,-0.004221352,0.1332128,-1.193425,3.16722,0.1929878,-0.5987906,1.850474,-0.01045534,340.9677,113.6897,167.1595
3,4.277769,0.1010766,-0.08734445,-0.02096998,4.653656,4.200997,-1.703965,-1.948169,-1.38581,-0.1183563,1,89.69698,0.002573878,0.07325322,-0.02623556,-0.4548849,3.689784,1.49315,-0.02567242,0.01290356,0.1140702,-1.192964,3.16896,0.1919849,-0.604481,1.850921,-0.007914632,337.0483,113.9949,167.3642
3,4.28888,0.08429089,-0.1162251,-0.01747719,4.655875,4.201243,-1.704315,-1.958903,-0.9629756,-0.1183466,0,67.0303,0.01763345,0.08803237,-0.02418857,-0.4534245,3.690458,1.491866,-0.01627639,0.01841838,0.07788368,-1.191636,3.169638,0.1906448,-0.6036984,1.850908,-0.008027707,336.251,114.2584,167.7167
3,4.299992,0.08446185,-0.137547,-0.02051323,4.658082,4.201289,-1.705441,-1.905396,4.815302,-0.1183482,0,67.0303,0.02688687,0.06672393,-0.03826565,-0.4534303,3.692339,1.489592,-0.007716354,-0.004898272,0.04901236,-1.192462,3.168939,0.1908229,-0.6000867,1.850538,-0.009031625,340.6043,114.5506,167.7201
3,4.311103,0.1144402,-0.1586408,-0.02584145,4.66068,4.201179,-1.707804,-1.851892,4.814987,-0.1183804,0,67.0303,0.02479725,0.0613712,-0.03081576,-0.4529318,3.692649,1.489114,-0.009707462,-0.02939286,0.03831583,-1.192599,3.167694,0.1914669,-0.5979322,1.849376,-0.008815102,345.9503,113.9243,167.6587
3,4.322214,0.1314431,-0.1596369,-0.03657541,4.662448,4.200705,-1.710064,-1.805839,4.1436,-0.1184906,0,67.0303,0.02714927,0.06017304,-0.01060441,-0.4521984,3.691328,1.489952,-0.01482427,-0.05395117,0.04254464,-1.192329,3.166052,0.1925324,-0.600078,1.848874,-0.006294021,349.3054,113.215,167.8682
3,4.333325,0.1375499,-0.141661,-0.06230054,4.66356,4.199347,-1.711764,-1.766773,3.514767,0,0,67.0303,0.02412737,0.07830091,-0.008329732,-0.4506393,3.691622,1.489517,-0.01363879,-0.0539913,0.06810343,-1.190907,3.165708,0.193183,-0.6074061,1.848484,-0.001349632,349.6031,112.7876,168.26
3,4.344437,0.1482022,-0.1329495,-0.04856932,4.664721,4.199407,-1.713729,-1.732007,3.129973,0,0,79.75758,0.009419695,0.1018518,-0.006958812,-0.4487219,3.69208,1.489475,-0.009379674,-0.03590874,0.0958194,-1.188915,3.165521,0.1932187,-0.6195883,1.847486,0.005609157,347.0706,112.6238,168.7523
3,4.355548,0.1515962,-0.1531098,-0.04204157,4.666965,4.199652,-1.715399,-1.737174,-0.4642677,0,0,79.75758,0.01269158,0.0975085,0.002566468,-0.4478436,3.691478,1.489761,-0.003161624,-0.01349279,0.09689119,-1.188092,3.166115,0.1928419,-0.6337351,1.845795,0.0129904,341.205,112.4834,169.3484
3,4.366659,0.1529003,-0.1861772,-0.04926547,4.670179,4.199327,-1.717115,-1.747046,-0.8893408,0,0,79.75758,0.03075478,0.09631427,-0.0008414593,-0.4468497,3.691917,1.488431,-4.664063E-06,-0.01453063,0.08300553,-1.188774,3.165276,0.1913782,-0.6461059,1.84371,0.01897984,335.0064,112.5708,169.7234
3,4.37777,0.1585423,-0.2244864,-0.05008147,4.673898,4.199262,-1.719014,-1.755651,-0.7738212,0,0,79.75758,0.04854734,0.08456084,-0.02028871,-0.4464028,3.694087,1.485321,0.0009985901,-0.01981605,0.06380348,-1.189109,3.164741,0.1916275,-0.6545522,1.84224,0.02261646,330.4426,112.6638,169.8972
3,4.388882,0.1788968,-0.2360116,-0.04690663,4.676928,4.199308,-1.721651,-1.763325,-0.6908708,0,0,79.75758,0.05166258,0.09099525,-0.03200532,-0.445305,3.696031,1.482876,0.003187828,-0.03467705,0.05097666,-1.189188,3.164058,0.1915596,-0.6585716,1.841505,0.02365657,328.1339,112.846,169.8607
3,4.399993,0.2032655,-0.2241435,-0.05457039,4.678986,4.198863,-1.724763,-1.770133,-0.6130006,0,0,76.24242,0.05157385,0.1006715,-0.046864,-0.4439047,3.698603,1.480037,0.00430961,-0.0378859,0.05841678,-1.188489,3.163462,0.1919329,-0.6581854,1.841374,0.02211122,328.1186,113.0708,169.546
3,4.411104,0.2084406,-0.2113781,-0.06321237,4.681003,4.198204,-1.727215,-1.76666,0.311733,0,0,76.24242,0.05150134,0.1007091,-0.05325517,-0.4428805,3.700774,1.477519,0.005425021,-0.03471502,0.07333261,-1.187269,3.1629,0.1920496,-0.654587,1.841522,0.01867429,330.2517,113.3309,168.9419
3,4.422215,0.199618,-0.1784689,-0.06872272,4.682026,4.197515,-1.729146,-1.762213,0.4000084,0,0,76.24242,0.04084991,0.09758627,-0.0499575,-0.4419074,3.701839,1.476612,0.004307508,-0.02089433,0.08508614,-1.185844,3.163214,0.192085,-0.6494492,1.841571,0.01438237,333.4096,113.4569,168.2195
3,4.433327,0.1899836,-0.1678357,-0.06022341,4.683651,4.197452,-1.730946,-1.757107,0.4608551,0,0,76.24242,0.03023637,0.1126334,-0.05721599,-0.440188,3.704715,1.474018,0.002168305,-0.01029187,0.100035,-1.184226,3.163122,0.1921694,-0.6443485,1.841536,0.01026463,336.5997,113.5158,167.5249
3,4.444438,0.195425,-0.171946,-0.04530748,4.685707,4.197809,-1.733328,-1.752663,0.4002588,0,0,84.48485,0.03033368,0.1318391,-0.062431,-0.4381715,3.707241,1.471412,0.007417038,0.0003922656,0.1021671,-1.182982,3.163172,0.1919148,-0.6404787,1.841454,0.007090426,339.0836,113.5633,166.9607
3,4.455549,0.2007757,-0.1740356,-0.04531161,4.687893,4.197711,-1.735917,-1.772337,-1.770931,0,0,84.48485,0.03247543,0.1393072,-0.06667396,-0.4364111,3.709736,1.468695,0.0117436,-0.0006865282,0.1031776,-1.183423,3.162164,0.1895963,-0.6375241,1.841527,0.004771584,339.641,113.5495,166.6876
3,4.46666,0.2126052,-0.1813247,-0.03573139,4.69019,4.198053,-1.738731,-1.792959,-1.856879,0,0,84.48485,0.03039552,0.1425079,-0.0645007,-0.4347429,3.711696,1.466646,0.007460378,0.001412733,0.1021387,-1.182305,3.16202,0.1897055,-0.6347221,1.84156,0.002828958,339.4258,113.7046,166.6648
3,4.477772,0.2190622,-0.1790352,-0.02086223,4.692052,4.198685,-1.741452,-1.810772,-1.603076,0,0,84.48485,0.03679059,0.1306795,-0.05505633,-0.4337869,3.712628,1.465294,0.007407196,0.001433238,0.09360229,-1.18207,3.162349,0.1892615,-0.6317355,1.841592,0.0009329463,339.3317,113.8529,166.7672
3,4.488883,0.2203315,-0.201373,-0.01751051,4.695006,4.199104,-1.743956,-1.826097,-1.379341,0,0,84.48485,0.04638863,0.1231071,-0.0488176,-0.4327083,3.713667,1.463507,0.007381484,-0.01021689,0.06906702,-1.182506,3.162264,0.1890088,-0.6285105,1.841547,-0.001077627,339.6937,113.9443,166.8304
3,4.499994,0.2226374,-0.2226598,-0.01736311,4.698231,4.199506,-1.746464,-1.838943,-1.155883,0,0,61.45455,0.05369901,0.1135029,-0.05534866,-0.4317511,3.715992,1.460472,0.01063268,-0.0218966,0.0626268,-1.182184,3.16159,0.1891294,-0.6251915,1.84136,-0.003222903,340.4382,113.9555,166.7959
3,4.511106,0.2259876,-0.236427,-0.009822981,4.701286,4.200192,-1.749089,-1.785219,4.835399,0,0,61.45455,0.06619138,0.1017811,-0.07260548,-0.431218,3.71954,1.456067,0.01167883,-0.02186305,0.05730029,-1.181698,3.161549,0.1887803,-0.6247709,1.840689,-0.003832898,343.8093,113.9937,166.4654
3,4.522217,0.2336841,-0.2608096,-0.002218015,4.704811,4.201214,-1.751884,-1.730947,4.884325,0,0,61.45455,0.06701583,0.09441195,-0.08864646,-0.4305426,3.723732,1.451474,0.0116988,-0.02612649,0.05729289,-1.181109,3.160972,0.1889811,-0.6302217,1.839653,-0.001394786,346.3055,113.4824,166.2476
3,4.533328,0.2411078,-0.2618542,-0.008633945,4.707634,4.201454,-1.754642,-1.683436,4.275792,0,0,61.45455,0.06465895,0.09347682,-0.107802,-0.4297804,3.728512,1.446503,0.01278814,-0.03035464,0.05303136,-1.180502,3.160573,0.1886698,-0.6423733,1.837899,0.004415227,345.7593,113.047,166.2238
3,4.544439,0.2463566,-0.25653,-0.01509155,4.710268,4.201578,-1.75752,-1.642593,3.675626,0,0,59.0303,0.0685281,0.07439171,-0.1281991,-0.4298363,3.733583,1.441094,0.008416846,-0.0165442,0.05414748,-1.17988,3.160785,0.1888274,-0.6601577,1.834434,0.01303939,341.8568,112.891,166.4052
3,4.555551,0.2548769,-0.2629243,-0.02467557,-1.569746,4.201618,-1.760488,-1.600534,3.785439,0,0,59.0303,0.06428993,0.07975871,-0.1291832,-0.4289319,3.737076,1.437482,0.006108284,0.00792581,0.05420305,-1.179699,3.161511,0.1877574,-0.6816368,1.828658,0.02349976,335.8254,112.931,166.7266
3,4.566662,0.2440959,-0.2588838,-0.04276041,-1.566875,4.201028,-1.762818,-1.563686,3.316208,0,0,59.0303,0.04305489,0.09273423,-0.132062,-0.4276935,3.741271,1.433939,-0.001558743,0.03237499,0.05110205,-1.179054,3.162685,0.1875822,-0.7041143,1.820984,0.03447492,328.8784,112.9426,167.0876
3,4.577773,0.2323364,-0.2493288,-0.03424498,-1.564535,4.201453,-1.764872,-1.531944,2.856678,0,0,59.0303,0.01785706,0.1301924,-0.126231,-0.4252328,3.745112,1.431087,-0.0132975,0.03547419,0.05329705,-1.17847,3.163177,0.187821,-0.725109,1.812135,0.0447525,322.0849,112.9383,167.4549
