loc,t,aDotS,bDotS,gDotS,aS,bS,gS,qE,qDotE,tpad,enable,emg,aDotSH,bDotSH,gDotSH,aSH,bSH,gSH,aDotUB,bDotUB,gDotUB,aUB,bUB,gUB,xHand,yHand,zHand,aHand,bHand,gHand
2,0,-0.05363297,-0.7069402,0.4562673,-1.181465,-0.5258124,-2.8673,-1.074307,0.03705448,0,0,4.727273,-0.2214309,0.307377,-0.1844676,-0.5547599,-0.7457314,0.1150408,-0.1507378,0.1980282,-0.03389789,-0.776509,3.819573,0.09109555,-0.7048663,1.181944,-0.3054967,309.4051,191.7685,14.03976
2,0.01111111,-0.05821177,-0.6707977,0.4370215,-1.183984,-0.5178485,-2.869776,-1.074322,-0.001603579,0,0,4.727273,-0.2278448,0.3042262,-0.1844171,-0.5564489,-0.7390314,0.1121169,-0.1403194,0.1692757,-0.06166893,-0.7778865,3.821443,0.09109689,-0.7029274,1.18107,-0.3074212,309.5528,190.8213,14.45056
2,0.02222222,-0.07361984,-0.6038154,0.4124657,-1.186392,-0.5121275,-2.870605,-1.075072,-0.06855012,0,0,4.727273,-0.2341053,0.2667316,-0.1505369,-0.556672,-0.7355177,0.1119513,-0.1365124,0.134076,-0.1117431,-0.780703,3.822256,0.09191155,-0.7004449,1.179663,-0.3097064,309.7667,190.3255,14.17374
2,0.03333334,-0.09016001,-0.5379638,0.3825687,-1.18832,-0.5066339,-2.871176,-1.074946,0.01226475,0,0,4.727273,-0.2103735,0.1968138,-0.08425377,-0.555521,-0.7356626,0.1135543,-0.1387511,0.1234118,-0.1244952,-0.78236,3.824228,0.09210782,-0.6977256,1.177972,-0.3122241,310.1161,190.0743,13.45121
2,0.04444445,-0.09299497,-0.4731346,0.3386929,-1.189698,-0.5024836,-2.871653,-1.074161,0.07153049,0,0,5.575758,-0.1753931,0.1249705,-0.05646057,-0.5553053,-0.7375358,0.1159458,-0.1490606,0.1148971,-0.09454417,-0.7823888,3.825649,0.09312941,-0.6948845,1.176257,-0.3147124,310.4643,189.8968,12.65864
2,0.05555556,-0.08822234,-0.4359678,0.3001629,-1.19075,-0.4979419,-2.872613,-1.073998,0.01430126,0,0,5.575758,-0.1692859,0.09621887,-0.06315567,-0.5564377,-0.7365957,0.1169322,-0.1415302,0.1096007,-0.08929671,-0.7830839,3.827448,0.09314512,-0.6920093,1.174808,-0.3169023,310.7524,189.7441,11.94499
2,0.06666667,-0.07867867,-0.3893462,0.2178738,-1.189861,-0.4948137,-2.873024,-1.074507,-0.04649939,0,0,5.575758,-0.1650675,0.09728752,-0.06745837,-0.5572302,-0.7343603,0.1167168,-0.1352125,0.09255955,-0.09999935,-0.784466,3.828294,0.09385166,-0.6893405,1.173746,-0.3187827,310.9679,189.535,11.38581
2,0.07777778,-0.07868803,-0.3331492,0.1388482,-1.18838,-0.493071,-2.87289,-1.074972,-0.04200621,0,0,5.575758,-0.1711089,0.1142295,-0.04701901,-0.5569639,-0.7302217,0.1154981,-0.1279075,0.0755246,-0.1192316,-0.786465,3.829204,0.09418109,-0.6871539,1.173135,-0.3204224,311.1334,189.3167,10.95712
2,0.08888889,-0.1021723,-0.2567677,0.06320975,-1.186709,-0.4929511,-2.870956,-1.075011,-0.003172328,0,0,5.575758,-0.1780166,0.1032129,0.006245957,-0.5550678,-0.7290798,0.1167594,-0.1195394,0.06274202,-0.1363534,-0.7885545,3.829829,0.09477817,-0.6855989,1.172966,-0.321854,311.2034,189.02,10.75602
2,0.1,-0.1342918,-0.1729895,-0.02086925,-1.184142,-0.4944563,-2.867932,-1.074981,0.002659827,0,0,6.666667,-0.1671718,0.06554683,0.04524899,-0.5532871,-0.7303885,0.1194244,-0.1109844,0.03932556,-0.139625,-0.7903304,3.829688,0.09570415,-0.6847888,1.173212,-0.3229508,311.1769,188.6105,10.75399
2,0.1111111,-0.1606949,-0.1136011,-0.0751168,-1.181784,-0.495414,-2.864653,-1.07382,0.1062065,0,0,6.666667,-0.1416953,0.02475484,0.06167755,-0.5521724,-0.7327245,0.1221326,-0.09612946,0.002060771,-0.1535976,-0.7926058,3.82846,0.09717395,-0.6848031,1.173866,-0.3236687,311.1105,188.293,10.8694
2,0.1222222,-0.1893459,-0.03826026,-0.1378966,-1.178842,-0.4986497,-2.860334,-1.073333,0.04369896,0,0,6.666667,-0.06765687,-0.08138321,0.07914792,-0.5515364,-0.7412259,0.1277241,-0.07820883,-0.05439135,-0.1835561,-0.7958202,3.825467,0.09955721,-0.6856208,1.17493,-0.3240108,311.0327,188.1418,11.09844
2,0.1333333,-0.2073781,0.03497409,-0.2050546,-1.175488,-0.5025971,-2.856177,-1.073035,0.02710317,0,0,6.666667,-0.04016106,-0.1381711,0.09649104,-0.5504237,-0.7473879,0.1328246,-0.06448981,-0.0927185,-0.2039034,-0.7989952,3.823123,0.1015189,-0.6871452,1.176413,-0.3239976,310.9158,188.0323,11.53208
2,0.1444445,-0.213256,0.08277868,-0.2403036,-1.172506,-0.5064155,-2.852139,-1.073068,-0.002994102,0,0,6.666667,-0.008346185,-0.216433,0.1306639,-0.5485654,-0.7575734,0.1405475,-0.04114234,-0.1384919,-0.222214,-0.8024211,3.819211,0.1038787,-0.6891251,1.17827,-0.3236762,310.7522,187.9861,12.11781
2,0.1555556,-0.1969104,0.140203,-0.2854323,-1.168937,-0.5111325,-2.848576,-1.07374,-0.06125846,0,0,5.575758,0.00670597,-0.2508839,0.1632491,-0.5462186,-0.7653978,0.1468859,-0.03162719,-0.170429,-0.2361291,-0.8056914,3.81601,0.1060931,-0.6914624,1.18051,-0.3232327,310.6601,188.0238,12.67412
2,0.1666667,-0.1654284,0.1636216,-0.3210266,-1.165061,-0.5154271,-2.846168,-1.074064,-0.02892657,0,0,5.575758,0.01980585,-0.2822238,0.2086626,-0.5429956,-0.7745319,0.1540506,-0.01367775,-0.220485,-0.2618338,-0.8100015,3.810644,0.1092948,-0.6940536,1.183105,-0.3227967,310.5368,188.0269,13.29153
2,0.1777778,-0.1387804,0.2050025,-0.4003122,-1.158982,-0.5212344,-2.842913,-1.075024,-0.08756671,0,0,5.575758,0.01166967,-0.2899176,0.2459912,-0.5395777,-0.7824165,0.1609798,0.004147619,-0.2556309,-0.2960742,-0.814842,3.806012,0.111746,-0.6966709,1.18598,-0.3223809,310.2989,187.9845,13.98258
2,0.1888889,-0.1412598,0.2347505,-0.4227603,-1.154831,-0.5267578,-2.838921,-1.076128,-0.1002456,0,0,5.575758,-0.005225807,-0.2866856,0.2568687,-0.5368576,-0.7894323,0.1676556,0.02410448,-0.277991,-0.3271599,-0.8200102,3.801353,0.113971,-0.6991743,1.189016,-0.321959,309.9708,187.8207,14.71867
2,0.2,-0.1458573,0.2762067,-0.4420202,-1.150954,-0.5331979,-2.834743,-1.075918,0.01990765,0,0,6.30303,-0.01878661,-0.2653719,0.2689186,-0.5339063,-0.7946175,0.1728948,0.03129822,-0.2843863,-0.3517279,-0.8249514,3.797816,0.1159178,-0.7014399,1.192002,-0.3214081,309.5414,187.4309,15.55896
2,0.2111111,-0.1441867,0.3080932,-0.4709045,-1.146278,-0.5397226,-2.829922,-1.074966,0.08665556,0,0,6.30303,-0.0004120469,-0.2474816,0.2805625,-0.5308031,-0.7998325,0.1767804,0.0343594,-0.2961144,-0.3666625,-0.8299496,3.793571,0.1183027,-0.7035198,1.194773,-0.3205732,309.1755,186.9389,16.32784
2,0.2222222,-0.1421696,0.325127,-0.4763096,-1.14237,-0.5459342,-2.825839,-1.075042,-0.007573213,0,0,6.30303,0.02629298,-0.2616325,0.2950548,-0.527659,-0.8076904,0.1822942,0.05857202,-0.3450941,-0.4030886,-0.8360637,3.787292,0.1212196,-0.705615,1.197245,-0.3197274,309.0329,186.808,16.77339
2,0.2333333,-0.1412872,0.3336216,-0.4902001,-1.138048,-0.5522677,-2.821682,-1.074494,0.05019801,0,0,6.30303,0.04101187,-0.2819434,0.2904615,-0.5253735,-0.8163872,0.1888128,0.06794778,-0.3663943,-0.4266065,-0.8420399,3.78205,0.123768,-0.7077048,1.199538,-0.3188311,309.0289,186.8013,17.11574
2,0.2444444,-0.1406094,0.3409782,-0.5221928,-1.132776,-0.558899,-2.81734,-1.075087,-0.05463263,0,0,6.30303,0.06615558,-0.3257301,0.2802441,-0.5235919,-0.8277243,0.1970081,0.07942411,-0.3770479,-0.4512222,-0.8484101,3.776974,0.1258434,-0.709676,1.201786,-0.3176884,309.0533,186.7493,17.51008
2,0.2555556,-0.1398975,0.3483422,-0.5520552,-1.127446,-0.5657454,-2.813074,-1.075169,-0.006955036,0,0,6.181818,0.07565898,-0.3375151,0.2800403,-0.5213979,-0.8370683,0.2039457,0.09875488,-0.3727168,-0.4375932,-0.8531937,3.772716,0.1268173,-0.7116107,1.20404,-0.3164805,309.1134,186.7638,17.87451
2,0.2666667,-0.13478,0.3536285,-0.5681049,-1.122339,-0.5723144,-2.808752,-1.07512,0.004412121,0,0,6.181818,0.09374946,-0.3419191,0.2819221,-0.519081,-0.8458791,0.2101474,0.1267369,-0.4013928,-0.417622,-0.8578031,3.76633,0.1287292,-0.7135528,1.206371,-0.3152623,309.1815,186.7286,18.27534
2,0.2777778,-0.1243196,0.354667,-0.5852728,-1.11693,-0.5789846,-2.804935,-1.075292,-0.01574183,0,0,6.181818,0.1247593,-0.3614895,0.3037763,-0.5159672,-0.8569126,0.2173507,0.1502067,-0.4269106,-0.4199807,-0.863269,3.759782,0.1306363,-0.7155336,1.208818,-0.3140326,309.2196,186.5903,18.76775
2,0.2888889,-0.1011314,0.3600088,-0.6057829,-1.111541,-0.5861458,-2.801457,-1.075144,0.01365064,0,0,6.181818,0.160111,-0.3843218,0.336132,-0.5126905,-0.8669351,0.2236214,0.1736746,-0.4609507,-0.4244577,-0.8688957,3.752412,0.1326731,-0.7175617,1.211458,-0.312742,309.2241,186.4039,19.28647
2,0.3,-0.07776242,0.3696571,-0.6092771,-1.1065,-0.5934045,-2.798156,-1.075665,-0.04775566,0,0,7.030303,0.2230331,-0.4361873,0.3722726,-0.5089056,-0.8826467,0.2327193,0.1961323,-0.5003024,-0.4257249,-0.8745171,3.744628,0.1347445,-0.7196152,1.214283,-0.3113283,309.1389,186.2018,19.86352
2,0.3111111,-0.04810494,0.3963519,-0.6171558,-1.101669,-0.6015522,-2.794883,-1.07623,-0.05138399,0,0,7.030303,0.2464271,-0.455582,0.3803693,-0.5059047,-0.8956711,0.2407527,0.2109242,-0.522657,-0.4418403,-0.8808283,3.737086,0.1367102,-0.7216097,1.217265,-0.3097216,309.0074,185.9759,20.53361
2,0.3222222,-0.0377081,0.4240332,-0.6322796,-1.096489,-0.6104578,-2.790792,-1.076402,-0.01540577,0,0,7.030303,0.2691922,-0.4688507,0.4215482,-0.5013539,-0.9101907,0.2497017,0.2353894,-0.5492436,-0.4527202,-0.8871166,3.729105,0.1382031,-0.723541,1.220315,-0.3078802,308.8411,185.7303,21.23611
2,0.3333333,-0.02469653,0.492045,-0.686995,-1.089832,-0.6218225,-2.785625,-1.076697,-0.02693058,0,0,7.030303,0.3101785,-0.4662672,0.4626397,-0.4962481,-0.9240567,0.2570656,0.258149,-0.6045564,-0.4305289,-0.8922336,3.718888,0.1409387,-0.7254151,1.223345,-0.3058085,308.6813,185.5509,21.89658
2,0.3444445,-0.02228689,0.5589908,-0.7383947,-1.083256,-0.6344087,-2.779639,-1.07611,0.05371969,0,0,7.030303,0.3681106,-0.4733575,0.5013267,-0.4910022,-0.938369,0.2638402,0.2764066,-0.6290069,-0.4221758,-0.8977351,3.709561,0.1430389,-0.7273008,1.226267,-0.303536,308.551,185.4264,22.49779
2,0.3555556,-0.01424521,0.6004517,-0.7705821,-1.077127,-0.6466538,-2.77411,-1.075989,0.01045326,0,0,6.060606,0.4087436,-0.4887274,0.5241855,-0.4859976,-0.9540327,0.2720028,0.31065,-0.65768,-0.4139929,-0.9033315,3.7001,0.1444307,-0.7292039,1.229112,-0.3009553,308.4948,185.2899,23.06943
2,0.3666667,0.001980245,0.6556925,-0.8274221,-1.069911,-0.660611,-2.768006,-1.075679,0.02823966,0,0,6.060606,0.4514604,-0.5072944,0.5437807,-0.4812055,-0.9710625,0.2805283,0.3408376,-0.7044577,-0.3908286,-0.9082333,3.688864,0.1465306,-0.7311303,1.232016,-0.2977737,308.5193,185.1167,23.59367
2,0.3777778,0.01408428,0.709901,-0.8746036,-1.063094,-0.6752876,-2.761739,-1.075912,-0.02163362,0,0,6.060606,0.4930953,-0.5418776,0.5707271,-0.476251,-0.989971,0.2904923,0.3559023,-0.7459589,-0.3866762,-0.9136879,3.677685,0.14903,-0.7335411,1.235061,-0.2943175,308.6902,185.2222,23.9435
2,0.3888889,0.02006626,0.7396301,-0.9014374,-1.056098,-0.6894061,-2.755079,-1.076142,-0.02089312,0,0,6.060606,0.5334107,-0.6051723,0.5943523,-0.4705912,-1.012828,0.3037194,0.3945018,-0.8097774,-0.377433,-0.9191565,3.66445,0.1513751,-0.7365289,1.238371,-0.2907622,308.8959,185.4823,24.39957
2,0.4,0.02911258,0.7927248,-0.9369515,-1.048409,-0.7050037,-2.748154,-1.076294,-0.01380721,0,0,9.818182,0.5705466,-0.6577817,0.6126788,-0.466328,-1.036948,0.3176461,0.4029709,-0.836403,-0.388151,-0.925392,3.652923,0.1536511,-0.7398258,1.242117,-0.2868514,309.0278,185.6708,25.07799
2,0.4111111,0.03383791,0.839488,-0.978699,-1.041449,-0.7219782,-2.740337,-1.075601,0.06338186,0,0,9.818182,0.6270461,-0.7085129,0.6457086,-0.4615663,-1.063338,0.3323388,0.409433,-0.8470362,-0.3839475,-0.9309506,3.641648,0.1556807,-0.7433718,1.246316,-0.2826517,309.0244,185.8359,25.94997
2,0.4222222,0.04165214,0.8915479,-1.026899,-1.034149,-0.7401127,-2.731853,-1.075968,-0.03425731,0,0,9.818182,0.6347352,-0.7087246,0.665858,-0.4567119,-1.085696,0.3452227,0.425813,-0.8938441,-0.358514,-0.9359211,3.6283,0.1583928,-0.7469532,1.250882,-0.2781763,308.8958,185.8909,27.03976
2,0.4333333,0.03573459,0.9468021,-1.066418,-1.027212,-0.7591783,-2.722492,-1.075811,0.01465701,0,0,9.818182,0.6319104,-0.6950257,0.688379,-0.4513179,-1.107619,0.3580266,0.4292046,-0.9130032,-0.3446818,-0.9410818,3.615775,0.1609362,-0.750448,1.255737,-0.2733666,308.7041,185.8121,28.19704
2,0.4444444,0.02863657,1.01913,-1.108086,-1.020782,-0.7804724,-2.711514,-1.075717,0.008425234,0,0,9.818182,0.6278749,-0.6897959,0.7044488,-0.4461413,-1.130703,0.3719746,0.4424823,-0.9139883,-0.299013,-0.9444848,3.603687,0.1626994,-0.7539375,1.260753,-0.2683598,308.4704,185.8107,29.31127
2,0.4555556,0.02285308,1.065917,-1.130592,-1.014088,-0.8016828,-2.700016,-1.07534,0.0343827,0,0,7.030303,0.6332607,-0.6909409,0.7107768,-0.4415116,-1.154271,0.3861046,0.4609646,-0.9266872,-0.2693706,-0.9482057,3.591188,0.1642132,-0.7574503,1.265834,-0.2632481,308.2601,185.841,30.42405
2,0.4666667,0.01266968,1.139306,-1.163701,-1.008257,-0.8245701,-2.687789,-1.074908,0.03917895,0,0,7.030303,0.6481326,-0.7145717,0.7221454,-0.4370641,-1.180738,0.4024753,0.4942062,-0.9372436,-0.2516051,-0.9520295,3.57852,0.1648947,-0.7609747,1.270961,-0.258035,308.0829,185.9312,31.45988
2,0.4777778,0.001815557,1.187187,-1.173308,-1.002919,-0.8470988,-2.67575,-1.074435,0.04300679,0,0,7.030303,0.6808059,-0.7584528,0.7182205,-0.4338385,-1.209576,0.4199659,0.4931217,-0.9564279,-0.2569261,-0.9571604,3.565603,0.1670233,-0.7644317,1.276207,-0.2526699,307.933,186.1235,32.40937
2,0.4888889,-0.0178107,1.263763,-1.189312,-0.9983616,-0.8719211,-2.661342,-1.074698,-0.02451617,0,0,7.030303,0.7147004,-0.7874614,0.7186602,-0.4306225,-1.238664,0.437233,0.4824708,-0.9766978,-0.2610514,-0.9620669,3.55237,0.1696095,-0.7677065,1.281656,-0.2470486,307.8023,186.2529,33.36279
2,0.5,-0.03933537,1.315898,-1.196669,-0.9942246,-0.8964775,-2.647023,-1.074885,-0.01661144,0,0,7.030303,0.7652833,-0.8409847,0.7048718,-0.4287231,-1.26994,0.455637,0.4802774,-0.9884406,-0.2684851,-0.9672607,3.539555,0.1717683,-0.771157,1.287259,-0.241378,307.5826,186.363,34.32861
2,0.5111111,-0.05534303,1.340418,-1.193324,-0.9905137,-0.9206974,-2.632724,-1.073913,0.08896694,0,0,9.818182,0.7733526,-0.8739277,0.6853379,-0.427334,-1.300804,0.4748912,0.4824314,-0.996968,-0.2684913,-0.9722716,3.526527,0.1736006,-0.7748182,1.292998,-0.2357492,307.3083,186.5368,35.35086
2,0.5222223,-0.07158494,1.385135,-1.203878,-0.9872019,-0.9465924,-2.617243,-1.073943,-0.003379234,0,0,9.818182,0.7838191,-0.8824403,0.6744941,-0.4257766,-1.330558,0.4928747,0.4886713,-0.9851909,-0.2814786,-0.9778398,3.515117,0.1742701,-0.7784529,1.298938,-0.2299914,306.9865,186.7411,36.40608
2,0.5333334,-0.07910526,1.396817,-1.210205,-0.983564,-0.9707797,-2.602997,-1.074002,-0.005288365,0,0,9.818182,0.7479878,-0.8278706,0.6764212,-0.4225025,-1.354734,0.5080709,0.4896105,-0.9702827,-0.2900261,-0.9829898,3.503864,0.1751428,-0.7818902,1.30508,-0.2240909,306.6278,186.9424,37.54383
2,0.5444446,-0.09848118,1.418045,-1.220676,-0.9804822,-0.995903,-2.587319,-1.073944,0.005489906,0,0,9.818182,0.7049076,-0.7776574,0.697564,-0.418658,-1.379509,0.5244454,0.5047275,-0.9530443,-0.2733425,-0.9871715,3.493759,0.1746823,-0.7850322,1.311398,-0.2181149,306.2606,187.1146,38.73456
2,0.5555557,-0.136825,1.43818,-1.219222,-0.9780433,-1.021073,-2.570749,-1.074419,-0.04345559,0,0,9.575758,0.6976693,-0.7509986,0.6989232,-0.4158441,-1.405572,0.540644,0.5080248,-0.9412251,-0.2639793,-0.9917346,3.483077,0.1747875,-0.7879731,1.317821,-0.2121751,305.8592,187.1713,39.99886
2,0.5666668,-0.1795397,1.456153,-1.221976,-0.9758973,-1.047095,-2.552792,-1.073734,0.06305559,0,0,9.575758,0.677558,-0.7188321,0.6908895,-0.4130914,-1.42989,0.5559647,0.5037456,-0.9007494,-0.2565019,-0.9957847,3.473419,0.1745617,-0.7907612,1.324251,-0.2063295,305.4589,187.0539,41.33144
2,0.577778,-0.1966063,1.45183,-1.227086,-0.9734674,-1.072691,-2.535764,-1.073005,0.06623647,0,0,9.575758,0.6075525,-0.7163945,0.7141008,-0.4101114,-1.459228,0.5781456,0.5023815,-0.8655056,-0.2811769,-1.0015,3.464914,0.173469,-0.7933991,1.330673,-0.2005471,305.073,186.9426,42.5679
2,0.5888891,-0.2136495,1.430485,-1.226794,-0.9713161,-1.096802,-2.519079,-1.072318,0.06245489,0,0,9.575758,0.5991126,-0.726023,0.7269087,-0.4077097,-1.48845,0.5986666,0.4893091,-0.8453069,-0.3034192,-1.007048,3.455725,0.1734075,-0.7959456,1.337108,-0.1948678,304.6923,186.8925,43.73695
2,0.6000003,-0.2220908,1.424087,-1.224538,-0.9696362,-1.121534,-2.502509,-1.073266,-0.08694233,0,0,9.575758,0.6224364,-0.767607,0.7154437,-0.4070019,-1.518681,0.6186012,0.4701129,-0.848534,-0.306442,-1.01217,3.445382,0.1743881,-0.7983648,1.343644,-0.1892576,304.3524,186.8503,44.87346
2,0.6111114,-0.2325411,1.423071,-1.205213,-0.9692143,-1.145836,-2.485804,-1.073179,0.008857335,0,0,12.48485,0.626129,-0.7782148,0.6984712,-0.4067654,-1.548692,0.6389259,0.4456154,-0.8635103,-0.3093695,-1.017405,3.434459,0.1761244,-0.800514,1.350326,-0.1836072,304.0338,186.6989,46.09217
2,0.6222225,-0.244247,1.446496,-1.203004,-0.9692484,-1.171658,-2.468369,-1.073865,-0.06275776,0,0,12.48485,0.6110678,-0.7512523,0.6700951,-0.4060767,4.709764,0.6554348,0.4264627,-0.8582447,-0.3049002,-1.02224,3.424226,0.1774161,-0.8023987,1.35715,-0.1779795,303.7025,186.4848,47.41156
2,0.6333337,-0.2641189,1.45934,-1.170824,-0.9706322,-1.196011,-2.451284,-1.073756,0.01070014,0,0,12.48485,0.6069442,-0.6988672,0.6503279,-0.4044457,4.687171,0.6696393,0.4192506,-0.8465337,-0.2792596,-1.025937,3.414407,0.1781793,-0.8041231,1.364018,-0.1724108,303.2788,186.1079,48.88735
2,0.6444448,-0.2816993,1.450916,-1.153534,-0.9712266,-1.22065,-2.434758,-1.074018,-0.02382191,0,0,12.48485,0.586714,-0.6816058,0.6411131,-0.4035147,4.662583,0.6864388,0.4147363,-0.8049161,-0.2120668,-1.027101,3.405542,0.1775798,-0.805735,1.370889,-0.1669573,302.8127,185.7834,50.31784
2,0.655556,-0.2920822,1.433897,-1.138443,-0.9721395,-1.244491,-2.41792,-1.07369,0.03023163,0,0,16,0.5534068,-0.6758211,0.6128024,-0.4036814,4.637501,0.7043979,0.406423,-0.7687145,-0.1927309,-1.029876,3.396915,0.1773226,-0.807355,1.377712,-0.1615968,302.3334,185.3786,51.76016
2,0.6666671,-0.2960777,1.414761,-1.124496,-0.9731968,-1.268176,-2.401308,-1.074484,-0.07273442,0,0,16,0.5191395,-0.6497732,0.5825136,-0.403683,4.615963,0.7195403,0.3777063,-0.7314997,-0.1785984,-1.032588,3.389317,0.1779535,-0.8088625,1.384485,-0.1562917,301.8689,185.1288,53.05835
2,0.6777782,-0.3128129,1.400936,-1.104019,-0.9750493,-1.290939,-2.384644,-1.073897,0.05420462,0,0,16,0.5029981,-0.6399275,0.5603671,-0.4043914,4.593784,0.7344828,0.3659954,-0.7038357,-0.177397,-1.035858,3.38139,0.1779876,-0.8102241,1.391205,-0.1510141,301.4958,184.7867,54.42049
2,0.6888894,-0.3489211,1.395547,-1.095043,-0.9772523,-1.314001,-2.366657,-1.074057,-0.01505302,0,0,16,0.4530949,-0.6097171,0.5569314,-0.4037853,4.572917,0.7504623,0.3687787,-0.6708183,-0.2083378,-1.040258,3.374891,0.1771282,-0.811509,1.397816,-0.1457603,301.1254,184.3103,55.88936
2,0.7000005,-0.382753,1.382719,-1.078645,-0.979705,-1.336467,-2.348868,-1.073621,0.04015372,0,0,16,0.3964261,-0.6145363,0.5415739,-0.4046354,4.549639,0.7691545,0.3555205,-0.6176186,-0.2412383,-1.044922,3.369537,0.1760874,-0.8126833,1.404311,-0.1405101,300.7531,183.8283,57.34843
2,0.7111117,-0.4123117,1.37843,-1.061271,-0.9827208,-1.359129,-2.330991,-1.072569,0.09602326,0,0,16,0.3856935,-0.6176164,0.5363431,-0.4054567,4.526605,0.7861995,0.3361308,-0.6038314,-0.2580892,-1.049438,3.363094,0.176187,-0.8138239,1.410681,-0.1353213,300.3657,183.4278,58.73208
2,0.7222228,-0.433445,1.366689,-1.050349,-0.9858937,-1.381438,-2.31319,-1.072544,0.001684112,0,0,16,0.3811719,-0.6259734,0.5192835,-0.4069619,4.504241,0.802603,0.3157752,-0.5975094,-0.2674796,-1.053929,3.35614,0.1767367,-0.8149995,1.41705,-0.1302698,300.0295,183.233,59.90482
2,0.7333339,-0.4317156,1.378598,-0.9939487,-0.9913852,-1.402543,-2.297121,-1.072818,-0.02476777,0,0,16,0.3647433,-0.6458995,0.4937296,-0.4095196,4.482459,0.8190179,0.2956151,-0.6007794,-0.2576938,-1.057765,3.348694,0.1777455,-0.8160744,1.423509,-0.1253695,299.7145,183.0214,61.09026
2,0.7444451,-0.4517646,1.386058,-0.9735105,-0.9965884,-1.424197,-2.279528,-1.072948,-0.01140261,0,0,16,0.3319576,-0.6426169,0.5122533,-0.410538,4.458771,0.8380947,0.2754034,-0.5741972,-0.2479084,-1.06119,3.342899,0.1781458,-0.8169492,1.430133,-0.1206059,299.3834,182.6701,62.37827
2,0.7555562,-0.4876875,1.393503,-0.9528949,-1.002235,-1.445636,-2.261591,-1.074164,-0.110992,0,0,13.69697,0.3006452,-0.5978761,0.540661,-0.4098408,4.437171,0.8554763,0.2690889,-0.5316159,-0.2254908,-1.063832,3.338025,0.1778435,-0.8176481,1.436968,-0.1159951,299.0083,182.1633,63.77319
2,0.7666674,-0.5418386,1.385944,-0.9394837,-1.007756,-1.466387,-2.242661,-1.073172,0.09193766,0,0,13.69697,0.2786457,-0.5669295,0.553951,-0.4095942,4.41577,0.8727354,0.2752868,-0.5134963,-0.2394154,-1.067806,3.33288,0.1770267,-0.8180244,1.443962,-0.1114781,298.5056,181.4623,65.33638
2,0.7777785,-0.570246,1.366772,-0.9220744,-1.01319,-1.486227,-2.225171,-1.072682,0.04385771,0,0,13.69697,0.2566365,-0.5199347,0.5556152,-0.4091478,4.3972,0.8873642,0.2612143,-0.5061088,-0.2563067,-1.072271,3.327332,0.1772214,-0.8183555,1.451127,-0.1071428,298.0186,180.654,67.026
2,0.7888896,-0.5929523,1.331719,-0.8652756,-1.0194,-1.503051,-2.209026,-1.071491,0.1088478,0,0,13.69697,0.2341316,-0.4982877,0.5304774,-0.4099803,4.379353,0.9016593,0.2355565,-0.5136394,-0.2666864,-1.076551,3.32135,0.1783791,-0.8187439,1.45845,-0.1029958,297.5762,179.6328,68.90501
2,0.8000008,-0.6039721,1.303088,-0.8128742,-1.026013,-1.51927,-2.193718,-1.072583,-0.1004623,0,0,13.69697,0.2231907,-0.4873137,0.4997973,-0.4111489,4.362552,0.9149181,0.2363158,-0.5232644,-0.2943864,-1.081778,3.315162,0.1787684,-0.8192226,1.465952,-0.09907885,297.1752,178.5929,70.79536
2,0.8111119,-0.6161422,1.314957,-0.7616272,-1.034331,-1.535975,-2.178281,-1.07271,-0.01040319,0,0,13.69697,0.1993133,-0.4868543,0.4627872,-0.4131133,4.346375,0.9282213,0.2171198,-0.5041376,-0.291,-1.085735,3.310221,0.179219,-0.8196301,1.47355,-0.09538547,296.7766,177.3472,72.89172
2,0.8222231,-0.632586,1.357713,-0.6955013,-1.044766,-1.552016,-2.162621,-1.073412,-0.06390398,0,0,13.69697,0.1715303,-0.470546,0.4461987,-0.4142899,4.330507,0.9417289,0.2033143,-0.4828802,-0.2802051,-1.089295,3.305464,0.1796584,-0.8198752,1.481056,-0.0920453,296.2954,175.9284,75.22371
2,0.8333342,-0.6488292,1.417586,-0.6124122,-1.057142,-1.567432,-2.14751,-1.073716,-0.02708843,0,0,13.69697,0.1293924,-0.4009875,0.4451127,-0.413117,4.317483,0.9535673,0.1737133,-0.4286208,-0.243706,-1.09135,3.30234,0.180173,-0.819929,1.488294,-0.08912968,295.8281,174.3323,77.62934
2,0.8444453,-0.6653741,1.461379,-0.5548311,-1.06974,4.700619,-2.132198,-1.073233,0.04446974,0,0,13.69697,0.08474484,-0.3664854,0.4331308,-0.4129391,4.304126,0.9663095,0.1525189,-0.3924428,-0.2243284,-1.093722,3.299239,0.1806161,-0.8197321,1.495172,-0.08653855,295.3594,172.7048,79.8539
2,0.8555565,-0.6912193,1.512699,-0.4780114,-1.083894,4.686842,-2.117543,-1.073456,-0.02055178,0,0,13.69697,0.04832721,-0.3521913,0.4080899,-0.4139665,4.291818,0.9780856,0.1521111,-0.3818163,-0.2594806,-1.098405,3.295621,0.1805796,-0.8194915,1.501772,-0.08423529,294.8099,171.2407,81.80601
2,0.8666676,-0.7150846,1.543707,-0.4128474,-1.098071,4.674164,-2.103109,-1.073193,0.02455913,0,0,9.69697,0.01305753,-0.3400916,0.3915568,-0.4147106,4.279427,0.9905284,0.1518815,-0.3669139,-0.2775988,-1.102696,3.292415,0.1803463,-0.8193102,1.508195,-0.0821506,294.2233,169.8727,83.59527
2,0.8777788,-0.7284153,1.564066,-0.3648411,-1.112396,4.661428,-2.089004,-1.073202,-0.001010565,0,0,9.69697,0.009796232,-0.3389536,0.3852013,-0.4156571,4.265993,1.002643,0.1467451,-0.3253886,-0.248733,-1.10433,3.290277,0.1799578,-0.8191732,1.514542,-0.08016823,293.6636,168.5124,85.34537
2,0.8888899,-0.7037485,1.59112,-0.2469597,-1.129121,4.652353,-2.078213,-1.072985,0.02007158,0,0,9.69697,0.0006204247,-0.3384499,0.3299126,-0.4179682,4.257699,1.010508,0.1303156,-0.2785049,-0.1793474,-1.104228,3.288546,0.1798624,-0.8190807,1.520862,-0.07826138,293.0535,166.9209,87.40121
2,0.900001,-0.6840547,1.579579,-0.2066386,-1.143293,4.642412,-2.067419,-1.073383,-0.03637484,0,0,9.69697,-0.07225212,-0.2894781,0.265103,-0.4189861,4.254546,1.016541,0.1042216,-0.2241988,-0.1151762,-1.103388,3.287431,0.1801216,-0.8190663,1.52718,-0.07645728,292.4437,165.1621,89.68013
2,0.9111122,-0.6757982,1.548914,-0.1469887,-1.157603,4.634212,-2.057135,-1.075123,-0.1587123,0,0,8.727273,-0.1112736,-0.2177534,0.2554775,-0.4178899,4.248841,1.024016,0.09775957,-0.1922518,-0.1151447,-1.105052,3.286432,0.1795817,-0.8190722,1.533522,-0.07476551,291.8284,163.3019,92.07597
2,0.9222233,-0.6866283,1.505409,-0.07747459,-1.17167,4.628059,-2.046924,-1.075601,-0.04187626,0,0,8.727273,-0.1281716,-0.1684965,0.2390267,-0.4170116,4.24402,1.030359,0.09117232,-0.1869618,-0.1321125,-1.107381,3.284656,0.1796062,-0.8190567,1.539735,-0.07327029,291.1595,160.8621,95.0726
2,0.9333345,-0.6995198,1.470467,-0.004808009,-1.186256,4.622503,-2.036951,-1.075232,0.03354217,0,0,8.727273,-0.1549549,-0.1596437,0.2202342,-0.4175543,4.238063,1.038109,0.07519878,-0.1742221,-0.1276871,-1.108933,3.283081,0.180063,-0.8189871,1.545602,-0.07193483,290.6929,158.165,98.22633
2,0.9444456,-0.7062948,1.452516,0.05285597,-1.201269,4.617349,-2.027084,-1.074342,0.08114522,0,0,8.727273,-0.1721947,-0.1604615,0.2044507,-0.4182729,4.232067,1.046075,0.05161817,-0.1476544,-0.1349173,-1.110731,3.28259,0.1804715,-0.8189132,1.551039,-0.07080236,290.2671,155.5992,101.2133
2,0.9555568,-0.7086216,1.444246,0.122134,-1.216892,4.613219,-2.018186,-1.074235,0.009239797,0,0,8.727273,-0.2067464,-0.165255,0.168591,-0.4197179,4.228496,1.052716,0.02031913,-0.1158069,-0.1655093,-1.11359,3.282759,0.1811144,-0.8188992,1.556057,-0.06999271,289.7946,153.2728,103.9394
2,0.9666679,-0.7121662,1.44337,0.1871642,-1.233118,4.609848,-2.00915,-1.074205,0.002780285,0,0,9.454546,-0.2346387,-0.1499426,0.1434748,-0.4203848,4.22555,1.058954,0.01491329,-0.1019748,-0.169725,-1.115703,3.282439,0.1812856,-0.8189009,1.560696,-0.06955427,289.2967,151.128,106.3829
2,0.977779,-0.7081339,1.446825,0.2595339,-1.249885,4.6073,-2.000875,-1.074809,-0.05522075,0,0,9.454546,-0.2590848,-0.1198357,0.1301467,-0.4201754,4.223204,1.06453,0.01285991,-0.09452236,-0.1601263,-1.11729,3.281701,0.1814768,-0.8189278,1.565113,-0.06947824,288.8007,149.0751,108.6174
2,0.9888902,-0.7000819,1.44595,0.3126656,-1.266363,4.605143,-1.992857,-1.074478,0.03075721,0,0,9.454546,-0.2812734,-0.08876203,0.1274638,-0.4194505,4.220511,1.070854,0.003142774,-0.09668726,-0.1728059,-1.119788,3.280911,0.1821035,-0.819048,1.5694,-0.06971708,288.3468,146.6816,111.087
2,1.000001,-0.6951688,1.435498,0.363765,-1.283006,4.603703,-1.98517,-1.074916,-0.0402793,0,0,9.454546,-0.336916,-0.08177646,0.1026036,-0.4198761,4.21911,1.077536,-0.01804286,-0.06369714,-0.1534362,-1.120934,3.281429,0.1827536,-0.8192995,1.573691,-0.07020617,287.8788,144.1221,113.654
2,1.011112,-0.6891822,1.393072,0.4096125,-1.29826,4.603268,-1.977849,-1.075086,-0.01504397,0,0,12.48485,-0.3530151,-0.08265303,0.09319873,-0.4203826,4.216484,1.084407,-0.01574802,-0.02105936,-0.1279265,-1.121274,3.282833,0.182239,-0.8195436,1.57799,-0.07087727,287.4618,141.2818,116.4844
2,1.022224,-0.6799729,1.329324,0.4587198,-1.312672,4.604399,-1.970952,-1.075178,-0.008363966,0,0,12.48485,-0.3957645,-0.0704774,0.07462357,-0.4205999,4.215917,1.090762,-0.02153067,0.01937182,-0.16092,-1.123731,3.285034,0.1817517,-0.8197187,1.582287,-0.07163437,287.1338,138.2246,119.5034
2,1.033335,-0.67387,1.274142,0.5141975,-1.327143,4.60622,-1.96427,-1.075232,-0.004858688,0,0,12.48485,-0.4249806,-0.08172849,0.0429055,-0.4218895,4.216209,1.095969,-0.03618635,0.05550485,-0.2289826,-1.128297,3.287837,0.1813538,-0.8198957,1.586631,-0.0724424,286.8717,135.0054,122.7044
2,1.044446,-0.6744456,1.233784,0.5473489,-1.341513,4.607947,-1.957296,-1.075218,0.001257152,0,0,12.48485,-0.4409834,-0.08695203,0.0441186,-0.4227097,4.213737,1.103666,-0.0518411,0.05860758,-0.2980675,-1.133644,3.289817,0.1815903,-0.8201447,1.591018,-0.07331279,286.6968,131.7171,126.0176
2,1.055557,-0.6745251,1.181851,0.6241834,-1.35593,4.612344,-1.950851,-1.07525,-0.00285071,0,0,12.48485,-0.4450036,-0.0742356,0.057038,-0.4225307,4.211474,1.110762,-0.05735251,0.05006463,-0.3182429,-1.137569,3.290864,0.1818886,-0.82034,1.595332,-0.07435998,286.5753,128.3189,129.5212
2,1.066668,-0.6749004,1.147935,0.682843,-1.370331,4.61695,-1.944121,-1.074986,0.02413788,0,0,11.87879,-0.4567295,-0.0538114,0.04455709,-0.4224295,4.211352,1.116377,-0.05836523,0.04260736,-0.3150302,-1.140917,3.291804,0.1821852,-0.8205001,1.599487,-0.07566139,286.5487,124.7998,133.0844
2,1.077779,-0.6708044,1.119436,0.7574409,-1.385154,4.622623,-1.937966,-1.074909,0.006677347,0,0,11.87879,-0.4878459,-0.04915339,0.02363943,-0.423033,4.212612,1.121743,-0.06467494,0.04898529,-0.306447,-1.143784,3.293099,0.1824665,-0.8206634,1.603471,-0.07719503,286.5701,121.3322,136.4618
2,1.08889,-0.650147,1.100275,0.8021664,-1.3996,4.629714,-1.932496,-1.074667,0.02232493,0,0,11.87879,-0.5079812,-0.006263733,0.007178143,-0.4220514,4.214971,1.125838,-0.08144818,0.07986137,-0.2732677,-1.145396,3.295519,0.1829576,-0.8207877,1.607229,-0.07907052,286.5669,117.6758,140.0457
2,1.100002,-0.6335819,1.080248,0.847835,-1.414226,4.635721,-1.927118,-1.075088,-0.0386817,0,0,11.87879,-0.5188809,0.008971751,-0.02240261,-0.4219374,4.218547,1.128686,-0.08132499,0.1320876,-0.2488028,-1.146812,3.299468,0.1822481,-0.820955,1.610831,-0.08140763,286.564,114.1167,143.5152
2,1.111113,-0.614947,1.035717,0.8955978,-1.427678,4.642793,-1.921239,-1.075639,-0.04999229,0,0,14.90909,-0.565246,0.03107715,-0.08134247,-0.4223885,4.226124,1.129732,-0.07550075,0.2163026,-0.1818155,-1.146009,3.304754,0.1806201,-0.8212596,1.614268,-0.08417629,286.7654,110.6527,146.6343
2,1.122224,-0.5965773,1.010252,0.9188734,-1.441143,4.649702,-1.915789,-1.076,-0.03259531,0,0,14.90909,-0.607828,0.06560791,-0.09866989,-0.4214021,4.231888,1.132791,-0.07951633,0.2567984,-0.1487781,-1.145818,3.309426,0.1797128,-0.8217201,1.617412,-0.08717198,287.0558,107.2054,149.4684
2,1.133335,-0.5617856,0.9743139,0.9739903,-1.454232,4.657968,-1.911835,-1.075354,0.05907102,0,0,14.90909,-0.6354164,0.1278022,-0.1255402,-0.4193009,4.239975,1.133082,-0.100752,0.2780577,-0.1368539,-1.146415,3.313478,0.1798616,-0.8222705,1.620378,-0.09032178,287.1172,104.1263,152.0424
2,1.144446,-0.5434214,0.9626842,0.9962361,-1.467745,4.665636,-1.907307,-1.075754,-0.03705926,0,0,14.90909,-0.6676186,0.1453184,-0.1559133,-0.418487,4.248276,1.133761,-0.1104322,0.2748299,-0.1463375,-1.147787,3.316958,0.1799256,-0.8227597,1.623202,-0.0936003,287.0989,101.3782,154.4039
2,1.155557,-0.5184858,0.9575663,1.034313,-1.481682,4.673901,-1.903251,-1.077098,-0.1226478,0,0,14.90909,-0.703979,0.1563609,-0.1735068,-0.4178542,4.255535,1.135992,-0.127535,0.2928989,-0.1472309,-1.148716,3.321307,0.1800529,-0.823204,1.626009,-0.09700629,287.1424,98.60529,156.8457
2,1.166668,-0.513948,0.9331323,1.05353,-1.494805,4.682475,-1.898481,-1.076649,0.04200672,0,0,18.66667,-0.7425717,0.1632175,-0.1974978,-0.4172151,4.264358,1.137502,-0.1286631,0.3173979,-0.1472379,-1.149554,3.326296,0.1794896,-0.8236961,1.628833,-0.1005875,287.3222,95.67653,159.4149
2,1.17778,-0.5158601,0.8895,1.064326,-1.506819,4.691184,-1.893244,-1.076868,-0.02074081,0,0,18.66667,-0.7661512,0.154916,-0.2047453,-0.4170159,4.271399,1.140066,-0.1279118,0.3610635,-0.1664538,-1.150992,3.332623,0.1782182,-0.8242043,1.631652,-0.1042348,287.5701,92.80582,161.7937
2,1.188891,-0.5188973,0.8501223,1.07297,-1.518344,4.700123,-1.887828,-1.076075,0.07262293,0,0,18.66667,-0.7662538,0.1367897,-0.2027598,-0.4170904,4.277218,1.143276,-0.1388481,0.4132191,-0.1802313,-1.152327,3.33969,0.177317,-0.8248491,1.63444,-0.1078915,287.9384,89.8858,164.2085
2,1.200002,-0.5143955,0.7862732,1.079488,-1.528598,4.709615,-1.882735,-1.075474,0.05423171,0,0,18.66667,-0.7888932,0.108227,-0.2091258,-0.4181104,4.283354,1.147021,-0.1495463,0.4398257,-0.1780083,-1.153189,3.346353,0.1766392,-0.8256841,1.637233,-0.111537,288.2759,87.14992,166.4799
2,1.211113,-0.5037465,0.7565531,1.076168,-1.539419,-1.565092,-1.877653,-1.075255,0.01961139,0,0,18.66667,-0.8252608,0.1217863,-0.1403992,-0.4161679,4.283703,1.157066,-0.1635007,0.4461864,-0.1853033,-1.15397,3.352422,0.1764749,-0.8266314,1.640021,-0.1151947,288.5506,84.71207,168.4967
2,1.222224,-0.4821314,0.6852705,1.087886,-1.547913,-1.554701,-1.873506,-1.075579,-0.02982349,0,0,17.81818,-0.8360007,0.1758004,-0.08978362,-0.4121716,4.286394,1.164196,-0.1671468,0.4376198,-0.230003,-1.157168,3.358123,0.1761873,-0.8275347,1.642829,-0.11885,288.7704,82.48169,170.3007
2,1.233335,-0.4649569,0.5702446,1.074211,-1.553961,-1.544707,-1.86915,-1.075705,-0.01117508,0,0,17.81818,-0.8484859,0.1938948,-0.07566231,-0.4098296,4.290907,1.169662,-0.1746569,0.4205549,-0.2394904,-1.159332,3.363034,0.1763079,-0.8282675,1.645589,-0.1225274,289.0771,80.44986,171.894
2,1.244446,-0.4650278,0.5158771,1.057319,-1.560919,-1.535421,-1.864128,-1.076558,-0.07818965,0,0,17.81818,-0.8650563,0.1783558,-0.1160775,-0.4096922,4.298454,1.172774,-0.1904023,0.4258581,-0.2158909,-1.15999,3.368435,0.1767852,-0.8289658,1.648417,-0.1261699,289.4194,78.46163,173.4149
2,1.255558,-0.4638027,0.4242641,1.049073,-1.565902,-1.525336,-1.859316,-1.07638,0.01703334,0,0,17.81818,-0.8782945,0.1691262,-0.1490401,-0.4094717,4.306717,1.175184,-0.2042062,0.4652452,-0.2019334,-1.160612,3.375771,0.1765159,-0.8295286,1.651228,-0.1299394,289.8005,76.63458,174.9082
2,1.266669,-0.4669196,0.3635085,1.040795,4.712154,-1.515143,-1.854252,-1.075606,0.07053888,0,0,13.57576,-0.8631368,0.1299734,-0.19535,-0.4107638,4.315221,1.176337,-0.2170923,0.4833179,-0.2071384,-1.16199,3.382626,0.1766216,-0.8300523,1.654031,-0.1339322,290.1766,75.32429,175.8228
2,1.27778,-0.4712823,0.2888643,1.013374,4.708611,-1.50568,-1.848941,-1.075668,-0.006482128,0,0,13.57576,-0.849073,0.08870703,-0.2427333,-0.4128198,4.324584,1.176632,-0.2221164,0.4886611,-0.1783367,-1.162252,3.388757,0.1766818,-0.8306312,1.65689,-0.1380921,290.5434,74.1564,176.4633
2,1.288891,-0.4544444,0.2248776,0.9803676,4.705709,-1.49638,-1.844441,-1.075418,0.02304465,0,0,13.57576,-0.8319167,0.0110957,-0.2776599,-0.4169301,4.331909,1.178515,-0.2242431,0.5089005,-0.1730032,-1.162844,3.39588,0.1763963,-0.8312442,1.659742,-0.1424249,290.9416,73.09351,176.9665
2,1.300002,-0.4314306,0.1736656,0.9302009,4.702983,-1.48826,-1.840313,-1.075129,0.02612642,0,0,13.57576,-0.8275164,0.001344621,-0.2607533,-0.4179341,4.336773,1.183037,-0.2402095,0.5525354,-0.1622326,-1.163112,3.404185,0.1761825,-0.8318652,1.662563,-0.1469032,291.3023,72.09515,177.3727
2,1.311113,-0.4177949,0.1288524,0.900403,4.700198,-1.479237,-1.835968,-1.075893,-0.06998292,0,0,13.57576,-0.823032,0.02042878,-0.2531936,-0.4179554,4.343369,1.186054,-0.2508616,0.5823339,-0.155762,-1.163364,3.41236,0.1760179,-0.8324363,1.665329,-0.1514741,291.5888,71.35981,177.5072
2,1.322224,-0.4048201,0.09346607,0.813013,4.698557,-1.473262,-1.831632,-1.076271,-0.03402848,0,0,17.21212,-0.8291218,0.02670395,-0.2317746,-0.4179959,4.34878,1.190458,-0.270277,0.5758737,-0.1800559,-1.165031,3.419546,0.1768533,-0.8328708,1.667959,-0.1560444,291.8782,70.87653,177.3578
2,1.333336,-0.3892416,0.07952708,0.7734706,4.696057,-1.466091,-1.827542,-1.075982,0.02648827,0,0,17.21212,-0.8363125,0.05367982,-0.1355963,-0.416267,4.347006,1.201695,-0.2864257,0.570488,-0.1979967,-1.166773,3.426584,0.1777687,-0.8332849,1.670478,-0.1604335,292.1154,70.46703,177.009
2,1.344447,-0.3467799,0.04334101,0.7507617,4.694862,-1.458577,-1.825058,-1.075808,0.01546057,0,0,17.21212,-0.8181223,0.1030819,-0.06828934,-0.4130648,4.346108,1.210952,-0.3070041,0.5629525,-0.2318661,-1.169436,3.433695,0.1791421,-0.8337618,1.673038,-0.1644571,292.2693,70.0301,176.6885
2,1.355558,-0.3258406,-0.007867366,0.7048868,4.694773,-1.451915,-1.821864,-1.075959,-0.01390842,0,0,17.21212,-0.8018933,0.1241978,-0.05980125,-0.411452,4.349368,1.216395,-0.3112167,0.5448272,-0.2318177,-1.17108,3.440059,0.1802683,-0.8342751,1.675494,-0.1679647,292.5377,69.84308,176.2822
2,1.366669,-0.3224821,-0.07237208,0.6403966,4.694982,-1.445603,-1.818421,-1.077439,-0.135318,0,0,15.87879,-0.7847329,0.08833045,-0.1188932,-0.4128645,4.356986,1.21772,-0.3055143,0.5640485,-0.1914094,-1.170615,3.447683,0.1805216,-0.8348974,1.677918,-0.1709622,292.8272,69.34103,176.3892
2,1.37778,-0.3332456,-0.1030449,0.5902189,4.696856,-1.440941,-1.813884,-1.076657,0.07255203,0,0,15.87879,-0.7695348,0.05449295,-0.1641006,-0.4147713,4.364686,1.218972,-0.3029887,0.6098902,-0.144609,-1.169268,3.456507,0.1801764,-0.8355567,1.680117,-0.1736159,293.223,68.8486,176.6953
2,1.388891,-0.3424188,-0.1490867,0.5211958,4.699207,-1.437028,-1.809377,-1.076084,0.05156294,0,0,15.87879,-0.7499038,0.01302457,-0.1913052,-0.4172049,4.370825,1.221081,-0.3091538,0.6471712,-0.1168915,-1.168385,3.465387,0.1800321,-0.8364572,1.682118,-0.1761059,293.5774,68.53337,176.8455
2,1.400002,-0.3237666,-0.1907763,0.4614713,4.701847,-1.433182,-1.806455,-1.074788,0.1180022,0,0,15.87879,-0.7206865,0.007154405,-0.1501481,-0.4172481,4.371037,1.227924,-0.317745,0.6482096,-0.123195,-1.168635,3.473521,0.1807013,-0.837711,1.684043,-0.1784969,293.7861,68.38811,176.7685
2,1.411114,-0.2824385,-0.2248473,0.4323771,4.704274,-1.428525,-1.804712,-1.074647,0.01192935,0,0,15.87879,-0.7023879,0.07146776,-0.08270806,-0.4138829,4.370022,1.23612,-0.3296257,0.6247208,-0.1454486,-1.170118,3.480423,0.1820279,-0.8390909,1.685827,-0.1807925,293.8139,68.45473,176.5003
2,1.422225,-0.2508557,-0.2493992,0.3905732,4.707001,-1.424925,-1.80306,-1.076209,-0.1428341,0,0,12.12121,-0.6643845,0.112458,-0.04660058,-0.4111495,4.370573,1.241633,-0.3393278,0.604443,-0.1613114,-1.171311,3.487227,0.1834588,-0.8403919,1.687573,-0.1829744,293.7098,68.65042,176.1381
2,1.433336,-0.2425546,-0.2579388,0.3681525,4.708697,-1.421063,-1.800546,-1.077423,-0.1098995,0,0,12.12121,-0.6406386,0.1227869,-0.02656455,-0.4096128,4.371583,1.24701,-0.3393152,0.6033339,-0.1623747,-1.17165,3.494065,0.1840737,-0.8415111,1.689219,-0.1850679,293.7629,68.86936,175.7652
2,1.444447,-0.2299301,-0.2654206,0.3509979,4.71104,-1.417165,-1.7985,-1.077354,0.00700725,0,0,12.12121,-0.5912964,0.0918929,-0.07001555,-0.4101694,4.376611,1.247171,-0.3137093,0.5917115,-0.1668644,-1.172288,3.501144,0.1833658,-0.8423918,1.690611,-0.1871272,293.9871,69.00274,175.4366
2,1.455558,-0.232236,-0.2676071,0.3339786,-1.569914,-1.413552,-1.795867,-1.076208,0.104438,0,0,12.12121,-0.5846958,0.0399859,-0.1131502,-0.41248,4.382293,1.248056,-0.3039953,0.5874875,-0.1615734,-1.172307,3.508078,0.182896,-0.8432955,1.691795,-0.1891471,294.2096,69.21774,174.8747
2,1.466669,-0.2357863,-0.2421332,0.3062321,-1.568736,-1.410769,-1.793179,-1.076346,-0.01373638,0,0,12.12121,-0.594058,-0.03965664,-0.1371268,-0.4162233,4.385435,1.252137,-0.2782747,0.5694497,-0.15117,-1.172557,3.514493,0.1826343,-0.8443998,1.692984,-0.1910369,294.2659,69.30654,174.3938
2,1.47778,-0.2242547,-0.2144408,0.2953557,-1.567943,-1.407614,-1.791049,-1.075642,0.06458349,0,0,8.848485,-0.5731442,-0.06061038,-0.06829865,-0.4169536,4.380624,1.262396,-0.2580554,0.5290253,-0.1651999,-1.174007,3.520012,0.1826412,-0.845621,1.694117,-0.1928599,294.3289,69.32871,174.1933
2,1.488891,-0.1924727,-0.1888273,0.2842791,-1.56745,-1.404628,-1.790092,-1.075403,0.02119004,0,0,8.848485,-0.5448503,-0.05479309,-0.02170767,-0.4169328,4.377117,1.27062,-0.257054,0.4991913,-0.1790416,-1.1756,3.525252,0.1834127,-0.8469118,1.695264,-0.1946854,294.3283,69.35944,174.0508
2,1.500003,-0.1553107,-0.17597,0.2753041,-1.566541,-1.401841,-1.789655,-1.075866,-0.042527,0,0,8.848485,-0.5154152,-0.02013108,0.01443454,-0.415402,4.37515,1.276998,-0.2604872,0.4597585,-0.2141336,-1.178372,3.530032,0.1845208,-0.8482196,1.69648,-0.1964446,294.2908,69.37852,173.8372
2,1.511114,-0.1403657,-0.1812499,0.2762336,-1.565145,-1.398345,-1.788718,-1.076964,-0.1000804,0,0,8.848485,-0.4779854,-0.01085302,0.02045216,-0.4151383,4.374828,1.281292,-0.2554514,0.4064797,-0.2557079,-1.182013,3.533791,0.1858237,-0.8493614,1.697717,-0.1980879,294.2592,69.29838,173.7113
2,1.522225,-0.1253242,-0.1747716,0.2898943,-1.564178,-1.3944,-1.787812,-1.077379,-0.03731654,0,0,10.30303,-0.4695093,-0.001247108,0.01084179,-0.4149205,4.37557,1.285585,-0.242695,0.3830708,-0.2643459,-1.184587,3.538157,0.186462,-0.8502759,1.698883,-0.1995884,294.3183,69.20939,173.6184
2,1.533336,-0.1422846,-0.1609196,0.3006766,-1.563701,-1.390603,-1.78566,-1.076649,0.06680134,0,0,10.30303,-0.4643851,0.01381782,-0.01573692,-0.4148933,4.378578,1.287836,-0.2222041,0.3937935,-0.237934,-1.185461,3.543743,0.1861962,-0.8510576,1.699966,-0.2010139,294.4632,69.18559,173.512
2,1.544447,-0.1668662,-0.1290224,0.3008282,-1.564143,-1.387316,-1.782951,-1.076368,0.02496243,0,0,10.30303,-0.4648719,0.005591303,-0.05202209,-0.4156172,4.38278,1.289195,-0.2016651,0.4077134,-0.2051249,-1.185703,3.549308,0.18565,-0.8518258,1.700961,-0.2024501,294.6417,69.11621,173.4531
2,1.555558,-0.1732095,-0.09489274,0.3146167,-1.564973,-1.383651,-1.78074,-1.074962,0.1282822,0,0,10.30303,-0.4656774,-0.03028229,-0.09917361,-0.4182175,4.38724,1.29024,-0.1842053,0.4312173,-0.1573821,-1.184848,3.555216,0.184936,-0.8526083,1.701844,-0.2040033,294.8237,68.94379,173.5073
2,1.566669,-0.171143,-0.0714419,0.3134482,-1.565802,-1.380361,-1.779032,-1.074233,0.06546564,0,0,10.30303,-0.4521632,-0.07617438,-0.1007728,-0.4208535,4.388302,1.293816,-0.1892769,0.4461829,-0.1380569,-1.184062,3.561159,0.1840939,-0.8536149,1.702769,-0.2057298,294.9599,68.7477,173.5084
2,1.577781,-0.1616933,-0.05439495,0.3047642,-1.566407,-1.377422,-1.777529,-1.074721,-0.04496387,0,0,9.818182,-0.4212314,-0.0925006,-0.0895524,-0.4228295,4.387992,1.297504,-0.1981704,0.4322875,-0.1773946,-1.18664,3.566347,0.1847696,-0.854706,1.703725,-0.2075342,294.9689,68.5021,173.4857
2,1.588892,-0.1491521,-0.04377832,0.284353,-1.566814,-1.375016,-1.776333,-1.075324,-0.05462276,0,0,9.818182,-0.3995968,-0.08111581,-0.06840391,-0.4233958,4.387749,1.301529,-0.1984183,0.4120338,-0.2072128,-1.189168,3.571082,0.1852101,-0.855713,1.704698,-0.2093061,294.9235,68.27533,173.4064
2,1.600003,-0.1366283,-0.03316629,0.2628736,-1.567176,-1.372875,-1.77516,-1.075566,-0.02174641,0,0,9.818182,-0.3782458,-0.072732,-0.06965272,-0.4241042,4.389326,1.303572,-0.1965525,0.3917512,-0.2338588,-1.191867,3.575186,0.1863379,-0.8565826,1.705621,-0.2109289,294.9587,68.13355,173.231
2,1.611114,-0.125045,-0.01397379,0.2541662,-1.568381,-1.370511,-1.774217,-1.075827,-0.02371641,0,0,9.818182,-0.3450531,-0.07094193,-0.05618707,-0.4249329,4.389626,1.306134,-0.1997316,0.3587263,-0.2412621,-1.19411,3.578871,0.1872538,-0.8572975,1.706468,-0.212348,295.0349,68.02409,173.0816
2,1.622225,-0.1060334,0.000947386,0.2421929,-1.56936,-1.368379,-1.773681,-1.075787,0.003783552,0,0,8.242424,-0.3445066,-0.05954561,-0.0166806,-0.4249457,4.386828,1.312484,-0.2049927,0.3256875,-0.24333,-1.196361,3.581992,0.1885763,-0.8579111,1.707234,-0.2135196,295.1476,67.9739,172.9239
2,1.633336,-0.1008632,-0.001220956,0.2272223,-1.569574,-1.366444,-1.772652,-1.075907,-0.01114089,0,0,8.242424,-0.3270715,-0.04172876,0.005627207,-0.4245457,4.385351,1.31692,-0.2032934,0.2937094,-0.2103734,-1.197741,3.583419,0.1882019,-0.8585124,1.707933,-0.214435,295.2806,67.89934,172.8124
2,1.644447,-0.09892339,-0.009802312,0.2059317,-1.569697,-1.364855,-1.771842,-1.076212,-0.02792278,0,0,8.242424,-0.2895673,-0.02822445,0.01594919,-0.4242128,4.384182,1.319871,-0.1912713,0.2873582,-0.1806575,-1.198192,3.586799,0.1886977,-0.8591921,1.708601,-0.2150687,295.405,67.67237,172.8698
2,1.655559,-0.09156443,-0.01833871,0.1952251,-1.56961,-1.362989,-1.770956,-1.075631,0.05328673,0,0,8.242424,-0.25552,-0.02735743,0.0112885,-0.4246117,4.384351,1.321432,-0.1703436,0.2938312,-0.1094983,-1.196556,3.590389,0.1885103,-0.8599731,1.709206,-0.2155024,295.5467,67.38947,173.1332
2,1.66667,-0.08725603,-0.02897283,0.1962787,-1.56945,-1.360748,-1.77025,-1.075683,-0.005292058,0,0,8.242424,-0.236764,-0.01863757,-0.02934692,-0.4249782,4.388302,1.319891,-0.1612597,0.3066121,-0.04035703,-1.194192,3.593743,0.1893755,-0.8609259,1.709783,-0.2158657,295.6729,67.23022,173.3404
2,1.677781,-0.09385458,-0.02799132,0.177163,-1.56942,-1.359396,-1.76896,-1.075542,0.01292692,0,0,8.121212,-0.2369723,0.002923951,-0.06005645,-0.4245979,4.392472,1.31878,-0.160933,0.2948462,-0.0212177,-1.193853,3.59551,0.1892775,-0.8620156,1.710277,-0.2161844,295.7694,67.12897,173.4524
2,1.688892,-0.1057413,-0.03127491,0.1602532,-1.569216,-1.358129,-1.767426,-1.075629,-0.008144056,0,0,8.121212,-0.235988,0.009394899,-0.07066935,-0.424567,4.395412,1.318711,-0.1545563,0.2799451,-0.02659829,-1.193822,3.598391,0.189739,-0.8631667,1.710678,-0.2165481,295.8156,66.9541,173.6684
2,1.700003,-0.111326,-0.03136361,0.1358003,-1.569087,-1.357542,-1.766025,-1.075001,0.05741465,0,0,8.121212,-0.21471,-0.002516374,-0.06569736,-0.4251806,4.396393,1.319662,-0.1236908,0.2629865,-0.03539724,-1.19403,3.601261,0.1890061,-0.8643502,1.710968,-0.2170378,295.8566,66.76721,173.8805
2,1.711114,-0.1019415,-0.03779988,0.1154778,-1.568601,-1.356812,-1.765136,-1.074676,0.02932751,0,0,8.121212,-0.2051294,-0.02933092,-0.05110805,-0.4263044,4.395838,1.322133,-0.1035017,0.2288777,-0.05477127,-1.195222,3.602155,0.1886003,-0.8655897,1.711257,-0.2176803,295.8247,66.67297,173.9439
2,1.722225,-0.08069679,-0.03989716,0.1088679,-1.568333,-1.355733,-1.76495,-1.074807,-0.01219778,0,0,8,-0.2131952,-0.01460221,-0.02106139,-0.4258496,4.394363,1.32615,-0.09476617,0.2235812,-0.03354429,-1.194515,3.604559,0.1884836,-0.8668654,1.711604,-0.2184174,295.7655,66.70393,173.798
2,1.733337,-0.07544799,-0.04097463,0.1013551,-1.568034,-1.354772,-1.764245,-1.075346,-0.04916371,0,0,8,-0.2083032,0.02989902,0.005876217,-0.4236786,4.393322,1.329208,-0.08276451,0.2140435,-0.005948535,-1.193183,3.606815,0.1882863,-0.8681453,1.712061,-0.2191543,295.6913,66.78555,173.5682
2,1.744448,-0.07449043,-0.03247747,0.09279361,-1.568143,-1.354032,-1.763499,-1.076059,-0.06480068,0,0,8,-0.2094904,0.01607566,0.003646575,-0.4239795,4.393301,1.331566,-0.07189365,0.1991004,0.01635301,-1.191774,3.607424,0.1885452,-0.8692933,1.712564,-0.2198167,295.6376,66.85843,173.3755
2,1.755559,-0.09376889,-0.01549366,0.08760489,-1.568703,-1.35349,-1.761752,-1.075523,0.04941814,0,0,8,-0.2136432,0.01388524,0.01432488,-0.4240205,4.392399,1.334923,-0.08241353,0.2214569,0.03667712,-1.190199,3.610667,0.1886658,-0.8703014,1.713061,-0.2203894,295.6794,66.87212,173.2742
2,1.76667,-0.08979677,0.0004273839,0.06300018,-1.569431,-1.354025,-1.76099,-1.075338,0.01642915,0,0,8,-0.2008028,0.009475231,0.02159545,-0.4239193,4.391234,1.337757,-0.09202787,0.2448349,0.03142283,-1.189543,3.613589,0.1879108,-0.8712606,1.713588,-0.2209074,295.7646,66.85388,173.2287
2,1.777781,-0.09500735,0.007919081,0.0758102,-1.570026,-1.35285,-1.759797,-1.074309,0.09394078,0,0,9.212122,-0.2058391,0.02216584,0.03879814,-0.4229339,4.389587,1.3417,-0.09742202,0.2447834,0.02407238,-1.188558,3.615715,0.1880746,-0.8722777,1.714188,-0.2213692,295.8723,66.82832,173.1813
2,1.788892,-0.1036172,0.001474425,0.0652741,-1.569989,-1.352352,-1.758477,-1.075204,-0.0826331,0,0,9.212122,-0.2013756,0.02948865,0.05159021,-0.4220466,4.387434,1.345759,-0.08676665,0.2394823,0.02291012,-1.187903,3.61832,0.1876985,-0.8734539,1.714978,-0.2217606,295.9331,66.81179,173.1074
2,1.800003,-0.1069122,-0.01242757,0.05362213,-1.56928,-1.352323,-1.756999,-1.074898,0.02886632,0,0,9.212122,-0.1973187,-0.002509341,0.05339464,-0.4230804,4.385993,1.349197,-0.08464798,0.2460361,0.02180807,-1.187346,3.623787,0.186527,-0.8748391,1.715928,-0.2219808,296.0427,66.86583,172.9497
2,1.811115,-0.1068837,-0.04120544,0.04946275,-1.567971,-1.351645,-1.755806,-1.074735,0.0145833,0,0,9.212122,-0.1951931,-0.00680244,0.05546536,-0.4231534,4.384204,1.352929,-0.08472916,0.2641455,0.01754364,-1.186628,3.627605,0.1860338,-0.8762963,1.71691,-0.2220749,296.1645,66.71861,173.1124
2,1.822226,-0.1102067,-0.05617956,0.03463086,-1.566876,-1.351566,-1.754392,-1.074595,0.01268091,0,0,9.212122,-0.2072538,0.001018375,0.02158535,-0.4229622,4.386607,1.353406,-0.1009766,0.3036718,-0.006857859,-1.187211,3.634781,0.18496,-0.8778621,1.717955,-0.2221435,296.2682,66.64774,173.2785
2,1.833337,-0.1241713,-0.06798194,0.02097088,-1.565713,-1.351581,-1.752562,-1.0749,-0.02793971,0,0,5.69697,-0.2520287,0.04309812,-0.005247597,-0.4213872,4.390083,1.35456,-0.07127564,0.348637,-0.008243963,-1.186829,3.642848,0.1823008,-0.8794692,1.719049,-0.2222595,296.3351,66.71791,173.342
2,1.844448,-0.1402004,-0.08403521,0.01266625,-1.564242,-1.351572,-1.750441,-1.074743,0.01460208,0,0,5.69697,-0.2665897,0.07721041,0.004791077,-0.4193424,4.390255,1.357834,-0.06708961,0.3571681,-0.01467368,-1.186435,3.647406,0.1811847,-0.8810562,1.720121,-0.222501,296.4427,66.84535,173.3174
2,1.855559,-0.1422766,-0.09468135,0.01592194,-1.562971,-1.350982,-1.748745,-1.074347,0.03613884,0,0,5.69697,-0.2568728,0.06958006,0.0195308,-0.4185946,4.388753,1.361485,-0.1004327,0.3528897,-0.03885925,-1.186676,3.652309,0.1826681,-0.8826454,1.721162,-0.2228836,296.5533,67.00014,173.1758
2,1.86667,-0.1335511,-0.1137726,0.02974943,-1.561422,-1.349885,-1.747721,-1.074089,0.0233847,0,0,5.69697,-0.2355035,0.01051418,0.05928257,-0.4199171,4.383075,1.368589,-0.1156695,0.3528552,-0.07494505,-1.188016,3.656842,0.1827863,-0.8842695,1.72223,-0.223395,296.6099,67.17033,172.9649
2,1.877781,-0.1420985,-0.09353989,0.03295613,-1.561223,-1.349596,-1.745704,-1.074575,-0.04456528,0,0,2.545455,-0.2420433,-0.04499781,0.07914957,-0.4220013,4.378324,1.375706,-0.1189402,0.312423,-0.08879989,-1.189318,3.660223,0.1834441,-0.8859407,1.723421,-0.2240238,296.6077,67.35281,172.7279
2,1.888893,-0.1513534,-0.08065157,0.06709608,-1.56124,-1.347735,-1.743764,-1.075342,-0.06974287,0,0,2.545455,-0.2567434,-0.03433791,0.0911291,-0.4217632,4.374907,1.3822,-0.1125542,0.2506367,-0.1037608,-1.190716,3.660965,0.1842726,-0.8875141,1.724663,-0.2247284,296.6013,67.49146,172.5143
2,1.900004,-0.1726771,-0.06577615,0.06726274,-1.561234,-1.347144,-1.741394,-1.074449,0.0822312,0,0,2.545455,-0.2561607,-0.005844563,0.1243795,-0.4201744,4.369634,1.390064,-0.1223455,0.201614,-0.1367054,-1.19323,3.662328,0.1856412,-0.8889231,1.725899,-0.2254747,296.6265,67.60261,172.2955
2,1.911115,-0.19409,-0.05200669,0.0610481,-1.561199,-1.34669,-1.738451,-1.074441,1.52759E-05,0,0,2.545455,-0.2585889,-0.02488608,0.1104006,-0.4208503,4.367477,1.394967,-0.1242702,0.1866958,-0.1175115,-1.19357,3.6641,0.1864503,-0.8901819,1.727182,-0.2262006,296.6462,67.62828,172.1341
2,1.922226,-0.2207833,-0.0414339,0.05808514,-1.561102,-1.346224,-1.735225,-1.074113,0.03009778,0,0,2.545455,-0.2719822,-0.06183253,0.08042431,-0.4228056,4.367136,1.398699,-0.1058945,0.2208354,-0.07506543,-1.19206,3.668105,0.1857976,-0.8914496,1.728631,-0.2269328,296.8046,67.59009,172.0472
2,1.933337,-0.2303453,-0.04889045,0.06139545,-1.560509,-1.345548,-1.732003,-1.073619,0.04497909,0,0,1.939394,-0.2696687,-0.04805134,0.08796336,-0.4225425,4.364358,1.404137,-0.1153475,0.2751248,-0.04408468,-1.190575,3.672983,0.185674,-0.89293,1.730293,-0.2277002,297.0719,67.61771,171.919
2,1.944448,-0.2206438,-0.07015374,0.06563899,-1.559245,-1.344392,-1.73016,-1.073445,0.01571845,0,0,1.939394,-0.276697,-0.03009935,0.1137626,-0.4219667,4.359402,1.41194,-0.1374702,0.2921186,-0.01192654,-1.188862,3.676862,0.1864974,-0.8945654,1.732172,-0.2284636,297.2133,67.64814,171.8127
2,1.955559,-0.1992259,-0.08285367,0.0739821,-1.558091,-1.343081,-1.728612,-1.073614,-0.01551249,0,0,1.939394,-0.298587,-0.02063727,0.1492452,-0.4213616,4.352931,1.421852,-0.1524723,0.268646,-0.02777025,-1.189232,3.679354,0.1877667,-0.8960723,1.73413,-0.2291294,297.228,67.69595,171.7078
2,1.966671,-0.172212,-0.1018383,0.1046599,-1.556899,-1.340703,-1.727848,-1.075137,-0.1389549,0,0,1.939394,-0.33315,-0.01009788,0.1934193,-0.4205962,4.344266,1.434579,-0.1602167,0.2430522,-0.06392317,-1.190973,3.681461,0.1891894,-0.8972854,1.736125,-0.229674,297.2558,67.77604,171.6197
2,1.977782,-0.1817449,-0.1125061,0.1079966,-1.555515,-1.339212,-1.725358,-1.075617,-0.04266362,0,0,3.636364,-0.3500264,-0.002598882,0.2032727,-0.4200476,4.338258,1.444399,-0.1659625,0.1950844,-0.1203299,-1.194123,3.682558,0.1909798,-0.8982422,1.738113,-0.2302233,297.4738,67.8372,171.6238
2,1.988893,-0.2126908,-0.1349945,0.09774975,-1.553411,-1.338245,-1.721943,-1.076337,-0.06568147,0,0,3.636364,-0.3565122,-0.02496792,0.2084934,-0.4207805,4.331785,1.45452,-0.1545661,0.1460765,-0.1662278,-1.19735,3.682817,0.1923479,-0.8990431,1.740069,-0.2309124,297.7683,67.82729,171.6708
2,2.000004,-0.2444389,-0.1499313,0.114113,-1.551559,-1.336121,-1.718373,-1.074611,0.1582835,0,0,3.636364,-0.3302643,-0.06233299,0.1972194,-0.4224146,4.327403,1.461094,-0.1291119,0.1301375,-0.1813672,-1.199453,3.68416,0.1924672,-0.8998504,1.741949,-0.2318658,298.118,67.78902,171.6743
2,2.011115,-0.2828218,-0.1564337,0.1102798,-1.549801,-1.334753,-1.713854,-1.073515,0.09877011,0,0,3.636364,-0.3222019,-0.08776559,0.1734774,-0.4240701,4.324118,1.467524,-0.1438242,0.1460843,-0.1545982,-1.199887,3.686644,0.1936741,-0.9008653,1.743866,-0.233167,298.361,67.87054,171.5034
2,2.022226,-0.3103688,-0.1468559,0.1275715,-1.548678,-1.332711,-1.709513,-1.073389,0.01096201,0,0,3.636364,-0.3298016,-0.05978292,0.1450293,-0.4238341,4.322583,1.472853,-0.1595699,0.1641446,-0.1224875,-1.199596,3.689134,0.195256,-0.9020634,1.745869,-0.2347656,298.455,68.10617,171.1204
2,2.033337,-0.3157479,-0.1383544,0.1243925,-1.547668,-1.331428,-1.705981,-1.072666,0.06623399,0,0,3.030303,-0.3264624,-0.01065399,0.1283414,-0.4221041,4.320763,1.478112,-0.1548468,0.2046369,-0.05966889,-1.197316,3.692604,0.1956055,-0.9033477,1.748002,-0.2366117,298.4786,68.28987,170.7437
2,2.044448,-0.3308345,-0.1363199,0.1085631,-1.546263,-1.330604,-1.701822,-1.073002,-0.03111655,0,0,3.030303,-0.3274201,0.02246265,0.1179689,-0.4206793,4.318778,1.483609,-0.1374224,0.2291886,-0.01189326,-1.19518,3.695893,0.1953237,-0.9045474,1.750266,-0.2385468,298.4293,68.48153,170.2775
2,2.055559,-0.2911416,-0.1627813,0.128481,-1.543943,-1.328134,-1.699962,-1.074097,-0.09959935,0,0,3.030303,-0.3134745,0.05976504,0.1042516,-0.4188077,4.317557,1.48775,-0.1478438,0.2387536,0.01590019,-1.193496,3.698804,0.1961903,-0.9055114,1.752678,-0.2404087,298.4162,68.65345,169.7966
2,2.06667,-0.2838176,-0.1915892,0.1082717,-1.541082,-1.327134,-1.697211,-1.073758,0.03194224,0,0,3.030303,-0.2836166,0.07130988,0.09973305,-0.4175368,4.315599,1.491698,-0.165962,0.2365756,0.0150076,-1.193039,3.701328,0.1977959,-0.9062554,1.755174,-0.2420601,298.6057,68.89916,169.254
2,2.077781,-0.2838176,-0.1915892,0.1082717,-1.541082,-1.327134,-1.697211,-1.076032,-0.2081932,0,0,3.030303,-0.2836166,0.07130988,0.09973305,-0.4175368,4.315599,1.491698,-0.165962,0.2365756,0.0150076,-1.193039,3.701328,0.1977959,-0.9067364,1.75764,-0.2434226,298.8779,69.10131,168.8418
2,2.088892,-0.2467311,-0.2395388,0.07822152,-1.53479,-1.325544,-1.692483,-1.078097,-0.1871183,0,0,2.30303,-0.2493125,0.07628829,0.1142869,-0.4154893,4.3085,1.502612,-0.1646462,0.181166,0.03206593,-1.19122,3.703587,0.2011587,-0.9067022,1.759655,-0.2444725,299.2276,69.22015,168.582
2,2.100003,-0.2138242,-0.2597572,0.0619645,-1.531151,-1.32498,-1.691259,-1.072249,0.5359585,0,0,2.30303,-0.2418392,0.08906969,0.1079048,-0.4140592,4.306487,1.506971,-0.1614795,0.1492099,0.02139736,-1.191137,3.7042,0.202756,-0.906289,1.760938,-0.2451287,299.7328,69.45087,168.2068
2,2.111114,-0.1426914,-0.2905747,0.03043272,-1.526863,-1.325222,-1.692086,-1.075889,-0.3375521,0,0,2.30303,-0.2194294,0.1006608,0.1045346,-0.4124848,4.304223,1.510912,-0.1615824,0.1097891,0.001175463,-1.191708,3.704233,0.2047926,-0.9069427,1.762999,-0.246034,300.0269,69.74229,167.9021
2,2.122225,-0.09067969,-0.3096944,0.00651969,-1.522917,-1.325454,-1.692821,-1.076744,-0.07477298,0,0,2.30303,-0.1782874,0.1167063,0.06050017,-0.4106967,4.306408,1.50954,-0.1669103,0.09057999,-0.003021844,-1.191716,3.704497,0.206898,-0.907612,1.764757,-0.2469596,300.2824,70.11079,167.5814
2,2.133336,-0.05668705,-0.3256354,-0.006567106,-1.518687,-1.32545,-1.69322,-1.078623,-0.1716533,0,0,1.939394,-0.1466948,0.1327858,0.01977533,-0.4089539,4.309298,1.507605,-0.153902,0.1002078,0.02348532,-1.190275,3.705766,0.2077018,-0.9082599,1.765976,-0.2479029,300.5351,70.48566,167.1794
2,2.144447,-0.01633193,-0.3351698,-0.02186418,-1.514709,-1.325637,-1.69444,-1.078359,0.02530741,0,0,1.939394,-0.1242355,0.150765,0.01646198,-0.4066988,4.309551,1.507982,-0.1377609,0.1087672,0.04571514,-1.188579,3.707138,0.2084837,-0.9089487,1.766383,-0.2487857,300.8449,70.97261,166.5451
2,2.155558,0.03047344,-0.354278,-0.03298711,-1.509656,-1.326419,-1.696167,-1.077559,0.07244819,0,0,1.939394,-0.07641813,0.183693,-0.01366491,-0.4036862,4.312648,1.504467,-0.1267781,0.1279739,0.0871703,-1.185779,3.708719,0.2090984,-0.9099392,1.766092,-0.2496411,300.9797,71.35056,166.0277
2,2.166669,0.07917452,-0.3745172,-0.06750865,-1.504666,-1.327584,-1.698526,-1.077948,-0.03637253,0,0,1.939394,-0.0354512,0.1730994,-0.05684891,-0.4022348,4.31834,1.498213,-0.1079028,0.1365612,0.1722262,-1.180704,3.709622,0.2097141,-0.9113087,1.76532,-0.2505405,300.8255,71.70528,165.6281
2,2.17778,0.1207762,-0.388247,-0.06469817,-1.499816,-1.327574,-1.701021,-1.078183,-0.02136234,0,0,1.939394,-0.008327447,0.1433195,-0.08724292,-0.4019019,4.323296,1.493157,-0.09257658,0.138735,0.2168332,-1.176515,3.710337,0.2100877,-0.9128802,1.764049,-0.2514193,300.477,72.13881,165.1806
2,2.188891,0.1771514,-0.3753395,-0.07065547,-1.49594,-1.327904,-1.705031,-1.078468,-0.0261818,0,0,4.121212,0.0081276,0.1222007,-0.1248979,-0.4014726,4.330263,1.486099,-0.06361616,0.1484064,0.2421254,-1.172533,3.711612,0.2097458,-0.9145055,1.762381,-0.2522457,300.0379,72.77527,164.5675
2,2.200002,0.2431682,-0.3495898,-0.06717549,-1.49281,-1.328113,-1.709624,-1.078146,0.02930603,0,0,4.121212,0.03532977,0.1073642,-0.1583589,-0.4010103,4.337345,1.478377,-0.05640062,0.1569406,0.219691,-1.170549,3.713384,0.2095319,-0.9162109,1.760375,-0.2529975,299.7336,73.42424,163.9247
2,2.211113,0.2804308,-0.3494981,-0.06863403,-1.488733,-1.328429,-1.7137,-1.07921,-0.09786686,0,0,4.121212,0.03965686,0.1254898,-0.1635964,-0.3990843,4.342882,1.472782,-0.06556478,0.1696864,0.1590666,-1.170123,3.715967,0.2100443,-0.9180235,1.75819,-0.2537611,299.4379,73.83573,163.5433
2,2.222224,0.3391376,-0.3429094,-0.05648575,-1.485064,-1.328109,-1.719408,-1.079415,-0.01828129,0,0,4.121212,0.0495666,0.1605237,-0.1570342,-0.3962997,4.347723,1.467417,-0.05199026,0.1324268,0.121662,-1.169786,3.71622,0.2103482,-0.9197668,1.755652,-0.254502,299.1675,74.14114,163.2691
2,2.233335,0.3860813,-0.3363627,-0.04741248,-1.481483,-1.327836,-1.725118,-1.078409,0.09178511,0,0,2.060606,0.08190989,0.1825027,-0.1369868,-0.3937377,4.350291,1.463205,-0.04560454,0.09728515,0.1109624,-1.16873,3.715861,0.2108622,-0.9214952,1.752821,-0.2552597,298.8622,74.42456,163.0142
2,2.244446,0.4843168,-0.3051056,-0.01871634,-1.479213,-1.326633,-1.733878,-1.079383,-0.09030262,0,0,2.060606,0.09549725,0.2061374,-0.1731771,-0.3910458,4.359128,1.453514,-0.04764253,0.06851525,0.1120533,-1.167475,3.715308,0.2117594,-0.9232157,1.74981,-0.2560763,298.4581,74.82431,162.6443
2,2.255557,0.5270296,-0.2868334,-0.004312612,-1.476625,-1.325782,-1.74101,-1.07901,0.03461453,0,0,2.060606,0.1108154,0.2139842,-0.2340242,-0.3890149,4.372038,1.439928,-0.04748171,0.06106227,0.1269751,-1.165366,3.715438,0.2123426,-0.9248296,1.746551,-0.2569498,298.0866,75.22395,162.2625
2,2.266668,0.5718694,-0.2514967,0.01320138,-1.475071,-1.324804,-1.748964,-1.081335,-0.2133384,0,0,2.060606,0.1038239,0.1983897,-0.2756205,-0.3879065,4.384256,1.427686,-0.03772174,0.07814288,0.1513844,-1.162511,3.716448,0.2123677,-0.9264132,1.743098,-0.2579089,297.7336,75.55562,161.8898
2,2.277779,0.5890845,-0.1991422,0.04265857,-1.474689,-1.323392,-1.756084,-1.079357,0.1821919,0,0,2.060606,0.09244692,0.1872025,-0.3309819,-0.3870564,4.399154,1.413181,-0.02819608,0.111191,0.1555448,-1.160221,3.718494,0.2116025,-0.9279647,1.73922,-0.2589082,297.5102,75.71235,161.6362
2,2.28889,0.5795239,-0.1373144,0.06064352,-1.47548,-1.322189,-1.762384,-1.07931,0.002169091,0,0,1.454545,0.08875614,0.1864991,-0.3724952,-0.38594,4.414768,1.397856,-0.02194786,0.1570186,0.1544107,-1.157818,3.721687,0.2104022,-0.92975,1.735077,-0.2600319,297.1778,75.85365,161.3917
2,2.300001,0.5583365,-0.01790562,0.1019775,-1.479524,-1.320398,-1.76801,-1.077959,0.1233249,0,0,1.454545,0.07990551,0.2039139,-0.4106025,-0.3841082,4.431265,1.381936,-0.02402109,0.1729873,0.166145,-1.155205,3.723605,0.210133,-0.9317738,1.730642,-0.2612164,296.7533,75.99731,161.1168
2,2.311112,0.5530471,0.009819657,0.1125836,-1.48068,-1.319068,-1.774132,-1.076636,0.1195877,0,0,1.454545,0.08100379,0.2252862,-0.4200248,-0.381965,4.445141,1.368167,-0.0194847,0.1804605,0.1959325,-1.151575,3.725186,0.2094834,-0.9340036,1.726004,-0.2623809,296.144,76.01077,160.9566
2,2.322223,0.5797872,0.02485123,0.1260953,-1.481735,-1.317475,-1.781654,-1.075563,0.09698802,0,0,1.454545,0.08727497,0.2296071,-0.4328479,-0.3804022,4.460515,1.352733,-0.006812245,0.2060626,0.1979389,-1.148589,3.728049,0.2086238,-0.9363281,1.721343,-0.263423,295.3652,75.88593,160.9493
2,2.333334,0.6340982,0.03883918,0.1307564,-1.482312,-1.316917,-1.790259,-1.075883,-0.03006858,0,0,1.454545,0.09759244,0.2147706,-0.452263,-0.3799628,4.476299,1.336682,-0.008821473,0.2060577,0.2096774,-1.145526,3.729868,0.20795,-0.938573,1.716824,-0.2642308,294.555,75.4799,161.2981
2,2.344445,0.6831295,0.06458536,0.1397629,-1.484632,-1.315078,-1.799389,-1.077169,-0.1172919,0,0,1.454545,0.1123201,0.1901753,-0.4537024,-0.3799005,4.490602,1.32169,-0.02048197,0.1974998,0.2129892,-1.142706,3.731362,0.20795,-0.9406558,1.712556,-0.264886,293.9129,75.24441,161.6414
2,2.355556,0.7269744,0.06689848,0.1563609,-1.485936,-1.312822,-1.808816,-1.078224,-0.09566013,0,0,1.454545,0.1315726,0.1846455,-0.4443897,-0.3792166,4.503734,1.307426,-0.04185786,0.1739943,0.198294,-1.140771,3.732136,0.2088046,-0.9424338,1.708457,-0.2654535,293.4,75.0726,161.959
2,2.366668,0.7590881,0.037173,0.1625545,-1.485977,-1.310137,-1.818627,-1.078371,-0.01305217,0,0,1.454545,0.1210207,0.2167637,-0.4546572,-0.3773135,4.520207,1.291091,-0.06117003,0.1398476,0.1729178,-1.139708,3.732364,0.2100241,-0.9438459,1.704479,-0.2658918,292.923,75.04016,161.9897
2,2.377779,0.7579973,-0.005495161,0.1510213,-1.484558,-1.308388,-1.826684,-1.07823,0.01262497,0,0,1.454545,0.09230837,0.2768597,-0.4847313,-0.3743126,4.540725,1.272127,-0.0655328,0.1313101,0.1601873,-1.138059,3.733312,0.2105016,-0.9451719,1.700606,-0.2662067,292.707,74.67963,162.2523
2,2.38889,0.7451229,-0.004493862,0.1426287,-1.484872,-1.30715,-1.834514,-1.07816,0.006069539,0,0,0.8484849,0.08265662,0.2962398,-0.501506,-0.3724026,4.559857,1.253736,-0.03022069,0.1239624,0.1747486,-1.135624,3.734108,0.2094342,-0.94667,1.696635,-0.2666365,292.7206,74.00622,162.9853
2,2.400001,0.7293804,0.01686771,0.1714742,-1.486231,-1.304772,-1.842116,-1.076148,0.1836906,0,0,0.8484849,0.08285508,0.3078827,-0.4918199,-0.3705597,4.575997,1.23772,-0.0196643,0.1900348,0.1906346,-1.131746,3.738015,0.2080368,-0.9482292,1.692207,-0.2673382,292.6922,73.5646,163.5901
2,2.411112,0.7263181,0.03076449,0.1884996,-1.487532,-1.302516,-1.850093,-1.075548,0.05315197,0,0,0.8484849,0.09248486,0.3109999,-0.4897756,-0.3690092,4.592825,1.220702,-0.03450049,0.2251461,0.2099495,-1.128093,3.741314,0.2075143,-0.9500664,1.687353,-0.2684794,292.4099,73.52596,163.6875
2,2.422223,0.7157662,0.05316325,0.2034454,-1.489469,-1.30021,-1.857922,-1.075105,0.04013097,0,0,0.8484849,0.09459269,0.3024371,-0.4866741,-0.3679626,4.609486,1.204018,-0.0275481,0.227312,0.2674132,-1.122834,3.743232,0.2069042,-0.9521971,1.682324,-0.2699527,291.7328,73.56882,163.4998
2,2.433334,0.6943328,0.07225537,0.1972059,-1.491332,-1.298794,-1.864808,-1.075412,-0.02837026,0,0,0.8484849,0.08379149,0.2908378,-0.4919726,-0.3674417,4.626996,1.187198,-0.003875107,0.2231288,0.2906299,-1.118438,3.744704,0.2055135,-0.9545056,1.67726,-0.2716321,290.8774,73.37264,163.495
2,2.444445,0.6612065,0.07746613,0.1890151,-1.492869,-1.297255,-1.871338,-1.075266,0.01357194,0,0,1.575758,0.06605566,0.3046201,-0.4682129,-0.3656025,4.642913,1.172139,0.009184271,0.229587,0.319247,-1.113555,3.746864,0.2040738,-0.9567478,1.672269,-0.2733712,289.9626,73.16996,163.5111
2,2.455556,0.6397678,0.07627308,0.1774623,-1.493483,-1.296731,-1.877846,-1.074369,0.08193629,0,0,1.575758,0.05261356,0.3119348,-0.4381669,-0.3636413,4.657649,1.158155,0.02195098,0.2306976,0.3159221,-1.109704,3.749129,0.202355,-0.9588352,1.667481,-0.2750545,289.1291,72.9693,163.5306
2,2.466667,0.5927776,0.08036853,0.1672936,-1.494844,-1.295398,-1.883159,-1.073968,0.03596273,0,0,1.575758,0.03489512,0.3085774,-0.402828,-0.3618948,4.670024,1.146795,0.04202209,0.2041219,0.290163,-1.106993,3.750188,0.2007706,-0.9607128,1.663064,-0.276562,288.364,72.84012,163.4848
2,2.477778,0.5331278,0.06635499,0.1658351,-1.495569,-1.293728,-1.88729,-1.074103,-0.01251031,0,0,1.575758,0.03181601,0.2892512,-0.3816475,-0.3611225,4.682845,1.134502,0.05360974,0.1924454,0.2730051,-1.104182,3.751678,0.1991994,-0.9623477,1.659182,-0.2778164,287.6657,72.74683,163.4506
2,2.488889,0.4787629,0.05553593,0.1600469,-1.496314,-1.292292,-1.890891,-1.073017,0.09955114,0,0,2.181818,0.04148766,0.2709275,-0.3637989,-0.3604397,4.694595,1.122709,0.05644923,0.1892503,0.2356907,-1.102466,3.753607,0.197581,-0.9636253,1.655846,-0.2787383,287.1485,72.80906,163.3293
2,2.5,0.399875,0.004130483,0.1429435,-1.49492,-1.290865,-1.892819,-1.071932,0.09854925,0,0,2.181818,0.04904911,0.2440521,-0.3396006,-0.3600903,4.704524,1.112484,0.05199847,0.1668529,0.2091146,-1.100696,3.754486,0.1967836,-0.964798,1.653144,-0.2794323,286.9333,72.51152,163.6269
2,2.511111,0.3305329,-0.04940583,0.1204253,-1.492814,-1.289502,-1.894304,-1.071665,0.02385886,0,0,2.181818,0.04818851,0.2214354,-0.3088777,-0.359613,-1.570278,1.104167,0.06159316,0.150902,0.2047628,-1.098393,3.755252,0.1954281,-0.9660101,1.651109,-0.280092,286.8571,71.95196,164.2698
2,2.522222,0.2867433,-0.0783578,0.1039342,-1.491028,-1.288447,-1.896017,-1.070421,0.1139676,0,0,2.181818,0.05481142,0.1644821,-0.2550943,-0.3602607,-1.567404,1.100768,0.09039736,0.128612,0.2034243,-1.096019,3.755384,0.1934632,-0.9671146,1.649574,-0.2807442,286.8318,71.6494,164.6359
2,2.533333,0.2183673,-0.1116736,0.07915676,-1.488422,-1.28816,-1.895904,-1.070371,0.003981924,0,0,2.181818,0.06376988,0.1127406,-0.1874297,-0.3604471,-1.568144,1.100462,0.1021834,0.1126646,0.2043806,-1.093543,3.755685,0.19173,-0.9682088,1.648549,-0.2814787,286.8098,71.81215,164.4812
2,2.544444,0.1905648,-0.1192534,0.06669084,-1.487038,-1.287267,-1.897341,-1.071178,-0.07327008,0,0,0.969697,0.06198706,0.08361051,-0.1407694,-0.3605121,-1.568134,1.099783,0.08495098,0.08916932,0.1779212,-1.092439,3.755687,0.191362,-0.9690681,1.647899,-0.2822514,286.7879,72.22787,164.0343
2,2.555555,0.1550225,-0.1194099,0.0351072,-1.486397,-1.287644,-1.896952,-1.07004,0.1050702,0,0,0.969697,0.05586049,0.07705432,-0.1141131,-0.3599134,-1.565544,1.097012,0.07626246,0.06249842,0.1524558,-1.091593,3.755165,0.1910608,-0.9696476,1.647507,-0.2830009,286.7981,72.64314,163.5155
2,2.566666,0.1268781,-0.1217826,-0.008264866,-1.484455,-1.288525,-1.897314,-1.071921,-0.1725857,0,0,0.969697,0.04558092,0.05331783,-0.0683746,-0.3597339,-1.568045,1.099216,0.06857591,0.01666451,0.1120414,-1.091851,3.753834,0.1911084,-0.9699801,1.647493,-0.2836832,286.7339,73.18799,162.849
2,2.577777,0.1148755,-0.1229928,-0.03583848,-1.482525,-1.289302,-1.898151,-1.070903,0.09492625,0,0,0.969697,0.04272772,0.04454302,-0.03431984,-0.3591624,-1.569231,1.099904,0.06316084,0.00598266,0.1014621,-1.091207,3.753131,0.1908344,-0.9700886,1.647623,-0.284224,286.9962,73.56976,162.3036
2,2.588888,0.0911088,-0.1221364,-0.06546158,-1.48006,-1.290804,-1.898014,-1.072,-0.1009517,0,0,3.515152,0.05689717,0.04957585,-0.009940268,-0.3581606,-1.569771,1.099335,0.05124423,0.002746627,0.08027254,-1.091066,3.752992,0.190726,-0.9702033,1.647834,-0.2845214,287.3024,73.78387,161.8481
2,2.599999,0.06436026,-0.1311383,-0.07453486,-1.524408,-1.181328,-1.955771,-1.072984,-0.08869304,0,0,3.515152,0.06017763,0.04949182,-0.002524784,-0.3576173,-1.569412,1.098264,0.04811171,-0.0004625656,0.08351427,-1.089789,3.752617,0.1901537,-0.9706473,1.648268,-0.2846493,287.5289,74.1256,161.4306
2,2.61111,0.04526084,-0.1346603,-0.08601376,-1.518357,-1.18097,-1.959495,-1.072472,0.04766451,0,0,3.515152,0.05822552,0.0354666,0.02082118,-0.3572519,4.711148,1.10017,0.05164047,-0.01003606,0.1143785,-1.087554,3.751646,0.189881,-0.9715163,1.648887,-0.2847286,287.6666,74.45634,161.2201
2,2.622221,0.02907221,-0.1282746,-0.0834672,-1.498822,-1.125906,-1.972754,-1.121342,-4.457425,0,0,3.515152,0.05420198,0.02570378,0.04636255,-0.3566037,4.707621,1.102949,0.04535276,-0.0164463,0.1240307,-1.085958,3.750851,0.1900578,-0.9664154,1.645129,-0.2861271,290.2794,61.93478,181.1355
2,2.633332,0.01934383,-0.1187526,-0.08450716,-1.496384,-1.127051,-1.971211,-1.09126,2.797327,0,0,3.515152,0.05965296,0.01700371,0.0622192,-0.3562159,4.704017,1.105504,0.03572758,-0.0281944,0.1166711,-1.085094,3.74985,0.1904666,-0.9470142,1.63238,-0.2982907,297.9491,67.92195,192.3187
2,2.644443,0.006139933,-0.1097835,-0.08956361,-1.538886,-1.17225,-1.956354,-1.090918,0.004734257,0,0,4.969697,0.06292349,0.0169292,0.06857266,-0.3556156,4.70175,1.106828,0.03456886,-0.04843579,0.1007022,-1.084824,3.748472,0.1907423,-0.9310073,1.619539,-0.3307045,297.3405,59.92217,193.4172
2,2.655554,-0.0080254,-0.08843153,-0.09597681,-1.538526,-1.175203,-1.952719,-1.077923,1.184824,0,0,4.969697,0.06323027,0.04240541,0.07943218,-0.3538696,4.700385,1.107367,0.03236797,-0.05589916,0.09113924,-1.084246,3.74741,0.1909478,-0.9243522,1.617892,-0.3414372,295.5208,95.77041,152.6814
2,2.666665,-0.01683381,-0.07552725,-0.0974834,-1.537509,-1.183634,-1.947954,-1.064949,1.176796,0,0,4.969697,0.06110729,0.0488378,0.07631356,-0.3528401,4.699451,1.107604,0.03020617,-0.05590618,0.08796437,-1.083506,3.746536,0.1911082,-0.9292549,1.622616,-0.353023,289.3584,79.16934,148.485
2,2.677776,-0.01817577,-0.05837695,-0.09545852,-1.537994,-1.185833,-1.943768,-1.07342,-0.7777934,0,0,4.969697,0.06418954,0.03497943,0.07510329,-0.352553,4.697175,1.108965,0.04722613,-0.05159135,0.08673906,-1.082498,3.74591,0.1902576,-0.9464613,1.635189,-0.3498788,282.3355,81.82861,128.1492
2,2.688887,-0.01303613,-0.0375267,-0.09473932,-1.530078,-1.188117,-1.942339,-1.073862,-0.03371124,0,0,8.242424,0.08113291,0.01887405,0.07583795,-0.3525008,4.694459,1.109999,0.04504859,-0.0580007,0.08036934,-1.081998,3.744608,0.1905039,-0.9626954,1.647855,-0.3324992,280.147,80.44913,131.6759
2,2.699998,-0.004979478,-0.02715506,-0.09422317,-1.523498,-1.193807,-1.936494,-1.074366,-0.04598211,0,0,8.242424,0.0894061,0.01042628,0.05968921,-0.3525807,4.694034,1.109101,0.03988551,-0.06333902,0.09533083,-1.080687,3.743333,0.1908429,-0.9737028,1.657104,-0.3079162,281.9355,68.51439,153.2657
2,2.711109,0.003470288,-0.02814247,-0.0922289,-1.523443,-1.195425,-1.935285,-1.077195,-0.2581834,0,0,8.242424,0.08275763,0.00529591,0.04161158,-0.3526792,4.694467,1.108173,0.03239575,-0.06549348,0.09114947,-1.079868,3.742236,0.1912267,-0.9775974,1.661548,-0.2826753,285.9566,56.53997,175.4709
2,2.72222,0.005446778,-0.03785756,-0.09355816,-1.519496,-1.199366,-1.933477,-1.073208,0.366789,0,0,8.242424,0.08689351,0.005353697,0.0309095,-0.3526686,4.694582,1.106954,0.03110222,-0.06230208,0.0687862,-1.080034,3.741632,0.1912094,-0.9767008,1.662012,-0.2643302,290.3096,52.54631,188.4674
2,2.733331,0.01285565,-0.04957438,-0.08620213,-1.517746,-1.20031,-1.931786,-1.07716,-0.364443,0,0,8.242424,0.09335309,0.01489936,0.03091804,-0.3519788,4.693995,1.106209,0.02354268,-0.06445152,0.05714353,-1.079861,3.740759,0.1915138,-0.9738183,1.659705,-0.2559433,292.4759,52.97604,191.9598
2,2.744442,0.01918001,-0.0603377,-0.08739414,-1.514553,-1.201566,-1.931453,-1.077043,0.01413759,0,0,4.848485,0.08925696,0.03836408,0.03115853,-0.3507569,4.694656,1.104731,0.02131038,-0.06872107,0.04544725,-1.079933,3.739736,0.1918275,-0.9718257,1.656961,-0.2561999,292.3596,53.63232,190.8742
2,2.755553,0.028655,-0.05819622,-0.08437104,-1.513333,-1.202971,-1.929976,-1.076697,0.03085915,0,0,4.848485,0.07973681,0.048017,0.03136176,-0.349786,4.694306,1.104525,0.01909766,-0.06979313,0.03694912,-1.079905,3.738847,0.1921441,-0.9701591,1.653703,-0.2636263,291.0445,54.72731,187.6592
2,2.766664,0.04141997,-0.05168307,-0.07841147,-1.512871,-1.207575,-1.929426,-1.077784,-0.09979095,0,0,4.848485,0.07321577,0.04387026,0.02288095,-0.3494856,4.694883,1.103418,0.01600318,-0.06659427,0.04763002,-1.079116,3.738121,0.1923228,-0.96903,1.650483,-0.2754304,289.0305,56.71006,181.9394
2,2.777775,0.04665217,-0.05382831,-0.07745643,-1.511335,-1.208813,-1.928564,-1.07651,0.1171922,0,0,4.848485,0.07091913,0.03865071,0.01220969,-0.3493614,4.695769,1.101921,0.02255365,-0.05911644,0.06673763,-1.077825,3.737295,0.192321,-0.9669175,1.64664,-0.2885465,287.1118,59.89611,174.8476
2,2.788886,0.05401406,-0.05397746,-0.07161334,-1.506042,-1.214947,-1.92696,-1.077215,-0.06565657,0,0,4.848485,0.06754375,0.0345168,-0.0005695317,-0.3493588,4.697253,1.099897,0.02576792,-0.04738759,0.07203065,-1.07693,3.736925,0.1920879,-0.9649589,1.643249,-0.3004755,285.217,64.94141,165.3763
2,2.799997,0.05914848,-0.05411649,-0.07402545,-1.502288,-1.218087,-1.925435,-1.076574,0.05904369,0,0,1.818182,0.06522192,0.02502474,-0.01020697,-0.3495452,4.698278,1.098444,0.02580888,-0.0473915,0.07628784,-1.07615,3.7361,0.1921905,-0.9636438,1.64105,-0.3087243,283.7926,70.79999,155.7906
2,2.811108,0.06767815,-0.04765955,-0.07202828,-1.502369,-1.219169,-1.926255,-1.07586,0.06462152,0,0,1.818182,0.07059522,0.01960263,-0.002855191,-0.3493636,4.697706,1.098059,0.0236707,-0.05272454,0.07418279,-1.075504,3.735065,0.1925436,-0.9632712,1.64011,-0.3129298,283.5628,73.94918,151.2285
2,2.822219,0.075083,-0.05194912,-0.06805037,-1.499949,-1.222172,-1.92582,-1.075577,0.02519688,0,0,1.818182,0.07511596,0.02260161,0.01736194,-0.3486648,4.695844,1.098818,0.02998396,-0.06761588,0.06133537,-1.075526,3.733727,0.1926118,-0.9633607,1.639725,-0.3135203,284.1947,74.27699,151.6663
2,2.83333,0.08035239,-0.03381924,-0.07040544,-1.499532,-1.22468,-1.926635,-1.077616,-0.1866488,0,0,1.818182,0.08984588,0.00229048,0.01382936,-0.3490664,4.694927,1.09827,0.03947134,-0.08356498,0.04527017,-1.075759,3.732178,0.1924722,-0.964177,1.640134,-0.3114586,284.6943,73.12814,154.1883
2,2.844441,0.08132914,-0.01667146,-0.07068415,-1.499982,-1.229058,-1.926269,-1.076508,0.1027791,0,0,1.575758,0.09385957,-0.006129682,-0.002267927,-0.3496379,4.69594,1.096133,0.0426422,-0.08568633,0.04204337,-1.0756,3.730936,0.1924517,-0.9656129,1.641165,-0.3075713,285.1698,70.9759,157.896
2,2.855552,0.08224645,0.005699091,-0.07825158,-1.50046,-1.23103,-1.9266,-1.077324,-0.07590619,0,0,1.575758,0.08769259,0.01302741,0.005426474,-0.3487292,4.696037,1.095276,0.03620675,-0.07611787,0.04104285,-1.075201,3.73028,0.1926592,-0.9672382,1.64242,-0.3028241,285.5762,68.98444,161.6958
2,2.866663,0.07152446,0.02271925,-0.08243733,-1.500854,-1.232304,-1.926958,-1.07616,0.1070007,0,0,1.575758,0.08056554,0.03853971,0.01850441,-0.3472805,4.69602,1.094646,0.02880041,-0.06868232,0.04857171,-1.074498,3.729559,0.1929636,-0.9689645,1.643934,-0.2978663,285.7722,68.03401,164.0009
2,2.877774,0.05648119,0.02908984,-0.08661765,-1.50072,-1.234496,-1.925909,-1.076354,-0.01880955,0,0,1.575758,0.08504597,0.04905636,0.03132325,-0.3461369,4.695124,1.09444,0.0363891,-0.07610999,0.05916079,-1.073554,3.728115,0.1929133,-0.9710814,1.645754,-0.2930323,286.0731,67.4757,165.4532
2,2.888885,0.04760965,0.03308615,-0.09872448,-1.495264,-1.241677,-1.922845,-1.07621,0.01327366,0,0,1.575758,0.0947427,0.0414196,0.04499714,-0.3455143,4.692878,1.095149,0.0352815,-0.08996809,0.04958153,-1.0737,3.726354,0.1932454,-0.9731303,1.64735,-0.2888137,286.6268,66.2078,167.8075
2,2.899997,0.03776517,0.02763939,-0.1107241,-1.49186,-1.248542,-1.920725,-1.07474,0.1342343,0,0,2.666667,0.1086819,0.03055885,0.05858807,-0.3451446,4.690109,1.096005,0.0330984,-0.1102185,0.03788741,-1.074037,3.724247,0.1939607,-0.9746845,1.648283,-0.2856101,287.1485,65.18176,169.8224
2,2.911108,0.02169676,0.01483414,-0.1191507,-1.490776,-1.251637,-1.920122,-1.072972,0.1605487,0,0,2.666667,0.1192678,0.006983101,0.06679361,-0.3452698,4.686743,1.097518,0.04142536,-0.1219169,0.01436608,-1.074987,3.72241,0.1941138,-0.9756828,1.648407,-0.2837177,287.4765,65.03719,170.7743
2,2.922219,0.002335778,-0.001241542,-0.129786,-1.487876,-1.256307,-1.917965,-1.073898,-0.08591651,0,0,2.666667,0.1225011,-0.009122521,0.0794083,-0.3452549,4.682336,1.100165,0.05207777,-0.1218844,0.0142614,-1.075099,3.720802,0.1939764,-0.9760774,1.647869,-0.2831894,287.4038,66.70987,169.5557
2,2.93333,-0.01908072,-0.005546853,-0.1370245,-1.487018,-1.258349,-1.916474,-1.075382,-0.1345716,0,0,2.666667,0.1234588,-0.01869665,0.07613379,-0.3453598,4.679317,1.101661,0.04877729,-0.1176354,0.00470894,-1.075473,3.719561,0.1941061,-0.9763293,1.647156,-0.2835816,287.0403,68.82075,167.0204
2,2.944441,-0.03946777,-0.002501756,-0.1444156,-1.48436,-1.26187,-1.914345,-1.074158,0.1130561,0,0,0.2424242,0.124549,-0.02407397,0.08140387,-0.3452677,4.675755,1.103566,0.04004086,-0.1166063,-0.01652008,-1.076722,3.718294,0.1946105,-0.9764304,1.646505,-0.2842686,286.5423,70.23627,164.7859
2,2.955552,-0.04806808,-0.0004050881,-0.1518967,-1.483137,-1.265251,-1.913498,-1.074509,-0.03319494,0,0,0.2424242,0.115034,-0.03368236,0.09314802,-0.3451563,4.671632,1.106489,0.02938778,-0.1241001,-0.01961855,-1.077455,3.7165,0.1954038,-0.9766421,1.646228,-0.2848337,286.1621,71.76641,162.5319
2,2.966663,-0.06427149,0.01542349,-0.1636512,-1.48092,-1.26959,-1.910908,-1.074143,0.03398316,0,0,0.2424242,0.0959255,-0.04215896,0.1039565,-0.3451521,4.666547,1.110849,0.02503107,-0.130507,-0.03129341,-1.078528,3.714799,0.1960931,-0.9769477,1.64629,-0.2850905,286.2062,72.42977,161.681
2,2.977774,-0.0837291,0.03030653,-0.1785236,-1.48074,-1.274236,-1.907698,-1.075423,-0.1173607,0,0,0.2424242,0.06543859,-0.03045268,0.1321033,-0.3440586,4.660726,1.116656,0.01748263,-0.123075,-0.03868602,-1.079528,3.71372,0.1965823,-0.9772106,1.646534,-0.2851879,286.381,72.81758,161.5396
2,2.988885,-0.1083629,0.03455192,-0.1880424,-1.480105,-1.279511,-1.90502,-1.073961,0.1348072,0,0,0.2424242,0.05507632,-0.02308838,0.152528,-0.343013,4.654242,1.122505,0.01961353,-0.1113512,-0.03551294,-1.079966,3.71281,0.1966529,-0.9774467,1.647063,-0.2849854,286.4094,73.53666,160.9173
2,2.999996,-0.1222421,0.0333786,-0.1879835,-1.47802,-1.2826,-1.902487,-1.073292,0.05991391,0,0,4.363636,0.05287687,-0.045513,0.1598409,-0.3433134,4.646566,1.129087,0.01536197,-0.1007105,-0.03121157,-1.080344,3.711982,0.1970012,-0.9776822,1.647858,-0.2843752,286.4938,74.51925,159.9275
2,3.011107,-0.1424985,0.02906162,-0.1910198,-1.476778,-1.285744,-1.900172,-1.073997,-0.06465076,0,0,4.363636,0.05162434,-0.06677639,0.1564895,-0.3437986,4.640498,1.134242,-0.008105733,-0.08800393,-0.02992631,-1.080884,3.711294,0.1982263,-0.9781888,1.649126,-0.283094,286.5283,75.46607,158.6945
2,3.022218,-0.161867,0.03849223,-0.2006264,-1.474334,-1.290907,-1.896217,-1.074176,-0.01569725,0,0,4.363636,0.02832997,-0.08062825,0.1768916,-0.3439909,4.631684,1.142977,-0.01563118,-0.08270124,-0.03517989,-1.081597,3.710596,0.1989815,-0.9792218,1.651196,-0.2810019,286.5432,76.1291,157.9865
2,3.033329,-0.1907006,0.06188309,-0.2068131,-1.474876,-1.294567,-1.893384,-1.07451,-0.0304522,0,0,4.363636,-0.02562954,-0.06873406,0.202131,-0.3429161,4.622842,1.153445,-0.02309331,-0.08698624,-0.03723415,-1.082281,3.709417,0.1999986,-0.9801517,1.653496,-0.2783257,286.8785,75.96429,158.8253
2,3.04444,-0.2366452,0.07882544,-0.2139043,-1.47462,-1.298884,-1.888507,-1.073219,0.1183835,0,0,5.818182,-0.05951616,-0.05793294,0.213271,-0.3420639,4.615021,1.162602,-0.02014571,-0.06354028,-0.05538631,-1.083541,3.709847,0.1998452,-0.9809761,1.655858,-0.2755113,287.4183,75.51647,160.1961
2,3.055551,-0.2730096,0.08310187,-0.2209911,-1.475803,-1.302567,-1.883283,-1.074199,-0.09052646,0,0,5.818182,-0.05959113,-0.06215684,0.2089712,-0.3420303,4.608593,1.169086,-0.02260613,-0.03478312,-0.07986828,-1.085044,3.710925,0.199662,-0.9819571,1.658318,-0.2730432,287.964,75.35096,161.2108
2,3.066662,-0.3316193,0.09254608,-0.217257,-1.474912,-1.306323,-1.876707,-1.072533,0.1534264,0,0,5.818182,-0.05834353,-0.08263114,0.2364889,-0.3421736,4.597012,1.180596,-0.02490313,-0.02840076,-0.09476174,-1.086593,3.711177,0.1998977,-0.9832489,1.660906,-0.2711148,288.3745,75.0535,162.0327
2,3.077773,-0.3784547,0.0903566,-0.2167681,-1.474896,-1.309551,-1.871159,-1.072182,0.03084049,0,0,5.818182,-0.05574748,-0.09474272,0.2832426,-0.3416505,4.582149,1.1951,-0.03673255,-0.05082919,-0.111689,-1.088688,3.709665,0.2016178,-0.9844182,1.663411,-0.2695937,288.5389,75.09017,162.2485
2,3.088884,-0.4157287,0.06467745,-0.2153295,-1.472819,-1.312986,-1.864271,-1.071191,0.09076194,0,0,5.818182,-0.0514991,-0.1054684,0.2884317,-0.3418567,4.571067,1.205964,-0.05582367,-0.07858387,-0.1114847,-1.090102,3.707947,0.20373,-0.9852165,1.665758,-0.2683104,288.6542,75.13028,162.398
2,3.099995,-0.4157608,0.01672837,-0.222867,-1.470147,-1.317864,-1.859051,-1.072457,-0.1163014,0,0,4.242424,-0.07064581,-0.1182033,0.2981313,-0.3424165,4.55982,1.21784,-0.0662947,-0.09033351,-0.09646372,-1.090912,3.706516,0.2054815,-0.9857816,1.668321,-0.2675415,288.6839,75.32896,162.5578
2,3.111106,-0.4073187,-0.03336556,-0.2399159,-1.467292,-1.320911,-1.855198,-1.071681,0.07240988,0,0,4.242424,-0.08527893,-0.1097304,0.3175485,-0.3417885,4.547824,1.23062,-0.0694309,-0.08075026,-0.08683425,-1.091419,3.706117,0.2065763,-0.9863088,1.671391,-0.2672952,288.7863,75.86362,162.1462
2,3.122217,-0.4138748,-0.0899732,-0.2579105,-1.461982,-1.324528,-1.849418,-1.073715,-0.1865012,0,0,4.242424,-0.09872723,-0.08850468,0.3391886,-0.3405815,4.534982,1.244274,-0.07257897,-0.03389493,-0.06657574,-1.091352,3.707224,0.2071029,-0.98673,1.675004,-0.2673249,288.9554,76.97874,160.8165
2,3.133328,-0.4343646,-0.1262861,-0.286383,-1.458528,-1.328336,-1.843798,-1.075327,-0.1456032,0,0,4.242424,-0.09215513,-0.0608459,0.3382648,-0.339291,4.525012,1.254406,-0.06620419,-0.01150427,-0.060248,-1.091722,3.707875,0.2074664,-0.9871707,1.679107,-0.2672009,289.4152,78.33821,159.024
2,3.144439,-0.4581,-0.1487645,-0.3127733,-1.454854,-1.332977,-1.83687,-1.073692,0.1505766,0,0,4.242424,-0.08645996,-0.03330921,0.35334,-0.3375227,4.512643,1.26687,-0.06506759,0.00980768,-0.04641406,-1.091623,3.708786,0.2077138,-0.9873174,1.683043,-0.2667081,290.2136,78.89092,158.3851
2,3.15555,-0.4698487,-0.1509133,-0.3180447,-1.452016,-1.337129,-1.831226,-1.073792,-0.01050839,0,0,5.69697,-0.08104566,-0.01735006,0.3512779,-0.3361479,4.50179,1.27782,-0.07147157,0.01085288,-0.04741315,-1.092132,3.70903,0.2085956,-0.9873357,1.68668,-0.2660979,290.9782,79.35463,158.1617
2,3.166661,-0.487896,-0.1519904,-0.312512,-1.449521,-1.339904,-1.824869,-1.072814,0.08987942,0,0,5.69697,-0.07588188,0.009488896,0.3216065,-0.3344286,4.495164,1.284765,-0.08097795,0.005500186,-0.04092225,-1.092342,3.708917,0.2098811,-0.9875693,1.690183,-0.2654195,291.5271,80.02061,157.5776
2,3.177772,-0.5068788,-0.1487825,-0.298503,-1.447367,-1.342871,-1.81879,-1.074139,-0.1217356,0,0,5.69697,-0.06850958,0.01162928,0.3140791,-0.333432,4.485785,1.294354,-0.07655393,0.01191658,-0.02284876,-1.091808,3.709253,0.2103562,-0.9880607,1.693707,-0.2645158,291.7863,80.87266,156.6877
2,3.188883,-0.5087913,-0.1583246,-0.2803445,-1.444726,-1.344847,-1.812765,-1.0736,0.05047047,0,0,5.69697,-0.06329083,0.01059717,0.3054863,-0.3325063,4.476613,1.303556,-0.06783138,0.01407443,-0.001629844,-1.091158,3.709304,0.2108528,-0.9886399,1.697164,-0.2632964,292.074,81.47488,156.1953
2,3.199994,-0.4881048,-0.186955,-0.2485877,-1.441364,-1.346429,-1.808452,-1.073974,-0.03459718,0,0,4.242424,-0.05186763,-0.004266545,0.2892512,-0.3323731,4.468047,1.311883,-0.05494692,-0.001864634,0.003573174,-1.091035,3.708702,0.2113184,-0.9893517,1.700553,-0.2619313,292.4917,81.64106,156.325
2,3.211105,-0.4418834,-0.2208859,-0.2202978,-1.437502,-1.347745,-1.805467,-1.074099,-0.01099135,0,0,4.242424,-0.05181816,-0.0150027,0.2998158,-0.3318544,4.456569,1.323349,-0.05380035,-0.02529723,0.004633822,-1.091186,3.707505,0.2124614,-0.9901786,1.703776,-0.2605951,292.9623,81.60313,156.7311
2,3.222216,-0.382984,-0.2612205,-0.198477,-1.433074,-1.348142,-1.803193,-1.075835,-0.1586228,0,0,4.242424,-0.04867494,-0.01712903,0.2965653,-0.3313787,4.44698,1.332825,-0.05894906,-0.07218006,0.007886343,-1.091537,3.704959,0.2144582,-0.990941,1.706813,-0.2594768,293.258,81.64822,157.0914
2,3.233327,-0.3444173,-0.2898895,-0.1850122,-1.428686,-1.349198,-1.800657,-1.077237,-0.1269235,0,0,4.242424,-0.04552647,0.0182068,0.2712483,-0.3296003,4.441595,1.338237,-0.06107291,-0.08389761,0.004721306,-1.091727,3.703722,0.2157395,-0.9915375,1.709555,-0.2587601,293.5585,81.86774,157.2416
2,3.244438,-0.3178288,-0.2855976,-0.1885177,-1.425224,-1.350577,-1.797823,-1.077721,-0.0434334,0,0,4.242424,-0.03518113,0.04404013,0.2297888,-0.3280146,4.438814,1.340933,-0.03976263,-0.07530942,0.007705074,-1.091696,3.703049,0.2157507,-0.9918665,1.711828,-0.2585357,293.8744,82.20931,157.1251
2,3.255549,-0.2981899,-0.2897153,-0.1483583,-1.421543,-1.35168,-1.794951,-1.077282,0.04016883,0,0,2.30303,-0.03014082,0.05169718,0.2010324,-0.3269456,4.435037,1.344703,-0.02798399,-0.06460814,0.01611574,-1.091202,3.702789,0.2156692,-0.9919319,1.713497,-0.2588386,294.2015,82.6405,156.7235
2,3.26666,-0.250808,-0.273539,-0.1009899,-1.419219,-1.350615,-1.793921,-1.076704,0.0522644,0,0,2.30303,-0.03379268,0.04561692,0.1658667,-0.3265355,4.43338,1.346757,-0.02455536,-0.04435096,0.04590698,-1.08967,3.702676,0.2158487,-0.9919367,1.71462,-0.2596214,294.4818,83.22923,155.952
2,3.277771,-0.2186947,-0.2670546,-0.0897256,-1.41623,-1.351628,-1.79284,-1.07635,0.03175133,0,0,2.30303,-0.04454414,0.04896381,0.1564351,-0.3255949,4.428828,1.352106,-0.03715032,-0.04011667,0.06627523,-1.088294,3.702037,0.2170276,-0.9920998,1.715492,-0.2607227,294.473,83.99067,154.8158
2,3.288882,-0.1567419,-0.2530695,-0.07340774,-1.413926,-1.351331,-1.793309,-1.077616,-0.1161256,0,0,2.30303,-0.0584415,0.0651522,0.1428806,-0.3240684,4.42626,1.355723,-0.04348265,-0.04226546,0.07166506,-1.087443,3.701176,0.2181499,-0.9923575,1.716429,-0.2618895,294.2169,84.90352,153.5144
2,3.299993,-0.0915386,-0.2454626,-0.05607496,-1.411356,-1.351334,-1.794802,-1.077736,-0.01019804,0,0,1.333333,-0.05013141,0.07380702,0.1194157,-0.322822,4.425103,1.357021,-0.04339593,-0.04333344,0.08017726,-1.086638,3.700272,0.2190357,-0.9925327,1.717278,-0.2629645,294.1458,85.42536,152.7151
2,3.311104,-0.02956808,-0.2357341,-0.03867917,-1.409173,-1.350642,-1.796723,-1.07872,-0.09018889,0,0,1.333333,-0.04942408,0.08047404,0.08537228,-0.321793,4.426201,1.356529,-0.03685691,-0.05290492,0.09291244,-1.085248,3.698751,0.2200503,-0.9927401,1.718142,-0.2638271,294.2017,85.95486,151.9508
2,3.322215,0.03342335,-0.2525714,-0.02446135,-1.40676,-1.350584,-1.798424,-1.079445,-0.06589225,0,0,1.333333,-0.04189532,0.1103453,0.0738104,-0.3195351,4.426373,1.356586,-0.04015864,-0.05611341,0.08122694,-1.084915,3.697818,0.221049,-0.9929248,1.71866,-0.264404,294.5883,86.10358,151.6998
2,3.333326,0.08999255,-0.2748457,-0.02077951,-1.402985,-1.349916,-1.801698,-1.07931,0.01251336,0,0,1.333333,-0.02099879,0.116907,0.03526494,-0.3181604,4.429834,1.352932,-0.04544069,-0.05825873,0.08553399,-1.08414,3.696791,0.2223193,-0.9933247,1.718569,-0.2647775,295.0699,85.9324,151.8287
2,3.344437,0.1496374,-0.3035789,-0.02044374,-1.397426,-1.350719,-1.804223,-1.078647,0.05999494,0,0,1.333333,-0.007781856,0.1001264,-0.008709345,-0.3179223,4.435012,1.347706,-0.04748566,-0.03802106,0.1004643,-1.08253,3.696646,0.2230086,-0.9938357,1.717696,-0.264957,295.2213,85.92695,151.7961
2,3.355548,0.1763018,-0.3184947,-0.01448452,-1.392051,-1.352005,-1.80585,-1.079544,-0.08281788,0,0,0.1212121,0.0162623,0.08742752,-0.03999499,-0.3177737,4.439819,1.342276,-0.04323252,-0.0177696,0.1068051,-1.081137,3.696785,0.2234163,-0.9945642,1.716106,-0.2649444,295.1079,86.25465,151.4358
2,3.366659,0.2191073,-0.3311737,0.001053557,-1.388183,-1.350467,-1.810045,-1.078644,0.08272584,0,0,0.1212121,0.02099275,0.07924551,-0.08593007,-0.317811,4.448253,1.333842,-0.04939186,-0.0007377248,0.1356264,-1.078539,3.696824,0.2241452,-0.9956019,1.714052,-0.2651061,294.8114,86.58386,151.5891
2,3.37777,0.2372556,-0.3396979,0.002927348,-1.383446,-1.350404,-1.813227,-1.077284,0.1232587,0,0,0.1212121,0.01772752,0.09966261,-0.1038269,-0.3162461,4.454521,1.327888,-0.06312586,0.01305411,0.1528073,-1.076218,3.696528,0.2256875,-0.9966027,1.711412,-0.2659431,294.4368,87.2076,151.7938
2,3.388881,0.2543068,-0.3449994,0.002752349,-1.379552,-1.349375,-1.816901,-1.07883,-0.1426194,0,0,0.1212121,0.0232057,0.1337746,-0.1110681,-0.3139622,4.461305,1.320982,-0.06417713,0.01622497,0.1560178,-1.074481,3.695967,0.2268148,-0.9976584,1.708601,-0.2674478,293.9173,88.47388,150.6495
2,3.399992,0.2660796,-0.3438997,0.00578253,-1.375947,-1.348726,-1.820632,-1.077873,0.08843401,0,0,-0.4848485,0.03386167,0.1518938,-0.1216899,-0.3121693,4.467877,1.313944,-0.05663672,0.01305389,0.1634014,-1.072463,3.695475,0.2274174,-0.9986003,1.705663,-0.2693114,293.4825,89.55095,149.1831
2,3.411103,0.2810445,-0.3417239,0.008793578,-1.37255,-1.347786,-1.824672,-1.077677,0.01680873,0,0,-0.4848485,0.06678963,0.1388814,-0.1221781,-0.311544,4.47277,1.307493,-0.05546231,0.007738654,0.1729768,-1.070281,3.694909,0.2283067,-0.9995515,1.70276,-0.2713748,293.1471,90.62373,147.6322
2,3.422215,0.3118193,-0.3299893,0.003014177,-1.368788,-1.348253,-1.828437,-1.07746,0.01962313,0,0,-0.4848485,0.09104989,0.1099767,-0.125896,-0.3117518,4.477663,1.301002,-0.06514351,-0.02318897,0.1539036,-1.069573,3.693189,0.2301829,-1.000325,1.699886,-0.2732869,292.8102,91.72193,146.0372
2,3.433326,0.3436206,-0.3320922,-0.01333096,-1.365276,-1.348231,-1.83349,-1.077378,0.007040057,0,0,-0.4848485,0.09628749,0.1142831,-0.136583,-0.3109816,4.484971,1.292833,-0.08011038,-0.02962281,0.1466011,-1.068333,3.692302,0.2320045,-1.000951,1.697171,-0.2748816,292.4956,92.74504,144.632
2,3.444437,0.3637301,-0.3374468,-0.02425211,-1.360564,-1.348593,-1.837753,-1.077082,0.02683109,0,0,-0.4848485,0.09006326,0.1291968,-0.1310604,-0.30947,4.490721,1.28657,-0.07261219,-0.01574892,0.1550463,-1.06632,3.692074,0.2326735,-1.00135,1.69461,-0.2759859,292.219,93.72044,143.3683
2,3.455548,0.3677315,-0.3513453,-0.05199132,-1.356011,-1.349341,-1.842113,-1.077944,-0.07927439,0,0,-0.2424242,0.08617376,0.1503656,-0.1116591,-0.3073794,4.494362,1.282374,-0.07161743,-0.001895741,0.1518347,-1.064668,3.692245,0.233262,-1.001639,1.692356,-0.2765125,292.0188,94.74402,142.1567
2,3.466659,0.3516532,-0.3780351,-0.06452972,-1.350798,-1.349056,-1.845522,-1.077026,0.08441964,0,0,-0.2424242,0.1012584,0.1480002,-0.09587391,-0.3059951,4.497421,1.277873,-0.06427743,-0.005071528,0.1389785,-1.063649,3.691812,0.2338868,-1.001951,1.690315,-0.2765146,292.0449,95.29859,141.634
2,3.47777,0.3397781,-0.3833725,-0.07832164,-1.346481,-1.35057,-1.848343,-1.076816,0.01823067,0,0,-0.2424242,0.1203335,0.1318755,-0.09516984,-0.3056212,4.50189,1.271573,-0.06966601,-0.02213986,0.1273132,-1.062973,3.690491,0.2354802,-1.00244,1.688386,-0.2762092,292.1458,95.65249,141.4925
2,3.488881,0.3396976,-0.3919166,-0.08682186,-1.341652,-1.350508,-1.852092,-1.075447,0.1249612,0,0,-0.2424242,0.1309581,0.1243275,-0.09322543,-0.3048803,4.506135,1.265661,-0.08029883,-0.06265441,0.116782,-1.062518,3.687869,0.2380496,-1.003084,1.686432,-0.2756971,292.1741,96.12202,141.2547
2,3.499992,0.345845,-0.3919339,-0.09878084,-1.336527,-1.353062,-1.85433,-1.075012,0.03864848,0,0,-0.2424242,0.1291389,0.1316199,-0.07077052,-0.3031274,4.508004,1.262591,-0.08759136,-0.06480508,0.1328257,-1.060887,3.686471,0.2399607,-1.003872,1.684467,-0.2751322,292.0628,96.86077,140.7015
2,3.511103,0.3327473,-0.3994338,-0.119993,-1.331853,-1.354785,-1.856289,-1.075529,-0.04754617,0,0,0,0.1208681,0.1518385,-0.06091838,-0.3009713,4.511599,1.258151,-0.07801109,-0.05518707,0.1337882,-1.059525,3.685857,0.240615,-1.004847,1.682601,-0.2744998,291.8894,97.82267,139.8262
2,3.522214,0.2973246,-0.3995482,-0.1430674,-1.32685,-1.356202,-1.857907,-1.074658,0.08010272,0,0,0,0.1169611,0.1666059,-0.03944302,-0.2986464,4.513156,1.255519,-0.067463,-0.04876427,0.1251594,-1.058544,3.68521,0.2412882,-1.005674,1.680676,-0.273792,291.6779,98.78564,139.0368
2,3.533325,0.2748463,-0.3911169,-0.1504308,-1.321426,-1.358456,-1.859659,-1.074126,0.04796591,0,0,0,0.1309447,0.153572,-0.02053942,-0.2973526,4.513455,1.253285,-0.05681846,-0.03807099,0.1271831,-1.057151,3.684834,0.2417532,-1.00622,1.678675,-0.2729495,291.5545,99.98212,138.0011
2,3.544436,0.2557098,-0.3772834,-0.1449272,-1.317494,-1.358776,-1.861725,-1.073771,0.03217665,0,0,0,0.1384159,0.1395934,-0.01115315,-0.2962692,4.513965,1.251015,-0.05364385,-0.03806167,0.1250209,-1.055986,3.683992,0.2426526,-1.006976,1.676975,-0.2722186,291.5098,100.9224,137.208
2,3.555547,0.2547277,-0.3644794,-0.1375042,-1.313655,-1.359013,-1.864816,-1.074207,-0.04003771,0,0,0.969697,0.1350378,0.1108294,-0.009228062,-0.2961984,4.514873,1.248892,-0.04946776,-0.04230852,0.1143134,-1.055435,3.683146,0.2434007,-1.007876,1.675648,-0.2717189,291.4127,101.7611,136.6253
2,3.566658,0.2312588,-0.3421633,-0.1352629,-1.309577,-1.360692,-1.865961,-1.074219,-0.0005839697,0,0,0.969697,0.134786,0.08745549,-0.01687525,-0.2961595,4.516532,1.245828,-0.05269503,-0.05936525,0.1058268,-1.054879,3.681524,0.2449008,-1.008884,1.674678,-0.2715985,291.366,102.6261,136.0417
2,3.577769,0.2270901,-0.3187049,-0.1257141,-1.306504,-1.361258,-1.86851,-1.07528,-0.09708451,0,0,0.969697,0.1242994,0.08634313,-0.001848161,-0.2950846,4.516335,1.245003,-0.05706565,-0.0806842,0.0877635,-1.054888,3.679709,0.2465461,-1.009553,1.673808,-0.2716825,291.2709,103.3761,135.3812
2,3.58888,0.2250308,-0.3037731,-0.1172051,-1.303482,-1.361374,-1.870886,-1.073872,0.1296324,0,0,0.969697,0.1107957,0.09797251,0.020779,-0.2933733,4.514732,1.245758,-0.0614276,-0.09241902,0.07396015,-1.054913,3.678018,0.2482205,-1.009889,1.672958,-0.2719698,291.3015,103.9268,134.8368
2,3.599991,0.2133695,-0.2792584,-0.1097008,-1.301025,-1.361915,-1.872965,-1.074883,-0.09356736,0,0,0.969697,0.07945734,0.1373695,0.0502328,-0.2900955,4.512878,1.247627,-0.06456894,-0.09348567,0.07932009,-1.054068,3.676662,0.2497318,-1.009993,1.672123,-0.2723949,291.4031,104.578,134.0995
2,3.611102,0.1942233,-0.2643538,-0.1063407,-1.2984,-1.362409,-1.874649,-1.074776,0.010727,0,0,0,0.06036941,0.1567081,0.04635238,-0.2878126,4.514474,1.24601,-0.0559101,-0.07107712,0.09947543,-1.052189,3.676209,0.2502309,-1.009991,1.671338,-0.2728826,291.5192,105.0818,133.4274
2,3.622213,0.1548388,-0.2463008,-0.1006614,-1.29566,-1.363246,-1.874907,-1.074597,0.0162458,0,0,0,0.0546795,0.1388025,0.02602896,-0.2869838,4.516822,1.243365,-0.05052631,-0.04549013,0.1132645,-1.050377,3.676146,0.2506261,-1.009942,1.670535,-0.2733532,291.6113,105.4509,132.8841
2,3.633324,0.1346349,-0.2303331,-0.09414575,-1.293227,-1.364304,-1.87546,-1.074229,0.03356912,0,0,0,0.05960586,0.103724,0.01289646,-0.2870355,4.517928,1.241456,-0.04203901,-0.02308435,0.1163732,-1.048882,3.676427,0.2506245,-1.009994,1.66976,-0.2737795,291.6771,105.8402,132.3622
2,3.644435,0.1092881,-0.1972886,-0.06944317,-1.292169,-1.363912,-1.875903,-1.072982,0.1138067,0,0,0,0.05501359,0.08685875,-0.005300447,-0.2868389,4.52052,1.23849,-0.04850462,-0.0284288,0.1079227,-1.048031,3.675592,0.2518921,-1.010271,1.669059,-0.274144,291.7453,106.3093,131.795
2,3.655546,0.1083232,-0.1738108,-0.05783362,-1.290825,-1.364775,-1.877117,-1.073399,-0.0389282,0,0,2.060606,0.048662,0.08688019,-0.002031263,-0.2857439,4.521467,1.237218,-0.05598574,-0.03804293,0.102669,-1.047325,3.674445,0.253346,-1.010818,1.668529,-0.2744056,291.7523,106.9341,131.0934
2,3.666657,0.1095128,-0.1482062,-0.04299332,-1.290076,-1.364523,-1.878454,-1.073174,0.02115166,0,0,2.060606,0.02760225,0.1039838,0.009009797,-0.2839345,4.521907,1.237175,-0.05698197,-0.04123688,0.1090789,-1.045938,3.673369,0.2546392,-1.011445,1.668151,-0.2744806,291.6847,107.5092,130.5302
2,3.677768,0.1106117,-0.1343738,-0.0377539,-1.288313,-1.364948,-1.879594,-1.074437,-0.115591,0,0,2.060606,0.007416215,0.1180043,0.00510129,-0.2822589,4.52399,1.235653,-0.05379285,-0.03909642,0.1090467,-1.044855,3.67261,0.2555117,-1.011981,1.667899,-0.2744208,291.5584,107.7811,130.3945
2,3.688879,0.09789787,-0.1183935,-0.02912937,-1.287601,-1.364736,-1.880286,-1.074509,-0.005448811,0,0,2.060606,0.001148209,0.1275878,0.01057585,-0.28067,4.525237,1.234681,-0.04643754,-0.01350708,0.1068286,-1.043594,3.673177,0.2554528,-1.012431,1.667704,-0.2742718,291.5575,107.8545,130.4685
2,3.69999,0.08102972,-0.1056129,-0.01198934,-1.286469,-1.364888,-1.88074,-1.074552,-0.003987066,0,0,2.060606,0.00423168,0.1222921,0.004103754,-0.2795909,4.527191,1.23266,-0.05185154,-0.01246052,0.09835924,-1.042832,3.672834,0.2563889,-1.012692,1.667437,-0.2740988,291.5646,107.7603,130.7511
2,3.711101,0.07695265,-0.09920974,0.005065784,-1.285337,-1.364202,-1.881796,-1.074009,0.04972867,0,0,3.393939,0.003026672,0.1170471,-0.004446268,-0.2785752,4.529618,1.230347,-0.05397561,-0.02311941,0.09518883,-1.042053,3.671789,0.2575493,-1.012788,1.667022,-0.2740174,291.6097,107.7536,130.9324
2,3.722212,0.07174706,-0.08640386,0.01787677,-1.284963,-1.363362,-1.882692,-1.073919,0.007919723,0,0,3.393939,0.002979323,0.1085165,-0.003450517,-0.2777011,4.53067,1.229295,-0.04552649,-0.03374883,0.08445425,-1.04168,3.670797,0.2582747,-1.012904,1.666605,-0.2741464,291.604,107.8356,130.922
2,3.733323,0.07071953,-0.09279021,0.02003169,-1.283854,-1.362716,-1.88371,-1.074398,-0.04378067,0,0,3.393939,0.006071292,0.1107091,-0.01305269,-0.2764936,4.533677,1.226345,-0.04022672,-0.03053343,0.08227399,-1.040854,3.670347,0.2587328,-1.013178,1.666276,-0.2745623,291.6027,107.9585,130.8254
2,3.744434,0.06335385,-0.09919306,0.02752367,-1.282233,-1.362621,-1.884259,-1.07434,0.005731148,0,0,3.393939,0.009104937,0.100096,-0.02063337,-0.2759173,4.536305,1.223621,-0.03368547,-0.02731795,0.09712087,-1.03943,3.669614,0.2591317,-1.013419,1.665896,-0.2752171,291.5843,108.0655,130.7139
2,3.755545,0.06016605,-0.1109408,0.02645515,-1.280192,-1.3627,-1.884913,-1.074576,-0.02164228,0,0,6.909091,0.01750064,0.09477475,-0.02823617,-0.2752489,4.539465,1.220133,-0.02931828,-0.01983518,0.1098626,-1.037756,3.669258,0.2595088,-1.013458,1.665377,-0.2760024,291.5347,108.222,130.4725
2,3.766656,0.06335157,-0.1045441,0.02640493,-1.279376,-1.362093,-1.885899,-1.074359,0.02012086,0,0,6.909091,0.0183391,0.08208098,-0.0400699,-0.2751077,4.543035,1.216437,-0.03036728,-0.01451054,0.1130737,-1.036399,3.668854,0.2600955,-1.013354,1.664751,-0.2768681,291.5518,108.5208,130.0126
2,3.777767,0.08042154,-0.1098726,0.02616919,-1.277486,-1.362069,-1.88766,-1.074552,-0.0178471,0,0,6.909091,0.009980679,0.08202477,-0.026124,-0.2742071,4.543561,1.216097,-0.02822762,-0.02089609,0.1119888,-1.035354,3.668009,0.2607725,-1.013248,1.66412,-0.2777334,291.6246,108.9545,129.3645
2,3.788878,0.09216421,-0.1109145,0.02817332,-1.276415,-1.361263,-1.889314,-1.074768,-0.0194511,0,0,6.909091,-0.0004894398,0.09374595,-0.01738185,-0.2728313,4.544997,1.21508,-0.02730352,-0.02834867,0.0949257,-1.035171,3.667378,0.2613072,-1.013211,1.663541,-0.2785437,291.6855,109.3537,128.787
2,3.799989,0.09949222,-0.1184203,0.01638568,-1.274368,-1.360876,-1.890613,-1.075735,-0.08834063,0,0,6.909091,-0.001472708,0.09047951,-0.007810004,-0.2718395,4.545384,1.214867,-0.02218067,-0.03792623,0.07143965,-1.035318,3.666541,0.2618132,-1.013198,1.663009,-0.2792341,291.677,109.589,128.4443
2,3.8111,0.1005301,-0.11946,0.01637892,-1.273499,-1.360341,-1.891519,-1.075459,0.02602499,0,0,9.212122,0.001680825,0.08514013,-0.008945931,-0.2711524,4.546457,1.213562,-0.02438937,-0.03686559,0.06400399,-1.034892,3.666065,0.2624279,-1.013218,1.662451,-0.2797972,291.7133,109.7725,128.2251
2,3.822211,0.1004957,-0.1312278,0.01106614,-1.271092,-1.359849,-1.892834,-1.075127,0.03000319,0,0,9.212122,0.009077407,0.0819191,-0.01225516,-0.2704792,4.548357,1.211377,-0.02869446,-0.02942504,0.06085002,-1.034318,3.665768,0.2628883,-1.013201,1.661788,-0.2802308,291.7023,109.9008,128.123
2,3.833322,0.102592,-0.1386959,0.005726956,-1.269322,-1.359444,-1.89434,-1.074645,0.04383113,0,0,9.212122,0.01529169,0.07022829,-0.02094209,-0.270281,4.550553,1.208805,-0.02974639,-0.0273002,0.06297791,-1.03381,3.665275,0.2635091,-1.013124,1.660982,-0.2805896,291.6951,110.143,127.9222
2,3.844433,0.1100471,-0.1429642,0.003509559,-1.26742,-1.359052,-1.896171,-1.075032,-0.03576236,0,0,9.212122,0.01946527,0.06490768,-0.02529632,-0.2699561,4.552869,1.206205,-0.03727835,-0.0166713,0.05878858,-1.033293,3.665368,0.2641384,-1.013054,1.660103,-0.2808764,291.6901,110.3879,127.655
2,3.855544,0.1207597,-0.139735,0.008707687,-1.2662,-1.358346,-1.898173,-1.075296,-0.02379671,0,0,9.212122,0.01521038,0.06707677,-0.0262941,-0.2692536,4.554926,1.204185,-0.03275215,-0.03583096,0.07790902,-1.032306,3.663714,0.2648956,-1.0132,1.659248,-0.2812384,291.7044,110.6308,127.4393
2,3.866655,0.1228899,-0.1354975,0.008669544,-1.264546,-1.357706,-1.899892,-1.075611,-0.02860084,0,0,6.060606,-0.0005881302,0.08740056,-0.02274585,-0.2677324,4.55766,1.20212,-0.03602538,-0.006008877,0.08006944,-1.03104,3.664493,0.2650905,-1.013541,1.658478,-0.2817299,291.6408,111.0622,127.0465
2,3.877766,0.1132327,-0.1344641,0.002366874,-1.262988,-1.357612,-1.900852,-1.075654,-0.003779158,0,0,6.060606,-0.001633681,0.08952535,-0.02165394,-0.2668711,4.559938,1.200086,-0.03820682,0.0003764164,0.07689084,-1.030324,3.664605,0.2655611,-1.013887,1.657673,-0.2822301,291.581,111.5238,126.5585
2,3.888877,0.1035535,-0.1281054,-0.004999761,-1.26173,-1.357499,-1.901714,-1.07532,0.03044723,0,0,6.060606,0.008988395,0.08519067,-0.02181382,-0.2662255,4.561895,1.197729,-0.03510902,-0.001750033,0.0662035,-1.030061,3.66425,0.2659987,-1.014099,1.656773,-0.2826893,291.4861,111.8975,126.1684
2,3.899988,0.09835537,-0.1419517,0.00251754,-1.259649,-1.356891,-1.903193,-1.07466,0.06010182,0,0,6.060606,0.02378319,0.06269496,-0.01897329,-0.2663188,4.56202,1.196752,-0.03313911,0.002514051,0.05126807,-1.029987,3.664414,0.2661878,-1.014228,1.655839,-0.2831552,291.4149,112.307,125.7533
2,3.911099,0.0971976,-0.1281199,-0.003894962,-1.25868,-1.356823,-1.904264,-1.074511,0.01320127,0,0,4.121212,0.01941808,0.04887713,-0.01903182,-0.2662591,4.562636,1.196227,-0.04173232,-0.007108219,0.04070233,-1.029994,3.663809,0.2672133,-1.014364,1.654985,-0.2836425,291.3643,112.7963,125.2209
2,3.92221,0.0970856,-0.1228316,-0.01459525,-1.257017,-1.357425,-1.905405,-1.075006,-0.0452886,0,0,4.121212,0.007611215,0.04688038,-0.02530262,-0.2660301,4.564969,1.194275,-0.03963229,-0.01775614,0.03429206,-1.030002,3.663108,0.2679569,-1.014426,1.654239,-0.2840902,291.3088,113.2841,124.6793
2,3.933321,0.09490196,-0.112161,-0.01567207,-1.256392,-1.35755,-1.906044,-1.074841,0.01543191,0,0,4.121212,-0.0007617027,0.05432416,-0.01661549,-0.265139,4.565487,1.194117,-0.03318944,-0.0166725,0.03954885,-1.029495,3.662759,0.2682283,-1.014354,1.653566,-0.2844767,291.2984,113.6696,124.2556
2,3.944432,0.08634337,-0.111117,-0.01877695,-1.255155,-1.357471,-1.906718,-1.0751,-0.02378572,0,0,4.121212,-0.01331482,0.06388591,-0.00253976,-0.2639981,4.565279,1.194916,-0.03321693,0.002503533,0.04274054,-1.028756,3.663291,0.2683263,-1.014232,1.653019,-0.2848175,291.2965,113.9252,123.9776
2,3.955544,0.07042367,-0.1047423,-0.01437572,-1.254166,-1.357382,-1.907325,-1.074496,0.05546626,0,0,4.121212,-0.007851677,0.0701707,0.004909905,-0.2630452,4.565191,1.194798,-0.03221507,0.009965045,0.03846727,-1.028392,3.663656,0.2684549,-1.014064,1.652531,-0.2850527,291.3999,114.0861,123.7693
2,3.966655,0.06199811,-0.09940664,-0.004707865,-1.25339,-1.356784,-1.907891,-1.074443,0.004387049,0,0,4.848485,-0.000577312,0.04241417,0.005661835,-0.2634458,4.564239,1.19549,-0.0290926,-0.003876721,0.02672088,-1.028637,3.663116,0.268947,-1.013956,1.652079,-0.2851507,291.4851,114.0229,123.7656
2,3.977766,0.05460175,-0.08875102,0.0006577466,-1.252846,-1.356626,-1.908618,-1.074442,0.0001486254,0,0,4.848485,0.005612877,0.01896746,0.001140816,-0.2640668,4.563648,1.195599,-0.03347678,-0.01134272,0.01185477,-1.029054,3.66282,0.2696166,-1.014044,1.651792,-0.2852665,291.4498,114.1217,123.7214
2,3.988877,0.05143532,-0.0780931,0.004928535,-1.252461,-1.35627,-1.909191,-1.074315,0.01167181,0,0,4.848485,0.009868698,0.02001195,3.425591E-05,-0.2638426,4.564132,1.194882,-0.03247765,-0.02412561,0.001194563,-1.029629,3.662112,0.2703119,-1.014319,1.651722,-0.285491,291.3698,114.3786,123.5874
2,3.999988,0.04179686,-0.06210423,0.004994113,-1.252688,-1.356344,-1.908957,-1.074668,-0.03230537,0,0,4.848485,0.007901454,0.03060394,0.00867722,-0.262935,4.563117,1.196036,-0.02397515,-0.033691,-0.004213549,-1.029995,3.66136,0.2706113,-1.013785,1.651905,-0.2853419,291.2698,113.1606,124.7114
