loc,t,aDotS,bDotS,gDotS,aS,bS,gS,qE,qDotE,tpad,enable,emg,aDotSH,bDotSH,gDotSH,aSH,bSH,gSH,aDotUB,bDotUB,gDotUB,aUB,bUB,gUB,xHand,yHand,zHand,aHand,bHand,gHand
2,0,-0.4420438,-0.9389651,0.7545495,-1.428691,-0.7097761,-2.863872,-1.069015,-0.05734469,0,0,6.30303,-0.2516376,0.02023819,0.05969798,-0.5638295,-0.6562657,0.06551802,0.04439656,-0.06273793,-0.05622921,-0.6976965,3.803236,0.2425232,-0.6979138,1.162419,-0.3166349,309.3329,220.5126,353.3674
2,0.01111111,-0.4513901,-0.9146239,0.6821623,-1.431545,-0.6994505,-2.85956,-1.071358,-0.21294,0,0,6.30303,-0.2706336,0.03312743,0.06628481,-0.5648895,-0.6542151,0.06761393,0.04109017,-0.062792,-0.06042988,-0.6986702,3.802566,0.2432606,-0.6961301,1.164146,-0.3220767,308.9517,219.9567,353.2752
2,0.02222222,-0.4531592,-0.8508949,0.6191447,-1.434154,-0.6907425,-2.855602,-1.071503,-0.01110184,0,0,6.30303,-0.2823755,0.03322631,0.06429076,-0.5642146,-0.6535834,0.07063928,0.03205267,-0.05231769,-0.07083251,-0.699818,3.802646,0.2431192,-0.6930661,1.166301,-0.3285155,308.3797,219.4178,352.6486
2,0.03333334,-0.454771,-0.794539,0.5784728,-1.436898,-0.6826001,-2.851259,-1.072135,-0.05759103,0,0,5.454545,-0.2960439,0.0268088,0.08464581,-0.5626034,-0.6531381,0.0741464,0.02094874,-0.04509041,-0.0833403,-0.7011405,3.802413,0.2434276,-0.6891418,1.168615,-0.3355427,307.6932,218.5435,351.8101
2,0.04444445,-0.4471621,-0.6754126,0.5077026,-1.438884,-0.6779146,-2.846733,-1.073155,-0.09247711,0,0,5.454545,-0.3009841,0.0308792,0.1156081,-0.5605602,-0.6517884,0.07661462,0.01112724,-0.04739615,-0.09807518,-0.7028167,3.80212,0.2438846,-0.6847106,1.171016,-0.3424695,307.0313,217.5776,350.8185
2,0.05555556,-0.4444989,-0.5817842,0.4658552,-1.441579,-0.6732817,-2.842424,-1.073236,-0.006504548,0,0,5.454545,-0.2984713,0.03060436,0.1486043,-0.5577804,-0.6515791,0.07970894,-0.003631063,-0.06158505,-0.1106494,-0.7045147,3.800588,0.2457208,-0.6802245,1.17342,-0.3488341,306.4791,216.7138,349.839
2,0.06666667,-0.4429163,-0.5328994,0.4198706,-1.44322,-0.6679485,-2.838098,-1.073735,-0.04552815,0,0,5.454545,-0.2939239,0.02936447,0.1751184,-0.5559695,-0.6501107,0.0818717,-0.007546656,-0.07658681,-0.1149346,-0.7062203,3.79909,0.2470894,-0.6762675,1.175648,-0.3544533,306.0329,215.9842,348.946
2,0.07777778,-0.4436676,-0.4681084,0.3536375,-1.443937,-0.6644912,-2.833619,-1.074184,-0.04056522,0,0,9.454546,-0.2776605,0.01193388,0.2099523,-0.5525069,-0.6515077,0.08556364,-0.01441032,-0.09492269,-0.1127999,-0.7078421,3.796748,0.249196,-0.6732439,1.177696,-0.3590539,305.7093,215.4684,348.2008
2,0.08888889,-0.4612893,-0.420327,0.3046318,-1.444351,-0.66093,-2.828214,-1.074246,-0.005317612,0,0,9.454546,-0.2658417,-0.003173932,0.2299588,-0.5491289,-0.651414,0.08854025,-0.01957127,-0.1056706,-0.1212808,-0.7095225,3.794878,0.250845,-0.6713523,1.179542,-0.3626598,305.4701,215.2426,347.7746
2,0.1,-0.4901388,-0.3247798,0.2023864,-1.44331,-0.6606855,-2.82188,-1.074432,-0.01683832,0,0,9.454546,-0.2392833,-0.04291695,0.2474525,-0.5459624,-0.6554556,0.0937486,-0.02577674,-0.1259483,-0.1415423,-0.7122177,3.792703,0.2530192,-0.6705138,1.181186,-0.3654589,305.309,215.1167,347.7834
2,0.1111111,-0.4937049,-0.2992944,0.1714149,-1.443032,-0.6579989,-2.81647,-1.073618,0.07465959,0,0,9.454546,-0.2160361,-0.07078613,0.2490307,-0.5444518,-0.6593806,0.09904563,-0.02856924,-0.1514673,-0.1597887,-0.7151914,3.789745,0.2557628,-0.6704445,1.182808,-0.3673904,305.2151,215.0371,348.0268
2,0.1222222,-0.5089543,-0.1984735,0.04451364,-1.439808,-0.6604629,-2.809994,-1.073171,0.04025443,0,0,9.454546,-0.1788879,-0.1105623,0.2610767,-0.5414318,-0.6652012,0.104667,-0.0275902,-0.1960788,-0.1761008,-0.7186418,3.78515,0.2595059,-0.6709757,1.18453,-0.3686909,305.1943,215.0257,348.3676
2,0.1333333,-0.5076134,-0.1581811,-0.02808331,-1.436942,-0.6610658,-2.804337,-1.073934,-0.06987087,0,0,9.939394,-0.1333338,-0.1471104,0.2613389,-0.5387298,-0.6710377,0.1096991,-0.02763945,-0.2301886,-0.1763459,-0.721355,3.780146,0.2637472,-0.6720294,1.186536,-0.36949,305.1758,215.015,348.7506
2,0.1444445,-0.4513147,-0.1094446,-0.1438564,-1.431814,-0.6634467,-2.801064,-1.073778,0.01501998,0,0,9.939394,-0.106988,-0.1749364,0.2533599,-0.5365492,-0.6773058,0.1152984,-0.02363288,-0.2609453,-0.1809023,-0.7244619,3.775245,0.2675388,-0.6734205,1.188835,-0.370113,305.0221,215.0417,349.2303
2,0.1555556,-0.4110894,-0.07352238,-0.2690166,-1.425305,-0.6663405,-2.797364,-1.074462,-0.06258149,0,0,9.939394,-0.06253269,-0.2103713,0.2504597,-0.5340245,-0.6842417,0.1206305,-0.01763961,-0.2926382,-0.1940249,-0.7278808,3.770177,0.271652,-0.6749995,1.19159,-0.3704478,304.827,214.9181,349.7462
2,0.1666667,-0.4027905,-0.02483355,-0.3885858,-1.41798,-0.670471,-2.792083,-1.077167,-0.2468238,0,0,9.939394,-0.04443848,-0.2275977,0.2607846,-0.5308154,-0.6899419,0.1257523,-0.009952605,-0.3083104,-0.2060066,-0.7315634,3.765512,0.2749655,-0.6768444,1.194663,-0.3708003,304.4668,214.6984,350.3394
2,0.1777778,-0.4189409,0.04299961,-0.5026113,-1.41008,-0.6763348,-2.785984,-1.076952,0.02157537,0,0,11.15152,0.0003056824,-0.2739426,0.2886711,-0.5272436,-0.7002308,0.1330398,0.01160985,-0.3566471,-0.2131716,-0.7354602,3.758669,0.2791667,-0.6787197,1.197932,-0.3708569,303.8703,214.2352,351.0518
2,0.1888889,-0.4251827,0.08643419,-0.5868555,-1.402152,-0.6817192,-2.779899,-1.07532,0.1486598,0,0,11.15152,0.06003636,-0.3439853,0.3375156,-0.522485,-0.7134821,0.1419694,0.01748055,-0.3746008,-0.2123477,-0.7390496,3.75276,0.2831467,-0.6806316,1.201181,-0.3704523,303.2462,213.6352,351.7931
2,0.2,-0.43287,0.1489286,-0.707343,-1.392133,-0.6898003,-2.773406,-1.074558,0.06840997,0,0,11.15152,0.1389918,-0.4077812,0.386177,-0.5175209,-0.7286281,0.1509059,0.04607645,-0.4482757,-0.2251711,-0.7440978,3.742942,0.2889943,-0.6826614,1.204343,-0.3694893,302.8036,213.035,352.533
2,0.2111111,-0.4254826,0.1869786,-0.8140634,-1.381775,-0.6973935,-2.767311,-1.074506,0.00440975,0,0,11.15152,0.2222522,-0.4502242,0.4264359,-0.5124497,-0.7424898,0.158032,0.06233317,-0.4999359,-0.2365282,-0.7490801,3.733919,0.2945379,-0.6850326,1.207423,-0.3680636,302.5655,212.5095,353.3286
2,0.2222222,-0.4165871,0.2134303,-0.8792176,-1.371755,-0.7050352,-2.761545,-1.074664,-0.01448833,0,0,11.15152,0.2671229,-0.4805996,0.4555099,-0.507493,-0.7573487,0.1664955,0.07624942,-0.5400084,-0.2392166,-0.753852,3.724794,0.2999015,-0.6877643,1.210497,-0.3662673,302.4397,211.9969,354.3023
2,0.2333333,-0.4079977,0.2653826,-0.9710804,-1.360787,-0.7148361,-2.755096,-1.075107,-0.04029788,0,0,13.45455,0.327147,-0.5294315,0.515175,-0.5008506,-0.7749714,0.1763513,0.1090951,-0.6061748,-0.2414065,-0.7590632,3.713407,0.3061346,-0.6908996,1.213695,-0.3640002,302.371,211.348,355.4271
2,0.2444444,-0.4186439,0.3449833,-1.066026,-1.349296,-0.7268485,-2.747447,-1.075552,-0.04043413,0,0,13.45455,0.3860477,-0.5985697,0.5842704,-0.493838,-0.7962255,0.1891718,0.1362835,-0.6829159,-0.2755165,-0.7661424,3.701256,0.3124727,-0.6943809,1.217142,-0.3612368,302.291,210.726,356.6733
2,0.2555556,-0.4410434,0.4309669,-1.16405,-1.337571,-0.7404062,-2.738803,-1.075384,0.01564231,0,0,13.45455,0.4631168,-0.6924872,0.6721358,-0.4858415,-0.8228806,0.2050344,0.1645149,-0.7201862,-0.3083143,-0.7731689,3.69091,0.3173369,-0.6981213,1.220831,-0.3580866,302.1104,210.2072,357.9978
2,0.2666667,-0.4588934,0.4850717,-1.235404,-1.325699,-0.7534956,-2.729802,-1.074713,0.0612695,0,0,13.45455,0.5157641,-0.7434725,0.7382311,-0.4778659,-0.8483665,0.2200048,0.191645,-0.7459221,-0.3228748,-0.7798806,3.680386,0.321794,-0.7019885,1.224833,-0.3544695,301.9308,209.701,359.3409
2,0.2777778,-0.4952954,0.5667319,-1.349263,-1.312114,-0.7699977,-2.718994,-1.074161,0.05001753,0,0,10.66667,0.5671024,-0.8049859,0.7925537,-0.4699467,-0.877347,0.2376336,0.2203978,-0.7970943,-0.3472727,-0.7876427,3.668649,0.3271803,-0.7060684,1.229224,-0.3504227,301.7907,209.1671,0.6923098
2,0.2888889,-0.5194129,0.6038383,-1.411954,-1.299658,-0.7847867,-2.70872,-1.07389,0.02443388,0,0,10.66667,0.5716408,-0.8502094,0.8432287,-0.4627461,-0.9071115,0.257974,0.25618,-0.8257882,-0.3598897,-0.7951245,3.657103,0.3311745,-0.7104506,1.234044,-0.3459969,301.5849,208.6342,2.125967
2,0.3,-0.5684152,0.6471765,-1.511723,-1.285053,-0.8019001,-2.696028,-1.073213,0.06173505,0,0,10.66667,0.6093428,-0.8925025,0.9042517,-0.4541606,-0.9389741,0.2785832,0.3451921,-0.8697339,-0.4024441,-0.8045793,3.644881,0.3329878,-0.7150447,1.239318,-0.3412493,301.3352,208.0723,3.709976
2,0.3111111,-0.6152388,0.6851857,-1.607244,-1.270139,-0.819526,-2.682591,-1.073626,-0.03808177,0,0,10.66667,0.678378,-0.9663633,1.023279,-0.4432794,-0.9778989,0.3040989,0.3969399,-0.9183915,-0.3920619,-0.812139,3.631258,0.3366262,-0.7199821,1.245128,-0.3362156,301.1078,207.368,5.405727
2,0.3222222,-0.6372199,0.7084148,-1.671008,-1.25546,-0.8374667,-2.669298,-1.072318,0.1201441,0,0,10.66667,0.7371899,-1.042928,1.08805,-0.4341357,-1.020106,0.332109,0.4184642,-0.9530349,-0.3788765,-0.8195772,3.617752,0.3405315,-0.7251409,1.251446,-0.3309193,300.7525,206.6395,7.254963
2,0.3333333,-0.6712493,0.7293657,-1.766636,-1.239121,-0.8566287,-2.654505,-1.072106,0.01842058,0,0,9.090909,0.7869359,-1.129391,1.205074,-0.423302,-1.068759,0.3662225,0.4371406,-1.016322,-0.3935403,-0.8286282,3.602734,0.3454599,-0.730539,1.258339,-0.3254346,300.4885,205.808,9.235564
2,0.3444445,-0.7011582,0.7567143,-1.877205,-1.222076,-0.8775494,-2.638804,-1.072913,-0.0735616,0,0,9.090909,0.7808691,-1.176666,1.262318,-0.4142824,-1.115943,0.4010752,0.4534453,-1.116873,-0.4212305,-0.8393208,3.585347,0.3516038,-0.7360879,1.26591,-0.3197502,300.2391,204.8624,11.36813
2,0.3555556,-0.733184,0.7925889,-1.984585,-1.204513,-0.9002789,-2.62161,-1.072462,0.04211201,0,0,9.090909,0.7854671,-1.204397,1.399484,-0.4017922,-1.170115,0.4420235,0.5051292,-1.196033,-0.4621884,-0.8506946,3.568452,0.3557227,-0.7416359,1.274166,-0.3138442,299.902,203.8298,13.65311
2,0.3666667,-0.7562342,0.8168814,-2.052615,-1.187861,-0.922959,-2.604301,-1.072671,-0.0194042,0,0,9.090909,0.8074226,-1.225317,1.467285,-0.3914405,-1.225263,0.4831312,0.5367376,-1.24804,-0.5068586,-0.8628466,3.552361,0.3591917,-0.74707,1.283127,-0.3076768,299.5901,202.5483,16.15608
2,0.3777778,-0.7947141,0.8815032,-2.163208,-1.170191,-0.949899,-2.583844,-1.072487,0.01725838,0,0,9.090909,0.8495846,-1.243155,1.530581,-0.381435,-1.284147,0.5267136,0.5619045,-1.356492,-0.5837517,-0.8778397,3.533727,0.3643234,-0.7525101,1.292748,-0.3012009,299.2461,200.9275,18.87168
2,0.3888889,-0.8088506,0.9144224,-2.197289,-1.154549,-0.9751329,-2.564758,-1.072985,-0.04545885,0,0,7.272727,0.8840829,-1.244743,1.566392,-0.3726987,-1.343133,0.5705109,0.568597,-1.432683,-0.6312824,-0.892486,3.515282,0.3696185,-0.7581158,1.30298,-0.2943925,298.8648,199.2072,21.71583
2,0.4,-0.8370165,0.9291774,-2.241791,-1.13843,-1.001307,-2.54363,-1.072176,0.07462522,0,0,7.272727,0.8908429,-1.213997,1.579339,-0.3646262,-1.40015,0.613506,0.5748142,-1.471822,-0.6455392,-0.9061373,3.497683,0.3739004,-0.7638734,1.313709,-0.2872453,298.4335,197.4515,24.74426
2,0.4111111,-0.8691225,0.9334296,-2.273449,-1.1229,-1.027247,-2.5226,-1.073473,-0.1189175,0,0,7.272727,0.8503484,-1.192382,1.562895,-0.3590032,-1.457937,0.6593968,0.5832834,-1.496224,-0.627799,-0.9182681,3.480487,0.377938,-0.7698507,1.324933,-0.2797202,298.1022,195.7659,27.82221
2,0.4222222,-0.916158,0.9376144,-2.293231,-1.108225,-1.053643,-2.49957,-1.0726,0.08106834,0,0,7.272727,0.8037618,-1.175117,1.577422,-0.3530238,-1.518155,0.7085641,0.6087332,-1.508507,-0.5974722,-0.9296845,3.463067,0.3808618,-0.7757828,1.336543,-0.2718701,297.7216,194.1256,31.13153
2,0.4333333,-0.9790398,0.9375401,-2.295793,-1.09438,-1.080328,-2.474603,-1.073105,-0.04698336,0,0,10.30303,0.7389258,-1.128444,1.655224,-0.3450157,4.699437,0.7643296,0.6200819,-1.482842,-0.5698494,-0.9406562,3.447882,0.3830542,-0.7814862,1.348402,-0.263835,297.3999,192.4547,34.57836
2,0.4444444,-1.023637,0.946051,-2.283657,-1.081902,-1.107266,-2.449643,-1.072016,0.1002208,0,0,10.30303,0.7287699,-1.118003,1.691647,-0.3394923,4.631918,0.8203218,0.6045047,-1.451438,-0.55547,-0.9514793,3.433445,0.3853363,-0.786692,1.360408,-0.2557468,297.1484,190.7472,38.07222
2,0.4555556,-1.094745,0.9812164,-2.253213,-1.071709,-1.135299,-2.421908,-1.070797,0.1109098,0,0,10.30303,0.742539,-1.134153,1.694527,-0.3371978,4.563435,0.8758718,0.5786177,-1.447878,-0.5655806,-0.9638289,3.418375,0.3886322,-0.7914363,1.372498,-0.2478928,296.9684,189.0946,41.43757
2,0.4666667,-1.138174,1.001496,-2.232608,-1.06171,-1.163604,-2.39454,-1.071564,-0.07072715,0,0,10.30303,0.7131013,-1.137771,1.640514,-0.3370864,4.501307,0.9275421,0.5837342,-1.447485,-0.5660124,-0.978618,3.402656,0.3890282,-0.7957736,1.3847,-0.2405392,296.8503,187.5038,44.62889
2,0.4777778,-1.210207,1.023913,-2.189336,-1.053748,-1.19176,-2.364884,-1.070176,0.1281112,0,0,10.30303,0.6676091,-1.142292,1.579212,-0.3385384,4.440446,0.9789258,0.5846313,-1.449179,-0.5601398,-0.9905872,3.389338,0.3881134,-0.7995832,1.397036,-0.2337541,296.7156,185.7919,47.77672
2,0.4888889,-1.24067,1.044269,-2.15288,-1.046318,-1.220296,-2.336427,-1.071285,-0.102039,0,0,12,0.6219287,-1.144458,1.49451,-0.3415723,4.383643,1.026592,0.5779514,-1.423214,-0.5668386,-1.002143,3.378295,0.3866987,-0.8029588,1.409596,-0.227636,296.5793,184.0831,50.7466
2,0.5,-1.247623,1.051863,-2.101695,-1.040318,-1.248026,-2.308464,-1.069818,0.1352592,0,0,12,0.5918911,-1.126977,1.466232,-0.3443616,4.326373,1.074895,0.5517427,-1.38612,-0.5780831,-1.012595,3.367874,0.3856369,-0.8058321,1.42241,-0.2220706,296.4541,181.9508,53.95875
2,0.5111111,-1.247002,1.064822,-2.043171,-1.035533,-1.275663,-2.280834,-1.071757,-0.1779953,0,0,12,0.5397612,-1.056021,1.427959,-0.3460922,4.274393,1.119259,0.5426557,-1.357431,-0.5777676,-1.02334,3.356021,0.3853988,-0.80837,1.435497,-0.2170917,296.3126,179.6405,57.27091
2,0.5222223,-1.251814,1.070291,-1.990936,-1.031825,-1.302913,-2.252847,-1.07268,-0.0823695,0,0,12,0.4970622,-1.021407,1.399963,-0.3493029,4.222891,1.163606,0.545571,-1.31469,-0.5795628,-1.03432,3.344628,0.3850952,-0.8103378,1.448794,-0.2124055,296.2208,176.952,60.80938
2,0.5333334,-1.289546,1.100174,-1.924591,-1.030409,-1.329619,-2.223624,-1.07347,-0.07144824,0,0,17.33333,0.4391688,-0.9896935,1.348694,-0.3536997,4.175512,1.204947,0.550238,-1.260162,-0.5823486,-1.04497,3.334369,0.3839501,-0.8117922,1.462156,-0.2078533,296.1284,174.0493,64.53127
2,0.5444446,-1.352685,1.147198,-1.84528,-1.031231,-1.35655,-2.192801,-1.073319,0.01457827,0,0,17.33333,0.3953398,-0.9571682,1.316433,-0.3581893,4.129227,1.245436,0.5423098,-1.198786,-0.5614108,-1.054421,3.324634,0.3829817,-0.8128194,1.475418,-0.2033507,296.0756,171.0872,68.35498
2,0.5555557,-1.384742,1.168753,-1.745944,-1.03353,-1.3812,-2.163713,-1.072078,0.1133563,0,0,17.33333,0.3814821,-0.9088883,1.283939,-0.3624893,4.085309,1.282408,0.5266761,-1.145445,-0.5073431,-1.06223,3.314164,0.3826012,-0.813534,1.488433,-0.1987996,296.0854,168.1416,72.14684
2,0.5666668,-1.395409,1.17112,-1.643564,-1.036231,-1.403723,-2.136803,-1.070833,0.1133047,0,0,17.33333,0.3497505,-0.8552697,1.265529,-0.3665,4.042273,1.319787,0.5095962,-1.094043,-0.4767587,-1.070299,3.304614,0.3821167,-0.8140582,1.501178,-0.1942218,296.0589,165.5922,75.62036
2,0.577778,-1.389479,1.132937,-1.58705,-1.037684,-1.426371,-2.109936,-1.071686,-0.07843097,0,0,17.33333,0.3387936,-0.8175848,1.226574,-0.3713688,4.003533,1.352524,0.5112487,-1.065462,-0.4530429,-1.07846,3.294731,0.3810515,-0.8144674,1.51381,-0.1897679,295.9938,163.6223,78.64355
2,0.5888891,-1.3792,1.077737,-1.533794,-1.038542,-1.448158,-2.08412,-1.073224,-0.1395668,0,0,20.48485,0.3293706,-0.7933554,1.13205,-0.3774269,3.973741,1.376619,0.5099832,-1.053905,-0.4422417,-1.087051,3.284578,0.3801359,-0.8146669,1.526376,-0.1855603,295.9281,161.71,81.63068
2,0.6000003,-1.364872,1.043789,-1.489095,-1.040527,-1.469129,-2.058917,-1.073703,-0.0426072,0,0,20.48485,0.2918421,-0.7490387,1.084894,-0.3823277,3.943224,1.402997,0.4919167,-1.022458,-0.4448408,-1.095522,3.275866,0.3793084,-0.8144541,1.538771,-0.1816497,295.949,159.5296,84.81683
2,0.6111114,-1.353435,0.9779762,-1.42944,-1.041823,-1.488359,-2.034816,-1.074475,-0.07041422,0,0,20.48485,0.2767649,-0.6681548,1.110205,-0.3850356,3.905815,1.435051,0.4837569,-0.9777611,-0.4656267,-1.104595,3.268422,0.3775782,-0.8138681,1.550905,-0.1781007,296.1614,157.205,88.05273
2,0.6222225,-1.349796,0.945074,-1.387833,-1.044189,-1.507581,-2.010279,-1.074812,-0.03022815,0,0,20.48485,0.2758751,-0.632944,1.104102,-0.3893797,3.872015,1.463323,0.4741806,-0.9439405,-0.4662221,-1.112944,3.260745,0.3759965,-0.8128675,1.562699,-0.174891,296.5282,154.9385,91.07583
2,0.6333337,-1.351269,0.9154284,-1.332407,-1.047155,-1.525875,-1.986206,-1.075072,-0.02330496,0,0,20.48485,0.2544664,-0.6071023,1.084312,-0.3946016,3.840991,1.489942,0.4632453,-0.8932638,-0.4527607,-1.120206,3.253786,0.3742857,-0.811609,1.574147,-0.1719649,296.9285,152.6901,93.92574
2,0.6444448,-1.361816,0.8930851,-1.331214,-1.049764,-1.54569,-1.961135,-1.074633,0.04026988,0,0,22.54546,0.2129042,-0.5554165,1.052178,-0.3982805,3.813142,1.514741,0.4496244,-0.8245194,-0.4401863,-1.126806,3.248509,0.3720588,-0.8101538,1.585172,-0.1693098,297.3654,150.5464,96.63674
2,0.655556,-1.358569,0.8710338,-1.219322,-1.05457,-1.559658,-1.939379,-1.074574,0.005120065,0,0,22.54546,0.1811795,-0.4943196,1.033858,-0.4012963,3.78483,1.539829,0.4470621,-0.7819862,-0.4501852,-1.133788,3.242673,0.3697743,-0.8086618,1.595853,-0.1668968,297.8142,148.6577,99.04095
2,0.6666671,-1.380463,0.8445187,-1.179644,-1.058412,4.707448,-1.915695,-1.074348,0.02063868,0,0,22.54546,0.1917535,-0.46543,1.009464,-0.4053619,3.757734,1.562219,0.4356584,-0.6932741,-0.4001294,-1.138018,3.238511,0.366949,-0.8071767,1.60622,-0.1646818,298.3013,146.8966,101.3093
2,0.6777782,-1.383016,0.7956856,-1.118756,-1.061906,4.693202,-1.893272,-1.074728,-0.03494915,0,0,22.54546,0.1989498,-0.4556804,0.9817526,-0.4103079,3.732438,1.58284,0.4096509,-0.6658992,-0.3661467,-1.143183,3.231468,0.3666544,-0.8057548,1.616391,-0.1625549,298.8152,145.3748,103.2692
2,0.6888894,-1.372636,0.7320074,-1.049464,-1.064883,4.680524,-1.872375,-1.073922,0.07436419,0,0,28.36364,0.187106,-0.4590737,0.8806421,-0.415672,3.716661,1.59551,0.3581012,-0.6134786,-0.3497201,-1.148538,3.226212,0.3668896,-0.8042007,1.626324,-0.1605386,299.169,143.8104,105.3305
2,0.7000005,-1.35939,0.6820711,-1.006838,-1.067816,4.667871,-1.851531,-1.074222,-0.02821958,0,0,28.36364,0.1037805,-0.4458321,0.7623921,-0.4203826,3.706257,1.606583,0.305556,-0.566067,-0.3462908,-1.153759,3.222798,0.3665617,-0.8025683,1.636075,-0.1586618,299.6141,142.3616,107.2753
2,0.7111117,-1.339236,0.6301402,-0.9217809,-1.070786,4.657551,-1.832554,-1.075072,-0.07738931,0,0,28.36364,0.01640892,-0.3852608,0.7244667,-0.4231406,3.689307,1.624704,0.2762637,-0.5138806,-0.3388576,-1.158759,3.21912,0.3661671,-0.8009663,1.645767,-0.1570246,300.1195,141.0028,109.1405
2,0.7222228,-1.327941,0.6122221,-0.86009,-1.074981,4.647147,-1.813141,-1.075187,-0.009894961,0,0,28.36364,0.004992068,-0.3008214,0.6997019,-0.4242192,3.672106,1.640746,0.2614892,-0.4692528,-0.3755437,-1.165123,3.217227,0.364411,-0.7992743,1.655287,-0.1556796,300.6658,139.6094,111.0365
2,0.7333339,-1.322921,0.6114005,-0.786651,-1.080163,4.63805,-1.794442,-1.075862,-0.06170376,0,0,28.36364,-0.01980555,-0.2907972,0.6670424,-0.4277165,3.656654,1.655405,0.2428334,-0.4389512,-0.4025505,-1.17194,3.213987,0.3641819,-0.7974083,1.664552,-0.1546302,301.2339,138.244,112.8476
2,0.7444451,-1.312759,0.6190405,-0.7271196,-1.085901,4.629351,-1.776065,-1.07544,0.03913237,0,0,30.66667,-0.04128671,-0.2980197,0.6565815,-0.431936,3.640725,1.671036,0.2086906,-0.3685287,-0.4056869,-1.176985,3.21395,0.3629449,-0.7953445,1.673431,-0.1539388,301.8108,136.781,114.7089
2,0.7555562,-1.272287,0.6151539,-0.6198951,-1.091974,4.624243,-1.761269,-1.075369,0.006017788,0,0,30.66667,-0.07035196,-0.284772,0.6240015,-0.4354865,3.627357,1.684977,0.1710111,-0.2486509,-0.3433888,-1.178208,3.21572,0.3615827,-0.7932464,1.681952,-0.1536017,302.4061,135.2983,116.4305
2,0.7666674,-1.208546,0.5984099,-0.5320615,-1.097194,4.619537,-1.748127,-1.075413,-0.003972065,0,0,30.66667,-0.0938217,-0.2902863,0.5336719,-0.4391627,3.621941,1.691688,0.1364939,-0.1732993,-0.2985292,-1.17971,3.21679,0.3606929,-0.7911461,1.690129,-0.1535447,302.9534,133.8932,117.9454
2,0.7777785,-1.117139,0.5699734,-0.4454968,-1.102222,4.616062,-1.737077,-1.077178,-0.1614414,0,0,30.66667,-0.1873637,-0.255116,0.3475454,-0.4405561,3.62802,1.691212,0.1079834,-0.1306512,-0.2710766,-1.181679,3.217542,0.3600676,-0.7890464,1.698033,-0.1537109,303.4477,132.609,119.3041
2,0.7888896,-1.017094,0.5532818,-0.3484492,-1.107482,4.613763,-1.727877,-1.078568,-0.1257832,0,0,32.60606,-0.2431598,-0.1773819,0.2667723,-0.4402115,3.625982,1.697286,0.06189948,-0.0673523,-0.2377934,-1.182786,3.21952,0.3603917,-0.7869192,1.705433,-0.1540661,303.9802,131.0326,120.9847
2,0.8000008,-0.9568526,0.554575,-0.2872363,-1.113417,4.611404,-1.7183,-1.079775,-0.1097947,0,0,32.60606,-0.2720816,-0.1171304,0.2175137,-0.439689,3.62399,1.703024,0.02424306,-0.01206573,-0.2239397,-1.183976,3.222013,0.360294,-0.7849523,1.712137,-0.1546493,304.5876,129.4075,122.7243
2,0.8111119,-0.8706681,0.5592148,-0.1900912,-1.119876,4.611128,-1.711484,-1.080622,-0.07699411,0,0,32.60606,-0.3089946,-0.01757412,0.1899659,-0.4369901,3.619824,1.711187,-0.02401012,0.04495765,-0.2034808,-1.185034,3.224482,0.3609419,-0.7833803,1.718009,-0.1554546,305.1945,127.9207,124.23
2,0.8222231,-0.8209214,0.5733312,-0.1107015,-1.126931,4.61172,-1.704393,-1.079703,0.08412962,0,0,32.60606,-0.3416594,0.04877766,0.1812847,-0.4345171,3.614777,1.720621,-0.04304492,0.08266084,-0.191142,-1.185871,3.227318,0.3609731,-0.7823096,1.72293,-0.1563831,305.6775,126.6895,125.3438
2,0.8333342,-0.7537011,0.5833102,0.01324949,-1.134109,4.615454,-1.699871,-1.080771,-0.09896249,0,0,32.60606,-0.3601442,0.0587862,0.1432162,-0.4339781,3.61389,1.72581,-0.06645948,0.1481034,-0.1987634,-1.18682,3.232177,0.3606394,-0.7818239,1.727036,-0.1573501,305.9098,125.847,126.016
2,0.8444453,-0.7025722,0.6007226,0.1267011,-1.141918,4.620084,-1.69589,-1.079612,0.1065279,0,0,29.33333,-0.3997472,0.05134566,0.04134125,-0.4332239,3.620886,1.725218,-0.1095854,0.2137744,-0.1751336,-1.186545,3.236913,0.3612578,-0.7818419,1.73037,-0.1582967,305.9476,125.1465,126.5756
2,0.8555565,-0.652566,0.6223707,0.2348234,-1.150221,4.625705,-1.692514,-1.08007,-0.04335041,0,0,29.33333,-0.4441614,0.03575221,-0.1031549,-0.4324553,3.6347,1.718933,-0.1326387,0.2696016,-0.1785704,-1.186824,3.242539,0.3613233,-0.7823089,1.733093,-0.1592508,305.7968,124.5207,127.1178
2,0.8666676,-0.6135721,0.6343226,0.3036452,-1.158286,4.630579,-1.688964,-1.079729,0.03127936,0,0,29.33333,-0.4783078,0.0185504,-0.1881242,-0.4321479,3.646878,1.71446,-0.1424505,0.3045873,-0.1919873,-1.187628,3.248165,0.3611465,-0.7831036,1.735206,-0.1603411,305.5392,123.7239,127.9076
2,0.8777788,-0.5573357,0.667661,0.3957052,-1.167847,4.637842,-1.687728,-1.079324,0.03630352,0,0,29.33333,-0.5128579,0.02017647,-0.2281928,-0.4313506,3.655741,1.713195,-0.1788492,0.3602699,-0.2271925,-1.190523,3.255405,0.3609425,-0.7842194,1.73686,-0.1617611,305.196,122.8903,128.7379
2,0.8888899,-0.5021179,0.7095418,0.4930534,-1.178044,4.64581,-1.687251,-1.078916,0.0365964,0,0,27.87879,-0.5600478,0.03356642,-0.2626919,-0.4298672,3.665613,1.712274,-0.2005474,0.4270013,-0.2561368,-1.191606,3.2639,0.3607558,-0.7855817,1.738164,-0.1635828,304.8451,122.1182,129.3639
2,0.900001,-0.4424875,0.7642562,0.6084594,-1.189689,4.656016,-1.68829,-1.079749,-0.076851,0,0,27.87879,-0.6242458,0.07809412,-0.3127176,-0.4266672,3.676503,1.711334,-0.2197979,0.4831485,-0.2852052,-1.19293,3.272778,0.3605683,-0.7869415,1.739211,-0.1656989,304.4989,121.4732,129.6959
2,0.9111122,-0.3668166,0.8115501,0.7311686,-1.201498,4.667441,-1.690889,-1.079838,-0.007844642,0,0,27.87879,-0.6710924,0.08127123,-0.4027063,-0.4244887,3.693905,1.704374,-0.2124462,0.5101873,-0.3064495,-1.194705,3.280638,0.3593875,-0.7882534,1.740041,-0.1680717,304.207,120.435,130.3607
2,0.9222233,-0.3151236,0.8426706,0.7934496,-1.213341,4.677788,-1.692872,-1.079984,-0.01375857,0,0,27.87879,-0.7252051,0.01978636,-0.5282787,-0.4250133,3.718475,1.69192,-0.2282207,0.5400258,-0.3645455,-1.198117,3.289846,0.3588639,-0.7895178,1.740617,-0.1706491,303.9326,119.0513,131.3281
2,0.9333345,-0.261183,0.8866193,0.8684504,-1.226128,4.688865,-1.695749,-1.080593,-0.05589466,0,0,27.87879,-0.7442368,-0.01155734,-0.5879772,-0.4253537,3.739227,1.681806,-0.2543703,0.6067108,-0.4040623,-1.200456,3.301162,0.3584687,-0.7907829,1.740908,-0.1734679,303.6158,117.3911,132.5802
2,0.9444456,-0.2169334,0.9411833,0.936058,-1.240008,4.700496,-1.698542,-1.079902,0.06314078,0,0,22.78788,-0.7633752,-0.04177034,-0.6572452,-0.4259167,3.763,1.669292,-0.2909877,0.6908692,-0.4027719,-1.200872,3.313281,0.3584839,-0.7921569,1.740833,-0.1765521,303.3312,115.6556,133.871
2,0.9555568,-0.1576327,1.000086,1.019462,-1.254727,-1.569845,-1.702837,-1.079938,-0.004453356,0,0,22.78788,-0.8294176,-0.01133537,-0.6743388,-0.4241111,3.781735,1.663454,-0.2989978,0.7586452,-0.3786735,-1.200273,3.325448,0.3576828,-0.7937729,1.74045,-0.1798463,303.0615,114.102,134.896
2,0.9666679,-0.1114316,1.030146,1.074263,-1.268696,-1.557451,-1.706701,-1.079236,0.06387232,0,0,22.78788,-0.8547579,0.05612302,-0.694811,-0.420348,3.80178,1.655614,-0.3089977,0.8231338,-0.3676566,-1.198056,3.336599,0.356454,-0.795688,1.739753,-0.1832387,302.7335,112.5025,135.9106
2,0.977779,-0.02562588,1.087966,1.14359,-1.284468,-1.544,-1.713228,-1.079858,-0.05788974,0,0,22.78788,-0.8357837,0.06969023,-0.8110558,-0.4180993,3.833453,1.634995,-0.3257809,0.8886655,-0.3615628,-1.197392,3.35025,0.3556649,-0.7977963,1.738747,-0.1866621,302.2281,110.8467,137.0228
2,0.9888902,0.02458942,1.134951,1.164299,-1.300274,-1.532237,-1.718347,-1.079256,0.05530122,0,0,22.78788,-0.8169788,-0.0004581213,-0.9823128,-0.420045,3.875149,1.605239,-0.3767592,0.937039,-0.3370183,-1.195196,3.362827,0.3568862,-0.8000197,1.737333,-0.1900695,301.6946,109.0474,138.3143
2,1.000001,0.1388173,1.226782,1.199188,-1.319136,-1.520163,-1.726903,-1.081104,-0.1699112,0,0,25.81818,-0.847892,-0.04767489,-1.046252,-0.4220274,3.909297,1.584491,-0.4674628,1.034224,-0.2974714,-1.191905,3.378319,0.3592687,-0.8024127,1.735622,-0.1935107,301.1331,107.267,139.6494
2,1.011112,0.3203776,1.319832,1.259008,-1.338925,-1.507377,-1.739317,-1.079919,0.1092933,0,0,25.81818,-0.9065274,0.02805543,-1.00448,-0.4186287,3.931435,1.576089,-0.5300738,1.116392,-0.2637958,-1.187402,3.394543,0.3610687,-0.8050126,1.73347,-0.1969609,300.6953,105.2439,141.1732
2,1.022224,0.5166299,1.410679,1.293137,-1.359799,-1.495465,-1.753998,-1.082575,-0.2445342,0,0,25.81818,-1.024787,0.2832717,-0.974414,-0.4065901,3.955316,1.569183,-0.6196036,1.176273,-0.2202853,-1.182811,3.409995,0.3650645,-0.8080647,1.731152,-0.2003209,300.1081,103.3254,142.4648
2,1.033335,0.6336989,1.468302,1.284405,-1.380147,-1.485277,-1.766579,-1.085842,-0.2971253,0,0,25.81818,-1.106054,0.4128393,-0.9862786,-0.3980094,3.985118,1.556333,-0.6698947,1.19282,-0.2022153,-1.179028,3.424888,0.3684385,-0.8114619,1.728579,-0.2034307,299.422,101.1473,144.0872
2,1.044446,0.7471877,1.533264,1.236265,-1.401367,-1.477509,-1.779985,-1.087604,-0.159502,0,0,23.27273,-1.177853,0.618771,-0.9624808,-0.3842057,4.012054,1.546788,-0.7149079,1.207376,-0.1906945,-1.175546,3.439451,0.3722484,-0.8151701,1.725408,-0.2061707,298.7872,98.57024,146.223
2,1.055557,0.775451,1.557651,1.18478,-1.421403,-1.470299,-1.790348,-1.084826,0.2539625,0,0,23.27273,-1.170356,0.710008,-0.9224218,-0.3739946,4.036758,1.536142,-0.7463405,1.226686,-0.1846251,-1.171796,3.455152,0.3755555,-0.8193085,1.721327,-0.2085142,298.1963,95.83359,148.649
2,1.066668,0.791033,1.563934,1.143073,-1.440595,-1.463432,-1.800298,-1.084653,0.01242201,0,0,23.27273,-1.118614,0.6824759,-0.8550626,-0.3676712,4.056274,1.528221,-0.7278494,1.247569,-0.1879044,-1.167925,3.470945,0.3763997,-0.8241178,1.71642,-0.2104871,297.3989,93.37739,150.8613
2,1.077779,0.7715976,1.553245,1.120871,-1.459261,-1.456098,-1.808716,-1.080783,0.3529363,0,0,23.27273,-1.044696,0.5550234,-0.8356582,-0.3670534,4.08006,1.514908,-0.7060151,1.271584,-0.1774259,-1.16399,3.48654,0.3771987,-0.8295654,1.710761,-0.2119631,296.3544,91.18524,152.8464
2,1.08889,0.7393429,1.544606,1.090299,-1.477909,-1.44939,-1.816306,-1.07933,0.1293363,0,0,23.27273,-0.9668637,0.3846284,-0.9125389,-0.3695493,4.115322,1.490145,-0.688843,1.267167,-0.1510197,-1.160754,3.507985,0.3595425,-0.83548,1.704768,-0.2129797,294.8423,89.08671,154.9434
2,1.100002,0.6867493,1.528438,1.046091,-1.495842,-1.443697,-1.822404,-1.077235,0.190397,0,0,15.63636,-0.9259953,0.2635007,-0.9896303,-0.3723174,4.151672,1.464975,-0.660022,1.283416,-0.09573276,-1.154763,3.522439,0.359767,-0.8414019,1.698755,-0.2136647,293.1805,86.85929,157.4051
2,1.111113,0.6319554,1.483518,0.9977251,-1.512656,-1.438269,-1.827789,-1.076077,0.1041754,0,0,15.63636,-0.9001477,0.1468647,-1.079305,-0.3761278,4.191689,1.436875,-0.6141504,1.269125,-0.02820958,-1.147862,3.535032,0.3603406,-0.8470916,1.693174,-0.2142577,291.6377,84.17309,160.4279
2,1.122224,0.5889729,1.415152,0.9503884,-1.527716,-1.433091,-1.833075,-1.074558,0.1379765,0,0,15.63636,-0.9055032,0.164048,-1.09189,-0.3756485,4.2265,1.414583,-0.5428234,1.304489,-0.02856436,-1.142715,3.55112,0.3572543,-0.8523301,1.688367,-0.2149686,290.4035,81.0362,163.8923
2,1.133335,0.4879702,1.260309,0.8484102,-1.537738,-1.429549,-1.835141,-1.073825,0.06585696,0,0,15.63636,-0.8887497,0.1894758,-0.9512498,-0.3730141,4.243517,1.408098,-0.4786165,1.28364,-0.07108397,-1.140228,3.566102,0.3547373,-0.8569563,1.684593,-0.2159221,289.5113,77.77639,167.3799
2,1.144446,0.3772708,1.088328,0.7328104,-1.545196,-1.426806,-1.835439,-1.073884,-0.00567252,0,0,10.30303,-0.8481767,0.1641337,-0.7473698,-0.3721107,4.2484,1.41175,-0.4388849,1.229952,-0.1083708,-1.138291,3.579601,0.3528081,-0.8608769,1.681958,-0.2171783,289.0295,74.66437,170.5846
2,1.155557,0.2925812,0.947409,0.6615828,-1.552596,-1.423312,-1.836128,-1.071037,0.2605239,0,0,10.30303,-0.8337919,0.1458323,-0.6006682,-0.3714497,4.254221,1.415122,-0.4254302,1.206006,-0.1194519,-1.135564,3.593284,0.3513378,-0.8640189,1.68028,-0.2187539,289.003,72.11641,173.1159
2,1.166668,0.2401329,0.8705269,0.6218188,-1.561319,-1.419613,-1.837382,-1.06945,0.1431578,0,0,10.30303,-0.7909258,0.1221551,-0.4745763,-0.3708798,4.256334,1.420536,-0.4009368,1.097493,-0.1582887,-1.135521,3.602964,0.35121,-0.8664928,1.679572,-0.2206507,289.0319,70.55912,174.558
2,1.17778,0.08362335,0.7422731,0.5169632,-1.565518,-1.418964,-1.832606,-1.07031,-0.0791198,0,0,10.30303,-0.7667235,0.03228462,-0.4468185,-0.3741427,4.268064,1.41745,-0.3602224,0.9386426,-0.2234348,-1.137945,3.609688,0.3513889,-0.8683184,1.679973,-0.2227609,289.0157,69.75433,175.1133
2,1.188891,-0.01261835,0.6919527,0.468983,4.710476,-1.41697,-1.829682,-1.071585,-0.115378,0,0,10.30303,-0.7474006,-0.03003514,-0.3974711,-0.3770727,4.273909,1.419566,-0.3095688,0.8674536,-0.2844491,-1.139629,3.619131,0.3496038,-0.8696864,1.681316,-0.2248968,289.4111,69.06373,175.3661
2,1.200002,-0.165409,0.6287431,0.4119765,4.70524,-1.415571,-1.822641,-1.066367,0.4783773,0,0,6.909091,-0.6720536,-0.1199305,-0.2786941,-0.3811484,4.270172,1.427843,-0.2755795,0.8263659,-0.3215278,-1.141502,3.628899,0.3474482,-0.8709775,1.683365,-0.2269041,290.1362,68.29784,175.6048
2,1.211113,-0.2701954,0.5442961,0.3620275,4.701278,-1.414062,-1.816323,-1.068446,-0.1937651,0,0,6.909091,-0.6694953,-0.1370091,-0.1414318,-0.3825492,4.263056,1.442011,-0.2530888,0.7641702,-0.3386872,-1.143575,3.646358,0.31844,-0.8725879,1.686304,-0.2285526,290.5932,68.08211,175.2847
2,1.222224,-0.39426,0.4448705,0.2952879,4.699187,-1.413205,-1.808123,-1.065618,0.2614407,0,0,6.909091,-0.6593755,-0.153156,0.004280388,-0.3841077,4.250033,1.461265,-0.2574239,0.7045251,-0.3533578,-1.145959,3.654084,0.3183074,-0.8741916,1.689706,-0.2296014,291.1456,67.61631,175.4275
2,1.233335,-0.5491894,0.4093595,0.2403408,4.695517,-1.413067,-1.797327,-1.067024,-0.1302855,0,0,6.909091,-0.6451201,-0.2145569,0.07498695,-0.3881797,4.241755,1.475667,-0.2497871,0.662307,-0.3678051,-1.147939,3.661651,0.3183375,-0.8758616,1.693745,-0.230153,291.5457,66.87122,176.2067
2,1.244446,-0.6355694,0.3847174,0.2273546,4.691519,-1.411712,-1.787569,-1.066393,0.05988827,0,0,6.909091,-0.6619266,-0.2906018,0.1406257,-0.3936408,4.230295,1.494161,-0.2324734,0.6544671,-0.3722856,-1.149802,3.670494,0.3167071,-0.8773806,1.698248,-0.2303872,292.0728,66.51706,176.8376
2,1.255558,-0.737844,0.3323843,0.2231221,4.688797,-1.409642,-1.77599,-1.064797,0.146026,0,0,6.545455,-0.6618513,-0.3687986,0.193264,-0.3999461,4.220069,1.510966,-0.2283116,0.6460388,-0.3841907,-1.152087,3.677548,0.3173742,-0.8788301,1.703281,-0.2304566,292.6385,66.46795,177.1107
2,1.266669,-0.7847539,0.303545,0.2151178,4.685972,-1.407975,-1.765651,-1.066837,-0.1868943,0,0,6.545455,-0.6607536,-0.4084341,0.2195672,-0.4057097,4.210635,1.527046,-0.2339823,0.6168594,-0.3793637,-1.154563,3.68544,0.31917,-0.8801618,1.708967,-0.2303703,293.1765,66.26586,177.4179
2,1.27778,-0.8627782,0.238373,0.1797983,4.685133,-1.407277,-1.753442,-1.066384,0.04401235,0,0,6.545455,-0.6864074,-0.4681288,0.2481475,-0.4125226,4.201238,1.544111,-0.2428699,0.6261724,-0.382371,-1.156396,3.694458,0.3185428,-0.8812291,1.715192,-0.2301959,293.8859,65.93477,177.8486
2,1.288891,-0.9195176,0.2009244,0.1452721,4.683635,-1.406915,-1.74158,-1.068529,-0.1959867,0,0,6.545455,-0.7447712,-0.4914217,0.2816733,-0.4185605,4.191101,1.56337,-0.2287316,0.6410853,-0.4206165,-1.159624,3.704409,0.3166744,-0.8820244,1.721979,-0.2301083,294.6562,65.6553,178.2701
2,1.300002,-0.9602073,0.1826876,0.1201294,4.682209,-1.406626,-1.729801,-1.067785,0.07045981,0,0,9.333334,-0.7844057,-0.4531852,0.3314523,-0.4222953,4.178461,1.584756,-0.2037027,0.5545595,-0.4337628,-1.163271,3.708938,0.3183399,-0.8825817,1.729212,-0.2302508,295.5588,65.66348,178.3931
2,1.311113,-1.032861,0.0909159,0.0848362,4.683789,-1.406709,-1.716188,-1.068851,-0.0976539,0,0,9.333334,-0.7955136,-0.3856638,0.4134916,-0.4252818,4.164196,1.606775,-0.2253189,0.4935917,-0.4153903,-1.16614,3.713728,0.3228641,-0.8830318,1.736991,-0.2306602,296.3507,65.9995,178.0556
2,1.322224,-1.119382,0.01187225,0.04964622,4.68627,-1.406797,-1.701098,-1.069833,-0.08837757,0,0,9.333334,-0.7747281,-0.3445117,0.4558109,-0.4271188,4.145895,1.631289,-0.2812622,0.5144815,-0.3784604,-1.166879,3.721183,0.3249038,-0.8831864,1.744975,-0.2311976,297.2631,66.48162,177.4463
2,1.333336,-1.1522,-0.04030631,0.06503092,4.688127,-1.405257,-1.687509,-1.068793,0.09628844,0,0,9.333334,-0.7436321,-0.3373745,0.4672343,-0.4312063,4.133353,1.64952,-0.2862503,0.5805305,-0.3838362,-1.167491,3.733223,0.325723,-0.8830369,1.75285,-0.2317957,298.3137,66.96986,176.8014
2,1.344447,-1.202101,-0.08399937,0.07840456,4.690409,-1.403624,-1.672448,-1.067953,0.07642358,0,0,9.333334,-0.7311785,-0.3768433,0.4625095,-0.4371531,4.122884,1.666665,-0.2463973,0.596947,-0.3871658,-1.169549,3.742043,0.3237,-0.8828273,1.76074,-0.2324743,299.2455,67.62088,176.0299
2,1.355558,-1.23827,-0.1106544,0.0809427,4.692119,-1.402586,-1.657742,-1.07019,-0.2045065,0,0,9.575758,-0.7307664,-0.4160023,0.4291559,-0.4435228,4.115975,1.680814,-0.1766626,0.5817206,-0.3422043,-1.170301,3.748299,0.3226308,-0.8825209,1.768685,-0.2332773,300.0456,68.23373,175.3843
2,1.366669,-1.243541,-0.1330214,0.08425713,4.694208,-1.401365,-1.643879,-1.069666,0.05017489,0,0,9.575758,-0.7126358,-0.418285,0.432122,-0.4487389,4.10605,1.69701,-0.1630348,0.5678517,-0.3030793,-1.170325,3.75489,0.3213309,-0.8819627,1.776541,-0.2342648,300.8898,68.63162,174.9694
2,1.37778,-1.223191,-0.1521036,0.09267187,4.69604,-1.399943,-1.63142,-1.070536,-0.07973222,0,0,9.575758,-0.6741333,-0.4218807,0.4465598,-0.4541643,4.094975,1.713078,-0.1881969,0.5512467,-0.2669494,-1.169712,3.759375,0.3251677,-0.8811985,1.784388,-0.2354929,301.6768,68.95971,174.5385
2,1.388891,-1.178433,-0.1732898,0.09129366,4.697812,-1.398743,-1.620061,-1.072025,-0.1349457,0,0,9.575758,-0.6644467,-0.4166643,0.4518157,-0.4592675,4.084905,1.72909,-0.2109567,0.5065708,-0.2587801,-1.170841,3.764417,0.3263861,-0.8801791,1.79221,-0.2368631,302.4523,69.40119,173.8728
2,1.400002,-1.110362,-0.1998956,0.07584525,4.700895,-1.398235,-1.610118,-1.073944,-0.1741561,0,0,9.212122,-0.6579778,-0.3932217,0.4444623,-0.4635717,4.076169,1.744029,-0.2029659,0.4564032,-0.2488504,-1.171744,3.767129,0.3293337,-0.8789563,1.79993,-0.2382705,303.3186,69.90527,173.0479
2,1.411114,-1.07431,-0.2371927,0.05324946,4.704468,-1.398435,-1.599247,-1.075385,-0.1302866,0,0,9.212122,-0.6468544,-0.3582976,0.4637822,-0.4674018,4.064929,1.760896,-0.2009446,0.4293181,-0.2226054,-1.171689,3.770656,0.3319292,-0.877723,1.80756,-0.2395523,304.1712,70.39852,172.0579
2,1.422225,-1.049225,-0.2469238,-0.001279666,4.707804,-1.400365,-1.588634,-1.076884,-0.1360265,0,0,9.212122,-0.6073848,-0.2651417,0.5034917,-0.4684303,4.049566,1.780021,-0.1943816,0.4087374,-0.1760384,-1.170754,3.774613,0.3323383,-0.8765118,1.814945,-0.2404633,304.9876,70.85764,171.1343
2,1.433336,-1.029152,-0.2608141,-0.02273204,4.711018,-1.401402,-1.577898,-1.075945,0.08675753,0,0,9.212122,-0.5617315,-0.2203972,0.4628302,-0.4702711,4.042081,1.791302,-0.1839252,0.3928201,-0.1496973,-1.170243,3.7788,0.3323798,-0.8752463,1.821583,-0.2410696,305.9572,71.31282,170.5725
2,1.444447,-0.9799691,-0.3139824,-0.009158766,-1.566903,-1.40095,-1.56861,-1.075923,0.001025246,0,0,9.212122,-0.5336421,-0.2147826,0.4018197,-0.4729295,4.038211,1.799683,-0.1746064,0.34783,-0.1162829,-1.169734,3.779964,0.3349183,-0.8742037,1.827594,-0.2414744,306.8403,71.78836,170.1272
2,1.455558,-0.9341679,-0.3181856,-0.01063033,-1.56339,-1.401197,-1.559794,-1.075714,0.01923479,0,0,10.30303,-0.4694591,-0.1996935,0.3234136,-0.4749759,4.037634,1.803113,-0.170846,0.3347961,-0.093071,-1.168963,3.782665,0.3370374,-0.8733631,1.832829,-0.2417038,307.5862,72.27771,169.7204
2,1.466669,-0.6518791,-0.3232045,-0.01529313,-1.559757,-1.401444,-1.562159,-1.076999,-0.1178798,0,0,10.30303,-0.3898835,-0.1775551,0.2821778,-0.4765514,4.034703,1.807278,-0.1692426,0.3250746,-0.07721768,-1.168158,3.786165,0.3375075,-0.8727513,1.837447,-0.2418527,308.1146,72.60182,169.5267
2,1.47778,-0.3817608,-0.7553794,-0.0003923662,-1.535219,-1.400425,-1.568333,-1.077401,-0.0358713,0,0,10.30303,-0.3185608,-0.1234266,0.2444898,-0.476561,4.030796,1.811941,-0.14459,0.3030019,-0.0298058,-1.16603,3.787861,0.3390364,-0.8723108,1.841522,-0.2421776,308.5338,72.85391,169.4629
2,1.488891,-0.2221434,-0.8629068,-0.03346084,-1.522739,-1.402354,-1.570303,-1.087988,-0.9681774,0,0,10.30303,-0.2781701,-0.1239973,0.145984,-0.4776598,4.035078,1.810094,-0.1002321,0.2658652,0.00658254,-1.164055,3.788683,0.3396316,-0.8723202,1.845629,-0.2427868,308.7803,73.104,169.2551
2,1.500003,-0.1803595,-0.8425333,-0.005142379,-1.514157,-1.401297,-1.569864,-1.091583,-0.3213543,0,0,11.87879,-0.2765724,-0.06691131,0.06651975,-0.4762552,4.03861,1.809991,-0.08762369,0.242917,0.005122557,-1.163366,3.790704,0.3393837,-0.8726014,1.848724,-0.2438337,309.5858,73.62154,169.0291
2,1.511114,-0.1593363,-0.7573531,-0.02584131,-1.508496,-1.402084,-1.568191,-1.085985,0.512414,0,0,11.87879,-0.2592818,0.01094691,0.04136819,-0.4734829,4.037732,1.813239,-0.09051424,0.2310908,-0.0002991408,-1.162657,3.792502,0.3409658,-0.8727194,1.848742,-0.246095,310.6841,74.80219,168.336
2,1.522225,-0.1361846,-0.6732379,-0.0476242,-1.503835,-1.403376,-1.567395,-1.081399,0.4140345,0,0,11.87879,-0.2119713,0.09594987,0.02765045,-0.4694253,4.035932,1.815562,-0.08028358,0.2216174,0.02398607,-1.160906,3.794313,0.340773,-0.8736461,1.846783,-0.2495467,310.8188,75.77359,166.9807
2,1.533336,-0.09246981,-0.5143811,-0.02509132,-1.503465,-1.403098,-1.567856,-1.078938,0.2210569,0,0,11.87879,-0.1803188,0.09058546,0.003795218,-0.4687632,4.037075,1.815434,-0.04689496,0.2008557,0.08622725,-1.157242,3.794114,0.3413744,-0.875626,1.843972,-0.2537339,309.8827,76.38622,165.4798
2,1.544447,-0.03028603,-0.2999738,0.04291265,-1.50748,-1.40032,-1.569789,-1.079054,-0.01245546,0,0,11.87879,-0.1321002,0.05224635,-0.04075708,-0.4690423,4.041572,1.811289,-0.03760443,0.1973852,0.1425504,-1.153175,3.794945,0.3410987,-0.8784957,1.841204,-0.2580298,308.4347,77.19461,163.7488
2,1.555558,0.01787281,-0.1826204,0.08045646,-1.509619,-1.398091,-1.571802,-1.079722,-0.0612056,0,0,6.787879,-0.09385505,0.06241581,-0.1476702,-0.4670077,4.052094,1.801742,-0.03703159,0.2131763,0.1597426,-1.15008,3.79644,0.3419693,-0.8817235,1.838736,-0.2617429,307.0843,78.14671,162.0161
2,1.566669,0.07883801,-0.05885752,0.1199864,-1.512922,-1.395431,-1.575053,-1.080512,-0.07203549,0,0,6.787879,-0.06265715,0.08198416,-0.2245853,-0.4643328,4.062409,1.792199,0.005626738,0.216757,0.1784512,-1.146691,3.797528,0.3410316,-0.8847684,1.836499,-0.2643177,306.0812,78.54027,161.0014
2,1.577781,0.1515173,0.02336554,0.1563502,-1.515483,-1.392673,-1.579128,-1.080071,0.04037328,0,0,6.787879,-0.01454133,0.1004498,-0.312356,-0.4612073,4.075252,1.77924,0.04488575,0.1999747,0.1969857,-1.143441,3.79825,0.3388854,-0.8873246,1.834415,-0.2655268,305.4543,78.13124,161.087
2,1.588892,0.2389704,0.1215345,0.1776148,-1.519993,-1.390135,-1.584795,-1.08057,-0.04649751,0,0,6.787879,-0.01386887,0.126396,-0.3611658,-0.4580451,4.086219,1.769646,0.06879936,0.170655,0.2336628,-1.139347,3.797215,0.3388713,-0.8894066,1.8326,-0.2655964,305.1482,77.50665,161.8395
2,1.600003,0.31699,0.2080251,0.2149854,-1.525267,-1.38659,-1.591229,-1.080777,-0.01896655,0,0,6.787879,-0.02810919,0.1827691,-0.3371077,-0.4535901,4.091303,1.765858,0.05161653,0.1311719,0.2718083,-1.135214,3.795807,0.3393781,-0.8910055,1.830907,-0.264848,305.1543,76.78954,162.9754
2,1.611114,0.3797945,0.218735,0.2111827,-1.528037,-1.384504,-1.597313,-1.081667,-0.08176479,0,0,6.181818,-0.00527221,0.2218976,-0.3210836,-0.4493946,4.096346,1.760592,0.06279078,0.1208311,0.2832795,-1.131385,3.795419,0.3394135,-0.8922019,1.8291,-0.2636924,305.3925,76.00482,164.271
2,1.622225,0.4468275,0.2550216,0.2051355,-1.532106,-1.382646,-1.604657,-1.081694,-0.002417993,0,0,6.181818,0.06526351,0.2059186,-0.3838273,-0.4464369,4.110388,1.744709,0.09941222,0.1341667,0.2691251,-1.128304,3.796497,0.3366467,-0.8931935,1.826926,-0.262436,305.7596,75.1254,165.5488
2,1.633336,0.4915706,0.2412095,0.2026403,-1.534436,-1.380598,-1.61162,-1.08062,0.09759043,0,0,6.181818,0.1129836,0.1936162,-0.4867652,-0.4435213,4.130869,1.723319,0.1081114,0.1496706,0.2478465,-1.125853,3.797781,0.335174,-0.8942487,1.824197,-0.2614,306.1291,74.1974,166.8067
2,1.644447,0.6122717,0.1402338,0.2337761,-1.531581,-1.37807,-1.621818,-1.081029,-0.03872937,0,0,6.181818,0.1190625,0.2323234,-0.5365983,-0.4386242,4.147318,1.706915,0.09425767,0.1542747,0.2640448,-1.121994,3.798464,0.3343053,-0.8957642,1.821022,-0.2608837,306.3006,73.65757,167.5254
2,1.655559,0.7537092,0.0870409,0.2070868,-1.530026,-1.377574,-1.634025,-1.080001,0.09386976,0,0,5.939394,0.1140962,0.2867066,-0.5382276,-0.432802,4.159144,1.695218,0.09997147,0.1551533,0.3033899,-1.116782,3.798337,0.3339833,-0.8979797,1.817483,-0.2608383,306.1927,73.27316,167.8708
2,1.66667,0.8216177,0.06357737,0.1724683,-1.530335,-1.376757,-1.645089,-1.082364,-0.2174191,0,0,5.939394,0.1144605,0.3153565,-0.5241508,-0.4277703,4.170409,1.683703,0.1368746,0.1446773,0.3241276,-1.112521,3.798094,0.33151,-0.9007379,1.813491,-0.261431,305.7398,72.87489,168.4512
2,1.677781,0.8311179,0.06143789,0.1617266,-1.531073,-1.375699,-1.654601,-1.083844,-0.1338859,0,0,5.939394,0.1285776,0.335407,-0.5134939,-0.4230591,4.181319,1.671866,0.1431893,0.1511644,0.3390334,-1.107917,3.798532,0.329506,-0.9037423,1.808811,-0.2628563,305.0817,72.86225,168.6852
2,1.688892,0.8031312,0.0581021,0.1289609,-1.531615,-1.375474,-1.662465,-1.08184,0.1834967,0,0,5.939394,0.1359032,0.3354425,-0.5253016,-0.4190266,4.195716,1.656911,0.1333376,0.157152,0.3402872,-1.103647,3.799002,0.3286982,-0.9069778,1.803325,-0.2649058,304.3405,73.1479,168.1922
2,1.700003,0.7741717,0.0899694,0.1110025,-1.533706,-1.375055,-1.669984,-1.079204,0.238685,0,0,5.939394,0.1382253,0.3449292,-0.5145985,-0.4145066,4.208122,1.643929,0.1107601,0.1574764,0.3256517,-1.100154,3.799799,0.3279142,-0.9106934,1.797348,-0.2672063,303.4585,73.30409,167.4581
2,1.711114,0.7751644,0.1016673,0.1045661,-1.535308,-1.37417,-1.678474,-1.076786,0.2187737,0,0,2.787879,0.1427291,0.3447351,-0.4933418,-0.4103042,4.219101,1.632223,0.1039624,0.1329156,0.3031159,-1.09731,3.799137,0.327967,-0.9148914,1.791244,-0.2694512,302.3259,73.28796,166.9464
2,1.722225,0.7908931,0.07175163,0.07256462,-1.535161,-1.374371,-1.687716,-1.075916,0.07768907,0,0,2.787879,0.1572413,0.3752223,-0.4549113,-0.4050157,4.227762,1.622076,0.1100337,0.1152572,0.2878368,-1.095187,3.798543,0.3258242,-0.9192419,1.785351,-0.2713667,300.9038,73.29298,166.6367
2,1.733337,0.7960669,0.04824786,0.05128643,-1.534778,-1.374376,-1.696982,-1.076634,-0.06620926,0,0,2.787879,0.1722345,0.3868205,-0.4549904,-0.4003615,4.24017,1.608291,0.1126726,0.100479,0.284463,-1.091881,3.798017,0.3253531,-0.9233782,1.779974,-0.2727236,299.482,73.19976,166.6146
2,1.744448,0.7990586,0.02792624,0.02575875,-1.534325,-1.374931,-1.706082,-1.077312,-0.06145587,0,0,2.787879,0.2042598,0.3822687,-0.4468769,-0.3960824,4.252206,1.593827,0.1086015,0.07453442,0.3023679,-1.088068,3.79645,0.3250391,-0.9269842,1.775162,-0.2734784,298.4146,73.01932,166.889
2,1.755559,0.8075935,0.03859431,0.02566738,-1.535605,-1.374172,-1.715819,-1.077138,0.01615839,0,0,1.454545,0.2297459,0.3682189,-0.4451577,-0.392462,4.265166,1.578539,0.1003072,0.05454386,0.3459512,-1.083079,3.794044,0.3259225,-0.9299662,1.770747,-0.2737287,297.9131,72.9751,167.1793
2,1.76667,0.8204381,0.04289406,0.03299608,-1.536321,-1.373638,-1.725539,-1.076706,0.03910977,0,0,1.454545,0.2320354,0.3713056,-0.4334401,-0.388168,4.276944,1.564941,0.1015796,0.05236214,0.355502,-1.078814,3.793031,0.3252101,-0.9324861,1.76654,-0.2736745,297.8112,72.83585,167.5786
2,1.777781,0.8416781,0.05995353,0.02745842,-1.537562,-1.373239,-1.735739,-1.077013,-0.02859162,0,0,1.454545,0.2299507,0.3648486,-0.4249492,-0.3843687,4.288897,1.551553,0.09777771,0.04666812,0.3757367,-1.073987,3.791593,0.3253232,-0.9347409,1.762541,-0.2734746,297.6959,72.58974,168.0233
2,1.788892,0.8457984,0.07482681,0.0135233,-1.538809,-1.37372,-1.745408,-1.076811,0.01858457,0,0,1.454545,0.2330437,0.3638384,-0.4335061,-0.3803974,4.302886,1.535805,0.1025823,0.02888285,0.361647,-1.070619,3.790046,0.3247416,-0.9369143,1.758663,-0.2732945,297.5694,72.1249,168.6673
2,1.800003,0.8445764,0.07903115,-0.003525216,-1.539709,-1.374481,-1.754741,-1.077031,-0.02044395,0,0,1.454545,0.2383055,0.3724088,-0.4441526,-0.3762019,4.317867,1.519014,0.1068268,0.0259465,0.3530343,-1.067244,3.788768,0.3245477,-0.9390898,1.754749,-0.2732663,297.3842,71.71144,169.2505
2,1.811115,0.849821,0.07034467,-0.02647788,4.699467,-1.193763,-1.874024,-1.076333,0.06382788,0,0,1.333333,0.2440201,0.4020722,-0.4279997,-0.3709922,4.33041,1.504497,0.1083496,0.01321597,0.3507642,-1.063588,3.786625,0.3247254,-0.9414539,1.750744,-0.2734783,297.154,71.42227,169.6501
2,1.822226,0.8452371,0.05444953,-0.04458339,4.699699,-1.194831,-1.883371,-1.075754,0.05227016,0,0,1.333333,0.2494541,0.4297912,-0.4352981,-0.3656445,4.345735,1.487221,0.1193215,0.05742097,0.3457294,-1.059428,3.787602,0.322467,-0.9438788,1.746379,-0.2738326,296.7953,71.26929,169.8211
2,1.833337,0.843015,0.04150292,-0.0491688,4.62973,-1.08183,-1.971321,-1.180278,-9.492889,0,0,1.333333,0.2480761,0.4267886,-0.4598188,-0.3617649,4.363852,1.467628,0.1373998,0.03868868,0.3698089,-1.054977,3.785223,0.3220169,-0.936332,1.73263,-0.2732745,297.2903,64.27777,178.2513
2,1.844448,0.8269048,0.03951049,-0.05527024,4.629783,-1.082609,-1.980084,-1.146002,3.272354,0,0,1.333333,0.2640263,0.4192039,-0.4579347,-0.3579496,4.379469,1.449567,0.1451613,0.03666814,0.3878048,-1.050212,3.783595,0.3210169,-0.9043268,1.694346,-0.2746307,302.1673,49.51472,197.1087
2,1.855559,0.8084145,0.02624768,-0.05757521,4.658244,-1.058344,-2.006811,-1.212275,-6.087483,0,0,1.818182,0.275487,0.3979005,-0.4667614,-0.3549051,4.396445,1.430275,0.1544387,0.04756635,0.4005826,-1.045258,3.782665,0.3199202,-0.8804289,1.661241,-0.2907242,301.6029,44.35548,199.31
2,1.86667,0.798765,0.006584078,-0.05565256,4.625475,-1.023955,-2.060961,-1.172012,3.773854,0,0,1.818182,0.2499243,0.3841612,-0.4580506,-0.3518675,4.411486,1.414274,0.1492703,0.04890214,0.4284323,-1.040233,3.781277,0.3189988,-0.8637702,1.633071,-0.3164124,298.912,35.33149,198.9294
2,1.877781,0.7464124,-0.005408168,-0.06800984,4.591625,-1.067187,-2.027299,-1.172646,-0.1118123,0,0,1.818182,0.2318698,0.3585684,-0.4378052,-0.3493567,4.425085,1.399641,0.1479654,0.06074382,0.4402255,-1.034483,3.780284,0.3186328,-0.8566392,1.619483,-0.3365938,293.867,67.34395,164.3074
2,1.888893,0.7151511,-0.006134629,-0.06798273,4.593098,-1.061031,-2.014146,-1.189046,-1.505627,0,0,1.818182,0.2278652,0.3509324,-0.4111864,-0.3463888,4.437693,1.385384,0.1525641,0.04826394,0.4283324,-1.030281,3.778826,0.3177825,-0.8636293,1.622058,-0.3479891,291.6868,89.02314,140.8606
2,1.900004,0.6657358,-0.01180318,-0.06342175,4.586693,-1.068079,-2.011361,-1.085867,9.418333,0,0,1.818182,0.2328289,0.3568401,-0.3547304,-0.3427009,4.44595,1.37484,0.1425013,0.02057502,0.3866332,-1.027807,3.776959,0.3174834,-0.8975983,1.646219,-0.3728907,283.5563,31.28914,189.2252
2,1.911115,0.6167556,-0.01148766,-0.05277127,4.585408,-1.065907,-1.999175,-1.093958,-0.8503385,0,0,5.454545,0.2394381,0.3384413,-0.325129,-0.3401933,4.456079,1.362425,0.132983,0.005606949,0.3503962,-1.025339,3.775014,0.3180366,-0.9319272,1.674624,-0.3893321,278.9407,347.0388,227.8692
2,1.922226,0.5790994,-0.0004158616,-0.03502948,4.614712,-1.070707,-1.998183,-1.102799,-0.7938573,0,0,5.454545,0.2344538,0.3125526,-0.2805323,-0.3379754,4.462791,1.353608,0.1323305,-0.03892601,0.324387,-1.023331,3.77193,0.3181737,-0.9476647,1.694325,-0.387457,276.9687,351.4546,221.9989
2,1.933337,0.55917,-0.01089573,-0.02498448,4.613367,-1.068839,-1.99085,-1.092491,0.9466387,0,0,5.454545,0.2217843,0.2965013,-0.2613295,-0.3358161,4.471417,1.343408,0.1389063,-0.07376394,0.314371,-1.020739,3.768299,0.3187271,-0.9486589,1.705489,-0.3703604,278.4469,15.55012,198.1707
2,1.944448,0.5349902,-0.03273769,-0.03180683,4.627529,-1.082761,-1.989671,-1.09885,-0.5920869,0,0,5.454545,0.2111619,0.2901323,-0.2548645,-0.333473,4.481351,1.332022,0.1413696,-0.08424644,0.3067759,-1.018138,3.765691,0.3184238,-0.9399785,1.708743,-0.3443225,285.3735,27.58118,191.3426
2,1.955559,0.5169958,-0.06653258,-0.04142664,4.62858,-1.082588,-1.985832,-1.091627,0.6656199,0,0,5.454545,0.2070844,0.2825343,-0.2346341,-0.3311241,4.489499,1.322165,0.1208187,-0.08484805,0.2835939,-1.016157,3.763507,0.3192699,-0.9301686,1.706316,-0.3217393,292.9452,35.65025,191.2706
2,1.966671,0.5139042,-0.1016987,-0.04287649,4.707652,-1.058689,-1.990652,-1.093067,-0.1401253,0,0,3.515152,0.2208385,0.2664363,-0.2327878,-0.3293819,4.498713,1.310561,0.09452593,-0.06984103,0.2776803,-1.01358,3.762257,0.3200614,-0.9259849,1.702067,-0.3077114,297.0631,37.12778,194.3102
2,1.977782,0.5175867,-0.1318718,-0.04869369,4.700986,-1.098276,-1.986412,-1.089828,0.2959059,0,0,3.515152,0.2322574,0.2323063,-0.2385085,-0.328706,4.507928,1.298823,0.08484906,-0.0640154,0.2917111,-1.010331,3.759858,0.3208134,-0.9280932,1.696979,-0.3042074,298.2047,38.04699,196.3544
2,1.988893,0.5159712,-0.1593604,-0.05646475,4.702071,-1.098297,-1.987687,-1.096818,-0.6425286,0,0,3.515152,0.229286,0.2332445,-0.2192901,-0.3265952,4.515817,1.288988,0.07975508,-0.06857993,0.2981191,-1.007385,3.757115,0.3217168,-0.9306751,1.688993,-0.3100823,299.3791,41.07051,201.2035
2,2.000004,0.5144412,-0.1736813,-0.07004994,4.702872,-1.119878,-1.990522,-1.084638,1.119771,0,0,3.515152,0.1954431,0.2343836,-0.1986438,-0.3244545,4.52253,1.281571,0.08166045,-0.08568686,0.3096406,-1.004233,3.75393,0.3223826,-0.9271808,1.674847,-0.3344909,299.72,44.3218,203.2682
2,2.011115,0.4878177,-0.2010348,-0.08682163,4.70522,-1.119825,-1.986093,-1.088266,-0.3176493,0,0,3.757576,0.1496272,0.2582633,-0.2128282,-0.3216241,4.534652,1.269964,0.0802671,-0.08036925,0.3033266,-1.001415,3.751565,0.3231104,-0.9261177,1.661044,-0.3616074,288.93,44.23381,186.8418
2,2.022226,0.4480723,-0.2146134,-0.1010966,4.708494,-1.120137,-1.989841,-1.088428,-0.01086977,0,0,3.757576,0.1474772,0.2679251,-0.2201832,-0.319263,4.546064,1.257582,0.07073811,-0.06754212,0.264156,-0.9999174,3.750578,0.3231746,-0.9284078,1.651307,-0.3805522,280.5108,47.455,172.4443
2,2.033337,0.4146924,-0.2186495,-0.09838168,4.709107,-1.120748,-1.987803,-1.079832,0.782522,0,0,3.757576,0.1666359,0.2549557,-0.2141186,-0.3177652,4.554931,1.246549,0.07224704,-0.06082171,0.23757,-0.9984319,3.749035,0.3233799,-0.9338027,1.646348,-0.3893881,275.992,59.66851,155.3375
2,2.044448,0.375946,-0.2120593,-0.09981647,-1.569369,-1.134698,-1.985933,-1.085963,-0.5684424,0,0,3.757576,0.2027621,0.2151624,-0.1988786,-0.3173774,4.561037,1.237252,0.0771828,-0.06132381,0.2034084,-0.9977053,3.747863,0.3229906,-0.9383266,1.643801,-0.3893909,274.5463,61.56565,153.8178
2,2.055559,0.3597822,-0.2098473,-0.09311393,-1.568226,-1.135026,-1.984914,-1.080017,0.548671,0,0,3.757576,0.2111566,0.1948605,-0.1970118,-0.3166019,4.569258,1.226918,0.08613242,-0.07268627,0.2021178,-0.9959264,3.745435,0.3233184,-0.9415879,1.643055,-0.3831545,275.4605,53.55439,164.8387
2,2.06667,0.3464662,-0.2050238,-0.09052445,4.711783,-1.147228,-1.979824,-1.078648,0.119323,0,0,8.606061,0.211161,0.1670271,-0.1801895,-0.3163276,4.574283,1.219784,0.1118896,-0.06667534,0.2359495,-0.9924323,3.743327,0.3222321,-0.944296,1.644208,-0.3730994,277.2542,45.0872,176.7415
2,2.077781,0.3291074,-0.1888849,-0.09649168,-1.569757,-1.148811,-1.979728,-1.078926,-0.02628809,0,0,8.606061,0.1952779,0.1670749,-0.1714767,-0.3149747,4.581302,1.211679,0.09913302,-0.06002687,0.2628102,-0.9889606,3.741285,0.3228681,-0.9474721,1.647733,-0.3612889,278.9058,44.05779,180.9276
2,2.088892,0.3074949,-0.1616238,-0.1007106,-1.557868,-1.156355,-1.978626,-1.074573,0.3979221,0,0,8.606061,0.1732278,0.1712928,-0.1456151,-0.3131515,4.586084,1.206102,0.07363167,-0.06730634,0.2470737,-0.987384,3.739075,0.3243373,-0.9496986,1.652226,-0.34833,280.4117,43.21758,183.9566
2,2.100003,0.2816892,-0.1523463,-0.09851752,-1.548352,-1.162602,-1.976583,-1.078828,-0.3927169,0,0,8.606061,0.1663274,0.1795225,-0.1028522,-0.3109092,4.587691,1.202973,0.06690984,-0.0887883,0.2362831,-0.9858543,3.736237,0.3253733,-0.9522642,1.65857,-0.3352595,281.475,42.51124,186.2905
2,2.111114,0.2606856,-0.1573533,-0.1163583,-1.546747,-1.165287,-1.973939,-1.078072,0.07246073,0,0,6.424242,0.1665436,0.1740143,-0.08052763,-0.3093949,4.590232,1.198761,0.06457989,-0.0887489,0.2224586,-0.9843848,3.734193,0.3261046,-0.9541355,1.66444,-0.3236287,285.0377,44.80655,187.2922
2,2.122225,0.2258142,-0.1586128,-0.1302642,-1.535135,-1.174281,-1.969555,-1.0767,0.1244433,0,0,6.424242,0.1538976,0.1526003,-0.05604865,-0.3084468,4.590443,1.197285,0.05866797,-0.08230639,0.1959621,-0.9835027,3.732974,0.3263725,-0.9565428,1.668118,-0.3170896,289.6456,48.77717,187.2626
2,2.133336,0.2019486,-0.1584185,-0.1405776,-1.532372,-1.177533,-1.968502,-1.075692,0.09119743,0,0,6.424242,0.138008,0.14837,-0.04523891,-0.3070571,4.592908,1.194006,0.0637624,-0.07372076,0.2087913,-0.9808524,3.731013,0.3270101,-0.95881,1.668837,-0.3158677,291.1351,50.99148,186.4248
2,2.144447,0.1632885,-0.1596761,-0.142381,-1.523363,-1.183379,-1.966049,-1.074003,0.1538486,0,0,6.424242,0.1148574,0.1536814,-0.02254096,-0.3049628,4.593277,1.193333,0.06130409,-0.08886008,0.2193211,-0.9786925,3.728252,0.3279406,-0.9599987,1.667188,-0.3184201,289.7737,51.55282,185.275
2,2.155558,0.1334965,-0.1542412,-0.1396218,-1.521479,-1.185435,-1.966032,-1.076965,-0.2723056,0,0,6.424242,0.1025914,0.1598341,0.01813705,-0.3026224,4.590859,1.194927,0.05671883,-0.1092621,0.2149156,-0.9771457,3.725017,0.3296168,-0.9595499,1.663767,-0.3231642,287.2674,53.53696,181.6114
2,2.166669,0.08654092,-0.1479547,-0.1367549,-1.514517,-1.19016,-1.96354,-1.075942,0.09604778,0,0,8,0.1135048,0.1445843,0.04985803,-0.30104,4.586846,1.197203,0.06076719,-0.1058295,0.2085088,-0.9755628,3.723006,0.329927,-0.9581963,1.659719,-0.328645,285.2294,55.91066,177.136
2,2.17778,0.02616364,-0.1298904,-0.1435423,-1.504066,-1.20198,-1.952503,-1.077857,-0.1764447,0,0,8,0.1154416,0.1061695,0.05591756,-0.3008536,4.584179,1.198413,0.05780645,-0.08674601,0.2076863,-0.9735979,3.721677,0.3305372,-0.9570185,1.656111,-0.3346274,283.8505,58.76572,172.8626
2,2.188891,-0.04117473,-0.1059269,-0.1535439,-1.50524,-1.205128,-1.948624,-1.07555,0.2124992,0,0,8,0.1096379,0.05087751,0.04807859,-0.3019737,4.582237,1.199352,0.05536231,-0.05788447,0.18882,-0.972008,3.72159,0.3298953,-0.9571338,1.654102,-0.3407964,282.9393,61.17183,169.3266
2,2.200002,-0.09405021,-0.07933024,-0.1643454,-1.496844,-1.21314,-1.938731,-1.067312,0.7511297,0,0,8,0.1042427,0.00172402,0.0711833,-0.302942,4.575444,1.20483,0.05185537,-0.06396249,0.1429656,-0.9723276,3.72029,0.3302155,-0.9572463,1.65261,-0.3456429,282.5961,66.49658,162.5129
2,2.211113,-0.1219218,-0.07050663,-0.1722423,-1.496797,-1.216938,-1.936215,-1.073534,-0.5745268,0,0,10.66667,0.09915088,0.004813984,0.08938201,-0.3019929,4.57066,1.208443,0.0518201,-0.07320125,0.1109078,-0.9725534,3.718833,0.330795,-0.9585442,1.652819,-0.3475331,282.0121,74.05042,152.6563
2,2.222224,-0.1522146,-0.06917022,-0.1866149,-1.494275,-1.22139,-1.931715,-1.069214,0.4012974,0,0,10.66667,0.09413532,0.004635483,0.1160742,-0.301138,4.563664,1.214242,0.04392138,-0.09667862,0.08629684,-0.9733795,3.716527,0.3322821,-0.9603182,1.654658,-0.3459548,281.8768,75.77886,150.3688
2,2.233335,-0.1837527,-0.06114386,-0.2157574,-1.494524,-1.226875,-1.928541,-1.076076,-0.6313322,0,0,10.66667,0.06991712,0.001392528,0.1429694,-0.3003625,4.555664,1.221982,0.04449739,-0.1105691,0.09042883,-0.9726365,3.713769,0.3337479,-0.9622962,1.658168,-0.3416044,282.0365,75.33432,152.0514
2,2.244446,-0.2271999,-0.05120741,-0.2468394,-1.489839,-1.232845,-1.922286,-1.075118,0.0936354,0,0,10.66667,0.05335292,-0.003105059,0.1868121,-0.2993308,4.544216,1.232874,0.05386394,-0.1017761,0.09888928,-0.9713358,3.712359,0.3332653,-0.9643453,1.66312,-0.3356806,282.8469,72.64495,156.8839
2,2.255557,-0.2631043,-0.05496529,-0.26526,-1.490283,-1.237549,-1.913863,-1.076241,-0.1042423,0,0,10.66667,0.06765263,-0.009936273,0.2292063,-0.2983966,4.531038,1.244231,0.02933958,-0.103801,0.09383973,-0.9706977,3.710349,0.3351362,-0.9657229,1.668633,-0.3289844,284.1064,70.28432,161.3418
2,2.266668,-0.3140542,-0.06732461,-0.297473,-1.484994,-1.244795,-1.907478,-1.073342,0.2661235,0,0,8.969697,0.1040468,-0.03171986,0.2563139,-0.2982389,4.517756,1.254476,0.01917494,-0.08827943,0.09945905,-0.9696383,3.709303,0.3358883,-0.9668856,1.674025,-0.3224808,285.9633,68.73715,164.5185
2,2.277779,-0.3395593,-0.0910475,-0.3376105,-1.482264,-1.250028,-1.901239,-1.070917,0.2192948,0,0,8.969697,0.1071556,-0.04773767,0.2582791,-0.2983976,4.50704,1.263361,0.01865131,-0.104224,0.09291238,-0.9692772,3.707011,0.3373133,-0.9677356,1.678692,-0.3166233,287.5459,68.48835,165.8337
2,2.28889,-0.3412704,-0.1070666,-0.3583426,-1.477415,-1.258846,-1.897474,-1.073306,-0.2196222,0,0,8.969697,0.1011245,-0.02547765,0.2766429,-0.2969584,4.495603,1.273559,0.004475124,-0.1270207,0.08115995,-0.9695568,3.704406,0.3396244,-0.9685686,1.682493,-0.3118832,288.8122,68.09743,167.1739
2,2.300001,-0.3489401,-0.1365872,-0.4054579,-1.470249,-1.264776,-1.891865,-1.07386,-0.04859065,0,0,8.969697,0.1006401,-0.01730999,0.3214615,-0.2953632,4.479055,1.288302,-0.008625239,-0.1241746,0.06429166,-0.9698445,3.702917,0.3409517,-0.9693487,1.685149,-0.3087344,289.796,68.72646,167.4329
2,2.311112,-0.3673684,-0.1646964,-0.4576187,-1.466017,-1.272418,-1.886488,-1.076782,-0.2667979,0,0,8.969697,0.1042515,-0.02617794,0.3618336,-0.2944886,4.460849,1.304338,-0.004253343,-0.1271822,0.06314489,-0.9697433,3.700948,0.3419765,-0.9705853,1.686942,-0.3071723,290.2781,69.81865,166.5408
2,2.322223,-0.3935973,-0.1928243,-0.5100871,-1.457992,-1.287533,-1.87603,-1.074975,0.167383,0,0,7.272727,0.1097909,-0.03492609,0.3851373,-0.2938543,4.443149,1.319844,-0.01198611,-0.1272593,0.04086236,-0.9703004,3.699335,0.3433616,-0.9729226,1.688307,-0.3071847,290.4413,71.48934,164.8258
2,2.333334,-0.426574,-0.2156074,-0.5501671,-1.453665,-1.296351,-1.870408,-1.075102,-0.0135204,0,0,7.272727,0.1224045,-0.0552325,0.3826993,-0.2939911,4.42826,1.332314,-0.0157654,-0.1227862,0.007922539,-0.9716032,3.698329,0.3444426,-0.9752477,1.688923,-0.3080267,289.9106,73.48508,162.6523
2,2.344445,-0.4454114,-0.2292422,-0.5723892,-1.446593,-1.304308,-1.862507,-1.071059,0.3702023,0,0,7.272727,0.1309152,-0.064917,0.3878494,-0.2938623,4.412472,1.345755,-0.01233924,-0.1300758,0.003538571,-0.9723105,3.696164,0.3458938,-0.9774894,1.689635,-0.3092365,288.855,76.08813,159.8288
2,2.355556,-0.4599847,-0.2618329,-0.5991522,-1.441291,-1.313072,-1.857048,-1.075025,-0.3657593,0,0,7.272727,0.1556652,-0.06311905,0.4078186,-0.2933584,4.394295,1.360594,-0.008643426,-0.139626,0.01298238,-0.9725033,3.693836,0.3471316,-0.9790529,1.690892,-0.309848,287.8053,80.29996,155.2761
2,2.366668,-0.4606509,-0.2795587,-0.6219224,-1.436409,-1.323219,-1.850439,-1.07337,0.1549453,0,0,5.575758,0.1664254,-0.05898002,0.4141263,-0.2927735,4.377233,1.374661,-0.02559149,-0.1414154,0.01636232,-0.9727702,3.691843,0.3491244,-0.9797862,1.692985,-0.3093069,287.4726,83.22108,152.1294
2,2.377779,-0.4606478,-0.3119961,-0.663167,-1.429893,-1.336792,-1.844608,-1.075785,-0.2225733,0,0,5.575758,0.1636811,-0.04428628,0.4441086,-0.2917216,4.356992,1.392303,-0.03851795,-0.1612618,0.02802823,-0.9729646,3.688683,0.3519191,-0.979609,1.695946,-0.3077773,287.7547,84.62591,151.0201
2,2.38889,-0.4577986,-0.3341262,-0.6752596,-1.42468,-1.344779,-1.839273,-1.075171,0.0583457,0,0,5.575758,0.1876921,-0.03736219,0.4896964,-0.2907916,4.33318,1.412444,-0.0211295,-0.1701373,0.02666565,-0.9734099,3.686095,0.3531905,-0.9795166,1.700059,-0.3055347,288.6805,85.63708,150.1915
2,2.400001,-0.4538016,-0.3522541,-0.6810272,-1.416572,-1.353122,-1.832383,-1.076301,-0.1039065,0,0,5.575758,0.206977,-0.02686763,0.4927533,-0.2899064,4.313764,1.428113,0.006563529,-0.173137,0.01351901,-0.9743734,3.683882,0.3533658,-0.9800376,1.705335,-0.302326,289.7959,86.77155,149.0026
2,2.411112,-0.4443982,-0.3819005,-0.6860164,-1.410233,-1.362138,-1.827447,-1.076095,0.01961354,0,0,5.575758,0.2345727,-0.035559,0.489165,-0.2899629,4.295645,1.442006,0.01250542,-0.1672814,-0.01531517,-0.9769993,3.682816,0.3522257,-0.9810737,1.710951,-0.2979011,291.1368,87.42188,148.6711
2,2.422223,-0.418788,-0.4076108,-0.6755786,-1.402565,-1.37353,-1.820306,-1.074508,0.144558,0,0,5.939394,0.2598724,-0.0558883,0.4780523,-0.2906595,4.278094,1.455071,0.02571238,-0.1784373,-0.01878697,-0.9781482,3.680326,0.3529117,-0.9816935,1.715867,-0.2924699,292.1766,87.04965,150.1608
2,2.433334,-0.3757731,-0.4174095,-0.6608121,-1.397182,-1.380266,-1.817425,-1.076398,-0.1740812,0,0,5.939394,0.2768429,-0.1354952,0.4271289,-0.2944119,4.266327,1.462608,0.03656547,-0.2007416,0.01280132,-0.9782206,3.676373,0.3546289,-0.9818877,1.719836,-0.2869183,292.9598,86.97088,151.8135
2,2.444445,-0.3446605,-0.4346311,-0.650322,-1.389517,-1.389709,-1.813183,-1.074826,0.1454812,0,0,5.939394,0.2617053,-0.1405934,0.411286,-0.2956301,4.251558,1.474408,0.01383987,-0.2187229,0.01289103,-0.9791394,3.672884,0.357164,-0.9820035,1.723041,-0.2817116,293.5626,87.76877,152.1122
2,2.455556,-0.327579,-0.4687167,-0.6480472,-1.382078,-1.397286,-1.810111,-1.078032,-0.2945903,0,0,5.939394,0.2637269,-0.1223351,0.3911678,-0.2959997,4.238586,1.483843,0.002619758,-0.2084202,0.003539737,-0.9801839,3.670669,0.3592412,-0.9827369,1.726044,-0.2769948,293.9744,89.08815,151.3262
2,2.466667,-0.328935,-0.4940264,-0.6551838,-1.373781,-1.409985,-1.803999,-1.077321,0.06745156,0,0,5.212121,0.2474319,-0.1102362,0.3573655,-0.2966016,4.228238,1.491445,0.03900769,-0.2132906,-0.00121616,-0.9812859,3.667958,0.3592056,-0.9834523,1.728176,-0.2727503,294.5057,89.6709,151.3972
2,2.477778,-0.3316221,-0.4868129,-0.6317862,-1.366006,-1.41742,-1.797963,-1.077772,-0.04236344,0,0,5.212121,0.2322544,-0.1035263,0.3309611,-0.2973164,4.218492,1.498684,0.04742046,-0.2138984,-0.01304219,-0.9826548,3.665249,0.3598956,-0.9846591,1.729508,-0.269399,295.1202,90.34467,151.4586
2,2.488889,-0.3101618,-0.4552566,-0.5905718,-1.361449,-1.4236,-1.795167,-1.075572,0.201289,0,0,5.212121,0.2182759,-0.114045,0.3257173,-0.2988195,4.205895,1.508676,0.02907254,-0.2144427,-0.03199156,-0.9843251,3.662733,0.3620093,-0.9862964,1.730035,-0.2669342,295.352,91.6848,150.489
2,2.5,-0.2882011,-0.4439656,-0.5635583,-1.353576,-1.431364,-1.790336,-1.074355,0.1097061,0,0,5.212121,0.1958027,-0.1288042,0.3258588,-0.3005793,4.193145,1.519441,0.01649086,-0.2201654,-0.04043509,-0.9860258,3.660812,0.3623817,-0.9884115,1.730528,-0.2649792,294.8927,94.23025,147.9691
2,2.511111,-0.2524859,-0.4484028,-0.5497406,-1.347613,-1.438041,-1.789937,-1.077202,-0.2613536,0,0,5.212121,0.1766501,-0.1286882,0.3282165,-0.3018571,4.180056,1.530601,0.01815857,-0.208406,-0.03818722,-0.986878,3.658438,0.3636219,-0.9899485,1.730971,-0.2632314,294.1975,96.56087,145.8506
2,2.522222,-0.2431527,-0.4707386,-0.5547135,-1.339335,-1.44625,-1.785036,-1.075749,0.1351419,0,0,4.848485,0.1680019,-0.1253385,0.3155802,-0.3031396,4.168534,1.539905,0.01941065,-0.1839388,-0.02835917,-0.9873009,3.657071,0.3641092,-0.9905875,1.731311,-0.2616028,294.0079,97.8084,144.9835
2,2.533333,-0.2450241,-0.4824125,-0.5518046,-1.332159,-1.453166,-1.782906,-1.07953,-0.3472826,0,0,4.848485,0.1636997,-0.1028012,0.2987662,-0.3033649,4.159469,1.546896,0.01553739,-0.1650182,-0.01850376,-0.9873297,3.655403,0.3653031,-0.9907073,1.731798,-0.2604675,294.2274,98.78768,144.517
2,2.544444,-0.242211,-0.4870234,-0.5201218,-1.324927,-1.458744,-1.778365,-1.07556,0.365911,0,0,4.848485,0.1660651,-0.03340471,0.2779893,-0.3011577,4.151841,1.552281,0.003825128,-0.1613807,-0.004473481,-0.9874964,3.653382,0.3667793,-0.9906833,1.732514,-0.2597483,294.809,99.81626,143.5809
2,2.555555,-0.2087843,-0.4588037,-0.4718217,-1.320361,-1.463905,-1.778245,-1.077337,-0.1661353,0,0,4.848485,0.1542834,-0.04077187,0.2770011,-0.3018336,4.141788,1.560581,-0.01414214,-0.164306,0.001045629,-0.9880232,3.650927,0.3692337,-0.990663,1.733384,-0.2591286,295.3849,101.115,142.0521
2,2.566666,-0.1758637,-0.4358421,-0.4342684,-1.315504,-1.4704,-1.775244,-1.074758,0.2374085,0,0,7.030303,0.139503,-0.03220052,0.2836335,-0.3021969,4.130134,1.570627,-0.0189016,-0.1753086,0.01378029,-0.9882927,3.647901,0.3715389,-0.9906136,1.734347,-0.258341,295.8324,102.2369,140.7407
2,2.577777,-0.1138324,-0.4119826,-0.3876855,-1.3118,-1.474273,-1.776578,-1.078608,-0.3543984,0,0,7.030303,0.1395633,-0.00227052,0.2710899,-0.3011987,4.121172,1.577613,-0.02419646,-0.1724011,0.02238279,-0.9885318,3.646144,0.3722559,-0.9906619,1.735676,-0.2574939,295.9664,103.1588,139.9674
2,2.588888,-0.06630328,-0.4101225,-0.363617,-1.307088,-1.481824,-1.77659,-1.076311,0.2132273,0,0,7.030303,0.1255949,0.0182462,0.2490427,-0.30033,4.114618,1.582958,-0.0262226,-0.1726167,0.0330562,-0.988657,3.643416,0.3744519,-0.9910815,1.737268,-0.2566227,296.5355,103.6622,139.5915
2,2.599999,-0.04042608,-0.4211073,-0.3423326,-1.300133,-1.488513,-1.773508,-1.079359,-0.2811112,0,0,7.030303,0.1136208,0.02064711,0.2257622,-0.3000679,4.108712,1.587764,-0.0241663,-0.1734945,0.02343359,-0.9894016,3.641299,0.3758061,-0.9919987,1.738763,-0.2552944,297.1932,103.9411,139.1012
2,2.61111,-0.01602113,-0.4086755,-0.3099333,-1.295927,-1.492462,-1.774967,-1.078949,0.03971074,0,0,7.030303,0.1155766,0.02824214,0.2066258,-0.2996339,4.102903,1.592002,-0.01893871,-0.1773315,0.003081899,-0.9909154,3.639156,0.3773049,-0.9926161,1.739431,-0.2533353,297.4936,104.0993,139.1417
2,2.622221,0.003178343,-0.3826047,-0.2634777,-1.291753,-1.496916,-1.773384,-1.075205,0.3415095,0,0,6.424242,0.1192912,0.03180456,0.157603,-0.2991135,4.102834,1.590586,-0.008272722,-0.1789719,-0.002390787,-0.9918944,3.636966,0.378208,-0.9933963,1.739518,-0.2510302,297.6125,104.8307,138.9761
2,2.633332,0.01571624,-0.3530393,-0.2379753,-1.288843,-1.4996,-1.774671,-1.078371,-0.2927583,0,0,6.424242,0.1058915,0.03232059,0.1044926,-0.2988237,4.105063,1.587737,0.00182879,-0.1606337,0.01472527,-0.9916089,3.635154,0.3790232,-0.9942335,1.739317,-0.2486517,297.3838,106.1218,138.4028
2,2.644443,0.03284666,-0.3173353,-0.1977514,-1.285115,-1.503581,-1.775373,-1.07566,0.2505664,0,0,6.424242,0.1078873,0.04203682,0.0875098,-0.2979513,4.102688,1.588807,0.007138148,-0.129687,0.03097205,-0.990917,3.634073,0.379612,-0.9950258,1.738861,-0.2464475,297.237,106.9538,138.203
2,2.655554,0.05168627,-0.3134959,-0.1672413,-1.281687,-1.503721,-1.77654,-1.077478,-0.1687524,0,0,6.424242,0.1150645,0.04110953,0.06398018,-0.2975225,4.103013,1.586952,0.01319003,-0.1178421,0.04274317,-0.9904328,3.632676,0.3800195,-0.9959159,1.738313,-0.2445804,297.1373,107.4941,138.0773
2,2.666665,0.06085599,-0.2957326,-0.1376093,-1.278787,-1.50644,-1.77562,-1.077265,0.02098617,0,0,9.212122,0.1199975,0.03492867,0.03403911,-0.2972524,4.10538,1.583227,0.01472548,-0.126456,0.05540939,-0.9902996,3.630193,0.3814914,-0.9966913,1.737458,-0.2431114,297.134,107.7895,138.0999
2,2.677776,0.1113389,-0.2784086,-0.08131318,-1.276175,-1.5085,-1.779393,-1.076349,0.08324029,0,0,9.212122,0.1270904,0.03084864,0.00515796,-0.2970325,4.108641,1.578438,0.01378809,-0.126611,0.06607337,-0.9898735,3.628124,0.3824941,-0.9972341,1.736213,-0.2420204,297.0858,108.3223,137.7786
2,2.688887,0.1482848,-0.2766396,-0.05361554,-1.273788,-1.510877,-1.782741,-1.07475,0.1453418,0,0,9.212122,0.1159946,0.03764924,-0.03621055,-0.2963385,4.114623,1.571955,0.01774243,-0.1169508,0.07465132,-0.989261,3.62654,0.3832805,-0.997719,1.734906,-0.2415247,296.8347,109.0121,137.2098
2,2.699998,0.1754851,-0.2621124,-0.02867267,-1.271324,-1.512242,-1.784467,-1.078938,-0.3842022,0,0,9.212122,0.09432954,0.03055474,-0.06265164,-0.2962357,4.120136,1.566358,0.02388656,-0.08470609,0.0738512,-0.9884514,3.62639,0.3828891,-0.9983302,1.734035,-0.2416273,296.5977,109.9592,136.3056
2,2.711109,0.1985015,-0.248532,-0.005728193,-1.270061,-1.512925,-1.788297,-1.078755,0.01991338,0,0,9.212122,0.08051018,0.04241526,-0.06665995,-0.2951741,4.122807,1.563456,0.02708978,-0.06413998,0.05699589,-0.9883252,3.626143,0.383063,-0.9990832,1.733208,-0.2422033,296.8804,110.2575,135.9684
2,2.72222,0.2151587,-0.2436484,0.02362861,-1.266976,-1.513225,-1.790879,-1.076373,0.2170868,0,0,8.484849,0.07630932,0.06167053,-0.07284815,-0.293825,4.12635,1.55938,0.0296136,-0.05110344,0.04431792,-0.9883401,3.626054,0.3826709,-0.9996617,1.73189,-0.2427339,297.1808,110.4895,135.3746
2,2.733331,0.2231111,-0.2279155,0.04167184,-1.264952,-1.512748,-1.794067,-1.077722,-0.1254643,0,0,8.484849,0.07525869,0.08735724,-0.08647896,-0.2920007,4.131275,1.553861,0.02328814,-0.05041718,0.05505271,-0.987695,3.624802,0.3836241,-1.000197,1.730247,-0.2431597,297.1532,110.884,134.7411
2,2.744442,0.2375017,-0.2090189,0.0627832,-1.263672,-1.512508,-1.797133,-1.076294,0.1315996,0,0,8.484849,0.07505625,0.0939206,-0.1077317,-0.2907453,4.13822,1.546382,0.02303225,-0.04200468,0.06365641,-0.9870479,3.624001,0.38397,-1.000802,1.728298,-0.2434923,297.1334,111.1701,134.4364
2,2.755553,0.251821,-0.2134636,0.07933495,-1.262013,-1.512164,-1.802094,-1.07628,-0.0001109196,0,0,8.484849,0.06370815,0.06557525,-0.1504434,-0.2911623,4.149037,1.535696,0.01957535,-0.03471774,0.06697057,-0.9863241,3.623447,0.3841751,-1.001506,1.725916,-0.2437782,297.0975,111.4818,134.1882
2,2.766664,0.2637033,-0.2242638,0.09038101,-1.259468,-1.5139,-1.804455,-1.076092,0.01721458,0,0,8.484849,0.04965481,0.07009289,-0.1704826,-0.290333,4.157563,1.527411,-0.002116632,-0.02806753,0.05983185,-0.9861265,3.622943,0.3853304,-1.00253,1.723437,-0.2441083,296.9245,112.0463,133.5439
2,2.777775,0.2721688,-0.2552819,0.09494792,-1.255183,-1.514212,-1.806978,-1.077736,-0.1506415,0,0,8.363637,0.02615647,0.07886235,-0.1807934,-0.2892677,4.165915,1.519833,-0.01289568,-0.004815095,0.03889681,-0.9861259,3.623759,0.3853765,-1.003999,1.721086,-0.2443416,296.6448,112.7292,132.6332
2,2.788886,0.2775132,-0.2733781,0.09667821,-1.25257,-1.512975,-1.811284,-1.075738,0.1838507,0,0,8.363637,0.01449223,0.09495757,-0.1858512,-0.287893,4.173591,1.512607,-0.01001099,0.002749868,0.04001928,-0.9854596,3.623689,0.3856662,-1.005294,1.71856,-0.2442914,296.3104,113.5503,131.7715
2,2.799997,0.2826753,-0.3053432,0.09502894,-1.248312,-1.511668,-1.81487,-1.075087,0.05778492,0,0,8.363637,0.01256531,0.1205208,-0.183492,-0.2857913,4.181126,1.50531,-0.005208593,0.02086791,0.0582673,-0.9839693,3.62405,0.385353,-1.006477,1.716031,-0.2439675,296.0602,114.5614,130.8705
2,2.811108,0.290343,-0.3214625,0.1062954,-1.245074,-1.510018,-1.819063,-1.076268,-0.1083896,0,0,8.363637,0.01375391,0.1311227,-0.1791645,-0.2842669,4.188329,1.498144,-0.00115459,0.02837068,0.06896311,-0.9826425,3.623951,0.3856374,-1.007559,1.713654,-0.2435762,295.8111,115.4692,130.2046
2,2.822219,0.2863926,-0.3130909,0.120175,-1.242051,-1.509839,-1.821816,-1.075562,0.06533768,0,0,7.030303,0.01379587,0.1300232,-0.1749122,-0.2829976,4.19504,1.491516,-0.01269978,0.02774783,0.08294269,-0.9812214,3.623633,0.3863682,-1.008355,1.7114,-0.2432951,295.4963,116.0619,129.9139
2,2.83333,0.2643604,-0.2864479,0.12946,-1.240685,-1.508568,-1.825176,-1.07586,-0.02790331,0,0,7.030303,-0.003190398,0.1375996,-0.1746577,-0.28142,4.202756,1.484636,-0.01837158,0.04217978,0.1066156,-0.9789264,3.623668,0.3870388,-1.00896,1.709315,-0.2434339,295.2776,116.5416,129.7753
2,2.844441,0.2442996,-0.2726387,0.1363856,-1.238026,-1.507498,-1.827323,-1.074867,0.09102629,0,0,7.030303,-0.004270986,0.137625,-0.175712,-0.2799462,4.210446,1.477357,-0.01741738,0.05049519,0.1290752,-0.9765737,3.623509,0.38763,-1.009687,1.707459,-0.2441322,295.3398,116.8607,129.4866
2,2.855552,0.2319031,-0.2620912,0.1505862,-1.236333,-1.505566,-1.830598,-1.074984,-0.01151247,0,0,7.030303,-0.01303755,0.1239387,-0.1885054,-0.279258,4.219854,1.468747,-0.008022107,0.05720245,0.1354294,-0.9746573,3.623696,0.3872841,-1.010644,1.705826,-0.2451087,295.4524,117.1986,128.7904
2,2.866663,0.2333783,-0.2568321,0.1643595,-1.235517,-1.504295,-1.834993,-1.073898,0.09946103,0,0,7.030303,-0.02711198,0.1102663,-0.1991116,-0.2788511,4.229746,1.460077,-0.008283705,0.0615267,0.1291037,-0.9730221,3.623968,0.3874127,-1.011534,1.704236,-0.2462153,295.4041,117.4242,128.3438
2,2.877774,0.2260949,-0.2323272,0.1680124,-1.234545,-1.502206,-1.838141,-1.074695,-0.07360299,0,0,6.060606,-0.04413047,0.1103666,-0.1967826,-0.2778614,4.23782,1.453346,-0.02155558,0.07069019,0.1197675,-0.9716538,3.624709,0.3877086,-1.012188,1.702533,-0.2474024,295.3267,117.7571,127.9365
2,2.888885,0.2156876,-0.2163552,0.1747744,-1.233696,-1.500553,-1.841363,-1.076149,-0.1322282,0,0,6.060606,-0.05572575,0.1146391,-0.1880959,-0.2766513,4.245144,1.447372,-0.02283619,0.07391985,0.1123589,-0.9703776,3.62528,0.3876889,-1.012713,1.700818,-0.2486881,295.2816,118.1256,127.407
2,2.899997,0.2000445,-0.1994021,0.1880581,-1.232832,-1.498755,-1.843453,-1.074736,0.1302091,0,0,6.060606,-0.06623414,0.1263871,-0.1825523,-0.2751029,4.252571,1.441308,-0.02040645,0.09114146,0.1072023,-0.9686449,3.626572,0.3872313,-1.013113,1.698942,-0.249781,295.3467,118.2574,126.9058
2,2.911108,0.1799062,-0.2003865,0.1905697,-1.231637,-1.496927,-1.846185,-1.074761,-0.003498407,0,0,6.060606,-0.08426392,0.1393135,-0.1833082,-0.273309,4.261304,1.434339,-0.02179351,0.09957951,0.1094398,-0.9669997,3.627377,0.3870428,-1.013674,1.697088,-0.250748,295.2625,118.3558,126.5822
2,2.922219,0.1617612,-0.2056629,0.191862,-1.229541,-1.495874,-1.847281,-1.073667,0.1002182,0,0,6.545455,-0.09479865,0.1457251,-0.1767384,-0.2717948,4.268504,1.428786,-0.02560759,0.1174415,0.1192643,-0.9647482,3.628816,0.3866667,-1.014413,1.695333,-0.251605,295.1001,118.7224,126.0854
2,2.93333,0.1490941,-0.2088298,0.1963469,-1.228399,-1.493297,-1.849832,-1.074282,-0.0570611,0,0,6.545455,-0.09256205,0.146707,-0.1682332,-0.2703833,4.275288,1.423192,-0.03177842,0.1128759,0.1246208,-0.9627753,3.629408,0.3871232,-1.015303,1.69382,-0.2523164,294.8859,119.2877,125.4179
2,2.944441,0.1480963,-0.2056839,0.1995624,-1.226724,-1.490925,-1.852024,-1.073131,0.105987,0,0,6.545455,-0.08721611,0.1391635,-0.1619602,-0.2693505,4.281691,1.417809,-0.03999944,0.104057,0.1214349,-0.961171,3.629871,0.3877248,-1.016206,1.692466,-0.2529067,294.7689,119.7095,124.9797
2,2.955552,0.1526889,-0.1994525,0.2123182,-1.225727,-1.48764,-1.855207,-1.074099,-0.08933552,0,0,6.545455,-0.08524415,0.1199917,-0.1642684,-0.2689771,4.28915,1.411497,-0.05077882,0.1037506,0.109837,-0.9599679,3.630785,0.3881198,-1.017145,1.691402,-0.2534054,294.6412,120.1921,124.4852
2,2.966663,0.1591226,-0.1951459,0.2110823,-1.224998,-1.485892,-1.858585,-1.074072,0.003340312,0,0,6.545455,-0.0946964,0.1328138,-0.1608588,-0.2673979,4.296585,1.405556,-0.05701289,0.09720333,0.1013221,-0.9587263,3.631437,0.3886572,-1.017815,1.690452,-0.2539132,294.4622,120.3589,124.4722
2,2.977774,0.1621601,-0.200406,0.2055792,-1.223303,-1.483574,-1.861146,-1.074828,-0.06907485,0,0,6.909091,-0.1019696,0.152005,-0.1563581,-0.2653744,4.304034,1.399741,-0.06218712,0.09070426,0.09172316,-0.9578032,3.63201,0.3891802,-1.018115,1.689491,-0.2545837,294.354,120.3646,124.6477
2,2.988885,0.1546269,-0.2003075,0.2014554,-1.221951,-1.481277,-1.863701,-1.075647,-0.07427315,0,0,6.909091,-0.1059624,0.177544,-0.1486514,-0.2627667,4.311409,1.393872,-0.05361127,0.0909856,0.09803124,-0.9560194,3.632563,0.3893275,-1.018263,1.688441,-0.255525,294.4418,120.0186,124.9856
2,2.999996,0.1408083,-0.197085,0.2038773,-1.220533,-1.479366,-1.865039,-1.074694,0.08761277,0,0,6.909091,-0.1060241,0.1775869,-0.1539773,-0.2611112,4.319992,1.38677,-0.04417819,0.09766501,0.1075824,-0.954087,3.633466,0.3889579,-1.018727,1.687395,-0.2567528,294.5909,119.7042,125.0671
2,3.011107,0.1282377,-0.1875423,0.2117168,-1.219628,-1.476678,-1.867051,-1.074588,0.008970952,0,0,6.909091,-0.09767945,0.1573193,-0.1574298,-0.2604327,4.327707,1.380076,-0.04416485,0.1007206,0.1204072,-0.9519022,3.634026,0.3891789,-1.019244,1.686194,-0.2581049,294.601,119.8482,124.6748
2,3.022218,0.1222448,-0.174935,0.2269143,-1.218901,-1.473498,-1.86941,-1.073578,0.09231911,0,0,6.909091,-0.09668885,0.1359557,-0.1512212,-0.2600188,4.333819,1.375203,-0.04726632,0.1035783,0.1396472,-0.9494313,3.634427,0.3896037,-1.01985,1.684842,-0.2595178,294.5834,120.177,124.0805
2,3.033329,0.1128495,-0.1547181,0.2326407,-1.218741,-1.4715,-1.871058,-1.074,-0.03928055,0,0,4.363636,-0.09462735,0.1252934,-0.1513279,-0.2591959,4.341039,1.369159,-0.04420202,0.104845,0.1332398,-0.9476858,3.635211,0.3897281,-1.02055,1.683507,-0.2608692,294.4977,120.6931,123.2628
2,3.04444,0.1118832,-0.1419361,0.2349625,-1.218775,-1.4685,-1.873342,-1.074361,-0.03246933,0,0,4.363636,-0.1030691,0.1274421,-0.1458827,-0.2579985,4.347598,1.364183,-0.04075307,0.09758327,0.1288581,-0.9461881,3.635795,0.3896815,-1.02111,1.682039,-0.2620881,294.4147,120.8676,122.9318
2,3.055551,0.1142385,-0.1420447,0.2443599,-1.218059,-1.466971,-1.875358,-1.074188,0.01606969,0,0,4.363636,-0.1178458,0.1381541,-0.1402979,-0.2564507,4.354321,1.359455,-0.04599597,0.08705749,0.0989894,-0.9456049,3.636502,0.390042,-1.021591,1.680502,-0.2632857,294.2479,120.9673,122.7847
2,3.066662,0.1233638,-0.1567097,0.2247512,-1.216904,-1.464765,-1.878338,-1.074539,-0.03216333,0,0,4.363636,-0.1219875,0.154165,-0.1401111,-0.2545604,4.361772,1.353592,-0.05256049,0.08696362,0.08416657,-0.9445269,3.637382,0.3904154,-1.021918,1.679025,-0.2644873,294.0103,121.3998,122.2841
2,3.077773,0.1157505,-0.1662024,0.2194759,-1.215547,-1.461773,-1.880424,-1.074877,-0.03061291,0,0,3.878788,-0.1134512,0.1508848,-0.1370402,-0.2533407,4.36854,1.348042,-0.04717319,0.0809905,0.06698759,-0.9440842,3.63834,0.3901464,-1.0223,1.677811,-0.2657134,293.8847,121.7582,121.7399
2,3.088884,0.1061692,-0.1650909,0.219681,-1.214733,-1.459148,-1.882209,-1.075642,-0.06968004,0,0,3.878788,-0.109179,0.1519282,-0.1370742,-0.2519089,4.375731,1.34208,-0.04368302,0.07896334,0.06681794,-0.9442472,3.640005,0.3860798,-1.022816,1.676855,-0.2669001,293.8959,121.8953,121.413
2,3.099995,0.1032015,-0.1609389,0.2293532,-1.213959,-1.456301,-1.884194,-1.074536,0.1016538,0,0,3.878788,-0.1060081,0.1519234,-0.1392418,-0.2506248,4.383696,1.335433,-0.04893557,0.08173921,0.08501788,-0.9424352,3.640453,0.3865221,-1.023239,1.675912,-0.2679965,293.9068,121.8484,121.3974
2,3.111106,0.1099326,-0.1472552,0.2420628,-1.213744,-1.454291,-1.886362,-1.074256,0.02469365,0,0,3.878788,-0.09757748,0.1422932,-0.141552,-0.2498034,4.391581,1.328663,-0.05179025,0.07715567,0.1020585,-0.9404607,3.640361,0.3874977,-1.02354,1.674903,-0.2691146,293.8655,121.7794,121.4937
2,3.122217,0.1198914,-0.1261499,0.2548954,-1.21407,-1.450704,-1.88929,-1.074437,-0.01659491,0,0,3.878788,-0.09982421,0.1327551,-0.1458646,-0.2491004,4.399745,1.321941,-0.05052257,0.07495262,0.1126737,-0.9386732,3.64048,0.3879552,-1.023814,1.67383,-0.2703358,293.8327,121.7332,121.4888
2,3.133328,0.1265221,-0.09425679,0.2604249,-1.215104,-1.448529,-1.891711,-1.074991,-0.05046942,0,0,8.484849,-0.1106985,0.1137117,-0.153345,-0.2489992,4.407814,1.315765,-0.0491428,0.06750383,0.1157744,-0.9372085,3.640342,0.3888154,-1.024058,1.672739,-0.2716016,293.7873,121.88,121.1265
2,3.144439,0.1254994,-0.08253607,0.260602,-1.215525,-1.445374,-1.894197,-1.075271,-0.02515206,0,0,8.484849,-0.1149551,0.1158821,-0.1543411,-0.2480399,4.416053,1.309168,-0.04814522,0.0686371,0.1136441,-0.9357948,3.640693,0.3891222,-1.024323,1.671664,-0.2728208,293.7219,121.9799,120.7833
2,3.15555,0.1232168,-0.07708599,0.2542945,-1.215942,-1.443185,-1.89593,-1.075261,0.001095807,0,0,8.484849,-0.1135361,0.1434591,-0.1402845,-0.245838,4.422995,1.30362,-0.04744772,0.07312461,0.09771037,-0.9348617,3.641783,0.3892226,-1.024494,1.670522,-0.2739916,293.5915,121.9443,120.6651
2,3.166661,0.1199646,-0.07917793,0.2522113,-1.215906,-1.440111,-1.898216,-1.074957,0.02772661,0,0,8.484849,-0.1145013,0.1465912,-0.1327951,-0.2446603,4.429848,1.298434,-0.04182769,0.06180383,0.08261132,-0.9343056,3.641948,0.3895848,-1.024639,1.669325,-0.2750552,293.4734,121.8859,120.5619
2,3.177772,0.1112715,-0.08438039,0.2448287,-1.215433,-1.437918,-1.900212,-1.074519,0.03976548,0,0,6.30303,-0.1071366,0.13697,-0.135089,-0.2439637,4.437502,1.291942,-0.03644756,0.05582597,0.06437986,-0.9340271,3.642101,0.3897411,-1.024799,1.668089,-0.2760799,293.3795,121.848,120.4914
2,3.188883,0.1142887,-0.08960056,0.2372065,-1.215321,-1.435481,-1.902642,-1.074756,-0.02187335,0,0,6.30303,-0.09347689,0.1230807,-0.1428103,-0.243676,4.445505,1.284812,-0.03863916,0.05783287,0.06761889,-0.9329815,3.642545,0.3901379,-1.024993,1.666801,-0.2770129,293.3019,121.865,120.3332
2,3.199994,0.1184938,-0.093868,0.2359375,-1.214692,-1.433135,-1.904809,-1.074839,-0.007393512,0,0,6.30303,-0.08938201,0.108181,-0.148305,-0.2435514,4.453715,1.277729,-0.04073047,0.05973108,0.07938567,-0.9314938,3.642589,0.3906908,-1.025205,1.665553,-0.2779844,293.1028,122.0743,120.1248
2,3.211105,0.1351076,-0.1011257,0.2173144,-1.214173,-1.431295,-1.907859,-1.075204,-0.03328555,0,0,6.30303,-0.08711247,0.1080764,-0.1366114,-0.2426092,4.459532,1.272929,-0.03965525,0.06493906,0.09324608,-0.9300967,3.643469,0.3891981,-1.025356,1.664355,-0.2790675,292.9471,122.4078,119.8395
2,3.222216,0.1336076,-0.1115507,0.2001617,-1.213256,-1.42907,-1.9101,-1.075006,0.01833869,0,0,6.30303,-0.08914381,0.1187263,-0.1343711,-0.2414187,4.467252,1.266497,-0.03527595,0.06397533,0.100639,-0.9286139,3.643596,0.3894402,-1.025489,1.663163,-0.2802268,292.9329,122.5125,119.6077
2,3.233327,0.1257312,-0.1165944,0.1821439,-1.21261,-1.427416,-1.912039,-1.075997,-0.09080738,0,0,5.818182,-0.08251102,0.1302916,-0.1205098,-0.2398528,4.473575,1.261087,-0.02864976,0.05477454,0.08875589,-0.9279013,3.643438,0.3899291,-1.025596,1.661948,-0.2813374,292.9351,122.5885,119.2671
2,3.244438,0.1093944,-0.1280906,0.1695448,-1.211188,-1.42592,-1.912912,-1.075106,0.08225441,0,0,5.818182,-0.06211956,0.1289658,-0.1069093,-0.2389069,4.478124,1.256649,-0.02814688,0.03589937,0.06296571,-0.9282064,3.643287,0.3903406,-1.025625,1.660654,-0.2823251,292.904,122.7098,118.9521
2,3.255549,0.1116042,-0.1462785,0.1756226,-1.20986,-1.423287,-1.915152,-1.074855,0.02209553,0,0,5.818182,-0.04220551,0.08944689,-0.1117205,-0.2396579,4.483325,1.251381,-0.02765598,0.02110779,0.05214266,-0.9281063,3.642695,0.391013,-1.025678,1.659356,-0.2832464,292.8232,122.9701,118.5986
2,3.26666,0.1242149,-0.1472795,0.1678539,-1.20898,-1.421175,-1.91778,-1.073867,0.09027195,0,0,5.818182,-0.03603584,0.05316489,-0.1088876,-0.2404914,4.487255,1.247892,-0.03442059,0.0017303,0.04453007,-0.9282043,3.641913,0.3923017,-1.025825,1.658132,-0.2841186,292.7581,123.3412,118.1202
2,3.277771,0.1432459,-0.1419351,0.1610777,-1.208112,-1.419235,-1.920554,-1.074801,-0.08604521,0,0,5.818182,-0.04127292,0.04992856,-0.09926433,-0.2403066,4.490908,1.24499,-0.03222672,0.0007281322,0.04663243,-0.9275715,3.641546,0.3928283,-1.025919,1.657032,-0.2848544,292.6696,123.905,117.4271
2,3.288882,0.1527346,-0.1355019,0.1556036,-1.207461,-1.417361,-1.923275,-1.07552,-0.06494011,0,0,5.818182,-0.04536869,0.07339791,-0.0990319,-0.2389798,4.498,1.238746,-0.0257093,-0.001199679,0.05186231,-0.9269451,3.641141,0.3932815,-1.025823,1.655995,-0.2855018,292.5703,124.2031,117.1197
2,3.299993,0.144881,-0.1224364,0.1367587,-1.206924,-1.416451,-1.924929,-1.075745,-0.02016299,0,0,5.818182,-0.04713295,0.09563648,-0.08072014,-0.2373414,4.501721,1.235713,-0.01719113,0.001181823,0.06032526,-0.9259539,3.640825,0.393334,-1.02561,1.655007,-0.2861529,292.5311,124.2556,117.0785
2,3.311104,0.1320694,-0.1138192,0.133958,-1.206609,-1.414924,-1.926626,-1.07565,0.008753506,0,0,5.818182,-0.02990197,0.09965956,-0.0670355,-0.2364493,4.504213,1.233083,-0.01378955,-0.004019453,0.06129042,-0.9254549,3.640286,0.393971,-1.025383,1.653965,-0.2867999,292.5719,124.0768,117.1897
2,3.322215,0.1258317,-0.1096104,0.1405459,-1.206337,-1.412877,-1.928347,-1.074853,0.07274482,0,0,5.818182,-0.01620772,0.09003727,-0.07472973,-0.2361777,4.509516,1.227644,-0.01578428,-0.01137537,0.04524683,-0.9256424,3.639861,0.3944634,-1.025229,1.652848,-0.2874615,292.588,123.9936,117.1673
2,3.333326,0.1331444,-0.1170108,0.1349373,-1.205433,-1.411187,-1.930806,-1.07459,0.02343163,0,0,8,-0.00581567,0.06552149,-0.08250734,-0.2367955,4.514233,1.222842,-0.02747704,-0.0179868,0.02293108,-0.9261521,3.639598,0.3954419,-1.025219,1.651714,-0.2880881,292.5446,124.1996,116.8248
2,3.344437,0.1498419,-0.1360874,0.1225756,-1.20373,-1.40944,-1.933655,-1.074454,0.01230378,0,0,8,0.01427843,0.06227438,-0.09342036,-0.2367199,4.520689,1.215733,-0.01911569,-0.04003303,0.02259202,-0.9264866,3.638073,0.3963204,-1.025231,1.650605,-0.2886454,292.4133,124.6399,116.2766
2,3.355548,0.1726917,-0.1454522,0.09950183,-1.201944,-1.408974,-1.936168,-1.075339,-0.08089136,0,0,8,0.02174144,0.06329101,-0.09350202,-0.236355,4.52619,1.209923,-0.01007267,-0.02583775,0.02586193,-0.9258165,3.638063,0.3961772,-1.025169,1.649551,-0.2891054,292.2675,125.0703,115.776
2,3.366659,0.190472,-0.1431779,0.08418641,-1.200781,-1.408129,-1.939362,-1.075782,-0.03983169,0,0,8,0.01754375,0.06113905,-0.08706961,-0.2360109,4.529475,1.206658,-0.01341021,-0.01767203,0.04516738,-0.9246922,3.637665,0.3966754,-1.024943,1.64848,-0.2895178,292.1916,125.3455,115.5411
2,3.37777,0.1978703,-0.1335637,0.0809315,-1.200087,-1.407076,-1.941916,-1.075857,-0.006716159,0,0,8,0.01657499,0.06964242,-0.08379342,-0.2353233,4.534388,1.201731,-0.0167741,-0.01252596,0.04953279,-0.9238889,3.637348,0.3971724,-1.024544,1.647301,-0.2898847,292.2518,125.5658,115.2851
2,3.388881,0.1884249,-0.1058376,0.08256745,-1.200363,-1.40621,-1.944173,-1.076287,-0.03934079,0,0,6.181818,0.02290309,0.07499422,-0.09234989,-0.234829,4.54149,1.194369,-0.01249304,-0.008173465,0.05801111,-0.9235864,3.637702,0.3953827,-1.02416,1.646035,-0.2901099,292.3661,125.7424,114.9271
2,3.399992,0.1787671,-0.07374486,0.07574937,-1.200905,-1.40582,-1.945714,-1.0755,0.07225625,0,0,6.181818,0.02703789,0.06755994,-0.09885032,-0.2348572,4.547544,1.188043,-0.009258089,-0.0111382,0.04942067,-0.9234468,3.637319,0.3956147,-1.023916,1.644719,-0.2902175,292.3626,125.9149,114.6424
2,3.411103,0.1681601,-0.06411213,0.07611388,-1.200944,-1.40494,-1.947672,-1.075099,0.03585086,0,0,6.181818,0.03967237,0.04187789,-0.09600841,-0.2355981,4.55054,1.184387,-0.007134633,-0.01614768,0.02909975,-0.9238708,3.637061,0.3959383,-1.023808,1.643372,-0.2902023,292.2395,126.2158,114.308
2,3.422215,0.1721574,-0.06398335,0.06533716,-1.200228,-1.404668,-1.949666,-1.074514,0.05323174,0,0,6.181818,0.04384165,0.03227869,-0.09826516,-0.2360067,4.555308,1.179121,0.001422203,-0.01991045,0.01618251,-0.9242367,3.636808,0.3957673,-1.02378,1.642029,-0.2900966,292.0425,126.6157,113.9484
2,3.433326,0.1631601,-0.07114287,0.04625839,-1.199434,-1.404622,-1.951162,-1.074728,-0.0198818,0,0,7.151515,0.05438174,0.01622294,-0.098515,-0.2367806,4.558913,1.174685,0.006636191,-0.01957318,0.005469222,-0.9246772,3.636696,0.3955353,-1.023805,1.641595,-0.2899491,291.9921,126.5931,114.0508
2,3.444437,0.1620416,-0.07217661,0.04413956,-1.198827,-1.403885,-1.953186,-1.075043,-0.02860364,0,0,7.151515,0.05447244,0.021508,-0.09420453,-0.236739,4.562477,1.170564,0.0003115982,-0.02194201,0.003384195,-0.9246996,3.63622,0.3961029,-1.023573,1.641706,-0.2897342,292.0641,125.9587,114.775
2,3.455548,0.151313,-0.0848951,0.04314955,-1.197896,-1.403003,-1.954749,-1.074677,0.03371716,0,0,7.151515,0.04717934,0.04499448,-0.09393005,-0.2359848,4.568694,1.164261,-0.002901979,-0.01900193,0.01410609,-0.9242857,3.635846,0.396505,-1.023157,1.641993,-0.2894746,292.2479,124.9967,115.8316
2,3.466659,0.1256404,-0.05163743,0.03352116,-1.198594,-1.403341,-1.955371,-1.074929,-0.02334862,0,0,7.151515,0.03999631,0.06519027,-0.08196094,-0.2349105,4.572983,1.159934,-0.001879636,-0.01683808,0.0151741,-0.9242666,3.635781,0.39604,-1.022629,1.642256,-0.2892134,292.554,124.0785,116.8799
