ref,t,emg1,emg2,emg1raw,emg2raw,aDotS,bDotS,gDotS,aS,bS,gS,aDotSH,bDotSH,gDotSH,aSH,bSH,gSH
0,0,132,375,498,486,0.01054038,-0.06612003,0.04910991,-1.391788,-3.048492,-1.596188,-0.004927188,0.07573259,-0.00366297,-0.788375,-2.501084,1.243764
0,0.01111111,116,319,500,499,0.01909301,-0.06928641,0.0438051,-1.392126,-3.047696,-1.596796,0.0004904047,0.08426774,0.01763766,-0.7877998,-2.498766,1.242347
0,0.02222222,116,319,500,499,0.02222305,-0.05543401,0.0395067,-1.392457,-3.047409,-1.597159,-0.003668614,0.09489775,0.03791159,-0.7873183,-2.496569,1.240964
0,0.03333334,116,319,500,499,0.02533937,-0.04263328,0.04267285,-1.393096,-3.047156,-1.597495,-0.01217438,0.09381152,0.04544114,-0.7867862,-2.494748,1.240451
0,0.04444445,116,319,500,499,0.02309624,-0.02134259,0.04153595,-1.393527,-3.047521,-1.597631,-0.0111162,0.08529439,0.04116772,-0.7866978,-2.493572,1.239703
0,0.05555556,116,319,500,499,0.01772275,-0.009671813,0.03617071,-1.393928,-3.047665,-1.597726,-0.01556178,0.06721134,0.009242099,-0.7873135,-2.493168,1.240017
0,0.06666667,114,383,499,479,0.01770599,-0.002249441,0.02656707,-1.394093,-3.047757,-1.597966,-0.0199423,0.04697821,-0.01737667,-0.7881849,-2.493649,1.240682
0,0.07777778,114,383,499,479,0.01454789,-0.005490777,0.01698887,-1.39413,-3.047635,-1.598082,-0.01690333,0.01823959,-0.04722463,-0.7890211,-2.494911,1.242159
0,0.08888889,114,383,499,479,0.01460815,-0.01087234,0.007408806,-1.393836,-3.046988,-1.598559,-0.004049261,0.01721273,-0.03772242,-0.7892986,-2.494381,1.241334
0,0.1,114,383,499,479,0.01147202,-0.02047518,0.005296992,-1.393789,-3.046634,-1.598752,-0.0006673271,0.02572134,-0.004713189,-0.7887021,-2.493346,1.240533
0,0.1111111,114,383,499,479,0.01465866,-0.01939979,0.005302068,-1.393899,-3.046374,-1.598992,-0.0006648861,0.03317486,0.005966775,-0.7883319,-2.492298,1.240465
0,0.1222222,107,293,500,500,0.01785891,-0.01938916,0.00317804,-1.393891,-3.046181,-1.599305,0.001471061,0.04489478,0.01128746,-0.7883404,-2.491121,1.239561
0,0.1333333,107,293,500,500,0.02106194,-0.01936794,0.002118058,-1.39387,-3.046083,-1.59971,0.006732427,0.04490576,0.008089766,-0.7881092,-2.490365,1.239429
0,0.1444445,107,293,500,500,0.01577535,-0.0247398,-0.003202603,-1.39372,-3.045628,-1.599804,0.007792078,0.04171381,0.005950464,-0.7882366,-2.489903,1.238967
0,0.1555556,107,293,500,500,0.01261882,-0.02903666,-0.009586932,-1.393472,-3.045217,-1.599974,0.001430698,0.05130672,0.01131491,-0.7884528,-2.488288,1.23772
0,0.1666667,108,360,499,482,0.01157742,-0.0311903,-0.01703194,-1.393224,-3.044879,-1.600076,-0.002886701,0.05556074,0.00389111,-0.7887841,-2.487387,1.237226
0,0.1777778,108,360,499,482,0.01257862,-0.01734722,-0.02133713,-1.39284,-3.045066,-1.600249,0.004524857,0.04813133,-0.007884049,-0.7893567,-2.487144,1.236656
0,0.1888889,108,360,499,482,0.01360986,-0.01095514,-0.01922608,-1.392676,-3.044924,-1.600538,0.009895558,0.04388897,-0.00579804,-0.7896134,-2.486565,1.235707
0,0.2,108,360,499,482,0.01461713,-0.00134952,-0.01605891,-1.392561,-3.0452,-1.600677,0.00999702,0.03216332,0.005912416,-0.7892784,-2.486331,1.235424
0,0.2111111,108,360,499,482,0.01564713,0.001878368,-0.008606452,-1.392695,-3.045321,-1.600823,0.01647587,0.02045979,0.01118259,-0.7891713,-2.486254,1.234666
0,0.2222222,100,284,500,500,0.01669566,0.002966043,-0.003281161,-1.392808,-3.045385,-1.601015,0.02078244,0.009815022,0.01434482,-0.78888,-2.486338,1.234368
0,0.2333333,100,284,500,500,0.01136599,0.0008307319,0.003109002,-1.393022,-3.045397,-1.600963,0.01761096,0.009808688,0.01436482,-0.7888022,-2.486066,1.233734
0,0.2444444,100,284,500,500,0.01139612,-0.005554263,0.005259631,-1.393134,-3.04516,-1.601132,0.01653393,0.0119374,0.01330759,-0.7887521,-2.485745,1.233363
0,0.2555556,100,284,500,500,0.01246759,-0.006618855,0.004201398,-1.393156,-3.045056,-1.601312,0.01653099,0.02045847,0.01437837,-0.7887303,-2.485026,1.232521
0,0.2666667,99,352,500,501,0.01134812,0.001907046,0.007368627,-1.393305,-3.045292,-1.601356,0.01227004,0.03429363,0.01974054,-0.7886403,-2.483823,1.231683
0,0.2777778,99,352,500,501,0.0113414,0.002982999,0.008433074,-1.393461,-3.045475,-1.601464,0.009048313,0.04920376,0.01764519,-0.788783,-2.48243,1.230319
0,0.2888889,99,352,500,501,0.009159617,0.01044168,0.01266308,-1.393668,-3.045808,-1.601426,0.008009456,0.04387587,0.01978475,-0.7885748,-2.481777,1.229779
0,0.3,99,352,500,501,0.009157658,0.01044691,0.01372759,-1.393842,-3.045991,-1.601513,0.00477756,0.03216487,0.007005658,-0.7889998,-2.481791,1.229588
0,0.3111111,99,352,500,501,0.009212439,0.002976273,0.01055372,-1.393864,-3.045783,-1.60178,0.01009977,0.01833158,-0.001567936,-0.7892741,-2.482186,1.22938
0,0.3222222,97,377,499,497,0.009227515,-0.0002162368,0.01162901,-1.394027,-3.045695,-1.601898,0.01007762,0.01087871,-0.007964587,-0.7894957,-2.482419,1.229433
0,0.3333333,97,377,499,497,0.005061844,-0.01941865,0.01380677,-1.394224,-3.044801,-1.601946,0.003632075,0.006623223,-0.01857267,-0.7899213,-2.482358,1.229504
0,0.3444445,97,377,499,497,0.005177079,-0.04072417,0.01387327,-1.394408,-3.043744,-1.602196,0.003700155,0.008746149,-0.006853204,-0.7897492,-2.48206,1.229269
0,0.3555556,97,377,499,497,0.01163062,-0.05135447,0.01285688,-1.394563,-3.042813,-1.602692,0.007999758,0.01940463,0.003780413,-0.7895948,-2.481142,1.228435
0,0.3666667,94,312,499,494,0.01593971,-0.05985625,0.01183339,-1.394782,-3.041922,-1.603105,0.005895425,0.027917,0.01125635,-0.7894297,-2.480228,1.227774
0,0.3777778,94,312,499,494,0.01600121,-0.07156646,0.01399651,-1.394958,-3.040879,-1.603486,-0.002639303,0.03110014,0.01024437,-0.7895628,-2.479543,1.227551
0,0.3888889,94,312,499,494,0.02026744,-0.0704953,0.01186361,-1.394964,-3.039973,-1.604066,-0.01015716,0.03428794,0.001776315,-0.7898254,-2.478936,1.227434
0,0.4,94,312,499,494,0.02130971,-0.0694021,0.01932064,-1.395376,-3.039225,-1.604435,-0.01334376,0.04280063,0.006061174,-0.7899346,-2.477909,1.226873
0,0.4111111,94,312,499,494,0.02555146,-0.06618282,0.01931995,-1.395618,-3.038591,-1.604902,-0.002680574,0.0417549,0.007068163,-0.7898233,-2.477303,1.226135
0,0.4222222,93,274,500,502,0.0254567,-0.0512403,0.02672541,-1.396057,-3.038534,-1.605185,0.0005811267,0.03643804,0.01236857,-0.7897109,-2.476715,1.225352
0,0.4333333,93,274,500,502,0.0254245,-0.04695226,0.03309663,-1.39648,-3.038231,-1.605574,-0.003677711,0.04175031,0.0145318,-0.7896646,-2.475851,1.224887
0,0.4444444,93,274,500,502,0.02960271,-0.032012,0.03412422,-1.396881,-3.038289,-1.606003,-0.009086872,0.04601348,0.002856385,-0.790113,-2.474981,1.224519
0,0.4555556,93,274,500,502,0.02211287,-0.02992583,0.03623299,-1.397337,-3.037842,-1.605874,-0.009178639,0.04388758,-0.01418939,-0.7907714,-2.474855,1.224408
0,0.4666667,93,274,500,502,0.01681272,-0.03421973,0.03305025,-1.397774,-3.037392,-1.605958,-0.008165156,0.03324502,-0.02591799,-0.791279,-2.474953,1.224613
0,0.4777778,90,276,499,492,0.0136304,-0.03849754,0.03411787,-1.39813,-3.036824,-1.606033,-0.007111087,0.0247329,-0.0301889,-0.7916944,-2.474985,1.224754
0,0.4888889,90,276,499,492,0.0104125,-0.03425354,0.03197537,-1.398558,-3.036688,-1.606032,-0.003905891,0.01515698,-0.03448018,-0.7921717,-2.475296,1.22475
0,0.5,90,276,499,492,0.009266019,-0.02358365,0.04045609,-1.39914,-3.036701,-1.606027,0.001469888,0.005579151,-0.03025894,-0.7923239,-2.47565,1.224824
0,0.5111111,90,276,499,492,0.00816307,-0.01508341,0.04147768,-1.399429,-3.03647,-1.606283,0.003603436,0.00453575,-0.03132907,-0.7926462,-2.475388,1.224444
0,0.5222223,87,273,499,493,0.002761036,-0.002318971,0.04462278,-1.399982,-3.036795,-1.606104,0.006797647,0.002413476,-0.03241578,-0.7929946,-2.475614,1.224449
0,0.5333334,87,273,499,493,0.0006044358,0.006201718,0.04565881,-1.400514,-3.037192,-1.606323,0.00897501,0.0002995059,-0.02709557,-0.7930835,-2.475404,1.224016
0,0.5444446,87,273,499,493,-0.003727082,0.02107254,0.0402723,-1.400732,-3.037767,-1.606062,0.008959463,-0.001827268,-0.03029758,-0.7935426,-2.475715,1.224163
0,0.5555557,87,273,499,493,-0.003730588,0.02215067,0.04239911,-1.401237,-3.038125,-1.606069,0.01113508,-0.01034732,-0.02819031,-0.7937147,-2.476333,1.224254
0,0.5666668,87,273,499,493,-0.004784882,0.02212843,0.03707048,-1.401491,-3.038388,-1.605939,0.01862678,-0.02097463,-0.02825016,-0.7939624,-2.477044,1.224197
0,0.577778,86,245,500,486,-0.006938443,0.02425031,0.0391953,-1.402046,-3.038676,-1.605638,0.02180942,-0.02948577,-0.03360248,-0.7942553,-2.478077,1.224625
0,0.5888891,86,245,500,486,-0.003738292,0.02425761,0.03706499,-1.402308,-3.038911,-1.605641,0.01970352,-0.02736098,-0.02932717,-0.7943895,-2.478429,1.224689
0,0.6000003,86,245,500,486,-0.001591027,0.02106833,0.03600815,-1.402596,-3.039042,-1.605627,0.01441439,-0.01779253,-0.0196997,-0.794382,-2.47835,1.224598
0,0.6111114,86,245,500,486,0.001634935,0.01574209,0.03071091,-1.402874,-3.039088,-1.605585,0.01335631,-0.009272382,-0.01540996,-0.7942889,-2.478084,1.224277
0,0.6222225,83,266,499,498,0.001668956,0.01146449,0.0253977,-1.403041,-3.039121,-1.605603,0.01015939,0.002435345,-0.01112066,-0.7943986,-2.477612,1.223932
0,0.6333337,83,266,499,498,0.002785811,0.002945097,0.02542646,-1.403351,-3.038914,-1.605772,0.01022934,0.002419618,-0.001536916,-0.7941962,-2.477743,1.223754
0,0.6444448,83,266,499,498,0.002837582,-0.005585026,0.01907119,-1.403543,-3.038819,-1.605718,0.007023023,0.001346443,-0.003644719,-0.7942329,-2.477801,1.223803
0,0.655556,83,266,499,498,0.003929818,-0.009853811,0.01588969,-1.403625,-3.038561,-1.605788,0.01020514,0.00134379,-0.006869905,-0.7944673,-2.478159,1.223763
0,0.6666671,83,266,499,498,0.006102702,-0.01730158,0.01485937,-1.40389,-3.038176,-1.605969,0.0144787,-0.0007763281,-0.00796276,-0.7945392,-2.478297,1.223374
0,0.6777782,83,358,500,495,0.005049332,-0.0183806,0.01165727,-1.403843,-3.037986,-1.606021,0.008079503,0.002404421,-0.007920576,-0.7946729,-2.478206,1.223408
0,0.6888894,83,358,500,495,0.003958862,-0.01412322,0.01377253,-1.404069,-3.037887,-1.606088,0.004880111,0.001336011,-0.008956695,-0.7946771,-2.478132,1.223403
0,0.7000005,83,358,500,495,0.003943455,-0.00987527,0.009496169,-1.404013,-3.037896,-1.606107,0.003830787,0.01411509,-0.0004189978,-0.7946936,-2.477276,1.222876
0,0.7111117,83,358,500,495,0.002851678,-0.005613922,0.009492829,-1.404295,-3.038041,-1.606037,-0.0003809817,0.01090154,0.005992884,-0.7945259,-2.477231,1.222938
0,0.7222228,84,289,500,497,-0.00140042,-0.005646168,0.005217643,-1.404178,-3.038043,-1.605897,-0.002509724,0.004506203,0.003871119,-0.7944859,-2.477385,1.223133
0,0.7333339,84,289,500,497,-0.004600828,-0.00564677,0.008408532,-1.404381,-3.038069,-1.605799,0.003910843,-0.01358225,0.001682943,-0.7944061,-2.478162,1.223442
0,0.7444451,84,289,500,497,-0.006725628,-0.006723576,0.008407481,-1.404472,-3.03798,-1.605673,0.0060248,-0.01783542,-0.002594512,-0.7944364,-2.478643,1.223653
0,0.7555562,84,289,500,497,-0.006755863,-0.002463721,0.007325159,-1.404467,-3.038107,-1.605463,0.01132394,-0.02740604,-0.0100947,-0.7945743,-2.479563,1.22408
0,0.7666674,84,289,500,497,-0.008909454,0.001785854,0.007307522,-1.404559,-3.038262,-1.605267,0.009181102,-0.02208024,-0.0100739,-0.7946468,-2.47959,1.224061
0,0.7777785,80,290,499,508,-0.008979319,0.01353071,0.01258921,-1.404722,-3.03891,-1.605135,0.009265531,-0.01462809,0.005895796,-0.7944268,-2.479224,1.223687
0,0.7888896,80,290,499,508,-0.01645697,0.01775347,0.01468222,-1.404791,-3.039139,-1.604827,0.00717924,-0.01036804,0.01335381,-0.7943432,-2.479007,1.223398
0,0.8000008,80,290,499,508,-0.0164539,0.01880552,0.01041775,-1.404774,-3.039405,-1.604618,0.01045332,-0.01249935,0.02505034,-0.7937051,-2.478958,1.223186
0,0.8111119,80,290,499,508,-0.02390238,0.01873991,0.006134151,-1.404612,-3.039446,-1.604144,0.01362415,-0.01994345,0.01970803,-0.7933913,-2.479369,1.223372
0,0.8222231,80,290,499,508,-0.02281457,0.0165986,0.0008165226,-1.40447,-3.039586,-1.603909,0.01997025,-0.03163833,0.007941665,-0.7933711,-2.480348,1.223682
0,0.8333342,81,289,499,495,-0.02175142,0.01873981,-0.003448835,-1.40432,-3.040107,-1.603636,0.02952231,-0.04758852,-0.00385293,-0.7934303,-2.481838,1.224149
0,0.8444453,81,289,499,495,-0.01854762,0.01768851,-0.004504238,-1.404253,-3.040254,-1.60348,0.0326709,-0.04437974,-0.01025523,-0.7934457,-2.482407,1.224104
0,0.8555565,81,289,499,495,-0.01750983,0.02302632,-0.002376669,-1.404449,-3.040655,-1.603331,0.02519219,-0.03587869,-0.01233362,-0.7935538,-2.482802,1.224143
0,0.8666676,81,289,499,495,-0.01539604,0.02411964,0.002950832,-1.404629,-3.040948,-1.603182,0.0198631,-0.01245528,-0.003761764,-0.7935645,-2.481917,1.223449
0,0.8777788,81,264,499,493,-0.01008915,0.02521945,0.008277391,-1.404752,-3.041136,-1.603123,0.01030989,0.008810811,0.008019765,-0.793523,-2.481089,1.222821
0,0.8888899,81,264,499,493,-0.01112635,0.01882986,0.01148655,-1.40488,-3.04115,-1.602969,0.003935641,0.02050861,0.01552413,-0.7935171,-2.480512,1.222498
0,0.900001,81,264,499,493,-0.0142695,0.01028223,0.009379024,-1.404948,-3.041023,-1.602785,0.007131972,0.01412758,0.01336714,-0.7933418,-2.480234,1.222231
0,0.9111122,81,264,499,493,-0.01320185,0.0113553,0.01045012,-1.40518,-3.041205,-1.60279,0.01355058,-0.002901322,0.01011401,-0.7932268,-2.480912,1.222295
0,0.9222233,81,264,499,493,-0.01314786,0.001764514,0.009414653,-1.405251,-3.040922,-1.60271,0.01249214,-0.01142469,0.007983956,-0.7930899,-2.481339,1.222485
0,0.9333345,77,340,498,496,-0.01530005,0.004960801,0.01366382,-1.405556,-3.041105,-1.602512,0.01142682,-0.02633987,0.002655852,-0.7929365,-2.48228,1.223077
0,0.9444456,77,340,498,496,-0.01957708,0.007074926,0.01577903,-1.405772,-3.041254,-1.602161,0.009319706,-0.03060762,0.004796656,-0.7926611,-2.482849,1.223427
0,0.9555568,77,340,498,496,-0.02277655,0.007054194,0.01577062,-1.405894,-3.041277,-1.601777,0.005063129,-0.02636221,0.008010427,-0.7925775,-2.483083,1.223727
0,0.9666679,77,340,498,496,-0.03127357,0.002743706,0.0147011,-1.406037,-3.041188,-1.601198,0.009325897,-0.0242116,0.009051876,-0.7924209,-2.483084,1.2235
0,0.977779,74,270,498,503,-0.04294851,-0.004783463,0.01149888,-1.405978,-3.040956,-1.600404,0.0178811,-0.03484304,0.008985265,-0.79217,-2.483927,1.223573
0,0.9888902,74,270,498,503,-0.05249919,-0.01122948,0.008304763,-1.40599,-3.040771,-1.599525,0.02742428,-0.03374944,0.002526721,-0.7923192,-2.484461,1.223447
0,1.000001,74,270,498,503,-0.0503974,-0.005891567,0.008292571,-1.406057,-3.040855,-1.598979,0.03264505,-0.03691966,-0.01561859,-0.7927687,-2.485408,1.223601
0,1.011112,74,270,498,503,-0.03983731,0.0080338,0.01466139,-1.406367,-3.041331,-1.598709,0.03476345,-0.03905159,-0.0188296,-0.7928039,-2.48636,1.223831
0,1.022224,74,270,498,503,-0.03042359,0.03581911,0.02631312,-1.406944,-3.042507,-1.598449,0.04013922,-0.04862962,-0.01460879,-0.792594,-2.487438,1.223995
0,1.033335,73,313,498,492,-0.03048171,0.04542544,0.03161071,-1.407406,-3.043009,-1.597982,0.05516133,-0.06565541,-0.00299078,-0.7921227,-2.488566,1.223861
0,1.044446,73,313,498,492,-0.03052203,0.05181042,0.0326687,-1.407957,-3.043913,-1.597509,0.07223077,-0.07093164,-0.003100323,-0.7915948,-2.490004,1.223449
0,1.055557,73,313,498,492,-0.0284213,0.05715886,0.0326587,-1.40831,-3.044834,-1.597058,0.07109152,-0.06027147,-0.01161483,-0.7919431,-2.490636,1.223099
0,1.066668,73,313,498,492,-0.02306882,0.05397863,0.0284184,-1.408486,-3.045344,-1.596865,0.05491542,-0.02194993,-0.02852322,-0.7928348,-2.489958,1.222472
0,1.077779,71,261,498,501,-0.01020502,0.04337359,0.02208742,-1.408579,-3.045454,-1.597264,0.03461093,0.03551806,-0.0166355,-0.7933403,-2.487438,1.220892
0,1.08889,71,261,498,501,0.0006030612,0.015738,0.02219051,-1.408758,-3.044939,-1.597704,0.02935492,0.07702099,0.01005306,-0.793214,-2.484977,1.218845
0,1.100002,71,261,498,501,0.005048245,-0.01832781,0.02230529,-1.409039,-3.043827,-1.598055,0.0315905,0.097249,0.03455597,-0.7928097,-2.482349,1.216593
0,1.111113,71,261,498,501,0.00513787,-0.03431188,0.02022105,-1.409166,-3.043118,-1.598191,0.03057146,0.09830273,0.04095025,-0.7927277,-2.48089,1.215122
0,1.122224,71,261,498,501,0.01169106,-0.0609356,0.01179459,-1.409099,-3.041638,-1.598737,0.03164023,0.09404487,0.03987517,-0.7926553,-2.479451,1.213732
0,1.133335,72,328,499,494,0.0160344,-0.07265762,0.002256716,-1.408969,-3.040628,-1.599189,0.02942662,0.07807766,0.02284295,-0.7929056,-2.478783,1.213212
0,1.144446,72,328,499,494,0.02138381,-0.07688992,0.00228086,-1.409015,-3.039642,-1.59974,0.02516415,0.06741645,0.01860234,-0.7929679,-2.478098,1.212575
0,1.155557,72,328,499,494,0.02565987,-0.07687762,-0.003033154,-1.408934,-3.038908,-1.600291,0.02413691,0.06314157,0.02392863,-0.7927847,-2.477228,1.211805
0,1.166668,72,328,499,494,0.0256267,-0.06943236,-0.005181379,-1.408923,-3.038273,-1.600722,0.01565691,0.07057185,0.03357396,-0.7925583,-2.47558,1.210703
0,1.17778,72,328,499,494,0.02448516,-0.05450763,-0.002034294,-1.408985,-3.038146,-1.601154,0.008177266,0.08547315,0.03468759,-0.7927986,-2.473571,1.209312
0,1.188891,71,247,498,498,0.02660202,-0.05236519,-0.002040789,-1.408919,-3.037603,-1.601565,-0.001402542,0.0971656,0.04008194,-0.7927458,-2.471495,1.208056
0,1.200002,71,247,498,498,0.02228216,-0.04384298,0.005377965,-1.409135,-3.037356,-1.601785,-0.00455866,0.1056734,0.04969574,-0.7925082,-2.469254,1.2066
0,1.211113,71,247,498,498,0.0148253,-0.04494161,0.008573758,-1.409497,-3.036726,-1.601867,-0.004533887,0.1046032,0.05503283,-0.7920476,-2.46737,1.205444
0,1.222224,71,247,498,498,0.01268103,-0.04281929,0.009628078,-1.409652,-3.036297,-1.602026,0.001873009,0.09822671,0.05498817,-0.7918094,-2.465866,1.20421
0,1.233335,72,298,498,487,0.006291814,-0.04497739,0.01388154,-1.409909,-3.035639,-1.602029,0.0295704,0.06634372,0.04307475,-0.7916353,-2.46584,1.203197
0,1.244446,72,298,498,487,-0.002301378,-0.0311805,0.01276211,-1.410098,-3.035639,-1.601793,0.04873252,0.03550607,0.02908359,-0.7915218,-2.466447,1.202555
0,1.255558,72,298,498,487,-0.004568292,-0.004553344,0.01266797,-1.410092,-3.03638,-1.601681,0.06885269,0.002555713,-0.00409147,-0.79212,-2.467978,1.202255
0,1.266669,72,298,498,487,-0.005761862,0.01783477,0.01897599,-1.410282,-3.037179,-1.601556,0.06341872,-0.008099385,-0.02536695,-0.7926958,-2.468871,1.202359
0,1.27778,72,298,498,487,0.008948967,0.05308934,0.02528899,-1.410669,-3.038758,-1.601784,0.05482172,0.002535485,-0.03275277,-0.793165,-2.468657,1.201883
0,1.288891,71,273,499,499,0.006752463,0.0616215,0.03164575,-1.411079,-3.039624,-1.601553,0.04209959,0.02700317,-0.01453777,-0.7931336,-2.467061,1.200505
0,1.300002,71,273,499,499,0.009955404,0.05951483,0.03378949,-1.411497,-3.040282,-1.60164,0.03044654,0.04720252,0.003660247,-0.7930377,-2.465434,1.199322
0,1.311113,71,273,499,499,0.01008246,0.03820056,0.02958377,-1.411546,-3.040186,-1.601801,0.02614791,0.06104168,0.003707614,-0.7932774,-2.464094,1.198223
0,1.322224,71,273,499,499,0.008064259,0.01900087,0.02537786,-1.411733,-3.039882,-1.601893,0.03255541,0.05999012,0.005797436,-0.7933887,-2.463117,1.197033
0,1.333336,72,258,500,496,0.01464298,-0.01399523,0.02016048,-1.411764,-3.039025,-1.602323,0.0485696,0.03872738,0.004617341,-0.7933227,-2.46329,1.19631
0,1.344447,72,258,500,496,0.01788617,-0.02355885,0.02232739,-1.41209,-3.038544,-1.602679,0.05808774,0.01213643,-0.01676363,-0.7937578,-2.464248,1.196125
0,1.355558,72,258,500,496,0.02534737,-0.02457901,0.02340969,-1.412376,-3.038332,-1.603192,0.05162265,0.003603488,-0.03058338,-0.7943996,-2.464954,1.196342
0,1.366669,72,258,500,496,0.03383049,-0.01813802,0.02660268,-1.412748,-3.038236,-1.603839,0.0377427,0.005700681,-0.03475032,-0.7947916,-2.465012,1.196339
0,1.37778,72,258,500,496,0.03912146,-0.01066835,0.02232232,-1.412778,-3.038319,-1.60433,0.02495037,0.02270766,-0.03039887,-0.7952396,-2.46423,1.19579
0,1.388891,71,269,498,495,0.04013529,-0.003204765,0.02123182,-1.412921,-3.038522,-1.604558,0.006850487,0.06100534,-0.01320305,-0.7954574,-2.461708,1.194477
0,1.400002,71,269,498,495,0.03588077,-0.003237676,0.01802723,-1.413036,-3.038493,-1.604842,-0.003731139,0.07375066,0.00390826,-0.7955762,-2.460083,1.193678
0,1.411114,71,269,498,495,0.03272921,-0.01071064,0.01591036,-1.413138,-3.038277,-1.605169,-0.003718596,0.07481069,0.006035617,-0.7958234,-2.45914,1.192995
0,1.422225,71,269,498,495,0.03276241,-0.0160436,0.01379628,-1.413245,-3.037956,-1.605581,0.002677474,0.0535256,-0.001477107,-0.7960188,-2.45921,1.192856
0,1.433336,71,269,498,495,0.0349086,-0.01922302,0.0127426,-1.413315,-3.037796,-1.606014,0.01438823,0.02053309,-0.01543693,-0.7964631,-2.46049,1.193291
0,1.444447,72,250,499,503,0.03171414,-0.01924269,0.009540921,-1.413352,-3.037709,-1.606204,0.01867272,0.002435649,-0.01867285,-0.7965733,-2.461242,1.19349
0,1.455558,72,250,499,503,0.03377607,-0.006441904,0.01056846,-1.413456,-3.038036,-1.606625,0.01975424,-0.01566115,-0.02294326,-0.7965792,-2.461979,1.193803
0,1.466669,72,250,499,503,0.02834407,0.010603,0.01689221,-1.413813,-3.038677,-1.60667,0.02191439,-0.02524536,-0.02189698,-0.7965904,-2.462778,1.194053
0,1.47778,72,250,499,503,0.0260646,0.03723741,0.02213955,-1.414186,-3.039815,-1.606838,0.01224751,-0.01461079,-0.0314202,-0.7972466,-2.462954,1.194194
0,1.488891,72,310,500,505,0.02275075,0.05958166,0.02207579,-1.41455,-3.040855,-1.606886,0.006906008,0.000285482,-0.0281714,-0.7974809,-2.462507,1.193945
0,1.500003,72,310,500,505,0.01738103,0.06595771,0.02630621,-1.414916,-3.041777,-1.606796,-0.002542963,0.01834966,0.001723558,-0.7970862,-2.461287,1.193463
0,1.511114,72,310,500,505,0.009945907,0.06271238,0.02524385,-1.415274,-3.0423,-1.606676,-0.001379644,0.01513689,0.01662832,-0.7965643,-2.461132,1.193343
0,1.522225,72,310,500,505,0.007844977,0.05842989,0.02205681,-1.415419,-3.042851,-1.606621,0.001853444,0.002360252,0.01766408,-0.7962362,-2.461404,1.193435
0,1.533336,72,310,500,505,0.004756371,0.03814861,0.01891994,-1.415611,-3.042518,-1.606534,0.00395995,-0.01680327,0.006998499,-0.7960247,-2.462301,1.194014
0,1.544447,73,352,499,496,-0.0004129875,0.01040806,0.01580292,-1.415805,-3.04181,-1.60651,0.004981123,-0.03170536,-0.005802659,-0.7961355,-2.463396,1.194724
0,1.555558,73,352,499,496,-0.002416772,-0.01092129,0.01053491,-1.415772,-3.041196,-1.606535,0.008158598,-0.03488328,-0.00902771,-0.7962628,-2.463948,1.195029
0,1.566669,73,352,499,496,-0.005542154,-0.02481559,0.006308086,-1.41573,-3.040391,-1.606329,0.007102804,-0.03594656,-0.00794572,-0.7960359,-2.464375,1.195266
0,1.577781,73,352,499,496,-0.008707549,-0.02910655,0.002060429,-1.415766,-3.039945,-1.606199,0.002777236,-0.01678898,-0.01003773,-0.7962953,-2.464202,1.195307
0,1.588892,73,352,499,496,-0.007615656,-0.03231505,-0.001126486,-1.415662,-3.039414,-1.606282,-0.004673734,-0.005093957,-0.003587511,-0.7962133,-2.463828,1.195378
0,1.600003,71,353,498,478,-0.007604153,-0.0344456,-0.001119899,-1.415665,-3.038961,-1.606272,-0.01002668,0.008741273,-0.002478591,-0.7963709,-2.463189,1.195199
0,1.611114,71,353,498,478,-0.004393278,-0.03655443,-0.001111312,-1.415602,-3.03853,-1.606436,-0.01003153,0.01406807,0.0007198364,-0.7964993,-2.46289,1.19523
0,1.622225,71,353,498,478,-0.008646589,-0.04082098,0.00208824,-1.415702,-3.038049,-1.606186,-0.004680964,0.01727188,0.006015257,-0.7963416,-2.462345,1.194802
0,1.633336,71,353,498,478,-0.004378441,-0.04185573,0.003161858,-1.415712,-3.037628,-1.606349,0.0006558774,0.01196526,0.007040568,-0.7963209,-2.462186,1.194666
0,1.644447,71,297,499,495,-0.001228841,-0.03226104,0.002076615,-1.415744,-3.037417,-1.606493,0.003845595,0.00345374,0.00275314,-0.7963427,-2.462465,1.194726
0,1.655559,71,297,499,495,0.004010677,-0.01732448,0.002044952,-1.415799,-3.037539,-1.60656,0.002835355,-0.0146553,0.004875042,-0.7960551,-2.463171,1.195263
0,1.66667,71,297,499,495,0.01248029,-0.006626502,0.003088556,-1.41576,-3.037669,-1.607001,0.001762607,-0.02316887,0.0006108023,-0.7960801,-2.463676,1.19564
0,1.677781,71,297,499,495,0.01777526,0.0008460854,-0.001184726,-1.415611,-3.037905,-1.607311,-0.0003827736,-0.02530221,-0.002573339,-0.7960455,-2.464195,1.196067
0,1.688892,71,297,499,495,0.02415291,0.000879536,0.0009536666,-1.415614,-3.037776,-1.60761,0.001752873,-0.01784988,-0.0004524915,-0.7959768,-2.464296,1.195913
0,1.700003,71,298,499,488,0.02840695,0.003026538,-0.001174749,-1.415565,-3.037885,-1.60802,0.00283093,-0.009328919,0.00487369,-0.7958537,-2.464015,1.195676
0,1.711114,71,298,499,488,0.03373761,-0.0001366362,0.0009806019,-1.415683,-3.037733,-1.608411,0.004961673,-0.005070329,0.004862876,-0.7957802,-2.464102,1.195482
0,1.722225,71,298,499,488,0.03696221,-0.005445735,0.001003645,-1.415707,-3.037519,-1.608933,0.007059567,-0.005063185,-0.0004711427,-0.7958191,-2.464225,1.19544
0,1.733337,71,298,499,488,0.04549729,-0.007525013,0.004228789,-1.415928,-3.037318,-1.60983,0.007051248,-0.006133999,-0.001543015,-0.795859,-2.464523,1.195639
0,1.744448,71,246,498,513,0.05295108,-0.006424365,0.002120729,-1.416039,-3.037308,-1.610569,0.008067765,-0.005057652,-0.009002026,-0.7960838,-2.464615,1.195574
0,1.755559,71,246,498,513,0.03906039,0.004153134,-7.3337E-05,-1.415936,-3.037712,-1.610719,0.01121065,0.002407381,-0.01648087,-0.796625,-2.464664,1.195214
0,1.76667,71,246,498,513,0.01985987,0.009366889,-0.002257362,-1.415882,-3.037919,-1.610354,0.01013505,0.0002687816,-0.01966925,-0.7967837,-2.465028,1.19534
0,1.777781,71,246,498,513,0.01450561,0.01677474,-0.008678657,-1.415653,-3.038288,-1.610265,0.008027493,0.004520884,-0.01432637,-0.7968625,-2.464824,1.195176
0,1.788892,71,246,498,513,0.03786349,0.02971541,0.0009245728,-1.415973,-3.038951,-1.61134,0.01551461,0.01200166,-0.005841718,-0.796846,-2.464029,1.194307
0,1.800003,73,340,499,483,0.05062872,0.0319249,0.00414014,-1.416076,-3.039375,-1.612155,0.02295778,0.006696325,-0.01015333,-0.7970213,-2.464252,1.193998
0,1.811115,73,340,499,483,0.05809303,0.02982912,0.003103234,-1.416165,-3.039606,-1.612811,0.01435441,0.003497018,-0.02394244,-0.7975326,-2.464478,1.194275
0,1.822226,73,340,499,483,0.05705781,0.02343826,0.005251348,-1.416287,-3.039699,-1.613412,0.01647763,-0.007143151,-0.02928591,-0.7977904,-2.465045,1.19442
0,1.833337,73,340,499,483,0.05068447,0.02021554,0.003116916,-1.416218,-3.040039,-1.61367,0.03036038,-0.01669246,-0.02725164,-0.7979459,-2.465624,1.194137
0,1.844448,73,340,499,483,0.04743947,0.02766818,0.005221504,-1.41636,-3.040674,-1.61395,0.03573565,-0.02307223,-0.02196001,-0.7978559,-2.466123,1.193946
0,1.855559,71,344,499,484,0.04414878,0.04365327,0.01048569,-1.416491,-3.041698,-1.61422,0.03467366,-0.01775082,-0.01875654,-0.7979848,-2.466274,1.193766
0,1.86667,71,344,499,484,0.0473254,0.04897462,0.009400447,-1.416407,-3.042083,-1.614881,0.02404483,-0.01245215,-0.01337732,-0.7982565,-2.46639,1.193817
0,1.877781,71,344,499,484,0.05260339,0.05539833,0.01259433,-1.41667,-3.042768,-1.615382,0.0177191,-0.003955513,0.0005176095,-0.7980013,-2.465985,1.193506
0,1.888893,71,344,499,484,0.04301731,0.05428746,0.01150666,-1.416658,-3.043448,-1.61543,0.01244603,0.000283848,0.01120907,-0.797645,-2.465688,1.193307
0,1.900004,72,364,498,495,0.03880884,0.04573238,0.008328343,-1.416646,-3.043751,-1.615717,0.01137003,-0.0007824264,0.00908435,-0.7975901,-2.465709,1.193226
0,1.911115,72,364,498,495,0.03139631,0.03823585,0.007274364,-1.416728,-3.044055,-1.615841,0.02197544,-0.01459159,-0.005922829,-0.7980833,-2.466776,1.193249
0,1.922226,72,364,498,495,0.03140263,0.03716961,0.007281928,-1.416832,-3.044424,-1.616171,0.02088488,-0.02097493,-0.01231074,-0.798234,-2.46733,1.193428
0,1.933337,72,364,498,495,0.03782462,0.03187203,0.006240142,-1.41678,-3.04461,-1.616726,0.01661564,-0.02417896,-0.01655506,-0.7984466,-2.46796,1.19367
0,1.944448,72,364,498,495,0.04206165,0.03720923,0.007292298,-1.416796,-3.044962,-1.61736,0.01661333,-0.02311446,-0.01655217,-0.798544,-2.468342,1.193724
0,1.955559,73,442,498,496,0.04525053,0.03828893,0.006223305,-1.416716,-3.045432,-1.617826,0.01447347,-0.01566787,-0.01653888,-0.7987619,-2.468545,1.193615
0,1.966671,73,442,498,496,0.03778411,0.04037272,0.005143781,-1.416838,-3.045886,-1.617991,0.01232092,-0.009288406,-0.01651658,-0.7988567,-2.468698,1.193722
0,1.977782,73,442,498,496,0.03352959,0.03822196,0.005135345,-1.416781,-3.046289,-1.618119,0.01444526,-0.003957585,-0.01546053,-0.7990389,-2.468621,1.193436
0,1.988893,73,442,498,496,0.03353336,0.03716347,0.003018155,-1.416875,-3.046864,-1.618333,0.01658548,-0.005016508,-0.01441861,-0.7992572,-2.468859,1.193352
0,2.000004,73,321,499,494,0.02929522,0.03287936,0.003022526,-1.4169,-3.047134,-1.618514,0.01872524,-0.006077446,-0.01336742,-0.7993355,-2.469036,1.193211
0,2.011115,73,321,499,494,0.03040787,0.02543177,0.004093055,-1.416689,-3.047245,-1.619026,0.01875873,-0.01885616,-0.01125024,-0.7992871,-2.46969,1.193619
0,2.022226,73,321,499,494,0.03050077,0.009439927,0.003080623,-1.416772,-3.046796,-1.619513,0.01766995,-0.02843726,-0.01870697,-0.7994527,-2.470556,1.194044
0,2.033337,73,321,499,494,0.03478723,0.006270232,0.003099844,-1.416796,-3.046859,-1.620097,0.02620705,-0.02948325,-0.01877474,-0.7997148,-2.471218,1.193822
0,2.044448,73,321,499,494,0.03909172,-0.003281591,0.007400091,-1.417017,-3.046584,-1.620676,0.01879445,-0.01884536,-0.005928698,-0.7994474,-2.470739,1.193602
0,2.055559,72,345,499,497,0.03802033,-0.003289741,0.00739187,-1.417017,-3.046534,-1.620986,0.01560091,-0.006073551,-0.0005727056,-0.7994314,-2.470345,1.193241
0,2.06667,72,345,499,497,0.03592801,-0.009702221,0.0074047,-1.41707,-3.046088,-1.621425,0.009187559,0.0003086403,-0.001585347,-0.7994772,-2.469986,1.193067
0,2.077781,72,345,499,497,0.04349232,-0.03411555,0.02240893,-1.41766,-3.045236,-1.622321,0.01125091,0.004578792,-0.01119247,-0.8000104,-2.470117,1.192917
0,2.088892,72,345,499,497,0.03835585,-0.06930102,0.02463965,-1.418148,-3.04335,-1.622989,0.006985998,0.01309232,-0.01008773,-0.8001425,-2.469622,1.192458
0,2.100003,70,313,499,488,0.03650392,-0.1045933,-0.0168081,-1.416775,-3.041162,-1.623677,0.01341488,0.01097188,-0.004807882,-0.8001419,-2.469543,1.192138
0,2.111114,70,313,499,488,0.04503459,-0.1119589,-0.002916096,-1.417191,-3.039787,-1.624573,0.02082423,-0.002847388,-0.01657092,-0.8002921,-2.470188,1.192228
0,2.122225,70,313,499,488,0.0533471,-0.07356276,-0.005140997,-1.417271,-3.040319,-1.625245,0.01974046,-0.006040253,-0.02081991,-0.8004908,-2.470456,1.192242
0,2.133336,70,313,499,488,0.05641136,-0.05115808,-0.0009457264,-1.417285,-3.04039,-1.625884,0.01227988,-0.008192595,-0.02291192,-0.8007656,-2.470882,1.192544
0,2.144447,70,313,499,488,0.06052396,-0.02978078,0.01498534,-1.418018,-3.040681,-1.626621,0.009108082,-0.007138435,-0.01862994,-0.8007955,-2.471002,1.192595
0,2.155558,70,270,499,498,0.05729147,-0.02021435,0.0117515,-1.418039,-3.04072,-1.627273,0.008015458,0.001378948,-0.01862267,-0.8011694,-2.470856,1.192511
0,2.166669,70,270,499,498,0.063613,-0.008453097,0.01599523,-1.41837,-3.040826,-1.628143,0.009131931,-0.0007517263,-0.0111788,-0.8011428,-2.470884,1.192402
0,2.17778,70,270,499,498,0.06886949,0.003303553,0.01916593,-1.418645,-3.041217,-1.628991,0.01453342,0.00777113,0.005850012,-0.8005979,-2.470052,1.191615
0,2.188891,70,270,499,498,0.0720408,0.007581085,0.01810032,-1.418916,-3.041477,-1.629801,0.004978056,0.01412863,0.01228951,-0.80064,-2.469739,1.1915
0,2.200002,70,270,499,498,0.06884677,0.006506603,0.0191499,-1.418959,-3.041548,-1.630419,-0.0003504679,0.0205059,0.01445817,-0.8005659,-2.469119,1.191219
0,2.211113,73,265,499,500,0.06357109,-0.002028971,0.02023358,-1.419253,-3.041481,-1.631088,0.0006487835,0.03117184,0.008074516,-0.8008131,-2.468225,1.190541
0,2.222224,73,265,499,500,0.05193137,-0.01700294,0.02132076,-1.419558,-3.040899,-1.631436,-0.006833166,0.03861514,0.007059284,-0.8010395,-2.467333,1.190192
0,2.233335,73,265,499,500,0.0360766,-0.03947142,0.01707761,-1.419432,-3.039871,-1.631475,-0.005737938,0.04499899,0.0113012,-0.8012461,-2.466629,1.189462
0,2.244446,73,265,499,500,0.02768564,-0.06295971,0.01394563,-1.419701,-3.038614,-1.631731,-0.003618078,0.04393975,0.00915733,-0.8013452,-2.466043,1.189037
0,2.255557,73,318,498,493,0.03944957,-0.06928946,0.0107862,-1.419676,-3.03781,-1.63271,-0.003565246,0.03540948,0.01448394,-0.8010272,-2.465694,1.188854
0,2.266668,73,318,498,493,0.04799197,-0.07244509,0.007615274,-1.419693,-3.037018,-1.633553,0.0007214732,0.02050878,0.01230722,-0.8010112,-2.46587,1.18882
0,2.277779,73,318,498,493,0.04796051,-0.06604556,0.007588244,-1.419706,-3.036578,-1.634155,0.000715827,-0.001855116,0.002702435,-0.8010038,-2.466733,1.189408
0,2.28889,73,318,498,493,0.04367995,-0.06287596,0.008624493,-1.419732,-3.035866,-1.634616,0.001768153,-0.01037941,-0.002653826,-0.8012264,-2.467456,1.189874
0,2.300001,73,318,498,493,0.03407969,-0.06077814,0.01178787,-1.419898,-3.035403,-1.634891,0.009161668,-0.006093698,-0.01121918,-0.8015854,-2.467595,1.189684
0,2.311112,73,355,499,493,0.03193671,-0.05760507,0.01070059,-1.419924,-3.034718,-1.635325,0.010241,0.003492273,-0.004808088,-0.8013324,-2.466946,1.189138
0,2.322223,73,355,499,493,0.02982512,-0.05867764,0.009641074,-1.42015,-3.034115,-1.63589,0.007055352,0.01307125,0.0005481523,-0.8013089,-2.466283,1.188711
0,2.333334,73,355,499,493,0.03088264,-0.05549279,0.004311861,-1.420155,-3.033566,-1.636306,0.007037321,0.01308364,-0.001578267,-0.8014416,-2.465943,1.188453
0,2.344445,73,355,499,493,0.03085671,-0.05017084,0.005363004,-1.420318,-3.033034,-1.636826,0.008119597,0.008826261,-0.0005213309,-0.8013883,-2.465902,1.188285
0,2.355556,72,340,499,490,0.02651596,-0.03422866,0.001044827,-1.420207,-3.033067,-1.636975,0.01020504,0.002448436,-0.01333107,-0.8018762,-2.466412,1.188205
0,2.366668,72,340,499,490,0.02746025,-0.01396829,0.00418009,-1.420294,-3.033476,-1.637164,0.01019591,0.001389679,-0.01759405,-0.8021974,-2.46652,1.187943
0,2.377779,72,340,499,490,0.0252752,-0.004386527,0.005210333,-1.420355,-3.033698,-1.637348,0.01555911,-0.002861898,-0.01336947,-0.8022208,-2.466695,1.187737
0,2.38889,72,340,499,490,0.02310856,-0.002262453,0.010531,-1.420682,-3.033526,-1.637376,0.0134362,-0.003933314,-0.01122889,-0.8022698,-2.466825,1.187859
0,2.400001,72,340,499,490,0.02524046,-0.004367386,0.01480675,-1.421021,-3.033473,-1.63771,0.01665153,-0.009252861,-0.01018769,-0.8022591,-2.467179,1.18784
0,2.411112,72,349,499,504,0.02843766,-0.006474865,0.01588569,-1.421236,-3.033388,-1.638009,0.01343027,-0.009256849,-0.01229096,-0.8023215,-2.467302,1.188018
0,2.422223,72,349,499,504,0.03270977,-0.009641251,0.01589973,-1.421354,-3.033304,-1.638381,0.01017552,0.001392424,-0.01758911,-0.8027694,-2.467111,1.187864
0,2.433334,72,349,499,504,0.03380733,-0.01390211,0.01272184,-1.421469,-3.033086,-1.638843,0.006976015,0.007773609,-0.01648627,-0.8028195,-2.466808,1.187579
0,2.444445,72,349,499,504,0.02954927,-0.01287305,0.007385869,-1.421445,-3.032988,-1.639068,0.006992258,0.01203149,-0.01222182,-0.8029143,-2.466466,1.187274
0,2.455556,73,315,499,512,0.0327086,-0.004339387,0.005237815,-1.421477,-3.033178,-1.639548,0.01338679,0.007785606,-0.01333661,-0.8031439,-2.466669,1.187115
0,2.466667,73,315,499,512,0.02941593,0.01163757,0.01157441,-1.421757,-3.033679,-1.63976,0.019757,-0.004975434,-0.02190892,-0.8034453,-2.467403,1.187235
0,2.477778,73,315,499,512,0.02932332,0.02763144,0.01578772,-1.422003,-3.034447,-1.640015,0.01758583,-0.01562532,-0.03255678,-0.8038645,-2.468299,1.187723
0,2.488889,73,315,499,512,0.03143833,0.02766901,0.02219241,-1.422534,-3.034826,-1.640342,0.01333237,-0.01989355,-0.0336058,-0.8041964,-2.468868,1.188033
0,2.5,73,315,499,512,0.03356289,0.03193468,0.01792388,-1.422589,-3.035384,-1.640792,0.01658899,-0.02308822,-0.02510598,-0.8041218,-2.469346,1.1881
0,2.511111,73,277,499,501,0.03566225,0.03621632,0.02323758,-1.422896,-3.03581,-1.641229,0.02192209,-0.02413492,-0.02514124,-0.8043194,-2.469755,1.187913
0,2.522222,73,277,499,501,0.03885843,0.03517582,0.02325492,-1.423237,-3.036327,-1.641599,0.01547594,-0.007104088,-0.02721864,-0.8048089,-2.469433,1.187708
0,2.533333,73,277,499,501,0.03995797,0.03090822,0.01900807,-1.423283,-3.036549,-1.642063,0.006969918,0.005656319,-0.02076656,-0.8050635,-2.468894,1.187394
0,2.544444,73,277,499,501,0.03681903,0.01917919,0.02330045,-1.423697,-3.036354,-1.642457,0.00807904,0.006718087,-0.01331556,-0.8050336,-2.4688,1.187205
0,2.555555,73,245,499,495,0.04007657,0.01066038,0.01693369,-1.423643,-3.036286,-1.643043,0.007024187,0.009913325,-0.01011276,-0.8052163,-2.468551,1.187
0,2.566666,73,245,499,495,0.04013976,-1.73226E-06,0.01483986,-1.423771,-3.036012,-1.643534,0.007010829,0.009916951,-0.01224267,-0.8054491,-2.468474,1.18687
0,2.577777,73,245,499,495,0.03588923,-0.001108679,0.008436582,-1.423636,-3.036001,-1.643693,0.01020674,0.01098716,-0.01226407,-0.8056739,-2.468437,1.186627
0,2.588888,73,245,499,495,0.03264602,0.006342004,0.01267057,-1.423909,-3.036278,-1.643953,0.013443,0.0003507659,-0.01123894,-0.8058726,-2.46876,1.18651
0,2.599999,73,245,499,495,0.03050542,0.00634751,0.01691847,-1.424071,-3.036404,-1.644198,0.01557314,-0.004968897,-0.01338695,-0.8059818,-2.469118,1.186524
0,2.61111,73,245,499,495,0.02834414,0.01166744,0.01690714,-1.424371,-3.036803,-1.644369,0.0176811,-0.01667818,-0.02192231,-0.8060957,-2.469951,1.186827
0,2.622221,73,245,499,495,0.02729606,0.007413207,0.02010749,-1.4246,-3.036817,-1.64465,0.01445171,-0.02200662,-0.02936355,-0.8064228,-2.470728,1.187293
0,2.633332,73,245,499,495,0.02518545,0.002065014,0.01799621,-1.424832,-3.036642,-1.644702,0.01227951,-0.01455617,-0.0325458,-0.8068947,-2.470991,1.187451
0,2.644443,73,245,499,495,0.02414775,-0.001157286,0.0126728,-1.424786,-3.036477,-1.644961,0.006905712,0.007799035,-0.03142694,-0.8073959,-2.470264,1.18703
0,2.655554,73,245,499,495,0.02520518,-0.00115114,0.01374233,-1.424998,-3.036466,-1.645199,0.01114877,0.01419953,-0.03251476,-0.8078641,-2.470124,1.186629
0,2.666665,73,296,498,495,0.02728488,0.008455927,0.01477376,-1.42505,-3.036873,-1.645541,0.01118651,0.006740468,-0.02824995,-0.8078747,-2.470335,1.186762
0,2.677776,73,296,498,495,0.02405012,0.01483685,0.01687808,-1.425234,-3.037219,-1.645672,0.01229128,0.001419989,-0.02399661,-0.8079802,-2.470429,1.186671
0,2.688887,73,296,498,495,0.02296457,0.01909956,0.01898994,-1.42543,-3.037568,-1.645947,0.01446676,-0.008164931,-0.02082696,-0.8080691,-2.470952,1.186813
0,2.699998,73,296,498,495,0.01872292,0.01587743,0.01792574,-1.425598,-3.037674,-1.646015,0.0123565,-0.0220153,-0.02295419,-0.8081288,-2.471876,1.187367
0,2.711109,72,299,498,495,0.01661526,0.009492602,0.02006251,-1.425737,-3.037749,-1.646032,0.01550169,-0.02839509,-0.03257372,-0.8086039,-2.472924,1.187925
0,2.72222,72,299,498,495,0.01238858,0.003075955,0.01900559,-1.425887,-3.037606,-1.646055,0.01760778,-0.02092979,-0.03364009,-0.8089144,-2.473099,1.187805
0,2.733331,72,299,498,495,0.01559222,0.003076938,0.01474964,-1.425912,-3.037621,-1.646311,0.01657391,-0.01242479,-0.02618192,-0.8091445,-2.473269,1.187695
0,2.744442,72,299,498,495,0.01661377,0.01266119,0.0136655,-1.426141,-3.037965,-1.646557,0.01016312,0.003535029,-0.02293358,-0.8094353,-2.472792,1.187427
0,2.755553,72,299,498,495,0.01551056,0.01798358,0.01577996,-1.426397,-3.03825,-1.646588,0.01016776,0.007798653,-0.01972511,-0.8095376,-2.472468,1.187161
0,2.766664,72,285,499,497,0.01440199,0.024382,0.0178905,-1.426644,-3.03881,-1.646582,0.01443971,0.003549881,-0.01974721,-0.8096138,-2.472594,1.186954
0,2.777775,72,285,499,497,0.01008084,0.0328874,0.02211844,-1.426977,-3.039338,-1.646409,0.01867189,-0.00495455,-0.02616967,-0.809911,-2.473163,1.187153
0,2.788886,72,285,499,497,0.006874518,0.03394597,0.0274323,-1.427351,-3.039668,-1.646474,0.01973635,-0.01134673,-0.02724328,-0.8100292,-2.473753,1.187454
0,2.799997,72,285,499,497,0.01328917,0.0297194,0.02745854,-1.427632,-3.039932,-1.646757,0.01759945,-0.01135161,-0.0282932,-0.8102587,-2.474079,1.187546
0,2.811108,73,272,499,500,0.01230549,0.01691103,0.02217237,-1.427773,-3.039759,-1.646903,0.01653478,-0.01028919,-0.02615573,-0.8104638,-2.474262,1.187657
0,2.822219,73,272,499,500,0.01449573,0.006266504,0.02114418,-1.427992,-3.039568,-1.647148,0.01654134,-0.004959069,-0.02295791,-0.8107232,-2.474145,1.187395
0,2.83333,73,272,499,500,0.01773707,-0.0001400727,0.01372028,-1.428053,-3.039282,-1.647388,0.01544978,0.0003682114,-0.02507869,-0.8111365,-2.474116,1.187229
0,2.844441,73,272,499,500,0.01560397,-0.002265566,0.015852,-1.428271,-3.039383,-1.647352,0.01651212,0.009959431,-0.021879,-0.8113965,-2.47365,1.186704
0,2.855552,73,272,499,500,0.02090609,0.00309181,0.01584081,-1.428361,-3.039571,-1.64778,0.01755137,0.01954404,-0.0218817,-0.8118092,-2.473354,1.186332
0,2.866663,73,264,499,501,0.02516416,0.003114168,0.01692883,-1.428764,-3.039586,-1.64815,0.01865341,0.01528203,-0.01763069,-0.8119014,-2.473319,1.186077
0,2.877774,73,264,499,501,0.03046794,0.00634986,0.02012522,-1.429075,-3.039825,-1.648613,0.01867483,0.02060114,-0.01230675,-0.8120974,-2.472964,1.185624
0,2.888885,73,264,499,501,0.03159501,-0.001107376,0.01588653,-1.429259,-3.039775,-1.649065,0.01862083,0.02593266,-0.01870153,-0.8127259,-2.472648,1.185262
0,2.899997,73,264,499,501,0.03692842,-0.003224207,0.01591862,-1.429525,-3.039466,-1.649666,0.02075042,0.02061585,-0.02085461,-0.8131083,-2.472644,1.184981
0,2.911108,73,264,499,501,0.03587335,-0.003237411,0.01271598,-1.429533,-3.039456,-1.650083,0.02072653,0.02380929,-0.02405572,-0.813657,-2.472531,1.184628
0,2.922219,72,259,498,497,0.03478863,0.001016925,0.01483574,-1.429822,-3.039471,-1.650556,0.02068576,0.03233605,-0.02724667,-0.8142636,-2.471955,1.184014
0,2.93333,72,259,498,497,0.03263082,0.007394284,0.01267799,-1.429837,-3.039776,-1.650867,0.01858534,0.03125811,-0.02510405,-0.8145661,-2.471774,1.183531
0,2.944441,72,259,498,497,0.03364413,0.01486392,0.01266817,-1.430099,-3.040245,-1.65106,0.02393703,0.02914122,-0.02193744,-0.8147553,-2.47142,1.182878
0,2.955552,72,259,498,497,0.03363137,0.01700328,0.01478586,-1.430217,-3.040545,-1.651453,0.02507014,0.01742428,-0.0155589,-0.814678,-2.471492,1.182609
0,2.966663,73,241,500,516,0.03786177,0.02022516,0.0169269,-1.430593,-3.040836,-1.651817,0.0293741,-0.005998448,-0.01773848,-0.8146769,-2.472585,1.182897
0,2.977774,73,241,500,516,0.03467182,0.01915291,0.01904607,-1.430733,-3.041091,-1.652137,0.02940168,-0.01771356,-0.01881923,-0.8148159,-2.473348,1.18302
0,2.988885,73,241,500,516,0.03574286,0.01916798,0.01585305,-1.430772,-3.041565,-1.652492,0.02828397,-0.009190224,-0.02520216,-0.8153449,-2.473454,1.182686
0,2.999996,73,241,500,516,0.03797178,8.205534E-07,0.01699241,-1.431239,-3.040926,-1.653025,0.01870354,0.0152822,-0.01447271,-0.8156064,-2.472328,1.181951
0,3.011107,73,241,500,516,0.03277395,-0.01500063,-0.003218972,-1.430609,-3.040377,-1.653395,0.01663661,0.02592082,-0.0005965056,-0.8154019,-2.471395,1.181158
0,3.022218,75,327,499,509,0.03382344,-0.01285977,0.001037321,-1.430783,-3.040197,-1.653888,0.02088962,0.02380478,-0.002753319,-0.8155425,-2.471101,1.180601
0,3.033329,75,327,499,509,0.03593605,-0.008584524,0.001022761,-1.430717,-3.040273,-1.654411,0.01661603,0.02805668,-0.003785302,-0.815747,-2.470631,1.180134
0,3.04444,75,327,499,509,0.03057203,-0.001173566,-0.003265026,-1.430636,-3.040373,-1.654499,0.01238248,0.01100839,-0.005904644,-0.8157827,-2.471017,1.180368
0,3.055551,75,327,499,509,0.02522659,0.003065673,-0.002231548,-1.430531,-3.040554,-1.654682,0.01660975,0.008883503,-0.01019729,-0.8160043,-2.471257,1.180408
0,3.066662,73,336,498,499,0.02199136,0.009431643,-0.003313589,-1.430601,-3.040771,-1.654711,0.01871531,0.00569948,-0.01553467,-0.8162546,-2.471359,1.18022
0,3.077773,73,336,498,499,0.01984728,0.01367693,-0.005468344,-1.430357,-3.04105,-1.654923,0.01445159,0.007818857,-0.0144388,-0.8163814,-2.471199,1.180128
0,3.088884,73,336,498,499,0.01981579,0.01794654,-0.002290634,-1.430311,-3.041314,-1.655083,0.008036418,0.01206627,-0.01652616,-0.8167074,-2.470994,1.180086
0,3.099995,73,336,498,499,0.02086995,0.02006252,-0.005485886,-1.430216,-3.041419,-1.655233,0.004873281,0.01844676,-0.01011781,-0.8169242,-2.470475,1.179648
0,3.111106,73,336,498,499,0.0176787,0.018991,-0.003362955,-1.430161,-3.041677,-1.655344,0.003822316,0.01417574,-0.009058988,-0.8171015,-2.470657,1.179773
0,3.122217,72,364,499,498,0.01230868,0.02323899,0.0008848493,-1.430406,-3.042125,-1.655103,0.005927025,0.005673848,-0.0165376,-0.8174472,-2.47088,1.179798
0,3.133328,72,364,499,498,0.01019627,0.02003947,0.001951929,-1.430377,-3.042337,-1.655183,0.005943749,0.002474345,-0.01654926,-0.817705,-2.471164,1.179785
0,3.144439,72,364,499,498,0.008028734,0.02429488,0.004069699,-1.430495,-3.042744,-1.65502,0.008061728,-0.006038915,-0.02189565,-0.8179484,-2.471738,1.180018
0,3.15555,72,364,499,498,0.008009261,0.0274951,0.00192827,-1.430407,-3.0433,-1.654944,0.005941548,-0.004976178,-0.02188083,-0.8181561,-2.471804,1.179861
0,3.166661,71,298,498,499,0.003755572,0.02534824,0.005126796,-1.430592,-3.043478,-1.654906,0.002759345,-0.007112486,-0.02079475,-0.8182632,-2.471987,1.180025
0,3.177772,71,298,498,499,0.005913903,0.02002006,0.001956857,-1.430592,-3.043531,-1.654909,0.001723022,-0.002858174,-0.01438621,-0.8181652,-2.4718,1.179904
0,3.188883,71,298,498,499,0.0006175833,0.01360614,0.004096149,-1.430692,-3.04353,-1.654779,-0.002545475,0.0003190017,-0.0143634,-0.8184032,-2.47198,1.180159
0,3.199994,71,298,498,499,0.001708709,0.008298188,0.004115269,-1.430739,-3.043705,-1.654779,-0.00683265,0.005636862,-0.01646313,-0.8186946,-2.471821,1.180228
0,3.211105,71,298,498,499,0.0006858574,0.0008421617,0.004126734,-1.430653,-3.043604,-1.654814,-0.008991717,0.004570624,-0.02177938,-0.8190871,-2.472059,1.180513
0,3.222216,70,274,499,498,0.0007088652,-0.003418943,0.004139896,-1.430719,-3.043451,-1.654843,-0.01324103,0.006682924,-0.01854923,-0.8191196,-2.471962,1.180703
0,3.233327,70,274,499,498,-0.004591849,-0.008762827,0.006268025,-1.430743,-3.043314,-1.654715,-0.01002013,0.0003019038,-0.01537709,-0.819174,-2.47209,1.18096
0,3.244438,70,274,499,498,-0.006731822,-0.007693019,0.01052879,-1.431063,-3.043333,-1.654654,-0.007869355,-0.005018011,-0.01433251,-0.8192826,-2.472389,1.181173
0,3.255549,70,274,499,498,-0.005676128,-0.006614645,0.01265983,-1.431277,-3.043334,-1.654655,-0.007870511,-0.008208496,-0.01646593,-0.8194765,-2.47265,1.1814
0,3.26666,70,274,499,498,-0.008903398,-0.0002520769,0.01369034,-1.431323,-3.043295,-1.654547,-0.007878665,-0.01672047,-0.02074208,-0.819786,-2.47328,1.181955
0,3.277771,71,280,499,498,-0.008956295,0.008272695,0.01260285,-1.431459,-3.043732,-1.654276,-0.01002591,-0.01565274,-0.0239259,-0.8201167,-2.47357,1.182252
0,3.288882,71,280,499,498,-0.01217831,0.01252503,0.01577152,-1.431605,-3.043954,-1.654081,-0.009976968,-0.01566445,-0.016476,-0.8200965,-2.473925,1.182565
0,3.299993,71,280,499,498,-0.01434745,0.0178467,0.02001275,-1.431929,-3.044245,-1.653828,-0.004599156,-0.01884664,-0.010114,-0.8199042,-2.474097,1.182548
0,3.311104,71,280,499,498,-0.01438925,0.02530762,0.02105296,-1.43212,-3.044731,-1.653612,-0.005679073,-0.02417185,-0.01437351,-0.820007,-2.474728,1.1831
0,3.322215,71,261,499,496,-0.01757682,0.02423494,0.02319374,-1.432605,-3.045068,-1.653398,-0.004646385,-0.02309944,-0.01862583,-0.8200464,-2.475054,1.183394
0,3.333326,71,261,499,496,-0.015446,0.02319135,0.02639769,-1.432983,-3.04534,-1.653251,-0.007836428,-0.03056742,-0.01968096,-0.8200885,-2.47596,1.184277
0,3.344437,71,261,499,496,-0.01861073,0.01676577,0.02427884,-1.433184,-3.045232,-1.652865,-0.008913722,-0.02524941,-0.01966934,-0.8202014,-2.476351,1.184665
0,3.355548,71,261,499,496,-0.01962168,0.007175329,0.02430227,-1.433406,-3.045125,-1.652665,-0.01318595,-0.02525979,-0.02070831,-0.8203388,-2.476859,1.185317
0,3.366659,71,261,499,496,-0.02066763,0.002902432,0.02324702,-1.43363,-3.045044,-1.65236,-0.008935519,-0.0241819,-0.02179202,-0.8204065,-2.477232,1.185576
0,3.37777,71,272,499,505,-0.01853038,0.002904062,0.02005558,-1.433767,-3.045084,-1.652211,-0.008932363,-0.02205916,-0.01966285,-0.820489,-2.477673,1.186044
0,3.388881,71,272,499,505,-0.01637434,-0.001360511,0.01794567,-1.43398,-3.044833,-1.652086,-0.0121379,-0.02205998,-0.0217718,-0.8206845,-2.478035,1.186479
0,3.399992,71,272,499,505,-0.01959753,0.001831473,0.01899275,-1.434176,-3.045103,-1.6516,-0.003624465,-0.01777546,-0.02181758,-0.8208768,-2.478151,1.186351
0,3.411103,71,272,499,505,-0.01961385,0.003973521,0.02217914,-1.434461,-3.045237,-1.651401,0.0006680824,-0.02522171,-0.01864986,-0.820765,-2.478753,1.186717
0,3.422215,71,235,499,504,-0.01960949,0.003976365,0.02432042,-1.434943,-3.045242,-1.651316,-0.0003517903,-0.02735657,-0.01224912,-0.8205423,-2.479109,1.186999
0,3.433326,71,235,499,504,-0.01536764,0.007199691,0.02537886,-1.435144,-3.045439,-1.651242,0.003874362,-0.02308548,-0.01653814,-0.8208443,-2.479533,1.187081
0,3.444437,71,235,499,504,-0.01640552,0.00397813,0.02325103,-1.435289,-3.045215,-1.651161,0.007069007,-0.01882166,-0.01441672,-0.820782,-2.479732,1.187086
0,3.455548,71,235,499,504,-0.009999687,0.004001847,0.01899653,-1.43528,-3.045317,-1.651289,0.002781685,-0.007116439,-0.01438047,-0.8210003,-2.479608,1.187056
0,3.466659,71,235,499,504,-0.008947216,0.003997888,0.01686881,-1.435411,-3.045335,-1.650947,0.001688518,-0.0007213,-0.01649992,-0.8213173,-2.479475,1.186952
0,3.47777,70,264,499,509,-0.007907776,0.01144648,0.01151771,-1.435294,-3.045705,-1.650872,0.01017905,-0.001765708,-0.02294874,-0.8217216,-2.479877,1.186808
0,3.488881,70,264,499,509,-0.003715034,0.02531374,0.01255934,-1.435583,-3.046298,-1.651002,0.01126245,-0.007086545,-0.02189475,-0.8218542,-2.480254,1.186915
0,3.499992,70,264,499,509,0.002630128,0.03280399,0.01361808,-1.435798,-3.046787,-1.65106,0.01661762,-0.01453333,-0.01981254,-0.8219932,-2.480881,1.187052
0,3.511103,70,264,499,509,0.0100564,0.0371231,0.01894503,-1.436066,-3.047347,-1.651325,0.01346442,-0.0177435,-0.0166063,-0.8220512,-2.481393,1.187129
0,3.522214,70,271,498,500,0.007988833,0.02751797,0.02003177,-1.436248,-3.047247,-1.651561,0.01560497,-0.0124133,-0.01235044,-0.8220246,-2.481399,1.18695
0,3.533325,70,271,498,500,0.008086171,0.01152236,0.01475491,-1.436303,-3.04699,-1.651692,0.01242472,-0.004968243,-0.008065313,-0.8220912,-2.481297,1.186699
0,3.544436,70,271,498,500,0.01026814,0.003016259,0.01371283,-1.436323,-3.046968,-1.651918,0.01347309,0.002488507,-0.006999092,-0.8221887,-2.481119,1.186485
0,3.555547,70,271,498,500,0.009232537,-0.001260479,0.01052796,-1.436353,-3.046841,-1.652015,0.007070499,0.00993388,-0.006948113,-0.8223351,-2.480642,1.186155
0,3.566658,70,271,498,500,0.01241772,0.004064243,0.005189234,-1.436234,-3.047012,-1.652338,0.004918082,0.02483631,-0.003718886,-0.8224124,-2.479774,1.185661
0,3.577769,70,266,499,499,0.01343037,0.01260209,0.008360834,-1.436389,-3.047387,-1.652461,0.002807895,0.02589646,-0.001576734,-0.8225242,-2.479382,1.185274
0,3.58888,70,266,499,499,0.01019971,0.01897129,0.008337671,-1.436489,-3.047679,-1.652464,0.01026276,0.01313841,-0.006956698,-0.8226126,-2.47969,1.185166
0,3.599991,70,266,499,499,0.009129051,0.01789969,0.007271413,-1.436504,-3.047877,-1.652315,0.01561865,-0.007081933,-0.01020407,-0.8226185,-2.480439,1.185383
0,3.611102,70,266,499,499,0.006991392,0.02001661,0.006193388,-1.436484,-3.048177,-1.652343,0.01878983,-0.01772154,-0.01769476,-0.8228646,-2.48127,1.185717
0,3.622213,70,266,499,499,0.006992651,0.01789789,0.00833689,-1.436719,-3.048425,-1.652294,0.01557923,-0.01985398,-0.02086877,-0.8230558,-2.481673,1.185921
0,3.633324,70,266,499,499,0.00913137,0.0168466,0.008338634,-1.436698,-3.048639,-1.652491,0.01130543,-0.004961751,-0.0187018,-0.8233104,-2.481439,1.18562
0,3.644435,70,266,499,499,0.01341402,0.01260762,0.006235472,-1.436767,-3.048722,-1.65264,0.001743714,0.02376611,-0.002640443,-0.8233472,-2.479909,1.184857
0,3.655546,70,266,499,499,0.01348107,0.001945475,0.003069128,-1.436685,-3.04847,-1.65287,-0.0003545601,0.03441151,0.004834516,-0.8234377,-2.47901,1.184116
0,3.666657,70,266,499,499,0.01245357,-0.004461448,0.0009531761,-1.436643,-3.048225,-1.653002,-0.0003592614,0.04186684,0.006971234,-0.8235629,-2.47808,1.183483
0,3.677768,73,303,499,494,0.0135603,-0.01297131,0.003112478,-1.436763,-3.047848,-1.653228,-0.002522158,0.03228516,-0.0004838719,-0.8238776,-2.478062,1.183697
0,3.688879,73,303,499,494,0.01146552,-0.02150026,0.005260809,-1.436855,-3.047379,-1.653269,0.001767769,0.01418526,-0.002658963,-0.8238814,-2.478602,1.183939
0,3.69999,73,303,499,494,0.01361778,-0.0246912,0.00314461,-1.436863,-3.047004,-1.653528,-0.001426569,0.006719919,-0.004768976,-0.8238265,-2.478797,1.184212
0,3.711101,73,303,499,494,0.008311853,-0.02896503,0.004212843,-1.436974,-3.046766,-1.653495,-0.005724168,0.0131061,-0.008999298,-0.8241759,-2.478469,1.18409
0,3.722212,73,303,499,494,0.01150323,-0.02897463,-4.601595E-05,-1.436847,-3.04624,-1.653587,-0.003587992,0.01630699,-0.006877178,-0.8242611,-2.478101,1.183809
0,3.733323,72,293,498,501,0.008268475,-0.02259359,0.002057981,-1.436939,-3.046138,-1.653617,-0.0004016887,0.02163865,-0.007966601,-0.8246084,-2.477803,1.18337
0,3.744434,72,293,498,501,0.008223931,-0.01726262,0.005239455,-1.437138,-3.046029,-1.653579,-0.003577203,0.02588614,-0.003680381,-0.824643,-2.477302,1.18311
0,3.755545,72,293,498,501,0.01025471,0.0008723221,0.008377563,-1.437178,-3.046627,-1.653754,-0.005718242,0.02800313,-0.003663332,-0.8247576,-2.477001,1.183122
0,3.766656,72,293,498,501,0.00700867,0.008322868,0.01047926,-1.437335,-3.046974,-1.653616,-0.003575314,0.01735706,-0.005815947,-0.8248166,-2.477176,1.183225
0,3.777767,72,282,498,493,0.003785217,0.01363515,0.01045138,-1.437356,-3.047318,-1.653551,-0.003535292,0.00776618,-0.002627288,-0.8246755,-2.477381,1.183456
0,3.788878,72,282,498,493,0.003825524,0.0061673,0.01153876,-1.437533,-3.046956,-1.653688,0.0007099267,-0.003940314,-0.009045347,-0.8246787,-2.478003,1.18383
0,3.799989,72,282,498,493,0.00386586,-0.002355403,0.008367842,-1.437543,-3.046848,-1.653566,-0.005713047,-0.008217162,-0.01540366,-0.824944,-2.478546,1.184484
0,3.8111,72,282,498,493,0.003940965,-0.01408389,0.004137433,-1.437433,-3.046436,-1.653706,-0.002529103,0.001368542,-0.01328787,-0.8251134,-2.478356,1.184315
0,3.822211,72,282,498,493,0.002893442,-0.0172955,0.004145362,-1.437541,-3.046027,-1.653756,-0.001441428,0.003501012,-0.009028733,-0.8250963,-2.478163,1.184148
0,3.833322,73,274,499,501,0.003946967,-0.01409409,0.003064093,-1.437433,-3.046016,-1.653866,-0.0003609131,0.001363777,-0.006903793,-0.8250148,-2.478353,1.184273
0,3.844433,73,274,499,501,0.002827159,-0.001331205,0.0008959408,-1.437441,-3.046238,-1.653967,0.002816454,0.00137753,-0.01012167,-0.8252673,-2.478403,1.184168
0,3.855544,73,274,499,501,0.004884387,0.01147022,0.002991117,-1.437509,-3.046701,-1.654019,0.001722806,0.001379938,-0.01544138,-0.825606,-2.478531,1.184214
0,3.866655,73,274,499,501,0.004870808,0.01679633,0.0008428725,-1.437405,-3.047072,-1.654133,-0.002508395,0.01095037,-0.006884759,-0.8256172,-2.477976,1.183981
0,3.877766,72,272,499,504,0.00488927,0.01254184,0.002986727,-1.4375,-3.047123,-1.654181,-0.002446766,0.009862995,0.003775898,-0.8251448,-2.47787,1.184054
0,3.888877,72,272,499,504,-0.001497721,0.01038187,0.001916743,-1.437516,-3.047294,-1.653842,-0.002448041,0.009859685,0.002703962,-0.8252732,-2.47786,1.183983
0,3.899988,72,272,499,504,0.0017784,-0.002398482,0.000911306,-1.437733,-3.046801,-1.654176,-0.002446023,0.004544762,0.0005685969,-0.825352,-2.477834,1.183955
0,3.911099,72,272,499,504,0.001818286,-0.008788466,0.0009220362,-1.437631,-3.046556,-1.654289,-0.004622318,0.0002803316,-0.007945056,-0.8256001,-2.478261,1.184395
0,3.92221,72,272,499,504,0.001841698,-0.009870842,-0.003326713,-1.437623,-3.046389,-1.654466,-0.003545044,-0.002906612,-0.007956743,-0.8256997,-2.478345,1.184389
0,3.933321,73,271,499,497,-0.003458237,-0.01522194,-0.002250628,-1.437719,-3.046078,-1.654327,0.001845767,-0.01355452,-0.001611774,-0.8253898,-2.478965,1.184641
0,3.944432,73,271,499,497,-0.005620757,-0.008841557,-0.003341118,-1.437632,-3.046209,-1.6542,0.002913222,-0.01461878,-0.001614067,-0.8252108,-2.479179,1.184749
0,3.955544,73,271,499,497,-0.006787119,0.008209656,0.0008631644,-1.437695,-3.046748,-1.654038,0.002895398,-0.01462158,-0.003748604,-0.8252811,-2.479536,1.185037
0,3.966655,73,271,499,497,-0.006854391,0.01993775,0.00508784,-1.437801,-3.047197,-1.653963,0.001843371,-0.01462588,-0.001611431,-0.8251895,-2.479725,1.185187
0,3.977766,73,271,499,497,-0.01006342,0.02418174,0.004009346,-1.437873,-3.047621,-1.653814,0.0008156497,-0.009306198,0.005851921,-0.8250345,-2.479539,1.185015
0,3.988877,74,288,499,483,-0.01434511,0.0294852,0.00290636,-1.437661,-3.048093,-1.65358,-0.0002633366,-0.01463172,0.001592974,-0.8250084,-2.479989,1.185359
0,3.999988,74,288,499,483,-0.01217577,0.02309529,0.002933047,-1.437729,-3.048069,-1.653564,-0.005633604,-0.02103144,-0.007964844,-0.8251666,-2.480723,1.186061
0,4.011099,74,288,499,483,-0.0131977,0.01455575,0.0008298811,-1.437729,-3.047932,-1.65331,-0.00353436,-0.01676206,-0.01223721,-0.8253765,-2.480935,1.186104
0.2,4.02221,74,288,499,483,-0.01418902,-0.0003525346,0.0008837287,-1.437889,-3.047722,-1.653062,-0.004553684,-0.01144926,-0.002632149,-0.8250628,-2.480776,1.186083
0.4,4.033321,72,262,499,501,-0.01200714,-0.008859977,0.0009028269,-1.437752,-3.047451,-1.653103,-0.003487579,-0.008251602,-0.0005115177,-0.8250958,-2.480793,1.186171
0.6,4.044433,72,262,499,501,-0.01303002,-0.01631593,0.0009377275,-1.437953,-3.047194,-1.653001,-0.001319306,-0.01889338,0.001599333,-0.82483,-2.481225,1.186433
0.8,4.055544,72,262,499,501,-0.01302635,-0.0152534,-0.001194183,-1.437928,-3.047123,-1.65292,-0.0002546459,-0.02314534,0.0005248021,-0.8247506,-2.481573,1.186722
1,4.066655,72,262,499,501,-0.01306681,-0.008845653,0.004117241,-1.438175,-3.047215,-1.652842,-0.003456545,-0.01782757,0.00161367,-0.8247027,-2.481605,1.186874
1.2,4.077766,72,262,499,501,-0.01313524,0.003931862,0.001953756,-1.438165,-3.047626,-1.652601,-0.01091356,-0.006136741,0.005934968,-0.8245317,-2.48129,1.186967
1.4,4.088878,72,256,499,499,-0.01315391,0.008200482,0.001929553,-1.43803,-3.047847,-1.652486,-0.01198158,-0.0008213278,0.008067819,-0.8245221,-2.481204,1.187117
1.6,4.099989,72,256,499,499,-0.01848832,0.009239004,0.001924621,-1.438179,-3.048043,-1.652075,-0.01305061,0.0002417285,0.008067102,-0.824553,-2.481201,1.187297
1.8,4.1111,72,256,499,499,-0.01957146,0.01349869,0.001897837,-1.437997,-3.048382,-1.651871,-0.002415715,-0.01463738,0.001598824,-0.8244657,-2.481844,1.187694
2,4.122211,72,256,499,499,-0.01746352,0.01670782,0.002958788,-1.438054,-3.04865,-1.651653,-0.0003013387,-0.02526924,-0.004816921,-0.8245503,-2.482415,1.188076
2.2,4.133323,74,233,499,491,-0.01534501,0.01991997,0.002945107,-1.437931,-3.049032,-1.651564,0.0007534865,-0.03164947,-0.009087596,-0.8245599,-2.48305,1.188495
2.4,4.144434,74,233,499,491,-0.01958948,0.01669911,0.002946966,-1.437954,-3.049088,-1.651223,-0.001381002,-0.03804757,-0.01226494,-0.8243703,-2.483887,1.189135
2.6,4.155545,74,233,499,491,-0.01743547,0.01351741,0.001889979,-1.437845,-3.049231,-1.651124,-0.00456051,-0.02954166,-0.00584809,-0.8242297,-2.483963,1.189371
2.8,4.166656,74,233,499,491,-0.01740721,0.008197448,0.0008396271,-1.437842,-3.049307,-1.650929,-0.005625872,-0.0125006,0.0005639154,-0.8242047,-2.483405,1.189064
3,4.177768,74,233,499,491,-0.01419343,0.00395627,0.00511947,-1.437981,-3.049108,-1.650928,-0.009878556,0.000272152,0.006997374,-0.8240758,-2.482768,1.188876
3.200001,4.188879,75,216,500,499,-0.01203097,0.0007583138,-0.0001951377,-1.437806,-3.049044,-1.650914,-0.007752736,0.006673541,0.008053139,-0.8241062,-2.482327,1.188541
3.400001,4.19999,75,216,500,499,-0.01093455,-0.005646049,-0.0001849557,-1.437685,-3.048548,-1.650837,-0.004553081,0.004551501,0.008039464,-0.8239064,-2.482264,1.188481
3.600001,4.211102,75,216,500,499,-0.009868461,-0.004573399,-0.001252548,-1.437656,-3.048585,-1.650812,-0.0024146,0.0002982835,0.008020338,-0.8238308,-2.482312,1.18854
3.800001,4.222213,75,216,500,499,-0.008817977,-0.00350105,-0.0001905081,-1.437647,-3.048564,-1.650657,-0.002408805,-0.01248232,0.004821784,-0.8236086,-2.482867,1.189009
4,4.233324,74,206,499,502,-0.00778269,0.0007766245,0.002993231,-1.437753,-3.04871,-1.650582,0.004069251,-0.02419254,0.01435968,-0.8229908,-2.483386,1.189165
4.2,4.244435,74,206,499,502,-0.006808657,0.01676965,0.008260509,-1.437772,-3.049221,-1.65054,0.007521005,-0.03593331,0.0516211,-0.8211639,-2.483403,1.189054
4.4,4.255547,74,206,499,502,-0.001571026,0.03067281,0.01568696,-1.438094,-3.050014,-1.650594,0.0003175624,-0.03279241,0.09428526,-0.8189817,-2.48268,1.188795
4.6,4.266658,74,206,499,502,0.001596006,0.03495181,0.01674467,-1.438251,-3.050469,-1.650588,-0.007090785,-0.02961932,0.102857,-0.8176501,-2.482261,1.188739
4.8,4.277769,74,206,499,502,0.0006787842,0.01148441,0.007225383,-1.438051,-3.049962,-1.650658,-0.03272973,0.003344178,0.1041075,-0.8169534,-2.480384,1.188524
5,4.28888,74,250,498,500,0.01895543,-0.01296808,-0.007578478,-1.437638,-3.049135,-1.651531,-0.06174066,0.08317985,0.09369898,-0.8174147,-2.476138,1.186954
5.199999,4.299992,74,250,498,500,-0.00950115,-0.05796053,-0.03839271,-1.436482,-3.047092,-1.650892,-0.06051029,0.08102828,0.120335,-0.8156229,-2.474107,1.186225
5.399999,4.311103,74,250,498,500,-0.04433408,-0.1135755,-0.04894286,-1.435968,-3.044225,-1.649659,-0.0401947,0.05657484,0.1244455,-0.8142114,-2.47341,1.185733
5.599999,4.322214,74,250,498,500,-0.05796225,-0.1467315,-0.07017229,-1.434836,-3.04175,-1.649058,-0.05028513,0.02253653,0.03074007,-0.8158908,-2.475289,1.187889
5.799999,4.333325,74,250,498,500,-0.09933854,-0.1725632,-0.08402979,-1.433688,-3.039071,-1.647184,-0.06230927,-0.001944408,-0.02673297,-0.8173454,-2.476988,1.190195
5.999999,4.344437,71,259,499,502,-0.1248911,-0.1716505,-0.08833526,-1.432931,-3.037132,-1.645516,-0.06545412,0.001235411,-0.01712297,-0.8171654,-2.476663,1.190762
6.199998,4.355548,71,259,499,502,-0.1431423,-0.1472266,-0.08312388,-1.432226,-3.036173,-1.643585,-0.06737994,0.03741431,0.02978805,-0.8162008,-2.473981,1.18968
6.399998,4.366659,71,259,499,502,-0.1485759,-0.1301953,-0.07892016,-1.431638,-3.035159,-1.641871,-0.06831135,0.07253677,0.06604338,-0.8153273,-2.470908,1.188436
6.599998,4.37777,71,259,499,502,-0.155048,-0.1163654,-0.07471596,-1.430973,-3.03421,-1.6402,-0.073603,0.06506574,0.06926762,-0.8147345,-2.469862,1.188708
6.799998,4.388882,71,238,499,496,-0.1764434,-0.1005109,-0.07693924,-1.430114,-3.033349,-1.637674,-0.07992391,0.0362834,0.06820861,-0.8140335,-2.470116,1.189811
6.999998,4.399993,71,238,499,496,-0.1998647,-0.1038552,-0.08337212,-1.429062,-3.031982,-1.634832,-0.08733381,-0.01485913,0.0564973,-0.8131627,-2.471792,1.192157
7.199997,4.411104,71,238,499,496,-0.2147704,-0.1039472,-0.08766565,-1.42803,-3.030743,-1.632231,-0.08831048,-0.0297739,0.0628809,-0.812188,-2.472091,1.193179
7.399997,4.422215,71,238,499,496,-0.2295817,-0.1200304,-0.09510756,-1.426827,-3.028902,-1.629563,-0.09777049,-0.02767394,0.08211825,-0.8108473,-2.471458,1.193881
7.599997,4.433327,71,238,499,496,-0.233775,-0.1317708,-0.09614723,-1.425835,-3.027113,-1.627212,-0.1041826,-0.005322501,0.08750317,-0.809985,-2.470233,1.194378
7.799997,4.444438,71,234,500,498,-0.2400962,-0.1477772,-0.09504013,-1.424979,-3.025031,-1.624493,-0.1127636,0.01702474,0.08758535,-0.8092366,-2.468817,1.194938
7.999997,4.455549,71,234,500,498,-0.2516657,-0.1734117,-0.09710951,-1.424063,-3.0224,-1.62187,-0.1180802,0.02127321,0.09082084,-0.8083136,-2.467748,1.195643
8.199997,4.46666,71,234,500,498,-0.2611375,-0.1937053,-0.09920189,-1.422983,-3.019789,-1.619161,-0.1234612,0.01807339,0.08126058,-0.8077682,-2.467329,1.196873
8.399997,4.477772,71,234,500,498,-0.2631815,-0.2086307,-0.1002095,-1.422189,-3.017114,-1.616653,-0.1277743,0.02020077,0.07383364,-0.8072489,-2.466602,1.197923
8.599997,4.488883,71,237,498,495,-0.2663695,-0.2097154,-0.1012759,-1.421176,-3.014737,-1.61397,-0.127811,0.02446549,0.06957614,-0.8067807,-2.465773,1.198777
8.799996,4.499994,71,237,498,495,-0.2696192,-0.2033263,-0.0949116,-1.420353,-3.012506,-1.611131,-0.1320532,0.03083833,0.07600944,-0.8058283,-2.464595,1.199605
8.999996,4.511106,71,237,498,495,-0.2665192,-0.1894396,-0.08749592,-1.419544,-3.010662,-1.608446,-0.1330554,0.0308231,0.08560475,-0.8048158,-2.463632,1.200399
9.199996,4.522217,71,237,498,495,-0.2634194,-0.1755423,-0.07688458,-1.418905,-3.00898,-1.605866,-0.14147,0.03078203,0.1037819,-0.8031982,-2.462356,1.201384
9.399996,4.533328,71,237,498,495,-0.2623883,-0.1701983,-0.07262471,-1.418433,-3.007195,-1.603305,-0.1467384,0.03182837,0.1123387,-0.8019716,-2.461104,1.202158
9.599996,4.544439,119,196,498,498,-0.2581525,-0.1680162,-0.06411096,-1.417827,-3.005364,-1.600878,-0.1542481,0.03926909,0.1070563,-0.8013574,-2.459877,1.203217
9.799995,4.555551,119,196,498,498,-0.2516593,-0.1892731,-0.05763806,-1.41741,-3.00263,-1.598646,-0.1607192,0.04245257,0.09645742,-0.8006154,-2.458797,1.204467
9.999995,4.566662,119,196,498,498,-0.2515759,-0.202071,-0.06293055,-1.416582,-3.000071,-1.596266,-0.1597272,0.05099073,0.08900835,-0.8000621,-2.45718,1.205175
10.2,4.577773,119,196,498,498,-0.2504325,-0.2169903,-0.06394014,-1.416002,-2.997126,-1.593901,-0.1608764,0.05419749,0.07728606,-0.7999518,-2.456033,1.206251
10.39999,4.588884,119,196,498,498,-0.2491919,-0.2489434,-0.06490231,-1.415358,-2.993486,-1.591723,-0.1620555,0.04994565,0.05597049,-0.8001947,-2.455637,1.207692
10.59999,4.599996,95,181,499,499,-0.2522923,-0.2639132,-0.07125904,-1.414388,-2.989845,-1.58942,-0.1600636,0.04464231,0.03251928,-0.800559,-2.45533,1.209262
10.79999,4.611107,95,181,499,499,-0.2501519,-0.2649715,-0.07338241,-1.413562,-2.986882,-1.587168,-0.1621566,0.04889259,0.03998958,-0.8001994,-2.454127,1.210275
10.99999,4.622218,95,181,499,499,-0.2449074,-0.2542734,-0.06593946,-1.413142,-2.984203,-1.584864,-0.1599168,0.05846766,0.06128999,-0.7993643,-2.452343,1.210766
11.19999,4.633329,95,181,499,499,-0.2428841,-0.2393333,-0.06065288,-1.412641,-2.981817,-1.582307,-0.1587937,0.06698477,0.07514656,-0.7985243,-2.450367,1.211274
11.39999,4.644441,84,183,498,492,-0.2387522,-0.2190402,-0.05111951,-1.412364,-2.979975,-1.580105,-0.1545115,0.08296655,0.08472113,-0.7978714,-2.447989,1.211185
11.59999,4.655552,84,183,498,492,-0.2324629,-0.2008984,-0.04903114,-1.411889,-2.978038,-1.577978,-0.1524546,0.08723098,0.07405975,-0.7977419,-2.446581,1.211792
11.79999,4.666663,84,183,498,492,-0.2356989,-0.1923923,-0.05013544,-1.411252,-2.976128,-1.5756,-0.1556891,0.08084096,0.0634184,-0.7976477,-2.44541,1.212629
11.99999,4.677774,84,183,498,492,-0.2441021,-0.2105897,-0.05862675,-1.410325,-2.97305,-1.573207,-0.1706876,0.06378253,0.04326208,-0.7977323,-2.444913,1.21455
12.19999,4.688886,84,183,498,492,-0.2471943,-0.225552,-0.06923744,-1.409326,-2.970171,-1.570842,-0.1728302,0.04674257,0.03580131,-0.7975944,-2.444587,1.216387
12.39999,4.699997,79,221,499,506,-0.2439089,-0.237283,-0.07877606,-1.408262,-2.967209,-1.56878,-0.1578163,0.03611618,0.04848883,-0.7967587,-2.443905,1.217314
12.59999,4.711108,79,221,499,506,-0.2407294,-0.2351365,-0.07984512,-1.407336,-2.96468,-1.566471,-0.1342072,0.02763052,0.07283756,-0.7954149,-2.44303,1.217531
12.79999,4.722219,79,221,499,506,-0.2408354,-0.2159499,-0.07778181,-1.406438,-2.962772,-1.564118,-0.1276875,0.02123731,0.09197609,-0.7939139,-2.442185,1.218309
12.99999,4.733331,79,221,499,506,-0.2366854,-0.1999182,-0.07036497,-1.405837,-2.961018,-1.561792,-0.1319512,0.02868569,0.09519974,-0.793164,-2.440919,1.219102
13.19999,4.744442,76,260,498,490,-0.2400578,-0.1700844,-0.06300773,-1.405354,-2.959929,-1.559201,-0.1404969,0.05209637,0.1006086,-0.7922835,-2.43862,1.219311
13.39999,4.755553,76,260,498,490,-0.2529691,-0.1477807,-0.05883295,-1.404897,-2.958663,-1.556248,-0.1448198,0.06912714,0.09852022,-0.7916646,-2.436629,1.219716
13.59999,4.766665,76,260,498,490,-0.2711043,-0.1404426,-0.06528791,-1.403967,-2.957222,-1.553055,-0.1407536,0.08088207,0.07080084,-0.792129,-2.435047,1.21999
13.79999,4.777776,76,260,498,490,-0.2891095,-0.153372,-0.0812763,-1.402514,-2.955205,-1.549786,-0.1430175,0.07450938,0.04737275,-0.792407,-2.43408,1.220998
13.99999,4.788887,76,260,498,490,-0.3007706,-0.1609153,-0.08979782,-1.401319,-2.953277,-1.546502,-0.1355167,0.06705709,0.05050725,-0.7920076,-2.433286,1.221655
14.19999,4.799998,82,242,500,495,-0.3155212,-0.1855669,-0.108931,-1.399526,-2.950447,-1.542942,-0.1311722,0.03510319,0.05259947,-0.7910228,-2.433509,1.223228
14.39999,4.81111,82,242,500,495,-0.3176129,-0.1909102,-0.1110582,-1.398124,-2.948236,-1.53985,-0.141621,0.005235896,0.07287546,-0.7895905,-2.43383,1.225267
14.59999,4.822221,82,242,500,495,-0.3260322,-0.2059156,-0.1195484,-1.396491,-2.945325,-1.536546,-0.1425021,-0.007576749,0.09844453,-0.7877103,-2.43354,1.226737
14.79999,4.833332,82,242,500,495,-0.3345036,-0.2112925,-0.1259435,-1.394863,-2.943054,-1.533133,-0.1467384,-0.004396722,0.103797,-0.7865822,-2.432848,1.227985
14.99999,4.844443,100,211,501,500,-0.3472412,-0.2177697,-0.1312769,-1.393159,-2.940502,-1.529391,-0.1574619,0.01901865,0.1017516,-0.7859356,-2.431186,1.228863
15.19999,4.855555,100,211,501,500,-0.3717206,-0.2200618,-0.1377122,-1.391348,-2.937943,-1.525049,-0.147887,0.05525176,0.1134341,-0.7850903,-2.428516,1.228348
15.39999,4.866666,100,211,501,500,-0.3791991,-0.2147798,-0.1398802,-1.389614,-2.935774,-1.52116,-0.1478554,0.06163841,0.1198274,-0.7840346,-2.426803,1.228675
15.59999,4.877777,100,211,501,500,-0.395242,-0.2010271,-0.1420652,-1.388123,-2.933921,-1.516785,-0.1530716,0.04882905,0.1337056,-0.7822908,-2.425627,1.229768
15.79999,4.888888,100,211,501,500,-0.4027308,-0.1936175,-0.1453037,-1.386305,-2.932054,-1.51255,-0.1551345,0.04668683,0.143299,-0.7808213,-2.42419,1.230469
15.99999,4.9,102,262,499,498,-0.4145713,-0.170248,-0.1475264,-1.384614,-2.930905,-1.507878,-0.1646526,0.02748242,0.147603,-0.7791179,-2.423634,1.232176
16.19999,4.911111,102,262,499,498,-0.4253368,-0.147951,-0.1518731,-1.382787,-2.929881,-1.503072,-0.1774298,0.01147571,0.141282,-0.7776425,-2.423398,1.23425
16.39999,4.922222,102,262,499,498,-0.4254118,-0.1341157,-0.1540503,-1.380907,-2.92876,-1.498523,-0.1763302,0.008281678,0.1455334,-0.7760483,-2.422501,1.235535
16.59999,4.933333,102,262,499,498,-0.4329714,-0.116043,-0.1519849,-1.379299,-2.928033,-1.493632,-0.165492,0.001894921,0.1720874,-0.7735748,-2.421441,1.23622
16.79999,4.944445,102,262,499,498,-0.439405,-0.1086286,-0.1520219,-1.377532,-2.927042,-1.488738,-0.1590545,-0.005555838,0.1773819,-0.7712797,-2.420804,1.237408
16.99999,4.955556,126,258,498,494,-0.4479362,-0.1076009,-0.1499185,-1.375789,-2.925976,-1.483757,-0.1602304,0.002973348,0.1635517,-0.7700104,-2.419767,1.238542
17.19999,4.966667,126,258,498,494,-0.46284,-0.1108891,-0.1509864,-1.37412,-2.924746,-1.478365,-0.1677139,0.01254034,0.1625333,-0.7685409,-2.418555,1.239669
17.39999,4.977778,126,258,498,494,-0.4681195,-0.1173178,-0.1552301,-1.372249,-2.923507,-1.473337,-0.1645046,0.0199987,0.1678547,-0.7666559,-2.417011,1.240319
17.59999,4.98889,126,258,498,494,-0.4776357,-0.1301496,-0.1552132,-1.370349,-2.921915,-1.468145,-0.1581223,0.02001065,0.1667354,-0.7651496,-2.416039,1.241196
17.8,5.000001,112,223,495,497,-0.4829698,-0.1269822,-0.155234,-1.368488,-2.920832,-1.463004,-0.1582418,0.01364064,0.145424,-0.7641935,-2.415545,1.242644
18,5.011112,112,223,495,497,-0.4818935,-0.1269925,-0.1605585,-1.366409,-2.919614,-1.45792,-0.1732011,0.001902699,0.1327248,-0.7630281,-2.415287,1.244694
18.2,5.022223,112,223,495,497,-0.4819712,-0.1131387,-0.1595376,-1.364566,-2.918981,-1.452683,-0.1912414,-0.01092875,0.1392143,-0.7613142,-2.415107,1.247185
18.4,5.033335,112,223,495,497,-0.4703788,-0.09283572,-0.1563721,-1.362973,-2.918621,-1.447719,-0.2007658,-0.009890616,0.1509955,-0.7593695,-2.414129,1.249032
18.6,5.044446,112,223,495,497,-0.4672411,-0.08109704,-0.1532114,-1.361251,-2.918195,-1.442902,-0.1954255,0.01674691,0.1637636,-0.7576757,-2.411863,1.24938
18.8,5.055557,154,213,503,498,-0.4662199,-0.07678857,-0.1500059,-1.359807,-2.918006,-1.437582,-0.1933415,0.04232523,0.1659001,-0.7563351,-2.409348,1.249587
19,5.066669,154,213,503,498,-0.4736273,-0.08957843,-0.1499489,-1.358323,-2.917194,-1.432067,-0.1953913,0.04870096,0.181894,-0.7543393,-2.407281,1.250344
19.2,5.07778,154,213,503,498,-0.4736052,-0.09384056,-0.149933,-1.356524,-2.91626,-1.426989,-0.1964594,0.04125032,0.178694,-0.7526823,-2.406014,1.251656
19.4,5.088891,154,213,503,498,-0.4746317,-0.1034164,-0.1477645,-1.354882,-2.915212,-1.421818,-0.1943356,0.01889947,0.1680124,-0.7510748,-2.405719,1.253461
19.6,5.100002,160,164,507,500,-0.4671818,-0.103383,-0.1466693,-1.35323,-2.914215,-1.416991,-0.1985914,0.01888651,0.1691103,-0.7492585,-2.404483,1.254906
19.8,5.111114,160,164,507,500,-0.4533422,-0.1043472,-0.1423816,-1.351547,-2.913382,-1.412394,-0.1986465,0.02315882,0.1605942,-0.7478716,-2.403156,1.256016
20,5.122225,160,164,507,500,-0.4501352,-0.1043459,-0.1402433,-1.349875,-2.912246,-1.407929,-0.2050118,0.02633238,0.1659637,-0.7461134,-2.401813,1.257439
20.2,5.133336,160,164,507,500,-0.4405676,-0.102146,-0.138101,-1.348259,-2.911522,-1.403394,-0.2007607,0.03380466,0.1659424,-0.7445639,-2.40012,1.258202
20.40001,5.144447,160,164,507,500,-0.4299857,-0.0914087,-0.132795,-1.346732,-2.911119,-1.39896,-0.2050938,0.0561707,0.163851,-0.74335,-2.39758,1.258787
20.60001,5.155559,160,161,500,500,-0.4236076,-0.08923233,-0.1327911,-1.345117,-2.910573,-1.394507,-0.2040319,0.07534298,0.1713135,-0.7418054,-2.394722,1.25898
20.80001,5.16667,160,161,500,500,-0.4098209,-0.081626,-0.1221467,-1.343867,-2.910276,-1.390437,-0.2029289,0.0998244,0.1883595,-0.7400552,-2.391329,1.258786
21.00001,5.177781,160,161,500,500,-0.401333,-0.07627214,-0.1168094,-1.342615,-2.909701,-1.386256,-0.195354,0.09770298,0.207477,-0.737841,-2.388554,1.258771
21.20001,5.188892,160,161,500,500,-0.3949239,-0.08153727,-0.1135833,-1.341289,-2.909012,-1.382145,-0.1890218,0.09453255,0.1957244,-0.736307,-2.386305,1.258977
21.40001,5.200004,191,174,508,497,-0.388535,-0.08257869,-0.1124951,-1.339904,-2.908179,-1.37811,-0.1859269,0.0892278,0.1775926,-0.735155,-2.384465,1.259642
21.60001,5.211115,191,174,508,497,-0.3789693,-0.07826586,-0.1146204,-1.338456,-2.907782,-1.374156,-0.1838708,0.076464,0.1583954,-0.7340769,-2.383126,1.26045
21.80001,5.222226,191,174,508,497,-0.3747559,-0.06972133,-0.1146355,-1.337116,-2.907438,-1.370153,-0.1850313,0.07966703,0.1456189,-0.7331155,-2.381161,1.261193
22.00001,5.233337,191,174,508,497,-0.3662566,-0.06540319,-0.1135814,-1.335622,-2.90717,-1.366345,-0.1786148,0.07115674,0.1455676,-0.731785,-2.379615,1.261806
22.20001,5.244449,191,174,508,497,-0.3588982,-0.04831768,-0.1093482,-1.334617,-2.907196,-1.362592,-0.1509157,0.05631828,0.1400498,-0.730577,-2.378691,1.262026
22.40001,5.25556,175,146,494,499,-0.3546899,-0.03975268,-0.1061762,-1.333458,-2.907343,-1.358695,-0.1402954,0.0467663,0.1303927,-0.7295117,-2.377696,1.262494
22.60001,5.266671,175,146,494,499,-0.3483756,-0.0269177,-0.09874398,-1.332613,-2.907525,-1.355061,-0.1445242,0.02651475,0.1282741,-0.7280619,-2.377517,1.264159
22.80001,5.277782,175,146,494,499,-0.3356453,-0.0193624,-0.09019817,-1.332106,-2.907667,-1.351715,-0.1498161,0.008386612,0.1250854,-0.7268273,-2.377708,1.265977
23.00002,5.288894,175,146,494,499,-0.3292696,-0.02035697,-0.08165589,-1.33143,-2.907673,-1.34815,-0.1486551,0.004113674,0.1399913,-0.7249034,-2.376922,1.26709
23.20002,5.300005,175,146,494,499,-0.3239403,-0.01925095,-0.07950036,-1.330793,-2.907692,-1.34487,-0.1400255,0.0137046,0.1612598,-0.7226967,-2.375218,1.267143
23.40002,5.311116,163,147,499,499,-0.3218216,-0.0149914,-0.08483723,-1.329692,-2.907923,-1.341304,-0.132568,0.04142085,0.171895,-0.7209811,-2.372383,1.26628
23.60002,5.322227,163,147,499,499,-0.3175419,-0.02028731,-0.08374012,-1.328798,-2.907811,-1.337804,-0.1336739,0.05846405,0.1719173,-0.7195067,-2.369932,1.265958
23.80002,5.333339,163,147,499,499,-0.3196812,-0.02029615,-0.08267166,-1.327981,-2.907798,-1.334121,-0.1379586,0.07657632,0.1719619,-0.7181336,-2.366896,1.26509
24.00002,5.34445,163,147,499,499,-0.3249587,-0.03203155,-0.08051106,-1.32707,-2.907406,-1.33033,-0.1455064,0.07550949,0.1570896,-0.7171488,-2.365107,1.265584
24.20002,5.355561,173,154,490,493,-0.3270109,-0.04694714,-0.07939703,-1.326102,-2.906754,-1.326836,-0.1487383,0.07763502,0.1517801,-0.7160143,-2.363187,1.265849
24.40002,5.366673,173,154,490,493,-0.3247782,-0.06508414,-0.08249767,-1.324937,-2.905922,-1.323511,-0.1518382,0.07874557,0.1656178,-0.7143556,-2.360724,1.265868
24.60002,5.377784,173,154,490,493,-0.3278895,-0.07892621,-0.08676219,-1.323463,-2.905003,-1.320006,-0.1496842,0.07550117,0.1688353,-0.7124893,-2.358572,1.265645
24.80002,5.388895,173,154,490,493,-0.3257185,-0.08532307,-0.09207376,-1.321967,-2.904234,-1.316563,-0.1443229,0.06486186,0.1687937,-0.7108547,-2.357085,1.265858
25.00002,5.400006,173,154,490,493,-0.3342439,-0.08534549,-0.08996421,-1.320842,-2.903704,-1.312775,-0.1304938,0.06810565,0.1676298,-0.7096025,-2.354831,1.265301
25.20002,5.411118,194,141,496,499,-0.340643,-0.08537358,-0.0889066,-1.319746,-2.90307,-1.30893,-0.1305417,0.04787967,0.1505673,-0.7084514,-2.354227,1.266156
25.40002,5.422229,194,141,496,499,-0.3459659,-0.08541398,-0.08785227,-1.318547,-2.902227,-1.305248,-0.1380398,0.03615104,0.1410279,-0.7070874,-2.353419,1.267455
25.60003,5.43334,194,141,496,499,-0.3481223,-0.08116335,-0.08680844,-1.317408,-2.901694,-1.301419,-0.1465591,0.03613333,0.1400169,-0.7057483,-2.352098,1.268194
25.80003,5.444451,194,141,496,499,-0.3513477,-0.0769216,-0.08469773,-1.316334,-2.90112,-1.297556,-0.1400839,0.0436025,0.1570282,-0.7038564,-2.34982,1.267867
26.00003,5.455563,179,137,501,501,-0.3514071,-0.06732582,-0.08153123,-1.315415,-2.900881,-1.293694,-0.1410232,0.05104357,0.180484,-0.7015358,-2.347325,1.267592
26.20003,5.466674,179,137,501,501,-0.3536728,-0.0417821,-0.08162689,-1.314447,-2.901297,-1.289615,-0.1452854,0.0584884,0.1837139,-0.6997333,-2.345059,1.267623
26.40003,5.477785,179,137,501,501,-0.3602361,-0.01197406,-0.07852626,-1.31397,-2.902131,-1.285173,-0.1496106,0.0574255,0.1741457,-0.6984486,-2.343378,1.268179
26.60003,5.488896,179,137,501,501,-0.3625053,0.0135791,-0.07861354,-1.313292,-2.903128,-1.280765,-0.1517714,0.05529389,0.1688305,-0.6969615,-2.34174,1.268699
26.80003,5.500008,179,137,501,501,-0.3689724,0.02527791,-0.07546783,-1.312696,-2.903926,-1.276259,-0.1549927,0.05209464,0.1635213,-0.6955197,-2.34026,1.269337
27.00003,5.511119,178,135,502,499,-0.3711104,0.0295043,-0.08294237,-1.311743,-2.904701,-1.271894,-0.1550322,0.04677087,0.1560689,-0.694023,-2.338969,1.270124
27.20003,5.52223,178,135,502,499,-0.3754107,0.03588303,-0.08082545,-1.311224,-2.905495,-1.267424,-0.1507777,0.04678187,0.1549772,-0.6925572,-2.337392,1.27049
27.40003,5.533341,178,135,502,499,-0.3743517,0.03589906,-0.07762657,-1.310614,-2.906131,-1.263119,-0.1497063,0.0393174,0.1538975,-0.690987,-2.336402,1.271415
27.60003,5.544453,178,135,502,499,-0.3743928,0.04230732,-0.07658365,-1.310015,-2.907196,-1.258574,-0.1529727,0.03292915,0.1400635,-0.6899191,-2.335572,1.272571
27.80003,5.555564,239,149,496,498,-0.3702424,0.05080058,-0.07549857,-1.309772,-2.907522,-1.2536,-0.1540557,0.03186512,0.1347355,-0.6888202,-2.334492,1.273309
28.00003,5.566675,239,149,496,498,-0.3671547,0.06145497,-0.0691316,-1.309393,-2.908244,-1.248903,-0.1530677,0.02442072,0.1208738,-0.6878641,-2.333951,1.27466
28.20004,5.577786,239,149,496,498,-0.3650202,0.06360567,-0.07126516,-1.308845,-2.909427,-1.24474,-0.1551563,0.02441205,0.1283438,-0.6864154,-2.332729,1.275539
28.40004,5.588898,239,149,496,498,-0.3671437,0.05824108,-0.07231674,-1.308158,-2.909963,-1.240111,-0.1497884,0.02548793,0.1368284,-0.6849123,-2.331396,1.276137
28.60004,5.600009,239,149,496,498,-0.3713232,0.04543274,-0.07547967,-1.307369,-2.910496,-1.235835,-0.155128,0.02547696,0.1347308,-0.6836249,-2.330278,1.277114
28.80004,5.61112,266,135,486,499,-0.3712396,0.0283624,-0.07862495,-1.306332,-2.910542,-1.23147,-0.1603987,0.01906469,0.1400738,-0.6821666,-2.329612,1.278435
29.00004,5.622231,266,135,486,499,-0.37117,0.01771693,-0.07858246,-1.305618,-2.910828,-1.227465,-0.1613976,0.0243783,0.1528681,-0.6803514,-2.328058,1.27905
29.20004,5.633343,266,135,486,499,-0.3689495,-0.0004040245,-0.08171137,-1.304519,-2.910534,-1.22333,-0.1582102,0.02972189,0.1528498,-0.6789654,-2.326394,1.279357
29.40004,5.644454,266,135,486,499,-0.3678381,-0.006786109,-0.0838059,-1.303691,-2.910808,-1.219324,-0.1624607,0.03077525,0.1550076,-0.6773537,-2.32503,1.280202
29.60004,5.655565,266,135,486,499,-0.3668136,0.000664819,-0.08490046,-1.302711,-2.911314,-1.215109,-0.1613606,0.03397909,0.1635283,-0.6755353,-2.323165,1.280655
29.80004,5.666677,218,120,497,498,-0.3648026,0.02518517,-0.08496547,-1.302309,-2.912587,-1.210958,-0.1592364,0.05102861,0.166725,-0.673987,-2.320644,1.280196
30.00004,5.677788,218,120,497,498,-0.3649169,0.04544991,-0.0786488,-1.301915,-2.913946,-1.206632,-0.153929,0.05529976,0.1666965,-0.6723906,-2.318749,1.280403
30.20004,5.688899,218,120,497,498,-0.3672431,0.07954261,-0.07343636,-1.301916,-2.915969,-1.201942,-0.147558,0.05425325,0.1634618,-0.6708732,-2.317038,1.280573
30.40004,5.70001,218,120,497,498,-0.3684799,0.1104549,-0.06927892,-1.302032,-2.918265,-1.197224,-0.14116,0.04362459,0.161277,-0.6693727,-2.31581,1.281082
30.60004,5.711122,247,162,498,497,-0.3728761,0.1349356,-0.06830192,-1.302111,-2.920573,-1.192324,-0.1337437,0.03725885,0.1516395,-0.6680758,-2.314753,1.281509
30.80005,5.722233,247,162,498,497,-0.3729231,0.1434795,-0.06619845,-1.302187,-2.922691,-1.187647,-0.1348589,0.02661243,0.1409842,-0.6668524,-2.314063,1.282607
31.00005,5.733344,247,162,498,497,-0.3729596,0.1498791,-0.06409088,-1.302251,-2.924757,-1.182972,-0.1433907,0.001038522,0.1314261,-0.665509,-2.314424,1.284896
31.20005,5.744455,247,162,498,497,-0.3686936,0.1499012,-0.0661969,-1.302315,-2.926594,-1.178529,-0.1401118,-0.01174411,0.1399183,-0.6636438,-2.314358,1.286333
31.40005,5.755567,247,162,498,497,-0.3644204,0.1456798,-0.06510016,-1.302427,-2.928521,-1.173936,-0.1358646,-0.009597927,0.1388151,-0.6623713,-2.313693,1.287192
31.60005,5.766678,258,139,493,498,-0.3685976,0.1318001,-0.06826271,-1.302086,-2.929953,-1.169436,-0.1305327,-0.006391048,0.1409154,-0.6608315,-2.312927,1.287882
31.80005,5.777789,258,139,493,498,-0.3684973,0.1105087,-0.06604323,-1.302007,-2.930882,-1.164952,-0.130401,-0.009599939,0.1622062,-0.6586658,-2.312145,1.288818
32.00005,5.7889,258,139,493,498,-0.367174,0.06363206,-0.0690873,-1.301008,-2.93067,-1.160936,-0.1238632,-0.009597942,0.1824049,-0.6562423,-2.311118,1.288947
32.20005,5.800012,258,139,493,498,-0.3647116,-0.0002722675,-0.06676145,-1.299542,-2.929393,-1.157182,-0.1227213,-0.01706034,0.1930517,-0.6537405,-2.310594,1.289954
32.40005,5.811123,237,150,499,497,-0.3558105,-0.06523091,-0.07505933,-1.297699,-2.927727,-1.154063,-0.1258204,-0.02452987,0.202652,-0.651242,-2.310172,1.29085
32.60005,5.822234,237,150,499,497,-0.3523408,-0.1142334,-0.0802229,-1.295741,-2.925729,-1.150794,-0.130088,-0.0277188,0.2016005,-0.6492222,-2.309493,1.291959
32.80005,5.833345,237,150,499,497,-0.3479453,-0.1387434,-0.08970961,-1.293967,-2.924303,-1.147182,-0.1301649,-0.02346282,0.1930855,-0.6472334,-2.30901,1.293196
33.00005,5.844457,237,150,499,497,-0.3425668,-0.1461883,-0.09500587,-1.292076,-2.923111,-1.143858,-0.1312388,-0.01707441,0.1941624,-0.6451524,-2.308071,1.293889
33.20005,5.855568,237,150,499,497,-0.3415205,-0.1398254,-0.0971792,-1.290074,-2.922135,-1.140469,-0.1504748,-0.01391429,0.1857607,-0.643351,-2.307308,1.295483
33.40005,5.866679,241,135,492,500,-0.3416012,-0.1249173,-0.09829254,-1.288617,-2.921649,-1.136783,-0.1665093,0.01161575,0.1869465,-0.6416029,-2.305068,1.296034
33.60006,5.87779,241,135,492,500,-0.3417217,-0.1067915,-0.09300674,-1.287692,-2.921307,-1.132888,-0.1579528,0.02759895,0.1996879,-0.6393206,-2.302852,1.295797
33.80006,5.888902,241,135,492,500,-0.3440782,-0.06629936,-0.08889689,-1.28692,-2.922144,-1.128782,-0.1526332,0.04252219,0.2039284,-0.6372555,-2.300431,1.295368
34.00006,5.900013,241,135,492,500,-0.3433032,-0.01513665,-0.08160098,-1.286795,-2.923597,-1.124589,-0.1558901,0.04890388,0.1986269,-0.6354377,-2.298644,1.295946
34.20006,5.911124,260,145,493,499,-0.3404445,0.04454724,-0.07645269,-1.287007,-2.925653,-1.120236,-0.1516563,0.04678679,0.1932725,-0.6336283,-2.297035,1.296252
34.40006,5.922235,260,145,493,499,-0.3375883,0.1063607,-0.07344821,-1.287549,-2.928606,-1.115742,-0.1474644,0.03509521,0.1783172,-0.6321998,-2.296202,1.297132
34.60006,5.933347,260,145,493,499,-0.3420046,0.1350929,-0.07354699,-1.287709,-2.930816,-1.111206,-0.1485925,0.02125293,0.1644511,-0.630905,-2.295876,1.298691
34.80006,5.944458,260,145,493,499,-0.3463536,0.1521076,-0.07574037,-1.287875,-2.933272,-1.106558,-0.1454648,0.01062207,0.1484446,-0.6296432,-2.295534,1.299906
35.00006,5.955569,260,145,493,499,-0.3526199,0.1307655,-0.07569054,-1.287407,-2.934413,-1.102302,-0.1369437,-0.01492633,0.139842,-0.6281321,-2.296339,1.301972
35.20006,5.966681,253,133,491,500,-0.3513329,0.08923296,-0.07342416,-1.286716,-2.934687,-1.098372,-0.1348204,-0.03407988,0.1270305,-0.6268938,-2.297153,1.30374
35.40006,5.977792,253,133,491,500,-0.3490535,0.06048212,-0.07438303,-1.28607,-2.935046,-1.094364,-0.1316066,-0.06176719,0.1216532,-0.625429,-2.29903,1.306874
35.60006,5.988903,253,133,491,500,-0.3402859,0.01683416,-0.07955222,-1.28468,-2.934575,-1.09095,-0.1156309,-0.06279269,0.1194206,-0.6240468,-2.299677,1.308162
35.80006,6.000014,253,133,491,500,-0.3358445,-0.01510775,-0.08475225,-1.283486,-2.934282,-1.08737,-0.1135657,-0.0531922,0.1130369,-0.6227573,-2.299449,1.309265
36.00006,6.011126,253,133,491,500,-0.3325844,-0.02365104,-0.09745838,-1.282052,-2.934568,-1.083684,-0.1199548,-0.03403744,0.1205485,-0.621332,-2.298492,1.309965
36.20007,6.022237,209,119,508,501,-0.3272558,-0.0214965,-0.09643597,-1.281011,-2.934894,-1.080211,-0.1156078,-0.01488014,0.1429106,-0.6192132,-2.297162,1.310123
36.40007,6.033348,209,119,508,501,-0.3251993,-0.01083599,-0.09540956,-1.280063,-2.93557,-1.076234,-0.1134338,0.002155304,0.1578309,-0.617169,-2.295515,1.310049
36.60007,6.044459,209,119,508,501,-0.3263618,0.003044515,-0.08373813,-1.279723,-2.936255,-1.072394,-0.1230408,-0.00319086,0.1525578,-0.6156419,-2.295186,1.31139
36.80007,6.055571,209,119,508,501,-0.3254166,0.02331567,-0.08060807,-1.279433,-2.937542,-1.068342,-0.1252196,-0.001067236,0.148305,-0.6142352,-2.294627,1.312587
37.00007,6.066682,203,114,487,498,-0.3159454,0.04576897,-0.07433374,-1.279174,-2.938729,-1.064633,-0.1241374,0.003197134,0.1504313,-0.6126469,-2.293594,1.312904
37.20007,6.077793,203,114,487,498,-0.3150477,0.06923516,-0.06901826,-1.27952,-2.940662,-1.060486,-0.1145936,0.003218353,0.1439839,-0.611204,-2.293011,1.313467
37.40007,6.088904,203,114,487,498,-0.3141913,0.1097183,-0.07127813,-1.279905,-2.943261,-1.056343,-0.1124615,0.0085558,0.1429095,-0.6098245,-2.291841,1.3134
37.60007,6.100016,203,114,487,498,-0.3154307,0.1405993,-0.06604973,-1.280445,-2.945469,-1.052247,-0.1083067,0.01923285,0.1311698,-0.60887,-2.290345,1.313381
37.80007,6.111127,203,114,487,498,-0.3198906,0.1757708,-0.0608457,-1.281452,-2.948514,-1.047679,-0.1019896,0.01073918,0.1151447,-0.6080146,-2.290132,1.314149
38.00007,6.122238,201,123,499,496,-0.3157515,0.1939445,-0.04811236,-1.282594,-2.951059,-1.043555,-0.09675095,0.001173556,0.09698452,-0.6074894,-2.290549,1.315444
38.20007,6.133349,201,123,499,496,-0.3189678,0.1950125,-0.04384653,-1.283496,-2.953154,-1.039259,-0.09995106,-0.009472549,0.09167146,-0.6065035,-2.290445,1.316511
38.40007,6.144461,201,123,499,496,-0.3231921,0.1896495,-0.04809864,-1.283941,-2.955269,-1.034944,-0.1009924,-0.01799338,0.09060709,-0.6054739,-2.290625,1.317685
38.60007,6.155572,201,123,499,496,-0.3199362,0.1768722,-0.04698984,-1.284219,-2.956834,-1.030984,-0.09555729,-0.02864671,0.1044177,-0.6038153,-2.290867,1.318815
38.80008,6.166683,213,137,491,499,-0.3166654,0.1640958,-0.05013844,-1.284423,-2.958499,-1.02709,-0.09965279,-0.04358402,0.1236047,-0.6018637,-2.291485,1.320349
39.00008,6.177794,213,137,491,499,-0.3187013,0.1480999,-0.05329011,-1.284469,-2.96002,-1.023122,-0.1039021,-0.04573104,0.1268167,-0.6004032,-2.291892,1.322103
39.20008,6.188906,213,137,491,499,-0.3260756,0.1342114,-0.05325788,-1.284597,-2.961361,-1.019052,-0.1006503,-0.04892495,0.1342417,-0.5987995,-2.292281,1.323373
39.40008,6.200017,213,137,491,499,-0.3526642,0.1244943,-0.04901621,-1.28482,-2.962561,-1.014083,-0.1027337,-0.03615661,0.1470482,-0.5968581,-2.291585,1.323995
39.60008,6.211128,213,137,491,499,-0.3665074,0.1233788,-0.04263272,-1.285437,-2.963951,-1.009426,-0.1112963,-0.0170055,0.1471144,-0.5953923,-2.290431,1.324433
39.80008,6.222239,262,140,499,499,-0.3632958,0.1223136,-0.04794974,-1.285589,-2.965494,-1.00505,-0.1112451,0.002157256,0.1631088,-0.5933288,-2.288467,1.324065
40.00008,6.233351,262,140,499,499,-0.3568445,0.1148833,-0.05217437,-1.285618,-2.966882,-1.00105,-0.1144164,0.004278317,0.1673872,-0.5914902,-2.287537,1.324556
40.20008,6.244462,262,140,499,499,-0.353494,0.087193,-0.05527483,-1.285169,-2.967445,-0.9970539,-0.1218405,0.004263386,0.1695627,-0.5896659,-2.286514,1.325002
40.40008,6.255573,262,140,499,499,-0.3522114,0.04882659,-0.06260972,-1.284169,-2.96758,-0.9930725,-0.1250072,0.009573907,0.1780986,-0.5877085,-2.285299,1.325592
40.60008,6.266685,262,140,499,499,-0.345574,0.007291999,-0.06884819,-1.282948,-2.967179,-0.9896535,-0.1185628,0.01278281,0.185518,-0.5856275,-2.283834,1.325322
40.80008,6.277796,259,123,493,497,-0.3368701,-0.02463974,-0.07619043,-1.28151,-2.966948,-0.9861062,-0.1164059,-0.0085233,0.1833538,-0.5835449,-2.284355,1.327126
41.00008,6.288907,259,123,493,497,-0.3378612,-0.03638196,-0.08254105,-1.280319,-2.967008,-0.9822787,-0.1260804,-0.01172385,0.1695522,-0.5821638,-2.283929,1.32856
41.20008,6.300018,259,123,493,497,-0.3389112,-0.03638574,-0.08253321,-1.27944,-2.967157,-0.9786467,-0.1271689,-0.007463604,0.1674315,-0.5804109,-2.28311,1.329324
41.40009,6.31113,259,123,493,497,-0.342174,-0.02574687,-0.08043281,-1.278842,-2.967585,-0.9745401,-0.1197033,-0.007431254,0.169518,-0.5785115,-2.282029,1.329583
41.60009,6.322241,255,113,526,501,-0.342258,-0.01082618,-0.07835033,-1.278327,-2.968327,-0.970523,-0.1111731,4.309416E-05,0.1737331,-0.5765765,-2.280763,1.32953
41.80009,6.333352,255,113,526,501,-0.3445444,0.01688349,-0.07417219,-1.278421,-2.96962,-0.9662673,-0.1058386,0.002181649,0.1758307,-0.5746729,-2.279822,1.329779
42.00009,6.344463,255,113,526,501,-0.3478681,0.03925076,-0.06998883,-1.278502,-2.970923,-0.96197,-0.1100253,0.006423905,0.1886429,-0.5724236,-2.278421,1.329859
42.20009,6.355575,255,113,526,501,-0.3511299,0.05202809,-0.06684923,-1.278362,-2.972105,-0.9577696,-0.1089022,0.003229707,0.1982252,-0.5700038,-2.27729,1.330217
42.40009,6.366686,255,113,526,501,-0.3544068,0.06798969,-0.06797101,-1.27841,-2.973563,-0.9533765,-0.1035862,-0.008468524,0.190726,-0.5680767,-2.277169,1.331032
42.60009,6.377797,318,109,494,499,-0.3576311,0.07435884,-0.06800288,-1.278236,-2.974832,-0.9490446,-0.1036598,-0.02443373,0.1736612,-0.5666109,-2.277796,1.332824
42.80009,6.388908,318,109,494,499,-0.3565996,0.08076415,-0.07015584,-1.278225,-2.976383,-0.9445934,-0.1068747,-0.02549872,0.1673075,-0.5646509,-2.277316,1.333504
43.00009,6.40002,318,109,494,499,-0.3544554,0.07969669,-0.07440957,-1.277976,-2.977682,-0.9403286,-0.1047909,-0.02229281,0.1609053,-0.5630785,-2.276925,1.334248
43.20009,6.411131,318,109,494,499,-0.3512123,0.07224771,-0.07864596,-1.277535,-2.978905,-0.9361336,-0.0940436,-0.03398108,0.1714831,-0.5608271,-2.276838,1.334934
43.40009,6.422242,321,117,490,498,-0.3511907,0.0668953,-0.08395489,-1.276996,-2.979976,-0.9317085,-0.09612395,-0.04677217,0.1746819,-0.5586699,-2.277481,1.336596
43.60009,6.433353,321,117,490,498,-0.3501481,0.07226422,-0.0828684,-1.276872,-2.981339,-0.927415,-0.1088529,-0.0595908,0.1800937,-0.5561218,-2.2783,1.339001
43.80009,6.444465,321,117,490,498,-0.3522787,0.07112981,-0.08821667,-1.276514,-2.982512,-0.9230452,-0.1013937,-0.04572678,0.1853856,-0.5539865,-2.277516,1.339227
44.0001,6.455576,321,117,490,498,-0.3533493,0.07006378,-0.08822976,-1.276111,-2.983906,-0.9185184,-0.09508851,-0.03079811,0.1789648,-0.5522181,-2.276773,1.339632
44.2001,6.466687,321,117,490,498,-0.3533457,0.06900191,-0.08716104,-1.275809,-2.985114,-0.9142275,-0.09294432,-0.02546905,0.1832175,-0.5500919,-2.276078,1.340024
44.4001,6.477798,285,113,515,498,-0.3586725,0.06788675,-0.08717565,-1.275281,-2.986202,-0.9097108,-0.0982563,-0.0403915,0.1800535,-0.5479049,-2.276758,1.341883
44.6001,6.48891,285,113,515,498,-0.3565421,0.06789963,-0.08822666,-1.275087,-2.987454,-0.9054412,-0.104648,-0.04680003,0.1779477,-0.5460013,-2.277385,1.343763
44.8001,6.500021,285,113,515,498,-0.354436,0.0721845,-0.08823019,-1.275013,-2.98893,-0.9011519,-0.100396,-0.0361436,0.1811329,-0.5438345,-2.276687,1.344204
45.0001,6.511132,285,113,515,498,-0.3576899,0.07964566,-0.08506338,-1.275084,-2.990501,-0.8964307,-0.09091204,-0.02438454,0.168296,-0.5424662,-2.27571,1.34405
45.2001,6.522243,273,130,504,496,-0.3545834,0.09670376,-0.08617774,-1.275237,-2.99238,-0.8920183,-0.08566161,-0.02862497,0.1544167,-0.5409855,-2.275966,1.345109
45.4001,6.533355,273,130,504,496,-0.3589054,0.1105611,-0.08515593,-1.275778,-2.994483,-0.8875272,-0.09201026,-0.02863389,0.1619159,-0.5389274,-2.275421,1.345891
45.6001,6.544466,273,130,504,496,-0.3579505,0.1297554,-0.08095451,-1.276419,-2.996597,-0.8829806,-0.08666711,-0.03288302,0.1629454,-0.5370264,-2.275528,1.346799
45.8001,6.555577,273,130,504,496,-0.3590419,0.1340081,-0.08203547,-1.276649,-2.998486,-0.8783318,-0.07380126,-0.0403071,0.174583,-0.5346839,-2.275504,1.347294
46.0001,6.566689,273,130,504,496,-0.356898,0.1318855,-0.08308998,-1.276817,-3.000269,-0.8739089,-0.07580641,-0.04671952,0.1926994,-0.5319499,-2.275816,1.348486
46.2001,6.5778,250,140,508,496,-0.356889,0.129742,-0.08629402,-1.276737,-3.00214,-0.8693037,-0.08221614,-0.04035233,0.1937887,-0.5300154,-2.275706,1.34959
46.4001,6.588911,250,140,508,496,-0.3579389,0.1265453,-0.08627426,-1.277004,-3.003831,-0.8647614,-0.07899929,-0.03184003,0.2001778,-0.527471,-2.275253,1.349945
46.60011,6.600022,250,140,508,496,-0.3579361,0.1286646,-0.08735833,-1.277013,-3.005685,-0.8604274,-0.07691006,-0.02543983,0.1959088,-0.5254363,-2.27454,1.350125
46.80011,6.611134,250,140,508,496,-0.3558298,0.1318752,-0.08736054,-1.277346,-3.007573,-0.8558665,-0.07374509,-0.02329716,0.1926946,-0.5234241,-2.274035,1.350491
47.00011,6.622245,250,140,508,496,-0.3536671,0.1254984,-0.08627066,-1.277452,-3.009195,-0.8515058,-0.07481578,-0.03714362,0.1862985,-0.5213884,-2.274716,1.35194
47.20011,6.633356,264,112,498,498,-0.3536326,0.1191179,-0.08732273,-1.277503,-3.010991,-0.8470072,-0.07262847,-0.04460207,0.1916096,-0.5189702,-2.275108,1.35297
47.40011,6.644467,264,112,498,498,-0.356692,0.09353422,-0.08724637,-1.276992,-3.011914,-0.8427248,-0.07262956,-0.04353628,0.1916104,-0.5167875,-2.27508,1.353696
47.60011,6.655579,264,112,498,498,-0.3565406,0.06900711,-0.09356554,-1.276074,-3.012892,-0.8386182,-0.08006845,-0.04250458,0.1969779,-0.5144593,-2.275268,1.355092
47.80011,6.66669,264,112,498,498,-0.3575547,0.05941397,-0.09353662,-1.275568,-3.013923,-0.8343092,-0.0768427,-0.0361079,0.2033553,-0.5120077,-2.274564,1.355158
48.00011,6.677801,293,123,496,497,-0.3554132,0.05088366,-0.09669484,-1.274964,-3.014989,-0.8295992,-0.07582781,-0.02332011,0.2012164,-0.510096,-2.273515,1.355109
48.20011,6.688912,293,123,496,497,-0.3533961,0.06260306,-0.09669641,-1.275115,-3.016304,-0.824692,-0.07694443,-0.01479581,0.1959029,-0.5081599,-2.272407,1.355004
48.40011,6.700024,293,123,496,497,-0.3534991,0.081778,-0.09675803,-1.275287,-3.018167,-0.8202456,-0.07701451,0.004381672,0.1927351,-0.5060731,-2.270385,1.35414
48.60011,6.711135,293,123,496,497,-0.3535848,0.090283,-0.09464153,-1.275406,-3.019455,-0.8154764,-0.07279886,0.006522119,0.1873916,-0.5040597,-2.269384,1.354045
48.80011,6.722246,293,123,496,497,-0.3483677,0.1084419,-0.08829848,-1.275962,-3.021342,-0.811201,-0.07385377,-0.00306645,0.18526,-0.5020511,-2.269107,1.354639
49.00011,6.733357,293,123,496,497,-0.3494608,0.1083995,-0.09043667,-1.275733,-3.022788,-0.8064553,-0.0770345,-0.009459451,0.1863337,-0.5000144,-2.268594,1.355226
49.20012,6.744469,293,123,496,497,-0.3463246,0.119073,-0.08940002,-1.276162,-3.024702,-0.8021479,-0.0749117,-0.01158325,0.1841885,-0.498042,-2.268108,1.355582
49.40012,6.75558,293,123,496,497,-0.3474875,0.1318462,-0.08944726,-1.276654,-3.026803,-0.7972503,-0.0631741,-0.003041849,0.1905168,-0.4957996,-2.266735,1.354711
49.60012,6.766691,293,123,496,497,-0.3454666,0.1499881,-0.0831103,-1.277688,-3.02901,-0.7928507,-0.06322742,0.003354087,0.1851971,-0.493912,-2.265395,1.354301
49.80012,6.777802,324,139,482,498,-0.3413072,0.1638584,-0.07889268,-1.278497,-3.031124,-0.7883287,-0.06540164,0.001232758,0.1777532,-0.492174,-2.264506,1.354372
50.00012,6.788914,324,139,482,498,-0.3381313,0.1702876,-0.07144789,-1.279505,-3.033007,-0.7845076,-0.06751408,-0.006228939,0.1777604,-0.4901793,-2.264184,1.354893
50.20012,6.800025,324,139,482,498,-0.3348585,0.1564529,-0.07246237,-1.279888,-3.034634,-0.7804314,-0.06954928,-0.02647375,0.1862765,-0.4877899,-2.264785,1.356342
50.40012,6.811136,324,139,482,498,-0.3369256,0.1500408,-0.07456316,-1.280396,-3.036242,-0.7765197,-0.05889065,-0.02538083,0.1883432,-0.4856743,-2.264139,1.356207
50.60012,6.822248,324,139,482,498,-0.3303995,0.1266255,-0.0787366,-1.280246,-3.037553,-0.7726341,-0.05568841,-0.03069873,0.1872544,-0.4835337,-2.264175,1.356779
50.80012,6.833359,324,139,482,498,-0.3292801,0.1170494,-0.07655539,-1.280622,-3.038766,-0.7687614,-0.06639066,-0.04030372,0.17454,-0.4816817,-2.264888,1.358378
51.00012,6.84447,324,139,482,498,-0.329186,0.1000015,-0.07756532,-1.280422,-3.039894,-0.7647938,-0.07488436,-0.03606802,0.1809867,-0.4794872,-2.264518,1.359115
51.20012,6.855581,324,139,482,498,-0.3280916,0.08931483,-0.08071927,-1.28009,-3.040939,-0.7604311,-0.0706203,-0.03073753,0.1831101,-0.477165,-2.263926,1.359213
51.40012,6.866693,324,139,482,498,-0.3312643,0.08503634,-0.0807111,-1.28007,-3.042197,-0.7563191,-0.06319277,-0.0211312,0.1820073,-0.4752528,-2.262978,1.358856
51.60012,6.877804,319,125,501,499,-0.325899,0.08186038,-0.07959969,-1.280241,-3.043083,-0.7529422,-0.05472697,-0.009404883,0.1777008,-0.4734024,-2.26218,1.358587
51.80013,6.888915,319,125,501,499,-0.3302397,0.09674837,-0.08071907,-1.280708,-3.044851,-0.7486449,-0.06546029,-0.01581016,0.1617801,-0.471999,-2.262342,1.359738
52.00013,6.900026,319,125,501,499,-0.3303215,0.110594,-0.08288473,-1.28139,-3.04673,-0.7443061,-0.07821895,-0.01371312,0.1671805,-0.4701012,-2.261705,1.360463
52.20013,6.911138,319,125,501,499,-0.3358014,0.1340239,-0.08295123,-1.282738,-3.049017,-0.7393963,-0.0856653,-0.01053458,0.1704201,-0.4681704,-2.260776,1.360791
52.40013,6.922249,319,125,501,499,-0.3359513,0.1585562,-0.07344277,-1.284178,-3.051147,-0.7350655,-0.08137551,-0.0009433925,0.1789241,-0.4660654,-2.259193,1.360177
52.60013,6.93336,302,126,499,496,-0.3338298,0.1606997,-0.07344414,-1.284977,-3.053007,-0.7309685,-0.07175164,0.00119555,0.1842062,-0.4637698,-2.258268,1.359726
52.80013,6.944471,302,126,499,496,-0.3348951,0.1606939,-0.07344597,-1.285783,-3.054881,-0.7266904,-0.06322972,-0.02008294,0.175615,-0.4619349,-2.259266,1.36108
53.00013,6.955583,302,126,499,496,-0.3316512,0.1521868,-0.07128403,-1.286296,-3.056384,-0.7227648,-0.05576452,-0.02964473,0.1723667,-0.4600499,-2.259551,1.361751
53.20013,6.966694,302,126,499,496,-0.3337951,0.1543092,-0.07022935,-1.287133,-3.058188,-0.7184958,-0.06108342,-0.04882785,0.1659919,-0.4581974,-2.261065,1.363922
53.40013,6.977805,302,126,499,496,-0.3337741,0.1532671,-0.06703293,-1.288054,-3.059957,-0.7145522,-0.05788435,-0.06374148,0.1595618,-0.4564972,-2.263077,1.366241
53.60013,6.988916,308,123,505,498,-0.3370163,0.1639377,-0.06493227,-1.289469,-3.06211,-0.7102965,-0.05466018,-0.07545196,0.1595328,-0.4545137,-2.264836,1.368327
53.80013,7.000028,308,123,505,498,-0.3371027,0.1809718,-0.06818314,-1.290771,-3.064438,-0.7059262,-0.05893057,-0.08078939,0.1542286,-0.4527443,-2.266489,1.370422
54.00013,7.011139,308,123,505,498,-0.3371847,0.1916211,-0.06821195,-1.29212,-3.066608,-0.701263,-0.06853972,-0.07228699,0.1532286,-0.4510138,-2.266841,1.371729
54.20013,7.02225,308,123,505,498,-0.339363,0.1990802,-0.06397861,-1.29359,-3.068714,-0.6968545,-0.06635396,-0.04352172,0.1724072,-0.4488651,-2.264578,1.370271
54.40014,7.033361,312,120,482,497,-0.3436291,0.2033193,-0.06291565,-1.295079,-3.070621,-0.6926807,-0.06629308,-0.03501479,0.1841183,-0.446684,-2.26426,1.370562
54.60014,7.044473,312,120,482,497,-0.3446695,0.199049,-0.06396906,-1.296212,-3.072578,-0.6883174,-0.06731504,-0.02330855,0.1958524,-0.4442472,-2.262961,1.370155
54.80014,7.055584,312,120,482,497,-0.3520118,0.1787433,-0.06604234,-1.296687,-3.073938,-0.6839152,-0.07356545,-0.02441229,0.2171789,-0.4415308,-2.262591,1.3707
55.00014,7.066695,312,120,482,497,-0.3529556,0.1584893,-0.07023919,-1.297113,-3.075479,-0.6796089,-0.08315931,-0.02549949,0.215103,-0.4392197,-2.262318,1.371566
55.20014,7.077806,312,120,482,497,-0.3633767,0.114733,-0.07545661,-1.296418,-3.076355,-0.6748855,-0.07985868,-0.02230461,0.2342556,-0.4363014,-2.261155,1.371364
55.40014,7.088918,319,120,514,501,-0.3641668,0.06995233,-0.08277461,-1.295337,-3.076942,-0.6709334,-0.07877217,-0.02443758,0.23745,-0.4334657,-2.260687,1.37185
55.60014,7.100029,319,120,514,501,-0.3682474,0.03690226,-0.08374033,-1.294363,-3.077399,-0.6666158,-0.07552763,-0.03402102,0.2416838,-0.4306097,-2.260839,1.372735
55.80014,7.11114,319,120,514,501,-0.3713246,0.01664521,-0.08582462,-1.293528,-3.078226,-0.6622286,-0.07444721,-0.0436061,0.2416712,-0.42779,-2.261345,1.374062
56.00014,7.122252,319,120,514,501,-0.3723132,0.002787447,-0.08684693,-1.29264,-3.078818,-0.6579116,-0.0820015,-0.05213121,0.2299918,-0.4254346,-2.262264,1.376581
56.20014,7.133363,320,127,488,495,-0.3776123,-0.001488114,-0.0847227,-1.292032,-3.079673,-0.6534503,-0.08099274,-0.05001001,0.2289113,-0.4229366,-2.262643,1.378369
56.40014,7.144474,320,127,488,495,-0.3797621,0.002754584,-0.08687076,-1.291496,-3.080602,-0.6489463,-0.07776361,-0.05320175,0.2331505,-0.420168,-2.263013,1.379478
56.60014,7.155585,320,127,488,495,-0.3851785,0.022964,-0.08800242,-1.291531,-3.081894,-0.6444184,-0.07239494,-0.05317612,0.2426933,-0.4173935,-2.262592,1.379947
56.80014,7.166697,320,127,488,495,-0.3863376,0.04000615,-0.0869942,-1.291693,-3.083249,-0.6397174,-0.07025769,-0.03719771,0.2501507,-0.4144544,-2.261104,1.379312
57.00014,7.177808,320,127,488,495,-0.3940012,0.07834998,-0.08070869,-1.293056,-3.084856,-0.634896,-0.07556224,-0.02334689,0.2576571,-0.4114685,-2.258635,1.37798
57.20015,7.188919,342,123,499,497,-0.395146,0.09329131,-0.07542514,-1.293903,-3.086324,-0.6301934,-0.07877101,-0.02335525,0.2566253,-0.4084288,-2.258107,1.378528
57.40015,7.20003,342,123,499,497,-0.4101956,0.1198293,-0.07979773,-1.294927,-3.088475,-0.6246732,-0.08724989,-0.03616084,0.2587969,-0.4054327,-2.258607,1.380182
57.60015,7.211142,342,123,499,497,-0.4070698,0.1315924,-0.07234925,-1.296136,-3.089827,-0.6199759,-0.0882502,-0.03511834,0.2715931,-0.4019269,-2.258061,1.380811
57.80015,7.222253,342,123,499,497,-0.3964016,0.1284573,-0.07125575,-1.296832,-3.091302,-0.6155146,-0.07010064,-0.02762559,0.2810777,-0.3985863,-2.256698,1.379888
58.00015,7.233364,300,126,511,500,-0.4068881,0.1006916,-0.07970925,-1.296556,-3.092587,-0.6103949,-0.06267461,-0.03187239,0.2735966,-0.3953878,-2.256666,1.380316
58.20015,7.244475,300,126,511,500,-0.4100441,0.09535654,-0.07970814,-1.296847,-3.094038,-0.6055022,-0.07550672,-0.03296155,0.2651505,-0.3926575,-2.25632,1.38119
58.40015,7.255587,300,126,511,500,-0.4057852,0.09538098,-0.07543941,-1.297239,-3.095207,-0.6008853,-0.0830042,-0.0212604,0.262012,-0.3898655,-2.254667,1.380785
58.60015,7.266698,300,126,511,500,-0.3982817,0.09118006,-0.07117785,-1.297432,-3.096584,-0.5967516,-0.07773153,-0.02016786,0.2513275,-0.3874399,-2.253593,1.380332
58.80015,7.277809,300,126,511,500,-0.3961661,0.09332886,-0.06905054,-1.297931,-3.097829,-0.5920687,-0.07451185,-0.04784948,0.2449102,-0.3844731,-2.255742,1.383117
59.00015,7.28892,291,128,481,497,-0.3930172,0.1061292,-0.07335519,-1.29872,-3.099696,-0.5874395,-0.06065508,-0.06804989,0.2373673,-0.3816321,-2.257662,1.385143
59.20015,7.300032,291,128,481,497,-0.3920089,0.1178427,-0.07658711,-1.29954,-3.101429,-0.5826203,-0.05963746,-0.06697609,0.2299048,-0.3792139,-2.258389,1.386436
59.40015,7.311143,291,128,481,497,-0.3909272,0.1230599,-0.08334596,-1.297307,-3.105521,-0.5774601,-0.06171383,-0.06379689,0.2405855,-0.3759877,-2.258503,1.387375
59.60015,7.322254,291,128,481,497,-0.3866947,0.1252416,-0.07482228,-1.298219,-3.106844,-0.5729344,-0.07446375,-0.04145904,0.2523976,-0.3729672,-2.256227,1.386267
59.80016,7.333365,291,128,481,497,-0.3792194,0.1241664,-0.06961653,-1.29719,-3.109023,-0.5685838,-0.0713075,-0.01802136,0.2566592,-0.3701421,-2.253856,1.384879
60.00016,7.344477,307,148,485,492,-0.3770448,0.1187754,-0.07084122,-1.296035,-3.111508,-0.5638865,-0.05965108,-0.01266479,0.2491266,-0.3677287,-2.252835,1.384303
60.20016,7.355588,307,148,485,492,-0.3706437,0.114571,-0.06442119,-1.296755,-3.112641,-0.5596148,-0.06286623,-0.01266994,0.2459501,-0.3651045,-2.251879,1.384196
60.40016,7.366699,307,148,485,492,-0.3663664,0.1081272,-0.06232563,-1.29613,-3.113747,-0.5551748,-0.05545554,-0.01797482,0.2363175,-0.3625942,-2.251649,1.384412
60.60016,7.37781,307,148,485,492,-0.3599352,0.1028665,-0.06448442,-1.296553,-3.115822,-0.5507523,-0.05547886,-0.02436142,0.2299206,-0.3601798,-2.251661,1.385038
60.80016,7.388922,299,133,501,503,-0.3621217,0.1135031,-0.06354295,-1.296774,-3.118093,-0.5460226,-0.05331238,-0.02330843,0.2362988,-0.3573568,-2.25115,1.385101
61.00016,7.400033,299,133,501,503,-0.4144398,0.134525,-0.06266973,-1.29818,-3.119775,-0.5396236,-0.05968232,-0.03504112,0.2352624,-0.3546675,-2.251824,1.386572
61.20016,7.411144,299,133,501,503,-0.4603043,0.1448733,-0.0597829,-1.297891,-3.122348,-0.5326365,-0.05858895,-0.04886959,0.2331153,-0.3520544,-2.252527,1.387766
61.40016,7.422256,299,133,501,503,-0.4369103,0.1503481,-0.05442043,-1.299232,-3.123716,-0.5279914,-0.07132524,-0.05529414,0.2374477,-0.3492517,-2.25337,1.389648
61.60016,7.433367,299,133,501,503,-0.3516594,0.1549357,-0.05764055,-1.297666,-3.126324,-0.5264569,-0.05955666,-0.04036424,0.2512427,-0.3460772,-2.251734,1.388419
61.80016,7.444478,311,133,509,499,-0.3186228,0.1551001,-0.06288692,-1.298723,-3.127985,-0.5234406,-0.06377611,-0.02547288,0.2640619,-0.3429054,-2.249721,1.387346
62.00016,7.455589,311,133,509,499,-0.31534,0.1519156,-0.06174739,-1.299562,-3.128863,-0.5205612,-0.0722959,-0.007385314,0.2715828,-0.3399158,-2.246808,1.385653
62.20016,7.466701,311,133,509,499,-0.3152909,0.1593816,-0.05951569,-1.301635,-3.129071,-0.5182692,-0.06386794,0.01394194,0.2651552,-0.3373634,-2.2433,1.382861
62.40017,7.477812,311,133,509,499,-0.3184927,0.1604294,-0.05952673,-1.302884,-3.130594,-0.5142335,-0.05868529,0.02034858,0.2438235,-0.33539,-2.24149,1.381609
62.60017,7.488923,291,144,477,495,-0.346231,0.1698802,-0.05312724,-1.305133,-3.130911,-0.5098904,-0.05027513,-0.000913009,0.2150031,-0.33362,-2.242657,1.382897
62.80017,7.500034,291,144,477,495,-0.3473009,0.169882,-0.05099908,-1.306539,-3.132316,-0.505615,-0.04814747,-0.01049203,0.210721,-0.3313638,-2.242433,1.383166
63.00017,7.511146,291,144,477,495,-0.333378,0.1646687,-0.04774172,-1.30826,-3.133498,-0.5028331,-0.04387809,-0.02965222,0.2042951,-0.3289867,-2.243563,1.384611
63.20017,7.522257,291,144,477,495,-0.3216154,0.1583259,-0.05195375,-1.309329,-3.134926,-0.4991914,-0.03314465,-0.05839116,0.206338,-0.3263997,-2.246419,1.387428
63.40017,7.533368,291,144,477,495,-0.3097322,0.1306491,-0.05818337,-1.309594,-3.135449,-0.4959738,-0.02888236,-0.06368636,0.2052485,-0.3240156,-2.247389,1.388729
63.60017,7.544479,316,145,503,499,-0.3010126,0.09553416,-0.0612352,-1.309526,-3.136212,-0.4926465,-0.03002097,-0.05516243,0.1946075,-0.3221211,-2.247004,1.388527
63.80017,7.555591,316,145,503,499,-0.2912197,0.0668178,-0.06538627,-1.309122,-3.137172,-0.4899242,-0.02998842,-0.05196424,0.2020656,-0.3196965,-2.24683,1.388777
64.00017,7.566702,316,145,503,499,-0.2879456,0.05404057,-0.0695952,-1.309096,-3.138145,-0.4865377,-0.02789471,-0.03063454,0.2031532,-0.3172805,-2.243975,1.386262
64.20016,7.577813,316,145,503,499,-0.2824174,0.02529252,-0.07481772,-1.308151,-3.138946,-0.4837691,-0.03433193,-0.006149769,0.2053424,-0.3151345,-2.240878,1.383856
64.40016,7.588924,316,145,503,499,-0.2748399,0.01257145,-0.07471613,-1.30826,-3.139181,-0.4815901,-0.03101756,-0.0008379519,0.2255544,-0.3123622,-2.239185,1.382403
64.60016,7.600036,360,164,479,499,-0.2683807,-0.0001729541,-0.07359067,-1.307583,-3.139725,-0.4786121,-0.03530045,0.005544454,0.2245203,-0.3099653,-2.236842,1.380677
64.80016,7.611147,360,164,479,499,-0.2682729,-0.01183693,-0.07565784,-1.307697,-3.14044,-0.4759985,-0.03102583,-0.0008362085,0.2244893,-0.307545,-2.236015,1.38014
65.00015,7.622258,360,164,479,499,-0.2650784,-0.01076113,-0.07884838,-1.307348,-3.141261,-0.4728219,-0.02140532,0.002375484,0.2318912,-0.3048004,-2.233739,1.377993
65.20015,7.633369,360,164,479,499,-0.2640815,-0.001159582,-0.07992208,-1.307394,3.141138,-0.4694556,-0.02246279,-0.002970412,0.2308292,-0.3022262,-2.233315,1.377844
65.40015,7.644481,324,154,518,501,-0.2598649,0.006330661,-0.0788703,-1.307377,3.140255,-0.4664159,-0.02141123,-0.01148546,0.2254905,-0.2998304,-2.232817,1.377615
65.60014,7.655592,324,154,518,501,-0.2567888,0.02447805,-0.07888611,-1.308119,3.139442,-0.4631684,-0.02574619,-0.02532069,0.2074001,-0.2978985,-2.233367,1.378561
65.80014,7.666703,324,154,518,501,-0.2536407,0.03196473,-0.07677455,-1.308364,3.138444,-0.4601378,-0.01614143,-0.03168955,0.207335,-0.2955491,-2.233585,1.37866
66.00014,7.677814,324,154,518,501,-0.250428,0.04053993,-0.07891052,-1.309087,3.137196,-0.4579625,-0.01191611,-0.04125522,0.1977057,-0.2936082,-2.234384,1.379431
66.20013,7.688926,324,154,518,501,-0.2493566,0.03950846,-0.07675994,-1.309358,3.136288,-0.4550698,-0.01303493,-0.0444534,0.1881196,-0.2916923,-2.235444,1.38066
66.40013,7.700037,334,140,510,498,-0.2504309,0.04162955,-0.07783502,-1.309446,3.135216,-0.4519858,-0.02371361,-0.0444755,0.1839232,-0.2897146,-2.235881,1.381623
66.60013,7.711148,334,140,510,498,-0.2462473,0.05334944,-0.08317899,-1.3098,3.133943,-0.4486297,-0.02579872,-0.0370352,0.192462,-0.287337,-2.235123,1.381128
66.80013,7.72226,334,140,510,498,-0.2505887,0.06718206,-0.08110555,-1.310446,3.132674,-0.4454206,-0.01515228,-0.03168396,0.1934667,-0.2851862,-2.23437,1.380287
67.00012,7.733371,334,140,510,498,-0.2518146,0.09595163,-0.07690414,-1.312068,3.131724,-0.4424331,-0.006664947,-0.02314504,0.1902207,-0.2832964,-2.233381,1.379067
67.20012,7.744482,352,144,500,499,-0.2518668,0.1034258,-0.07266605,-1.313016,3.130501,-0.4393076,-0.00346633,-0.0295273,0.1880658,-0.2811845,-2.233808,1.379465
67.40012,7.755593,352,144,500,499,-0.2519416,0.1076813,-0.06735037,-1.313703,3.129548,-0.4357246,0.001803137,-0.03269298,0.1784421,-0.2794716,-2.233814,1.379411
67.60011,7.766705,352,144,500,499,-0.2508622,0.105553,-0.06840587,-1.314379,3.128323,-0.4326486,0.002897061,-0.03269795,0.1837614,-0.2772276,-2.233655,1.379254
67.80011,7.777816,352,144,500,499,-0.2465092,0.08959529,-0.07046771,-1.314599,3.127323,-0.4297623,-0.008803464,-0.0412363,0.183831,-0.2750705,-2.2342,1.380254
68.00011,7.788927,352,144,500,499,-0.2401109,0.08427733,-0.07252511,-1.31508,3.126791,-0.4267401,-0.001329593,-0.03909571,0.1869741,-0.2729943,-2.234314,1.380151
68.2001,7.800038,400,166,497,497,-0.2347896,0.08431393,-0.07038209,-1.315619,3.125709,-0.4239838,0.01039215,-0.04332784,0.1858338,-0.2708616,-2.235085,1.380444
68.4001,7.81115,400,166,497,497,-0.2316162,0.08645438,-0.07354423,-1.316443,3.124787,-0.4210149,0.001806345,-0.0593137,0.168841,-0.2690752,-2.237813,1.383244
68.6001,7.822261,400,166,497,497,-0.232692,0.08752069,-0.07248303,-1.31712,3.123648,-0.4180641,-0.009947665,-0.04975246,0.16679,-0.2672466,-2.237643,1.383503
68.80009,7.833372,400,166,497,497,-0.2273503,0.08221693,-0.0735066,-1.317611,3.122747,-0.4151836,-0.01519638,-0.04017519,0.1817555,-0.2647214,-2.235495,1.381741
69.00009,7.844483,373,146,496,498,-0.2272931,0.07050969,-0.07027103,-1.31777,3.121891,-0.4124198,-0.0002797097,-0.03908433,0.1816709,-0.2625536,-2.236209,1.381946
69.20009,7.855595,373,146,496,498,-0.2229152,0.04709966,-0.06588838,-1.31747,3.121767,-0.4099782,0.01773177,-0.01985842,0.1730541,-0.2609237,-2.233878,1.379005
69.40009,7.866706,373,146,496,498,-0.2186003,0.03647766,-0.06371193,-1.317324,3.121105,-0.4075116,0.008049294,-0.01986315,0.1571372,-0.2595661,-2.23341,1.378744
69.60008,7.877817,373,146,496,498,-0.2163876,0.01942739,-0.06681358,-1.31695,3.120821,-0.4047856,0.004905634,-0.02733149,0.1656547,-0.2577359,-2.234223,1.379856
69.80008,7.888928,373,146,496,498,-0.2131496,0.01093004,-0.06464697,-1.316606,3.120238,-0.4023711,0.01131969,-0.02625628,0.1709355,-0.25577,-2.233719,1.379165
70.00008,7.90004,349,146,505,498,-0.2120288,0.001344876,-0.06567748,-1.316086,3.119598,-0.3998726,0.007064298,-0.04224153,0.1656218,-0.2539553,-2.236065,1.381451
70.20007,7.911151,349,146,505,498,-0.2130888,-0.007194059,-0.06347395,-1.315738,3.119742,-0.39699,0.001756348,-0.03693791,0.1699168,-0.2519792,-2.235817,1.381283
70.40007,7.922262,349,146,505,498,-0.21626,-0.01253103,-0.06133271,-1.315248,3.119265,-0.3943662,0.0007554367,-0.02310497,0.1859142,-0.2495179,-2.233373,1.378929
70.60007,7.933373,349,146,505,498,-0.2183952,-0.01360849,-0.06131745,-1.314934,3.118855,-0.3916482,0.0007913336,-0.01672512,0.1923164,-0.2471786,-2.231787,1.377204
70.80006,7.944485,349,146,505,498,-0.2226646,-0.01256331,-0.06026538,-1.314576,3.118294,-0.3889185,-0.004546769,-0.0071541,0.1944866,-0.2450305,-2.229575,1.375262
71.00006,7.955596,361,159,517,500,-0.220562,-0.01253585,-0.05278398,-1.314317,3.118284,-0.3864108,-0.001374781,0.002442047,0.193407,-0.2430731,-2.226677,1.372329
71.20006,7.966707,361,159,517,500,-0.2184659,-0.007190494,-0.05066648,-1.314187,3.117782,-0.3839181,0.00178282,-0.02735861,0.1763242,-0.2412712,-2.229891,1.375374
71.40005,7.977818,361,159,517,500,-0.2228122,0.006639076,-0.04859343,-1.314417,3.117112,-0.381117,-0.0003878176,-0.02735158,0.1688779,-0.2396185,-2.229605,1.375102
71.60005,7.98893,361,159,517,500,-0.2250853,0.0311285,-0.04760765,-1.315159,3.116369,-0.3783244,-0.004645497,-0.02629355,0.1688981,-0.2378315,-2.228752,1.374374
71.80005,8.000041,376,149,480,495,-0.2284531,0.05989093,-0.0423849,-1.31631,3.115494,-0.3754498,-0.00779745,-0.03376179,0.1731725,-0.235776,-2.229223,1.37504
72.00005,8.011152,376,149,480,495,-0.2349026,0.06731385,-0.03921428,-1.316932,3.115045,-0.3724676,0.002923392,-0.04330432,0.1794952,-0.23349,-2.229285,1.374722
72.20004,8.022264,376,149,480,495,-0.2435719,0.09284008,-0.0371886,-1.318366,3.114072,-0.3692808,0.005048014,-0.05714011,0.1730818,-0.2316252,-2.231897,1.377129
72.40004,8.033375,376,149,480,495,-0.2479396,0.1109333,-0.03724836,-1.319889,3.113121,-0.3661277,0.00401397,-0.05607422,0.1784067,-0.2295757,-2.232252,1.377478
72.60004,8.044486,376,149,480,495,-0.2523183,0.1290442,-0.02986153,-1.321663,3.112262,-0.3630027,-0.0002395958,-0.04543351,0.1837698,-0.2273711,-2.231108,1.376474
72.80003,8.055597,421,136,503,502,-0.2501974,0.1290703,-0.02559557,-1.322948,3.111558,-0.3601126,-0.0002381429,-0.05288903,0.1805617,-0.2254499,-2.23303,1.378295
73.00003,8.066709,421,136,503,502,-0.2554922,0.1247737,-0.02770112,-1.324068,3.111078,-0.3571214,-0.009814031,-0.06995484,0.1763451,-0.2234243,-2.237182,1.382761
73.20003,8.07782,421,136,503,502,-0.2565113,0.1151747,-0.02872969,-1.324936,3.110483,-0.353948,-0.002297685,-0.06249567,0.1880196,-0.2210115,-2.237505,1.382822
73.40002,8.088931,421,136,503,502,-0.2586349,0.1109072,-0.02658192,-1.325943,3.109934,-0.3507463,0.0009850338,-0.06995448,0.1997216,-0.2182141,-2.23968,1.384883
73.60002,8.100042,478,173,489,495,-0.258599,0.1066284,-0.03189407,-1.32678,3.109063,-0.3476608,-0.004393898,-0.07528505,0.1890971,-0.2162343,-2.242634,1.387934
73.80002,8.111154,478,173,489,495,-0.2628106,0.09596891,-0.02760207,-1.327526,3.108617,-0.3445321,-0.01622557,-0.07743306,0.1689118,-0.2149826,-2.246246,1.391865
74.00002,8.122265,478,173,489,495,-0.2594602,0.07040241,-0.03283594,-1.327515,3.108069,-0.3415813,-0.01834014,-0.0731805,0.1731895,-0.2128579,-2.247846,1.393693
74.20001,8.133376,478,173,489,495,-0.2646846,0.05332509,-0.03383634,-1.327644,3.107858,-0.3385293,-0.01938276,-0.06040549,0.1806534,-0.2107327,-2.247444,1.393437
74.40001,8.144487,478,173,489,495,-0.2602536,0.02457228,-0.03799203,-1.326956,3.107511,-0.3357,-0.01936556,-0.05507733,0.1838639,-0.208444,-2.247617,1.393686
74.60001,8.155599,482,155,508,495,-0.2601657,0.006449677,-0.04111565,-1.326528,3.107266,-0.3324744,-0.01301972,-0.03588673,0.1838406,-0.2064237,-2.245447,1.391537
74.8,8.16671,482,155,508,495,-0.2579519,-0.006339429,-0.04639477,-1.325909,3.10675,-0.3295257,-0.01302056,-0.02417298,0.1881101,-0.2042682,-2.243322,1.389593
75,8.177821,482,155,508,495,-0.260065,-0.01168542,-0.04529743,-1.325551,3.106678,-0.3264524,-0.0140484,-0.01354161,0.1966443,-0.2019406,-2.241261,1.387636
75.2,8.188932,482,155,508,495,-0.2622263,-0.008509966,-0.04530195,-1.325408,3.10638,-0.3232247,-0.01408298,-0.00714235,0.1923732,-0.2002053,-2.239173,1.385689
75.39999,8.200044,386,183,519,492,-0.2665053,-0.007450914,-0.03998856,-1.325267,3.106117,-0.3201002,-0.0162161,-0.006082162,0.1923873,-0.1980902,-2.237281,1.384054
75.59999,8.211155,386,183,519,492,-0.266478,-0.0138459,-0.03996179,-1.324811,3.105876,-0.3169737,-0.01727875,-0.01246785,0.1902497,-0.1961423,-2.236547,1.383549
75.79999,8.222266,386,183,519,492,-0.2674896,-0.02343935,-0.03993224,-1.324191,3.105607,-0.3139238,-0.02889298,-0.00931488,0.2084342,-0.1934019,-2.233999,1.3817
75.99998,8.233377,386,183,519,492,-0.2664645,-0.01600116,-0.04633751,-1.324005,3.105051,-0.310679,-0.007223949,-0.04551885,0.2530059,-0.1892261,-2.23732,1.38442
76.19998,8.244489,386,183,519,492,-0.2696985,-0.009623924,-0.04530062,-1.323875,3.10457,-0.3074747,-0.001008667,-0.05399955,0.2210011,-0.1875446,-2.240246,1.387112
76.39998,8.2556,378,167,517,492,-0.2676332,-1.194701E-05,-0.04211526,-1.324132,3.104323,-0.3044345,-0.0278898,-0.04231204,0.1860223,-0.1866972,-2.239346,1.387437
76.59998,8.266711,378,167,517,492,-0.2689182,0.03622611,-0.03478098,-1.325516,3.103683,-0.3012562,-0.03532374,-0.03274842,0.1935331,-0.1843525,-2.237476,1.386253
76.79997,8.277822,378,167,517,492,-0.2733517,0.06496304,-0.03381719,-1.326893,3.102915,-0.2977787,-0.0363488,-0.04232668,0.1956688,-0.1818018,-2.237983,1.387101
76.99997,8.288934,378,167,517,492,-0.2714698,0.109713,-0.03502646,-1.329289,3.101686,-0.2945323,-0.05245198,-0.07749186,0.16165,-0.1807237,-2.248163,1.398152
77.19997,8.300045,378,167,517,492,-0.2897589,0.1405082,-0.03409382,-1.331524,3.100752,-0.290536,-0.04814647,-0.07961749,0.1680137,-0.1785831,-2.251632,1.401977
77.39996,8.311156,360,163,486,499,-0.3783267,0.1634619,-0.03010147,-1.333805,3.09988,-0.283338,-0.04806545,-0.06897217,0.1861396,-0.1757958,-2.250483,1.401439
77.59996,8.322268,360,163,486,499,-0.377278,0.1634926,-0.02264208,-1.335557,3.099316,-0.2789235,-0.04797541,-0.04342481,0.2106619,-0.1727465,-2.245896,1.397443
77.79996,8.333379,360,163,486,499,-0.3304235,0.1680132,-0.02468249,-1.337299,3.098426,-0.2766417,-0.04582482,-0.04874824,0.2106576,-0.1702165,-2.247837,1.399737
77.99995,8.34449,360,163,486,499,-0.3090642,0.1606583,-0.02993697,-1.338692,3.097504,-0.27361,-0.05322959,-0.06794214,0.2117532,-0.1676385,-2.253179,1.405812
78.19995,8.355601,360,163,486,499,-0.3068163,0.1404006,-0.03624795,-1.339397,3.096791,-0.269856,-0.06165512,-0.08182389,0.2213724,-0.1648518,-2.259177,1.412603
78.39995,8.366713,387,143,471,500,-0.3248195,0.122182,-0.03835859,-1.340032,3.096092,-0.2655869,-0.05842852,-0.07543051,0.2288148,-0.1620075,-2.260337,1.414293
78.59995,8.377824,387,143,471,500,-0.3439915,0.1231344,-0.04052543,-1.341428,3.095365,-0.261058,-0.05643022,-0.05730036,0.2149798,-0.1599527,-2.257967,1.412533
78.79994,8.388935,387,143,471,500,-0.347173,0.1209824,-0.04159076,-1.342522,3.094544,-0.2569365,-0.06284718,-0.04559974,0.2150182,-0.1577294,-2.257,1.412433
78.99994,8.400046,387,143,471,500,-0.3344148,0.1274229,-0.04797495,-1.34393,3.093379,-0.2532821,-0.05957358,-0.04240744,0.2288497,-0.1547398,-2.256574,1.412598
79.19994,8.411158,400,158,521,499,-0.3258734,0.1232213,-0.04581211,-1.345101,3.092604,-0.2497411,-0.05738881,-0.0466629,0.2341609,-0.1519174,-2.257355,1.413796
79.39993,8.422269,400,158,521,499,-0.3140952,0.1083844,-0.03934453,-1.345677,3.092239,-0.246377,-0.0605467,-0.04880542,0.2395052,-0.1490358,-2.258286,1.415482
