ref,t,emg1,emg2,emg1raw,emg2raw,aDotS,bDotS,gDotS,aS,bS,gS,aDotSH,bDotSH,gDotSH,aSH,bSH,gSH
0,0,44,104,497,498,0.2164736,0.04120482,0.2197054,-1.388871,-2.71947,-1.516276,0.1395442,0.1262863,-0.01289931,-0.6709089,-2.766062,1.190289
0,0.01111111,44,104,497,498,0.2067619,0.01036439,0.2174554,-1.391069,-2.718747,-1.5185,0.125751,0.1072537,0.008543283,-0.6705206,-2.764354,1.187349
0,0.02222222,44,104,497,498,0.2076818,-0.02585219,0.2150841,-1.393264,-2.71735,-1.52116,0.1087013,0.07545382,0.03536234,-0.6695006,-2.763675,1.186053
0,0.03333334,44,104,497,498,0.2139139,-0.05032238,0.2063556,-1.395242,-2.715987,-1.523941,0.1033303,0.04995201,0.04080554,-0.6690511,-2.76298,1.184072
0,0.04444445,44,104,497,498,0.2169115,-0.08222952,0.1954791,-1.397056,-2.714116,-1.526852,0.09576616,0.01377848,0.0462951,-0.6681221,-2.76387,1.183912
0,0.05555556,44,104,497,498,0.2135774,-0.1130908,0.1921171,-1.399016,-2.711881,-1.529547,0.09357393,-0.0245516,0.05283884,-0.6670105,-2.765445,1.183408
0,0.06666667,44,104,497,498,0.201867,-0.1205335,0.1964317,-1.401291,-2.710363,-1.531745,0.08288894,-0.03513967,0.05611751,-0.6662031,-2.765484,1.182854
0,0.07777778,44,104,497,498,0.1785458,-0.1183996,0.2094238,-1.403921,-2.708961,-1.533355,0.06801009,-0.03611656,0.06576922,-0.6651149,-2.765577,1.18254
0,0.08888889,44,104,497,498,0.1637925,-0.1141988,0.2266141,-1.406751,-2.707613,-1.535074,0.06060299,-0.03498197,0.07538908,-0.6639479,-2.76516,1.181605
0,0.1,44,104,497,498,0.1352902,-0.1014732,0.2525002,-1.410264,-2.706689,-1.53588,0.04367968,-0.01782233,0.09030977,-0.662742,-2.763867,1.180622
0,0.1111111,44,104,497,498,0.1215613,-0.06733124,0.251759,-1.412935,-2.70677,-1.536984,0.02888243,0.0003880896,0.09882645,-0.6617934,-2.762022,1.178887
0,0.1222222,44,104,497,498,0.1278923,-0.02031201,0.2253803,-1.415058,-2.707503,-1.538414,0.0204511,0.01749017,0.1062557,-0.6607627,-2.760148,1.177434
0,0.1333333,44,104,497,498,0.1278923,-0.02031201,0.2253803,-1.415058,-2.707503,-1.538414,0.0204511,0.01749017,0.1062557,-0.6607627,-2.760148,1.177434
0,0.1444445,44,104,497,498,0.1661182,0.09180604,0.1618354,-1.417421,-2.711683,-1.542182,0.01327273,0.02306592,0.1606031,-0.6568713,-2.755685,1.173054
0,0.1555556,44,104,497,498,0.1810808,0.1664884,0.1355448,-1.4184,-2.715383,-1.544031,0.01221818,0.01033628,0.1745024,-0.6546434,-2.754529,1.172025
0,0.1666667,44,104,497,498,0.1789593,0.2070855,0.1187637,-1.419289,-2.718707,-1.545491,-0.005872801,-0.01403874,0.1959773,-0.6517352,-2.754186,1.171981
0,0.1777778,44,104,497,498,0.152362,0.2434734,0.1074948,-1.420261,-2.722407,-1.545935,-0.03146882,-0.04158427,0.2132242,-0.6486619,-2.754168,1.172983
0,0.1888889,44,104,497,498,0.116093,0.2489817,0.09931464,-1.421419,-2.725062,-1.545895,-0.06026033,-0.06806538,0.2251538,-0.6456435,-2.754373,1.174264
0,0.2,44,104,497,498,0.08940236,0.2352354,0.09838596,-1.422533,-2.727298,-1.545832,-0.07729822,-0.08074231,0.238052,-0.6424248,-2.754372,1.175579
0,0.2111111,44,104,497,498,0.04666938,0.2013003,0.09852753,-1.423648,-2.728504,-1.545095,-0.0943504,-0.09127346,0.247742,-0.6393951,-2.753707,1.176639
0,0.2222222,44,104,497,498,0.01241188,0.1492076,0.1016849,-1.424949,-2.728816,-1.544311,-0.1071295,-0.08061883,0.2381641,-0.6369498,-2.753219,1.17757
0,0.2333333,44,104,497,498,-0.01338386,0.08110965,0.1036052,-1.426153,-2.727956,-1.543657,-0.1135208,-0.06893332,0.2232318,-0.634928,-2.75264,1.178229
0,0.2444444,44,104,497,498,-0.02751686,-0.0008895984,0.1053502,-1.427456,-2.725944,-1.543365,-0.1200178,-0.07010575,0.1902303,-0.6335522,-2.753555,1.18001
0,0.2555556,44,104,497,498,-0.03946511,-0.05942408,0.1029518,-1.428483,-2.723686,-1.542939,-0.1191979,-0.07776137,0.1359235,-0.6331399,-2.755225,1.182627
0,0.2666667,44,104,497,498,-0.04729103,-0.158459,0.1013293,-1.429442,-2.719305,-1.54286,-0.1236029,-0.07787618,0.09760208,-0.632587,-2.756126,1.184713
0,0.2777778,44,104,497,498,-0.05185326,-0.2511489,0.1050473,-1.430579,-2.713946,-1.542938,-0.1279258,-0.08322593,0.08698568,-0.6315787,-2.75734,1.187213
0,0.2888889,44,104,497,498,-0.05755892,-0.3384511,0.09814845,-1.431216,-2.708134,-1.542853,-0.1364323,-0.09697599,0.1062449,-0.6294307,-2.75843,1.19002
0,0.3,44,104,497,498,-0.05982047,-0.3842769,0.102141,-1.432309,-2.702545,-1.542897,-0.1438709,-0.1139256,0.1255115,-0.6270391,-2.759959,1.193056
0,0.3111111,44,104,497,498,-0.0578866,-0.4354246,0.101802,-1.433274,-2.696332,-1.543009,-0.1545124,-0.1383291,0.1437443,-0.6244958,-2.762304,1.196593
0,0.3222222,44,104,497,498,-0.05796759,-0.458862,0.1016557,-1.434243,-2.690594,-1.543237,-0.1747438,-0.1329281,0.1427419,-0.6226034,-2.763224,1.199851
0,0.3333333,44,104,497,498,-0.05265486,-0.4599248,0.09947868,-1.435232,-2.68559,-1.543602,-0.1906595,-0.1030777,0.1384384,-0.6211488,-2.763248,1.202764
0,0.3444445,44,104,497,498,-0.04516043,-0.4439609,0.09845851,-1.436268,-2.68107,-1.543735,-0.2171418,-0.03382182,0.1159252,-0.6211088,-2.760316,1.203557
0,0.3555556,44,104,497,498,-0.03544461,-0.4013645,0.09544839,-1.437144,-2.677539,-1.544045,-0.2393514,0.04181579,0.09443752,-0.6215941,-2.756008,1.203508
0,0.3666667,44,104,497,498,-0.03320774,-0.3704865,0.0956202,-1.438066,-2.673994,-1.544083,-0.2572889,0.09407002,0.09219161,-0.6216319,-2.751453,1.20314
0,0.3777778,44,104,497,498,-0.03418192,-0.3385038,0.09262819,-1.438848,-2.670955,-1.544093,-0.2721264,0.1111818,0.09645157,-0.6210721,-2.748086,1.20379
0,0.3888889,44,104,497,498,-0.03728679,-0.3140142,0.09600192,-1.439906,-2.668011,-1.543614,-0.2860063,0.1090918,0.09658485,-0.6196483,-2.746397,1.206434
0,0.4,44,104,497,498,-0.04035166,-0.2809857,0.09729853,-1.440932,-2.665747,-1.543391,-0.2924616,0.09737721,0.09132748,-0.6190704,-2.744621,1.208435
0,0.4111111,44,104,497,498,-0.04774649,-0.2543094,0.09433009,-1.441808,-2.663477,-1.542847,-0.2915653,0.08127201,0.06475198,-0.6189405,-2.744743,1.211811
0,0.4222222,44,104,497,498,-0.04877735,-0.2340423,0.09020471,-1.442648,-2.661237,-1.542526,-0.2874572,0.06943882,0.03920507,-0.619194,-2.744367,1.214653
0,0.4333333,44,104,497,498,-0.04662015,-0.2169789,0.08603239,-1.443448,-2.659224,-1.542307,-0.2832946,0.06402817,0.0200316,-0.6196686,-2.743629,1.217084
0,0.4444444,44,104,497,498,-0.0467058,-0.2040961,0.07014039,-1.443863,-2.657185,-1.542074,-0.2748722,0.06708074,-0.002380032,-0.6203077,-2.743135,1.219799
0,0.4555556,44,104,497,498,-0.04673676,-0.1955272,0.06273692,-1.444311,-2.655222,-1.541811,-0.2674429,0.06915388,-0.01094084,-0.6209202,-2.742007,1.221654
0,0.4666667,44,104,497,498,-0.04571708,-0.1869547,0.05319449,-1.444638,-2.653239,-1.541612,-0.2631648,0.07341242,-0.009924319,-0.62143,-2.74034,1.223167
0,0.4777778,44,104,497,498,-0.0532398,-0.1879464,0.04579349,-1.444904,-2.651109,-1.541093,-0.2641262,0.08412647,0.006020833,-0.6213927,-2.738092,1.224311
0,0.4888889,44,104,497,498,-0.06284715,-0.2007011,0.04792755,-1.445487,-2.648649,-1.540591,-0.2662014,0.08630195,0.01665951,-0.6214811,-2.73627,1.225763
0,0.5,44,104,497,498,-0.06821097,-0.2134724,0.04895686,-1.445971,-2.645912,-1.540045,-0.2725819,0.08208665,0.02309282,-0.6213464,-2.734738,1.227727
0,0.5111111,44,104,497,498,-0.07674129,-0.2230528,0.0521681,-1.446593,-2.643092,-1.539333,-0.2621311,0.07343933,0.02953121,-0.6199993,-2.736076,1.234415
0,0.5222223,44,104,497,498,-0.08417442,-0.2283895,0.05752213,-1.447274,-2.640354,-1.538574,-0.2600409,0.07339707,0.01993474,-0.6203067,-2.734794,1.236212
0,0.5333334,44,104,497,498,-0.0852464,-0.2326535,0.05856951,-1.447862,-2.63763,-1.537946,-0.2547627,0.07864675,0.003913831,-0.6209416,-2.733382,1.237733
0,0.5444446,44,104,497,498,-0.08630277,-0.2305382,0.06071891,-1.448444,-2.634993,-1.537063,-0.2473354,0.08284256,-0.006785706,-0.6216201,-2.73193,1.239106
0,0.5555557,44,104,497,498,-0.08629225,-0.2252052,0.05968677,-1.449002,-2.632603,-1.536403,-0.2505392,0.09559155,-0.01960185,-0.6226481,-2.729922,1.240389
0,0.5666668,44,104,497,498,-0.08834147,-0.2177907,0.06506515,-1.449624,-2.630103,-1.535816,-0.2600698,0.1052329,-0.01426981,-0.6231131,-2.727589,1.241655
0,0.577778,44,104,497,498,-0.0947093,-0.2209903,0.06935933,-1.450418,-2.627508,-1.534906,-0.2674606,0.1074402,-0.0003975071,-0.6231824,-2.72538,1.243019
0,0.5888891,44,104,497,498,-0.09573406,-0.2220852,0.07468762,-1.45131,-2.624961,-1.534119,-0.2748887,0.1043058,0.009232953,-0.6231238,-2.723441,1.244715
0,0.6000003,44,104,497,498,-0.09467176,-0.2306192,0.07783309,-1.452301,-2.622238,-1.533458,-0.286567,0.1054441,0.01780061,-0.6231083,-2.721222,1.246448
0,0.6111114,44,104,497,498,-0.09461063,-0.2424143,0.09055269,-1.453625,-2.619221,-1.532733,-0.2876438,0.102252,0.01781661,-0.6232814,-2.719492,1.24822
0,0.6222225,44,104,497,498,-0.09250231,-0.2488145,0.09049889,-1.454535,-2.616273,-1.532127,-0.2855563,0.1096261,0.01340214,-0.6242705,-2.718764,1.251314
0,0.6333337,44,104,497,498,-0.09356201,-0.2594967,0.09576763,-1.455631,-2.613057,-1.531431,-0.2897841,0.1202903,0.0123155,-0.6246594,-2.716112,1.2525
0,0.6444448,44,104,497,498,-0.09143984,-0.2680416,0.09782252,-1.456572,-2.609805,-1.530909,-0.2940548,0.1330649,0.01650406,-0.625094,-2.713717,1.254835
0,0.655556,44,104,497,498,-0.09571251,-0.2936537,0.1072823,-1.457815,-2.605749,-1.530228,-0.296179,0.1458211,0.006878473,-0.62587,-2.710617,1.255664
0,0.6666671,44,104,497,498,-0.0936666,-0.3128269,0.1060837,-1.458839,-2.601723,-1.529647,-0.2962101,0.1553592,0.002572635,-0.626466,-2.707999,1.257419
0,0.6777782,44,104,497,498,-0.09266818,-0.3555081,0.1164621,-1.460249,-2.596399,-1.529245,-0.295153,0.1712767,-0.01346885,-0.6278024,-2.70449,1.25781
0,0.6888894,44,104,497,498,-0.08964999,-0.4098763,0.1192909,-1.461358,-2.59019,-1.528967,-0.2855247,0.1903903,-0.02317314,-0.6292192,-2.700424,1.257211
0,0.7000005,44,104,497,498,-0.08018412,-0.4632256,0.1273964,-1.462662,-2.583536,-1.529101,-0.2737269,0.2148477,-0.02437368,-0.6304576,-2.695624,1.256026
0,0.7111117,44,104,497,498,-0.06758845,-0.5293458,0.1322146,-1.464051,-2.575989,-1.529582,-0.2619577,0.2403379,-0.02238078,-0.6313865,-2.691172,1.255576
0,0.7222228,44,104,497,498,-0.06441729,-0.5432257,0.1352971,-1.465359,-2.569592,-1.529615,-0.2544563,0.2509731,-0.02031824,-0.6325066,-2.6863,1.254266
0,0.7333339,44,104,497,498,-0.04643822,-0.5902123,0.1402055,-1.467,-2.561424,-1.530408,-0.2437781,0.262637,-0.02148713,-0.6338829,-2.681782,1.25318
0,0.7444451,44,104,497,498,-0.03686071,-0.6062438,0.1442951,-1.468508,-2.554408,-1.531086,-0.2225307,0.2625463,-0.02796416,-0.6352364,-2.677225,1.251866
0,0.7555562,44,104,497,498,-0.02401841,-0.6095389,0.1526903,-1.470191,-2.547436,-1.53188,-0.2065359,0.2720644,-0.03232248,-0.6367331,-2.672297,1.249778
0,0.7666674,44,104,497,498,-0.01753437,-0.6010704,0.1590906,-1.471925,-2.541069,-1.532558,-0.1948225,0.2794635,-0.03133319,-0.6379368,-2.667557,1.248266
0,0.7777785,44,104,497,498,-0.007823501,-0.5755586,0.1623552,-1.473512,-2.535243,-1.533314,-0.1894049,0.2943985,-0.02075562,-0.6390516,-2.661591,1.245405
0,0.7888896,44,104,497,498,-0.003468156,-0.547879,0.1646523,-1.475397,-2.529823,-1.533659,-0.1786384,0.2954967,-0.01230937,-0.640609,-2.655844,1.24148
0,0.8000008,44,104,497,498,-0.001272894,-0.5223033,0.1615972,-1.476907,-2.524539,-1.534153,-0.162682,0.2837404,-0.008066908,-0.6414831,-2.651407,1.239305
0,0.8111119,44,104,497,498,0.004186437,-0.4818322,0.1596915,-1.478649,-2.520136,-1.534807,-0.1446348,0.2708828,-0.01236151,-0.6427789,-2.647406,1.237272
0,0.8222231,44,104,497,498,0.006442077,-0.4402753,0.1567151,-1.479989,-2.51617,-1.535261,-0.1340131,0.2676319,-0.01771706,-0.6440477,-2.643066,1.234992
0,0.8333342,44,104,497,498,0.01079868,-0.3997706,0.150539,-1.48136,-2.512724,-1.535804,-0.1148879,0.2558498,-0.01986828,-0.6451209,-2.639031,1.23256
0,0.8444453,44,104,497,498,0.01196048,-0.3742269,0.1507004,-1.483054,-2.50875,-1.536344,-0.09472431,0.2365969,-0.01881028,-0.6459098,-2.636075,1.230965
0,0.8555565,44,104,497,498,0.01528125,-0.3305357,0.1466829,-1.484483,-2.50626,-1.53684,-0.07460979,0.2109241,-0.02944795,-0.6470395,-2.633818,1.229464
0,0.8666676,44,104,497,498,0.02185094,-0.2890797,0.1490286,-1.486306,-2.503217,-1.53762,-0.0512763,0.1767625,-0.03579783,-0.6480446,-2.631751,1.227389
0,0.8777788,44,104,497,498,0.03690117,-0.2411602,0.1438697,-1.48766,-2.501654,-1.538609,-0.04070461,0.1585977,-0.04109976,-0.6490374,-2.630112,1.226256
0,0.8888899,44,104,497,498,0.05308958,-0.1815559,0.1430397,-1.489224,-2.501081,-1.539642,-0.03432042,0.1575322,-0.04325495,-0.6503589,-2.627008,1.224045
0,0.900001,44,104,497,498,0.05745327,-0.1389213,0.1368763,-1.490582,-2.500511,-1.540413,-0.03640493,0.1724496,-0.04436575,-0.6516191,-2.62376,1.221926
0,0.9111122,44,104,497,498,0.06722984,-0.07819319,0.1318423,-1.49192,-2.501319,-1.54151,-0.04270544,0.1874221,-0.03692504,-0.6525863,-2.619747,1.21921
0,0.9222233,44,104,497,498,0.07376157,-0.02811093,0.1257049,-1.493206,-2.502103,-1.542576,-0.04589409,0.1895635,-0.03692048,-0.6537192,-2.616633,1.217337
0,0.9333345,44,104,497,498,0.0834254,0.01238847,0.1173532,-1.494329,-2.503277,-1.543652,-0.05127373,0.1746626,-0.04004624,-0.6548079,-2.614568,1.216308
0,0.9444456,44,104,497,498,0.08454081,0.04111282,0.1090595,-1.496219,-2.502975,-1.544884,-0.05557749,0.1651137,-0.03997498,-0.6556852,-2.611662,1.214862
0,0.9555568,44,104,497,498,0.08986525,0.05284479,0.1037608,-1.497247,-2.50384,-1.545951,-0.05983864,0.1651283,-0.03995866,-0.6567307,-2.609138,1.213646
0,0.9666679,44,104,497,498,0.08977383,0.05504536,0.09203954,-1.497742,-2.504375,-1.546889,-0.05979386,0.1683569,-0.03463652,-0.6576729,-2.605857,1.211521
0,0.977779,44,104,497,498,0.09390502,0.03804105,0.08336962,-1.498364,-2.504371,-1.548099,-0.06294702,0.173717,-0.02825154,-0.6585507,-2.602773,1.209866
0,0.9888902,44,104,497,498,0.09375618,0.01784671,0.0747162,-1.498851,-2.503916,-1.549112,-0.0618509,0.164189,-0.01651826,-0.6593145,-2.599958,1.208068
0,1.000001,44,104,497,498,0.09669693,-0.01827332,0.05848974,-1.499103,-2.50293,-1.550471,-0.06185019,0.1440133,0.001664067,-0.6592261,-2.59803,1.20723
0,1.011112,44,104,497,498,0.09535927,-0.05651983,0.04228325,-1.49909,-2.501235,-1.551612,-0.05338888,0.1142138,0.01238917,-0.6591797,-2.596596,1.206449
0,1.022224,44,104,497,498,0.09617372,-0.09478786,0.02925488,-1.499087,-2.499375,-1.552766,-0.04814748,0.08653967,0.0167415,-0.6590685,-2.595253,1.205893
0,1.033335,44,104,497,498,0.09170542,-0.1223903,0.01633652,-1.498893,-2.497294,-1.553821,-0.04712539,0.07269112,0.01785214,-0.6590099,-2.59445,1.20575
0,1.044446,44,104,497,498,0.0883913,-0.1382863,0.006653637,-1.498427,-2.495633,-1.555106,-0.04076559,0.0652217,0.01571599,-0.6593103,-2.593189,1.205017
0,1.055557,44,104,497,498,0.08189896,-0.1488698,-0.0008156262,-1.498187,-2.493683,-1.556001,-0.04498671,0.07695442,0.01569016,-0.6595782,-2.591356,1.204182
0,1.066668,44,104,497,498,0.07538348,-0.1551643,-0.01251401,-1.497803,-2.491871,-1.556779,-0.04599658,0.09082237,0.01351494,-0.6601199,-2.588691,1.202375
0,1.077779,44,104,497,498,0.06574284,-0.1550903,-0.01882537,-1.497418,-2.490141,-1.557394,-0.05229481,0.1026122,0.02734594,-0.6600218,-2.586013,1.201037
0,1.08889,44,104,497,498,0.060422,-0.1476005,-0.01978919,-1.497324,-2.488832,-1.557871,-0.0543716,0.1037379,0.03587213,-0.6600198,-2.583488,1.199468
0,1.100002,44,104,497,498,0.04977762,-0.1379551,-0.02283625,-1.496972,-2.487574,-1.558221,-0.0522567,0.09417678,0.03910252,-0.6598839,-2.581436,1.198311
0,1.111113,44,104,497,498,0.04130707,-0.1230122,-0.02161916,-1.49658,-2.486667,-1.558387,-0.04380883,0.07496452,0.03700806,-0.6596895,-2.580701,1.197996
0,1.122224,44,104,497,498,0.03705653,-0.117664,-0.02261571,-1.496281,-2.485515,-1.558756,-0.04066342,0.05792339,0.03706631,-0.6593444,-2.57969,1.197443
0,1.133335,44,104,497,498,0.02864159,-0.09633919,-0.01921638,-1.496178,-2.485126,-1.55892,-0.03652149,0.03762242,0.02433937,-0.6593593,-2.579966,1.197943
0,1.144446,44,104,497,498,0.02659994,-0.08685488,-0.01589312,-1.496751,-2.483076,-1.559726,-0.03024355,0.02262145,0.009448479,-0.6596203,-2.58055,1.198683
0,1.155557,44,104,497,498,0.0192267,-0.06873184,-0.01358833,-1.496666,-2.482833,-1.559729,-0.0292352,0.02150217,-0.004400391,-0.6601012,-2.58049,1.19893
0,1.166668,44,104,497,498,0.008716398,-0.05703533,-0.00279094,-1.496706,-2.482558,-1.559732,-0.02816474,0.01512844,-0.002252135,-0.6601454,-2.580093,1.198637
0,1.17778,44,104,497,498,0.0002569514,-0.04957455,0.001587648,-1.496817,-2.482209,-1.559546,-0.03029275,0.008767206,0.004170903,-0.6599324,-2.580079,1.199005
0,1.188891,44,104,497,498,-0.01036273,-0.04528723,0.003833673,-1.496877,-2.481802,-1.559204,-0.0281543,0.0002942309,0.01486446,-0.6592943,-2.579543,1.198869
0,1.200002,44,104,497,498,-0.01459941,-0.04101757,0.004961046,-1.496964,-2.481465,-1.558953,-0.03773661,-0.001768667,0.02131021,-0.6588613,-2.579023,1.199275
0,1.211113,44,104,497,498,-0.02204371,-0.03672622,0.007168378,-1.496912,-2.481382,-1.558252,-0.04199532,0.002495822,0.01811543,-0.6587968,-2.57875,1.199615
0,1.222224,44,104,497,498,-0.02630097,-0.03564816,0.009335216,-1.496983,-2.481157,-1.557639,-0.04520205,0.006721295,0.006407922,-0.6588586,-2.578623,1.199788
0,1.233335,44,104,497,498,-0.02733565,-0.03459893,0.01254651,-1.497205,-2.480814,-1.557324,-0.04200093,0.01414798,0.001042245,-0.6591068,-2.578182,1.199825
0,1.244446,44,104,497,498,-0.02946476,-0.0356621,0.01467881,-1.497271,-2.480484,-1.556807,-0.0452089,0.01626893,-0.005369734,-0.6597209,-2.578165,1.200331
0,1.255558,44,104,497,498,-0.02947797,-0.04419752,0.01675653,-1.497504,-2.479759,-1.556525,-0.0431297,0.01090406,-0.01388072,-0.6600661,-2.578438,1.20098
0,1.266669,44,104,497,498,-0.02949266,-0.04844713,0.01673014,-1.497661,-2.479285,-1.556238,-0.04420947,0.006652784,-0.01492553,-0.6602509,-2.578392,1.201385
0,1.27778,44,104,497,498,-0.03165029,-0.05589639,0.01670184,-1.497807,-2.478454,-1.555888,-0.04312856,0.00878736,-0.01280682,-0.6603995,-2.578256,1.201725
0,1.288891,44,104,497,498,-0.03268613,-0.06340148,0.01773895,-1.498094,-2.477027,-1.556293,-0.04419687,0.01306213,-0.01282152,-0.660702,-2.577756,1.202098
0,1.300002,44,104,497,498,-0.03377483,-0.06765325,0.01665392,-1.498271,-2.476092,-1.555961,-0.04420389,0.009870104,-0.01174469,-0.6608037,-2.577768,1.202589
0,1.311113,44,104,497,498,-0.03589535,-0.07407852,0.01876983,-1.498611,-2.474736,-1.555833,-0.04205593,0.01414558,-0.01070561,-0.6611164,-2.577067,1.202466
0,1.322224,44,104,497,498,-0.03486448,-0.07619298,0.01555208,-1.498664,-2.473832,-1.555547,-0.03572157,0.004533689,-0.01281599,-0.6610967,-2.577323,1.203131
0,1.333336,44,104,497,498,-0.03477965,-0.07518844,0.01875864,-1.499014,-2.472476,-1.556043,-0.0346951,-0.001877073,-0.01705815,-0.6613076,-2.577777,1.203868
0,1.344447,44,104,497,498,-0.03052389,-0.07518318,0.01658965,-1.499115,-2.471751,-1.556039,-0.03471562,-0.005055642,-0.0191707,-0.6615558,-2.577472,1.204017
0,1.355558,44,104,497,498,-0.02943183,-0.06773005,0.01662702,-1.499297,-2.471199,-1.555772,-0.03256408,-0.006105542,-0.01278338,-0.6614898,-2.577618,1.204436
0,1.366669,44,104,497,498,-0.0273062,-0.0645526,0.01663411,-1.499509,-2.470402,-1.555356,-0.03151888,-0.01037209,-0.0116939,-0.6612996,-2.577989,1.205193
0,1.37778,44,104,497,498,-0.0251641,-0.05388756,0.01348648,-1.499538,-2.470117,-1.555161,-0.02935988,-0.009291323,-0.005314261,-0.6611686,-2.578005,1.20546
0,1.388891,44,104,497,498,-0.019835,-0.04642467,0.01031027,-1.499828,-2.469863,-1.555132,-0.02403687,-0.01249146,-0.001069125,-0.6611223,-2.578385,1.20605
0,1.400002,44,104,497,498,-0.02192458,-0.03256197,0.009348656,-1.4999,-2.469894,-1.554805,-0.02722896,-0.013529,0.001082125,-0.6609704,-2.578349,1.206432
0,1.411114,44,104,497,498,-0.0134053,-0.02299181,0.005083896,-1.499944,-2.469663,-1.554856,-0.02509987,-0.009290883,-0.003202759,-0.6610935,-2.578419,1.20673
0,1.422225,44,104,497,498,-0.01129247,-0.01550931,-0.0002139416,-1.499794,-2.469698,-1.554788,-0.02512436,-0.008249026,-0.01066887,-0.6614552,-2.57868,1.207197
0,1.433336,44,104,497,498,-0.004890276,-0.002715302,-0.005544957,-1.499167,-2.469994,-1.55503,-0.02298776,-0.001880297,-0.01496146,-0.6617854,-2.57864,1.207354
0,1.444447,44,104,497,498,-0.001707704,0.004735195,-0.007656257,-1.499038,-2.470073,-1.55475,-0.01769558,-0.006180225,-0.02028235,-0.6618781,-2.579072,1.207705
0,1.455558,44,104,497,498,0.001536648,0.02070952,-0.008649157,-1.498925,-2.470732,-1.554823,-0.01344677,-0.006206886,-0.02349458,-0.6621945,-2.579389,1.207998
0,1.466669,44,104,497,498,0.00795732,0.03667442,-0.009677809,-1.498683,-2.471565,-1.554718,-0.007106734,-0.01262417,-0.0288205,-0.6625289,-2.57985,1.208433
0,1.47778,44,104,497,498,0.00910052,0.05583883,-0.008502517,-1.498639,-2.472701,-1.554756,-0.003928233,-0.0158352,-0.02988601,-0.6627985,-2.580352,1.208805
0,1.488891,44,104,497,498,0.01233599,0.06648587,-0.00740611,-1.498493,-2.473846,-1.554782,-0.003866153,-0.003037568,-0.02565878,-0.6628949,-2.579844,1.208467
0,1.500003,44,104,497,498,0.01133339,0.0813968,-0.006239309,-1.498473,-2.475164,-1.554789,-0.0048741,0.009761354,-0.02250604,-0.6632017,-2.579203,1.20805
0,1.511114,44,104,497,498,0.008191639,0.09096844,-0.004019506,-1.498531,-2.476153,-1.554728,-0.003731997,0.01515091,-0.006554116,-0.663076,-2.578332,1.207453
0,1.522225,44,104,497,498,0.009250143,0.09525527,-0.006144851,-1.498262,-2.477539,-1.554715,-0.00482471,0.008765467,-0.006520677,-0.6630675,-2.57844,1.207693
0,1.533336,44,104,497,498,0.009280702,0.09630062,-0.002942379,-1.498328,-2.478629,-1.554728,-0.0006429059,-0.0125592,-0.007524028,-0.6629189,-2.579544,1.208448
0,1.544447,44,104,497,498,0.008240828,0.09842648,-0.0008003272,-1.498244,-2.479841,-1.554704,0.005673798,-0.0296421,-0.01282616,-0.6631212,-2.580926,1.209212
0,1.555558,44,104,497,498,0.007180659,0.09735836,0.0002672854,-1.498293,-2.480891,-1.554687,0.00880288,-0.0392721,-0.02132557,-0.6633018,-2.582247,1.210072
0,1.566669,44,104,497,498,0.008232063,0.09417539,-0.000831942,-1.4982,-2.482016,-1.554815,0.01197235,-0.04248911,-0.02237421,-0.6631212,-2.583103,1.210729
0,1.577781,44,104,497,498,0.007175788,0.09417253,0.000242423,-1.498259,-2.483066,-1.554781,0.01198056,-0.04248128,-0.02024365,-0.663109,-2.58392,1.21124
0,1.588892,44,104,497,498,0.007155029,0.08772022,-0.0008225559,-1.498777,-2.482932,-1.555037,0.01837902,-0.04781643,-0.01814137,-0.6633439,-2.585094,1.211547
0,1.600003,44,104,497,498,0.006102491,0.08878263,0.000258064,-1.498827,-2.48395,-1.554996,0.01625388,-0.05205044,-0.01279108,-0.6630909,-2.586154,1.212265
0,1.611114,44,104,497,498,0.001847103,0.08668606,0.001328097,-1.498629,-2.485232,-1.55487,0.01734222,-0.04672449,-0.01173836,-0.662921,-2.586731,1.212532
0,1.622225,44,104,497,498,0.001831751,0.08242498,0.001301667,-1.498659,-2.486025,-1.554846,0.01949938,-0.04458521,-0.009629063,-0.66293,-2.587268,1.212514
0,1.633336,44,104,497,498,-0.0003125481,0.07606191,0.002340812,-1.498672,-2.487087,-1.554745,0.01951068,-0.04138937,-0.009640852,-0.6629055,-2.587873,1.212781
0,1.644447,44,104,497,498,-0.002457775,0.06968834,0.002307133,-1.49855,-2.487871,-1.554722,0.02267568,-0.04566271,-0.007493217,-0.6624885,-2.588934,1.213641
0,1.655559,44,104,497,498,-0.004617581,0.06651337,0.0001748251,-1.498517,-2.488528,-1.554574,0.02480316,-0.04885829,-0.005359026,-0.662276,-2.589887,1.214054
0,1.66667,44,104,497,498,-0.005704579,0.06121743,0.0001544575,-1.498595,-2.489475,-1.554407,0.02059725,-0.0381917,-0.006447704,-0.6623346,-2.590074,1.213767
0,1.677781,44,104,497,498,-0.005712264,0.05908689,0.000141345,-1.49861,-2.490096,-1.554309,0.01528969,-0.03284635,-0.006446877,-0.6623058,-2.590474,1.214049
0,1.688892,44,104,497,498,-0.007855544,0.05589518,0.001205441,-1.49867,-2.490703,-1.553981,0.01426041,-0.03071188,-0.005387576,-0.6622366,-2.591048,1.214
0,1.700003,44,104,497,498,-0.007887539,0.0495102,0.0001003952,-1.498648,-2.491084,-1.553862,0.01213395,-0.03069983,-0.004302407,-0.6619542,-2.591478,1.214245
0,1.711114,44,104,497,498,-0.00578029,0.04202128,-0.00102532,-1.498658,-2.490914,-1.554058,0.006810701,-0.02749274,-0.006424233,-0.6620011,-2.591891,1.214635
0,1.722225,44,104,497,498,-0.005784736,0.03241491,0.002103797,-1.49868,-2.491061,-1.554044,0.001516878,-0.0242621,-0.003220996,-0.6619282,-2.592102,1.214751
0,1.733337,44,104,497,498,-0.0004920219,0.02495305,0.0009458779,-1.498645,-2.491261,-1.554174,0.00470602,-0.02958834,-1.795543E-05,-0.6616874,-2.592754,1.215131
0,1.744448,44,104,497,498,-0.0005520046,0.01967001,-0.003346916,-1.498522,-2.491643,-1.554059,-0.0005914466,-0.02846478,0.01065804,-0.6611223,-2.592893,1.215589
0,1.755559,44,104,497,498,0.002658922,0.01644291,-0.0001978197,-1.498601,-2.491758,-1.554152,-0.002723699,-0.03695231,0.0181543,-0.6605156,-2.593623,1.216241
0,1.76667,44,104,497,498,-0.0005453214,0.01541246,-0.001240265,-1.498623,-2.49216,-1.554087,-0.004881734,-0.04437925,0.02032344,-0.6600714,-2.59417,1.216896
0,1.777781,44,104,497,498,0.0005249816,0.01433675,-0.0001905953,-1.498654,-2.492282,-1.554109,-0.007052483,-0.04759461,0.01288632,-0.6599164,-2.595143,1.21779
0,1.788892,44,104,497,498,0.002666447,0.01538636,0.0008468424,-1.498453,-2.492475,-1.554145,-0.00819975,-0.04976425,0.0001151636,-0.66,-2.596116,1.219015
0,1.800003,44,104,497,498,0.001601203,0.01539014,0.0008557894,-1.498461,-2.492638,-1.554126,-0.01034788,-0.04551499,-0.007347353,-0.6601518,-2.596683,1.219687
0,1.811115,44,104,497,498,0.003702988,0.01432212,-0.0002223226,-1.498578,-2.492751,-1.55398,-0.01243123,-0.03274846,-0.01271357,-0.6603723,-2.597039,1.219823
0,1.822226,44,104,497,498,0.006890505,0.01644934,-0.0002284802,-1.498705,-2.493108,-1.553896,-0.01448717,-0.01674343,-0.01170662,-0.6607196,-2.596465,1.219371
0,1.833337,44,104,497,498,0.007941613,0.01004729,0.0007881497,-1.498747,-2.493055,-1.554024,-0.01228384,0.004550681,-0.01285699,-0.6611047,-2.595579,1.218774
0,1.844448,44,104,497,498,0.006812266,0.002638416,-0.004577003,-1.49854,-2.49308,-1.554173,-0.01323644,0.02056858,-0.003323418,-0.6611372,-2.594563,1.217885
0,1.855559,44,104,497,498,0.005702306,-0.004801384,-0.006744875,-1.498405,-2.49285,-1.554213,-0.008916847,0.01742226,0.01478148,-0.6606168,-2.593991,1.217414
0,1.86667,44,104,497,498,0.0003201226,-0.007946623,-0.009924464,-1.498109,-2.492875,-1.553836,-0.001441237,0.009996425,0.02862534,-0.6600767,-2.593589,1.217062
0,1.877781,44,104,497,498,0.0003189081,-0.005809458,-0.01097645,-1.497968,-2.492886,-1.553845,0.01018302,-0.01030555,0.02332632,-0.659739,-2.594435,1.217356
0,1.888893,44,104,497,498,-0.001772299,0.004846482,-0.008773194,-1.497802,-2.493368,-1.553509,0.01222874,-0.02206523,0.01378629,-0.6595047,-2.595192,1.217864
0,1.900004,44,104,497,498,-0.002791135,0.01442906,-0.005501278,-1.497947,-2.49393,-1.55319,0.02061834,-0.03388266,-0.006463815,-0.6601225,-2.596574,1.218697
0,1.911115,44,104,497,498,-0.002744809,0.0282921,-0.006486529,-1.497775,-2.494733,-1.55316,0.02377866,-0.03075632,-0.02033429,-0.6605156,-2.597419,1.21892
0,1.922226,44,104,497,498,-0.002697468,0.03893815,-0.005355148,-1.497762,-2.49547,-1.553077,0.02584436,-0.0329346,-0.03311487,-0.6609726,-2.598298,1.219419
0,1.933337,44,104,497,498,-0.002604312,0.05270341,-0.002052462,-1.498146,-2.495508,-1.553305,0.01949978,-0.02331239,-0.02992873,-0.6612086,-2.598459,1.219522
0,1.944448,44,104,497,498,-0.00148257,0.05798773,0.003299106,-1.498348,-2.496178,-1.553156,0.01420227,-0.02007957,-0.02566335,-0.6613854,-2.598755,1.219731
0,1.955559,44,104,497,498,0.00385522,0.06116461,0.003274226,-1.49841,-2.496964,-1.553294,0.007867288,-0.0157572,-0.01500111,-0.6612378,-2.598745,1.219838
0,1.966671,44,104,497,498,0.00707589,0.0590387,0.007490068,-1.498554,-2.498151,-1.553304,-0.0006111246,-0.007198799,-0.009658088,-0.6610083,-2.598732,1.220163
0,1.977782,44,104,497,498,0.003886431,0.05584094,0.009627595,-1.498722,-2.498679,-1.553224,-0.00166457,-0.005060541,-0.00859637,-0.6610786,-2.598755,1.220228
0,1.988893,44,104,497,498,0.007052809,0.05156554,0.01064064,-1.498887,-2.499176,-1.55302,-0.005906925,0.0002750526,-0.01179829,-0.6614216,-2.598558,1.220064
0,2.000004,44,104,497,498,0.005967282,0.04198965,0.01271768,-1.499054,-2.499672,-1.552971,-0.002695279,0.002371567,-0.01714492,-0.6617013,-2.598723,1.219704
0,2.011115,44,104,497,498,0.007013282,0.03665956,0.01267554,-1.499195,-2.499936,-1.553052,-0.002718715,-0.002958658,-0.01819109,-0.6618552,-2.599136,1.220061
0,2.022226,44,104,497,498,0.001665861,0.03028833,0.01374555,-1.499376,-2.500213,-1.552774,0.002546653,-0.01681991,-0.02242947,-0.6621785,-2.599706,1.220232
0,2.033337,44,104,497,498,-0.001542813,0.02710272,0.01375422,-1.499557,-2.500408,-1.552633,0.006788943,-0.02428485,-0.02028869,-0.662154,-2.600535,1.220684
0,2.044448,44,104,497,498,-0.001574799,0.02286388,0.0115934,-1.499581,-2.500689,-1.552636,0.01103014,-0.03282649,-0.01920451,-0.6620278,-2.601638,1.221229
0,2.055559,44,104,497,498,-0.002650401,0.01753469,0.01263443,-1.499755,-2.500713,-1.552569,0.00996225,-0.03706513,-0.01703117,-0.6616853,-2.602086,1.221444
0,2.06667,44,104,497,498,-0.004796842,0.0154267,0.01264526,-1.499987,-2.501046,-1.552319,0.00995522,-0.0370824,-0.01808806,-0.6615995,-2.603069,1.222167
0,2.077781,44,104,497,498,-0.00478732,0.01223545,0.01369185,-1.50018,-2.501285,-1.55245,0.007797211,-0.03176849,-0.02661357,-0.6619452,-2.603384,1.222619
0,2.088892,44,104,497,498,-0.004770714,0.01435933,0.01477034,-1.500382,-2.501498,-1.552387,0.006726306,-0.02539948,-0.0340893,-0.6624666,-2.603862,1.222957
0,2.100003,44,104,497,498,-0.00263709,0.01220812,0.01474371,-1.500616,-2.501375,-1.55258,0.008897059,-0.01262972,-0.03734631,-0.6631436,-2.603727,1.222589
0,2.111114,44,104,497,498,-0.001579017,0.0122118,0.01366068,-1.500602,-2.501531,-1.552593,0.004656054,-0.01047219,-0.03414165,-0.6634051,-2.603969,1.222856
0,2.122225,44,104,497,498,0.0005480144,0.01114179,0.01363473,-1.500739,-2.501672,-1.55265,-0.00376235,0.003453093,-0.02137065,-0.6633849,-2.603291,1.222537
0,2.133336,44,104,497,498,0.003732209,0.007934606,0.01358808,-1.500886,-2.501663,-1.552763,-0.007969635,0.002456484,-0.006436449,-0.6630802,-2.603117,1.2226
0,2.144447,44,104,497,498,0.001593432,0.003623811,0.01042169,-1.501472,-2.500405,-1.553326,-0.01010742,-0.001747177,0.00423499,-0.6629061,-2.602915,1.223103
0,2.155558,44,104,497,498,0.0005140039,-0.002770706,0.01145612,-1.501628,-2.500185,-1.553338,-0.005846533,-0.0007012831,0.003149467,-0.6629018,-2.602874,1.223027
0,2.166669,44,104,497,498,0.00367893,-0.003826151,0.009293397,-1.501688,-2.500249,-1.553315,-0.004853315,-0.01458789,-0.006383761,-0.6629311,-2.603841,1.223576
0,2.17778,44,104,497,498,0.002611041,-0.007024848,0.01034767,-1.501826,-2.500081,-1.553308,-0.00279397,-0.02315444,-0.01701123,-0.6631814,-2.604793,1.224288
0,2.188891,44,104,497,498,-0.002778347,-0.00801716,0.002919119,-1.501498,-2.50012,-1.553186,0.001451731,-0.02851678,-0.02234263,-0.6634791,-2.605774,1.224569
0,2.200002,44,104,497,498,0.0004628719,-0.007035921,0.003983901,-1.501846,-2.499089,-1.553858,-0.001750022,-0.03381908,-0.02017533,-0.6633732,-2.606459,1.22513
0,2.211113,44,104,497,498,-0.0006201934,-0.007018811,0.001862351,-1.501812,-2.499016,-1.553831,-0.001736946,-0.03699236,-0.0137723,-0.6631836,-2.607167,1.225695
0,2.222224,44,104,497,498,-0.0006286881,-0.007019532,0.001864101,-1.501859,-2.49893,-1.5537,-0.002759134,-0.03269068,-0.004183395,-0.6627505,-2.607236,1.225964
0,2.233335,44,104,497,498,0.000399595,-0.00485325,-0.003473658,-1.501448,-2.499029,-1.553714,-0.00165695,-0.03159904,0.004330961,-0.6623777,-2.607597,1.226246
0,2.244446,44,104,497,498,0.000430903,-0.005960299,-0.003473863,-1.50148,-2.498318,-1.554303,-0.003731094,-0.02625036,0.0107052,-0.66213,-2.607938,1.226433
0,2.255557,44,104,497,498,0.003602562,-0.0027492,-0.007741722,-1.501269,-2.498389,-1.554413,-0.003723071,-0.0251813,0.01176669,-0.6618919,-2.608244,1.226716
0,2.266668,44,104,497,498,0.003581611,-0.000600603,-0.01093417,-1.500952,-2.498419,-1.554413,-0.00371945,-0.02412529,0.007491047,-0.6620262,-2.608616,1.226798
0,2.277779,44,104,497,498,0.001464413,0.0004686184,-0.009846849,-1.500847,-2.498504,-1.554379,-0.0005207201,-0.02519876,0.005359129,-0.661837,-2.608753,1.226596
0,2.28889,44,104,497,498,0.002509596,0.005818433,-0.01410237,-1.500325,-2.498734,-1.554346,-0.00156235,-0.01986468,0.006409689,-0.6617167,-2.608848,1.226702
0,2.300001,44,104,497,498,0.001422791,0.006872461,-0.01514717,-1.500199,-2.49851,-1.554113,0.002689071,-0.0230797,0.006404479,-0.6615117,-2.609427,1.226987
0,2.311112,44,104,497,498,-0.0006618083,0.01218632,-0.01190041,-1.500173,-2.498796,-1.55403,-0.0004946101,-0.02199513,0.00854362,-0.6612751,-2.609631,1.227242
0,2.322223,44,104,497,498,0.0003848486,0.01645322,-0.01825184,-1.50012,-2.498644,-1.554361,-0.0005020793,-0.02518682,0.01069181,-0.660873,-2.610125,1.227691
0,2.333334,44,104,497,498,-0.002791744,0.02179091,-0.01819184,-1.499947,-2.499044,-1.554213,0.0005597044,-0.02837912,0.01282953,-0.6605577,-2.610662,1.228068
0,2.344445,44,104,497,498,-0.002748171,0.0260414,-0.01390386,-1.49991,-2.499653,-1.554032,0.0005300092,-0.03372114,0.01178412,-0.6602435,-2.611648,1.228962
0,2.355556,44,104,497,498,-0.003837547,0.0292677,-0.01813591,-1.499607,-2.500067,-1.553945,-0.001628374,-0.03904725,0.009680694,-0.6600059,-2.612488,1.229704
0,2.366668,44,104,497,498,-0.005955873,0.02819545,-0.01813096,-1.4993,-2.500136,-1.554052,0.003655167,-0.04122429,0.005410288,-0.6597811,-2.613552,1.230652
0,2.377779,44,104,497,498,-0.007043601,0.02926131,-0.02022823,-1.499276,-2.50027,-1.553812,0.004700009,-0.04550578,0.002208217,-0.6598386,-2.614769,1.231427
0,2.38889,44,104,497,498,-0.007054419,0.0303457,-0.02235916,-1.498887,-2.500748,-1.553744,0.00681016,-0.04659399,-0.002057351,-0.6597726,-2.615656,1.232008
0,2.400001,44,104,497,498,-0.008115869,0.03034884,-0.02235166,-1.498586,-2.501159,-1.553752,0.005715743,-0.04873115,-0.000982237,-0.6594892,-2.61693,1.233269
0,2.411112,44,104,497,498,-0.009156912,0.0303451,-0.02020857,-1.498508,-2.501528,-1.553608,0.01212492,-0.045555,5.013729E-05,-0.6593092,-2.617498,1.233489
0,2.422223,44,104,497,498,-0.009154065,0.02929189,-0.01916032,-1.498189,-2.502115,-1.553442,0.01108099,-0.04237334,0.002160934,-0.659151,-2.618742,1.234365
0,2.433334,44,104,497,498,-0.008059442,0.03247062,-0.01701876,-1.498044,-2.502552,-1.553351,0.01214587,-0.0402542,1.872983E-05,-0.6590919,-2.619416,1.234739
0,2.444445,44,104,497,498,-0.009132455,0.03246731,-0.01806707,-1.49793,-2.502725,-1.553222,0.01106616,-0.03813963,-0.002119017,-0.6590381,-2.620377,1.235628
0,2.455556,44,104,497,498,-0.009118458,0.03138875,-0.01594315,-1.497812,-2.503051,-1.553083,0.01531865,-0.03603981,-0.006404096,-0.6590972,-2.621007,1.235858
0,2.466667,44,104,497,498,-0.008051367,0.03139534,-0.01595954,-1.497524,-2.50355,-1.553019,0.01423822,-0.03710361,-0.00427114,-0.6589566,-2.621968,1.236786
0,2.477778,44,104,497,498,-0.006989763,0.03352914,-0.01381507,-1.497575,-2.504277,-1.552501,0.01529837,-0.03922898,-0.002114295,-0.6584666,-2.62247,1.23709
0,2.488889,44,104,497,498,-0.004846313,0.03566583,-0.01384232,-1.497101,-2.50494,-1.552514,0.01744557,-0.04028328,0.003207707,-0.6581433,-2.623124,1.237354
0,2.5,44,104,497,498,-0.005872872,0.03668752,-0.01168121,-1.497249,-2.504891,-1.552648,0.01851466,-0.04665499,0.004286075,-0.6580096,-2.623684,1.237231
0,2.511111,44,104,497,498,-0.005812538,0.04199312,-0.007397052,-1.497148,-2.505601,-1.552613,0.01741741,-0.05198872,0.001113145,-0.657838,-2.624848,1.237967
0,2.522222,44,104,497,498,-0.002631471,0.0451844,-0.00847429,-1.496943,-2.506191,-1.55237,0.01952734,-0.05415066,-0.003154516,-0.6577907,-2.626123,1.238632
0,2.533333,44,104,497,498,-0.001515719,0.05155381,-0.004190702,-1.496901,-2.507053,-1.55218,0.02061567,-0.04457825,-0.006388158,-0.6578471,-2.626581,1.238724
0,2.544444,44,104,497,498,-0.0004571436,0.05262332,-0.005257895,-1.496817,-2.507685,-1.552132,0.02383825,-0.0435148,-0.005354273,-0.6579568,-2.627258,1.238625
0,2.555555,44,104,497,498,-0.0004272042,0.05362153,-0.005200852,-1.497454,-2.507321,-1.552523,0.01959681,-0.03817257,-0.005356501,-0.6579137,-2.62774,1.238924
0,2.566666,44,104,497,498,-0.001488615,0.05469057,-0.005185357,-1.497409,-2.507961,-1.55243,0.01746103,-0.03498014,-0.006417328,-0.6577704,-2.628421,1.239511
0,2.577777,44,104,497,498,0.0027457,0.05468105,-0.005244739,-1.497042,-2.508649,-1.552161,0.02070446,-0.02433167,-0.004336605,-0.6577592,-2.628396,1.239194
0,2.588888,44,104,497,498,0.0006087916,0.05042084,-0.004188232,-1.497043,-2.509114,-1.55208,0.01543389,-0.01364415,-9.245775E-05,-0.6577203,-2.628159,1.238966
0,2.599999,44,104,497,498,0.0006097646,0.04935178,-0.005256635,-1.496995,-2.509491,-1.552262,0.01545206,-0.01258361,0.002032444,-0.657576,-2.628658,1.239092
0,2.61111,44,104,497,498,0.00167628,0.04721078,-0.004213652,-1.496986,-2.509963,-1.552283,0.01650159,-0.0168487,0.002043257,-0.657454,-2.629077,1.239203
0,2.622221,44,104,497,498,0.001638409,0.04297489,-0.005307728,-1.49688,-2.510603,-1.552057,0.02073444,-0.01900542,-9.30205E-05,-0.657348,-2.62959,1.239438
0,2.633332,44,104,497,498,-0.0004946883,0.03977994,-0.00424463,-1.496866,-2.510962,-1.551974,0.02598867,-0.03183078,-0.006460817,-0.6573347,-2.630765,1.239954
0,2.644443,44,104,497,498,0.0005611607,0.03871683,-0.004278332,-1.49657,-2.511463,-1.551884,0.0280571,-0.03612722,-0.01391056,-0.6574993,-2.631747,1.240627
0,2.655554,44,104,497,498,-0.0005283942,0.03661468,-0.006430673,-1.496214,-2.511994,-1.551818,0.02804094,-0.03826523,-0.01603367,-0.6575579,-2.632641,1.241036
0,2.666665,44,104,497,498,-0.001557999,0.03659175,-0.002160754,-1.496321,-2.512398,-1.551718,0.02908877,-0.04040049,-0.01496537,-0.6575025,-2.633571,1.241672
0,2.677776,44,104,497,498,-0.001598284,0.03662943,-0.004308151,-1.495985,-2.513166,-1.551306,0.02590907,-0.03825058,-0.01282996,-0.6574636,-2.63418,1.241957
0,2.688887,44,104,497,498,-0.0005368586,0.03556038,-0.004323755,-1.495952,-2.513562,-1.5513,0.02060498,-0.02970079,-0.008578885,-0.6573874,-2.634499,1.242519
0,2.699998,44,104,497,498,-0.001583794,0.03769911,-0.002167751,-1.496045,-2.514295,-1.551117,0.01850819,-0.01799917,-0.01395025,-0.6578445,-2.634703,1.242354
0,2.711109,44,104,497,498,0.001624682,0.03874636,-0.001122772,-1.496071,-2.514755,-1.551185,0.01640076,-0.008414872,-0.01717154,-0.6581529,-2.634588,1.242159
0,2.72222,44,104,497,498,0.003730325,0.03875324,-0.003276012,-1.495911,-2.515202,-1.551133,0.01322693,-0.002010036,-0.01612721,-0.6584458,-2.634686,1.242236
0,2.733331,44,104,497,498,0.003718255,0.03342476,-0.002246264,-1.495883,-2.515495,-1.551118,0.00581056,0.002301095,-0.00972157,-0.6584548,-2.634459,1.242171
0,2.744442,44,104,497,498,0.0004935752,0.02811668,-0.003317934,-1.495838,-2.515677,-1.551021,0.0005092549,0.006586912,-0.004396013,-0.6584713,-2.634519,1.242502
0,2.755553,44,104,497,498,0.001579723,0.02489745,0.0009124636,-1.495928,-2.515989,-1.550992,0.0005178868,0.004471115,-0.0001274665,-0.6583585,-2.634455,1.242441
0,2.766664,44,104,497,498,0.0004690355,0.01639537,-0.001274854,-1.495684,-2.515988,-1.551034,0.0005140877,-0.006173804,0.002036593,-0.6582572,-2.634968,1.242383
0,2.777775,44,104,497,498,0.0004486812,0.01216092,-0.002353551,-1.495818,-2.516331,-1.551064,0.003681454,-0.01047255,-0.003296379,-0.6584713,-2.635587,1.242634
0,2.788886,44,104,497,498,-0.0006294501,0.0036292,-0.0002672822,-1.495863,-2.51616,-1.551052,0.003648351,-0.0105021,-0.01181864,-0.6587601,-2.635936,1.242875
0,2.799997,44,104,497,498,0.0003990104,-0.004886914,-0.0003332458,-1.495801,-2.516057,-1.551002,0.002583492,-0.008364919,-0.01181781,-0.6588011,-2.635921,1.242994
0,2.811108,44,104,497,498,-0.004946445,-0.01019435,-0.0003217827,-1.4958,-2.515776,-1.550826,-0.004841269,-0.002999614,-0.00861161,-0.6588538,-2.635737,1.243106
0,2.822219,44,104,497,498,-0.004950664,-0.01658259,0.001770379,-1.495865,-2.515685,-1.550806,-0.008002648,-0.002968101,-7.637532E-05,-0.6585795,-2.635906,1.243383
0,2.83333,44,104,497,498,-0.008195824,-0.02508004,0.0006818566,-1.495878,-2.515283,-1.550533,-0.01116973,-0.001868686,0.006323962,-0.658359,-2.635771,1.243484
0,2.844441,44,104,497,498,-0.008229594,-0.02611076,-0.003586148,-1.495688,-2.515074,-1.550545,-0.0122093,-0.0008000229,0.0063153,-0.6584458,-2.635826,1.243343
0,2.855552,44,104,497,498,-0.009311622,-0.03039841,-0.003585322,-1.495915,-2.514162,-1.550462,-0.01009528,-0.000822736,0.00204592,-0.6585315,-2.635869,1.243431
0,2.866663,44,104,497,498,-0.009298291,-0.03144507,-0.003584823,-1.495991,-2.514071,-1.550597,-0.009070549,-0.005111647,-0.002203011,-0.6585411,-2.63641,1.244054
0,2.877774,44,104,497,498,-0.01462119,-0.02929627,-0.003528173,-1.495927,-2.513794,-1.550253,-0.006969769,-0.009370676,-0.003249153,-0.6584203,-2.636348,1.2442
0,2.888885,44,104,497,498,-0.01462625,-0.02822433,-0.004586693,-1.495844,-2.513499,-1.550114,-0.004826813,-0.009367481,-6.154063E-05,-0.6583158,-2.636477,1.24429
0,2.899997,44,104,497,498,-0.01785598,-0.02931318,-0.00668684,-1.495852,-2.512444,-1.549736,-0.009096329,-0.01573709,0.006372911,-0.6578423,-2.637261,1.245267
0,2.911108,44,104,497,498,-0.01781513,-0.02293492,-0.004516486,-1.495851,-2.512361,-1.549549,-0.004843098,-0.0178835,0.00636394,-0.657698,-2.637601,1.245463
0,2.922219,44,104,497,498,-0.01569665,-0.01762056,-0.008755388,-1.495724,-2.511857,-1.54953,-0.006974883,-0.0115028,0.004221565,-0.657658,-2.637783,1.245988
0,2.93333,44,104,497,498,-0.01140245,-0.01231859,-0.005557465,-1.495803,-2.51199,-1.54931,-0.008067207,-0.01256851,0.002110929,-0.6574759,-2.637897,1.246405
0,2.944441,44,104,497,498,-0.01355024,-0.01229462,-0.007668908,-1.49567,-2.511896,-1.549118,-0.01021014,-0.01257184,-0.001076701,-0.6575153,-2.638161,1.246774
0,2.955552,44,104,497,498,-0.01034845,-0.01016439,-0.008759358,-1.495387,-2.51191,-1.549192,-0.01230461,-0.01150649,-0.001088956,-0.657666,-2.638621,1.246836
0,2.966663,44,104,497,498,-0.009255111,-0.004848485,-0.00766985,-1.495333,-2.511989,-1.549127,-0.01018625,-0.01258715,-0.003224004,-0.6577049,-2.638924,1.247134
0,2.977774,44,104,497,498,-0.006065742,-0.00164098,-0.008727666,-1.495413,-2.512262,-1.548973,-0.01338169,-0.01043976,-0.003216398,-0.6576911,-2.638881,1.247469
0,2.988885,44,104,497,498,-0.003935236,-0.001648545,-0.008745539,-1.495305,-2.51225,-1.548991,-0.0154918,-0.009351643,0.001049213,-0.6575536,-2.638954,1.24773
0,2.999996,44,104,497,498,-0.004994746,0.006865268,-0.01081296,-1.495155,-2.512177,-1.548805,-0.01122638,-0.01469674,0.002114011,-0.6574215,-2.639571,1.247933
0,3.011107,44,104,497,498,-0.002819674,0.006824349,-0.005504644,-1.495233,-2.512246,-1.548823,-0.01125062,-0.01790376,-0.001070624,-0.6574343,-2.640076,1.248462
0,3.022218,44,104,497,498,-0.002805194,0.01004829,-0.00655698,-1.495031,-2.512732,-1.548941,-0.009149952,-0.0221675,-0.001057444,-0.6572484,-2.640466,1.249031
0,3.033329,44,104,497,498,-0.002807668,0.0100207,-0.006537297,-1.495235,-2.51244,-1.548893,-0.005981531,-0.02324463,-0.003196568,-0.657282,-2.640802,1.249509
0,3.04444,44,104,497,498,-0.0006492735,0.01000845,-0.00441459,-1.495386,-2.512675,-1.549075,-0.005973615,-0.02111407,-0.003203986,-0.657266,-2.641089,1.249802
0,3.055551,44,104,497,498,-0.0006629426,0.01004187,-0.007614343,-1.495174,-2.512992,-1.549228,-0.00594358,-0.0168563,-0.005359983,-0.6575307,-2.641241,1.249666
0,3.066662,44,104,497,498,0.0004444019,0.01427915,-0.004400978,-1.495227,-2.513286,-1.549251,-0.006976631,-0.01151484,-0.00217852,-0.6574705,-2.641165,1.249724
0,3.077773,44,104,497,498,0.000481769,0.01426383,-0.0001479228,-1.495218,-2.513592,-1.549257,-0.006964094,-0.005118217,-0.001135805,-0.6574961,-2.641011,1.249914
0,3.088884,44,104,497,498,0.0004639513,0.01427718,-0.002278377,-1.495133,-2.513753,-1.549256,-0.008025946,-0.0008641398,-0.004342302,-0.6576527,-2.640941,1.249965
0,3.099995,44,104,497,498,-0.001665623,0.01321169,-0.0001416901,-1.495111,-2.513953,-1.548987,-0.006940472,0.0033883,-0.006484255,-0.6577203,-2.64071,1.249633
0,3.111106,44,104,497,498,-0.0006297278,0.01002544,-0.002301081,-1.495041,-2.513983,-1.549002,-0.005871405,0.0055112,-0.007561067,-0.6578562,-2.640603,1.249572
0,3.122217,44,104,497,498,-0.001684937,0.003627467,0.001934109,-1.495262,-2.514096,-1.548916,-0.002663488,0.001257843,-0.003291121,-0.657682,-2.640582,1.249319
0,3.133328,44,104,497,498,-0.000631192,0.000427876,0.001905256,-1.495284,-2.514009,-1.54894,-0.00162614,-0.005141523,-0.004338328,-0.6576847,-2.640977,1.24962
0,3.144439,44,104,497,498,-0.000643209,-0.007037332,0.005039446,-1.495211,-2.513907,-1.54876,0.0005145422,-0.008339899,-0.003275442,-0.6577262,-2.641269,1.249528
0,3.15555,44,104,497,498,-0.0006619109,-0.01341252,0.004997362,-1.495227,-2.513846,-1.548817,0.0005227607,-0.00621068,-0.005414817,-0.6578817,-2.64121,1.249358
0,3.166661,44,104,497,498,0.002524829,-0.02089408,0.007054603,-1.495366,-2.513416,-1.54896,0.0005220426,-0.001964303,-0.00969077,-0.6581199,-2.641216,1.24937
0,3.177772,44,104,497,498,0.00256403,-0.02097834,0.007082513,-1.495811,-2.511996,-1.549657,-0.002656355,0.006555841,-0.01077226,-0.6582716,-2.641079,1.249526
0,3.188883,44,104,497,498,0.002547151,-0.02523617,0.007055194,-1.495872,-2.511648,-1.54969,-0.0005094046,0.007624282,-0.007588388,-0.6583025,-2.640898,1.249341
0,3.199994,44,104,497,498,0.005737798,-0.02738818,0.01019974,-1.495925,-2.511439,-1.549494,-0.004739785,0.01085989,-0.005451916,-0.6584037,-2.640219,1.248819
0,3.211105,44,104,497,498,0.004668715,-0.02844966,0.01020205,-1.496027,-2.511078,-1.549539,-0.006857745,0.009817345,-0.00117882,-0.6583297,-2.640023,1.248805
0,3.222216,44,104,497,498,0.004677402,-0.03064548,0.01018986,-1.496093,-2.509743,-1.549923,-0.008981179,0.01410057,0.0009558366,-0.658237,-2.639323,1.248642
0,3.233327,44,104,497,498,0.005735001,-0.03277978,0.01016768,-1.496192,-2.509318,-1.550049,-0.009001706,0.01302051,-0.003301586,-0.6584405,-2.63921,1.24864
0,3.244438,44,104,497,498,0.007887777,-0.03062995,0.01015483,-1.496185,-2.50943,-1.550399,-0.007919438,0.01833544,-0.007575823,-0.658661,-2.638543,1.24797
0,3.255549,44,104,497,498,0.005768766,-0.02634497,0.009130595,-1.496214,-2.509401,-1.550475,-0.008978967,0.01515236,-0.006504403,-0.658849,-2.638398,1.247759
0,3.26666,44,104,497,498,0.006816844,-0.02419332,0.005936112,-1.496151,-2.509258,-1.550626,-0.005762764,0.01728206,-0.003328351,-0.6588959,-2.637984,1.247412
0,3.277771,44,104,497,498,0.003612733,-0.0199139,0.005970731,-1.495984,-2.509253,-1.550242,-0.00474612,0.005562397,-0.0022128,-0.6586189,-2.638293,1.247827
0,3.288882,44,104,497,498,0.004698618,-0.01138925,0.004949899,-1.496013,-2.509313,-1.550302,-0.0004889618,0.004481182,-0.002225586,-0.658653,-2.638278,1.247706
0,3.299993,44,104,497,498,0.005766701,-0.01251012,0.004948251,-1.496228,-2.508379,-1.550568,-0.002611575,0.009822356,-9.489898E-05,-0.6585411,-2.637758,1.247691
0,3.311104,44,104,497,498,0.001504461,-0.01035777,0.003932104,-1.496244,-2.508327,-1.550458,-0.00471816,0.01516044,0.0009600683,-0.658605,-2.637292,1.247429
0,3.322215,44,104,497,498,0.001476262,-0.01032804,0.00179152,-1.496072,-2.50843,-1.55033,-0.001545618,0.01088273,-0.0001068084,-0.6586924,-2.637346,1.247447
0,3.333326,44,104,497,498,0.005764122,-0.01043498,0.001790861,-1.496573,-2.506971,-1.551006,-0.003691892,0.005567949,0.0009851751,-0.6586136,-2.637448,1.247634
0,3.344437,44,104,497,498,0.003641938,-0.008275879,0.0007520318,-1.496506,-2.507131,-1.551109,-0.001555305,0.003410274,-0.002212394,-0.6586866,-2.637757,1.24745
0,3.355548,44,104,497,498,0.003671088,-0.005076935,0.001830347,-1.496451,-2.507295,-1.551259,0.005831538,0.001196764,-0.01821319,-0.6592693,-2.638139,1.247504
0,3.366659,44,104,497,498,0.003691495,-0.0018878,0.002915508,-1.496502,-2.507364,-1.551305,0.006888194,0.003308672,-0.02248582,-0.6596272,-2.638178,1.247435
0,3.37777,44,104,497,498,0.005794509,0.001331126,-0.0002756384,-1.496448,-2.507598,-1.551214,0.007989644,0.004372547,-0.01929677,-0.6596804,-2.638286,1.247133
0,3.388881,44,104,497,498,0.004724178,0.002406845,-0.0013253,-1.496416,-2.507656,-1.551226,0.000581563,0.009752577,-0.01182929,-0.6596724,-2.637867,1.246988
0,3.399992,44,104,497,498,0.003665187,0.001302207,0.0008138062,-1.49657,-2.507212,-1.551173,-0.002598497,0.0119322,-0.002237641,-0.6595452,-2.63738,1.247156
0,3.411103,44,104,497,498,0.006835459,-0.0008263191,-0.001356757,-1.496507,-2.507133,-1.551338,-0.0047047,0.01514706,0.0009553914,-0.6595201,-2.636955,1.246931
0,3.422215,44,104,497,498,0.007910895,-0.004051023,0.001797282,-1.496432,-2.506912,-1.551402,-0.003669823,0.0108705,-0.0001016705,-0.6595558,-2.637163,1.247258
0,3.433326,44,104,497,498,0.01005281,-0.008339675,0.00494856,-1.496563,-2.506698,-1.551588,0.0005378318,0.008683332,-0.01182886,-0.6599579,-2.637294,1.247257
0,3.444437,44,104,497,498,0.01003078,-0.01259664,0.002811527,-1.496814,-2.506299,-1.551872,-0.0026464,0.008698842,-0.01288282,-0.6602014,-2.637075,1.24696
0,3.455548,44,104,497,498,0.01005635,-0.01368316,0.005996514,-1.496919,-2.506111,-1.552032,-0.004785045,0.009790458,-0.01074883,-0.6603612,-2.636634,1.247018
0,3.466659,44,104,497,498,0.01003085,-0.01580036,0.003852732,-1.496907,-2.505873,-1.552179,-0.007944645,0.01620517,-0.007562818,-0.6604788,-2.636143,1.246795
0,3.47777,44,104,497,498,0.01107051,-0.02220317,0.00273952,-1.4969,-2.505277,-1.552458,-0.008937055,0.0183881,0.00414423,-0.6603814,-2.63545,1.246071
0,3.488881,44,104,497,498,0.01106542,-0.02113122,0.001680947,-1.496876,-2.50508,-1.552599,-0.009960935,0.0184289,0.01480119,-0.6600309,-2.634923,1.245795
0,3.499992,44,104,497,498,0.01001505,-0.02110909,0.002739978,-1.496719,-2.505208,-1.552759,-0.008887393,0.01630534,0.02013794,-0.6596048,-2.634714,1.245768
0,3.511103,44,104,497,498,0.009988282,-0.02108907,-0.0004558107,-1.496625,-2.504984,-1.552902,-0.006785126,0.01202515,0.01694869,-0.65951,-2.63463,1.245727
0,3.522214,44,104,497,498,0.01110709,-0.01904478,0.004903486,-1.497175,-2.504127,-1.55314,-0.006837306,0.004524386,0.003110447,-0.6600634,-2.635101,1.245744
0,3.533325,44,104,497,498,0.01006751,-0.01799843,0.007043982,-1.497223,-2.503813,-1.553311,-0.005817214,0.002356645,-0.006473816,-0.6603569,-2.635314,1.245918
0,3.544436,44,104,497,498,0.01115073,-0.01799746,0.008103353,-1.497368,-2.503763,-1.553584,-0.0004727724,0.00448763,-0.006506118,-0.6605843,-2.634718,1.245139
0,3.555547,44,104,497,498,0.01121921,-0.01810264,0.01025408,-1.497785,-2.502265,-1.55453,-0.0004605465,0.006640603,0.002015494,-0.6602461,-2.634467,1.245381
0,3.566658,44,104,497,498,0.01122811,-0.01810934,0.01131929,-1.497918,-2.502061,-1.554671,-0.004652833,0.01733505,0.009452228,-0.6601305,-2.633575,1.244826
0,3.577769,44,104,497,498,0.0123335,-0.01388123,0.01025164,-1.497697,-2.501528,-1.555378,-0.006787308,0.01733087,0.00414148,-0.6602317,-2.633162,1.244357
0,3.58888,44,104,497,498,0.01339876,-0.01388498,0.01024272,-1.4978,-2.50135,-1.555561,-0.003588442,0.02475385,-0.002288388,-0.6605566,-2.632566,1.243868
0,3.599991,44,104,497,498,0.01235113,-0.01179889,0.01135969,-1.498333,-2.500654,-1.555727,-0.00573901,0.02262484,-0.006554436,-0.6611137,-2.632335,1.243712
0,3.611102,44,104,497,498,0.01444853,-0.01605414,0.009184749,-1.498367,-2.50035,-1.55598,-0.006796809,0.02794427,-0.009764547,-0.6614653,-2.631724,1.243333
0,3.622213,44,104,497,498,0.01549137,-0.0160745,0.009185035,-1.498599,-2.499951,-1.555885,-0.003606325,0.03218025,-0.009770921,-0.6613513,-2.631195,1.243194
0,3.633324,44,104,497,498,0.01759834,-0.01824184,0.00918884,-1.49918,-2.499245,-1.555965,-0.004618683,0.03860159,-0.002331887,-0.6613764,-2.630174,1.242469
0,3.644435,44,104,497,498,0.01868212,-0.02678057,0.01338309,-1.499378,-2.498931,-1.556397,-0.006757056,0.03754229,-0.000187526,-0.6613519,-2.629793,1.242481
0,3.655546,44,104,497,498,0.01864505,-0.03103193,0.01336807,-1.499696,-2.498607,-1.556326,-0.009976941,0.03222417,-0.001221981,-0.6614525,-2.629483,1.242418
0,3.666657,44,104,497,498,0.02189242,-0.03320324,0.01968789,-1.499613,-2.498351,-1.556754,-0.00998803,0.02904552,-0.0001473189,-0.661591,-2.62881,1.242038
0,3.677768,44,104,497,498,0.02402033,-0.03428503,0.01860182,-1.499824,-2.497744,-1.557255,-0.01639966,0.03329773,-0.009721218,-0.662073,-2.628218,1.241855
0,3.688879,44,104,497,498,0.02724665,-0.03325111,0.02177734,-1.500149,-2.497404,-1.557646,-0.01960094,0.04179911,-0.01932572,-0.6627362,-2.627382,1.241467
0,3.69999,44,104,497,498,0.02401121,-0.0332276,0.01755847,-1.500419,-2.496821,-1.557779,-0.03234905,0.06311332,-0.03106746,-0.6637173,-2.625811,1.240888
0,3.711101,44,104,497,498,0.01534657,-0.04804447,0.006884653,-1.50021,-2.495897,-1.557778,-0.0526135,0.0854654,-0.05876327,-0.6654968,-2.6242,1.240702
0,3.722212,44,104,497,498,0.007564353,-0.08729164,-0.01887349,-1.49919,-2.493686,-1.558236,-0.06439634,0.09077756,-0.07578455,-0.667091,-2.623226,1.241207
0,3.733323,44,104,497,498,0.002017884,-0.121288,-0.03075895,-1.498488,-2.491409,-1.558267,-0.07301942,0.07160898,-0.08314255,-0.6682297,-2.623369,1.242367
0,3.744434,44,104,497,498,-0.002579486,-0.1840711,-0.04070555,-1.497735,-2.487586,-1.557974,-0.08367766,0.05465369,-0.06919753,-0.6686867,-2.623408,1.243467
0,3.755545,44,104,497,498,-0.003892947,-0.2469136,-0.04214075,-1.497364,-2.483108,-1.558026,-0.08785354,0.04944915,-0.04360394,-0.6686937,-2.622657,1.243973
0,3.766656,44,104,497,498,-0.00726847,-0.3044328,-0.04035855,-1.496709,-2.478435,-1.558336,-0.09733246,0.05062206,-0.02012849,-0.6685946,-2.621266,1.243893
0,3.777767,44,104,497,498,-0.01377859,-0.3534598,-0.0320837,-1.496577,-2.47337,-1.558187,-0.1068462,0.05389251,-0.005184545,-0.6684364,-2.620309,1.244538
0,3.788878,44,104,497,498,-0.02340023,-0.3758219,-0.02683455,-1.496098,-2.468822,-1.558022,-0.1207728,0.07617335,-0.04675372,-0.670405,-2.618941,1.245182
0,3.799989,44,104,497,498,-0.03952849,-0.4043978,-0.040739,-1.495161,-2.464301,-1.558487,-0.1401412,0.1100335,-0.134159,-0.6747992,-2.617881,1.246062
0,3.8111,44,104,497,498,-0.06026712,-0.4488134,-0.08132784,-1.493093,-2.458118,-1.557742,-0.1593566,0.1302439,-0.163982,-0.6779444,-2.616227,1.247073
0,3.822211,44,104,497,498,-0.08109897,-0.4878135,-0.1336302,-1.489852,-2.451986,-1.556647,-0.1815787,0.1761376,-0.1661754,-0.6804941,-2.612027,1.246613
0,3.833322,44,104,497,498,-0.1016705,-0.4960378,-0.1665312,-1.487136,-2.446549,-1.55516,-0.1856689,0.1848051,-0.1299599,-0.6815679,-2.608787,1.24621
0,3.844433,44,104,497,498,-0.1188525,-0.4904662,-0.1898164,-1.484253,-2.44187,-1.554357,-0.2143181,0.1478503,-0.06473802,-0.6808755,-2.607272,1.248142
0,3.855544,44,104,497,498,-0.1498558,-0.4678367,-0.2117935,-1.481172,-2.43743,-1.552233,-0.2460472,0.1025289,0.0388748,-0.6781633,-2.605493,1.250274
0,3.866655,44,104,497,498,-0.1679688,-0.4388983,-0.2263675,-1.478336,-2.433683,-1.550477,-0.2680554,0.08806697,0.1466063,-0.6742293,-2.602378,1.25136
0,3.877766,44,104,497,498,-0.2041253,-0.3661624,-0.2469307,-1.474757,-2.432256,-1.547083,-0.2785128,0.09890139,0.187087,-0.6721659,-2.598626,1.25173
0,3.888877,44,104,497,498,-0.267731,-0.2561508,-0.255305,-1.471558,-2.432378,-1.542458,-0.296504,0.1096914,0.2073611,-0.6699097,-2.594849,1.252553
0,3.899988,44,104,497,498,-0.2836469,-0.229422,-0.2571391,-1.468532,-2.430937,-1.538878,-0.2965395,0.1032886,0.2020539,-0.6684945,-2.592322,1.253677
0,3.911099,44,104,497,498,-0.3506492,-0.1469381,-0.2837664,-1.464609,-2.432322,-1.53365,-0.2946515,0.05847323,0.1830239,-0.6668769,-2.592539,1.257072
0,3.92221,44,104,497,498,-0.3944288,-0.1050776,-0.3108514,-1.460163,-2.431969,-1.52803,-0.2992561,-0.009771049,0.1641087,-0.6647932,-2.5953,1.262873
0,3.933321,44,104,497,498,-0.4158402,-0.08462677,-0.331849,-1.455906,-2.431799,-1.522877,-0.2995933,-0.07163754,0.1430287,-0.6628757,-2.598327,1.268904
0,3.944432,44,104,497,498,-0.4405342,-0.05227978,-0.3719467,-1.450498,-2.432783,-1.517773,-0.3051141,-0.10258,0.1229152,-0.6614797,-2.601003,1.274534
0,3.955544,44,104,497,498,-0.4609354,-0.02214128,-0.4035463,-1.44519,-2.4337,-1.512059,-0.3020709,-0.1144155,0.08884281,-0.6611276,-2.603036,1.279025
0,3.966655,44,104,497,498,-0.4867626,-0.01977735,-0.4374374,-1.439154,-2.433157,-1.506227,-0.3118784,-0.1156331,0.03348904,-0.6619937,-2.605668,1.284821
0,3.977766,44,104,497,498,-0.5116308,-0.05681304,-0.4608816,-1.433552,-2.432067,-1.499536,-0.3363034,-0.08680809,0.02283272,-0.6618861,-2.605852,1.28923
0,3.988877,44,104,497,498,-0.5561246,-0.1862661,-0.5082369,-1.426162,-2.427736,-1.493283,-0.3423457,-0.03020462,0.0578195,-0.6607516,-2.603288,1.291152
0,3.999988,44,104,497,498,-0.5756491,-0.2691799,-0.5171437,-1.419963,-2.423859,-1.487294,-0.3665591,-0.007536501,0.1153672,-0.658123,-2.601085,1.294272
0,4.011099,44,104,497,498,-0.6060964,-0.4063923,-0.5337573,-1.412939,-2.416134,-1.480888,-0.3952164,-0.01901519,0.1538692,-0.6553491,-2.600665,1.299103
1,4.02221,44,104,497,498,-0.6257882,-0.5286964,-0.5472049,-1.405622,-2.408438,-1.475014,-0.4228349,-0.06981212,0.2180605,-0.651031,-2.602294,1.305535
2,4.033321,44,104,497,498,-0.636789,-0.581799,-0.5666338,-1.398093,-2.401153,-1.468891,-0.4175748,-0.1176587,0.2480408,-0.6470725,-2.604512,1.311751
3,4.044433,44,104,497,498,-0.6542047,-0.62954,-0.5870271,-1.39033,-2.393861,-1.462189,-0.4154353,-0.1219064,0.2544385,-0.6437622,-2.605682,1.317248
4,4.055544,44,104,497,498,-0.681105,-0.6580909,-0.60188,-1.382526,-2.386791,-1.454892,-0.4238589,-0.08463454,0.2415713,-0.6415001,-2.604502,1.321169
5,4.066655,44,104,497,498,-0.7089452,-0.6675162,-0.6123286,-1.374779,-2.379973,-1.447503,-0.4554801,-0.005649447,0.2510185,-0.6391448,-2.599736,1.323315
6,4.077766,44,104,497,498,-0.7282352,-0.6672845,-0.6239709,-1.366156,-2.374108,-1.439838,-0.4923149,0.05009747,0.3085045,-0.6348571,-2.594295,1.325212
7,4.088878,44,104,497,498,-0.7475838,-0.6745453,-0.6409029,-1.357731,-2.367531,-1.432406,-0.501366,0.08032101,0.4160357,-0.628057,-2.588385,1.326257
8,4.099989,44,104,497,498,-0.7658434,-0.6614789,-0.6577573,-1.348831,-2.36236,-1.42423,-0.4851364,0.06244361,0.5033888,-0.6205655,-2.584973,1.328646
9,4.1111,44,104,497,498,-0.7627425,-0.6090683,-0.69153,-1.339514,-2.358222,-1.416818,-0.4724497,0.02621061,0.5141132,-0.6145564,-2.583593,1.332427
10,4.122211,44,104,497,498,-0.7520934,-0.531004,-0.7252277,-1.33017,-2.356504,-1.409392,-0.4484941,-0.07626444,0.4738671,-0.610086,-2.588048,1.34025
11,4.133323,44,104,497,498,-0.7455503,-0.4467472,-0.7417645,-1.321099,-2.355022,-1.401534,-0.4087079,-0.1683015,0.3898604,-0.6070793,-2.593952,1.348853
12,4.144434,44,104,497,498,-0.7400821,-0.4008295,-0.7489579,-1.312612,-2.353701,-1.394378,-0.3697356,-0.1953782,0.3024435,-0.6054196,-2.598602,1.355708
13,4.155545,44,104,497,498,-0.7366939,-0.3582582,-0.7444422,-1.304089,-2.352422,-1.386633,-0.3795074,-0.1827273,0.2481118,-0.6034696,-2.600317,1.361979
14,4.166656,44,104,497,498,-0.7406254,-0.279358,-0.7364038,-1.296381,-2.353581,-1.378049,-0.3839287,-0.2210716,0.2450613,-0.6002265,-2.605126,1.370356
15,4.177768,44,104,497,498,-0.752218,-0.2344613,-0.7403158,-1.287585,-2.354337,-1.369025,-0.3586462,-0.3838292,0.3392708,-0.5925821,-2.616865,1.383737
16,4.188879,44,104,497,498,-0.7968487,-0.1156589,-0.7870995,-1.278464,-2.358659,-1.358565,-0.303257,-0.487033,0.4406098,-0.5839002,-2.628528,1.395455
17,4.19999,44,104,497,498,-0.814966,-0.06643184,-0.8068244,-1.269567,-2.361286,-1.348342,-0.1782331,-0.4701452,0.5348634,-0.5751485,-2.634238,1.399416
18,4.211102,44,104,497,498,-0.8437864,-0.01605574,-0.8360753,-1.260019,-2.364876,-1.337118,-0.140553,-0.3457273,0.511925,-0.5700251,-2.633616,1.399462
19,4.222213,44,104,497,498,-0.8514414,-0.00946098,-0.8625908,-1.250194,-2.367246,-1.326915,-0.2038512,-0.08483121,0.4122073,-0.5697157,-2.621766,1.393817
20,4.233324,44,104,497,498,-0.8601993,-0.01992486,-0.886026,-1.239929,-2.369465,-1.316397,-0.2685865,0.03029627,0.3609285,-0.567902,-2.614193,1.392331
21,4.244435,44,104,497,498,-0.8648684,-0.06338268,-0.9128733,-1.229331,-2.370533,-1.306349,-0.2473682,0.04714888,0.3277827,-0.5648783,-2.612126,1.393318
22,4.255547,44,104,497,498,-0.8673445,-0.1047726,-0.9365749,-1.218075,-2.371276,-1.296401,-0.1892322,-0.05006513,0.3118992,-0.5612239,-2.617151,1.398173
23,4.266658,44,104,497,498,-0.8823741,-0.1377555,-0.9334342,-1.207937,-2.371998,-1.286008,-0.1683265,-0.1301276,0.2875926,-0.5581096,-2.622875,1.404317
24,4.277769,44,104,497,498,-0.8780894,-0.154846,-0.9250798,-1.197652,-2.373066,-1.27608,-0.1656291,-0.2229498,0.2516892,-0.5553202,-2.631273,1.413509
25,4.28888,44,104,497,498,-0.8695204,-0.1495731,-0.9219199,-1.187474,-2.374734,-1.266018,-0.1671572,-0.282814,0.1901127,-0.5541282,-2.640027,1.422824
26,4.299992,44,104,497,498,-0.8694789,-0.1304133,-0.9206866,-1.177662,-2.37722,-1.255334,-0.1596379,-0.2827859,0.2081937,-0.5508589,-2.644767,1.428658
27,4.311103,44,104,497,498,-0.8788768,-0.09954132,-0.9118777,-1.168144,-2.380283,-1.244131,-0.1371204,-0.2307202,0.1940804,-0.5489206,-2.646544,1.431108
28,4.322214,44,104,497,498,-0.9063463,-0.008767262,-0.9259453,-1.15887,-2.386493,-1.231017,-0.1251657,-0.1583609,0.1905863,-0.5469233,-2.646027,1.43204
29,4.333325,44,104,497,498,-0.9360702,0.1131031,-0.968568,-1.14911,-2.395391,-1.21638,-0.1247987,-0.05186227,0.1816882,-0.5454234,-2.641621,1.429803
30,4.344437,44,104,497,498,-0.9649506,0.1987777,-1.019934,-1.138935,-2.4046,-1.201262,-0.1334804,0.07011044,0.01938383,-0.5496168,-2.635701,1.426648
31,4.355548,44,104,497,498,-1.024868,0.3264104,-1.10807,-1.127778,-2.417934,-1.182633,-0.1677805,0.1762142,-0.1427897,-0.5558305,-2.629272,1.424065
32,4.366659,44,104,497,498,-1.112624,0.4435025,-1.204514,-1.116499,-2.4326,-1.161826,-0.1848269,0.2060014,-0.1737222,-0.5590231,-2.624302,1.422355
33,4.37777,44,104,497,498,-1.237817,0.5298718,-1.306206,-1.104323,-2.448132,-1.13816,-0.1909437,0.2253906,-0.115162,-0.5585442,-2.61932,1.420522
34,4.388882,44,104,497,498,-1.331908,0.5732446,-1.365846,-1.092421,-2.463919,-1.113649,-0.2149107,0.2196029,0.03409112,-0.5547535,-2.613677,1.418711
35,4.399993,44,104,497,498,-1.459078,0.6210774,-1.432621,-1.080581,-2.481045,-1.086399,-0.2581856,0.1373182,0.2230942,-0.5476887,-2.612697,1.421609
36,4.411104,44,104,497,498,-1.569049,0.6548162,-1.476212,-1.069052,-2.498877,-1.057473,-0.2836927,0.03767973,0.3407149,-0.5405546,-2.614909,1.427303
37,4.422215,44,104,497,498,-1.675733,0.6318761,-1.481807,-1.058257,-2.514649,-1.028833,-0.2946,-0.1482966,0.4628463,-0.5316005,-2.625604,1.440089
38,4.433327,44,104,497,498,-1.717421,0.6182566,-1.4922,-1.047416,-2.531272,-1.000375,-0.2994127,-0.35048,0.5210885,-0.5235775,-2.641395,1.457051
39,4.444438,44,104,497,498,-1.740995,0.5886217,-1.499665,-1.036619,-2.54756,-0.9726977,-0.3159419,-0.5080435,0.5344786,-0.5163614,-2.65924,1.476543
40,4.455549,44,104,497,498,-1.753106,0.5099376,-1.504257,-1.025393,-2.56228,-0.9454158,-0.3601702,-0.598589,0.4838176,-0.5117775,-2.675221,1.495591
41,4.46666,44,104,497,498,-1.772779,0.3896645,-1.509171,-1.012629,-2.575132,-0.9183959,-0.4062654,-0.6252196,0.4340122,-0.5077407,-2.690413,1.514515
42,4.477772,44,104,497,498,-1.79787,0.2578126,-1.526961,-0.9988548,-2.587726,-0.8912023,-0.4779631,-0.6570866,0.3843025,-0.5045316,-2.706544,1.535861
43,4.488883,44,104,497,498,-1.819888,0.1334467,-1.555323,-0.984055,-2.599973,-0.863571,-0.5194991,-0.6940745,0.4250664,-0.4986141,-2.724313,1.558338
44,4.499994,44,104,497,498,-1.822404,0.06120026,-1.568567,-0.9703936,-2.613551,-0.8357729,-0.5579016,-0.7034942,0.4305401,-0.4936403,-2.741276,1.580438
45,4.511106,44,104,497,498,-1.819761,-0.0259883,-1.594756,-0.9551464,-2.626372,-0.8082545,-0.5929251,-0.6936849,0.4562032,-0.4881036,-2.757307,1.602074
46,4.522217,44,104,497,498,-1.805195,-0.08128892,-1.60692,-0.940972,-2.640301,-0.7803882,-0.6574907,-0.6548158,0.5351212,-0.4804662,-2.771486,1.623748
47,4.533328,44,104,497,498,-1.798897,-0.1100901,-1.605041,-0.9273228,-2.654341,-0.7523744,-0.7061114,-0.5822381,0.5584821,-0.4737891,-2.784244,1.64421
48,4.544439,44,104,497,498,-1.789352,-0.1474401,-1.588265,-0.9143441,-2.668017,-0.724627,-0.7462101,-0.5021077,0.5828523,-0.4670673,-2.793214,1.661533
49,4.555551,44,104,497,498,-1.751784,-0.2150689,-1.529405,-0.9011812,-2.679891,-0.698757,-0.778813,-0.4240897,0.6242633,-0.4594416,-2.802182,1.679272
50,4.566662,44,104,497,498,-1.724923,-0.2142904,-1.502993,-0.8891571,-2.693947,-0.6713787,-0.7915226,-0.4133564,0.6338598,-0.4526655,-2.813949,1.699032
51,4.577773,44,104,497,498,-1.681973,-0.1858486,-1.480804,-0.8784405,-2.70918,-0.6444418,-0.780139,-0.4721422,0.600967,-0.4482116,-2.832191,1.723621
52,4.588884,44,104,497,498,-1.648671,-0.1723116,-1.454358,-0.8679982,-2.724358,-0.6171721,-0.746377,-0.5575047,0.5968773,-0.4431234,-2.854061,1.75082
53,4.599996,44,104,497,498,-1.596153,-0.1407962,-1.421462,-0.8591805,-2.739586,-0.5909693,-0.7145222,-0.5969998,0.6107456,-0.4375819,-2.874912,1.776832
54,4.611107,44,104,497,498,-1.54569,-0.1081502,-1.396151,-0.8506206,-2.755891,-0.5645486,-0.699682,-0.600309,0.5936585,-0.4330129,-2.893723,1.801164
55,4.622218,44,104,497,498,-1.500873,-0.08388112,-1.37695,-0.8431435,-2.772023,-0.5382462,-0.7200696,-0.6003222,0.5618015,-0.4293538,-2.911994,1.826808
56,4.633329,44,104,497,498,-1.4644,-0.07985994,-1.365681,-0.8345835,-2.78914,-0.511647,-0.7447934,-0.6259812,0.518346,-0.4269527,-2.933435,1.855316
57,4.644441,44,104,497,498,-1.422716,-0.07798888,-1.347866,-0.8270841,-2.80565,-0.4858453,-0.7596092,-0.6024789,0.5215162,-0.4231481,-2.951937,1.880986
58,4.655552,44,104,497,498,-1.388086,-0.09741368,-1.322197,-0.8181609,-2.823785,-0.4589655,-0.776457,-0.5491428,0.5224872,-0.4189253,-2.967444,1.904277
59,4.666663,44,104,497,498,-1.352721,-0.1020042,-1.294821,-0.8110912,-2.839967,-0.433756,-0.8028417,-0.4872395,0.5276989,-0.4145429,-2.981031,1.926394
60,4.677774,44,104,497,498,-1.319389,-0.1014556,-1.268525,-0.8039742,-2.855922,-0.4090967,-0.8091646,-0.4669386,0.5297565,-0.4109875,-2.996972,1.95002
61,4.688886,44,104,497,498,-1.292562,-0.09210247,-1.249504,-0.7980977,-2.872674,-0.3837988,-0.7738281,-0.4753954,0.587181,-0.4057241,-3.017278,1.976399
62,4.699997,44,104,497,498,-1.258103,-0.07541438,-1.213464,-0.7932273,-2.889024,-0.359319,-0.7323316,-0.5085071,0.6020679,-0.4019434,-3.039693,2.003893
63,4.711108,44,104,497,498,-1.225796,-0.07695531,-1.173291,-0.788048,-2.904606,-0.3354022,-0.6887581,-0.5491076,0.6148278,-0.3985857,-3.064353,2.03298
64,4.722219,44,104,497,498,-1.196756,-0.07729894,-1.139439,-0.7835089,-2.919909,-0.3121118,-0.6706865,-0.5609607,0.5967735,-0.3959023,-3.086758,2.060558
65,4.733331,44,104,497,498,-1.156982,-0.07350002,-1.094965,-0.7796724,-2.934276,-0.2901168,-0.6697831,-0.5600505,0.5530891,-0.3945761,-3.107063,2.086706
66,4.744442,44,104,497,498,-1.123595,-0.05896793,-1.057852,-0.7764792,-2.948922,-0.2680956,-0.6430762,-0.5080606,0.5197805,-0.3925537,-3.122603,2.107493
67,4.755553,44,104,497,498,-1.086909,-0.05203106,-1.014553,-0.7759013,-2.965699,-0.2461677,-0.6194118,-0.4749925,0.5451989,-0.3887858,-3.141469,2.131277
68,4.766665,44,104,497,498,-1.048248,-0.06637199,-0.9691589,-0.7725953,-2.978595,-0.2263037,-0.5711681,-0.4306355,0.570314,-0.3852737,3.120357,2.156131
69,4.777776,44,104,497,498,-1.020474,-0.07619706,-0.9437915,-0.7698005,-2.99186,-0.2058986,-0.5381683,-0.4095266,0.5445393,-0.3832656,3.103689,2.176702
70,4.788887,44,104,497,498,-0.9701614,-0.09052715,-0.9070193,-0.7666442,-3.004171,-0.1876959,-0.5146828,-0.3724257,0.5240532,-0.3809838,3.088304,2.196096
71,4.799998,44,104,497,498,-0.9168218,-0.1006249,-0.887229,-0.7633621,-3.016701,-0.1693398,-0.5040771,-0.371462,0.5069397,-0.3793625,3.071317,2.217
72,4.81111,44,104,497,498,-0.8805777,-0.1093504,-0.8801323,-0.7603767,-3.030007,-0.1509948,-0.5052379,-0.3588198,0.4695993,-0.3784501,3.056382,2.236516
73,4.822221,44,104,497,498,-0.8401276,-0.1533591,-0.8594614,-0.7562568,-3.042329,-0.1335724,-0.522195,-0.3204854,0.4514269,-0.3764746,3.043101,2.254934
74,4.833332,44,104,497,498,-0.8251802,-0.1803159,-0.842679,-0.7520266,-3.053849,-0.1163823,-0.5339192,-0.2854238,0.4193617,-0.3752341,3.031781,2.27169
75,4.844443,44,104,497,498,-0.8101598,-0.205097,-0.8142008,-0.7482764,-3.065505,-0.09899822,-0.5200378,-0.2323383,0.3786564,-0.3735531,3.024298,2.284036
76,4.855555,44,104,497,498,-0.7983836,-0.2191592,-0.7983798,-0.7446235,-3.077263,-0.08164613,-0.4891455,-0.2143775,0.3678094,-0.3721517,3.012926,2.299365
77,4.866666,44,104,497,498,-0.7758636,-0.20655,-0.786758,-0.7420366,-3.089417,-0.06470097,-0.4187666,-0.2644752,0.433762,-0.3700867,2.992084,2.321493
78,4.877777,44,104,497,498,-0.7522904,-0.2004022,-0.7794552,-0.7390059,-3.101508,-0.048167,-0.4136313,-0.3209874,0.4307261,-0.3703152,2.972102,2.344512
79,4.888888,44,104,497,498,-0.7319329,-0.1866875,-0.772069,-0.7370234,-3.113742,-0.03161492,-0.4201156,-0.3369743,0.4126549,-0.3705213,2.95818,2.361962
80,4.9,44,104,497,498,-0.7222667,-0.1898904,-0.7722189,-0.7344711,-3.126567,-0.0148631,-0.4320206,-0.3296912,0.3466127,-0.3714774,2.948375,2.375905
81,4.911111,44,104,497,498,-0.7105156,-0.1963219,-0.7638559,-0.7323751,-3.139127,0.002002697,-0.4062967,-0.3053011,0.3475891,-0.3705176,2.934117,2.392692
82,4.922222,44,104,497,498,-0.7052023,-0.2016772,-0.7628725,-0.7300864,3.13137,0.01915665,-0.3741091,-0.2765312,0.3718636,-0.3687583,2.921337,2.407391
83,4.933333,44,104,497,498,-0.6996323,-0.2079685,-0.7598159,-0.7281977,3.11993,0.03307113,-0.369741,-0.2636567,0.3931326,-0.3672062,2.906656,2.425304
84,4.944445,44,104,497,498,-0.6879847,-0.2207841,-0.7621334,-0.7257439,3.106937,0.05009406,-0.3696501,-0.2869188,0.4336697,-0.3661873,2.88875,2.445875
85,4.955556,44,104,497,498,-0.667845,-0.2346763,-0.7677233,-0.7232613,3.093508,0.06708982,-0.3386476,-0.2902889,0.4368286,-0.3656786,2.869456,2.466207
86,4.966667,44,104,497,498,-0.6519336,-0.2517965,-0.7669081,-0.7206706,3.08038,0.08378891,-0.336459,-0.2434591,0.4078854,-0.3642704,2.861034,2.477424
87,4.977778,44,104,497,498,-0.632903,-0.2697834,-0.7703704,-0.7189896,3.067017,0.1001066,-0.3234884,-0.1784441,0.4012433,-0.3614703,2.85255,2.488844
88,4.98889,44,104,497,498,-0.6191171,-0.282616,-0.7716419,-0.7164473,3.053463,0.1168345,-0.3234135,-0.1507645,0.3958242,-0.3596349,2.841418,2.502836
89,5.000001,44,104,497,498,-0.594528,-0.2934726,-0.758086,-0.7140228,3.040454,0.1326568,-0.2826832,-0.114657,0.4125942,-0.3572482,2.829061,2.516009
90,5.011112,44,104,497,498,-0.5828143,-0.2967465,-0.7549836,-0.7117767,3.027359,0.1488185,-0.2612556,-0.1083209,0.4263774,-0.3550974,2.814075,2.532124
91,5.022223,44,104,497,498,-0.5645454,-0.2958729,-0.7348549,-0.7099929,3.015294,0.1638286,-0.2228398,-0.1274911,0.4539405,-0.3533514,2.799703,2.546789
91,5.033335,44,104,497,498,-0.5420623,-0.293929,-0.7222394,-0.7081393,3.002819,0.1787471,-0.2110449,-0.1424105,0.4731537,-0.3517184,2.781345,2.565688
91,5.044446,44,104,497,498,-0.5228551,-0.3025912,-0.7160804,-0.7058932,2.98974,0.1940118,-0.1886895,-0.1765204,0.5050911,-0.3511953,2.761481,2.585976
91,5.055557,44,104,497,498,-0.5037327,-0.3111956,-0.7152138,-0.7039267,2.97668,0.2093399,-0.1973097,-0.211661,0.4881915,-0.3510488,2.746081,2.602152
91,5.066669,44,104,497,498,-0.4941194,-0.3112589,-0.7120966,-0.7022308,2.963703,0.2244912,-0.1823427,-0.2074187,0.4977048,-0.3500651,2.728378,2.620472
91,5.07778,44,104,497,498,-0.4759257,-0.2953969,-0.7078652,-0.7011437,2.950649,0.2395513,-0.1824505,-0.1692056,0.4400378,-0.3487894,2.719956,2.63031
91,5.088891,44,104,497,498,-0.4694809,-0.2869169,-0.705725,-0.7001776,2.937769,0.2544629,-0.1675116,-0.1278048,0.411078,-0.3472123,2.709766,2.641363
91,5.100002,44,104,497,498,-0.4638593,-0.2668961,-0.687577,-0.6993371,2.924974,0.2693212,-0.1664752,-0.05770029,0.336266,-0.3450157,2.708272,2.644334
91,5.111114,44,104,497,498,-0.4574324,-0.2573705,-0.67466,-0.6995842,2.91497,0.2823995,-0.1238098,-0.007925764,0.3007938,-0.3428809,2.702517,2.649797
91,5.122225,44,104,497,498,-0.4413215,-0.2394332,-0.6554408,-0.6996263,2.904098,0.2958202,-0.1305384,-0.0358029,0.2358891,-0.3434615,2.699946,2.653495
91,5.133336,44,104,497,498,-0.4207674,-0.2109133,-0.6351888,-0.699711,2.893015,0.3082806,-0.1019582,-0.08390157,0.2199951,-0.3442295,2.689604,2.663344
91,5.144447,44,104,497,498,-0.4045343,-0.1780582,-0.6212331,-0.7006356,2.882736,0.3202214,-0.08933719,-0.1032098,0.1901524,-0.344971,2.684878,2.66805
91,5.155559,44,104,497,498,-0.4033578,-0.1600628,-0.6200809,-0.7009184,2.871002,0.3338765,-0.09700018,-0.1075928,0.1316416,-0.3454296,2.683964,2.66978
91,5.16667,44,104,497,498,-0.4011569,-0.1558569,-0.6136764,-0.701629,2.860467,0.346319,-0.136294,-0.1020515,0.1562916,-0.3452426,2.676389,2.679434
91,5.177781,44,104,497,498,-0.403328,-0.1558719,-0.6114749,-0.7024572,2.850465,0.3589534,-0.1011154,-0.09687793,0.1529414,-0.3454663,2.669827,2.685536
91,5.188892,44,104,497,498,-0.3989616,-0.1623963,-0.5955777,-0.702789,2.840511,0.3708529,-0.07224688,-0.1032739,0.1836951,-0.3457539,2.661673,2.69306
91,5.200004,44,104,497,498,-0.3924347,-0.1668644,-0.5818364,-0.7024045,2.829954,0.382969,-0.04764326,-0.1149759,0.2123839,-0.345788,2.651511,2.702269
91,5.211115,44,104,497,498,-0.3740237,-0.155449,-0.5542164,-0.7028492,2.821035,0.3932503,-0.03381688,-0.1352322,0.2209027,-0.3466381,2.642709,2.710563
91,5.222226,44,104,497,498,-0.3502446,-0.1237706,-0.5286165,-0.7043688,2.813265,0.4024316,0.02588846,-0.1300813,0.2280885,-0.3466482,2.633656,2.717093
91,5.233337,44,104,497,498,-0.3211311,-0.102902,-0.4989102,-0.705049,2.80487,0.4119101,0.007639989,-0.1259058,0.1887446,-0.3475335,2.629074,2.721682
91,5.244449,44,104,497,498,-0.3026812,-0.09257966,-0.462766,-0.7060716,2.79836,0.4197736,0.01305676,-0.1173577,0.2046376,-0.347616,2.621755,2.72837
91,5.25556,44,104,497,498,-0.2886524,-0.1067355,-0.4363562,-0.7058975,2.790993,0.4282869,0.03777509,-0.1130385,0.2492737,-0.3470168,2.608788,2.73928
91,5.266671,44,104,497,498,-0.2681601,-0.1326907,-0.3930266,-0.7052652,2.78512,0.4352005,0.02075904,-0.1469657,0.2867199,-0.3479691,2.594879,2.75275
91,5.277782,44,104,497,498,-0.246754,-0.1532156,-0.3677379,-0.704527,2.779521,0.441951,0.02504014,-0.1501655,0.2888385,-0.3483532,2.58473,2.761722
91,5.288894,44,104,497,498,-0.2019074,-0.1888881,-0.335324,-0.702193,2.772479,0.4489589,0.05683465,-0.1142829,0.2172407,-0.3483852,2.581345,2.763236
91,5.300005,44,104,497,498,-0.1740175,-0.2084017,-0.3026617,-0.7008119,2.767049,0.4543526,0.07594764,-0.07506254,0.1701461,-0.3478024,2.580599,2.762627
91,5.311116,44,104,497,498,-0.1568539,-0.2150354,-0.2847267,-0.6993418,2.761247,0.4603607,0.0782145,-0.01015131,0.149707,-0.3458626,2.578494,2.763678
91,5.322227,44,104,497,498,-0.1289072,-0.2271122,-0.2488169,-0.69759,2.756741,0.4645368,0.04308929,-0.01640794,0.1562553,-0.3456698,2.572937,2.769017
91,5.333339,44,104,497,498,-0.09125596,-0.231874,-0.2054943,-0.6951846,2.752259,0.4679427,0.03893623,-0.02695593,0.1882733,-0.3453353,2.56357,2.777416
91,5.34445,44,104,497,498,-0.06542455,-0.2247149,-0.1768923,-0.6936725,2.748942,0.4705276,0.0486538,-0.04395121,0.2276501,-0.3453955,2.55413,2.785054
91,5.355561,44,104,497,498,-0.02546749,-0.2050061,-0.1227432,-0.6920815,2.747858,0.4704884,0.05921288,-0.06104226,0.2212616,-0.3454834,2.547516,2.790479
91,5.366673,44,104,497,498,0.007019311,-0.1777844,-0.071686,-0.6906791,2.747748,0.4696338,0.107225,-0.0345794,0.2177777,-0.3444458,2.541211,2.793992
91,5.377784,44,104,497,498,0.03747366,-0.1441598,-0.01630024,-0.6898178,2.749139,0.466956,0.1198083,-0.06029136,0.1879796,-0.3453103,2.535958,2.797181
91,5.388895,44,104,497,498,0.06035279,-0.1168792,0.0327072,-0.6886759,2.750998,0.4643437,0.1409695,-0.06259163,0.1559364,-0.3457401,2.532929,2.797847
91,5.400006,44,104,497,498,0.08631323,-0.09272817,0.06888308,-0.6875531,2.753037,0.4611844,0.1334751,-0.04557738,0.1314071,-0.3451878,2.530745,2.798545
91,5.411118,44,104,497,498,0.1003782,-0.08009095,0.08484205,-0.6865794,2.754359,0.4582592,0.1174473,-0.03386953,0.1111987,-0.3450237,2.52884,2.799505
91,5.422229,44,104,497,498,0.1209582,-0.04304784,0.1083672,-0.6862258,2.757283,0.4541041,0.1183161,-0.01701285,0.05148027,-0.3451137,2.532254,2.794976
91,5.43334,44,104,497,498,0.1426379,0.001447549,0.1330037,-0.6863925,2.761115,0.449107,0.120395,-6.563962E-05,0.02480838,-0.3447803,2.532665,2.793071
91,5.444451,44,104,497,498,0.1569498,0.05232401,0.1641375,-0.6869773,2.766104,0.4430754,0.1257544,0.04776981,0.0001273118,-0.3435909,2.536291,2.788431
91,5.455563,44,104,497,498,0.1592992,0.07992586,0.17816,-0.6875531,2.770562,0.4379315,0.1245907,0.03280996,-0.015797,-0.3437928,2.537416,2.785745
91,5.466674,44,104,497,498,0.1638882,0.111698,0.2028448,-0.6882135,2.776124,0.4316851,0.1276832,0.01147017,-0.02320072,-0.3443824,2.538242,2.783473
91,5.477785,44,104,497,498,0.1727049,0.1456641,0.2211305,-0.6895909,2.782104,0.4246629,0.1264087,-0.0258819,-0.04331809,-0.3459233,2.53951,2.78089
91,5.488896,44,104,497,498,0.1783193,0.1785289,0.240484,-0.6907744,2.788288,0.4177797,0.1295934,-0.03333965,-0.04011263,-0.3465918,2.539896,2.779011
91,5.500008,44,104,497,498,0.1892436,0.2135495,0.2555629,-0.6924645,2.795103,0.4100054,0.1198998,-0.03233208,-0.06670789,-0.3474775,2.543431,2.774534
91,5.511119,44,104,497,498,0.1926199,0.2347856,0.2652655,-0.6945998,2.801541,0.4026732,0.1027653,-0.02171797,-0.09540985,-0.3480565,2.547707,2.76988
91,5.52223,44,104,497,498,0.2034067,0.2624446,0.2664475,-0.696806,2.808228,0.39473,0.09946942,-0.02816021,-0.1134921,-0.3491404,2.551911,2.764864
91,5.533341,44,104,497,498,0.2098583,0.2858809,0.2633517,-0.6992545,2.814322,0.3875786,0.09829983,-0.04524377,-0.1251466,-0.3507484,2.555066,2.76077
91,5.544453,44,104,497,498,0.2141849,0.2986319,0.2644646,-0.7013259,2.820517,0.3803132,0.1003761,-0.04739793,-0.1358202,-0.3517498,2.560242,2.754727
91,5.555564,44,104,497,498,0.2109718,0.3007973,0.2613097,-0.7034383,2.826531,0.3734673,0.09507973,-0.03884605,-0.1326188,-0.3523096,2.563464,2.751004
91,5.566675,44,104,497,498,0.2099302,0.2997193,0.2645045,-0.7053819,2.832719,0.36641,0.1014688,-0.0601234,-0.1166002,-0.3538228,2.564504,2.74876
91,5.577786,44,104,497,498,0.2056066,0.2933718,0.2602331,-0.7072493,2.838426,0.3599169,0.1143459,-0.05692643,-0.1017754,-0.3547527,2.566721,2.744745
91,5.588898,44,104,497,498,0.2044856,0.2859413,0.2569946,-0.7090698,2.844018,0.3534254,0.1122843,-0.03242762,-0.1050391,-0.3549567,2.570302,2.740177
91,5.600009,44,104,497,498,0.1969706,0.2774717,0.2537987,-0.7109671,2.849334,0.3473657,0.1005366,-0.02601378,-0.1156614,-0.3554984,2.574836,2.735302
91,5.61112,44,104,497,498,0.1883238,0.2658542,0.2441998,-0.71263,2.854249,0.3417853,0.1048262,-0.03132116,-0.1050103,-0.3563017,2.576575,2.732394
91,5.622231,44,104,497,498,0.1817796,0.2499736,0.2334881,-0.7141085,2.85879,0.3364995,0.1069795,-0.03556499,-0.09754702,-0.357148,2.578151,2.729556
91,5.633343,44,104,497,498,0.1730513,0.2266677,0.2195474,-0.715242,2.862758,0.331799,0.1005596,-0.03767887,-0.1006943,-0.3578777,2.580511,2.726529
91,5.644454,44,104,497,498,0.1632327,0.1969765,0.2055713,-0.7160372,2.866395,0.3274391,0.09733722,-0.03874102,-0.1017564,-0.3589552,2.583397,2.72307
91,5.655565,44,104,497,498,0.1502568,0.1736926,0.19595,-0.7171317,2.870549,0.3232188,0.09210924,-0.01844212,-0.09328143,-0.3588578,2.586259,2.719622
91,5.666677,44,104,497,498,0.1350047,0.1238027,0.1786807,-0.7166833,2.872759,0.3204369,0.07836467,0.003996328,-0.08690013,-0.3586213,2.589122,2.716426
91,5.677788,44,104,497,498,0.1316986,0.09608854,0.1709838,-0.7157613,2.873339,0.3177604,0.07091598,0.01253975,-0.09009212,-0.3587635,2.592522,2.712757
91,5.688899,44,104,497,498,0.1174723,0.04088672,0.1526105,-0.7144893,2.874724,0.3158078,0.06243053,0.01790874,-0.08581068,-0.3587709,2.595126,2.709864
91,5.70001,44,104,497,498,0.1152202,0.01962137,0.1492908,-0.71388,2.877089,0.3129257,0.06037436,0.02223815,-0.07088946,-0.3583715,2.596353,2.708161
91,5.711122,44,104,497,498,0.1065717,0.003732704,0.1417776,-0.7132025,2.8786,0.310842,0.06039387,0.01057434,-0.05485968,-0.3584519,2.596234,2.707791
91,5.722233,44,104,497,498,0.1032763,-0.0004126271,0.1290066,-0.7129629,2.880562,0.3079624,0.0635601,-0.005392089,-0.0473607,-0.3589888,2.596459,2.706891
91,5.733344,44,104,497,498,0.09571937,-0.004546221,0.1183743,-0.7129613,2.882007,0.3060089,0.06244006,-0.01286444,-0.05370843,-0.3594895,2.597555,2.705239
91,5.744455,44,104,497,498,0.09240828,0.001973858,0.1014034,-0.7128505,2.883184,0.3042068,0.05693713,-0.04590847,-0.06637938,-0.361221,2.599495,2.703071
91,5.755567,44,104,497,498,0.08923311,0.01479106,0.09725218,-0.7129388,2.884696,0.3021005,0.05242158,-0.09386601,-0.08111484,-0.3635785,2.600087,2.702415
91,5.766678,44,104,497,498,0.09043962,0.05104712,0.0932467,-0.7141991,2.887113,0.2987715,0.05452821,-0.09814131,-0.08324099,-0.3650949,2.601109,2.700788
91,5.777789,44,104,497,498,0.09156674,0.07664896,0.08915733,-0.7155482,2.889203,0.2962367,0.05670669,-0.05667097,-0.1068129,-0.3651167,2.606378,2.695045
91,5.7889,44,104,497,498,0.09054068,0.1043989,0.08190409,-0.7171232,2.891123,0.2939706,0.05352975,-0.009885766,-0.1378388,-0.3650219,2.613714,2.687782
91,5.800012,44,104,497,498,0.09576245,0.1205868,0.07462505,-0.7205837,2.896054,0.2905138,0.04176957,0.0007594004,-0.1569991,-0.3656366,2.619839,2.681821
91,5.811123,44,104,497,498,0.1085526,0.1354844,0.0650399,-0.7218695,2.897455,0.2876451,0.02897173,-0.006630633,-0.1526386,-0.3663183,2.622893,2.679112
91,5.822234,44,104,497,498,0.1128189,0.1483009,0.05870798,-0.7236784,2.89913,0.2849604,0.02790584,-0.02787559,-0.1365851,-0.3674939,2.624665,2.677084
91,5.833345,44,104,497,498,0.1246779,0.1866258,0.05673457,-0.7266978,2.901022,0.2817896,0.02582159,-0.03103666,-0.1248415,-0.3684377,2.626485,2.675039
91,5.844457,44,104,497,498,0.125829,0.2079431,0.05581997,-0.729279,2.903321,0.2785384,0.01958465,0.005242757,-0.114282,-0.367962,2.630273,2.671674
91,5.855568,44,104,497,498,0.1247666,0.2154332,0.05268494,-0.7317078,2.905154,0.2758436,0.01224466,0.04573486,-0.1164982,-0.3672169,2.635068,2.667433
91,5.866679,44,104,497,498,0.1225214,0.204864,0.04305139,-0.7335666,2.906487,0.2734619,0.0005097054,0.05322381,-0.122879,-0.3672329,2.640608,2.662732
91,5.87779,44,104,497,498,0.1245177,0.1964715,0.0398411,-0.7366298,2.909663,0.2706299,-0.004832223,0.04474546,-0.1185787,-0.3675556,2.644464,2.659381
91,5.888902,44,104,497,498,0.1329627,0.1879534,0.0343862,-0.7383375,2.910717,0.2681281,-0.01445753,0.02456167,-0.1110056,-0.3682081,2.646248,2.658138
91,5.900013,44,104,497,498,0.1393708,0.1953875,0.03012254,-0.7402895,2.911792,0.2653691,-0.02205503,-0.007384501,-0.1172689,-0.3696223,2.649176,2.655883
91,5.911124,44,104,497,498,0.1426664,0.2080977,0.03444244,-0.7423401,2.913329,0.2624063,-0.03070066,-0.01486797,-0.137436,-0.3706774,2.653513,2.652522
91,5.922235,44,104,497,498,0.1469382,0.2123389,0.03121755,-0.7443828,2.914058,0.2598777,-0.03501193,0.01487528,-0.1673397,-0.3711099,2.660895,2.646439
91,5.933347,44,104,497,498,0.1437426,0.2059374,0.03439445,-0.7463146,2.915533,0.2572731,-0.03285575,0.02977432,-0.1716525,-0.3712915,2.666646,2.641495
91,5.944458,44,104,497,498,0.1415311,0.1921082,0.03541463,-0.7479823,2.917473,0.2547607,-0.03709847,0.03087507,-0.1652444,-0.371724,2.670925,2.638205
91,5.955569,44,104,497,498,0.1456875,0.1847288,0.03431413,-0.7505832,2.920072,0.2519193,-0.03616057,-0.01491921,-0.1576524,-0.3738705,2.673016,2.636687
91,5.966681,44,104,497,498,0.1488987,0.1836045,0.03749075,-0.7521534,2.921649,0.2491606,-0.03621431,-0.03727285,-0.1522529,-0.375535,2.675317,2.634956
91,5.977792,44,104,497,498,0.1531146,0.181457,0.03851628,-0.7541183,2.923235,0.2468958,-0.02873433,-0.02136819,-0.1629905,-0.3764953,2.680386,2.630081
91,5.988903,44,104,497,498,0.1572524,0.1698353,0.03521579,-0.7567532,2.924841,0.2445117,-0.03399164,0.006311968,-0.1705063,-0.3769145,2.685877,2.625424
91,6.000014,44,104,497,498,0.1613899,0.1538931,0.02761078,-0.7579841,2.925435,0.2421857,-0.05627673,0.03409563,-0.1705049,-0.3768597,2.69211,2.62099
91,6.011126,44,104,497,498,0.1634338,0.1443121,0.02542753,-0.7592342,2.92688,0.239742,-0.0700961,0.03735896,-0.1651136,-0.3771153,2.696319,2.618301
91,6.022237,44,104,497,498,0.1559426,0.1422336,0.02227721,-0.7606904,2.927635,0.2376557,-0.06897415,0.0108485,-0.1309457,-0.3777934,2.697269,2.618137
91,6.033348,44,104,497,498,0.1432111,0.1465139,0.02667259,-0.7623016,2.9288,0.2355252,-0.06683246,-0.002961248,-0.1181145,-0.3784229,2.69906,2.617077
