ref,t,emg1,emg2,emg1raw,emg2raw,aDotS,bDotS,gDotS,aS,bS,gS,aDotSH,bDotSH,gDotSH,aSH,bSH,gSH
0,0,44,104,497,498,0.191821,0.3078253,0.332753,-1.409665,-2.661183,-1.47749,0.3558087,0.1432524,-0.3321815,-0.5929587,-2.792562,1.293075
0,0.01111111,44,104,497,498,0.1971374,0.306751,0.3326831,-1.413486,-2.664311,-1.479211,0.3314629,0.1360295,-0.3042816,-0.5958791,-2.790896,1.288669
0,0.02222222,44,104,497,498,0.2003817,0.3045627,0.3390311,-1.417657,-2.667326,-1.481091,0.3208469,0.1201425,-0.2902988,-0.5988357,-2.790761,1.285306
0,0.03333334,44,104,497,498,0.2035667,0.2992082,0.3421574,-1.421772,-2.670224,-1.482763,0.3219953,0.09784999,-0.2667453,-0.600799,-2.790936,1.281847
0,0.04444445,44,104,497,498,0.2035362,0.2928216,0.3410483,-1.425753,-2.672962,-1.484614,0.3241712,0.07660177,-0.2485729,-0.6030052,-2.791698,1.278841
0,0.05555556,44,104,497,498,0.1959987,0.2811454,0.3399635,-1.429817,-2.675403,-1.485925,0.3189151,0.07774109,-0.2378665,-0.6053152,-2.790986,1.274959
0,0.06666667,44,104,497,498,0.1937277,0.2673521,0.3303141,-1.433519,-2.677691,-1.487534,0.3082773,0.09375995,-0.2442092,-0.6082602,-2.78965,1.270777
0,0.07777778,44,104,497,498,0.1914673,0.2535913,0.3206382,-1.436985,-2.679843,-1.489283,0.3040294,0.09909919,-0.2452637,-0.611237,-2.788997,1.266979
0,0.08888889,44,104,497,498,0.186976,0.2185374,0.3076437,-1.44014,-2.68097,-1.491036,0.2964145,0.09053895,-0.2622201,-0.6145564,-2.789597,1.26441
0,0.1,44,104,497,498,0.1845519,0.1845822,0.2871478,-1.442335,-2.681719,-1.492761,0.287806,0.07989639,-0.2685131,-0.6177261,-2.790223,1.261979
0,0.1111111,44,104,497,498,0.1789102,0.1528045,0.2635435,-1.44497,-2.682317,-1.494419,0.2696576,0.06933063,-0.2662055,-0.6204356,-2.790788,1.260141
0,0.1222222,44,104,497,498,0.1713358,0.1443851,0.2528846,-1.447544,-2.683558,-1.495949,0.2579389,0.05555409,-0.2586163,-0.6231238,-2.791773,1.258383
0,0.1333333,44,104,497,498,0.1605171,0.1413564,0.2348303,-1.449755,-2.684864,-1.497185,0.251615,0.0439342,-0.2403895,-0.6248847,-2.792236,1.256314
0,0.1444445,44,104,497,498,0.1508262,0.142554,0.2210647,-1.451943,-2.686382,-1.498504,0.2369249,0.03028411,-0.2008203,-0.6259387,-2.792927,1.25465
0,0.1555556,44,104,497,498,0.1411244,0.1437352,0.209442,-1.454221,-2.687821,-1.499398,0.2298021,0.03048432,-0.1528137,-0.6263025,-2.7925,1.251971
0,0.1666667,44,104,497,498,0.132472,0.1460182,0.1924814,-1.456007,-2.689412,-1.500471,0.2151565,0.03173751,-0.1154175,-0.6266061,-2.792034,1.249546
0,0.1777778,44,104,497,498,0.1205859,0.1429584,0.1755066,-1.457576,-2.690406,-1.501166,0.2035177,0.02436346,-0.09719551,-0.627159,-2.79266,1.248354
0,0.1888889,44,104,497,498,0.1172058,0.1356314,0.156308,-1.458894,-2.691452,-1.502262,0.1939331,0.01800832,-0.09069885,-0.627813,-2.793327,1.247192
0,0.2,44,104,497,498,0.1107459,0.1335748,0.1488913,-1.460507,-2.692766,-1.503164,0.1949403,0.01265842,-0.09601322,-0.6289529,-2.793969,1.245509
0,0.2111111,44,104,497,498,0.102048,0.1241364,0.1307883,-1.461631,-2.693727,-1.50406,0.1863222,-0.002218753,-0.1012278,-0.6301242,-2.794966,1.244433
0,0.2222222,44,104,497,498,0.09347102,0.1252877,0.123402,-1.462861,-2.69508,-1.504744,0.1788117,-0.01603833,-0.1011255,-0.6310115,-2.796454,1.243859
0,0.2333333,44,104,497,498,0.08485933,0.1179281,0.1148849,-1.463884,-2.696231,-1.505427,0.1724709,-0.01386312,-0.09362741,-0.6316826,-2.797133,1.242796
0,0.2444444,44,104,497,498,0.07727216,0.1095259,0.1020997,-1.464733,-2.697217,-1.506035,0.1673111,-0.007378131,-0.07337325,-0.6319564,-2.797074,1.241036
0,0.2555556,44,104,497,498,0.07078707,0.102137,0.09463628,-1.465563,-2.698021,-1.506492,0.1558044,-0.0008452684,-0.04668286,-0.6318238,-2.796637,1.239264
0,0.2666667,44,104,497,498,0.06529813,0.08734187,0.0807233,-1.466121,-2.69858,-1.507044,0.1506191,-0.002878711,-0.02533264,-0.6314973,-2.796602,1.237704
0,0.2777778,44,104,497,498,0.06626204,0.07780337,0.0721285,-1.46677,-2.699026,-1.507806,0.1284908,0.0005159229,0.004636932,-0.6308592,-2.796037,1.236063
0,0.2888889,44,104,497,498,0.06285068,0.05450033,0.05601084,-1.467013,-2.699108,-1.508357,0.1168842,0.01018701,0.01533673,-0.630555,-2.795257,1.234398
0,0.3,44,104,497,498,0.06589717,0.04179724,0.04310371,-1.467085,-2.699257,-1.509139,0.1104786,0.01233098,0.0121778,-0.6305918,-2.79492,1.233059
0,0.3111111,44,104,497,498,0.06792612,0.03012566,0.03554581,-1.467245,-2.699224,-1.509946,0.1072752,0.01126532,0.01435275,-0.630155,-2.795048,1.232262
0,0.3222222,44,104,497,498,0.07415012,0.0131463,0.022581,-1.467044,-2.698891,-1.510942,0.09553573,0.01342601,0.01016562,-0.6302291,-2.79473,1.231289
0,0.3333333,44,104,497,498,0.07731134,0.006757277,0.02037598,-1.467173,-2.698777,-1.511954,0.07742999,0.02307577,0.00705279,-0.6305258,-2.793846,1.230383
0,0.3444445,44,104,497,498,0.08261983,0.01316992,0.01505295,-1.467214,-2.699109,-1.513026,0.06152041,0.04124716,0.007100051,-0.6307761,-2.792281,1.228874
0,0.3555556,44,104,497,498,0.07947344,0.01741762,0.01830967,-1.467593,-2.699408,-1.513913,0.04776228,0.0636737,0.009244929,-0.6310611,-2.790318,1.227232
0,0.3666667,44,104,497,498,0.06667005,0.01641168,0.01627698,-1.467752,-2.699552,-1.51428,0.04150867,0.08609559,0.01666696,-0.6312358,-2.787561,1.224723
0,0.3777778,44,104,497,498,0.06240696,-0.001733008,0.02470776,-1.468295,-2.699139,-1.514809,0.02145755,0.1107311,0.03164439,-0.6310546,-2.783959,1.22223
0,0.3888889,44,104,497,498,0.0591708,-0.01344078,0.02465282,-1.468587,-2.698641,-1.515453,0.01418645,0.1246828,0.05403283,-0.6302978,-2.780511,1.219776
0,0.4,44,104,497,498,0.06124249,-0.04117879,0.02975721,-1.468902,-2.697463,-1.516268,0.005745485,0.1226297,0.06688292,-0.6297263,-2.777757,1.217731
0,0.4111111,44,104,497,498,0.0643716,-0.06892513,0.03378689,-1.469188,-2.69581,-1.517188,0.0003726259,0.1098574,0.06591272,-0.629232,-2.775947,1.216185
0,0.4222222,44,104,497,498,0.06638863,-0.1009073,0.03460343,-1.469447,-2.693736,-1.51804,-0.0008414239,0.0959646,0.0521202,-0.6292804,-2.774677,1.215179
0,0.4333333,44,104,497,498,0.07061072,-0.1169165,0.0365845,-1.469824,-2.691968,-1.51912,-0.002054952,0.08846302,0.0361775,-0.6295787,-2.773191,1.21413
0,0.4444444,44,104,497,498,0.07060079,-0.1265179,0.03971038,-1.47024,-2.69045,-1.520014,-0.004257396,0.08311887,0.02875403,-0.6297486,-2.771886,1.213195
0,0.4555556,44,104,497,498,0.07059339,-0.1286484,0.03969526,-1.470609,-2.688934,-1.520952,-0.01280609,0.08527416,0.02242289,-0.6299452,-2.7698,1.211678
0,0.4666667,44,104,497,498,0.06847644,-0.1265175,0.04079152,-1.470981,-2.687573,-1.52176,-0.02017692,0.08853494,0.03311615,-0.629698,-2.767723,1.210423
0,0.4777778,44,104,497,498,0.06421808,-0.1232992,0.03978409,-1.471328,-2.686259,-1.522465,-0.0317653,0.09821936,0.04808268,-0.6292123,-2.764937,1.208968
0,0.4888889,44,104,497,498,0.05575856,-0.1169057,0.04415695,-1.471842,-2.685144,-1.523033,-0.04339136,0.1089349,0.05451857,-0.6290435,-2.762212,1.207406
0,0.5,44,104,497,498,0.04618605,-0.1104739,0.04321331,-1.472201,-2.684084,-1.52339,-0.04867994,0.1249233,0.05130437,-0.6292171,-2.759014,1.205523
0,0.5111111,44,104,497,498,0.03339255,-0.1018653,0.03805876,-1.472537,-2.683205,-1.523553,-0.05611324,0.1409072,0.04597263,-0.629599,-2.755857,1.203795
0,0.5222223,44,104,497,498,0.0269572,-0.1028684,0.03277443,-1.472688,-2.682055,-1.523859,-0.06143196,0.154754,0.03956987,-0.6301289,-2.75232,1.201775
0,0.5333334,44,104,497,498,0.02264629,-0.103885,0.02747381,-1.472794,-2.680814,-1.524087,-0.06148381,0.1526079,0.03425872,-0.6303638,-2.749519,1.200271
0,0.5444446,44,104,497,498,0.01937291,-0.1091461,0.02000313,-1.47273,-2.679466,-1.524374,-0.06259558,0.1323862,0.03859752,-0.6301875,-2.747697,1.19953
0,0.5555557,44,104,497,498,0.01713096,-0.1282855,0.01562446,-1.472777,-2.677517,-1.524565,-0.06374508,0.1079117,0.04082909,-0.6298386,-2.745996,1.198898
0,0.5666668,44,104,497,498,0.01492134,-0.1399655,0.01130359,-1.472807,-2.675674,-1.524799,-0.05949772,0.0983191,0.0440285,-0.6295979,-2.744312,1.198075
0,0.577778,44,104,497,498,0.01273604,-0.1612784,0.01329797,-1.472897,-2.673315,-1.525178,-0.0659547,0.08767803,0.04092705,-0.6293529,-2.742848,1.197852
0,0.5888891,44,104,497,498,0.01585673,-0.185799,0.01417002,-1.473066,-2.670634,-1.525728,-0.07235609,0.09194435,0.03669436,-0.6295021,-2.74097,1.197259
0,0.6000003,44,104,497,498,0.01795121,-0.1964602,0.01407464,-1.473096,-2.668215,-1.526232,-0.07552,0.1004786,0.03668711,-0.6296107,-2.738634,1.196306
0,0.6111114,44,104,497,498,0.01797462,-0.2018281,0.0193672,-1.473387,-2.665785,-1.526642,-0.08510004,0.1207342,0.02709802,-0.6302509,-2.735314,1.194786
0,0.6222225,44,104,497,498,0.01898055,-0.2092583,0.01504292,-1.473309,-2.663277,-1.527125,-0.092452,0.141017,0.03134109,-0.630594,-2.731682,1.193049
0,0.6333337,44,104,497,498,0.01788957,-0.2102994,0.01184238,-1.473186,-2.660892,-1.527596,-0.1019173,0.1645001,0.03771355,-0.6309151,-2.727806,1.191456
0,0.6444448,44,104,497,498,0.01468864,-0.2166953,0.01395297,-1.473291,-2.658283,-1.527935,-0.1113911,0.1837445,0.04410143,-0.6313434,-2.723248,1.189235
0,0.655556,44,104,497,498,0.0103805,-0.225201,0.01285926,-1.473248,-2.655436,-1.528078,-0.1176931,0.1880659,0.05478358,-0.6313434,-2.719228,1.187463
0,0.6666671,44,104,497,498,0.003899379,-0.2390024,0.009618499,-1.473171,-2.652427,-1.528043,-0.1186841,0.194504,0.06437153,-0.6311857,-2.71463,1.185269
0,0.6777782,44,104,497,498,-0.002465518,-0.2518228,0.01809702,-1.473413,-2.649292,-1.528188,-0.1208157,0.1902581,0.06653143,-0.6311916,-2.710998,1.183741
0,0.6888894,44,104,497,498,-0.01204515,-0.2635647,0.02446913,-1.473506,-2.645907,-1.528127,-0.1112699,0.1902109,0.06114059,-0.6315383,-2.707139,1.181615
0,0.7000005,44,104,497,498,-0.01735817,-0.2699683,0.02872851,-1.473809,-2.642741,-1.528129,-0.107084,0.183778,0.05367623,-0.6318744,-2.703949,1.180132
0,0.7111117,44,104,497,498,-0.01948063,-0.2742573,0.03190838,-1.474054,-2.639384,-1.528175,-0.09969211,0.1816027,0.04724377,-0.6322414,-2.700478,1.178457
0,0.7222228,44,104,497,498,-0.02052252,-0.2732038,0.03405627,-1.474373,-2.636352,-1.528238,-0.09655631,0.1773079,0.0408447,-0.6326914,-2.6974,1.17699
0,0.7333339,44,104,497,498,-0.02150094,-0.2647467,0.04158211,-1.4749,-2.633397,-1.528212,-0.09337065,0.1772901,0.03975357,-0.6330968,-2.694093,1.17533
0,0.7444451,44,104,497,498,-0.02360862,-0.2658226,0.04478585,-1.475317,-2.630432,-1.528188,-0.09969369,0.1869282,0.04508747,-0.6334915,-2.689833,1.173221
0,0.7555562,44,104,497,498,-0.03206543,-0.262643,0.05127107,-1.475932,-2.627574,-1.527902,-0.09744047,0.1922975,0.05996822,-0.6333796,-2.68561,1.170822
0,0.7666674,44,104,497,498,-0.03841899,-0.2647923,0.05769719,-1.47655,-2.62459,-1.52754,-0.09850363,0.190184,0.0631814,-0.6334446,-2.681852,1.169088
0,0.7777785,44,104,497,498,-0.03942427,-0.2648435,0.06516498,-1.477358,-2.621583,-1.527357,-0.09848395,0.1955104,0.06316312,-0.6336779,-2.677811,1.166926
0,0.7888896,44,104,497,498,-0.04361594,-0.2638326,0.0737247,-1.478187,-2.61849,-1.527034,-0.09954451,0.2072103,0.05673919,-0.6342904,-2.673456,1.164489
0,0.8000008,44,104,497,498,-0.04139119,-0.2553729,0.0812237,-1.479165,-2.615786,-1.526914,-0.09747662,0.2220583,0.03962902,-0.6354302,-2.669031,1.161947
0,0.8111119,44,104,497,498,-0.04448645,-0.2479537,0.08877039,-1.48037,-2.613187,-1.526773,-0.09533998,0.2326955,0.03424637,-0.6364918,-2.664266,1.159006
0,0.8222231,44,104,497,498,-0.04231026,-0.2426585,0.09198493,-1.481322,-2.610543,-1.526602,-0.1017272,0.2359114,0.03321406,-0.6372481,-2.659878,1.156784
0,0.8333342,44,104,497,498,-0.04440389,-0.2426798,0.09627847,-1.482578,-2.607802,-1.526345,-0.1006312,0.2337988,0.03747213,-0.6378531,-2.655525,1.154198
0,0.8444453,44,104,497,498,-0.04543675,-0.2459103,0.101592,-1.48373,-2.604893,-1.526067,-0.09854199,0.2274102,0.03748366,-0.6384492,-2.651319,1.15207
0,0.8555565,44,104,497,498,-0.04760116,-0.2576395,0.1026058,-1.48493,-2.601454,-1.525772,-0.09646121,0.2178075,0.03537112,-0.6390201,-2.647748,1.150211
0,0.8666676,44,104,497,498,-0.04764426,-0.2725563,0.1035737,-1.486023,-2.598028,-1.525541,-0.09228205,0.207117,0.02898755,-0.6396801,-2.644486,1.148519
0,0.8777788,44,104,497,498,-0.04340504,-0.2811058,0.1045328,-1.486991,-2.594574,-1.525508,-0.09446722,0.2081613,0.02047643,-0.6406202,-2.640931,1.146782
0,0.8888899,44,104,497,498,-0.03915629,-0.2885642,0.1044412,-1.487933,-2.591335,-1.525586,-0.09562033,0.2155752,0.00555547,-0.6418878,-2.63699,1.144878
0,0.900001,44,104,497,498,-0.03598477,-0.2864286,0.101212,-1.48876,-2.588142,-1.525659,-0.09667972,0.2251524,0.001269227,-0.6431054,-2.632885,1.142702
0,0.9111122,44,104,497,498,-0.03173669,-0.281101,0.09906788,-1.489656,-2.585176,-1.525691,-0.09767752,0.2305153,0.005537713,-0.6440179,-2.62816,1.139735
0,0.9222233,44,104,497,498,-0.02532908,-0.2778999,0.0969599,-1.490827,-2.582109,-1.525713,-0.09554748,0.2283805,0.006595494,-0.6449782,-2.624334,1.137682
0,0.9333345,44,104,497,498,-0.02423329,-0.2683074,0.09595038,-1.491657,-2.579346,-1.525683,-0.09871013,0.2220236,0.01408638,-0.6457196,-2.620805,1.135988
0,0.9444456,44,104,497,498,-0.02207987,-0.2619307,0.09597937,-1.492628,-2.576447,-1.525761,-0.1019119,0.206083,0.02056121,-0.646158,-2.617536,1.134451
0,0.9555568,44,104,497,498,-0.01461529,-0.2480676,0.09068643,-1.493331,-2.574077,-1.526034,-0.101934,0.1901214,0.02594069,-0.6464994,-2.61467,1.133307
0,0.9666679,44,104,497,498,-0.01244576,-0.2352892,0.08970066,-1.494253,-2.571667,-1.526125,-0.1030732,0.1805457,0.02278061,-0.6472648,-2.611414,1.132087
0,0.977779,44,104,497,498,-0.002848668,-0.2225076,0.08545338,-1.495026,-2.56951,-1.526534,-0.09889527,0.1677291,0.0174678,-0.6478592,-2.609135,1.131234
0,0.9888902,44,104,497,498,-0.00178053,-0.2096929,0.08235921,-1.496022,-2.567601,-1.526495,-0.09794007,0.1527762,0.006870069,-0.6484648,-2.607185,1.130528
0,1.000001,44,104,497,498,0.001412028,-0.2022156,0.07811844,-1.496593,-2.565543,-1.526801,-0.09582074,0.1516995,0.005793771,-0.6491242,-2.604648,1.129511
0,1.011112,44,104,497,498,0.009948365,-0.1872756,0.07069458,-1.497098,-2.563852,-1.527543,-0.09477594,0.1538132,0.0004256163,-0.6503109,-2.602194,1.128489
0,1.022224,44,104,497,498,0.01419577,-0.1765942,0.06434057,-1.497535,-2.562081,-1.527936,-0.09585339,0.1484943,0.00151623,-0.6509096,-2.599925,1.127772
0,1.033335,44,104,497,498,0.01734037,-0.1669561,0.05480853,-1.497957,-2.560333,-1.528213,-0.1021789,0.1485614,0.01007082,-0.6515285,-2.597009,1.126642
0,1.044446,44,104,497,498,0.02265947,-0.1541483,0.04846104,-1.498294,-2.558847,-1.528736,-0.1095566,0.1528963,0.01757207,-0.6520654,-2.593523,1.125065
0,1.055557,44,104,497,498,0.02586756,-0.1445472,0.04530686,-1.498619,-2.557459,-1.529217,-0.1148153,0.1614559,0.02290627,-0.6525959,-2.590252,1.123873
0,1.066668,44,104,497,498,0.0279662,-0.1423869,0.039985,-1.49897,-2.555891,-1.529759,-0.1180189,0.1657429,0.02293503,-0.6530444,-2.586633,1.122671
0,1.077779,44,104,497,498,0.0247754,-0.1434522,0.04106293,-1.499345,-2.554196,-1.530102,-0.114827,0.1646658,0.02291677,-0.6535781,-2.583784,1.12163
0,1.08889,44,104,497,498,0.02896968,-0.1455336,0.03357276,-1.499577,-2.552618,-1.530605,-0.1159574,0.1742061,0.005843932,-0.6549965,-2.580756,1.12028
0,1.100002,44,104,497,498,0.03318255,-0.1422978,0.02610119,-1.499555,-2.551175,-1.531227,-0.119173,0.1529406,0.01445933,-0.655136,-2.578746,1.120091
0,1.111113,44,104,497,498,0.03213586,-0.1273523,0.02194865,-1.499615,-2.550183,-1.531704,-0.1160644,0.1369549,0.01342621,-0.6554897,-2.576766,1.120023
0,1.122224,44,104,497,498,0.02898364,-0.1081425,0.01891259,-1.499671,-2.549498,-1.531989,-0.1086647,0.1113784,0.01878744,-0.6554061,-2.575717,1.120178
0,1.133335,44,104,497,498,0.02476704,-0.09748444,0.02007815,-1.499785,-2.548666,-1.532223,-0.1076188,0.08903283,0.02630923,-0.6552303,-2.574668,1.120365
0,1.144446,44,104,497,498,0.01843113,-0.08468616,0.02128729,-1.50002,-2.548059,-1.532283,-0.1023571,0.0709108,0.02952824,-0.6550215,-2.573866,1.121016
0,1.155557,44,104,497,498,0.01096554,-0.06970343,0.01505845,-1.499926,-2.54764,-1.53213,-0.09916623,0.0655797,0.03165485,-0.6549048,-2.572692,1.121106
0,1.166668,44,104,497,498,0.005690164,-0.05691325,0.01626115,-1.500192,-2.547271,-1.532112,-0.1023433,0.0549648,0.03918473,-0.6543142,-2.571483,1.12128
0,1.17778,44,104,497,498,-0.000703013,-0.05047581,0.01315922,-1.500216,-2.546894,-1.531989,-0.1055649,0.05390076,0.0360143,-0.6542827,-2.570401,1.121678
0,1.188891,44,104,497,498,-0.006017965,-0.04939154,0.01321812,-1.500452,-2.546352,-1.531925,-0.1056331,0.04962125,0.02750916,-0.6544362,-2.569445,1.121999
0,1.200002,44,104,497,498,-0.008133807,-0.05046578,0.01535896,-1.500672,-2.54572,-1.531862,-0.1078823,0.04106456,0.01476892,-0.6546679,-2.569196,1.123061
0,1.211113,44,104,497,498,-0.01240592,-0.06006937,0.01746118,-1.500947,-2.544549,-1.531759,-0.1069075,0.03570858,0.006255979,-0.6549166,-2.568823,1.12409
0,1.222224,44,104,497,498,-0.0135195,-0.07391463,0.01736969,-1.501058,-2.543361,-1.531642,-0.106908,0.03358148,0.007328322,-0.6549667,-2.568267,1.124827
0,1.233335,44,104,497,498,-0.01991613,-0.08777929,0.02264904,-1.501404,-2.542015,-1.531347,-0.1079207,0.03678872,0.01158541,-0.6549193,-2.567471,1.12529
0,1.244446,44,104,497,498,-0.01996684,-0.09735247,0.02045291,-1.501549,-2.540677,-1.531212,-0.1121362,0.0357895,0.02120322,-0.6547903,-2.56615,1.125826
0,1.255558,44,104,497,498,-0.02002398,-0.1143875,0.020334,-1.501747,-2.539065,-1.531151,-0.109929,0.03688207,0.03183782,-0.6543956,-2.565026,1.126104
0,1.266669,44,104,497,498,-0.02224363,-0.1314017,0.01809086,-1.501698,-2.537311,-1.530815,-0.1076814,0.04118517,0.04566018,-0.6538668,-2.563427,1.125851
0,1.27778,44,104,497,498,-0.02337686,-0.1494962,0.01689588,-1.501676,-2.535247,-1.530766,-0.1118685,0.04548998,0.05419729,-0.6533757,-2.561891,1.125992
0,1.288891,44,104,497,498,-0.02343504,-0.1558631,0.01365965,-1.5017,-2.533396,-1.530485,-0.1161112,0.05298683,0.0563306,-0.6532186,-2.559878,1.126112
0,1.300002,44,104,497,498,-0.02778076,-0.1707312,0.009325279,-1.501594,-2.531141,-1.530218,-0.1139897,0.06041861,0.05096526,-0.6532132,-2.558265,1.126048
0,1.311113,44,104,497,498,-0.03208145,-0.1770873,0.0061229,-1.501573,-2.528998,-1.530036,-0.1150596,0.0636396,0.05202712,-0.6531152,-2.556268,1.126087
0,1.322224,44,104,497,498,-0.03213935,-0.1845104,0.001808095,-1.501387,-2.526796,-1.529891,-0.1161288,0.06257823,0.05203786,-0.652908,-2.554887,1.126301
0,1.333336,44,104,497,498,-0.03110543,-0.1855572,-0.002463109,-1.501266,-2.524625,-1.529835,-0.1193039,0.04983613,0.05956854,-0.6521176,-2.553795,1.126597
0,1.344447,44,104,497,498,-0.03003676,-0.1802226,-0.003496934,-1.501156,-2.522806,-1.529526,-0.1129204,0.03280061,0.06917423,-0.651137,-2.553052,1.127245
0,1.355558,44,104,497,498,-0.03322824,-0.1716664,-0.006606299,-1.50092,-2.521109,-1.52918,-0.1086981,0.008307979,0.07668335,-0.6499668,-2.553128,1.128421
0,1.366669,44,104,497,498,-0.03214668,-0.1610035,-0.008673651,-1.50066,-2.519544,-1.528934,-0.107686,-0.005553022,0.07459101,-0.6491455,-2.553134,1.129426
0,1.37778,44,104,497,498,-0.0353112,-0.1417867,-0.01277102,-1.500381,-2.518475,-1.52852,-0.1045476,-0.01728985,0.07247744,-0.6482469,-2.553375,1.130678
0,1.388891,44,104,497,498,-0.03207662,-0.1236687,-0.01586811,-1.500019,-2.517516,-1.528336,-0.1034946,-0.02154253,0.07355876,-0.6473191,-2.552996,1.131571
0,1.400002,44,104,497,498,-0.03091913,-0.08314543,-0.02198289,-1.49957,-2.517683,-1.528049,-0.1087741,-0.008739531,0.07355249,-0.6466762,-2.552142,1.132251
0,1.411114,44,104,497,498,-0.03297256,-0.05436485,-0.02389504,-1.499199,-2.517675,-1.527536,-0.1193689,-0.0001657605,0.07573745,-0.645873,-2.55095,1.132719
0,1.422225,44,104,497,498,-0.03399,-0.03623246,-0.02588977,-1.498852,-2.517769,-1.52715,-0.1246388,0.007324845,0.08001022,-0.6450986,-2.549839,1.133346
0,1.433336,44,104,497,498,-0.03606324,-0.02131992,-0.02469797,-1.498669,-2.517877,-1.526646,-0.1257335,0.004105851,0.07683227,-0.6442799,-2.549744,1.134619
0,1.444447,44,104,497,498,-0.03713505,-0.01382785,-0.02889632,-1.498251,-2.517952,-1.526217,-0.1257335,0.001980752,0.07790115,-0.6434932,-2.549218,1.135562
0,1.455558,44,104,497,498,-0.04033993,-0.01382335,-0.02885463,-1.498159,-2.517655,-1.525576,-0.1257029,0.008375928,0.07894526,-0.6427784,-2.548181,1.136139
0,1.466669,44,104,497,498,-0.03824759,-0.01593475,-0.03420455,-1.497747,-2.517287,-1.525426,-0.1214809,0.009405747,0.07145126,-0.6423651,-2.547496,1.136731
0,1.47778,44,104,497,498,-0.03720593,-0.03087473,-0.03112536,-1.497449,-2.516536,-1.525126,-0.1215038,0.005141109,0.07040007,-0.6416588,-2.547051,1.137718
0,1.488891,44,104,497,498,-0.03727087,-0.04472997,-0.0322925,-1.496952,-2.515496,-1.524667,-0.1236833,0.0008745342,0.06616196,-0.6410857,-2.546802,1.138999
0,1.500003,44,104,497,498,-0.03314882,-0.08308458,-0.03366999,-1.496389,-2.513625,-1.524597,-0.1258497,0.002992094,0.05977789,-0.6406575,-2.54632,1.140059
0,1.511114,44,104,497,498,-0.03004174,-0.108652,-0.03388339,-1.495856,-2.512009,-1.524455,-0.1354319,0.01260142,0.05340747,-0.6406298,-2.545423,1.140843
0,1.522225,44,104,497,498,-0.03120226,-0.1288648,-0.03721213,-1.495298,-2.510141,-1.524218,-0.1365259,0.02003615,0.04487024,-0.6405051,-2.544549,1.141657
0,1.533336,44,104,497,498,-0.02700678,-0.1523377,-0.03420401,-1.495062,-2.507895,-1.524057,-0.1439216,0.04455142,0.04057964,-0.64065,-2.542568,1.141856
0,1.544447,44,104,497,498,-0.02385714,-0.1683344,-0.03327361,-1.494681,-2.505646,-1.524052,-0.1556389,0.05841783,0.03423359,-0.6406516,-2.540923,1.142629
0,1.555558,44,104,497,498,-0.02282631,-0.1864478,-0.0312725,-1.494408,-2.503321,-1.524148,-0.1620099,0.06802204,0.03211507,-0.6407885,-2.539188,1.143204
0,1.566669,44,104,497,498,-0.01749136,-0.1950278,-0.02606551,-1.493922,-2.500955,-1.524211,-0.1673412,0.07123679,0.03107799,-0.6408141,-2.537592,1.144035
0,1.577781,44,104,497,498,-0.01425848,-0.1993451,-0.01972953,-1.493755,-2.498657,-1.524303,-0.1705298,0.07125205,0.03216505,-0.6407763,-2.536154,1.144859
0,1.588892,44,104,497,498,-0.0131625,-0.1961782,-0.01544214,-1.493739,-2.496626,-1.524143,-0.1758694,0.06913367,0.03328268,-0.6405025,-2.534865,1.14608
0,1.600003,44,104,497,498,-0.01205648,-0.1940833,-0.01117714,-1.493597,-2.494507,-1.524187,-0.1747712,0.07020895,0.03753297,-0.6403587,-2.533246,1.146688
0,1.611114,44,104,497,498,-0.0151692,-0.1770667,-0.006786414,-1.493296,-2.492893,-1.523899,-0.1758167,0.06809351,0.03964998,-0.6405627,-2.532064,1.147522
0,1.622225,44,104,497,498,-0.01723424,-0.166429,-0.003508255,-1.493141,-2.49131,-1.523844,-0.1747609,0.06385326,0.04499524,-0.640112,-2.530387,1.148541
0,1.633336,44,104,497,498,-0.02027031,-0.1451732,0.005197973,-1.493452,-2.49023,-1.523813,-0.1769339,0.05427007,0.04397608,-0.6398537,-2.529545,1.14989
0,1.644447,44,104,497,498,-0.02660812,-0.1323737,0.006406382,-1.49349,-2.489106,-1.523446,-0.1737167,0.05531392,0.04501214,-0.6396402,-2.528517,1.150759
0,1.655559,44,104,497,498,-0.03187198,-0.1153302,0.006568383,-1.493463,-2.487928,-1.523086,-0.1694585,0.05848704,0.04284211,-0.6395597,-2.527095,1.151378
0,1.66667,44,104,497,498,-0.03715868,-0.1078548,0.006675403,-1.493634,-2.486884,-1.522815,-0.1651617,0.06701198,0.04706102,-0.639205,-2.524925,1.151726
0,1.677781,44,104,497,498,-0.04565571,-0.1014332,0.006786715,-1.493616,-2.48589,-1.522212,-0.1620107,0.06272522,0.0427922,-0.6391113,-2.523789,1.152553
0,1.688892,44,104,497,498,-0.04994043,-0.1099305,0.007824454,-1.493659,-2.484683,-1.521624,-0.1514452,0.04988913,0.03527918,-0.6394032,-2.523371,1.15348
0,1.700003,44,104,497,498,-0.05097622,-0.1067445,0.00998779,-1.4938,-2.483593,-1.521136,-0.1547085,0.03391556,0.03214967,-0.6392583,-2.523183,1.154965
0,1.711114,44,104,497,498,-0.06056126,-0.1120626,0.01215405,-1.493883,-2.482094,-1.52037,-0.152611,0.03282863,0.02787758,-0.6391997,-2.522491,1.156069
0,1.722225,44,104,497,498,-0.06169404,-0.1184667,0.01105556,-1.493891,-2.48024,-1.519287,-0.1473216,0.02852966,0.02465659,-0.6390969,-2.52223,1.157352
0,1.733337,44,104,497,498,-0.06173225,-0.1248418,0.00888072,-1.493888,-2.478709,-1.518757,-0.1441247,0.03277202,0.02249038,-0.6391224,-2.52138,1.158185
0,1.744448,44,104,497,498,-0.06174119,-0.1323181,0.01096237,-1.494032,-2.47698,-1.518188,-0.1462485,0.04980867,0.01285853,-0.6397467,-2.51967,1.158379
0,1.755559,44,104,497,498,-0.06285108,-0.1376484,0.009864241,-1.493949,-2.475085,-1.517356,-0.1504823,0.068979,0.006433474,-0.6403304,-2.517763,1.158638
0,1.76667,44,104,497,498,-0.06714008,-0.1440248,0.009849951,-1.493914,-2.473341,-1.51654,-0.1547222,0.08387211,1.199497E-05,-0.6410527,-2.516343,1.159178
0,1.777781,44,104,497,498,-0.06716166,-0.1504449,0.009789765,-1.493687,-2.471089,-1.516,-0.1515001,0.08706291,0.0021104,-0.6414027,-2.514657,1.159413
0,1.788892,44,104,497,498,-0.06824502,-0.1536415,0.008735916,-1.493981,-2.469131,-1.515381,-0.1461922,0.07748044,0.006365988,-0.6414958,-2.51348,1.160115
0,1.800003,44,104,497,498,-0.06827697,-0.1579052,0.007632442,-1.493802,-2.467109,-1.514656,-0.142993,0.06470904,0.0138424,-0.641287,-2.512697,1.160981
0,1.811115,44,104,497,498,-0.06721312,-0.1632372,0.008649975,-1.493812,-2.465226,-1.5142,-0.1334172,0.05616727,0.01700027,-0.6412476,-2.511741,1.161468
0,1.822226,44,104,497,498,-0.06615289,-0.1664504,0.009676462,-1.493743,-2.463197,-1.513626,-0.1356429,0.05082189,0.008502876,-0.6416514,-2.511148,1.162826
0,1.833337,44,104,497,498,-0.05654297,-0.1654434,0.01386628,-1.493883,-2.461464,-1.513163,-0.1303661,0.05503261,-0.001134425,-0.6421978,-2.510222,1.163365
0,1.844448,44,104,497,498,-0.05652879,-0.1665209,0.01495138,-1.494311,-2.459488,-1.512798,-0.1283076,0.06244247,-0.01394768,-0.642861,-2.509094,1.164047
0,1.855559,44,104,497,498,-0.05119562,-0.1686871,0.0170207,-1.494411,-2.457497,-1.512476,-0.1282766,0.06883754,-0.01290291,-0.6433297,-2.50775,1.164394
0,1.86667,44,104,497,498,-0.04583352,-0.1719413,0.02015851,-1.49472,-2.455245,-1.512575,-0.1250251,0.0709576,-0.0065563,-0.6436333,-2.506938,1.164991
0,1.877781,44,104,497,498,-0.04369759,-0.1708799,0.02014453,-1.494771,-2.453434,-1.512297,-0.1249519,0.07311885,0.003024219,-0.6436999,-2.505401,1.165152
0,1.888893,44,104,497,498,-0.04154122,-0.1687749,0.02014937,-1.494984,-2.451363,-1.512307,-0.1247982,0.0732021,0.02645984,-0.6431918,-2.503393,1.165016
0,1.900004,44,104,497,498,-0.03514485,-0.1634524,0.01800279,-1.495011,-2.449713,-1.51227,-0.1268621,0.07749487,0.03391751,-0.6430165,-2.501485,1.164954
0,1.911115,44,104,497,498,-0.03298835,-0.1592054,0.01803346,-1.495361,-2.447938,-1.51224,-0.1194706,0.07316944,0.02536746,-0.6431246,-2.500561,1.165233
0,1.922226,44,104,497,498,-0.02866234,-0.147534,0.01916144,-1.495708,-2.446248,-1.512351,-0.1196193,0.07098998,0.005149579,-0.6437649,-2.499311,1.165605
0,1.933337,44,104,497,498,-0.02757175,-0.1411134,0.01706308,-1.495724,-2.445086,-1.512442,-0.111175,0.06878403,-0.007687826,-0.644469,-2.498633,1.165817
0,1.944448,44,104,497,498,-0.02005056,-0.1262033,0.01392605,-1.495955,-2.444052,-1.513047,-0.1058688,0.07197217,-0.009872322,-0.6451348,-2.496987,1.165802
0,1.955559,44,104,497,498,-0.01786819,-0.1166319,0.01610778,-1.496146,-2.443077,-1.512993,-0.1036465,0.07519694,0.001820979,-0.6451737,-2.495358,1.165568
0,1.966671,44,104,497,498,-0.01357814,-0.1048905,0.0129559,-1.496124,-2.44243,-1.513207,-0.09928941,0.07418817,0.01778491,-0.6449516,-2.493213,1.16497
0,1.977782,44,104,497,498,-0.009259755,-0.09647372,0.01721974,-1.496005,-2.440672,-1.513252,-0.09607869,0.06461187,0.02525023,-0.6446858,-2.492212,1.165141
0,1.988893,44,104,497,498,-0.007084067,-0.08903183,0.01833564,-1.496399,-2.439844,-1.513444,-0.09181196,0.06035868,0.03162518,-0.6444626,-2.490961,1.165368
0,2.000004,44,104,497,498,-0.002848228,-0.0858588,0.01404516,-1.496103,-2.4384,-1.513608,-0.08867139,0.04755989,0.03057859,-0.6442416,-2.490525,1.165933
0,2.011115,44,104,497,498,-0.0006722873,-0.08271226,0.01725121,-1.496406,-2.437253,-1.513845,-0.08232713,0.04965342,0.02201185,-0.6445015,-2.489212,1.165583
0,2.022226,44,104,497,498,0.002573193,-0.06991559,0.01624718,-1.496494,-2.43704,-1.514179,-0.0770743,0.04642127,0.01453441,-0.6446757,-2.488364,1.165812
0,2.033337,44,104,497,498,0.002578029,-0.0656524,0.01307302,-1.496384,-2.436119,-1.514508,-0.07712816,0.03788904,0.01136543,-0.6447049,-2.488072,1.166426
0,2.044448,44,104,497,498,0.005779651,-0.05815449,0.008841422,-1.496404,-2.435958,-1.514882,-0.07177527,0.03256495,0.01986197,-0.6443795,-2.487545,1.166828
0,2.055559,44,104,497,498,0.004749483,-0.05390355,0.008870807,-1.49635,-2.435254,-1.515248,-0.0727952,0.02727284,0.02947359,-0.6438873,-2.486903,1.167156
0,2.06667,44,104,497,498,0.0004020613,-0.05273655,-0.000680566,-1.49597,-2.434967,-1.514991,-0.06847723,0.02835977,0.03795589,-0.6436221,-2.485769,1.166997
0,2.077781,44,104,497,498,0.0003893641,-0.05061305,-0.002799003,-1.495808,-2.434134,-1.515024,-0.06318696,0.01875207,0.03794987,-0.6432136,-2.485553,1.167391
0,2.088892,44,104,497,498,0.0004168092,-0.04849464,-0.002768879,-1.495969,-2.433472,-1.515375,-0.05787617,0.01765891,0.03365704,-0.6430804,-2.485022,1.167213
0,2.100003,44,104,497,498,-0.0006986242,-0.04630591,-0.01127076,-1.495534,-2.432961,-1.515546,-0.05473119,0.01762347,0.02617843,-0.6430879,-2.484672,1.167433
0,2.111114,44,104,497,498,-0.0007053046,-0.04842972,-0.01340108,-1.495505,-2.432231,-1.515851,-0.04939896,0.02079993,0.02825965,-0.6428391,-2.484103,1.167697
0,2.122225,44,104,497,498,-0.001783307,-0.04843687,-0.01445665,-1.495297,-2.431427,-1.515809,-0.05158712,0.02184136,0.01868629,-0.6429425,-2.483717,1.16795
0,2.133336,44,104,497,498,0.0003037648,-0.05159743,-0.0187628,-1.49486,-2.430928,-1.515954,-0.05275247,0.0260531,0.001635796,-0.6434932,-2.483387,1.168297
0,2.144447,44,104,497,498,0.00349657,-0.05801022,-0.01775524,-1.49486,-2.430069,-1.516293,-0.04429166,0.02917455,-0.008014358,-0.6437659,-2.483173,1.168523
0,2.155558,44,104,497,498,0.01092099,-0.06333902,-0.02105265,-1.494459,-2.429247,-1.516828,-0.0388624,0.03345604,0.00471909,-0.6436269,-2.482224,1.168051
0,2.166669,44,104,497,498,0.0109372,-0.06336395,-0.02104077,-1.494364,-2.428218,-1.517243,-0.04087863,0.04098217,0.01963308,-0.6432818,-2.480441,1.167376
0,2.17778,44,104,497,498,0.009909314,-0.06337866,-0.01783454,-1.494238,-2.427592,-1.517525,-0.04706202,0.05599056,0.04199986,-0.6427156,-2.478207,1.166271
0,2.188891,44,104,497,498,0.009874493,-0.0644284,-0.01889738,-1.494112,-2.426957,-1.517375,-0.04695906,0.0613414,0.05156635,-0.642339,-2.476635,1.165269
0,2.200002,44,104,497,498,0.008817378,-0.06550046,-0.01676861,-1.493927,-2.426292,-1.517413,-0.04059325,0.06024197,0.04833043,-0.6421856,-2.475349,1.164522
0,2.211113,44,104,497,498,0.005677897,-0.06445133,-0.01033927,-1.494032,-2.42584,-1.517427,-0.03533182,0.0548756,0.04083796,-0.6424189,-2.474685,1.164139
0,2.222224,44,104,497,498,0.002483025,-0.06871127,-0.007150953,-1.493934,-2.425136,-1.517264,-0.03441609,0.05054785,0.02165945,-0.6429547,-2.474356,1.164298
0,2.233335,44,104,497,498,0.001421171,-0.07192821,-0.003969251,-1.493919,-2.424247,-1.517139,-0.02805923,0.0547614,0.01414565,-0.6432876,-2.473291,1.163589
0,2.244446,44,104,497,498,0.0003748899,-0.07300826,-0.001831368,-1.493991,-2.423353,-1.517267,-0.03023762,0.05473071,0.005635474,-0.6436115,-2.47279,1.163454
0,2.255557,44,104,497,498,0.000402797,-0.07411191,0.002425608,-1.49412,-2.422376,-1.517312,-0.02492819,0.04832213,0.006684811,-0.6437052,-2.472151,1.163065
0,2.266668,44,104,497,498,0.002555614,-0.07307119,0.004553027,-1.494271,-2.421551,-1.517474,-0.02065729,0.0344958,0.01522545,-0.6433558,-2.471552,1.162653
0,2.277779,44,104,497,498,0.002562117,-0.07522012,0.006660049,-1.494214,-2.420602,-1.517523,-0.01742912,0.02386421,0.02589007,-0.6428301,-2.471198,1.162466
0,2.28889,44,104,497,498,0.0004242226,-0.07307315,0.004568562,-1.494242,-2.419739,-1.517579,-0.02277291,0.02388849,0.02486982,-0.6426751,-2.470326,1.162329
0,2.300001,44,104,497,498,0.004702984,-0.06990465,0.005613491,-1.494168,-2.418969,-1.517768,-0.02279812,0.03451107,0.01524852,-0.6430027,-2.46938,1.161824
0,2.311112,44,104,497,498,0.006874812,-0.06780171,0.008814032,-1.494434,-2.418246,-1.518056,-0.02172468,0.05153231,0.009855026,-0.6435401,-2.467924,1.161137
0,2.322223,44,104,497,498,0.006873365,-0.06351649,0.006711587,-1.494392,-2.417765,-1.518187,-0.02280839,0.06746742,-0.0008391356,-0.6441196,-2.466711,1.160539
0,2.333334,44,104,497,498,0.00905338,-0.0550291,0.009950747,-1.494579,-2.417285,-1.518284,-0.02179634,0.06105841,-0.005087415,-0.6444983,-2.46598,1.160153
0,2.344445,44,104,497,498,0.008027943,-0.05077592,0.01424104,-1.494704,-2.417068,-1.518219,-0.01971138,0.05039334,-0.006131714,-0.6446011,-2.46564,1.160002
0,2.355556,44,104,497,498,0.005961311,-0.04227838,0.01857413,-1.494925,-2.416783,-1.518249,-0.0123387,0.02799414,-0.006111543,-0.6445398,-2.466128,1.160334
0,2.366668,44,104,497,498,0.008108366,-0.03482128,0.0196823,-1.495251,-2.416769,-1.518156,-0.0102032,0.02161141,-0.003984088,-0.6447593,-2.465773,1.159886
0,2.377779,44,104,497,498,0.004961294,-0.02631809,0.02295749,-1.495466,-2.416593,-1.518047,-0.002774529,0.02369701,-0.00936784,-0.6450964,-2.465513,1.159513
0,2.38889,44,104,497,498,0.002846343,-0.01669329,0.02090881,-1.495593,-2.416829,-1.518022,0.001484283,0.02473647,-0.01047985,-0.6455289,-2.465384,1.159299
0,2.400001,44,104,497,498,0.002864611,-0.01244499,0.02200391,-1.495838,-2.416714,-1.517999,0.001506775,0.02687375,-0.008356072,-0.6457137,-2.464857,1.158861
0,2.411112,44,104,497,498,0.001865221,0.003536222,0.02107121,-1.496183,-2.416976,-1.518273,0.005823852,0.02794937,-0.0009519416,-0.645938,-2.464339,1.158261
0,2.422223,44,104,497,498,0.003987681,0.0056815,0.02000066,-1.496334,-2.417261,-1.518261,0.0004813224,0.02264353,0.002296812,-0.6458187,-2.464374,1.158691
0,2.433334,44,104,497,498,0.004003679,0.01528545,0.01794051,-1.496529,-2.417686,-1.518291,0.002574976,0.02049144,-0.00197188,-0.6459827,-2.464207,1.158456
0,2.444445,44,104,497,498,0.006149225,0.02276269,0.01585389,-1.496811,-2.418279,-1.518471,0.002525084,0.02259499,-0.01050083,-0.64642,-2.463959,1.158232
0,2.455556,44,104,497,498,0.00615529,0.02595422,0.01587774,-1.497017,-2.418564,-1.518447,0.005663029,0.02255596,-0.01904462,-0.6469383,-2.463868,1.157997
0,2.466667,44,104,497,498,0.006132019,0.02598622,0.01268369,-1.497115,-2.418989,-1.518539,0.008821947,0.01083367,-0.01903436,-0.6471375,-2.464129,1.157918
0,2.477778,44,104,497,498,0.01039248,0.02810718,0.0126631,-1.497271,-2.419418,-1.518608,0.007789911,0.002343436,-0.01153735,-0.6469841,-2.464162,1.157678
0,2.488889,44,104,497,498,0.006119171,0.02706372,0.01162516,-1.497392,-2.419688,-1.518551,0.003531361,-0.0008296259,-0.009367716,-0.6469969,-2.46435,1.157882
0,2.5,44,104,497,498,0.009318142,0.02491465,0.01264114,-1.497461,-2.419893,-1.518735,0.005628552,0.0002205158,-0.01150286,-0.6470091,-2.464276,1.158025
0,2.511111,44,104,497,498,0.007108902,0.02071759,0.006241843,-1.497445,-2.420159,-1.518551,0.002446138,0.007682699,-0.01363573,-0.6473143,-2.463997,1.157858
0,2.522222,44,104,497,498,0.007080676,0.01645963,0.005144062,-1.497453,-2.420164,-1.518563,0.004541927,0.005533095,-0.01683261,-0.6474485,-2.464175,1.157953
0,2.533333,44,104,497,498,0.003864983,0.01755033,0.003047641,-1.497433,-2.420422,-1.518404,0.00454291,-0.001910495,-0.01254786,-0.6473622,-2.464546,1.158205
0,2.544444,44,104,497,498,0.001702455,0.01757506,-0.0001373428,-1.497276,-2.420533,-1.518257,0.00454601,-0.01041147,-0.007191876,-0.6471652,-2.46491,1.158444
0,2.555555,44,104,497,498,-0.0004283343,0.02184442,-0.001165735,-1.497073,-2.420815,-1.518075,0.007708102,-0.01362948,-0.01039917,-0.6472483,-2.465396,1.158655
0,2.566666,44,104,497,498,-0.00575575,0.0261414,-0.003223068,-1.49699,-2.42126,-1.517868,0.007649375,-0.01685103,-0.01783865,-0.6474166,-2.466049,1.159032
0,2.577777,44,104,497,498,-0.01216105,0.02830399,-0.005295793,-1.496768,-2.421567,-1.517493,0.01075104,-0.01690676,-0.0317088,-0.6480611,-2.466847,1.159454
0,2.588888,44,104,497,498,-0.01320625,0.02936875,-0.004205259,-1.496902,-2.42196,-1.517435,0.0128711,-0.01585625,-0.03385717,-0.6484126,-2.46735,1.159657
0,2.599999,44,104,497,498,-0.01321902,0.03044917,-0.006334511,-1.496696,-2.422333,-1.51728,0.01611836,-0.02328382,-0.02214199,-0.6482267,-2.467882,1.159805
0,2.61111,44,104,497,498,-0.0164286,0.02405933,-0.00422194,-1.496742,-2.422507,-1.516872,0.01519066,-0.02321593,-0.001894678,-0.6476589,-2.467885,1.159661
0,2.622221,44,104,497,498,-0.01431404,0.02192934,-0.005319945,-1.496665,-2.422698,-1.516762,0.01417051,-0.01893483,0.002367169,-0.6474528,-2.467816,1.15948
0,2.633332,44,104,497,498,-0.01323909,0.018719,-0.002157837,-1.49671,-2.422979,-1.516553,0.0109923,-0.0104072,0.0002312053,-0.6475615,-2.467654,1.159334
0,2.644443,44,104,497,498,-0.01220642,0.01020417,-0.003291371,-1.496649,-2.422918,-1.516507,0.003506168,0.005556095,-0.01362241,-0.6483119,-2.467335,1.159172
0,2.655554,44,104,497,498,-0.01221461,0.003809078,-0.002276407,-1.496593,-2.422848,-1.516437,0.004496548,0.008707704,-0.02642298,-0.6489602,-2.467491,1.159244
0,2.666665,44,104,497,498,-0.0154368,-0.004718446,-0.001238776,-1.496677,-2.422437,-1.516124,0.005541489,0.01294893,-0.02962459,-0.6491737,-2.467379,1.159241
0,2.677776,44,104,497,498,-0.01438948,-0.008984916,-0.001279543,-1.496627,-2.422221,-1.515946,0.005563167,0.01295909,-0.02642878,-0.6494214,-2.467298,1.159104
0,2.688887,44,104,497,498,-0.0133024,-0.00580476,-0.001258135,-1.496708,-2.422096,-1.516,0.001317943,0.007672336,-0.0221284,-0.6496441,-2.467325,1.159118
0,2.699998,44,104,497,498,-0.01438154,-0.0122023,-0.000235877,-1.496638,-2.421743,-1.51582,0.009901954,-0.002975015,-0.008303352,-0.6492521,-2.467743,1.158972
0,2.711109,44,104,497,498,-0.01541316,-0.007975191,0.001949087,-1.496911,-2.421461,-1.515658,0.01739754,-0.01574652,0.004469742,-0.648681,-2.46826,1.158979
0,2.72222,44,104,497,498,-0.01644234,-0.008003339,0.006220751,-1.497091,-2.421336,-1.515477,0.01845347,-0.01894815,0.00660456,-0.6484233,-2.468768,1.159382
0,2.733331,44,104,497,498,-0.01643725,-0.009076254,0.007278354,-1.497183,-2.421202,-1.51531,0.01844302,-0.01788962,0.004470607,-0.6483631,-2.469043,1.159402
0,2.744442,44,104,497,498,-0.01212707,0.0004796502,0.009465125,-1.497681,-2.421415,-1.515253,0.02360675,-0.01904811,-0.0200614,-0.6490736,-2.469833,1.159489
0,2.755553,44,104,497,498,-0.01103733,0.000435363,0.01371209,-1.497842,-2.42125,-1.515014,0.02776016,-0.02655819,-0.03178451,-0.6494939,-2.470995,1.159987
0,2.766664,44,104,497,498,-0.008874089,0.002566485,0.01371338,-1.498034,-2.421408,-1.515315,0.02351,-0.02547176,-0.02855533,-0.6494427,-2.471573,1.160538
0,2.777775,44,104,497,498,-0.00674688,0.004708991,0.01157393,-1.498037,-2.421586,-1.51538,0.02040011,-0.02329056,-0.01682416,-0.6492835,-2.471765,1.160565
0,2.788886,44,104,497,498,-0.004555178,0.00998267,0.01693382,-1.498556,-2.421697,-1.515378,0.01939126,-0.01688137,-0.009371667,-0.6490177,-2.471884,1.160732
0,2.799997,44,104,497,498,-0.002434515,0.01424309,0.01480454,-1.498486,-2.42185,-1.515292,0.02158463,-0.01580801,-0.00299818,-0.6488392,-2.472151,1.160395
0,2.811108,44,104,497,498,0.0008235415,0.02379608,0.0169761,-1.498733,-2.422233,-1.515524,0.0248004,-0.01049364,-0.003036827,-0.6488813,-2.472123,1.160005
0,2.822219,44,104,497,498,0.002930691,0.02702071,0.01377871,-1.498723,-2.422767,-1.515441,0.02370646,-0.005174594,-0.007297573,-0.6489932,-2.471988,1.15997
0,2.83333,44,104,497,498,0.003982141,0.02809776,0.01164716,-1.498833,-2.423098,-1.515489,0.02485752,0.01187603,-0.004163307,-0.6491839,-2.471055,1.158935
0,2.844441,44,104,497,498,0.007215502,0.02808227,0.01376494,-1.499269,-2.423516,-1.51593,0.02164624,0.0214539,-0.01377421,-0.6499801,-2.470552,1.158184
0,2.855552,44,104,497,498,0.008237115,0.02703972,0.009482809,-1.499192,-2.423723,-1.515952,0.02794366,0.02138613,-0.02766608,-0.6507008,-2.470637,1.157748
0,2.866663,44,104,497,498,0.0114528,0.02809551,0.009483762,-1.499615,-2.42407,-1.516385,0.03530823,0.008567389,-0.03193161,-0.6509639,-2.471158,1.15782
0,2.877774,44,104,497,498,0.01674337,0.02490581,0.006218098,-1.499556,-2.42428,-1.516708,0.03962275,-0.005245298,-0.01593916,-0.6506411,-2.471586,1.157653
0,2.888885,44,104,497,498,0.01783478,0.0248826,0.009402306,-1.49972,-2.424603,-1.516896,0.0428881,-0.008415952,-0.004240691,-0.6504356,-2.471672,1.157147
0,2.899997,44,104,497,498,0.02098783,0.02383321,0.005099385,-1.499538,-2.424791,-1.517115,0.04090948,-0.009398647,0.01813448,-0.6498981,-2.47131,1.156416
0,2.911108,44,104,497,498,0.01886764,0.02597319,0.005131702,-1.499635,-2.425194,-1.517269,0.03987733,-0.008316185,0.0223995,-0.6495349,-2.471188,1.155905
0,2.922219,44,104,497,498,0.02101951,0.03235577,0.005154118,-1.49964,-2.425717,-1.517535,0.0387474,0.003342494,0.005331478,-0.6499066,-2.471181,1.155389
0,2.93333,44,104,497,498,0.02316219,0.03663747,0.004117083,-1.499827,-2.426436,-1.517821,0.03333397,0.01289424,-0.01277179,-0.6505969,-2.471,1.154993
0,2.944441,44,104,497,498,0.02530055,0.03879858,0.003058259,-1.500071,-2.427396,-1.518311,0.03330526,0.01395137,-0.01595983,-0.6507258,-2.470759,1.1546
0,2.955552,44,104,497,498,0.02422741,0.03559303,0.004109596,-1.500168,-2.427643,-1.518451,0.02804016,0.01293636,-0.006332872,-0.6506023,-2.470463,1.154184
0,2.966663,44,104,497,498,0.02419886,0.03669645,0.0009206701,-1.500121,-2.428287,-1.518587,0.03025273,0.007660804,0.008565359,-0.6504307,-2.470113,1.153483
0,2.977774,44,104,497,498,0.02310897,0.03350715,-0.0001586834,-1.500114,-2.42851,-1.51873,0.02390739,0.005564565,0.01500137,-0.6501932,-2.470172,1.153256
0,2.988885,44,104,497,498,0.01991278,0.03137761,-0.0001553409,-1.500025,-2.428704,-1.518943,0.02608955,0.007706918,0.02137179,-0.6498816,-2.469696,1.152525
0,2.999996,44,104,497,498,0.01886038,0.03351649,-0.0001365896,-1.49997,-2.429213,-1.519185,0.02184712,0.009862117,0.021397,-0.6497468,-2.469079,1.151744
0,3.011107,44,104,497,498,0.01777475,0.03140049,-0.002272424,-1.499929,-2.429444,-1.519403,0.02393246,0.005579595,0.01713481,-0.6496403,-2.469088,1.151425
0,3.022218,44,104,497,498,0.01671409,0.03351884,-0.001174471,-1.500089,-2.429737,-1.519396,0.02175614,-0.001882695,0.01397062,-0.6495402,-2.469514,1.151501
0,3.033329,44,104,497,498,0.01354484,0.0345779,0.0009695138,-1.499885,-2.430116,-1.519524,0.02489724,-0.01255436,0.01185217,-0.6493186,-2.470092,1.151605
0,3.04444,44,104,497,498,0.01352358,0.0377779,-0.003273534,-1.499684,-2.430252,-1.519696,0.02058662,-0.02105452,0.01083901,-0.6491551,-2.47051,1.151968
0,3.055551,44,104,497,498,0.009303473,0.03775041,0.002080189,-1.499762,-2.430621,-1.519643,0.02055605,-0.02532236,0.008721966,-0.6489421,-2.471094,1.152226
0,3.066662,44,104,497,498,0.008216472,0.0388362,-0.00112214,-1.499368,-2.431,-1.51969,0.01513629,-0.02003986,-0.008304519,-0.6493378,-2.471793,1.152689
0,3.077773,44,104,497,498,0.003944742,0.03673564,-0.001099848,-1.499413,-2.431578,-1.519544,0.01190342,-0.01260079,-0.01789379,-0.6497719,-2.472022,1.152822
0,3.088884,44,104,497,498,0.002858446,0.03568922,-0.003229217,-1.499334,-2.431953,-1.519525,-0.0008645076,0.006597937,-0.02425272,-0.6502923,-2.471472,1.152941
0,3.099995,44,104,497,498,0.002849454,0.03357248,-0.004323508,-1.499082,-2.432376,-1.519634,-0.002930967,0.01088892,-0.01678573,-0.6502193,-2.471071,1.152738
0,3.111106,44,104,497,498,-0.002508627,0.02934443,-0.006440781,-1.498971,-2.432601,-1.519447,-0.00603339,0.008817529,-0.001843513,-0.6499295,-2.470763,1.152633
0,3.122217,44,104,497,498,-0.004616932,0.02292235,-0.005378812,-1.499261,-2.432233,-1.519867,-0.008080221,0.009923339,0.009892994,-0.6494885,-2.470355,1.152434
0,3.133328,44,104,497,498,-0.006795143,0.01656085,-0.008602702,-1.499086,-2.432254,-1.519729,-0.008070524,0.006737632,0.01309902,-0.6492856,-2.470201,1.152401
0,3.144439,44,104,497,498,-0.01321565,0.006981612,-0.0107628,-1.498705,-2.431712,-1.519738,-0.001706407,0.004567883,0.00879824,-0.649357,-2.470289,1.152172
0,3.15555,44,104,497,498,-0.01751032,-0.001555673,-0.009718993,-1.498667,-2.431198,-1.519276,0.002426078,-0.01039576,-0.001836021,-0.6494225,-2.471268,1.15281
0,3.166661,44,104,497,498,-0.02073071,-0.003660288,-0.01183849,-1.49847,-2.431128,-1.518972,0.006613115,-0.02427299,-0.007150806,-0.6494268,-2.472248,1.153199
0,3.177772,44,104,497,498,-0.02392646,-0.002558839,-0.011801,-1.498407,-2.431508,-1.518553,0.008694567,-0.02962084,-0.01140952,-0.6494518,-2.473127,1.15374
0,3.188883,44,104,497,498,-0.02817005,-0.002560024,-0.00963556,-1.498354,-2.431487,-1.518114,0.004419507,-0.02640998,-0.01244535,-0.6493878,-2.473328,1.154245
0,3.199994,44,104,497,498,-0.0324629,-0.0004021373,-0.01275678,-1.498462,-2.431384,-1.517494,-0.0008317195,-0.01571656,-0.007116069,-0.6493858,-2.473026,1.154159
0,3.211105,44,104,497,498,-0.03245212,0.00279365,-0.01273389,-1.498316,-2.431515,-1.517133,-0.005005347,-0.01035499,0.0003481586,-0.6492456,-2.472973,1.154038
0,3.222216,44,104,497,498,-0.03246751,0.003873157,-0.01594127,-1.497775,-2.431463,-1.51688,-0.009213299,-0.007120465,0.006749722,-0.6491572,-2.4729,1.154209
0,3.233327,44,104,497,498,-0.03141969,0.003884954,-0.01808048,-1.497522,-2.431525,-1.516557,-0.0113487,-0.01030489,0.0078395,-0.6489772,-2.473132,1.154585
0,3.244438,44,104,497,498,-0.03144617,-0.002502666,-0.01812044,-1.497402,-2.431412,-1.516132,-0.009202872,-0.01032204,0.007813791,-0.6489586,-2.473583,1.154732
0,3.255549,44,104,497,498,-0.03360759,-0.008900002,-0.01920567,-1.497236,-2.431092,-1.515792,-0.01131818,-0.01775109,0.01424323,-0.6485042,-2.473964,1.155232
0,3.26666,44,104,497,498,-0.03041458,-0.01317877,-0.01820247,-1.497004,-2.43069,-1.515525,-0.008092259,-0.02305143,0.02276386,-0.647961,-2.473921,1.155306
0,3.277771,44,104,497,498,-0.02937877,-0.01636478,-0.01929959,-1.496754,-2.430544,-1.5151,-0.002772463,-0.03051391,0.02490055,-0.6472845,-2.474131,1.155247
0,3.288882,44,104,497,498,-0.03047257,-0.01846357,-0.02250193,-1.496412,-2.430363,-1.514805,-0.002818611,-0.03691553,0.02172471,-0.646909,-2.474865,1.155866
0,3.299993,44,104,497,498,-0.02513317,-0.01954733,-0.02255228,-1.496187,-2.430139,-1.514922,-0.002841613,-0.0348092,0.01639076,-0.6467189,-2.475515,1.156362
0,3.311104,44,104,497,498,-0.02405558,-0.01849333,-0.02148812,-1.495972,-2.42997,-1.514686,-0.003939875,-0.02631262,0.006783928,-0.6468301,-2.475773,1.156635
0,3.322215,44,104,497,498,-0.02405828,-0.01633332,-0.02571408,-1.495863,-2.429838,-1.514771,-0.007123496,-0.01565922,0.0003661448,-0.6472211,-2.475701,1.156497
0,3.333326,44,104,497,498,-0.02083816,-0.01104331,-0.02357689,-1.495589,-2.429715,-1.514478,-0.01245862,-0.01032561,-0.003875289,-0.6473729,-2.475761,1.156819
0,3.344437,44,104,497,498,-0.01869416,-0.01107955,-0.02146428,-1.495382,-2.429416,-1.514297,-0.01451626,-0.0007172711,0.001429088,-0.6473537,-2.475524,1.156841
0,3.355548,44,104,497,498,-0.01338751,-0.008947236,-0.0236108,-1.495222,-2.429431,-1.514155,-0.01658664,0.003576715,0.008874668,-0.6473372,-2.475211,1.156924
0,3.366659,44,104,497,498,-0.01233771,-0.005731892,-0.02679235,-1.494842,-2.429472,-1.514036,-0.0144013,0.000401374,0.01952526,-0.6467924,-2.475106,1.157026
0,3.37777,44,104,497,498,-0.01123153,-0.005745171,-0.02360719,-1.494631,-2.429597,-1.514126,-0.01437369,-0.007028706,0.02700225,-0.6463103,-2.475153,1.15714
0,3.388881,44,104,497,498,-0.01226502,-0.001495949,-0.0214374,-1.494477,-2.429702,-1.513961,-0.009078913,-0.01344408,0.02592069,-0.645947,-2.475469,1.15735
0,3.399992,44,104,497,498,-0.009035464,0.001669515,-0.02036154,-1.49446,-2.42963,-1.514149,-0.00811791,-0.02519605,0.01848499,-0.6457888,-2.476613,1.158454
0,3.411103,44,104,497,498,-0.01328217,0.005944639,-0.02029599,-1.494243,-2.429836,-1.51386,-0.003891439,-0.02097445,0.01098576,-0.645791,-2.476877,1.158609
0,3.422215,44,104,497,498,-0.01116183,0.005945743,-0.02031181,-1.494047,-2.430018,-1.513645,-0.007107306,-0.01988067,0.008878083,-0.6457297,-2.476527,1.158659
0,3.433326,44,104,497,498,-0.01220375,0.01020304,-0.01920749,-1.493893,-2.430276,-1.513468,-0.009202296,-0.01241223,0.009934391,-0.6456195,-2.476352,1.158672
0,3.444437,44,104,497,498,-0.008992439,0.006969457,-0.01606663,-1.493715,-2.430215,-1.513442,-0.01018676,-0.008114088,0.01632209,-0.6453345,-2.475751,1.158005
0,3.455548,44,104,497,498,-0.009001313,0.002696868,-0.01503091,-1.493587,-2.430096,-1.513304,-0.01228251,-0.002772909,0.01845045,-0.6451481,-2.4754,1.157934
0,3.466659,44,104,497,498,-0.01008363,-0.001549649,-0.01503841,-1.493605,-2.430131,-1.513134,-0.01653595,0.0004366972,0.0163368,-0.6451284,-2.475148,1.157863
0,3.47777,44,104,497,498,-0.007986978,-0.0133064,-0.01193535,-1.493633,-2.429568,-1.512847,-0.01970411,0.002580978,0.01848001,-0.6449164,-2.475018,1.157974
0,3.488881,44,104,497,498,-0.005851196,-0.01437154,-0.01196754,-1.493392,-2.429499,-1.512961,-0.0154471,0.001499379,0.01845434,-0.6447178,-2.474911,1.157932
0,3.499992,44,104,497,498,-0.006892169,-0.01650595,-0.009855377,-1.493154,-2.429379,-1.513077,-0.02187393,0.0004504137,0.01317755,-0.6447263,-2.474738,1.158146
0,3.511103,44,104,497,498,-0.004749743,-0.02079705,-0.00670775,-1.493149,-2.429003,-1.513121,-0.02185941,0.0004569963,0.01530808,-0.6445143,-2.474569,1.15825
0,3.522214,44,104,497,498,-0.004766482,-0.02719298,-0.006754526,-1.493019,-2.42847,-1.513167,-0.01655368,0.002558935,0.01207487,-0.644445,-2.474285,1.158158
0,3.533325,44,104,497,498,-0.004752525,-0.0293364,-0.00463897,-1.49301,-2.42813,-1.513198,-0.02296217,0.005766075,0.007847347,-0.6445382,-2.474092,1.158441
0,3.544436,44,104,497,498,-0.005815221,-0.02825044,-0.005682494,-1.492988,-2.427992,-1.51322,-0.01872052,0.01213421,0.003550246,-0.6445633,-2.473406,1.1582
0,3.555547,44,104,497,498,-0.00582528,-0.03038364,-0.005697367,-1.492903,-2.427548,-1.513149,-0.02085489,0.02064827,-0.001788009,-0.6448983,-2.472795,1.158015
0,3.566658,44,104,497,498,-0.006883378,-0.03357799,-0.003566577,-1.493109,-2.427273,-1.513072,-0.02511777,0.02387086,-0.001756928,-0.6449462,-2.471916,1.157919
0,3.577769,44,104,497,498,-0.01114812,-0.03250936,-0.003518819,-1.493101,-2.42679,-1.51277,-0.02616495,0.02601052,-0.001751739,-0.6450688,-2.471269,1.157555
0,3.58888,44,104,497,498,-0.009021148,-0.03358166,-0.003543957,-1.493038,-2.426384,-1.512767,-0.02188149,0.01856006,0.005699196,-0.6448232,-2.471024,1.157482
0,3.599991,44,104,497,498,-0.009024471,-0.03465814,-0.002497816,-1.492851,-2.425935,-1.51257,-0.01973855,0.01536127,0.008900705,-0.6445318,-2.470791,1.157412
0,3.611102,44,104,497,498,-0.01114069,-0.03039008,-0.002449688,-1.492822,-2.425715,-1.512405,-0.02083379,0.013225,0.005718756,-0.6445857,-2.470677,1.15759
0,3.622213,44,104,497,498,-0.0122026,-0.0240048,-0.002397384,-1.492748,-2.425486,-1.512,-0.02085682,0.01746002,0.001449424,-0.644682,-2.470526,1.157857
0,3.633324,44,104,497,498,-0.01324426,-0.01974763,-0.001289576,-1.492821,-2.425367,-1.511836,-0.02515019,0.01852542,-0.00385113,-0.6449425,-2.470282,1.158058
0,3.644435,44,104,497,498,-0.01539007,-0.01866917,-0.002330335,-1.492744,-2.425147,-1.511488,-0.02304252,0.01849853,-0.0060031,-0.6451401,-2.470405,1.158478
0,3.655546,44,104,497,498,-0.01640292,-0.01974021,0.001917533,-1.492683,-2.42521,-1.511579,-0.02305242,0.01211338,-0.003852689,-0.6450933,-2.470465,1.158787
0,3.666657,44,104,497,498,-0.01749083,-0.01864839,-0.001261753,-1.492564,-2.425042,-1.511373,-0.02198604,0.005732978,-0.0006537414,-0.6451215,-2.470546,1.159016
0,3.677768,44,104,497,498,-0.01856077,-0.01757086,-0.002309027,-1.492516,-2.424893,-1.511163,-0.0230481,0.004675062,0.0004220833,-0.6450996,-2.470504,1.159286
0,3.688879,44,104,497,498,-0.01858507,-0.01860725,-0.0044303,-1.492662,-2.424853,-1.51092,-0.02409222,0.007892765,0.004689403,-0.6448956,-2.469914,1.159434
0,3.69999,44,104,497,498,-0.01854091,-0.0154349,-0.002282107,-1.492612,-2.42465,-1.51096,-0.02306287,0.007850362,0.0004248628,-0.6448408,-2.470359,1.16012
0,3.711101,44,104,497,498,-0.01961493,-0.01542367,-0.00333862,-1.492522,-2.424479,-1.510723,-0.02733993,0.01317662,-0.004889099,-0.645114,-2.470052,1.160268
0,3.722212,44,104,497,498,-0.01749202,-0.01433693,-0.005470125,-1.492512,-2.424537,-1.510681,-0.02415237,0.01209927,-0.003837495,-0.6450741,-2.46993,1.160532
0,3.733323,44,104,497,498,-0.01534935,-0.01221183,-0.005477404,-1.492375,-2.424502,-1.510634,-0.02098323,0.008884598,-0.005979761,-0.6451875,-2.470007,1.160749
0,3.744434,44,104,497,498,-0.01640458,-0.008994281,-0.005436194,-1.492469,-2.424743,-1.510387,-0.02310679,-0.0006726999,-0.001691764,-0.6452914,-2.470308,1.161068
0,3.755545,44,104,497,498,-0.01534552,-0.006865901,-0.006505274,-1.492216,-2.424637,-1.51019,-0.01882072,-0.00174123,0.002543586,-0.6451539,-2.470292,1.161144
0,3.766656,44,104,497,498,-0.01214219,-0.009009346,-0.005481903,-1.492179,-2.424547,-1.510227,-0.02100406,-0.004965978,-0.002755813,-0.6451257,-2.471043,1.162102
0,3.777767,44,104,497,498,-0.00998363,-0.006899462,-0.003361081,-1.492092,-2.424546,-1.510214,-0.01895127,-0.01351863,-0.01126821,-0.6453212,-2.471755,1.162611
0,3.788878,44,104,497,498,-0.009947455,-0.009037037,-0.001240047,-1.492217,-2.424504,-1.510459,-0.01471521,-0.01248277,-0.01556158,-0.6455289,-2.472092,1.162918
0,3.799989,44,104,497,498,-0.005723116,-0.01223831,-0.002360954,-1.492147,-2.424299,-1.510277,-0.01683974,-0.008220827,-0.01661587,-0.6455609,-2.472143,1.163257
0,3.8111,44,104,497,498,-0.002518612,-0.0122565,-0.001322008,-1.492154,-2.424175,-1.510333,-0.01465739,-0.006079046,-0.01024532,-0.6454922,-2.472103,1.163309
0,3.822211,44,104,497,498,-0.001466026,-0.01439776,-0.0002758752,-1.492261,-2.423947,-1.510152,-0.01456394,0.0003501177,0.001465612,-0.6450858,-2.471398,1.163092
0,3.833322,44,104,497,498,0.0006835829,-0.01655837,0.00288695,-1.492362,-2.423687,-1.510261,-0.01452847,-0.001760883,0.0078638,-0.6448184,-2.471334,1.163199
0,3.844433,44,104,497,498,0.009217938,-0.01875238,0.008113371,-1.492335,-2.423471,-1.51023,-0.01026131,-0.003924998,0.006755265,-0.6449617,-2.472034,1.163426
0,3.855544,44,104,497,498,0.007097795,-0.02194076,0.01024669,-1.492612,-2.423348,-1.510316,-0.004976299,-0.007154282,0.002467702,-0.6449761,-2.472365,1.16361
0,3.866655,44,104,497,498,0.01031459,-0.02090139,0.01235851,-1.492776,-2.423141,-1.510538,-0.000748293,-0.006114338,-0.003964569,-0.6453351,-2.472407,1.163436
0,3.877766,44,104,497,498,0.01031085,-0.02088116,0.01235586,-1.492864,-2.423208,-1.51058,-0.0008380339,-0.005077571,-0.01355349,-0.6456722,-2.47267,1.164091
0,3.888877,44,104,497,498,0.01356973,-0.01774205,0.01874396,-1.493225,-2.423097,-1.510845,0.001302397,0.001299452,-0.01571818,-0.6459572,-2.472526,1.163903
0,3.899988,44,104,497,498,0.01569799,-0.01774927,0.01871793,-1.493283,-2.422881,-1.511042,0.004506905,0.005538669,-0.01681323,-0.6461021,-2.472504,1.163764
0,3.911099,44,104,497,498,0.01788321,-0.009257261,0.02195744,-1.493632,-2.423002,-1.511287,0.008792385,0.011914,-0.01686203,-0.6463817,-2.472126,1.163227
0,3.92221,44,104,497,498,0.02218324,-0.003980119,0.02514785,-1.493868,-2.422884,-1.511585,0.01198731,0.0193412,-0.01905796,-0.6470081,-2.47213,1.163226
0,3.933321,44,104,497,498,0.02113741,-0.0007885908,0.02624484,-1.494194,-2.422946,-1.51179,0.01522387,0.02998175,-0.01911244,-0.6474464,-2.471334,1.162323
0,3.944432,44,104,497,498,0.02116303,0.0002737027,0.02837821,-1.49452,-2.423122,-1.512064,0.02054413,0.03316069,-0.01915315,-0.647766,-2.470654,1.161693
0,3.955544,44,104,497,498,0.02119333,0.00560356,0.02945782,-1.494566,-2.4235,-1.512335,0.02484246,0.0352878,-0.01492767,-0.6479934,-2.470008,1.160792
0,3.966655,44,104,497,498,0.02444704,0.009815668,0.03478836,-1.495112,-2.4237,-1.512673,0.02693833,0.025685,-0.01706215,-0.6484733,-2.470368,1.160498
0,3.977766,44,104,497,498,0.02662263,0.01829509,0.03589175,-1.495449,-2.423689,-1.51312,0.03433705,0.01286398,-0.01921247,-0.648762,-2.470975,1.160336
0,3.988877,44,104,497,498,0.02877095,0.0236144,0.03591256,-1.495875,-2.424066,-1.513457,0.03848852,0.003227688,-0.0298649,-0.6492329,-2.471705,1.160398
0,3.999988,44,104,497,498,0.0298696,0.0310633,0.03701506,-1.496239,-2.424611,-1.513771,0.05014446,-0.004283413,-0.03525893,-0.649741,-2.472054,1.159864
0,4.011099,44,104,497,498,0.03202146,0.0374479,0.03704353,-1.49668,-2.425174,-1.51413,0.05330227,-0.007504426,-0.03952721,-0.6501974,-2.472863,1.159724
1,4.02221,44,104,497,498,0.03310138,0.04916941,0.03499619,-1.497124,-2.425866,-1.51437,0.05762571,-0.008565962,-0.03424178,-0.6505713,-2.473236,1.158843
2,4.033321,44,104,497,498,0.03417054,0.05557285,0.03290301,-1.497468,-2.426644,-1.514725,0.06087651,-0.007490292,-0.02680996,-0.6506422,-2.473415,1.158229
3,4.044433,44,104,497,498,0.03098725,0.06839432,0.02983366,-1.497918,-2.427748,-1.514848,0.0641422,-0.001091897,-0.01938542,-0.6505847,-2.473267,1.157429
4,4.055544,44,104,497,498,0.02888313,0.07587294,0.02777056,-1.498193,-2.428725,-1.515308,0.06630268,0.001040265,-0.0162107,-0.6506838,-2.473247,1.156617
5,4.066655,44,104,497,498,0.02348883,0.07915553,0.01825021,-1.498221,-2.429684,-1.515381,0.06952202,0.007417642,-0.01518455,-0.6508712,-2.473104,1.155768
6,4.077766,44,104,497,498,0.0223965,0.08344165,0.01508384,-1.49823,-2.430655,-1.515323,0.07271394,0.00845778,-0.01842099,-0.6513793,-2.473402,1.154933
7,4.088878,44,104,497,498,0.02133358,0.09199032,0.01195844,-1.498356,-2.431881,-1.515441,0.07904321,-0.002229348,-0.02162728,-0.6515386,-2.47406,1.154395
8,4.099989,44,104,497,498,0.02025058,0.09307753,0.009849269,-1.498577,-2.432957,-1.515522,0.08325861,-0.01502135,-0.02269284,-0.6517996,-2.474826,1.153814
9,4.1111,44,104,497,498,0.01916256,0.09416942,0.006669908,-1.498616,-2.434027,-1.515622,0.08642513,-0.02461792,-0.02161976,-0.6517938,-2.475725,1.153469
10,4.122211,44,104,497,498,0.01593633,0.09848731,0.002459774,-1.498528,-2.435482,-1.515477,0.08958307,-0.02997153,-0.02374627,-0.6517138,-2.476665,1.153175
11,4.133323,44,104,497,498,0.01807108,0.1038093,0.001411575,-1.498548,-2.436702,-1.515576,0.08634658,-0.04061209,-0.02369162,-0.6516536,-2.477953,1.153331
12,4.144434,44,104,497,498,0.01488886,0.1069997,0.0004127026,-1.498805,-2.43764,-1.515748,0.0821099,-0.04166488,-0.01939049,-0.6513597,-2.479058,1.153458
13,4.155545,44,104,497,498,0.01378341,0.1070281,-0.003842418,-1.498685,-2.438763,-1.515706,0.08101967,-0.04060862,-0.02364761,-0.6515599,-2.479966,1.153287
14,4.166656,44,104,497,498,0.01063021,0.1102086,0.001548437,-1.49914,-2.440225,-1.515482,0.07671909,-0.04168605,-0.03002178,-0.6519834,-2.481343,1.153502
15,4.177768,44,104,497,498,0.01167001,0.1080744,0.0004591155,-1.499159,-2.441254,-1.515433,0.07141711,-0.04059035,-0.02680029,-0.6520728,-2.482151,1.153484
16,4.188879,44,104,497,498,0.01058548,0.1027509,-0.0006387876,-1.499125,-2.442161,-1.515575,0.06612887,-0.03629897,-0.02358132,-0.6521229,-2.482692,1.153329
17,4.19999,44,104,497,498,0.0116488,0.1016873,0.001483033,-1.499391,-2.443539,-1.515399,0.06401485,-0.0373352,-0.01822635,-0.6518832,-2.483173,1.153254
18,4.211102,44,104,497,498,0.007320883,0.09214471,-0.002811885,-1.499285,-2.444314,-1.515311,0.06511241,-0.03838842,-0.012904,-0.6517006,-2.483832,1.153015
19,4.222213,44,104,497,498,0.008366373,0.08360652,-0.002876341,-1.499354,-2.44484,-1.515515,0.06400135,-0.04585309,-0.01393767,-0.6515482,-2.485214,1.153574
20,4.233324,44,104,497,498,0.007266443,0.07829875,-0.005044007,-1.499173,-2.445592,-1.515522,0.06505754,-0.05011509,-0.01286662,-0.6513868,-2.486287,1.153697
21,4.244435,44,104,497,498,0.007217396,0.06979231,-0.008298634,-1.499048,-2.446073,-1.515619,0.06710236,-0.05121808,-0.02460098,-0.6518118,-2.487416,1.153827
22,4.255547,44,104,497,498,0.004000351,0.06448861,-0.009373622,-1.499003,-2.446744,-1.515626,0.06385474,-0.05335577,-0.03096426,-0.6520068,-2.488733,1.154266
23,4.266658,44,104,497,498,0.005003991,0.05811145,-0.01687016,-1.498826,-2.446733,-1.516011,0.06592543,-0.05657408,-0.03628953,-0.6521634,-2.490106,1.154752
24,4.277769,44,104,497,498,0.008157514,0.04638661,-0.01910326,-1.498673,-2.446802,-1.516366,0.06273461,-0.05336919,-0.03734287,-0.6523701,-2.491155,1.154978
25,4.28888,44,104,497,498,0.00906287,0.03263482,-0.03305988,-1.497924,-2.446841,-1.516497,0.0489502,-0.03096677,-0.0426461,-0.6530103,-2.491248,1.154676
26,4.299992,44,104,497,498,0.006730946,0.01033742,-0.04705504,-1.496925,-2.445929,-1.516382,0.04462317,-0.01608846,-0.06184116,-0.6542662,-2.491639,1.154462
27,4.311103,44,104,497,498,-0.0009387545,-0.01402353,-0.06314877,-1.495739,-2.445193,-1.516221,0.04407923,-0.004634097,-0.148164,-0.6580223,-2.493817,1.155694
28,4.322214,44,104,497,498,-0.01514405,-0.0521219,-0.09102586,-1.493712,-2.4439,-1.515755,0.04010229,-0.01028326,-0.2589149,-0.6631148,-2.498138,1.158825
29,4.333325,44,104,497,498,-0.03893974,-0.08593735,-0.1198484,-1.491449,-2.442047,-1.514725,0.06500927,0.02335393,-0.3742403,-0.6697211,-2.500942,1.159709
30,4.344437,44,104,497,498,-0.07005426,-0.07496104,-0.1472131,-1.4892,-2.441955,-1.51282,0.09161678,0.07003306,-0.4043933,-0.6753782,-2.5015,1.158418
31,4.355548,44,104,497,498,-0.09681249,-0.05020894,-0.1713087,-1.486881,-2.442023,-1.51103,0.08664596,0.08723597,-0.3617913,-0.6783103,-2.501007,1.157336
32,4.366659,44,104,497,498,-0.151276,0.01739625,-0.2140517,-1.483476,-2.444218,-1.507711,0.06300212,0.08771443,-0.2359229,-0.6780238,-2.499038,1.155721
33,4.37777,44,104,497,498,-0.2111689,0.09367935,-0.2737351,-1.479223,-2.447611,-1.503776,0.0294995,0.008348726,-0.1076074,-0.6755566,-2.50053,1.157107
34,4.388882,44,104,497,498,-0.2863447,0.1468023,-0.3675584,-1.472998,-2.450799,-1.498463,0.03457354,-0.08063571,0.06201602,-0.6696268,-2.502071,1.157865
35,4.399993,44,104,497,498,-0.3625491,0.2116733,-0.4634089,-1.465952,-2.455239,-1.492404,0.09567883,-0.07749629,0.1169914,-0.6673786,-2.50126,1.154622
36,4.411104,44,104,497,498,-0.4204172,0.25595,-0.5212157,-1.459107,-2.459574,-1.485799,0.1150848,-0.06257771,0.1423813,-0.6651948,-2.50026,1.152032
37,4.422215,44,104,497,498,-0.5135631,0.3239846,-0.6020005,-1.450794,-2.466058,-1.476756,0.1004002,-0.05178908,0.1680058,-0.6631244,-2.499106,1.150346
38,4.433327,44,104,497,498,-0.5821084,0.3672294,-0.6607909,-1.442423,-2.471866,-1.467551,0.1002091,-0.1018575,0.16816,-0.6604788,-2.501437,1.15111
39,4.444438,44,104,497,498,-0.6680189,0.3980811,-0.7568051,-1.43215,-2.478823,-1.457014,0.09887481,-0.1615274,0.1630334,-0.6575196,-2.505507,1.153323
40,4.455549,44,104,497,498,-0.74989,0.4247843,-0.8774028,-1.419821,-2.485726,-1.445566,0.09195569,-0.2595765,0.1410093,-0.6544132,-2.513132,1.158555
41,4.46666,44,104,497,498,-0.8307254,0.4162762,-0.9865545,-1.406564,-2.49222,-1.433069,0.06911904,-0.3437236,0.1179784,-0.6514891,-2.52174,1.165011
42,4.477772,44,104,497,498,-0.8813685,0.4020419,-1.04697,-1.39427,-2.498883,-1.420641,0.04760928,-0.4107321,0.125787,-0.6476035,-2.530162,1.171744
43,4.488883,44,104,497,498,-0.9599641,0.3709821,-1.134976,-1.379842,-2.504528,-1.406645,0.03599209,-0.4489268,0.162204,-0.6427326,-2.537624,1.177624
44,4.499994,44,104,497,498,-1.040716,0.3228671,-1.213486,-1.365176,-2.510007,-1.391557,0.00551036,-0.4986013,0.2531063,-0.635328,-2.544211,1.183765
45,4.511106,44,104,497,498,-1.136462,0.2642224,-1.299396,-1.34945,-2.515114,-1.375286,-0.01295729,-0.5184194,0.3683477,-0.6261784,-2.549562,1.188779
46,4.522217,44,104,497,498,-1.24594,0.1969318,-1.371432,-1.332815,-2.51911,-1.357628,-0.03940903,-0.466139,0.3630706,-0.6212036,-2.553454,1.192747
47,4.533328,44,104,497,498,-1.350165,0.1287169,-1.45421,-1.31506,-2.523607,-1.339158,-0.09810004,-0.4064096,0.317484,-0.6179119,-2.557362,1.198644
48,4.544439,44,104,497,498,-1.414652,0.08135699,-1.5041,-1.297515,-2.527718,-1.320619,-0.1311794,-0.3924839,0.3016862,-0.6137531,-2.561979,1.204747
49,4.555551,44,104,497,498,-1.500678,0.020496,-1.579506,-1.278451,-2.532006,-1.300698,-0.1631148,-0.4157535,0.3158117,-0.6082436,-2.568091,1.212021
50,4.566662,44,104,497,498,-1.597268,-0.002049625,-1.656652,-1.25859,-2.537313,-1.278739,-0.1852494,-0.4963842,0.3961096,-0.5994653,-2.576792,1.221845
51,4.577773,44,104,497,498,-1.668015,0.004083246,-1.712503,-1.239361,-2.544609,-1.256275,-0.1841552,-0.5697481,0.4463954,-0.5908638,-2.586917,1.232515
52,4.588884,44,104,497,498,-1.796473,0.04897633,-1.810218,-1.218521,-2.554221,-1.230076,-0.2181643,-0.5355511,0.4390648,-0.584705,-2.593005,1.240817
53,4.599996,44,104,497,498,-1.86273,0.0644034,-1.845814,-1.198934,-2.563189,-1.20481,-0.2669194,-0.4682659,0.4381231,-0.57918,-2.595998,1.247547
54,4.611107,44,104,497,498,-1.957692,0.09416206,-1.889585,-1.179658,-2.574332,-1.177502,-0.3616174,-0.4199962,0.4279684,-0.5739101,-2.599139,1.25673
55,4.622218,44,104,497,498,-2.061143,0.1373728,-1.921445,-1.160286,-2.58662,-1.147101,-0.4333176,-0.4868563,0.4212077,-0.5672842,-2.609683,1.272298
56,4.633329,44,104,497,498,-2.193353,0.3206623,-2.005209,-1.141951,-2.6063,-1.112113,-0.4710446,-0.621997,0.4304017,-0.5594683,-2.625551,1.291502
57,4.644441,44,104,497,498,-2.261328,0.3741406,-2.00212,-1.12476,-2.623088,-1.078121,-0.4914777,-0.7028291,0.4478318,-0.5515598,-2.640992,1.310616
58,4.655552,44,104,497,498,-2.313041,0.4614719,-1.970049,-1.110269,-2.641377,-1.043454,-0.5204276,-0.7857422,0.4717405,-0.5430526,-2.658284,1.332135
59,4.666663,44,104,497,498,-2.372161,0.5530856,-1.942238,-1.096814,-2.661965,-1.006191,-0.5716544,-0.8196183,0.4775196,-0.5354232,-2.675008,1.354204
60,4.677774,44,104,497,498,-2.426168,0.6320173,-1.930481,-1.084144,-2.683272,-0.9684958,-0.6453001,-0.8449577,0.4653067,-0.5288234,-2.691959,1.377347
61,4.688886,44,104,497,498,-2.482241,0.6832019,-1.906195,-1.072544,-2.705008,-0.929505,-0.7115961,-0.8682119,0.4423932,-0.5227343,-2.710475,1.4029
62,4.699997,44,104,497,498,-2.518283,0.6917906,-1.885526,-1.061435,-2.726515,-0.8903959,-0.740429,-0.8894393,0.4383831,-0.5164503,-2.729528,1.427882
63,4.711108,44,104,497,498,-2.555335,0.6778104,-1.851236,-1.051131,-2.747382,-0.850767,-0.7897206,-0.9212844,0.4143147,-0.5110883,-2.750968,1.45664
64,4.722219,44,104,497,498,-2.580747,0.629855,-1.819458,-1.040719,-2.767519,-0.811682,-0.8280099,-0.9178789,0.4273493,-0.505004,-2.770298,1.483814
65,4.733331,44,104,497,498,-2.597783,0.5850773,-1.799386,-1.030697,-2.787889,-0.7720387,-0.8991542,-0.9047552,0.4501382,-0.4989017,-2.789286,1.511787
66,4.744442,44,104,497,498,-2.609548,0.4528432,-1.7545,-1.019638,-2.805031,-0.7339209,-0.9943223,-0.8794455,0.5070491,-0.4923572,-2.808473,1.540941
67,4.755553,44,104,497,498,-2.602186,0.3557474,-1.726529,-1.008948,-2.822875,-0.6959298,-1.052807,-0.8591057,0.5511694,-0.4843145,-2.827258,1.57183
68,4.766665,44,104,497,498,-2.573534,0.1847376,-1.667355,-0.9966049,-2.836425,-0.6607878,-1.107697,-0.8374013,0.6132686,-0.476072,-2.846322,1.602487
69,4.777776,44,104,497,498,-2.544899,0.07389766,-1.628899,-0.9854346,-2.851795,-0.6250594,-1.144748,-0.8562797,0.6657161,-0.4681752,-2.869742,1.636978
70,4.788887,44,104,497,498,-2.48969,-0.08111903,-1.584751,-0.9718221,-2.864003,-0.5920372,-1.165207,-0.9052164,0.6617382,-0.4618342,-2.896094,1.674017
71,4.799998,44,104,497,498,-2.422594,-0.1989165,-1.538296,-0.958991,-2.876738,-0.5596473,-1.1624,-0.954321,0.6330967,-0.4571758,-2.924426,1.712124
72,4.81111,44,104,497,498,-2.35878,-0.2610459,-1.524389,-0.9465013,-2.891084,-0.5267988,-1.159398,-0.9820682,0.620374,-0.4526538,-2.953184,1.750735
73,4.822221,44,104,497,498,-2.283205,-0.3566138,-1.478733,-0.9338784,-2.904285,-0.4947008,-1.1874,-0.9305539,0.707779,-0.4444475,-2.978207,1.787508
74,4.833332,44,104,497,498,-2.232054,-0.4200885,-1.446525,-0.9214122,-2.917539,-0.4626976,-1.19546,-0.8580023,0.734252,-0.4375222,-3.000368,1.821176
75,4.844443,44,104,497,498,-2.149997,-0.5091115,-1.406348,-0.9081225,-2.929751,-0.4333911,-1.210415,-0.7080393,0.6444072,-0.4342082,-3.013258,1.846757
76,4.855555,44,104,497,498,-2.09463,-0.534199,-1.37904,-0.89806,-2.942626,-0.4054396,-1.213602,-0.6804001,0.6262475,-0.4301623,-3.033421,1.878516
77,4.866666,44,104,497,498,-2.010165,-0.5551164,-1.334109,-0.8866297,-2.955427,-0.3772932,-1.212419,-0.6079081,0.6111118,-0.4255822,-3.048831,1.906241
78,4.877777,44,104,497,498,-1.920181,-0.5420794,-1.293329,-0.8762892,-2.969295,-0.3490126,-1.220633,-0.5778999,0.6493697,-0.4198772,-3.069457,1.939171
79,4.888888,44,104,497,498,-1.830214,-0.5204777,-1.255689,-0.866551,-2.983619,-0.3211612,-1.182948,-0.5714953,0.7044925,-0.4134275,-3.092145,1.972075
80,4.9,44,104,497,498,-1.746772,-0.5050778,-1.221105,-0.8576561,-2.997555,-0.2945946,-1.106267,-0.5079339,0.6749488,-0.4093012,-3.108034,1.997084
81,4.911111,44,104,497,498,-1.70285,-0.4937117,-1.196878,-0.8491127,-3.011856,-0.2673382,-1.115905,-0.4612173,0.6291127,-0.405837,-3.123363,2.023602
82,4.922222,44,104,497,498,-1.639597,-0.4750469,-1.161138,-0.8412404,-3.026339,-0.240762,-1.132226,-0.4582496,0.5737129,-0.4041997,-3.141137,2.052608
83,4.933333,44,104,497,498,-1.597749,-0.4551764,-1.133628,-0.8341532,-3.040516,-0.2146625,-1.128144,-0.4913285,0.5631434,-0.4018524,3.120336,2.084918
84,4.944445,44,104,497,498,-1.521504,-0.4015593,-1.086977,-0.8286383,-3.054279,-0.1902179,-1.085858,-0.5651007,0.55029,-0.4010065,3.09404,2.119673
85,4.955556,44,104,497,498,-1.494597,-0.3762518,-1.070022,-0.822822,-3.069173,-0.1639517,-1.032601,-0.6345535,0.5840688,-0.3998992,3.06523,2.155735
86,4.966667,44,104,497,498,-1.452599,-0.3297979,-1.035911,-0.818799,-3.083076,-0.1393946,-0.9982815,-0.6377814,0.6200681,-0.3974225,3.03834,2.190755
87,4.977778,44,104,497,498,-1.425736,-0.2991432,-1.018842,-0.8148064,-3.097701,-0.113954,-0.9822156,-0.6231946,0.6080623,-0.3967695,3.014955,2.222138
88,4.98889,44,104,497,498,-1.35705,-0.2325289,-0.9869242,-0.8129688,-3.111396,-0.09137093,-0.934725,-0.6160821,0.5405976,-0.3975934,2.994728,2.250165
89,5.000001,44,104,497,498,-1.316391,-0.1976451,-0.9773665,-0.8106045,-3.12597,-0.06736732,-0.9009701,-0.6248828,0.4976749,-0.3990651,2.973051,2.27925
90,5.011112,44,104,497,498,-1.285379,-0.1893174,-0.9669039,-0.808173,-3.140115,-0.04431553,-0.8917356,-0.5952358,0.4283128,-0.4004105,2.957224,2.303403
91,5.022223,44,104,497,498,-1.274747,-0.1925433,-0.9680823,-0.8056318,3.128222,-0.0200813,-0.890656,-0.5570437,0.3983973,-0.4012612,2.940341,2.328529
91,5.033335,44,104,497,498,-1.273722,-0.201061,-0.9692227,-0.8030949,3.113264,0.004426174,-0.8926944,-0.5251822,0.3865533,-0.4020585,2.923993,2.353098
91,5.044446,44,104,497,498,-1.27707,-0.2138293,-0.9756038,-0.8003556,3.09816,0.02961435,-0.8890847,-0.4633362,0.4151403,-0.4007285,2.908068,2.377564
91,5.055557,44,104,497,498,-1.282426,-0.2244711,-0.9745765,-0.7980216,3.082999,0.05457137,-0.8844914,-0.4227979,0.4427089,-0.3993847,2.891148,2.402776
91,5.066669,44,104,497,498,-1.284676,-0.2350708,-0.9778059,-0.7959906,3.067259,0.08028579,-0.8829987,-0.3919795,0.480835,-0.3983951,2.873267,2.428257
91,5.07778,44,104,497,498,-1.281524,-0.2382503,-0.9799688,-0.7943437,3.051687,0.1053621,-0.8551561,-0.3656728,0.4740331,-0.3985458,2.858592,2.449263
91,5.088891,44,104,497,498,-1.277347,-0.2563584,-0.9822756,-0.7923714,3.035947,0.1304416,-0.8122653,-0.363588,0.5142394,-0.3973239,2.838667,2.475356
91,5.100002,44,104,497,498,-1.276398,-0.2689031,-0.9832368,-0.7915314,3.021882,0.1533603,-0.7779313,-0.379613,0.5566046,-0.3966011,2.817064,2.502587
91,5.111114,44,104,497,498,-1.269106,-0.3051248,-0.9867777,-0.7890393,3.005569,0.1787492,-0.7093232,-0.4020737,0.6328891,-0.3955636,2.790129,2.533238
91,5.122225,44,104,497,498,-1.2468,-0.3435647,-0.9873311,-0.7864965,2.989206,0.2032237,-0.7259978,-0.3765363,0.6743239,-0.3943066,2.767579,2.561918
91,5.133336,44,104,497,498,-1.2288,-0.3723938,-0.9877077,-0.7840106,2.972565,0.2281818,-0.7383608,-0.3327764,0.71584,-0.3918165,2.744155,2.592093
91,5.144447,44,104,497,498,-1.196898,-0.4024294,-0.982878,-0.781242,2.955944,0.2524522,-0.6936996,-0.2734573,0.6685315,-0.3902255,2.72817,2.613041
91,5.155559,44,104,497,498,-1.161591,-0.4207754,-0.9737366,-0.7788559,2.940626,0.2742587,-0.6448392,-0.2491549,0.6340842,-0.3888993,2.711941,2.633724
91,5.16667,44,104,497,498,-1.125152,-0.4168383,-0.949507,-0.7772936,2.925236,0.2967832,-0.5748713,-0.224039,0.5748263,-0.3888013,2.700127,2.6485
91,5.177781,44,104,497,498,-1.091934,-0.4202473,-0.9306881,-0.7758598,2.909529,0.3189876,-0.5122927,-0.1923202,0.5189816,-0.3876913,2.688743,2.663338
91,5.188892,44,104,497,498,-1.067302,-0.4279446,-0.9117768,-0.7742938,2.894351,0.3409331,-0.4685495,-0.1583807,0.5122519,-0.3858606,2.67505,2.679849
91,5.200004,44,104,497,498,-1.026695,-0.4559818,-0.8846745,-0.7719727,2.878775,0.3625324,-0.4333461,-0.1254511,0.5108518,-0.3839778,2.661932,2.696226
91,5.211115,44,104,497,498,-0.9689239,-0.4895687,-0.8406731,-0.7690011,2.8646,0.381983,-0.4044163,-0.1191202,0.5362148,-0.3823213,2.644397,2.716265
91,5.222226,44,104,497,498,-0.9080333,-0.5295546,-0.7967014,-0.7656716,2.850721,0.4007823,-0.372384,-0.1415875,0.5520456,-0.3816704,2.625931,2.736274
91,5.233337,44,104,497,498,-0.8609791,-0.5544887,-0.7642635,-0.7624055,2.836711,0.4192039,-0.3541381,-0.146929,0.5764432,-0.380538,2.60655,2.757674
91,5.244449,44,104,497,498,-0.757142,-0.5959924,-0.6801961,-0.7579601,2.825078,0.4336931,-0.2695191,-0.1332602,0.6451057,-0.378343,2.582814,2.780282
91,5.25556,44,104,497,498,-0.6722959,-0.6193968,-0.6012742,-0.7529656,2.812964,0.4481679,-0.2117138,-0.0684455,0.6531429,-0.3749294,2.56596,2.796722
91,5.266671,44,104,497,498,-0.6175025,-0.6350015,-0.5389943,-0.74823,2.802346,0.4614576,-0.1552237,-0.05265097,0.6495683,-0.3726167,2.547187,2.814402
91,5.277782,44,104,497,498,-0.5358742,-0.6680205,-0.4483628,-0.741863,2.792239,0.4731926,-0.1265065,-0.03998283,0.6355131,-0.3708106,2.530108,2.83119
91,5.288894,44,104,497,498,-0.4864484,-0.692118,-0.3871688,-0.7356663,2.783067,0.4840663,-0.08534136,-0.07214952,0.5905672,-0.3707216,2.51467,2.84535
91,5.300005,44,104,497,498,-0.3973971,-0.7208527,-0.3018151,-0.7283335,2.775094,0.4923008,-0.1237983,-0.08272441,0.5759049,-0.3702753,2.497767,2.86337
91,5.311116,44,104,497,498,-0.3125954,-0.7324546,-0.2195064,-0.7209156,2.768781,0.4982348,-0.09656602,-0.07016318,0.4947499,-0.3698066,2.488709,2.872198
91,5.322227,44,104,497,498,-0.2309239,-0.7131422,-0.1411394,-0.7140563,2.763946,0.502776,-0.003325775,-0.06951419,0.4078948,-0.3695072,2.482724,2.874912
91,5.333339,44,104,497,498,-0.1555891,-0.6777693,-0.07339997,-0.7074624,2.758569,0.506619,0.05930319,-0.07402353,0.3723545,-0.3693261,2.472701,2.882004
91,5.34445,44,104,497,498,-0.1114408,-0.6398886,-0.03085463,-0.7019411,2.755237,0.5092238,0.03019978,-0.09637387,0.3299634,-0.3703562,2.464851,2.889814
91,5.355561,44,104,497,498,-0.05005205,-0.5691222,0.03110159,-0.6980901,2.756768,0.5075681,0.05340046,-0.06989251,0.2786449,-0.3698066,2.459449,2.893682
91,5.366673,44,104,497,498,0.01352364,-0.4866578,0.08341168,-0.6941977,2.757555,0.5052054,0.06366957,-0.06790211,0.2167881,-0.3702897,2.456967,2.895008
91,5.377784,44,104,497,498,0.05905271,-0.3763702,0.1318709,-0.6921018,2.760818,0.5013278,0.08975548,-0.06173947,0.1282003,-0.3709496,2.458891,2.891727
91,5.388895,44,104,497,498,0.1003819,-0.247954,0.1751278,-0.6910765,2.765347,0.4956889,0.1118289,-0.03102895,0.06515304,-0.3707632,2.461864,2.887051
91,5.400006,44,104,497,498,0.1179369,-0.1608572,0.1990704,-0.690155,2.768928,0.4915031,0.1095023,-0.02468384,0.03106392,-0.3709267,2.462849,2.885125
91,5.411118,44,104,497,498,0.1389573,-0.03336709,0.2339721,-0.69124,2.776198,0.4837941,0.1030391,-0.03213287,0.02366053,-0.3714423,2.462332,2.884624
91,5.422229,44,104,497,498,0.1620836,0.09199139,0.2666967,-0.6931484,2.783757,0.4755703,0.1073252,-0.0459758,0.03325605,-0.3720202,2.459151,2.886129
91,5.43334,44,104,497,498,0.180632,0.1684886,0.284182,-0.6950355,2.791682,0.4669821,0.1134306,-0.04818156,-0.008279977,-0.3723568,2.460622,2.883667
91,5.444451,44,104,497,498,0.2013687,0.2673599,0.2986208,-0.6985328,2.799873,0.4577697,0.1098195,-0.02806851,-0.08714078,-0.3728053,2.469421,2.874023
91,5.455563,44,104,497,498,0.2145074,0.3386083,0.3086582,-0.7020849,2.808968,0.4480651,0.1041106,-0.01964404,-0.1478531,-0.3737549,2.477925,2.865467
91,5.466674,44,104,497,498,0.2264474,0.3821893,0.3152923,-0.7054138,2.817694,0.4385774,0.1040278,-0.03031045,-0.1552905,-0.3748964,2.482564,2.859999
91,5.477785,44,104,497,498,0.2404143,0.4151777,0.3154378,-0.7087439,2.825311,0.4295706,0.1062614,-0.03879407,-0.1328948,-0.375502,2.48333,2.858243
91,5.488896,44,104,497,498,0.252166,0.4332766,0.3112209,-0.7121825,2.833343,0.4203949,0.1106261,-0.04622829,-0.1126678,-0.3763803,2.484481,2.85583
91,5.500008,44,104,497,498,0.2553303,0.4439239,0.3048784,-0.7148271,2.840055,0.4121652,0.1129263,-0.02491848,-0.09890411,-0.376669,2.487641,2.851379
91,5.511119,44,104,497,498,0.2563699,0.4535659,0.2974883,-0.7184889,2.847639,0.4035616,0.1140727,-0.0004203469,-0.09895649,-0.3763467,2.491036,2.846925
91,5.52223,44,104,497,498,0.2507973,0.4409794,0.2750315,-0.7218701,2.852575,0.3968547,0.1086821,-0.0004111826,-0.1116847,-0.3764964,2.494732,2.84223
91,5.533341,44,104,497,498,0.2408741,0.4103342,0.2482205,-0.7246669,2.857281,0.3907923,0.1204262,-0.002564028,-0.1032282,-0.3768746,2.49697,2.838827
91,5.544453,44,104,497,498,0.2254717,0.3616814,0.210675,-0.7267527,2.860878,0.3859522,0.1118813,-0.0174416,-0.0988851,-0.3777635,2.499045,2.835893
91,5.555564,44,104,497,498,0.2058953,0.3129494,0.1827446,-0.7282366,2.863948,0.3816374,0.1034149,-0.009946197,-0.09458128,-0.3777817,2.50165,2.832525
91,5.566675,44,104,497,498,0.1894483,0.2578669,0.1504833,-0.7293897,2.866137,0.3782834,0.09506704,0.01780425,-0.08179691,-0.3770562,2.503923,2.829575
91,5.577786,44,104,497,498,0.1785196,0.2271702,0.1290207,-0.7306505,2.868472,0.3745416,0.08772428,0.03275757,-0.07324609,-0.3765923,2.505693,2.826967
91,5.588898,44,104,497,498,0.1643034,0.1848124,0.1032339,-0.7314079,2.869694,0.3721613,0.09328452,0.04983634,-0.04561535,-0.3755781,2.505955,2.825547
91,5.600009,44,104,497,498,0.1544907,0.158311,0.08497948,-0.731777,2.870475,0.3697575,0.08700204,0.04352532,-0.02425931,-0.374955,2.505976,2.824871
91,5.61112,44,104,497,498,0.1371268,0.1169882,0.0645531,-0.7318708,2.870801,0.3684489,0.09353462,0.05099534,-0.006204914,-0.3740889,2.505566,2.824036
91,5.622231,44,104,497,498,0.1262185,0.06597228,0.05570333,-0.7314388,2.870922,0.3671136,0.09147935,0.05317958,0.005535364,-0.3728521,2.505192,2.823595
91,5.633343,44,104,497,498,0.1260327,0.039425,0.04484154,-0.731092,2.871032,0.3656334,0.0978815,0.04570563,0.0108413,-0.3725714,2.504658,2.822824
91,5.644454,44,104,497,498,0.1206168,0.0138853,0.04468245,-0.7306105,2.871562,0.3639359,0.1097263,0.04889662,0.02886974,-0.371772,2.503145,2.822707
91,5.655565,44,104,497,498,0.114057,-0.01265552,0.03600352,-0.7297663,2.871371,0.3629801,0.1075527,0.03719616,0.02996409,-0.3714353,2.502791,2.822114
91,5.666677,44,104,497,498,0.1074917,-0.04774366,0.03045318,-0.7283186,2.870845,0.3623683,0.1107589,0.03825266,0.03100677,-0.3708835,2.502147,2.821389
91,5.677788,44,104,497,498,0.09879481,-0.07853079,0.02281643,-0.7271037,2.870126,0.3619915,0.1043521,0.04570609,0.02355723,-0.3704372,2.503293,2.819234
91,5.688899,44,104,497,498,0.09431373,-0.1189276,0.01401064,-0.7248096,2.868628,0.3621899,0.08719914,0.04998807,0.004483286,-0.3699003,2.505289,2.816869
91,5.70001,44,104,497,498,0.08661326,-0.1475066,-0.003211584,-0.7231878,2.866602,0.3628586,0.08072468,0.03933946,-0.003978508,-0.3698444,2.506143,2.815227
91,5.711122,44,104,497,498,0.08222993,-0.1484363,-0.01810194,-0.7219568,2.864844,0.3633199,0.08073799,0.03721508,-0.0007785112,-0.3694731,2.506246,2.814223
91,5.722233,44,104,497,498,0.07160031,-0.1281069,-0.02424615,-0.7212729,2.86375,0.3636483,0.06794791,0.04578594,-0.004962359,-0.3685325,2.507152,2.813114
91,5.733344,44,104,497,498,0.06845859,-0.1110108,-0.02727379,-0.7207888,2.863056,0.3632267,0.06050912,0.05113783,-0.004924994,-0.3678678,2.507965,2.811905
91,5.744455,44,104,497,498,0.06321546,-0.07686092,-0.03228722,-0.7210908,2.862399,0.3631715,0.05838732,0.03731135,0.001520023,-0.3676872,2.507083,2.811954
91,5.755567,44,104,497,498,0.05481103,-0.03416464,-0.0361487,-0.7222663,2.862076,0.363101,0.06160393,0.02666135,0.0100419,-0.367619,2.506159,2.811986
91,5.766678,44,104,497,498,0.04856551,0.007412206,-0.03683328,-0.7235313,2.862086,0.3627311,0.05930411,0.001076557,-0.002676844,-0.3684212,2.506487,2.81107
91,5.777789,44,104,497,498,0.04335953,0.04155271,-0.03971463,-0.7249412,2.862103,0.362074,0.05600975,-0.009595618,-0.01329004,-0.36903,2.507327,2.809683
91,5.7889,44,104,497,498,0.04130282,0.06607832,-0.04163379,-0.7264304,2.862125,0.3616589,0.04734242,-0.01599573,-0.03239751,-0.3696505,2.509278,2.807553
91,5.800012,44,104,497,498,0.03823872,0.1034446,-0.04557442,-0.7291149,2.862572,0.3605766,0.04831365,-0.03304562,-0.03664294,-0.3704846,2.510346,2.806092
91,5.811123,44,104,497,498,0.0394239,0.1365183,-0.04639294,-0.7321312,2.863195,0.3595417,0.04836611,-0.02770863,-0.03132724,-0.3707035,2.510707,2.805207
91,5.822234,44,104,497,498,0.03413843,0.1568118,-0.05044907,-0.7345036,2.863452,0.3591129,0.04519427,-0.02875002,-0.02385698,-0.3710763,2.510817,2.804985
91,5.833345,44,104,497,498,0.02778779,0.1632894,-0.05355386,-0.7371529,2.86344,0.3584271,0.03876674,-0.03725255,-0.02486422,-0.3718109,2.51102,2.804554
91,5.844457,44,104,497,498,0.02460833,0.1536627,-0.04721276,-0.7386426,2.863681,0.3580673,0.04204072,-0.04786275,-0.00673262,-0.3721144,2.508712,2.806181
91,5.855568,44,104,497,498,0.02456282,0.1312717,-0.04311941,-0.7397633,2.863918,0.357565,0.04324605,-0.03718079,0.008159954,-0.3719856,2.507192,2.806973
91,5.866679,44,104,497,498,0.02348569,0.1141802,-0.03685567,-0.7406405,2.863997,0.3572753,0.03798145,-0.03714357,0.01778167,-0.3722375,2.5056,2.808189
91,5.87779,44,104,497,498,0.02983766,0.08535285,-0.0318338,-0.7410773,2.863347,0.3568929,0.04013906,-0.03608324,0.02307274,-0.3727216,2.504935,2.808469
91,5.888902,44,104,497,498,0.02977147,0.0608263,-0.02883415,-0.7411646,2.863048,0.356789,0.03905295,-0.02012333,0.01132975,-0.3726231,2.5056,2.807441
91,5.900013,44,104,497,498,0.03492058,0.02036596,-0.02701885,-0.7409607,2.863642,0.3563986,0.03372758,-0.01051952,0.009227003,-0.3723925,2.505288,2.807767
91,5.911124,44,104,497,498,0.03581119,-0.01797457,-0.02840139,-0.7401425,2.86262,0.3570561,0.02733047,-0.004114145,0.004994308,-0.3722748,2.505653,2.807307
91,5.922235,44,104,497,498,0.03251771,-0.05315043,-0.02439585,-0.738764,2.861609,0.3575139,0.0241539,0.002279887,0.002861182,-0.3722439,2.506097,2.806556
91,5.933347,44,104,497,498,0.03460122,-0.07446779,-0.02140046,-0.7380046,2.860694,0.3576189,0.02413353,0.008657325,-0.005648769,-0.3719232,2.506115,2.80609
91,5.944458,44,104,497,498,0.03352929,-0.08087258,-0.01931262,-0.7370618,2.859919,0.3578524,0.03467817,0.001137979,-0.01848556,-0.3722673,2.507383,2.804269
91,5.955569,44,104,497,498,0.03354715,-0.07766912,-0.01823751,-0.7367449,2.859138,0.3581006,0.03774031,-0.008491095,-0.03020678,-0.372866,2.50868,2.802963
91,5.966681,44,104,497,498,0.03577745,-0.06066744,-0.01385688,-0.7365483,2.858971,0.3577653,0.04196335,-0.009581808,-0.03555844,-0.3731872,2.509907,2.801255
91,5.977792,44,104,497,498,0.04122048,-0.04046243,-0.008431138,-0.7370916,2.858867,0.3572913,0.03982803,-0.005312089,-0.03874299,-0.373087,2.511115,2.799762
91,5.988903,44,104,497,498,0.04240865,-0.01598655,-0.007203706,-0.7374538,2.858364,0.3568921,0.03664324,-0.00210518,-0.03872895,-0.3731488,2.512298,2.798322
91,6.000014,44,104,497,498,0.04354977,0.00852759,-0.009145189,-0.7382154,2.858558,0.356242,0.03979183,-0.008497912,-0.03980904,-0.3734364,2.513664,2.79679
91,6.011126,44,104,497,498,0.03945798,0.04687897,-0.006662522,-0.7395332,2.859485,0.355165,0.04080847,-0.0106451,-0.0462032,-0.3738418,2.515264,2.794821
91,6.022237,44,104,497,498,0.03951426,0.0639317,-0.007590076,-0.7406123,2.859926,0.3543991,0.03964385,-0.01491822,-0.05790859,-0.3743196,2.517772,2.792213
91,6.033348,44,104,497,498,0.03748242,0.07881502,-0.002110297,-0.7416941,2.861063,0.3532316,0.03533269,-0.02343226,-0.06105931,-0.3750525,2.519273,2.790547
