ref,t,emg1,emg2,emg1raw,emg2raw,aDotS,bDotS,gDotS,aS,bS,gS,aDotSH,bDotSH,gDotSH,aSH,bSH,gSH
0,0,44,104,497,498,0.1885636,0.06580256,0.2240775,-1.404163,-2.670984,-1.453837,0.1685768,0.1923139,-0.1762507,-0.620802,-2.719999,1.218879
0,0.01111111,44,104,497,498,0.1872701,0.05530941,0.2048225,-1.405829,-2.671516,-1.455378,0.1622274,0.2019035,-0.168774,-0.623462,-2.716904,1.214402
0,0.02222222,44,104,497,498,0.1861174,0.05111403,0.1962851,-1.407906,-2.671882,-1.457366,0.1473699,0.22212,-0.1505905,-0.625658,-2.71284,1.209837
0,0.03333334,44,104,497,498,0.1850255,0.05769166,0.1845889,-1.409602,-2.673954,-1.460538,0.1314858,0.2412528,-0.1259973,-0.627298,-2.70861,1.205248
0,0.04444445,44,104,497,498,0.1860727,0.0608913,0.1835321,-1.411664,-2.674435,-1.462532,0.1103284,0.2486749,-0.09286988,-0.6285928,-2.70406,1.200842
0,0.05555556,44,104,497,498,0.174449,0.06303372,0.1847377,-1.41389,-2.675468,-1.465111,0.1093579,0.2454794,-0.07262106,-0.6298717,-2.700154,1.196547
0,0.06666667,44,104,497,498,0.1670706,0.05233197,0.1911437,-1.416282,-2.675569,-1.466677,0.1148299,0.2241796,-0.04921243,-0.6304997,-2.697035,1.192627
0,0.07777778,44,104,497,498,0.1533276,0.02465904,0.1900449,-1.418462,-2.675369,-1.469101,0.1128317,0.184761,-0.03430038,-0.6310301,-2.695434,1.190088
0,0.08888889,44,104,497,498,0.1405805,-0.005148014,0.1857194,-1.420344,-2.674504,-1.47106,0.1128985,0.1442797,-0.03323801,-0.6315473,-2.694828,1.188335
0,0.1,44,104,497,498,0.1277358,-0.03387631,0.1782076,-1.422049,-2.673237,-1.472147,0.1214845,0.07931245,-0.04501717,-0.6323112,-2.696811,1.188092
0,0.1111111,44,104,497,498,0.1170073,-0.04764938,0.1675814,-1.423639,-2.672472,-1.473617,0.1331319,0.04204631,-0.07491634,-0.6338664,-2.698448,1.187389
0,0.1222222,44,104,497,498,0.1051523,-0.05717015,0.1548614,-1.424894,-2.67139,-1.474548,0.1351832,0.03991984,-0.09197133,-0.6353487,-2.698914,1.186212
0,0.1333333,44,104,497,498,0.09749666,-0.06562026,0.1367827,-1.425897,-2.669751,-1.475608,0.1276705,0.06654051,-0.09938589,-0.6370425,-2.697326,1.183453
0,0.1444445,44,104,497,498,0.08886462,-0.06983259,0.1272551,-1.42687,-2.668696,-1.4764,0.1180886,0.08676627,-0.09188113,-0.6383783,-2.695564,1.180979
0,0.1555556,44,104,497,498,0.07709859,-0.06979406,0.1199531,-1.428309,-2.667857,-1.477594,0.09487335,0.1123012,-0.03637748,-0.6381205,-2.691794,1.177581
0,0.1666667,44,104,497,498,0.0707052,-0.07832585,0.1210364,-1.429668,-2.666707,-1.478017,0.07599492,0.1314448,0.03082937,-0.636919,-2.687342,1.173644
0,0.1777778,44,104,497,498,0.06328719,-0.09746604,0.1177778,-1.430592,-2.665328,-1.479354,0.05599077,0.1367381,0.07992551,-0.635729,-2.683672,1.170421
0,0.1888889,44,104,497,498,0.07055764,-0.1176348,0.1015657,-1.430961,-2.662755,-1.480265,0.04760134,0.1377896,0.1076643,-0.634537,-2.679954,1.167109
0,0.2,44,104,497,498,0.08828343,-0.1184379,0.06940994,-1.430959,-2.66165,-1.481439,0.04545861,0.127132,0.103423,-0.6340108,-2.677589,1.164789
0,0.2111111,44,104,497,498,0.09650438,-0.1054766,0.04490284,-1.43076,-2.660785,-1.482674,0.0453464,0.1153999,0.07679331,-0.6341663,-2.676298,1.163266
0,0.2222222,44,104,497,498,0.1046678,-0.08289542,0.017275,-1.430342,-2.660613,-1.483825,0.03878663,0.09302007,0.0352775,-0.6349903,-2.676032,1.162794
0,0.2333333,44,104,497,498,0.09810698,-0.07319672,0.001456346,-1.430228,-2.660141,-1.484979,0.03007284,0.07488862,-0.008354186,-0.6360497,-2.676245,1.162966
0,0.2444444,44,104,497,498,0.09271848,-0.07423673,-0.003819522,-1.429986,-2.659232,-1.485987,0.0225491,0.064225,-0.02536297,-0.6368982,-2.676061,1.162758
0,0.2555556,44,104,497,498,0.08423067,-0.07743342,-0.003756654,-1.429776,-2.65845,-1.487224,0.009770229,0.05248,-0.02636413,-0.6371208,-2.675828,1.162923
0,0.2666667,44,104,497,498,0.07057224,-0.08928555,0.01336331,-1.430326,-2.657122,-1.487591,0.003435445,0.05353501,-0.01140786,-0.6369317,-2.674525,1.162159
0,0.2777778,44,104,497,498,0.06227209,-0.1117763,0.0324811,-1.431103,-2.655556,-1.487962,-0.006100008,0.07056523,0.004618264,-0.6369983,-2.672363,1.160739
0,0.2888889,44,104,497,498,0.05513634,-0.1492733,0.05787482,-1.43216,-2.652451,-1.488628,-0.01361973,0.1014402,0.003589351,-0.6377009,-2.669628,1.159034
0,0.3,44,104,497,498,0.05422167,-0.1749171,0.06835803,-1.432976,-2.649723,-1.489595,-0.01475734,0.1152874,-0.007058196,-0.6386718,-2.667372,1.157416
0,0.3111111,44,104,497,498,0.0533432,-0.2122956,0.08196793,-1.434031,-2.646306,-1.490374,-0.008432619,0.1238104,-0.01773998,-0.6396444,-2.665517,1.155893
0,0.3222222,44,104,497,498,0.05976968,-0.2346689,0.08386794,-1.434703,-2.64308,-1.49142,-0.001030181,0.1152992,-0.03162494,-0.6407294,-2.664418,1.154816
0,0.3333333,44,104,497,498,0.06086154,-0.2432027,0.08484955,-1.435294,-2.640057,-1.492623,0.008429155,0.1089118,-0.05830381,-0.6423529,-2.664007,1.154284
0,0.3444445,44,104,497,498,0.06083525,-0.2431914,0.08272391,-1.43594,-2.637219,-1.493603,0.008316614,0.1046507,-0.08280539,-0.64424,-2.663523,1.153821
0,0.3555556,44,104,497,498,0.0597674,-0.2367627,0.07956755,-1.436343,-2.634978,-1.495077,0.005072705,0.1014454,-0.09131466,-0.645759,-2.662751,1.153421
0,0.3666667,44,104,497,498,0.04905383,-0.2292947,0.07546416,-1.436708,-2.632554,-1.495622,-0.0034885,0.1078219,-0.09766917,-0.6474656,-2.661602,1.152758
0,0.3777778,44,104,497,498,0.03513061,-0.2196839,0.06928305,-1.437011,-2.630308,-1.496049,-0.0141372,0.1152532,-0.09228797,-0.6487657,-2.660098,1.15217
0,0.3888889,44,104,497,498,0.01376675,-0.2100904,0.06641045,-1.437766,-2.628329,-1.495741,-0.01834874,0.1237727,-0.08695679,-0.6504494,-2.658488,1.150719
0,0.4,44,104,497,498,0.006181015,-0.1962239,0.05913829,-1.438114,-2.626138,-1.495551,-0.01724448,0.1429492,-0.07311267,-0.6517298,-2.655589,1.148562
0,0.4111111,44,104,497,498,-0.007778205,-0.1684955,0.05204071,-1.438576,-2.624924,-1.495361,-0.01823832,0.1568058,-0.05499405,-0.6528041,-2.652436,1.146214
0,0.4222222,44,104,497,498,-0.01855616,-0.139701,0.0449013,-1.438818,-2.624015,-1.494953,-0.02246005,0.1440157,-0.05071312,-0.6537315,-2.650874,1.145337
0,0.4333333,44,104,497,498,-0.02189045,-0.1247512,0.03544285,-1.438702,-2.622639,-1.494648,-0.01917872,0.1141994,-0.04327311,-0.6542374,-2.650315,1.144919
0,0.4444444,44,104,497,498,-0.02739572,-0.1097552,0.02175654,-1.438471,-2.62176,-1.494191,-0.01595156,0.06520117,-0.05181504,-0.6547078,-2.651776,1.146178
0,0.4555556,44,104,497,498,-0.0242495,-0.1086479,0.01532898,-1.438332,-2.620487,-1.494588,-0.01382003,0.02685805,-0.06247783,-0.6553496,-2.653259,1.147504
0,0.4666667,44,104,497,498,-0.02327746,-0.1149877,0.006744923,-1.437943,-2.618926,-1.494425,-0.01585383,-0.002956066,-0.05288704,-0.6555025,-2.654174,1.148373
0,0.4777778,44,104,497,498,-0.02127102,-0.1159687,-0.002857941,-1.437861,-2.617782,-1.494271,-0.01684149,-0.01361154,-0.04009935,-0.6554189,-2.654902,1.149157
0,0.4888889,44,104,497,498,-0.0181193,-0.1245003,-0.004039465,-1.43746,-2.615852,-1.493929,-0.02633548,-0.006163189,-0.01982224,-0.6554029,-2.654327,1.149153
0,0.5,44,104,497,498,-0.01493048,-0.1244846,-0.006175418,-1.437363,-2.614463,-1.493796,-0.04758312,0.0204356,0.0005236529,-0.6553022,-2.65255,1.148857
0,0.5111111,44,104,497,498,-0.01060376,-0.1287037,-0.004119418,-1.437526,-2.61369,-1.494723,-0.06774729,0.05343302,0.02619293,-0.6550961,-2.649729,1.147816
0,0.5222223,44,104,497,498,-0.008404013,-0.1340815,0.002212053,-1.437595,-2.611802,-1.494764,-0.07617526,0.08324571,0.05499995,-0.6545805,-2.646291,1.14615
0,0.5333334,44,104,497,498,-0.004085643,-0.1447843,0.006364456,-1.43767,-2.60947,-1.494896,-0.08143388,0.08963928,0.07100508,-0.6540718,-2.643687,1.145043
0,0.5444446,44,104,497,498,0.002437541,-0.1470019,0.01904743,-1.43793,-2.607657,-1.495205,-0.09311834,0.08429469,0.07638745,-0.6534865,-2.641816,1.144907
0,0.5555557,44,104,497,498,0.003595989,-0.139559,0.02444565,-1.438718,-2.606584,-1.496031,-0.0942258,0.05766615,0.06041294,-0.6532643,-2.641744,1.145962
0,0.5666668,44,104,497,498,0.01009572,-0.1268232,0.035102,-1.439146,-2.605714,-1.496533,-0.08679091,0.03638709,0.048654,-0.6530827,-2.641368,1.146355
0,0.577778,44,104,497,498,0.01330983,-0.1129913,0.03835951,-1.43961,-2.604806,-1.496877,-0.08681819,0.037453,0.04332772,-0.6529496,-2.640524,1.146639
0,0.5888891,44,104,497,498,0.0113308,-0.1066769,0.05012806,-1.440187,-2.603795,-1.497523,-0.08786371,0.0491729,0.05292283,-0.6525543,-2.638529,1.146215
0,0.6000003,44,104,497,498,0.007161285,-0.1141928,0.05757754,-1.440892,-2.602248,-1.497711,-0.09314808,0.07259981,0.06893036,-0.6520202,-2.635565,1.145026
0,0.6111114,44,104,497,498,0.004017553,-0.1312513,0.05964203,-1.441428,-2.60012,-1.49757,-0.09631851,0.08218418,0.07959722,-0.6514923,-2.633056,1.144346
0,0.6222225,44,104,497,498,0.0008882266,-0.1419226,0.06384166,-1.441966,-2.598553,-1.498008,-0.09951377,0.07152677,0.07641567,-0.6509943,-2.631734,1.144508
0,0.6333337,44,104,497,498,0.003086967,-0.1472406,0.06593307,-1.442768,-2.596918,-1.4986,-0.09948428,0.05876209,0.07427911,-0.650614,-2.630425,1.144233
0,0.6444448,44,104,497,498,0.004150033,-0.1526076,0.06797089,-1.443228,-2.594843,-1.499034,-0.09101477,0.045993,0.05932246,-0.6504601,-2.630018,1.144674
0,0.655556,44,104,497,498,-0.001167161,-0.1589681,0.06585074,-1.443777,-2.593279,-1.499474,-0.07832319,0.03217873,0.03795184,-0.6506726,-2.629767,1.145145
0,0.6666671,44,104,497,498,-0.002233438,-0.1632373,0.06584177,-1.44436,-2.591097,-1.499423,-0.0741159,0.02366455,0.02408146,-0.6507935,-2.629822,1.145896
0,0.6777782,44,104,497,498,-0.002233492,-0.1632373,0.06584166,-1.44496,-2.589222,-1.499635,-0.06347886,0.03752938,0.02509727,-0.6508526,-2.628378,1.145134
0,0.6888894,44,104,497,498,-0.004371952,-0.1663952,0.06158589,-1.445333,-2.587377,-1.50015,-0.06883139,0.06734673,0.03047393,-0.650745,-2.625431,1.143835
0,0.7000005,44,104,497,498,-0.02887881,-0.248382,0.05064207,-1.444941,-2.580983,-1.49942,-0.07515071,0.08757556,0.05181265,-0.6503242,-2.622352,1.142382
0,0.7111117,44,104,497,498,-0.03000452,-0.2632572,0.04414728,-1.445,-2.577558,-1.499503,-0.07181798,0.08543078,0.07735829,-0.6492526,-2.620564,1.14155
0,0.7222228,44,104,497,498,-0.03106683,-0.2738608,0.0419683,-1.44774,-2.578655,-1.498865,-0.06212588,0.06413836,0.09222415,-0.6480776,-2.619305,1.140993
0,0.7333339,44,104,497,498,-0.02898071,-0.2706187,0.0387099,-1.444797,-2.576838,-1.501798,-0.04613283,0.0385931,0.08895526,-0.6471109,-2.618958,1.141
0,0.7444451,44,104,497,498,-0.02585669,-0.2610132,0.03455071,-1.445874,-2.571449,-1.499396,-0.03871848,0.02582161,0.07613485,-0.6466177,-2.618637,1.14099
0,0.7555562,44,104,497,498,-0.02160238,-0.238621,0.03252603,-1.446447,-2.569106,-1.501663,-0.03246652,0.01199242,0.04307944,-0.6469319,-2.618971,1.141486
0,0.7666674,44,104,497,498,-0.02382421,-0.2300431,0.02623561,-1.446968,-2.567264,-1.501027,-0.03262579,0.02265232,0.01538777,-0.6475348,-2.618283,1.141445
0,0.7777785,44,104,497,498,-0.02067834,-0.2193723,0.02306575,-1.44673,-2.564818,-1.501573,-0.03267157,0.02904455,0.007931201,-0.6478373,-2.617608,1.141284
0,0.7888896,44,104,497,498,-0.0176086,-0.2064915,0.01135698,-1.445653,-2.563341,-1.502972,-0.04015967,0.05035131,0.01010411,-0.6481175,-2.615439,1.140332
0,0.8000008,44,104,497,498,-0.01548874,-0.1979512,0.009308014,-1.445694,-2.561386,-1.502874,-0.04969099,0.06418471,0.02613059,-0.6479157,-2.6133,1.13942
0,0.8111119,44,104,497,498,-0.007037995,-0.1851405,0.005051946,-1.445775,-2.559113,-1.503102,-0.05387558,0.0695122,0.04213093,-0.6475359,-2.611222,1.138363
0,0.8222231,44,104,497,498,0.000417551,-0.1649264,0.01041922,-1.446025,-2.557782,-1.502744,-0.05598494,0.07590041,0.04853329,-0.6473036,-2.609216,1.137433
0,0.8333342,44,104,497,498,0.003548548,-0.1415363,0.01159895,-1.445778,-2.555546,-1.501767,-0.05278912,0.06632318,0.0463894,-0.6470944,-2.608099,1.137092
0,0.8444453,44,104,497,498,0.002502369,-0.1234604,0.01599668,-1.445952,-2.554526,-1.50175,-0.04003913,0.05782072,0.03673954,-0.6471481,-2.607407,1.136656
0,0.8555565,44,104,497,498,0.004664575,-0.102227,0.02250508,-1.446085,-2.55313,-1.501692,-0.02944535,0.04610693,0.02390343,-0.6472227,-2.607394,1.136938
0,0.8666676,44,104,497,498,0.001459587,-0.08094186,0.02481874,-1.446381,-2.55271,-1.501462,-0.0273341,0.04184917,0.01856652,-0.6473175,-2.606807,1.136707
0,0.8777788,44,104,497,498,0.002472134,-0.06071308,0.02387365,-1.446357,-2.552025,-1.501264,-0.02737542,0.03437792,0.008987621,-0.647334,-2.606821,1.137152
0,0.8888899,44,104,497,498,0.002446449,-0.05111732,0.02394796,-1.446772,-2.551803,-1.500846,-0.02311049,0.03438359,0.01004343,-0.6472025,-2.606002,1.136639
0,0.900001,44,104,497,498,0.004532078,-0.03089027,0.02404973,-1.446695,-2.551668,-1.500465,-0.02095276,0.03012558,0.01429413,-0.6470485,-2.605454,1.136356
0,0.9111122,44,104,497,498,0.005635464,-0.01710068,0.03052591,-1.447205,-2.551447,-1.500184,-0.01669245,0.02586791,0.01641615,-0.6467109,-2.6049,1.13627
0,0.9222233,44,104,497,498,0.002366194,0.002098229,0.02643279,-1.447385,-2.551971,-1.500057,-0.01459852,0.01947966,0.006818061,-0.6468685,-2.604929,1.136388
0,0.9333345,44,104,497,498,0.003417595,0.007395876,0.0275271,-1.447765,-2.551692,-1.499719,-0.008234341,0.01203495,0.0003878083,-0.6471119,-2.605133,1.136608
0,0.9444456,44,104,497,498,0.004506007,0.02868328,0.03299534,-1.448463,-2.552847,-1.499426,-0.005076504,0.009909397,-0.00815,-0.6474208,-2.605281,1.13671
0,0.9555568,44,104,497,498,0.006646834,0.03611118,0.03516063,-1.44903,-2.553077,-1.499443,-0.005062664,0.004583248,-0.007087297,-0.6474384,-2.60545,1.136916
0,0.9666679,44,104,497,498,0.002351092,0.04251515,0.03419835,-1.449621,-2.553851,-1.498875,-0.004021285,0.006715532,-0.01135355,-0.6477,-2.605441,1.136929
0,0.977779,44,104,497,498,0.003369841,0.04784776,0.03102214,-1.44978,-2.554202,-1.498802,-0.006150886,0.005635276,-0.009207446,-0.6475945,-2.605613,1.137356
0,0.9888902,44,104,497,498,0.004366672,0.04893853,0.02568398,-1.449856,-2.554537,-1.498682,-0.006143469,0.0003000069,-0.00707892,-0.6475124,-2.606055,1.137949
0,1.000001,44,104,497,498,0.003269994,0.04576334,0.02247812,-1.450042,-2.554947,-1.498639,-0.008293062,-0.0007685088,-0.01132976,-0.6477239,-2.606274,1.138282
0,1.011112,44,104,497,498,0.002147827,0.04150554,0.01820882,-1.450277,-2.554872,-1.49835,-0.005127118,-0.001835775,-0.01454781,-0.6479716,-2.606723,1.138839
0,1.022224,44,104,497,498,0.003208284,0.03405699,0.0170796,-1.450461,-2.55503,-1.498339,-0.008364288,-0.00184069,-0.0230546,-0.6484126,-2.607084,1.139327
0,1.033335,44,104,497,498,0.00318889,0.02126581,0.01486063,-1.450508,-2.554548,-1.498181,-0.0116258,0.001349502,-0.03264462,-0.6492441,-2.607525,1.140115
0,1.044446,44,104,497,498,-2.17515E-05,0.003158068,0.01371377,-1.450747,-2.554094,-1.497602,-0.01483256,-0.005047218,-0.03689024,-0.649619,-2.60824,1.140935
0,1.055557,44,104,497,498,-0.004240938,-0.01071109,0.01579565,-1.450944,-2.553588,-1.497499,-0.01272466,-0.001840974,-0.03797038,-0.6501234,-2.608301,1.141239
0,1.066668,44,104,497,498,-0.008434943,-0.02671254,0.01999775,-1.451322,-2.553064,-1.497327,-0.01273795,0.006678586,-0.03370989,-0.6504734,-2.608104,1.141515
0,1.077779,44,104,497,498,-0.009486696,-0.04376444,0.0198946,-1.45149,-2.552036,-1.497161,-0.01588355,0.01093503,-0.02197629,-0.650541,-2.607748,1.141485
0,1.08889,44,104,497,498,-0.01480567,-0.05656903,0.02095002,-1.451952,-2.550992,-1.496607,-0.02118439,0.007730013,-0.01556668,-0.6506609,-2.607893,1.142124
0,1.100002,44,104,497,498,-0.01265272,-0.06615134,0.02299382,-1.452237,-2.550249,-1.496359,-0.02862832,-0.0008037966,-0.01553044,-0.650713,-2.608318,1.142979
0,1.111113,44,104,497,498,-0.01581378,-0.0715272,0.02618813,-1.452506,-2.548963,-1.496122,-0.0275935,-0.01038588,-0.02404637,-0.6508718,-2.609018,1.143843
0,1.122224,44,104,497,498,-0.01900673,-0.07472213,0.02727498,-1.45289,-2.548219,-1.495677,-0.0287294,-0.01145299,-0.03895519,-0.6515184,-2.609849,1.144878
0,1.133335,44,104,497,498,-0.02110708,-0.08115752,0.02937239,-1.452974,-2.546724,-1.495519,-0.02987343,-0.0008015372,-0.0506695,-0.6524191,-2.609998,1.145441
0,1.144446,44,104,497,498,-0.02956758,-0.09396435,0.03365488,-1.453597,-2.545558,-1.495061,-0.04274792,0.02154997,-0.06232571,-0.6536868,-2.609465,1.145818
0,1.155557,44,104,497,498,-0.02957123,-0.1003486,0.03254539,-1.453837,-2.544251,-1.494891,-0.04499324,0.04283546,-0.07509439,-0.6549405,-2.608994,1.146274
0,1.166668,44,104,497,498,-0.02953688,-0.1024995,0.03572027,-1.454134,-2.543056,-1.494655,-0.0482133,0.06093705,-0.06868461,-0.6558162,-2.607837,1.146359
0,1.17778,44,104,497,498,-0.02947863,-0.1078691,0.03993496,-1.454443,-2.541518,-1.494595,-0.05020038,0.07158726,-0.03565056,-0.655886,-2.605974,1.145489
0,1.188891,44,104,497,498,-0.0273155,-0.1089714,0.04309471,-1.45478,-2.539971,-1.494448,-0.05119083,0.07370272,-0.01646566,-0.6558551,-2.604809,1.145369
0,1.200002,44,104,497,498,-0.02624908,-0.1121612,0.04305799,-1.455109,-2.538673,-1.494293,-0.0585229,0.06623454,0.007006745,-0.6554561,-2.603469,1.145146
0,1.211113,44,104,497,498,-0.02301023,-0.1143176,0.04513065,-1.45545,-2.537063,-1.494579,-0.0573993,0.03852381,0.01233274,-0.6550119,-2.604039,1.146353
0,1.222224,44,104,497,498,-0.0187078,-0.1079463,0.0493836,-1.455975,-2.536017,-1.494673,-0.05310019,0.01722451,0.01337769,-0.6547056,-2.60445,1.14715
0,1.233335,44,104,497,498,-0.01441438,-0.09838156,0.05259307,-1.456488,-2.535027,-1.494897,-0.04462989,-0.009405699,-0.004764184,-0.6547435,-2.606181,1.148853
0,1.244446,44,104,497,498,-0.009107244,-0.09197307,0.05151282,-1.456972,-2.534137,-1.495052,-0.03832021,-0.01046024,-0.02183854,-0.6553278,-2.606769,1.149609
0,1.255558,44,104,497,498,-0.009079552,-0.084548,0.05474082,-1.457321,-2.533232,-1.495068,-0.03413681,0.004448848,-0.03037827,-0.6559147,-2.60658,1.149928
0,1.266669,44,104,497,498,-0.005914889,-0.07388568,0.05372631,-1.458018,-2.532582,-1.495053,-0.03743472,0.03212668,-0.03889897,-0.6570189,-2.605818,1.150146
0,1.27778,44,104,497,498,-0.007050784,-0.06425776,0.04954434,-1.458438,-2.532248,-1.494803,-0.04279871,0.05981618,-0.03780858,-0.6579563,-2.603958,1.149282
0,1.288891,44,104,497,498,-0.006098994,-0.05143381,0.04108866,-1.458534,-2.531727,-1.494782,-0.04597458,0.07366353,-0.02714727,-0.6585268,-2.602307,1.148727
0,1.300002,44,104,497,498,-0.002889127,-0.04291979,0.04323996,-1.459025,-2.531447,-1.494899,-0.03844964,0.06302232,-0.01653031,-0.658588,-2.601611,1.148416
0,1.311113,44,104,497,498,-0.00300265,-0.03010402,0.03480696,-1.459151,-2.531091,-1.494861,-0.03199637,0.04279375,-0.00910248,-0.6585012,-2.601561,1.148642
0,1.322224,44,104,497,498,0.001163595,-0.02152473,0.0273571,-1.459178,-2.531059,-1.494972,-0.02559294,0.02682247,-0.01232824,-0.6586562,-2.601878,1.148992
0,1.333336,44,104,497,498,9.854464E-05,-0.01193604,0.02742803,-1.45942,-2.531212,-1.495112,-0.0245527,0.01829174,-0.01765596,-0.6588628,-2.602231,1.149709
0,1.344447,44,104,497,498,0.006462156,0.002993836,0.02639818,-1.459774,-2.531597,-1.495348,-0.02569216,0.02255253,-0.03045183,-0.6598754,-2.60224,1.150105
0,1.355558,44,104,497,498,0.006480203,0.002990661,0.02746565,-1.460146,-2.531642,-1.495511,-0.02149599,0.02254966,-0.04218718,-0.6606035,-2.602536,1.15059
0,1.366669,44,104,497,498,0.01075333,-0.0001989,0.02953526,-1.46066,-2.531717,-1.495463,-0.02041847,0.03001561,-0.0358099,-0.6611681,-2.601783,1.150317
0,1.37778,44,104,497,498,0.008688791,-0.005565777,0.03591614,-1.461244,-2.531562,-1.495322,-0.02251625,0.03214316,-0.02834265,-0.6614482,-2.601253,1.150201
0,1.388891,44,104,497,498,0.008752585,-0.01839002,0.04009145,-1.461769,-2.530846,-1.495488,-0.02568104,0.03959809,-0.01661775,-0.6617103,-2.600291,1.150018
0,1.400002,44,104,497,498,0.009833678,-0.02904104,0.04107364,-1.46224,-2.530334,-1.495533,-0.02670553,0.03320493,-0.01022068,-0.6617407,-2.599971,1.150106
0,1.411114,44,104,497,498,0.01305872,-0.03439519,0.04311542,-1.462467,-2.529572,-1.495832,-0.02776463,0.0257466,-0.01128591,-0.6620048,-2.600032,1.150477
0,1.422225,44,104,497,498,0.01413661,-0.03439281,0.04416292,-1.462883,-2.529292,-1.496055,-0.02772034,0.02042037,-0.003828791,-0.6618946,-2.599834,1.150629
0,1.433336,44,104,497,498,0.01521578,-0.03761103,0.04518436,-1.463225,-2.528519,-1.496302,-0.02560042,0.01829631,-0.005973947,-0.6621428,-2.599647,1.150743
0,1.444447,44,104,497,498,0.01416888,-0.04294476,0.04622954,-1.463793,-2.527861,-1.496497,-0.02244477,0.01723917,-0.01346044,-0.6627266,-2.599681,1.151029
0,1.455558,44,104,497,498,0.01520929,-0.04613952,0.04407699,-1.464321,-2.527015,-1.496715,-0.02250774,0.02469593,-0.02411345,-0.6633913,-2.599377,1.151063
0,1.466669,44,104,497,498,0.01947103,-0.04400741,0.04510748,-1.4648,-2.526622,-1.496968,-0.02359867,0.03109035,-0.02836444,-0.6639197,-2.598751,1.150795
0,1.47778,44,104,497,498,0.01623658,-0.04399099,0.04194251,-1.465086,-2.526074,-1.497077,-0.0278493,0.03427973,-0.02514806,-0.6642744,-2.598169,1.150771
0,1.488891,44,104,497,498,0.01834543,-0.04292013,0.03979848,-1.46549,-2.525434,-1.497469,-0.02889448,0.04067513,-0.01662634,-0.6645769,-2.597175,1.150478
0,1.500003,44,104,497,498,0.02044406,-0.04395789,0.03871076,-1.466009,-2.525108,-1.497445,-0.029905,0.03854323,-0.005968275,-0.664545,-2.596469,1.150258
0,1.511114,44,104,497,498,0.01933579,-0.04394559,0.03553353,-1.466389,-2.524479,-1.497586,-0.02777703,0.04601454,-0.002787676,-0.6649365,-2.595218,1.149617
0,1.522225,44,104,497,498,0.02250567,-0.03966285,0.03338991,-1.466585,-2.524173,-1.497995,-0.02882687,0.04601303,0.0004133219,-0.6650749,-2.594399,1.149323
0,1.533336,44,104,497,498,0.02355689,-0.03433628,0.03233755,-1.466713,-2.523819,-1.498386,-0.03095602,0.04174853,-0.000641549,-0.6652502,-2.593947,1.149375
0,1.544447,44,104,497,498,0.01926432,-0.03111504,0.0302778,-1.467015,-2.523765,-1.498424,-0.02778474,0.0342961,-0.008113771,-0.6655852,-2.59388,1.149549
0,1.555558,44,104,497,498,0.02450697,-0.02892683,0.02277362,-1.466998,-2.523474,-1.498912,-0.02565598,0.02258245,-0.01131739,-0.6657429,-2.594087,1.149997
0,1.566669,44,104,497,498,0.0224182,-0.01831761,0.02712138,-1.467292,-2.523378,-1.499228,-0.02246177,0.01299668,-0.01346467,-0.6658888,-2.594415,1.150509
0,1.577781,44,104,497,498,0.02342922,-0.005504506,0.02400406,-1.467535,-2.523719,-1.499458,-0.02029724,0.007673791,-0.008148269,-0.6658238,-2.594447,1.150692
0,1.588892,44,104,497,498,0.0266378,0.002987502,0.02615081,-1.467783,-2.523658,-1.49985,-0.01709108,0.007678829,-0.00603316,-0.6658808,-2.594305,1.150683
0,1.600003,44,104,497,498,0.02555509,0.004058512,0.02510063,-1.46797,-2.523687,-1.500024,-0.01709927,0.01300531,-0.006033442,-0.6660417,-2.593926,1.150582
0,1.611114,44,104,497,498,0.02452169,0.01041889,0.02729437,-1.468426,-2.523706,-1.500487,-0.01603866,0.0193988,-0.004973652,-0.6662228,-2.593378,1.15031
0,1.622225,44,104,497,498,0.0223936,0.00616158,0.02728823,-1.46874,-2.523711,-1.50063,-0.01814813,0.02578768,0.001428026,-0.666218,-2.592528,1.149915
0,1.633336,44,104,497,498,0.02453726,0.004032282,0.02725397,-1.469095,-2.523645,-1.501117,-0.01814624,0.02791834,0.002493198,-0.6663266,-2.591966,1.14968
0,1.644447,44,104,497,498,0.02240497,0.004031961,0.02727857,-1.469422,-2.523722,-1.501281,-0.01491744,0.02686426,0.006751776,-0.6661658,-2.591212,1.149009
0,1.655559,44,104,497,498,0.02885516,0.001876022,0.03145872,-1.469936,-2.523579,-1.50192,-0.01278386,0.02154098,0.005676486,-0.6661817,-2.591043,1.148965
0,1.66667,44,104,497,498,0.02772176,0.001918863,0.02508298,-1.470071,-2.523616,-1.502191,-0.009607516,0.02473681,0.00141177,-0.6662681,-2.59054,1.148506
0,1.677781,44,104,497,498,0.02669309,0.0008282123,0.02827626,-1.470379,-2.523535,-1.502463,-0.009640113,0.02580163,-0.004980014,-0.6666158,-2.590213,1.148356
0,1.688892,44,104,497,498,0.02880103,-0.0002253318,0.02505249,-1.470591,-2.523308,-1.503018,-0.006462894,0.02580155,-0.007129562,-0.6668587,-2.590015,1.148314
0,1.700003,44,104,497,498,0.02772305,-0.001284303,0.02399528,-1.470877,-2.523248,-1.503286,-0.002193833,0.01728565,-0.008214931,-0.666952,-2.590176,1.148339
0,1.711114,44,104,497,498,0.02984945,-0.002342655,0.02289644,-1.471059,-2.523135,-1.50376,0.0009966074,0.01409452,-0.01036078,-0.6671453,-2.590207,1.148271
0,1.722225,44,104,497,498,0.02452217,-0.00341527,0.02294931,-1.471317,-2.523062,-1.503864,-0.001116339,0.01941811,-0.005024378,-0.6672214,-2.589644,1.147903
0,1.733337,44,104,497,498,0.02769505,-0.002330043,0.01972649,-1.471476,-2.522976,-1.504459,-0.002212083,0.02580794,-0.009280778,-0.6675938,-2.589139,1.147573
0,1.744448,44,104,497,498,0.02345902,-0.003405672,0.02297138,-1.471954,-2.523117,-1.504409,0.002043638,0.02261844,-0.01143178,-0.6678329,-2.589014,1.14733
0,1.755559,44,104,497,498,0.02021453,-0.0001908715,0.0187665,-1.472014,-2.523114,-1.504576,0.008438109,0.01410574,-0.01359276,-0.6679969,-2.589279,1.147268
0,1.76667,44,104,497,498,0.02014385,0.003055613,0.01239245,-1.47193,-2.523333,-1.504844,0.009488061,0.01517594,-0.01572039,-0.6682026,-2.58895,1.146951
0,1.777781,44,104,497,498,0.01799282,0.008383404,0.01138146,-1.471962,-2.523535,-1.504928,0.003071055,0.02155762,-0.01888577,-0.6686414,-2.588547,1.146758
0,1.788892,44,104,497,498,0.01584925,0.009453164,0.0103471,-1.472049,-2.523653,-1.50505,0.0009290189,0.02475351,-0.01780531,-0.6688593,-2.587986,1.146535
0,1.800003,44,104,497,498,0.01581186,0.009471622,0.007144345,-1.471953,-2.523703,-1.505188,0.001993787,0.01836319,-0.01994053,-0.6691208,-2.588102,1.146576
0,1.811115,44,104,497,498,0.01474987,0.01055126,0.007177732,-1.472241,-2.524045,-1.505355,-0.0001863055,0.007713235,-0.0326925,-0.6694356,-2.588519,1.147016
0,1.822226,44,104,497,498,0.01360281,0.02231255,0.000870903,-1.47201,-2.524655,-1.505469,0.002888352,-0.0008065514,-0.06040474,-0.6706106,-2.589803,1.147882
0,1.833337,44,104,497,498,0.0146271,0.02874592,-0.004421546,-1.471885,-2.525202,-1.505978,0.006969452,0.009853985,-0.09238015,-0.6723912,-2.590256,1.148182
0,1.844448,44,104,497,498,0.01358393,0.02872599,-0.002285345,-1.471864,-2.525453,-1.506043,0.008985803,0.02370458,-0.1115666,-0.6742618,-2.590472,1.148203
0,1.855559,44,104,497,498,0.01038719,0.02554807,-0.004387347,-1.471991,-2.525721,-1.506276,0.009937376,0.04393722,-0.1243532,-0.6760967,-2.590128,1.148094
0,1.86667,44,104,497,498,0.003968011,0.02238883,-0.008593126,-1.471895,-2.526144,-1.506361,0.003490672,0.07268488,-0.1275183,-0.678011,-2.588875,1.147182
0,1.877781,44,104,497,498,0.002930837,0.01810694,-0.006486499,-1.471804,-2.526145,-1.506343,-0.005018406,0.08758669,-0.1200215,-0.6796078,-2.587629,1.146503
0,1.888893,44,104,497,498,-0.003528703,0.01812194,-0.01172675,-1.471777,-2.52618,-1.506,-0.0103546,0.09183216,-0.1199911,-0.6811322,-2.587044,1.146322
0,1.900004,44,104,497,498,-0.008894118,0.01706746,-0.01487318,-1.471488,-2.526317,-1.505696,-0.01142128,0.09609179,-0.1189211,-0.682802,-2.58619,1.145814
0,1.911115,44,104,497,498,-0.01634201,0.01070251,-0.01697323,-1.471131,-2.526612,-1.505659,-0.0134198,0.09501676,-0.09335259,-0.683593,-2.585261,1.145203
0,1.922226,44,104,497,498,-0.02692113,-0.007466159,-0.01165403,-1.47109,-2.525889,-1.505011,0.001714464,0.09291406,-0.04868273,-0.6833884,-2.583408,1.143342
0,1.933337,44,104,497,498,-0.03431261,-0.02875609,-0.007437644,-1.471376,-2.525783,-1.504353,-0.001361573,0.08012723,-0.02842647,-0.6834891,-2.582479,1.142671
0,1.944448,44,104,497,498,-0.03427866,-0.04900523,-0.004364099,-1.47159,-2.524891,-1.503683,-0.01509834,0.05026809,-0.01664098,-0.6833746,-2.583005,1.143496
0,1.955559,44,104,497,498,-0.03314585,-0.05651643,0.001956763,-1.47159,-2.523915,-1.503281,-0.01715203,0.02576189,-0.008104123,-0.6830944,-2.583473,1.144133
0,1.966671,44,104,497,498,-0.02775463,-0.0725352,0.009240247,-1.471726,-2.522767,-1.502699,-0.01600516,-0.01152041,-0.002780822,-0.6826257,-2.584927,1.145404
0,1.977782,44,104,497,498,-0.02554207,-0.087498,0.0155002,-1.471893,-2.521278,-1.502535,-0.01066461,-0.03068787,-0.00600035,-0.6823695,-2.586278,1.146427
0,1.988893,44,104,497,498,-0.02446209,-0.1109175,0.01425206,-1.47175,-2.519595,-1.502424,-0.01180599,-0.03494468,-0.02197697,-0.6829112,-2.587173,1.147359
0,2.000004,44,104,497,498,-0.02012509,-0.1354445,0.01829007,-1.47178,-2.517449,-1.502524,-0.01719911,-0.02856255,-0.03367,-0.6834635,-2.587852,1.148222
0,2.011115,44,104,497,498,-0.01164615,-0.1449965,0.01279647,-1.471521,-2.515485,-1.502856,-0.0289929,-0.001937591,-0.03999614,-0.6842055,-2.586819,1.148122
0,2.022226,44,104,497,498,-0.005277429,-0.1577537,0.009437278,-1.471317,-2.513326,-1.503128,-0.04171488,0.03533111,-0.01543692,-0.6843621,-2.584511,1.147153
0,2.033337,44,104,497,498,0.006431729,-0.1673258,0.006034466,-1.47096,-2.510957,-1.503919,-0.04909245,0.06833591,0.01442359,-0.6840473,-2.581875,1.146042
0,2.044448,44,104,497,498,0.01385671,-0.1662425,0.00382749,-1.470794,-2.509051,-1.504374,-0.06284032,0.09600774,0.0421919,-0.6835983,-2.578931,1.144623
0,2.055559,44,104,497,498,0.02444019,-0.158741,-0.001568094,-1.470486,-2.507438,-1.505085,-0.06813812,0.1109149,0.05286894,-0.6834742,-2.575981,1.143236
0,2.06667,44,104,497,498,0.03284727,-0.1437801,-0.009019207,-1.47005,-2.506033,-1.505588,-0.07240714,0.1173096,0.05394717,-0.6837085,-2.573486,1.142233
0,2.077781,44,104,497,498,0.03812218,-0.1171417,-0.009965526,-1.469831,-2.505351,-1.506112,-0.06172983,0.09815057,0.0528324,-0.6834396,-2.572223,1.141651
0,2.088892,44,104,497,498,0.04225819,-0.08618975,-0.01618498,-1.469616,-2.505308,-1.506439,-0.0521595,0.07259774,0.04000436,-0.68343,-2.57192,1.141668
0,2.100003,44,104,497,498,0.03900242,-0.05955111,-0.01810054,-1.469351,-2.505275,-1.506732,-0.04793916,0.05449045,0.02719861,-0.6835136,-2.571732,1.141935
0,2.111114,44,104,497,498,0.03361071,-0.03929779,-0.02111111,-1.468887,-2.50526,-1.506874,-0.04795066,0.05129957,0.02293709,-0.6836766,-2.570778,1.141798
0,2.122225,44,104,497,498,0.0303431,-0.02968259,-0.0263448,-1.468338,-2.505127,-1.507136,-0.0457837,0.05449976,0.03144868,-0.6834502,-2.569401,1.141206
0,2.133336,44,104,497,498,0.02820732,-0.01691117,-0.02622911,-1.468145,-2.505132,-1.507554,-0.04252728,0.05876751,0.04528141,-0.6829943,-2.567694,1.140273
0,2.144447,44,104,497,498,0.02603995,-0.003059823,-0.0282473,-1.467709,-2.505362,-1.507797,-0.04779875,0.05662996,0.05596033,-0.6824142,-2.566259,1.139835
0,2.155558,44,104,497,498,0.02387393,0.01505119,-0.0291729,-1.467294,-2.50603,-1.50791,-0.04023491,0.03427204,0.07084064,-0.6812392,-2.565836,1.139755
0,2.166669,44,104,497,498,0.02489022,0.02783168,-0.03123108,-1.466865,-2.506455,-1.508039,-0.03059945,0.007662967,0.07293157,-0.68024,-2.56592,1.139952
0,2.17778,44,104,497,498,0.01954,0.04486494,-0.03106134,-1.466535,-2.50744,-1.507941,-0.02523238,-0.0210996,0.07183054,-0.6792557,-2.567085,1.140978
0,2.188891,44,104,497,498,0.01846343,0.05018172,-0.03100766,-1.466308,-2.508011,-1.508002,-0.01673448,-0.03280931,0.06433569,-0.6784845,-2.567696,1.141515
0,2.200002,44,104,497,498,0.01633524,0.04804657,-0.03100099,-1.465964,-2.508497,-1.508076,-0.01468366,-0.04133068,0.0451512,-0.6782421,-2.568712,1.142405
0,2.211113,44,104,497,498,0.01530458,0.0395382,-0.02996853,-1.465885,-2.509026,-1.508338,-0.01580519,-0.03921147,0.03556677,-0.6779407,-2.569338,1.143224
0,2.222224,44,104,497,498,0.01531996,0.02675293,-0.03006113,-1.465459,-2.508973,-1.508516,-0.01685663,-0.02642183,0.04302172,-0.6774443,-2.568724,1.142992
0,2.233335,44,104,497,498,0.01430117,0.01715595,-0.02796958,-1.465417,-2.509013,-1.508789,-0.01789866,-0.01470397,0.05154753,-0.6767769,-2.56797,1.142635
0,2.244446,44,104,497,498,0.01430176,0.00330827,-0.02914202,-1.464858,-2.508587,-1.50892,-0.02532622,0.003396139,0.06650258,-0.6758378,-2.56642,1.142146
0,2.255557,44,104,497,498,0.01332824,-0.009497416,-0.02388748,-1.464776,-2.508366,-1.509323,-0.03169328,0.01084445,0.07398952,-0.6750687,-2.565257,1.141757
0,2.266668,44,104,497,498,0.01973222,-0.01162948,-0.02291295,-1.464453,-2.50816,-1.509725,-0.03277218,0.008709736,0.07184628,-0.6746346,-2.565008,1.142022
0,2.277779,44,104,497,498,0.01552425,-0.01907525,-0.02184593,-1.46433,-2.50809,-1.510216,-0.03383455,0.0001853928,0.06972213,-0.6738921,-2.564833,1.142276
0,2.28889,44,104,497,498,0.0102114,-0.02121584,-0.02072954,-1.46421,-2.5079,-1.510179,-0.03708087,-0.007278621,0.05695532,-0.6734847,-2.565044,1.142918
0,2.300001,44,104,497,498,0.01129321,-0.02336908,-0.01863191,-1.463935,-2.507462,-1.510248,-0.03710835,-0.006214146,0.05162874,-0.6730719,-2.564826,1.143161
0,2.311112,44,104,497,498,0.009164549,-0.02652976,-0.02075677,-1.463707,-2.507434,-1.510617,-0.04245523,-0.003027,0.04845825,-0.6726772,-2.56441,1.143451
0,2.322223,44,104,497,498,0.008086689,-0.02439218,-0.02179828,-1.463388,-2.507241,-1.510719,-0.04461698,0.0001709536,0.04526951,-0.6723896,-2.563931,1.143752
0,2.333334,44,104,497,498,0.003841586,-0.02868366,-0.02178532,-1.463035,-2.506464,-1.510903,-0.04781943,0.00442718,0.04528436,-0.6719885,-2.563376,1.143926
0,2.344445,44,104,497,498,0.0006660633,-0.03297094,-0.0196547,-1.462756,-2.50588,-1.510768,-0.04885014,0.006549336,0.04848062,-0.6714905,-2.562995,1.143854
0,2.355556,44,104,497,498,-0.004663111,-0.03937449,-0.02070037,-1.462516,-2.505103,-1.510673,-0.04990633,0.01400543,0.05274579,-0.6710271,-2.562037,1.143693
0,2.366668,44,104,497,498,-0.005709015,-0.04366118,-0.01858585,-1.462363,-2.504381,-1.510557,-0.04989695,0.01187927,0.0548772,-0.6704593,-2.561379,1.143794
0,2.377779,44,104,497,498,-0.007779334,-0.04581474,-0.0143184,-1.46225,-2.503955,-1.510591,-0.04777898,0.003359355,0.04954175,-0.6700151,-2.561369,1.144269
0,2.38889,44,104,497,498,-0.007767749,-0.0436934,-0.01216578,-1.462259,-2.503613,-1.510405,-0.04354614,-0.008353829,0.03993531,-0.6696764,-2.561826,1.145027
0,2.400001,44,104,497,498,-0.004570715,-0.03944061,-0.0111144,-1.462026,-2.503235,-1.510413,-0.04252237,-0.01154959,0.03034307,-0.669508,-2.562073,1.145671
0,2.411112,44,104,497,498,-0.005576645,-0.03413051,-0.006789858,-1.462292,-2.503189,-1.510584,-0.04151906,-0.01154998,0.0175545,-0.6695943,-2.562329,1.146293
0,2.422223,44,104,497,498,-0.00130345,-0.02988613,-0.004685863,-1.46215,-2.502864,-1.510637,-0.03942827,-0.007290956,0.01113892,-0.6697552,-2.562445,1.146818
0,2.433334,44,104,497,498,-0.003415434,-0.03095105,-0.003606784,-1.462081,-2.502635,-1.510632,-0.03734545,0.0001681075,0.003670325,-0.6699629,-2.562247,1.147021
0,2.444445,44,104,497,498,-0.003407811,-0.03096416,-0.0025484,-1.461966,-2.502219,-1.510568,-0.03946621,0.003362931,0.007939774,-0.669818,-2.561938,1.147382
0,2.455556,44,104,497,498,-0.005528409,-0.02565682,-0.0003451577,-1.462197,-2.502031,-1.510361,-0.04051023,0.01295028,0.01540028,-0.669654,-2.561132,1.147235
0,2.466667,44,104,497,498,-0.002293218,-0.02035677,0.003915893,-1.462345,-2.50193,-1.510429,-0.03836573,0.01934984,0.02178805,-0.6693616,-2.56018,1.146965
0,2.477778,44,104,497,498,-0.003393049,-0.01286913,0.0007934782,-1.462418,-2.502111,-1.510479,-0.03623867,0.01828764,0.02071262,-0.6692433,-2.559776,1.147
0,2.488889,44,104,497,498,-0.006560876,-0.0001117851,0.003052151,-1.462598,-2.502317,-1.510601,-0.03305337,0.01509614,0.01750182,-0.6691751,-2.559583,1.147138
0,2.5,44,104,497,498,-0.005528142,0.01374053,0.002063239,-1.462529,-2.50275,-1.510478,-0.02559907,0.0001925975,0.01214181,-0.6690159,-2.560221,1.147727
0,2.511111,44,104,497,498,-0.008740572,0.02120884,0.001081726,-1.462582,-2.503229,-1.510408,-0.0245652,-0.006199069,0.003615482,-0.6691022,-2.560678,1.148352
0,2.522222,44,104,497,498,-0.007709189,0.02761503,-0.001018816,-1.462473,-2.503695,-1.510164,-0.01925162,-0.01258746,-0.002800698,-0.6691347,-2.561287,1.148802
0,2.533333,44,104,497,498,-0.009808257,0.03186646,0.0001013726,-1.462565,-2.504122,-1.510312,-0.01607873,-0.02110624,-0.01027169,-0.6692204,-2.562157,1.149589
0,2.544444,44,104,497,498,-0.01303936,0.0308024,-0.003063416,-1.462496,-2.504184,-1.510055,-0.01289983,-0.01684049,-0.01241852,-0.669376,-2.562395,1.149838
0,2.555555,44,104,497,498,-0.01088283,0.02866009,-0.0009710891,-1.462567,-2.504465,-1.509963,-0.01614653,-0.004063081,-0.01879698,-0.6698516,-2.562205,1.149969
0,2.566666,44,104,497,498,-0.01514826,0.02652227,-0.0009494894,-1.462416,-2.50469,-1.509555,-0.01510812,0.006591135,-0.02093461,-0.6702217,-2.56185,1.149841
0,2.577777,44,104,497,498,-0.01519128,0.01909009,-0.005267624,-1.462148,-2.50468,-1.50933,-0.01720043,0.01191608,-0.01133765,-0.6702324,-2.561393,1.149751
0,2.588888,44,104,497,498,-0.01416014,0.0148638,-0.009565733,-1.46199,-2.504817,-1.509308,-0.01929721,0.01298775,-0.003860177,-0.6700492,-2.560801,1.149565
0,2.599999,44,104,497,498,-0.01414891,0.005269413,-0.009634006,-1.46184,-2.504533,-1.509156,-0.02240913,0.005528413,0.01107061,-0.669507,-2.560637,1.149777
0,2.61111,44,104,497,498,-0.01411643,-0.00113556,-0.007547434,-1.46181,-2.504396,-1.509034,-0.02128728,-0.004055602,0.01851383,-0.6691719,-2.560925,1.150122
0,2.622221,44,104,497,498,-0.01410801,-0.002214421,-0.006494797,-1.461667,-2.504287,-1.508822,-0.02130175,-0.01683733,0.009991885,-0.6691464,-2.561686,1.150854
0,2.633332,44,104,497,498,-0.01624634,-0.005405783,-0.007558302,-1.461531,-2.504135,-1.508604,-0.02136888,-0.01683974,-0.003856815,-0.6694154,-2.562214,1.15151
0,2.644443,44,104,497,498,-0.01839264,-0.009650679,-0.009703612,-1.461248,-2.504009,-1.508381,-0.02141406,-0.01789943,-0.01023871,-0.669475,-2.562426,1.152153
0,2.655554,44,104,497,498,-0.02052974,-0.01390702,-0.01077454,-1.461097,-2.503754,-1.508133,-0.02358077,-0.01790406,-0.01768537,-0.6697573,-2.562988,1.152919
0,2.666665,44,104,497,498,-0.0215946,-0.0139171,-0.009692855,-1.461087,-2.503575,-1.507721,-0.02784534,-0.01684026,-0.0187329,-0.6699512,-2.56327,1.153507
0,2.677776,44,104,497,498,-0.0269333,-0.01391815,-0.01069972,-1.460938,-2.503437,-1.507295,-0.02887405,-0.01044844,-0.009141255,-0.6698356,-2.563123,1.153746
0,2.688887,44,104,497,498,-0.02693757,-0.007551788,-0.009584183,-1.460944,-2.503266,-1.50692,-0.02986262,-0.007249109,0.007910708,-0.6693429,-2.562749,1.153799
0,2.699998,44,104,497,498,-0.02906963,-0.01075451,-0.009583594,-1.460806,-2.503007,-1.506496,-0.02876966,-0.005115744,0.01429689,-0.6690596,-2.562521,1.153905
0,2.711109,44,104,497,498,-0.02799072,-0.00753633,-0.009562477,-1.460883,-2.503261,-1.506446,-0.02665173,-0.004050288,0.01215795,-0.6689855,-2.562547,1.15419
0,2.72222,44,104,497,498,-0.02798092,-0.009644771,-0.009575399,-1.460813,-2.503416,-1.506227,-0.02351642,-0.008309092,-0.001705484,-0.6692263,-2.563074,1.154794
0,2.733331,44,104,497,498,-0.03008658,-0.01072736,-0.007428727,-1.460775,-2.503287,-1.505845,-0.0214001,-0.01576385,-0.00704091,-0.6692673,-2.563763,1.155523
0,2.744442,44,104,497,498,-0.03116239,-0.009641781,-0.008486076,-1.4605,-2.503424,-1.505494,-0.01716169,-0.0210849,-0.01345233,-0.6694159,-2.564512,1.156192
0,2.755553,44,104,497,498,-0.03219603,-0.007535653,-0.00526423,-1.460537,-2.503412,-1.505107,-0.01608111,-0.02427873,-0.01132635,-0.6693397,-2.565032,1.156769
0,2.766664,44,104,497,498,-0.03007076,-0.003274487,-0.004189389,-1.460564,-2.503542,-1.50465,-0.01819208,-0.02428155,-0.007051164,-0.6691501,-2.565349,1.157289
0,2.777775,44,104,497,498,-0.02900962,-0.002221918,-0.003127954,-1.460553,-2.503445,-1.504158,-0.01393777,-0.02320984,-0.008137309,-0.669149,-2.565769,1.157662
0,2.788886,44,104,497,498,-0.02900172,0.0009666231,-0.002040965,-1.46057,-2.503542,-1.503824,-0.01287641,-0.03066586,-0.01133698,-0.669132,-2.566676,1.158488
0,2.799997,44,104,497,498,-0.02687791,0.007360168,-0.002025033,-1.460505,-2.503795,-1.503569,-0.00969254,-0.02959601,-0.01348324,-0.669197,-2.567257,1.158973
0,2.811108,44,104,497,498,-0.02371935,0.01163962,-0.00416311,-1.460408,-2.504022,-1.503227,-0.008639246,-0.02852946,-0.01561917,-0.6692913,-2.567841,1.159517
0,2.822219,44,104,497,498,-0.02266064,0.01377641,-0.004161438,-1.460372,-2.504294,-1.502904,-0.01181247,-0.0285277,-0.01239694,-0.6690825,-2.56808,1.159824
0,2.83333,44,104,497,498,-0.0226801,0.02017527,-0.005183111,-1.460306,-2.50469,-1.502611,-0.008606108,-0.02532626,-0.009217126,-0.6690159,-2.568371,1.160065
0,2.844441,44,104,497,498,-0.02270328,0.02446091,-0.007276621,-1.460327,-2.505199,-1.502364,-0.004342945,-0.01999276,-0.007108143,-0.6690063,-2.568525,1.160137
0,2.855552,44,104,497,498,-0.02591457,0.02659258,-0.008296392,-1.460162,-2.505521,-1.50195,-0.004332809,-0.02318845,-0.006042296,-0.6689094,-2.569055,1.16059
0,2.866663,44,104,497,498,-0.02273809,0.02662473,-0.01152343,-1.460038,-2.505899,-1.50197,-0.002211094,-0.0274469,-0.00924773,-0.6689301,-2.569777,1.161138
0,2.877774,44,104,497,498,-0.02275402,0.02024619,-0.01369956,-1.459822,-2.505944,-1.501721,-9.9333E-05,-0.02531358,-0.01245428,-0.6690537,-2.570241,1.161448
0,2.888885,44,104,497,498,-0.02169041,0.02343806,-0.01262329,-1.459768,-2.506323,-1.501336,0.005221739,-0.02850157,-0.0146101,-0.6690937,-2.570956,1.161839
0,2.899997,44,104,497,498,-0.02166593,0.01916423,-0.01053295,-1.459569,-2.506461,-1.501018,0.004185768,-0.02743677,-0.008213418,-0.6689206,-2.571329,1.162113
0,2.911108,44,104,497,498,-0.01848862,0.01492168,-0.0127276,-1.459385,-2.506547,-1.500896,0.004188889,-0.02742856,-0.005010705,-0.6687149,-2.571512,1.162394
0,2.922219,44,104,497,498,-0.01846273,0.01384243,-0.01060655,-1.459291,-2.506694,-1.500701,0.003152924,-0.02636375,0.001385971,-0.6684348,-2.571796,1.162605
0,2.93333,44,104,497,498,-0.01849011,0.008544054,-0.01383602,-1.459108,-2.506772,-1.500528,0.00207916,-0.024235,0.0003254823,-0.668365,-2.572132,1.162873
0,2.944441,44,104,497,498,-0.009964946,0.008539476,-0.0118032,-1.458978,-2.506888,-1.500334,0.0009851325,-0.01783117,-0.003931596,-0.6685999,-2.571989,1.162747
0,2.955552,44,104,497,498,-0.01212809,0.006427929,-0.01498986,-1.458727,-2.506931,-1.500137,-9.893067E-05,-0.0157028,-0.007122662,-0.6686867,-2.572264,1.162987
0,2.966663,44,104,497,498,-0.008897539,0.005349315,-0.01183747,-1.4587,-2.507041,-1.500082,0.0009484105,-0.01355741,-0.008190885,-0.6687842,-2.572149,1.163013
0,2.977774,44,104,497,498,-0.00570462,0.006416373,-0.0118716,-1.458481,-2.50713,-1.500067,-0.00011486,-0.008232208,-0.006056074,-0.6688151,-2.572069,1.162985
0,2.988885,44,104,497,498,-0.005683299,0.008527572,-0.008651296,-1.458626,-2.507337,-1.499805,0.000962046,-0.009288635,-0.002862766,-0.6687,-2.572051,1.16303
0,2.999996,44,104,497,498,-0.008861728,0.01383531,-0.006454548,-1.458573,-2.507638,-1.499583,0.0009859917,-0.01141845,0.001398743,-0.6684987,-2.572233,1.163165
0,3.011107,44,104,497,498,-0.01101742,0.02130229,-0.007440105,-1.458583,-2.508151,-1.499292,-0.001127361,-0.01248995,0.004604063,-0.6683267,-2.572503,1.163446
0,3.022218,44,104,497,498,-0.009948384,0.02342525,-0.006372425,-1.458556,-2.508446,-1.499103,-6.846758E-05,-0.01675311,0.002478408,-0.6681088,-2.572962,1.163818
0,3.033329,44,104,497,498,-0.009965211,0.02769358,-0.007408631,-1.458481,-2.508876,-1.498927,-8.910522E-05,-0.01675401,-0.001782726,-0.6681562,-2.573315,1.164096
0,3.04444,44,104,497,498,-0.012138,0.02878535,-0.01162942,-1.458402,-2.509219,-1.498768,-0.001157004,-0.01995799,-0.002835819,-0.6679628,-2.573896,1.164633
0,3.055551,44,104,497,498,-0.009997043,0.02984612,-0.01058038,-1.458344,-2.50958,-1.498672,-0.001164673,-0.02209678,-0.006031899,-0.6679432,-2.574577,1.165103
0,3.066662,44,104,497,498,-0.01001284,0.02878639,-0.01270874,-1.458301,-2.509742,-1.49863,-0.002233293,-0.01996785,-0.006027197,-0.6679443,-2.574863,1.165367
0,3.077773,44,104,497,498,-0.004705589,0.03305955,-0.01380566,-1.458121,-2.510207,-1.498622,0.0009727105,-0.02315851,-0.004976703,-0.6678287,-2.575379,1.165669
0,3.088884,44,104,497,498,-0.006848395,0.03414525,-0.01590108,-1.457988,-2.510765,-1.498585,-0.00221926,-0.02209773,-0.002829515,-0.6677019,-2.575662,1.166068
0,3.099995,44,104,497,498,-0.004740802,0.04161075,-0.0169396,-1.457816,-2.51142,-1.498489,-0.001142462,-0.02422324,-0.0007026233,-0.6675293,-2.57602,1.166369
0,3.111106,44,104,497,498,-0.0005236692,0.04165103,-0.02123794,-1.457635,-2.511981,-1.49859,0.004195533,-0.02421869,0.002470032,-0.667255,-2.576412,1.166527
0,3.122217,44,104,497,498,0.0004866649,0.05019585,-0.0254437,-1.457424,-2.512684,-1.498564,0.004175655,-0.02422797,0.0003360414,-0.6671895,-2.57709,1.167168
0,3.133328,44,104,497,498,0.002574412,0.05661198,-0.02861908,-1.457071,-2.513528,-1.498556,0.009481726,-0.01782835,-0.001821785,-0.667255,-2.577165,1.166966
0,3.144439,44,104,497,498,0.0003571673,0.05878863,-0.03604259,-1.456481,-2.514244,-1.498382,0.009486677,-0.01570385,-0.0007493994,-0.6670494,-2.577423,1.167036
0,3.15555,44,104,497,498,-0.00070422,0.05559149,-0.03605256,-1.456124,-2.514803,-1.498289,0.01161891,-0.01676581,-0.0007594766,-0.6669525,-2.57775,1.1671
0,3.166661,44,104,497,498,-0.0007007681,0.04919831,-0.03608992,-1.455872,-2.515172,-1.498188,0.01594169,-0.02314838,0.009874193,-0.6664257,-2.578107,1.167091
0,3.177772,44,104,497,498,0.002504281,0.04387737,-0.03616618,-1.455441,-2.515601,-1.498293,0.01596704,-0.03273554,0.01200697,-0.6660182,-2.578907,1.167561
0,3.188883,44,104,497,498,0.003562358,0.04176233,-0.03724751,-1.455177,-2.516139,-1.498316,0.01597904,-0.03380033,0.01413778,-0.6656603,-2.57937,1.167749
0,3.199994,44,104,497,498,0.003541074,0.0407134,-0.03938454,-1.454731,-2.516613,-1.498297,0.01704613,-0.03274247,0.01412771,-0.6654366,-2.579989,1.167974
0,3.211105,44,104,497,498,0.003551058,0.03538781,-0.03941452,-1.454419,-2.516906,-1.498344,0.0170393,-0.03167744,0.01306218,-0.6651985,-2.58041,1.168108
0,3.222216,44,104,497,498,0.005677689,0.02688932,-0.0405525,-1.454084,-2.517204,-1.498392,0.01701021,-0.02848512,0.00561193,-0.6651309,-2.580859,1.168085
0,3.233327,44,104,497,498,0.007828783,0.01942793,-0.03956143,-1.453672,-2.517253,-1.498523,0.01275105,-0.0231648,0.00776191,-0.664938,-2.580934,1.168105
0,3.244438,44,104,497,498,0.004635279,0.01729168,-0.03846851,-1.4534,-2.517521,-1.498279,0.007426891,-0.0178383,0.01312034,-0.6645897,-2.58063,1.168146
0,3.255549,44,104,497,498,0.006796548,0.006622141,-0.03643431,-1.453024,-2.517288,-1.498383,0.003186733,-0.01145162,0.01953118,-0.6642606,-2.580304,1.16796
0,3.26666,44,104,497,498,0.004683459,0.00022178,-0.03539814,-1.452506,-2.517183,-1.498358,-0.001063753,-0.005065467,0.02381146,-0.6639602,-2.579861,1.16775
0,3.277771,44,104,497,498,0.004759298,-0.008347647,-0.02906548,-1.452335,-2.516842,-1.49839,-2.564304E-05,0.002392483,0.02060865,-0.6639314,-2.579396,1.167363
0,3.288882,44,104,497,498,0.003747562,-0.0136744,-0.02696352,-1.452002,-2.516819,-1.498754,-0.003240161,0.007713434,0.01849231,-0.6639069,-2.579052,1.16719
0,3.299993,44,104,497,498,0.003863078,-0.02436166,-0.01956799,-1.452129,-2.51649,-1.499128,0.0009726593,0.005586885,0.007819307,-0.6640731,-2.579182,1.167161
0,3.311104,44,104,497,498,0.00281593,-0.02969662,-0.01852724,-1.451925,-2.516042,-1.499194,0.006276587,0.003463314,0.002467568,-0.6641684,-2.579275,1.167035
0,3.322215,44,104,497,498,0.003975455,-0.02971399,-0.01213945,-1.452069,-2.516069,-1.499599,0.000977505,-0.0008051543,0.006755552,-0.6639404,-2.579386,1.167242
0,3.333326,44,104,497,498,0.007187933,-0.03397827,-0.01113844,-1.451919,-2.515577,-1.499805,-0.003255975,0.001320346,0.01316741,-0.6636645,-2.579093,1.167129
0,3.344437,44,104,497,498,0.006170334,-0.03400748,-0.00792999,-1.451886,-2.515111,-1.500071,-0.006432674,0.00557784,0.01850831,-0.6633966,-2.57857,1.166866
0,3.355548,44,104,497,498,0.008308754,-0.04039599,-0.007997407,-1.451714,-2.514467,-1.500283,-0.009607544,0.01196619,0.02491399,-0.6631186,-2.577802,1.166467
0,3.366659,44,104,497,498,0.008288534,-0.04463806,-0.01015673,-1.451505,-2.513947,-1.500408,-0.01387035,0.01942794,0.02705863,-0.6630909,-2.5768,1.165908
0,3.37777,44,104,497,498,0.009355654,-0.03932299,-0.009067204,-1.451401,-2.513597,-1.50053,-0.008540597,0.01730569,0.02703331,-0.6628799,-2.576426,1.165565
0,3.388881,44,104,497,498,0.008299785,-0.04037627,-0.01012614,-1.451248,-2.513242,-1.500925,-0.009645008,0.009844746,0.01638049,-0.6630621,-2.576721,1.165926
0,3.399992,44,104,497,498,0.008276732,-0.03398227,-0.01115394,-1.450998,-2.512966,-1.500993,-0.007556208,0.00665627,0.005705006,-0.6634871,-2.576832,1.165971
0,3.411103,44,104,497,498,0.007176397,-0.02756457,-0.01429758,-1.45071,-2.512923,-1.501152,-0.004362496,-0.001861894,0.002495738,-0.6634456,-2.577213,1.166238
0,3.422215,44,104,497,498,0.007121183,-0.02432608,-0.01960291,-1.450332,-2.512837,-1.501354,-0.002232084,-0.005054713,0.001420905,-0.6633924,-2.577409,1.166368
0,3.433326,44,104,497,498,0.007100566,-0.01686186,-0.02061746,-1.450074,-2.512852,-1.501444,-0.002216748,-0.008250063,0.003552251,-0.6632219,-2.577593,1.166532
0,3.444437,44,104,497,498,0.007101623,-0.009400978,-0.02056769,-1.449867,-2.513,-1.501606,0.001007802,-0.001863187,0.008862699,-0.6629742,-2.577445,1.166149
0,3.455548,44,104,497,498,0.003905927,-0.009405021,-0.02053252,-1.449624,-2.512902,-1.501565,0.005289746,0.001340727,0.01416767,-0.6627457,-2.57716,1.165763
0,3.466659,44,104,497,498,0.003933895,0.003380134,-0.01724176,-1.44969,-2.513582,-1.501647,0.003161168,0.001336629,0.01418079,-0.6625838,-2.577019,1.165668
0,3.47777,44,104,497,498,0.001849134,0.003349649,-0.01401151,-1.449763,-2.513493,-1.50179,0.00422645,0.001338296,0.01417562,-0.6624464,-2.576874,1.165468
0,3.488881,44,104,497,498,0.001858339,0.005472942,-0.0129318,-1.449652,-2.513626,-1.501806,0.006365354,-0.002921375,0.01417751,-0.662081,-2.57694,1.165349
0,3.499992,44,104,497,498,0.004013219,0.009720766,-0.0107975,-1.449547,-2.513844,-1.501975,0.01062409,-0.007192906,0.01203368,-0.6617519,-2.577484,1.165521
0,3.511103,44,104,497,498,0.006150361,0.0139773,-0.009726747,-1.449487,-2.514115,-1.502054,0.01382161,-0.008253193,0.01201846,-0.6615665,-2.577612,1.165377
0,3.522214,44,104,497,498,0.006162165,0.01290881,-0.008681585,-1.449258,-2.51429,-1.502074,0.01272503,-0.004000544,0.007762318,-0.6615739,-2.577594,1.165326
0,3.533325,44,104,497,498,0.00511791,0.01502356,-0.006524863,-1.449259,-2.51451,-1.502086,0.01267549,0.004519768,0.000303037,-0.6618536,-2.577277,1.164954
0,3.544436,44,104,497,498,0.009393866,0.0150368,-0.007635458,-1.449171,-2.514673,-1.502642,0.009493296,0.000244909,0.001386126,-0.6616768,-2.577619,1.165179
0,3.555547,44,104,497,498,0.008350803,0.01608625,-0.005486117,-1.44918,-2.514879,-1.50268,0.01055874,0.003442759,0.002445374,-0.6616837,-2.5774,1.164871
0,3.566658,44,104,497,498,0.01051749,0.01500192,-0.00231129,-1.449389,-2.514988,-1.502829,0.00522982,0.001304972,0.001410207,-0.6616133,-2.57737,1.164929
0,3.577769,44,104,497,498,0.01049048,0.01605602,-0.002293574,-1.449498,-2.515022,-1.502573,0.004183713,0.005565968,0.006740646,-0.6614919,-2.576968,1.164587
0,3.58888,44,104,497,498,0.007322025,0.0128417,-0.000149762,-1.449561,-2.515069,-1.502565,0.006325379,0.006648388,0.009919313,-0.661518,-2.576443,1.16409
0,3.599991,44,104,497,498,0.007310476,0.005389622,-0.002317186,-1.449637,-2.514821,-1.502751,0.005249412,0.01089017,0.00671388,-0.6616954,-2.576644,1.164041
0,3.611102,44,104,497,498,0.00732473,0.003251838,-0.001266483,-1.449643,-2.514809,-1.502835,0.005254417,0.007694287,0.006714753,-0.6616304,-2.576599,1.163946
0,3.622213,44,104,497,498,0.005184233,0.001133441,-0.00337121,-1.449797,-2.514787,-1.502985,0.009484265,0.006637796,0.0002962099,-0.6619159,-2.576632,1.16376
0,3.633324,44,104,497,498,0.003032831,-0.0009853004,-0.005492687,-1.449673,-2.514714,-1.502964,0.01053053,0.005572965,-0.003969808,-0.6620688,-2.576674,1.163654
0,3.644435,44,104,497,498,0.0009062898,-0.005254031,-0.005502542,-1.449553,-2.514474,-1.502928,0.008415315,0.002374345,-0.001828016,-0.6620144,-2.576705,1.163657
0,3.655546,44,104,497,498,0.0008822167,-0.00843969,-0.007655013,-1.449391,-2.514231,-1.502896,0.009513295,0.001312519,0.004558813,-0.6618147,-2.576566,1.163427
0,3.666657,44,104,497,498,0.0009101457,-0.01163996,-0.006597911,-1.44954,-2.514053,-1.503109,0.006363821,-0.001885958,0.01309748,-0.6614317,-2.576437,1.163351
0,3.677768,44,104,497,498,0.003014083,-0.01162664,-0.008757987,-1.449281,-2.513885,-1.503187,0.007429102,-0.001884292,0.01309231,-0.6612853,-2.576394,1.163222
0,3.688879,44,104,497,498,0.004090698,-0.01159817,-0.00982738,-1.449259,-2.514038,-1.503563,0.00739595,0.000252726,0.008816736,-0.6615921,-2.576273,1.163185
0,3.69999,44,104,497,498,0.001946577,-0.009458427,-0.01084897,-1.449195,-2.514054,-1.503522,0.005224351,0.0002474701,0.0003056469,-0.6617726,-2.576413,1.163298
0,3.711101,44,104,497,498,0.002983298,-0.005181519,-0.0129621,-1.449004,-2.514127,-1.50358,0.007329063,0.0002492955,-0.00503112,-0.6619596,-2.576547,1.16326
0,3.722212,44,104,497,498,0.003030574,-0.004130114,-0.01085254,-1.44853,-2.514133,-1.503993,0.006277456,-0.00188236,-0.002894793,-0.6618791,-2.576654,1.163294
0,3.733323,44,104,497,498,0.004089497,0.00119747,-0.01082798,-1.448429,-2.514314,-1.504031,0.007368593,-0.001879187,0.002426459,-0.6617194,-2.576578,1.163106
0,3.744434,44,104,497,498,0.0009053478,0.005440507,-0.008645146,-1.448213,-2.514488,-1.503819,0.006331001,0.0002515486,0.008822752,-0.6614706,-2.576343,1.162871
0,3.755545,44,104,497,498,0.0009203253,0.006484966,-0.00650923,-1.448183,-2.514493,-1.503718,0.007399619,-0.001877378,0.008818166,-0.6613417,-2.576409,1.162814
0,3.766656,44,104,497,498,0.001996422,0.01286917,-0.00539888,-1.448344,-2.514802,-1.503827,0.007383086,0.001314553,0.005616113,-0.661477,-2.576417,1.16268
0,3.777767,44,104,497,498,0.0009578871,0.01390453,-0.002189977,-1.448325,-2.514877,-1.503685,0.007347059,0.004508599,-0.0007764915,-0.6617215,-2.576334,1.162539
0,3.788878,44,104,497,498,-9.774975E-05,0.01602734,-0.001100566,-1.448325,-2.515134,-1.503657,0.0084118,0.003441739,-0.0007779505,-0.6616784,-2.576389,1.162516
0,3.799989,44,104,497,498,-7.202174E-05,0.01920575,0.001028542,-1.44807,-2.515396,-1.50371,0.007365042,-0.005081983,0.0002949426,-0.6615356,-2.576798,1.162772
0,3.8111,44,104,497,498,-7.200381E-05,0.01920575,0.001028584,-1.448099,-2.515596,-1.503682,0.008449174,-0.007209967,0.003486236,-0.6613694,-2.576918,1.162745
0,3.822211,44,104,497,498,-0.002201979,0.01919907,0.001051894,-1.448106,-2.515746,-1.503589,0.01057807,-0.00614134,0.003475589,-0.6613098,-2.577003,1.162639
0,3.833322,44,104,497,498,-0.00112386,0.0181279,0.002097934,-1.448177,-2.515904,-1.503571,0.007370051,-0.008277873,0.000295857,-0.6613279,-2.577321,1.1629
0,3.844433,44,104,497,498,-2.514524E-05,0.01493363,0.004204402,-1.448412,-2.516184,-1.503661,0.00522179,-0.0008380078,-0.002876318,-0.6612336,-2.577206,1.162671
0,3.855544,44,104,497,498,0.001041838,0.01173532,0.004167341,-1.448407,-2.516172,-1.50366,0.005218448,0.001292583,-0.002876932,-0.6612959,-2.577121,1.162554
0,3.866655,44,104,497,498,0.003189266,0.005321729,0.006247446,-1.448727,-2.515908,-1.503575,0.00305164,0.003418718,-0.01138068,-0.6615516,-2.577117,1.162435
0,3.877766,44,104,497,498,0.001043122,0.003189737,0.00518799,-1.448684,-2.515809,-1.50342,0.001986356,0.003417048,-0.01137551,-0.6616789,-2.577103,1.162434
0,3.888877,44,104,497,498,0.005294237,-0.002132333,0.004036463,-1.448635,-2.515536,-1.503541,0.001984305,0.00661879,-0.01030876,-0.6617955,-2.576744,1.162169
0,3.899988,44,104,497,498,0.00315525,-0.004276946,0.004035554,-1.448544,-2.515301,-1.503389,-0.003317337,0.00874697,-0.00495606,-0.6617923,-2.57637,1.162013
0,3.911099,44,104,497,498,0.00102607,-0.005344869,0.004051782,-1.448592,-2.515212,-1.503344,-0.002255551,0.007683029,-0.006026201,-0.6618978,-2.576355,1.161991
0,3.92221,44,104,497,498,-0.00109447,-0.006418328,0.005132286,-1.448652,-2.515146,-1.503238,-0.0001211958,0.01514439,-0.002842863,-0.6619846,-2.575783,1.161499
0,3.933321,44,104,497,498,0.001007803,-0.0064053,0.002974679,-1.448554,-2.515001,-1.503259,-0.002263774,0.01620571,-0.004963405,-0.6621811,-2.575574,1.161418
0,3.944432,44,104,497,498,-0.002170724,-0.01174789,0.002976379,-1.448598,-2.51457,-1.503352,-0.001220836,0.0172714,-0.009230025,-0.662457,-2.575409,1.161276
0,3.955544,44,104,497,498,6.299233E-07,-0.01071327,0.007216884,-1.448731,-2.514407,-1.503359,-0.001226005,0.01727108,-0.01029531,-0.6626722,-2.575214,1.161132
0,3.966655,44,104,497,498,0.001069863,-0.01494785,0.005056946,-1.448879,-2.514265,-1.503742,0.001978316,0.01407549,-0.009245727,-0.6627164,-2.575309,1.161118
0,3.977766,44,104,497,498,0.001113825,-0.01710524,0.009300629,-1.44905,-2.514048,-1.503723,0.007321768,0.009823323,-0.007139732,-0.662733,-2.575319,1.160898
0,3.988877,44,104,497,498,0.00326914,-0.01923541,0.01139147,-1.449197,-2.513944,-1.503798,0.00518448,0.01408114,-0.007130657,-0.6629124,-2.574996,1.160633
0,3.999988,44,104,497,498,0.006449128,-0.02133906,0.009197781,-1.449021,-2.513774,-1.50407,0.006261916,0.01621438,-0.003940604,-0.662963,-2.574617,1.160228
0,4.011099,44,104,497,498,0.007502701,-0.02133041,0.008120976,-1.449072,-2.513531,-1.504206,0.00839779,0.01941427,-0.001821321,-0.6630579,-2.574107,1.159693
0.2,4.02221,44,104,497,498,0.0117792,-0.01919728,0.01022001,-1.44926,-2.513513,-1.504363,0.00732582,0.01834988,-0.003948252,-0.6632534,-2.573906,1.159485
0.4,4.033321,44,104,497,498,0.01286666,-0.01814508,0.012346,-1.44943,-2.513327,-1.504559,0.004128012,0.01301772,-0.006061715,-0.6633423,-2.573975,1.15957
0.6,4.044433,44,104,497,498,0.0139182,-0.01387333,0.01129002,-1.449416,-2.513342,-1.504755,0.01154364,0.01302679,-0.01462016,-0.6637594,-2.574013,1.159271
0.8,4.055544,44,104,497,498,0.01177829,-0.00853161,0.01029233,-1.449638,-2.513527,-1.504937,0.01467427,0.01835468,-0.02635541,-0.6644315,-2.573877,1.158926
1,4.066655,44,104,497,498,0.0107562,-0.005366077,0.01458667,-1.44992,-2.513528,-1.505034,0.01679464,0.02155358,-0.02743198,-0.6648539,-2.57361,1.158477
1.2,4.077766,44,104,497,498,0.01498364,-0.004283877,0.011355,-1.450003,-2.51334,-1.505367,0.01896655,0.02155956,-0.01892004,-0.6649349,-2.573193,1.157872
1.4,4.088878,44,104,497,498,0.01713753,-0.004295836,0.01346195,-1.450206,-2.513255,-1.505628,0.01476757,0.02475302,-0.00505163,-0.6647788,-2.57245,1.157246
1.6,4.099989,44,104,497,498,0.01824203,-0.003243362,0.01559354,-1.450516,-2.513227,-1.506077,0.01480724,0.02582095,0.003470324,-0.664643,-2.571827,1.156612
1.8,4.1111,44,104,497,498,0.01827976,-0.005395435,0.01877469,-1.450813,-2.513083,-1.506318,0.0137319,0.03221105,0.003473564,-0.6648166,-2.571015,1.155855
2,4.122211,44,104,497,498,0.02365837,-0.008610966,0.02295422,-1.451136,-2.512915,-1.506757,0.01476136,0.03221732,-0.002921421,-0.6652145,-2.570531,1.155345
2.2,4.133323,44,104,497,498,0.02365081,-0.01713046,0.02182957,-1.451288,-2.512438,-1.506984,0.01686262,0.03115339,-0.009323139,-0.6655958,-2.5702,1.154849
2.4,4.144434,44,104,497,498,0.02366805,-0.01821361,0.02395033,-1.451552,-2.512165,-1.507179,0.01684548,0.03328412,-0.01145279,-0.6658957,-2.569642,1.154284
2.6,4.155545,44,104,497,498,0.02578532,-0.02138011,0.02178232,-1.451838,-2.512005,-1.50761,0.01047272,0.03541259,-0.009289985,-0.6661498,-2.56884,1.153518
2.8,4.166656,44,104,497,498,0.02471067,-0.02350531,0.02071402,-1.452006,-2.511671,-1.507915,0.003022839,0.04072833,-0.006059595,-0.6663868,-2.567953,1.152987
3,4.177768,44,104,497,498,0.02787454,-0.02135176,0.01856363,-1.452172,-2.511528,-1.508221,-0.006543184,0.05350021,0.002507656,-0.6665179,-2.5664,1.152078
3.200001,4.188879,44,104,497,498,0.02783018,-0.02345331,0.01428834,-1.452223,-2.511194,-1.508564,-0.006546402,0.05882701,0.003571337,-0.6667884,-2.565152,1.151166
3.400001,4.19999,44,104,497,498,0.02785376,-0.02133173,0.01536018,-1.452301,-2.510997,-1.509112,-0.001222964,0.05564882,0.002496035,-0.6668518,-2.564034,1.150188
3.600001,4.211102,44,104,497,498,0.02564457,-0.01383281,0.009043872,-1.452248,-2.511073,-1.509278,0.0009109564,0.05352159,0.002486348,-0.667026,-2.563229,1.149489
3.800001,4.222213,44,104,497,498,0.02349038,-0.00639901,0.009124277,-1.45244,-2.510888,-1.50933,0.001961129,0.04712684,-0.002853087,-0.667451,-2.562997,1.149271
4,4.233324,44,104,497,498,0.02023886,0.001082628,0.004949267,-1.452392,-2.511113,-1.509445,0.001950457,0.03753758,-0.008176693,-0.6677333,-2.562945,1.149205
4.2,4.244435,44,104,497,498,0.01061608,0.002167712,0.0007967129,-1.452237,-2.511215,-1.509463,0.0147108,0.02796846,-0.01569674,-0.6681115,-2.563038,1.148816
4.4,4.255547,44,104,497,498,-0.009757571,-0.0158777,-0.01295042,-1.4517,-2.510495,-1.508818,0.01679326,0.02903423,-0.02529493,-0.6687421,-2.562862,1.148441
4.6,4.266658,44,104,497,498,-0.04081164,-0.05411592,-0.03310762,-1.45074,-2.509068,-1.507969,0.01571437,0.04076616,-0.02209221,-0.6691917,-2.561419,1.147343
4.8,4.277769,44,104,497,498,-0.0664238,-0.07540667,-0.03935584,-1.450192,-2.507794,-1.506705,0.01132953,0.04394795,-0.04657406,-0.6704875,-2.561313,1.147258
5,4.28888,44,104,497,498,-0.09219467,-0.09979587,-0.06054503,-1.448849,-2.506024,-1.505134,0.007703647,0.04818656,-0.1328475,-0.6741307,-2.562641,1.148395
5.199999,4.299992,44,104,497,498,-0.09665551,-0.08797663,-0.07640898,-1.447408,-2.505509,-1.50397,0.01149458,0.0726764,-0.2212936,-0.6788802,-2.563381,1.148811
5.399999,4.311103,44,104,497,498,-0.1043609,-0.01651181,-0.09075407,-1.446092,-2.50738,-1.502416,0.03572667,0.08974436,-0.2714858,-0.6834145,-2.564132,1.148376
5.599999,4.322214,44,104,497,498,-0.1546428,0.1272593,-0.09241794,-1.445481,-2.512588,-1.498616,0.08133419,0.1153694,-0.303686,-0.6879861,-2.564213,1.146357
5.799999,4.333325,44,104,497,498,-0.2465552,0.2305787,-0.106689,-1.444271,-2.517744,-1.49281,0.06878867,0.1313455,-0.2492994,-0.6900538,-2.562419,1.144477
5.999999,4.344437,44,104,497,498,-0.2905156,0.2913707,-0.1249629,-1.442853,-2.522553,-1.487833,0.007401623,0.1461893,-0.1616513,-0.6904048,-2.559205,1.143538
6.199998,4.355548,44,104,497,498,-0.3451468,0.3798423,-0.1418724,-1.441376,-2.529527,-1.481574,-0.02537109,0.1472186,-0.1092928,-0.6909369,-2.556715,1.142776
6.399998,4.366659,44,104,497,498,-0.3761085,0.4586067,-0.137794,-1.440788,-2.53654,-1.475689,-0.03252532,0.1227255,-0.05492073,-0.6906264,-2.555344,1.142225
6.599998,4.37777,44,104,497,498,-0.4208179,0.490464,-0.130693,-1.44014,-2.542791,-1.469099,-0.01837327,0.0567013,-0.01555819,-0.6896027,-2.556676,1.14288
6.799998,4.388882,44,104,497,498,-0.4603738,0.4755928,-0.144186,-1.438991,-2.547806,-1.462286,-0.004364308,-0.02849888,-0.01027295,-0.6884937,-2.560215,1.145298
6.999998,4.399993,44,104,497,498,-0.4658296,0.450099,-0.1581368,-1.437487,-2.552122,-1.456456,0.005229406,-0.1147976,-0.04975471,-0.6891888,-2.566667,1.149085
7.199997,4.411104,44,104,497,498,-0.4672122,0.4013266,-0.1925451,-1.434823,-2.555585,-1.450785,0.005100772,-0.1478327,-0.08703019,-0.6899244,-2.571492,1.152741
7.399997,4.422215,44,104,497,498,-0.4750394,0.3536505,-0.2321882,-1.431769,-2.558816,-1.445019,-0.007876709,-0.1713142,-0.1445124,-0.6920975,-2.577164,1.156802
7.599997,4.433327,44,104,497,498,-0.4924163,0.2984811,-0.2685944,-1.42811,-2.56124,-1.438743,-0.03785494,-0.1841547,-0.1795186,-0.6938451,-2.582427,1.162047
7.799997,4.444438,44,104,497,498,-0.5106276,0.2538078,-0.2825737,-1.424761,-2.563499,-1.432201,-0.07730016,-0.1842102,-0.1846624,-0.6950232,-2.586435,1.166984
7.999997,4.455549,44,104,497,498,-0.5426357,0.1686397,-0.2966488,-1.421032,-2.563549,-1.425229,-0.1176461,-0.1672187,-0.1514346,-0.6951638,-2.588897,1.171089
8.199997,4.46666,44,104,497,498,-0.5692574,0.0578872,-0.3066815,-1.41731,-2.561967,-1.418315,-0.1483883,-0.142772,-0.1193456,-0.6953641,-2.591043,1.17455
8.399997,4.477772,44,104,497,498,-0.5787332,-0.06672439,-0.3106189,-1.413316,-2.558959,-1.412154,-0.1939229,-0.09808771,-0.05096467,-0.6944352,-2.59059,1.177252
8.599997,4.488883,44,104,497,498,-0.5679746,-0.1945369,-0.3147973,-1.40894,-2.554023,-1.406701,-0.2288546,-0.04166305,0.01310717,-0.6931478,-2.588094,1.178781
8.799996,4.499994,44,104,497,498,-0.5562258,-0.2637579,-0.3186029,-1.404481,-2.550208,-1.401232,-0.2447375,0.009456873,0.04938988,-0.6923431,-2.585302,1.179702
8.999996,4.511106,44,104,497,498,-0.5317231,-0.3627244,-0.3301994,-1.399397,-2.544085,-1.397004,-0.2638729,0.0371297,0.06651973,-0.691681,-2.583008,1.181337
9.199996,4.522217,44,104,497,498,-0.5029226,-0.4521197,-0.3375296,-1.394234,-2.537827,-1.393253,-0.2734078,0.03071871,0.07507502,-0.6910983,-2.582982,1.184406
9.399996,4.533328,44,104,497,498,-0.4784119,-0.5287372,-0.3457782,-1.388841,-2.530699,-1.389826,-0.2925089,-0.003399462,0.07943917,-0.689828,-2.583712,1.188733
9.599996,4.544439,44,104,497,498,-0.4656132,-0.5691785,-0.3493912,-1.383664,-2.524327,-1.386126,-0.3008817,-0.04709041,0.09333123,-0.6880959,-2.585547,1.193454
9.799995,4.555551,44,104,497,498,-0.4453162,-0.6170896,-0.3499406,-1.37832,-2.516802,-1.383131,-0.3018176,-0.07159537,0.109324,-0.686107,-2.586674,1.197476
9.999995,4.566662,44,104,497,498,-0.4302926,-0.6395179,-0.3428099,-1.373148,-2.509756,-1.379874,-0.303895,-0.07585692,0.1189232,-0.6842971,-2.587179,1.201312
10.2,4.577773,44,104,497,498,-0.4099148,-0.6417133,-0.3302698,-1.368421,-2.503261,-1.377003,-0.3092092,-0.05241424,0.123188,-0.6832356,-2.585994,1.203511
10.39999,4.588884,44,104,497,498,-0.4024474,-0.6214854,-0.3270187,-1.363684,-2.497548,-1.373889,-0.3124658,-0.02685338,0.118935,-0.6822417,-2.584775,1.206132
10.59999,4.599996,44,104,497,498,-0.401307,-0.604484,-0.3184089,-1.359054,-2.492056,-1.370599,-0.3049742,-0.009786963,0.1263344,-0.6811173,-2.583478,1.207951
10.79999,4.611107,44,104,497,498,-0.3969646,-0.5555629,-0.3053401,-1.35507,-2.487756,-1.367233,-0.2868911,0.004089862,0.1251775,-0.6799764,-2.582175,1.209666
10.99999,4.622218,44,104,497,498,-0.3915594,-0.5289793,-0.2956658,-1.350717,-2.483194,-1.364023,-0.2772938,0.006228268,0.1229875,-0.6789138,-2.581578,1.211692
11.19999,4.633329,44,104,497,498,-0.3797255,-0.4800704,-0.2794826,-1.347248,-2.479708,-1.360871,-0.2751331,-0.009747535,0.1240467,-0.6774358,-2.581529,1.214662
11.39999,4.644441,44,104,497,498,-0.3615947,-0.4470607,-0.2741383,-1.343429,-2.47614,-1.358147,-0.2708093,-0.02785528,0.1240223,-0.6759401,-2.582147,1.21757
11.59999,4.655552,44,104,497,498,-0.3380625,-0.3895935,-0.258021,-1.340465,-2.474001,-1.355443,-0.260111,-0.04701322,0.1271715,-0.6741419,-2.582912,1.220762
11.79999,4.666663,44,104,497,498,-0.3134133,-0.3279145,-0.2376299,-1.338032,-2.472532,-1.352983,-0.2430128,-0.06936431,0.1249519,-0.6725675,-2.584461,1.22374
11.99999,4.677774,44,104,497,498,-0.2973105,-0.2812006,-0.2183013,-1.335462,-2.470311,-1.350065,-0.22805,-0.08424118,0.1270273,-0.6706868,-2.585142,1.226231
12.19999,4.688886,44,104,497,498,-0.2875898,-0.2461427,-0.20219,-1.333285,-2.468935,-1.34748,-0.2152743,-0.09913711,0.1205776,-0.6690809,-2.58675,1.229532
12.39999,4.699997,44,104,497,498,-0.2811027,-0.2270587,-0.1914742,-1.330933,-2.466915,-1.344936,-0.2046386,-0.1033761,0.116258,-0.6676998,-2.587874,1.232489
12.59999,4.711108,44,104,497,498,-0.2628607,-0.2015697,-0.1765871,-1.329084,-2.465738,-1.342788,-0.1972884,-0.07460485,0.1034311,-0.6669258,-2.58751,1.234161
12.79999,4.722219,44,104,497,498,-0.2552615,-0.187801,-0.1616661,-1.32727,-2.464441,-1.340408,-0.1994737,-0.0533056,0.09809409,-0.6661908,-2.587127,1.236095
12.99999,4.733331,44,104,497,498,-0.2305925,-0.1431651,-0.1413933,-1.326225,-2.464321,-1.338539,-0.2112553,-0.02243105,0.0949472,-0.6655298,-2.585647,1.237616
13.19999,4.744442,44,104,497,498,-0.2091562,-0.1134072,-0.127564,-1.325171,-2.463926,-1.337006,-0.2123183,-0.0106988,0.09708518,-0.6644565,-2.58452,1.238944
13.39999,4.755553,44,104,497,498,-0.1952832,-0.09530858,-0.1233329,-1.323817,-2.463647,-1.335274,-0.2080568,-0.004299879,0.0991936,-0.6633987,-2.583709,1.240505
13.59999,4.766665,44,104,497,498,-0.1813213,-0.07938931,-0.1105956,-1.322809,-2.463418,-1.333537,-0.20703,-0.003212661,0.09173069,-0.6627069,-2.582851,1.2421
13.79999,4.777776,44,104,497,498,-0.1727083,-0.07730543,-0.1021532,-1.321745,-2.46283,-1.332006,-0.2006544,-0.01279208,0.08531031,-0.6618451,-2.583097,1.244347
13.99999,4.788887,44,104,497,498,-0.1598368,-0.08585586,-0.09596805,-1.320447,-2.461798,-1.330891,-0.192118,-0.02235164,0.08207896,-0.6609049,-2.583121,1.246033
14.19999,4.799998,44,104,497,498,-0.1597647,-0.08376431,-0.08956045,-1.319461,-2.461158,-1.329317,-0.1868242,-0.01912571,0.0767401,-0.66013,-2.582269,1.247356
14.39999,4.81111,44,104,497,498,-0.1501399,-0.07948963,-0.08750892,-1.318448,-2.460795,-1.328276,-0.1868942,-0.01380219,0.06395553,-0.6597731,-2.582094,1.249294
14.59999,4.822221,44,104,497,498,-0.1394416,-0.0752006,-0.08654046,-1.317362,-2.460613,-1.32757,-0.1847988,-0.008481845,0.05329251,-0.6594413,-2.58196,1.250826
14.79999,4.833332,44,104,497,498,-0.1277161,-0.06241686,-0.08445149,-1.316421,-2.460463,-1.326503,-0.1784361,-0.006342694,0.04793468,-0.6590748,-2.581782,1.252506
14.99999,4.844443,44,104,497,498,-0.1234902,-0.05596314,-0.08870938,-1.315431,-2.460597,-1.325462,-0.1742547,-0.01696372,0.02981175,-0.6591111,-2.581908,1.254562
15.19999,4.855555,44,104,497,498,-0.1150294,-0.06336586,-0.09524463,-1.313997,-2.45998,-1.324581,-0.1699926,-0.02441478,0.02766223,-0.6587297,-2.582553,1.256845
15.39999,4.866666,44,104,497,498,-0.1171458,-0.07399802,-0.09742022,-1.312726,-2.45917,-1.323734,-0.1635888,-0.01268338,0.03506977,-0.6583728,-2.582057,1.258192
15.59999,4.877777,44,104,497,498,-0.1182655,-0.07715897,-0.1027564,-1.31123,-2.458535,-1.322547,-0.1645668,0.006489798,0.05530245,-0.6575717,-2.580779,1.258755
15.79999,4.888888,44,104,497,498,-0.122587,-0.08669063,-0.1123627,-1.309495,-2.457654,-1.321726,-0.1719728,0.02033067,0.07024942,-0.6566375,-2.579252,1.259649
15.99999,4.9,44,104,497,498,-0.1204699,-0.08558235,-0.1166206,-1.308254,-2.457195,-1.321047,-0.1825567,0.02563876,0.08733436,-0.6555179,-2.578138,1.261159
16.19999,4.911111,44,104,497,498,-0.1216309,-0.08339528,-0.1251161,-1.306465,-2.456738,-1.31978,-0.1804061,0.01925069,0.08945609,-0.6545091,-2.57749,1.262609
16.39999,4.922222,44,104,497,498,-0.1249461,-0.08651529,-0.1389334,-1.30457,-2.455943,-1.318889,-0.1739805,0.005429521,0.0883599,-0.6536777,-2.577169,1.263816
16.59999,4.933333,44,104,497,498,-0.1293287,-0.09176779,-0.1506403,-1.302347,-2.455313,-1.317518,-0.1718618,-0.00841552,0.07984604,-0.6527301,-2.577284,1.265679
16.79999,4.944445,44,104,497,498,-0.135781,-0.09595315,-0.1601793,-1.300318,-2.454864,-1.316479,-0.1643915,-0.01373047,0.08087648,-0.6517655,-2.577288,1.267305
16.99999,4.955556,44,104,497,498,-0.1497596,-0.1033415,-0.1728613,-1.297776,-2.454087,-1.314625,-0.1654027,-0.02011019,0.0883465,-0.6504995,-2.576936,1.268776
17.19999,4.966667,44,104,497,498,-0.1648178,-0.1021665,-0.1887037,-1.294762,-2.453971,-1.3128,-0.1706391,-0.02863693,0.1043534,-0.6488196,-2.577054,1.270895
17.39999,4.977778,44,104,497,498,-0.1681155,-0.104236,-0.1982702,-1.292071,-2.453399,-1.310999,-0.1705195,-0.03927813,0.1235283,-0.6469457,-2.577096,1.272631
17.59999,4.98889,44,104,497,498,-0.1875501,-0.10304,-0.2204136,-1.289013,-2.453131,-1.308336,-0.1619272,-0.04139268,0.1373363,-0.6449761,-2.576981,1.274104
17.8,5.000001,44,104,497,498,-0.1972809,-0.09977404,-0.2319941,-1.286149,-2.452893,-1.305851,-0.1555219,-0.04243958,0.1362378,-0.6435454,-2.576881,1.275323
18,5.011112,44,104,497,498,-0.2081478,-0.0953963,-0.2510226,-1.282698,-2.452868,-1.303268,-0.154502,-0.0498977,0.1245161,-0.6423182,-2.577594,1.277565
18.2,5.022223,44,104,497,498,-0.2136155,-0.09534448,-0.2679765,-1.279391,-2.451935,-1.301601,-0.151324,-0.05841406,0.1213149,-0.6407598,-2.578266,1.279956
18.4,5.033335,44,104,497,498,-0.2276833,-0.09629092,-0.2880716,-1.275496,-2.451869,-1.298689,-0.1523947,-0.06161204,0.1191902,-0.6393392,-2.578908,1.282185
18.6,5.044446,44,104,497,498,-0.2374005,-0.08983304,-0.2974962,-1.272136,-2.45213,-1.295554,-0.1544467,-0.07546933,0.1277185,-0.6374527,-2.580271,1.28479
18.8,5.055557,44,104,497,498,-0.2439356,-0.08655907,-0.3101871,-1.268284,-2.452336,-1.292624,-0.1490632,-0.08823933,0.1351628,-0.6353567,-2.581345,1.287153
19,5.066669,44,104,497,498,-0.2504165,-0.08012,-0.3175536,-1.264263,-2.45279,-1.289546,-0.1532855,-0.09357083,0.1415762,-0.6333817,-2.582448,1.289857
19.2,5.07778,44,104,497,498,-0.2579665,-0.0704918,-0.3248634,-1.26046,-2.453387,-1.286277,-0.1500441,-0.09356184,0.1468856,-0.6314546,-2.583186,1.291747
19.4,5.088891,44,104,497,498,-0.2645242,-0.06720724,-0.3375507,-1.256401,-2.45405,-1.28269,-0.14898,-0.08929884,0.1479448,-0.6295787,-2.583827,1.293891
19.6,5.100002,44,104,497,498,-0.2688607,-0.07035901,-0.3439048,-1.252514,-2.454368,-1.279411,-0.1553685,-0.08823177,0.1458432,-0.6279345,-2.584408,1.296024
19.8,5.111114,44,104,497,498,-0.2785564,-0.06711055,-0.3533653,-1.248339,-2.454987,-1.275853,-0.1596514,-0.08397762,0.1426671,-0.626285,-2.585046,1.298431
20,5.122225,44,104,497,498,-0.2808448,-0.06487665,-0.3671828,-1.243865,-2.455865,-1.272366,-0.1575125,-0.08397342,0.1458471,-0.6244298,-2.585829,1.300815
20.2,5.133336,44,104,497,498,-0.2893963,-0.06912727,-0.3703144,-1.239614,-2.45627,-1.268783,-0.1574805,-0.08823347,0.1511744,-0.6223941,-2.586788,1.303339
20.40001,5.144447,44,104,497,498,-0.2936968,-0.07548898,-0.3745659,-1.235362,-2.456639,-1.265298,-0.1659782,-0.09036653,0.152271,-0.6206539,-2.587613,1.305836
20.60001,5.155559,44,104,497,498,-0.3032709,-0.07657407,-0.3734032,-1.231196,-2.45705,-1.261533,-0.1680821,-0.1031526,0.1512144,-0.618736,-2.589342,1.308956
20.80001,5.16667,44,104,497,498,-0.3065194,-0.07227223,-0.3776027,-1.226905,-2.457961,-1.257777,-0.1713041,-0.1063545,0.1448388,-0.6170416,-2.590833,1.312155
21.00001,5.177781,44,104,497,498,-0.3086628,-0.07120255,-0.3786374,-1.222641,-2.458587,-1.254069,-0.172383,-0.1010263,0.1501635,-0.6150959,-2.591623,1.315189
21.20001,5.188892,44,104,497,498,-0.311833,-0.07442246,-0.3743596,-1.21856,-2.459129,-1.250066,-0.1713173,-0.0978286,0.151223,-0.6131934,-2.59256,1.317823
21.40001,5.200004,44,104,497,498,-0.3182335,-0.07548738,-0.3743074,-1.214233,-2.459785,-1.245989,-0.1723999,-0.1010217,0.1490952,-0.6113867,-2.593836,1.32098
21.60001,5.211115,44,104,497,498,-0.3181597,-0.07872676,-0.367938,-1.210242,-2.460158,-1.242335,-0.1766445,-0.1052888,0.1512471,-0.6094026,-2.595279,1.324253
21.80001,5.222226,44,104,497,498,-0.3192223,-0.08299854,-0.3658241,-1.206082,-2.460604,-1.23831,-0.175588,-0.1170182,0.1459219,-0.607474,-2.597601,1.328085
22.00001,5.233337,44,104,497,498,-0.3170568,-0.08301769,-0.3626517,-1.202031,-2.461073,-1.234668,-0.1777331,-0.1106299,0.1448657,-0.6056715,-2.59875,1.33107
22.20001,5.244449,44,104,497,498,-0.3212256,-0.0788063,-0.3540579,-1.198243,-2.461806,-1.230816,-0.1788289,-0.1042558,0.1395466,-0.6039469,-2.600132,1.334154
22.40001,5.25556,44,104,497,498,-0.3233249,-0.07563497,-0.3508172,-1.194386,-2.462418,-1.22693,-0.1831463,-0.09149967,0.135291,-0.602464,-2.601368,1.33754
22.60001,5.266671,44,104,497,498,-0.3158177,-0.07458203,-0.345565,-1.190647,-2.463117,-1.223311,-0.1916742,-0.08085896,0.1374607,-0.6007617,-2.601807,1.340249
22.80001,5.277782,44,104,497,498,-0.3136095,-0.07143447,-0.33811,-1.187091,-2.463718,-1.219673,-0.1969998,-0.0755443,0.1406952,-0.5988043,-2.602412,1.343198
23.00002,5.288894,44,104,497,498,-0.3049663,-0.06510252,-0.3264319,-1.183902,-2.464457,-1.216258,-0.1980737,-0.07661161,0.1385699,-0.5971606,-2.603323,1.346172
23.20002,5.300005,44,104,497,498,-0.2963465,-0.05450858,-0.3157982,-1.180728,-2.465358,-1.212759,-0.1959336,-0.07765931,0.1428346,-0.5951835,-2.603902,1.348945
23.40002,5.311116,44,104,497,498,-0.2930508,-0.05030905,-0.3062172,-1.177607,-2.466096,-1.209308,-0.1980405,-0.07979225,0.1471064,-0.5932484,-2.60488,1.352
23.60002,5.322227,44,104,497,498,-0.2886603,-0.04718053,-0.2945207,-1.174724,-2.466811,-1.206,-0.1970167,-0.08619428,0.1407157,-0.5915339,-2.606548,1.35584
23.80002,5.333339,44,104,497,498,-0.2864222,-0.04937395,-0.2849718,-1.171793,-2.46734,-1.202681,-0.1991618,-0.09365553,0.1354009,-0.5899408,-2.608196,1.359484
24.00002,5.34445,44,104,497,498,-0.2798948,-0.04732373,-0.2722545,-1.168964,-2.467937,-1.199498,-0.1992365,-0.1000341,0.1215412,-0.5889165,-2.609758,1.36321
24.20002,5.355561,44,104,497,498,-0.2680633,-0.04950818,-0.2617418,-1.16632,-2.468411,-1.196607,-0.2024965,-0.1010942,0.1119601,-0.5878012,-2.611213,1.36699
24.40002,5.366673,44,104,497,498,-0.2594214,-0.04425167,-0.2500758,-1.163893,-2.469037,-1.19369,-0.20361,-0.1064244,0.1002481,-0.5867375,-2.613254,1.370988
24.60002,5.377784,44,104,497,498,-0.2519042,-0.03043758,-0.2415392,-1.16163,-2.470262,-1.19037,-0.200452,-0.1234781,0.09064922,-0.585521,-2.616451,1.376021
24.80002,5.388895,44,104,497,498,-0.2432207,-0.01881818,-0.2255743,-1.159708,-2.471194,-1.187509,-0.1961893,-0.1245372,0.09062914,-0.5842602,-2.618635,1.379903
25.00002,5.400006,44,104,497,498,-0.2410156,-0.01355056,-0.2170395,-1.157589,-2.472033,-1.184362,-0.1919859,-0.1149516,0.08528964,-0.5830752,-2.620229,1.383512
25.20002,5.411118,44,104,497,498,-0.2387481,-0.000859268,-0.2031276,-1.155993,-2.473152,-1.181318,-0.2005531,-0.09792002,0.0810661,-0.5821936,-2.621066,1.386676
25.40002,5.422229,44,104,497,498,-0.2343363,0.01289055,-0.1881677,-1.154544,-2.474351,-1.178361,-0.2048786,-0.07343172,0.07681359,-0.5814986,-2.621433,1.389501
25.60003,5.43334,44,104,497,498,-0.2278318,0.02453805,-0.1764392,-1.153221,-2.47562,-1.175457,-0.2059578,-0.06384555,0.07681706,-0.5805787,-2.621953,1.392239
25.80003,5.444451,44,104,497,498,-0.2224171,0.02768489,-0.1679464,-1.151909,-2.476712,-1.17263,-0.2069958,-0.05958223,0.08322238,-0.5792609,-2.622536,1.394989
26.00003,5.455563,44,104,497,498,-0.2128016,0.01920124,-0.168121,-1.150128,-2.477856,-1.170259,-0.2070072,-0.05745666,0.08322248,-0.5782474,-2.623534,1.398255
26.20003,5.466674,44,104,497,498,-0.2095662,0.005342106,-0.1661208,-1.14836,-2.478338,-1.167807,-0.2070172,-0.06811054,0.07789785,-0.5773445,-2.625183,1.40193
26.40003,5.477785,44,104,497,498,-0.2073741,-0.02236401,-0.1641964,-1.146453,-2.478147,-1.165675,-0.2027646,-0.07343185,0.07681931,-0.5762836,-2.626636,1.405478
26.60003,5.488896,44,104,497,498,-0.2073331,-0.03729246,-0.1621685,-1.144525,-2.478123,-1.163386,-0.1985299,-0.0691653,0.07253715,-0.5754936,-2.62763,1.408406
26.80003,5.500008,44,104,497,498,-0.2094449,-0.0511369,-0.16226,-1.142336,-2.478201,-1.160957,-0.200711,-0.05957402,0.06720638,-0.5749882,-2.628005,1.411153
27.00003,5.511119,44,104,497,498,-0.2126026,-0.07351886,-0.1613138,-1.140161,-2.477513,-1.158793,-0.1996887,-0.05424733,0.05974346,-0.5744556,-2.628682,1.413934
27.20003,5.52223,44,104,497,498,-0.2167826,-0.08528202,-0.1560278,-1.13813,-2.476977,-1.15661,-0.1954387,-0.05637628,0.05866597,-0.5736102,-2.62986,1.41713
27.40003,5.533341,44,104,497,498,-0.2209822,-0.06616297,-0.1483931,-1.136709,-2.477458,-1.153846,-0.1836878,-0.05103135,0.06713167,-0.5725828,-2.630379,1.41927
27.60003,5.544453,44,104,497,498,-0.2242134,-0.04591663,-0.1492794,-1.135238,-2.478269,-1.15096,-0.1900819,-0.0297229,0.07567254,-0.5716678,-2.629428,1.420901
27.80003,5.555564,44,104,497,498,-0.2242307,-0.03844078,-0.1502916,-1.133628,-2.478896,-1.148277,-0.2017517,-0.01268625,0.09276893,-0.5703176,-2.628384,1.422717
28.00003,5.566675,44,104,497,498,-0.2328055,-0.03309583,-0.1544225,-1.131892,-2.479508,-1.145183,-0.1985518,-0.00842014,0.0948836,-0.5692187,-2.628019,1.424541
28.20004,5.577786,44,104,497,498,-0.2328477,-0.03413484,-0.158693,-1.129967,-2.479909,-1.142461,-0.2028546,-0.01268926,0.08959404,-0.5681418,-2.62837,1.42751
28.40004,5.588898,44,104,497,498,-0.2424915,-0.03516602,-0.1649817,-1.128035,-2.480373,-1.139484,-0.2007351,-0.04038589,0.07893602,-0.5674062,-2.630455,1.431469
28.60004,5.600009,44,104,497,498,-0.2489869,-0.0287072,-0.173392,-1.126097,-2.481433,-1.136065,-0.1773255,-0.06380418,0.07031137,-0.5665508,-2.633123,1.435334
28.80004,5.61112,44,104,497,498,-0.2543726,-0.02761199,-0.1786524,-1.124041,-2.482165,-1.132755,-0.1869369,-0.05423053,0.06822459,-0.5658194,-2.633582,1.438036
29.00004,5.622231,44,104,497,498,-0.2554937,-0.04034108,-0.185109,-1.121884,-2.482519,-1.12981,-0.1964815,-0.05104743,0.07891621,-0.5646684,-2.634063,1.440935
29.20004,5.633343,44,104,497,498,-0.2566507,-0.04986734,-0.1947528,-1.119356,-2.48283,-1.126815,-0.1974651,-0.05530734,0.0949012,-0.5631238,-2.635056,1.443962
29.40004,5.644454,44,104,497,498,-0.2587918,-0.06157775,-0.1969343,-1.116989,-2.482857,-1.123884,-0.1973433,-0.05210409,0.123674,-0.5607946,-2.635426,1.446576
29.60004,5.655565,44,104,497,498,-0.2555646,-0.06372581,-0.1937788,-1.114937,-2.483064,-1.120971,-0.2015232,-0.05956453,0.1386095,-0.5587546,-2.636627,1.44995
29.80004,5.666677,44,104,497,498,-0.2576965,-0.05946262,-0.1937232,-1.112811,-2.48359,-1.117853,-0.2035954,-0.09153296,0.1439571,-0.5567743,-2.640007,1.455343
30.00004,5.677788,44,104,497,498,-0.2608754,-0.05095886,-0.1914954,-1.11087,-2.484233,-1.114606,-0.2003995,-0.1043121,0.143943,-0.5550731,-2.642493,1.459825
30.20004,5.688899,44,104,497,498,-0.2609019,-0.03816833,-0.1924726,-1.10891,-2.485206,-1.111295,-0.1961682,-0.1011112,0.1385958,-0.55357,-2.644157,1.463263
30.40004,5.70001,44,104,497,498,-0.2682469,-0.03277547,-0.1902116,-1.107618,-2.487092,-1.108611,-0.2015719,-0.09367698,0.1279613,-0.5523534,-2.645814,1.467338
30.60004,5.711122,44,104,497,498,-0.273599,-0.03063697,-0.1922689,-1.105524,-2.487915,-1.105071,-0.2058778,-0.09048873,0.1194586,-0.5511768,-2.647329,1.471014
30.80005,5.722233,44,104,497,498,-0.2788484,-0.03163457,-0.1912297,-1.103131,-2.489867,-1.101671,-0.1984341,-0.08088645,0.1215578,-0.5495907,-2.648305,1.473994
31.00005,5.733344,44,104,497,498,-0.2809987,-0.03694953,-0.1933625,-1.100999,-2.490354,-1.098318,-0.2037465,-0.07663211,0.1258433,-0.5480359,-2.64943,1.477328
31.20005,5.744455,44,104,497,498,-0.2830742,-0.05174529,-0.1986781,-1.100125,-2.49097,-1.096177,-0.2069214,-0.07876313,0.1311936,-0.5462441,-2.650827,1.481053
31.40005,5.755567,44,104,497,498,-0.282029,-0.0581167,-0.2019379,-1.097595,-2.491361,-1.092999,-0.2058597,-0.07982711,0.1301235,-0.5447608,-2.652344,1.484616
31.60005,5.766678,44,104,497,498,-0.2819672,-0.07944372,-0.1999279,-1.095396,-2.490539,-1.090363,-0.2069663,-0.07450196,0.125864,-0.5434404,-2.653423,1.488063
31.80005,5.777789,44,104,497,498,-0.2786307,-0.09430002,-0.1990038,-1.093222,-2.490971,-1.088657,-0.201644,-0.08622031,0.1237045,-0.5420555,-2.655855,1.492418
32.00005,5.7889,44,104,497,498,-0.2754031,-0.1007053,-0.1980278,-1.090538,-2.490767,-1.085955,-0.1963075,-0.08621235,0.12581,-0.5405418,-2.657484,1.495851
32.20005,5.800012,44,104,497,498,-0.2700303,-0.1038407,-0.1991942,-1.088031,-2.491494,-1.08348,-0.1973603,-0.07875291,0.1343331,-0.5388065,-2.658413,1.49915
32.40005,5.811123,44,104,497,498,-0.2668461,-0.1038293,-0.2002939,-1.08549,-2.491559,-1.080558,-0.1962814,-0.07768548,0.1375237,-0.5371202,-2.659833,1.502532
32.60005,5.822234,44,104,497,498,-0.2636555,-0.09743917,-0.2002917,-1.083006,-2.491762,-1.077553,-0.1984493,-0.07982233,0.1311426,-0.5357732,-2.66167,1.506536
32.80005,5.833345,44,104,497,498,-0.2658053,-0.09210771,-0.2023682,-1.08045,-2.49206,-1.074531,-0.2006165,-0.07876141,0.1236954,-0.5345529,-2.663218,1.510151
33.00005,5.844457,44,104,497,498,-0.2625771,-0.08245367,-0.205417,-1.079694,-2.492251,-1.072706,-0.2038597,-0.07025631,0.1173247,-0.5332394,-2.664433,1.513641
33.20005,5.855568,44,104,497,498,-0.261542,-0.07075174,-0.2042667,-1.077526,-2.492795,-1.069242,-0.2006791,-0.05960658,0.1194383,-0.5318205,-2.665343,1.516695
33.40005,5.866679,44,104,497,498,-0.2593282,-0.06105826,-0.2084391,-1.076276,-2.494099,-1.067674,-0.2017188,-0.05641109,0.1258345,-0.5302482,-2.66627,1.519774
33.60006,5.87779,44,104,497,498,-0.255054,-0.05568948,-0.2117446,-1.0729,-2.495682,-1.064779,-0.2017136,-0.06173682,0.1268938,-0.5288601,-2.667777,1.523424
33.80006,5.888902,44,104,497,498,-0.254029,-0.05033927,-0.2149139,-1.070533,-2.49664,-1.061525,-0.1995704,-0.06706011,0.12795,-0.5273682,-2.669397,1.526997
34.00006,5.900013,44,104,497,498,-0.2529088,-0.04493089,-0.2201754,-1.068887,-2.497796,-1.059727,-0.1889371,-0.07343684,0.1225691,-0.5261596,-2.671275,1.530486
34.20006,5.911124,44,104,497,498,-0.2518589,-0.04491832,-0.2223239,-1.066326,-2.498688,-1.056647,-0.1889761,-0.07769963,0.1129822,-0.5251365,-2.673136,1.534194
34.40006,5.922235,44,104,497,498,-0.2497346,-0.03738581,-0.2276447,-1.063889,-2.500486,-1.053814,-0.1826574,-0.08620641,0.09803393,-0.524476,-2.675194,1.538094
34.60006,5.933347,44,104,497,498,-0.2443592,-0.03731149,-0.2309152,-1.061529,-2.502175,-1.051452,-0.1794747,-0.08619729,0.09696134,-0.5232355,-2.676878,1.541598
34.80006,5.944458,44,104,497,498,-0.2443693,-0.03836916,-0.231988,-1.059041,-2.503207,-1.048217,-0.1826456,-0.08620083,0.1023027,-0.52193,-2.6787,1.545303
35.00006,5.955569,44,104,497,498,-0.2432837,-0.04157662,-0.2309644,-1.0565,-2.504076,-1.045153,-0.1815454,-0.09578387,0.1097548,-0.5204989,-2.681214,1.54967
35.20006,5.966681,44,104,497,498,-0.2390295,-0.04161883,-0.2298878,-1.054524,-2.504101,-1.04232,-0.1729912,-0.1042935,0.1139775,-0.5190948,-2.683888,1.553691
35.40006,5.977792,44,104,497,498,-0.2316107,-0.04271862,-0.2310446,-1.051623,-2.504545,-1.039291,-0.1676443,-0.1149461,0.1150112,-0.5178778,-2.687223,1.558299
35.60006,5.988903,44,104,497,498,-0.228361,-0.04062184,-0.2257373,-1.049394,-2.505537,-1.036364,-0.1613164,-0.1085473,0.1032621,-0.5170453,-2.689299,1.561694
35.80006,6.000014,44,104,497,498,-0.2273725,-0.04596057,-0.2300569,-1.046312,-2.50605,-1.03308,-0.1635519,-0.1032176,0.08516052,-0.5166426,-2.69103,1.565336
36.00006,6.011126,44,104,497,498,-0.2284579,-0.04807743,-0.2321911,-1.043757,-2.507029,-1.030031,-0.1604213,-0.08618444,0.08194996,-0.5156381,-2.692573,1.568758
36.20007,6.022237,44,104,497,498,-0.2263936,-0.05557832,-0.2343935,-1.040664,-2.507129,-1.026858,-0.1583138,-0.07339805,0.08087267,-0.5147677,-2.693526,1.571283
36.40007,6.033348,44,104,497,498,-0.2285617,-0.07471956,-0.2409078,-1.037354,-2.507448,-1.024115,-0.1626176,-0.05742756,0.07769898,-0.5139512,-2.694062,1.573791
36.60007,6.044459,44,104,497,498,-0.2296809,-0.08006925,-0.2419916,-1.034382,-2.507748,-1.020747,-0.1604418,-0.0542268,0.08834137,-0.5126595,-2.695135,1.576448
36.80007,6.055571,44,104,497,498,-0.2200399,-0.09073618,-0.2379059,-1.031637,-2.508038,-1.018361,-0.1582155,-0.05741353,0.1085685,-0.5109445,-2.696616,1.579426
37.00007,6.066682,44,104,497,498,-0.2094049,-0.09288099,-0.2369763,-1.02861,-2.508397,-1.015734,-0.1603171,-0.06380759,0.1128406,-0.5095959,-2.698454,1.582864
37.20007,6.077793,44,104,497,498,-0.2019895,-0.09075219,-0.2381129,-1.025629,-2.508998,-1.012967,-0.15175,-0.07978216,0.1213205,-0.5081194,-2.701512,1.587266
37.40007,6.088904,44,104,497,498,-0.1966814,-0.07796203,-0.238079,-1.023104,-2.510083,-1.010317,-0.1431999,-0.08402286,0.1276678,-0.5066494,-2.703464,1.59043
37.60007,6.100016,44,104,497,498,-0.1966496,-0.06830846,-0.2401987,-1.020286,-2.512273,-1.007767,-0.1475126,-0.07016452,0.1223562,-0.5055569,-2.703981,1.592783
37.80007,6.111127,44,104,497,498,-0.1988242,-0.06084238,-0.2422452,-1.017822,-2.513402,-1.004691,-0.1539305,-0.06910221,0.1181222,-0.5044363,-2.70533,1.595925
38.00007,6.122238,44,104,497,498,-0.1987532,-0.0458899,-0.2431721,-1.016134,-2.51492,-1.003018,-0.152841,-0.07229586,0.1223789,-0.5029832,-2.707249,1.599269
38.20007,6.133349,44,104,497,498,-0.1998358,-0.02354777,-0.2408668,-1.014061,-2.516649,-0.9996772,-0.1442702,-0.08506985,0.1308627,-0.5013273,-2.710231,1.603366
38.40007,6.144461,44,104,497,498,-0.1945595,-0.002220109,-0.2429025,-1.012042,-2.518868,-0.9964926,-0.1410608,-0.086133,0.1340492,-0.4997773,-2.712404,1.606773
38.60007,6.155572,44,104,497,498,-0.1913696,0.005181113,-0.2407517,-1.009681,-2.520167,-0.9935098,-0.1443343,-0.08188683,0.1202177,-0.4987259,-2.714439,1.610427
38.80008,6.166683,44,104,497,498,-0.1935621,0.009476867,-0.246025,-1.007395,-2.522233,-0.9902128,-0.1422189,-0.08508047,0.1159472,-0.4975925,-2.716699,1.613929
39.00008,6.177794,44,104,497,498,-0.1935746,0.008365031,-0.243894,-1.005081,-2.523581,-0.9868876,-0.1273047,-0.09998284,0.1126944,-0.4963269,-2.72028,1.61816
39.20008,6.188906,44,104,497,498,-0.1956601,-0.0001825318,-0.2407359,-1.002803,-2.525032,-0.9838783,-0.1251865,-0.103174,0.1105446,-0.495332,-2.722901,1.621889
39.40008,6.200017,44,104,497,498,-0.1945646,-0.006621343,-0.2354614,-1.000549,-2.52632,-0.9806153,-0.127348,-0.09999221,0.1084324,-0.4940744,-2.725559,1.625964
39.60008,6.211128,44,104,497,498,-0.1913385,-0.009831812,-0.2333935,-0.9982492,-2.527812,-0.9777886,-0.1262694,-0.1031875,0.1105571,-0.4928856,-2.728291,1.629785
39.80008,6.222239,44,104,497,498,-0.1849067,-0.007744062,-0.2281029,-0.9963946,-2.529087,-0.9750653,-0.118756,-0.1116948,0.1137437,-0.4915854,-2.73101,1.633332
40.00008,6.233351,44,104,497,498,-0.1849251,-0.00456365,-0.2270237,-0.9941778,-2.530832,-0.9717049,-0.1145616,-0.1095597,0.1051793,-0.4907173,-2.733958,1.637
40.20008,6.244462,44,104,497,498,-0.1859903,-0.00456509,-0.2270123,-0.9920936,-2.532488,-0.9687185,-0.11358,-0.09891237,0.09132503,-0.4901282,-2.735911,1.640068
40.40008,6.255573,44,104,497,498,-0.185969,-0.004590794,-0.2238141,-0.9900983,-2.534,-0.9656531,-0.1189566,-0.07441895,0.08814894,-0.4892642,-2.736473,1.642043
40.60008,6.266685,44,104,497,498,-0.182796,-0.004571373,-0.2259786,-0.9879619,-2.5357,-0.962762,-0.1222092,-0.06271238,0.08177039,-0.4885201,-2.737634,1.644675
40.80008,6.277796,44,104,497,498,-0.1860282,-0.008845998,-0.2270333,-0.9857243,-2.537055,-0.9594629,-0.1286082,-0.0542015,0.08394058,-0.4873942,-2.73878,1.647381
41.00008,6.288907,44,104,497,498,-0.1818001,-0.009882918,-0.2302819,-0.9834872,-2.538749,-0.956624,-0.1254022,-0.05100048,0.08712117,-0.4863651,-2.73999,1.649757
41.20008,6.300018,44,104,497,498,-0.1807373,-0.006712321,-0.2291949,-0.9814382,-2.540194,-0.9537137,-0.1179815,-0.05100903,0.08176847,-0.4855007,-2.741977,1.652793
41.40009,6.31113,44,104,497,498,-0.1775891,-0.002435766,-0.2313108,-0.9795187,-2.541926,-0.9506324,-0.1116064,-0.05314529,0.07746223,-0.4850362,-2.743926,1.655586
41.60009,6.322241,44,104,497,498,-0.1786886,-0.002414871,-0.234495,-0.977305,-2.543786,-0.9475878,-0.1009967,-0.0584558,0.06462877,-0.4847704,-2.745582,1.657769
41.80009,6.333352,44,104,497,498,-0.1765195,-0.0003093462,-0.231316,-0.975199,-2.54558,-0.9447644,-0.1063597,-0.04780252,0.06145357,-0.4842096,-2.745967,1.659537
42.00009,6.344463,44,104,497,498,-0.180829,-0.002430364,-0.2344724,-0.9730349,-2.54729,-0.9414738,-0.1042128,-0.04567219,0.06676837,-0.4834037,-2.747226,1.66186
42.20009,6.355575,44,104,497,498,-0.1808451,-0.004571231,-0.2344892,-0.9707803,-2.54897,-0.9382614,-0.1052383,-0.04887833,0.07210797,-0.4823768,-2.74908,1.664526
42.40009,6.366686,44,104,497,498,-0.1818947,-0.007776001,-0.233435,-0.9686194,-2.55063,-0.9352697,-0.09770988,-0.06271396,0.082726,-0.4813275,-2.75151,1.667533
42.60009,6.377797,44,104,497,498,-0.182976,-0.005655078,-0.2334239,-0.9663051,-2.5526,-0.9319082,-0.09347035,-0.0669715,0.07629801,-0.4809914,-2.753443,1.670154
42.80009,6.388908,44,104,497,498,-0.1872669,-0.008834517,-0.2365963,-0.9640175,-2.554427,-0.9286693,-0.09135948,-0.06590676,0.07202613,-0.4803693,-2.755111,1.672577
43.00009,6.40002,44,104,497,498,-0.1905667,-0.01516356,-0.2451193,-0.9616286,-2.55632,-0.9251198,-0.09247465,-0.05312572,0.06563804,-0.479827,-2.755791,1.674278
43.20009,6.411131,44,104,497,498,-0.1938011,-0.02260996,-0.2472666,-0.9591556,-2.557994,-0.9216114,-0.09040886,-0.04993722,0.05177493,-0.4797029,-2.757056,1.676293
43.40009,6.422242,44,104,497,498,-0.1970526,-0.03215719,-0.2536908,-0.9563965,-2.559604,-0.9183991,-0.08613615,-0.05844991,0.05068946,-0.4792806,-2.758976,1.678784
43.60009,6.433353,44,104,497,498,-0.1981913,-0.03532319,-0.2590189,-0.9537675,-2.561317,-0.9149433,-0.08082028,-0.0595085,0.04747264,-0.4788438,-2.760651,1.680989
43.80009,6.444465,44,104,497,498,-0.2046615,-0.03634539,-0.2664141,-0.9510335,-2.563246,-0.9113971,-0.07443744,-0.05417786,0.04637682,-0.4784305,-2.761884,1.682695
44.0001,6.455576,44,104,497,498,-0.2078977,-0.03847632,-0.2685081,-0.9484294,-2.56484,-0.9078737,-0.07123969,-0.04671619,0.04955414,-0.477868,-2.762747,1.6842
44.2001,6.466687,44,104,497,498,-0.2111337,-0.04271214,-0.2727643,-0.9455969,-2.566641,-0.9044127,-0.0712778,-0.03605224,0.04636381,-0.4773514,-2.76272,1.685078
44.4001,6.477798,44,104,497,498,-0.2132781,-0.04590994,-0.2727601,-0.9429204,-2.56838,-0.9007338,-0.07550984,-0.0317817,0.05385783,-0.4763058,-2.763096,1.686386
44.6001,6.48891,44,104,497,498,-0.2143913,-0.04587995,-0.2780875,-0.9399164,-2.570405,-0.897244,-0.07973384,-0.03498848,0.0592128,-0.4754515,-2.764558,1.68853
44.8001,6.500021,44,104,497,498,-0.2144028,-0.04587246,-0.2791527,-0.9371595,-2.572334,-0.8937238,-0.07970911,-0.04350302,0.06134346,-0.4748107,-2.766046,1.690701
45.0001,6.511132,44,104,497,498,-0.2102342,-0.03304604,-0.2844199,-0.9347695,-2.574782,-0.8898553,-0.07432771,-0.06692591,0.06559171,-0.474024,-2.769035,1.694041
45.2001,6.522243,44,104,497,498,-0.2091819,-0.01494242,-0.2832395,-0.9325735,-2.57757,-0.885901,-0.07110304,-0.07011071,0.06770428,-0.4733859,-2.770851,1.696162
45.4001,6.533355,44,104,497,498,-0.210327,0.007449917,-0.2862673,-0.9304904,-2.580804,-0.8814019,-0.06259794,-0.06795844,0.06448072,-0.472661,-2.77222,1.697825
45.6001,6.544466,44,104,497,498,-0.221,0.01921468,-0.2892861,-0.9281947,-2.583844,-0.8769858,-0.07116625,-0.04986156,0.06025595,-0.4721193,-2.772601,1.699177
45.8001,6.555577,44,104,497,498,-0.2231723,0.02341981,-0.2881482,-0.925979,-2.586766,-0.8723727,-0.08284047,-0.05094313,0.06565368,-0.4711153,-2.774177,1.701578
46.0001,6.566689,44,104,497,498,-0.2274476,0.03406645,-0.2880277,-0.9239742,-2.589965,-0.8678262,-0.08386185,-0.05733509,0.07311676,-0.4702306,-2.776223,1.704352
46.2001,6.5778,44,104,497,498,-0.2221277,0.04684613,-0.2858764,-0.9220732,-2.593483,-0.8632221,-0.07846542,-0.07435855,0.08481522,-0.4691249,-2.779127,1.707782
46.4001,6.588911,44,104,497,498,-0.2231985,0.06281131,-0.2846965,-0.9203001,-2.597092,-0.8585653,-0.07420427,-0.07541695,0.08479478,-0.4683483,-2.781256,1.710413
46.60011,6.600022,44,104,497,498,-0.2254109,0.07347844,-0.2877909,-0.9185083,-2.600821,-0.8533663,-0.07531445,-0.07435936,0.07628012,-0.467822,-2.783334,1.713192
46.80011,6.611134,44,104,497,498,-0.2265007,0.07774767,-0.2888184,-0.9166654,-2.604484,-0.8484799,-0.07645702,-0.0700971,0.05711768,-0.4676383,-2.784658,1.714979
47.00011,6.622245,44,104,497,498,-0.2286326,0.0702952,-0.2899128,-0.9146323,-2.607766,-0.8438801,-0.08614001,-0.06904948,0.03692155,-0.4678913,-2.786218,1.717604
47.20011,6.633356,44,104,497,498,-0.2339937,0.05858812,-0.2931319,-0.9124032,-2.610876,-0.8390529,-0.09469654,-0.0722496,0.02950583,-0.4678199,-2.787872,1.720433
47.40011,6.644467,44,104,497,498,-0.2339591,0.05005109,-0.291061,-0.9102466,-2.613896,-0.8346006,-0.09464464,-0.08077036,0.03802968,-0.4673608,-2.790498,1.723823
47.60011,6.655579,44,104,497,498,-0.2318268,0.04152597,-0.2911537,-0.9079142,-2.616963,-0.8300663,-0.09241629,-0.08501107,0.0550629,-0.4665038,-2.792649,1.726514
47.80011,6.66669,44,104,497,498,-0.2339472,0.04258078,-0.290058,-0.9058961,-2.620174,-0.8254175,-0.09132597,-0.08181241,0.06144906,-0.4657959,-2.794742,1.729372
48.00011,6.677801,44,104,497,498,-0.2360581,0.04469791,-0.2878936,-0.9039967,-2.623545,-0.8206297,-0.09127444,-0.07434164,0.07423364,-0.4647536,-2.796108,1.731581
48.20011,6.688912,44,104,497,498,-0.2423946,0.04784909,-0.2824848,-0.902173,-2.626829,-0.8157518,-0.09236231,-0.06901736,0.0710417,-0.4641671,-2.797709,1.734064
48.40011,6.700024,44,104,497,498,-0.2434157,0.04462446,-0.2782302,-0.9003348,-2.629818,-0.8111222,-0.09771065,-0.05943574,0.06999503,-0.4635866,-2.798796,1.736339
48.60011,6.711135,44,104,497,498,-0.2422867,0.03819088,-0.2718811,-0.8985777,-2.632481,-0.8066374,-0.1052017,-0.0605045,0.06257842,-0.4631264,-2.80023,1.738996
48.80011,6.722246,44,104,497,498,-0.23371,0.0317818,-0.2677573,-0.8966256,-2.635191,-0.8025004,-0.1009374,-0.07009184,0.05936436,-0.462721,-2.802927,1.742375
49.00011,6.733357,44,104,497,498,-0.2336866,0.03176852,-0.2667137,-0.8945313,-2.638295,-0.7980807,-0.1019825,-0.08287755,0.0593761,-0.4622129,-2.805993,1.746234
49.20012,6.744469,44,104,497,498,-0.2304813,0.0264337,-0.2646506,-0.8926474,-2.641077,-0.7935836,-0.09982058,-0.08393847,0.06575809,-0.461496,-2.808524,1.749545
49.40012,6.75558,44,104,497,498,-0.2304439,0.02214486,-0.2614868,-0.8906681,-2.643734,-0.7893023,-0.1008698,-0.08393623,0.06896357,-0.4607455,-2.810738,1.752671
49.60012,6.766691,44,104,497,498,-0.2283062,0.01682158,-0.261547,-0.8886617,-2.646409,-0.7851441,-0.1104394,-0.08607997,0.07220455,-0.4600398,-2.813317,1.756471
49.80012,6.777802,44,104,497,498,-0.2282211,0.008251861,-0.2541501,-0.8867325,-2.648818,-0.7810109,-0.116849,-0.08502308,0.06797133,-0.4596291,-2.815554,1.759903
50.00012,6.788914,44,104,497,498,-0.2217343,0.005007377,-0.2468061,-0.8846946,-2.65131,-0.7772462,-0.1125501,-0.08714601,0.07540889,-0.4588057,-2.818325,1.763527
50.20012,6.800025,44,104,497,498,-0.2217064,0.002836952,-0.2425553,-0.8828341,-2.653575,-0.7730699,-0.1071771,-0.08499905,0.08284572,-0.4577857,-2.820567,1.766329
50.40012,6.811136,44,104,497,498,-0.224874,0.006007707,-0.2393013,-0.8811638,-2.656114,-0.768845,-0.1050178,-0.0860605,0.08921663,-0.4570245,-2.823256,1.769871
50.60012,6.822248,44,104,497,498,-0.225922,0.005986603,-0.2360759,-0.8796469,-2.658391,-0.7646441,-0.1039315,-0.07646972,0.09666666,-0.455898,-2.82515,1.77268
50.80012,6.833359,44,104,497,498,-0.2269864,0.003840327,-0.2350147,-0.8777928,-2.660768,-0.7603894,-0.1007379,-0.07219749,0.09559301,-0.454934,-2.827027,1.775276
51.00012,6.84447,44,104,497,498,-0.2280069,0.004874364,-0.2307349,-0.8761624,-2.663151,-0.756293,-0.1060838,-0.06900994,0.09242135,-0.4541558,-2.828995,1.778372
51.20012,6.855581,44,104,497,498,-0.2269054,0.00271864,-0.2286534,-0.8741539,-2.665621,-0.7523084,-0.1092973,-0.06900935,0.08923746,-0.453507,-2.830968,1.781502
51.40012,6.866693,44,104,497,498,-0.2247536,0.01228696,-0.2254139,-0.872802,-2.66826,-0.7481762,-0.1029141,-0.07006595,0.08707723,-0.4527864,-2.833168,1.784451
51.60012,6.877804,44,104,497,498,-0.22153,0.01652734,-0.2222371,-0.8712457,-2.670963,-0.7440217,-0.1007897,-0.07538602,0.08597934,-0.452397,-2.835557,1.787761
51.80013,6.888915,44,104,497,498,-0.2236723,0.02504708,-0.2221601,-0.8699375,-2.673856,-0.739595,-0.1007766,-0.07325452,0.08918013,-0.4514298,-2.837824,1.790939
52.00013,6.900026,44,104,497,498,-0.2236583,0.03142324,-0.2189102,-0.8689165,-2.676557,-0.735229,-0.09867369,-0.06792231,0.0838349,-0.4508902,-2.839355,1.793276
52.20013,6.911138,44,104,497,498,-0.2268222,0.04097786,-0.2145473,-0.8679433,-2.679392,-0.7307644,-0.1040393,-0.06685969,0.07428703,-0.4503182,-2.841118,1.796116
52.40013,6.922249,44,104,497,498,-0.228977,0.06120806,-0.2133123,-0.8673031,-2.682735,-0.7259148,-0.09660748,-0.07004887,0.06785766,-0.4499656,-2.843387,1.79897
52.60013,6.93336,44,104,497,498,-0.2247128,0.09526233,-0.2088671,-0.8670315,-2.686568,-0.7211009,-0.0881036,-0.0796284,0.06248836,-0.4497573,-2.846454,1.802564
52.80013,6.944471,44,104,497,498,-0.2301258,0.1272498,-0.2128432,-0.8671854,-2.690946,-0.7156558,-0.08811485,-0.07536537,0.06035646,-0.4493365,-2.848263,1.805111
53.00013,6.955583,44,104,497,498,-0.237628,0.1602707,-0.2114649,-0.8678176,-2.695638,-0.7096089,-0.09026722,-0.07749179,0.05289956,-0.4492982,-2.850055,1.807673
53.20013,6.966694,44,104,497,498,-0.2440284,0.1751678,-0.2102264,-0.8681298,-2.699955,-0.7039427,-0.09134541,-0.08601686,0.04757994,-0.4492028,-2.852963,1.811344
53.40013,6.977805,44,104,497,498,-0.2504252,0.1772847,-0.2090587,-0.8683231,-2.70374,-0.6984257,-0.09772641,-0.08707902,0.04866765,-0.4489621,-2.854996,1.814342
53.60013,6.988916,44,104,497,498,-0.2514313,0.1676617,-0.2059326,-0.8679168,-2.70734,-0.6933811,-0.1052209,-0.07324456,0.04443922,-0.4486888,-2.856342,1.816898
53.80013,7.000028,44,104,497,498,-0.2535875,0.1580957,-0.2080879,-0.8678081,-2.710884,-0.6880591,-0.1084257,-0.06578739,0.0423161,-0.4485013,-2.857495,1.819038
54.00013,7.011139,44,104,497,498,-0.2460806,0.1495567,-0.2050446,-0.8674235,-2.714369,-0.6833016,-0.1105238,-0.0615258,0.04871862,-0.4479309,-2.859206,1.821713
54.20013,7.02225,44,104,497,498,-0.2396893,0.1399822,-0.2040991,-0.8672627,-2.717718,-0.6783391,-0.1147351,-0.06152948,0.05939146,-0.4471607,-2.861285,1.824992
54.40014,7.033361,44,104,497,498,-0.2354249,0.1325351,-0.2052838,-0.86664,-2.721349,-0.6735086,-0.1274122,-0.05515058,0.08394516,-0.4458409,-2.863267,1.82852
54.60014,7.044473,44,104,497,498,-0.2268138,0.112264,-0.198043,-0.8661671,-2.72385,-0.6693461,-0.1369932,-0.05622914,0.08505565,-0.4450344,-2.865306,1.832136
54.80014,7.055584,44,104,497,498,-0.2310508,0.09947032,-0.1959516,-0.8656775,-2.726816,-0.6645039,-0.1412488,-0.05622831,0.08402176,-0.4442004,-2.867042,1.835216
55.00014,7.066695,44,104,497,498,-0.2352678,0.08453544,-0.1938792,-0.8648173,-2.729398,-0.6601055,-0.1380935,-0.05942188,0.07441989,-0.4438387,-2.869047,1.838482
55.20014,7.077806,44,104,497,498,-0.237405,0.06750549,-0.1950203,-0.8639784,-2.731874,-0.655601,-0.1274927,-0.06367325,0.05945439,-0.4438419,-2.871066,1.841257
55.40014,7.088918,44,104,497,498,-0.2448582,0.04833462,-0.1972038,-0.8626629,-2.734274,-0.6511205,-0.1232866,-0.06366993,0.0477162,-0.4438307,-2.872792,1.844068
55.60014,7.100029,44,104,497,498,-0.245947,0.04088869,-0.1982901,-0.8617627,-2.736676,-0.646558,-0.1243932,-0.05620334,0.0413175,-0.443713,-2.873317,1.845992
55.80014,7.11114,44,104,497,498,-0.2555144,0.02276498,-0.2004601,-0.8599156,-2.738951,-0.642208,-0.1244445,-0.05407588,0.03172502,-0.4438147,-2.874599,1.84858
56.00014,7.122252,44,104,497,498,-0.2576356,0.01105,-0.1994233,-0.8588077,-2.740955,-0.6377951,-0.1255178,-0.04768471,0.03066175,-0.443648,-2.875589,1.850799
56.20014,7.133363,44,104,497,498,-0.2619257,0.008920215,-0.2004352,-0.8576982,-2.743177,-0.6331143,-0.1212051,-0.04979233,0.03915951,-0.4431889,-2.876827,1.853018
56.40014,7.144474,44,104,497,498,-0.2587651,0.01746195,-0.2025408,-0.8566718,-2.745964,-0.628489,-0.1189976,-0.05830862,0.05300006,-0.4425257,-2.879411,1.856629
56.60014,7.155585,44,104,497,498,-0.2641131,0.02705682,-0.2034838,-0.8558505,-2.748932,-0.6234881,-0.1221607,-0.06683598,0.05727459,-0.4421513,-2.882021,1.860412
56.80014,7.166697,44,104,497,498,-0.2673686,0.03666944,-0.2076424,-0.8549738,-2.75204,-0.6184158,-0.1199837,-0.06789626,0.06685238,-0.4414051,-2.88444,1.863872
57.00014,7.177808,44,104,497,498,-0.2684717,0.04413512,-0.21083,-0.8536475,-2.75573,-0.6129622,-0.1146711,-0.06575535,0.06362912,-0.4410727,-2.886211,1.866572
57.20015,7.188919,44,104,497,498,-0.2749433,0.05694636,-0.2170711,-0.8527905,-2.759284,-0.6074916,-0.1147554,-0.06043364,0.04764556,-0.4411574,-2.887483,1.869033
57.40015,7.20003,44,104,497,498,-0.2782618,0.06871087,-0.2244053,-0.8521562,-2.76303,-0.601549,-0.1116002,-0.06255986,0.03698336,-0.4411675,-2.889222,1.871688
57.60015,7.211142,44,104,497,498,-0.2826497,0.08582401,-0.2338484,-0.8516603,-2.767546,-0.5953289,-0.1084461,-0.0550956,0.02737055,-0.4412767,-2.889899,1.873212
57.80015,7.222253,44,104,497,498,-0.2859101,0.09651209,-0.2379987,-0.8513625,-2.771637,-0.5893378,-0.1010515,-0.04976137,0.01561625,-0.4414978,-2.890648,1.874821
58.00015,7.233364,44,104,497,498,-0.2859817,0.1039874,-0.2411485,-0.8508709,-2.775767,-0.5831119,-0.1032022,-0.05827719,0.009227253,-0.4418589,-2.892196,1.877469
58.20015,7.244475,44,104,497,498,-0.2881895,0.1178701,-0.2463544,-0.8506669,-2.780196,-0.5769269,-0.1010155,-0.06999066,0.017742,-0.4417993,-2.894801,1.880902
58.40015,7.255587,44,104,497,498,-0.2882406,0.1264059,-0.2516439,-0.850031,-2.784662,-0.5709791,-0.09884027,-0.07105187,0.02411225,-0.4417897,-2.896703,1.883445
58.60015,7.266698,44,104,497,498,-0.2873034,0.1350007,-0.2622493,-0.8497135,-2.789454,-0.564629,-0.09671263,-0.06891837,0.0241018,-0.4417497,-2.89851,1.886085
58.80015,7.277809,44,104,497,498,-0.2820571,0.1447763,-0.2644532,-0.8504576,-2.797119,-0.5559796,-0.09884819,-0.06570758,0.02625893,-0.4412986,-2.89976,1.888559
59.00015,7.28892,44,104,497,498,-0.2810745,0.1459763,-0.2697922,-0.8509769,-2.80302,-0.5487033,-0.1073927,-0.06145936,0.02415618,-0.441428,-2.901142,1.89128
59.20015,7.300032,44,104,497,498,-0.2757463,0.1406476,-0.2688194,-0.8506339,-2.807363,-0.5426697,-0.1180245,-0.0604026,0.02954084,-0.4410584,-2.902832,1.894405
59.40015,7.311143,44,104,497,498,-0.2779378,0.1332149,-0.2741936,-0.8497902,-2.812035,-0.5362104,-0.1158399,-0.07211673,0.0380547,-0.44084,-2.905744,1.898285
59.60015,7.322254,44,104,497,498,-0.2694262,0.1225883,-0.2764923,-0.8491404,-2.816301,-0.5306333,-0.1094108,-0.07848841,0.04335252,-0.4405337,-2.908215,1.901465
59.80016,7.333365,44,104,497,498,-0.2683427,0.104492,-0.2777013,-0.8481396,-2.820504,-0.5250022,-0.1072126,-0.08274195,0.05613156,-0.4398669,-2.911297,1.905359
60.00016,7.344477,44,104,497,498,-0.2672687,0.0970199,-0.2767014,-0.8473374,-2.824545,-0.5192338,-0.1103369,-0.08700778,0.06999916,-0.4391339,-2.914686,1.909744
60.20016,7.355588,44,104,497,498,-0.261967,0.0799527,-0.2768661,-0.8460708,-2.82805,-0.513572,-0.1145491,-0.08168459,0.08279033,-0.4383878,-2.917198,1.913478
60.40016,7.366699,44,104,497,498,-0.2630773,0.069336,-0.2822556,-0.8449017,-2.832226,-0.5078302,-0.115669,-0.07103501,0.07427074,-0.4379781,-2.918801,1.916225
60.60016,7.37781,44,104,497,498,-0.2609215,0.05651684,-0.2813105,-0.8432755,-2.835885,-0.5025342,-0.1156878,-0.07422187,0.06894545,-0.4376943,-2.920906,1.919365
60.80016,7.388922,44,104,497,498,-0.2619902,0.04055133,-0.2835416,-0.8417299,-2.839669,-0.49707,-0.1157213,-0.07528886,0.06148867,-0.4375265,-2.923257,1.922781
61.00016,7.400033,44,104,497,498,-0.2630381,0.02237429,-0.2825576,-0.8398268,-2.84216,-0.4922118,-0.1189528,-0.07210771,0.05404763,-0.4374077,-2.925489,1.926137
61.20016,7.411144,44,104,497,498,-0.2609337,-0.001055855,-0.2891369,-0.837268,-2.845376,-0.4873606,-0.1125528,-0.07422844,0.05402591,-0.4370168,-2.927985,1.92938
61.40016,7.422256,44,104,497,498,-0.2555783,-0.01277592,-0.2882128,-0.835407,-2.848858,-0.4823672,-0.1082467,-0.0688936,0.0646565,-0.4363073,-2.930146,1.93238
61.60016,7.433367,44,104,497,498,-0.2470362,-0.02344096,-0.2883772,-0.8332893,-2.852123,-0.4777024,-0.1092806,-0.0710263,0.07105313,-0.4357342,-2.932947,1.936221
61.80016,7.444478,44,104,497,498,-0.2385129,-0.02449444,-0.2884781,-0.8315518,-2.855815,-0.4727569,-0.09755757,-0.07527363,0.07100744,-0.4352852,-2.935848,1.939648
62.00016,7.455589,44,104,497,498,-0.2374304,-0.01493623,-0.2863005,-0.8300466,-2.859607,-0.467625,-0.09541965,-0.07953453,0.07206108,-0.4349123,-2.938766,1.943352
62.20016,7.466701,44,104,497,498,-0.2331522,-0.01068404,-0.284186,-0.8286628,-2.863325,-0.4626305,-0.09542184,-0.07420778,0.07312515,-0.4343637,-2.941005,1.94642
62.40017,7.477812,44,104,497,498,-0.2342242,-0.006457087,-0.2830952,-0.8269739,-2.86719,-0.4571455,-0.09327701,-0.07206932,0.07417856,-0.4338683,-2.943158,1.949197
62.60017,7.488923,44,104,497,498,-0.2331433,-0.005413096,-0.2820396,-0.8253989,-2.870927,-0.4520721,-0.0922175,-0.06780669,0.07417259,-0.4333378,-2.945294,1.952128
62.80017,7.500034,44,104,497,498,-0.2299564,-0.006474532,-0.2820827,-0.8239522,-2.874743,-0.446887,-0.09010112,-0.06780412,0.0709606,-0.4330428,-2.947497,1.955043
63.00017,7.511146,44,104,497,498,-0.2235363,-0.001171261,-0.2789111,-0.8227224,-2.878286,-0.4422003,-0.09116243,-0.07312638,0.07202508,-0.4327024,-2.950104,1.958564
63.20017,7.522257,44,104,497,498,-0.212863,0.004140049,-0.2747244,-0.8216917,-2.881984,-0.4373821,-0.09118098,-0.0805908,0.06456205,-0.4327296,-2.953037,1.96215
63.40017,7.533368,44,104,497,498,-0.2021489,0.0190172,-0.267281,-0.8210489,-2.885771,-0.4328287,-0.08691686,-0.09443048,0.06135184,-0.4326555,-2.956537,1.966188
63.60017,7.544479,44,104,497,498,-0.1946495,0.03070974,-0.2619531,-0.8204746,-2.889575,-0.4282374,-0.07092899,-0.1008008,0.0612781,-0.432541,-2.960017,1.969671
63.80017,7.555591,44,104,497,498,-0.1925008,0.03811258,-0.2566049,-0.8196091,-2.893318,-0.4231539,-0.06023745,-0.1007768,0.07081085,-0.4320047,-2.963074,1.972958
64.00017,7.566702,44,104,497,498,-0.1817998,0.05406253,-0.2502196,-0.8194824,-2.897185,-0.4187778,-0.06024813,-0.08160076,0.07400263,-0.4313277,-2.96481,1.975213
64.20016,7.577813,44,104,497,498,-0.1785478,0.0753206,-0.2426615,-0.8196368,-2.901278,-0.4140965,-0.05497615,-0.0603014,0.06864505,-0.4309288,-2.966098,1.976895
64.40016,7.588924,44,104,497,498,-0.177463,0.09553276,-0.2382718,-0.8200965,-2.90531,-0.4094216,-0.05607147,-0.0528467,0.06438734,-0.4305351,-2.967484,1.978794
64.60016,7.600036,44,104,497,498,-0.168934,0.133862,-0.2327798,-0.8213306,-2.909872,-0.4046348,-0.05610484,-0.04538704,0.05799755,-0.4301495,-2.968592,1.980329
64.80016,7.611147,44,104,497,498,-0.1646812,0.1572571,-0.2305218,-0.8221263,-2.913733,-0.4002934,-0.06358769,-0.05072021,0.05163749,-0.4301016,-2.970361,1.9829
65.00015,7.622258,44,104,497,498,-0.1561544,0.1881327,-0.2261404,-0.8238803,-2.918297,-0.395709,-0.06572753,-0.04752742,0.05058151,-0.4297991,-2.971844,1.985041
65.20015,7.633369,44,104,497,498,-0.1582563,0.2083345,-0.2206438,-0.8256732,-2.922582,-0.3909531,-0.05935604,-0.04113403,0.04735645,-0.4295349,-2.973096,1.986584
65.40015,7.644481,44,104,497,498,-0.1550306,0.2232063,-0.2141812,-0.8274655,-2.926724,-0.3862659,-0.06148921,-0.0389976,0.0452395,-0.429186,-2.974078,1.988045
65.60014,7.655592,44,104,497,498,-0.1538033,0.222104,-0.2067313,-0.8290447,-2.930434,-0.3830925,-0.06679986,-0.04433966,0.04633478,-0.4289399,-2.976402,1.991022
65.80014,7.666703,44,104,497,498,-0.1547187,0.2060423,-0.1951133,-0.8300924,-2.933661,-0.3791713,-0.06678791,-0.06244675,0.04207461,-0.4291375,-2.979181,1.994194
66.00014,7.677814,44,104,497,498,-0.1513382,0.1729797,-0.1846848,-0.8309952,-2.936045,-0.3763308,-0.06677167,-0.07202621,0.04102216,-0.4289692,-2.981689,1.997078
66.20013,7.688926,44,104,497,498,-0.1512367,0.1494994,-0.1784565,-0.8312695,-2.938833,-0.3727797,-0.06465331,-0.07415468,0.03781675,-0.4290289,-2.983927,1.999773
66.40013,7.700037,44,104,497,498,-0.1425978,0.107943,-0.1745686,-0.8308429,-2.941097,-0.3701048,-0.06359096,-0.08161268,0.03355992,-0.4291599,-2.986652,2.002832
66.60013,7.711148,44,104,497,498,-0.1350246,0.06530508,-0.1696231,-0.8297861,-2.94317,-0.367414,-0.06360538,-0.08587488,0.02929977,-0.4294262,-2.989178,2.005831
66.80013,7.72226,44,104,497,498,-0.1326939,0.02370105,-0.158194,-0.8289126,-2.944377,-0.3654198,-0.06461471,-0.08586542,0.03784105,-0.4289516,-2.991789,2.00873
67.00012,7.733371,44,104,497,498,-0.126199,-0.00190171,-0.152052,-0.8277275,-2.94601,-0.3630847,-0.05711646,-0.09011041,0.04632791,-0.4287151,-2.994851,2.012003
67.20012,7.744482,44,104,497,498,-0.1228878,-0.04665148,-0.1481153,-0.825981,-2.946948,-0.361311,-0.0517394,-0.09329339,0.05482118,-0.4284808,-2.997955,2.015141
67.40012,7.755593,44,104,497,498,-0.1207031,-0.05731816,-0.1460925,-0.8245429,-2.948727,-0.3590447,-0.05067525,-0.07732336,0.06013295,-0.4281191,-2.999956,2.017593
67.60011,7.766705,44,104,497,498,-0.1185194,-0.07118594,-0.1430167,-0.8229098,-2.950085,-0.356887,-0.05925669,-0.05496029,0.05271348,-0.4277159,-3.000279,2.018679
67.80011,7.777816,44,104,497,498,-0.1195905,-0.07864427,-0.1441199,-0.8213551,-2.951652,-0.354381,-0.05186898,-0.03791893,0.0430766,-0.4277362,-3.000776,2.019538
68.00011,7.788927,44,104,497,498,-0.1238151,-0.07973774,-0.1408851,-0.819983,-2.953113,-0.3518899,-0.05082057,-0.0272688,0.04095204,-0.4272355,-3.001661,2.020768
68.2001,7.800038,44,104,497,498,-0.1227746,-0.08188283,-0.1387683,-0.8186344,-2.95437,-0.3490259,-0.05189513,-0.0197944,0.04095865,-0.4266927,-3.001677,2.021417
68.4001,7.81115,44,104,497,498,-0.1217689,-0.07333282,-0.1429757,-0.8175042,-2.956188,-0.3464261,-0.04546267,-0.02724764,0.04731815,-0.4263673,-3.003689,2.023583
68.6001,7.822261,44,104,497,498,-0.1185542,-0.05838092,-0.143956,-0.8170733,-2.957978,-0.3446903,-0.0454572,-0.02831567,0.04838231,-0.4260429,-3.005135,2.025419
68.80009,7.833372,44,104,497,498,-0.1218193,-0.0423698,-0.1523636,-0.8160245,-2.960045,-0.3418977,-0.04760286,-0.024058,0.0473211,-0.4257436,-3.005857,2.026725
69.00009,7.844483,44,104,497,498,-0.1262003,-0.03703117,-0.1543713,-0.8153337,-2.96236,-0.3381171,-0.04976092,-0.02191832,0.04201862,-0.4252685,-3.006356,2.027795
69.20009,7.855595,44,104,497,498,-0.1315288,-0.02425375,-0.1552853,-0.814727,-2.964479,-0.3354209,-0.05078878,-0.02085714,0.04947617,-0.4247758,-3.007658,2.029529
69.40009,7.866706,44,104,497,498,-0.1347636,-0.01252548,-0.1572989,-0.8142924,-2.966915,-0.3321782,-0.05398288,-0.02085393,0.05056108,-0.4242448,-3.008625,2.031146
69.60008,7.877817,44,104,497,498,-0.131605,0.006652238,-0.1571912,-0.8142573,-2.969241,-0.3290612,-0.05185539,-0.02828839,0.04734911,-0.4240919,-3.009391,2.03232
69.80008,7.888928,44,104,497,498,-0.1305717,0.01306019,-0.1592887,-0.8139664,-2.971756,-0.325915,-0.04860765,-0.03679464,0.05692389,-0.4235246,-3.011425,2.034684
70.00008,7.90004,44,104,497,498,-0.1327935,0.02478692,-0.164521,-0.8134636,-2.97465,-0.3221684,-0.05177674,-0.0602276,0.0548074,-0.4236333,-3.014408,2.037983
70.20007,7.911151,44,104,497,498,-0.1349704,0.03332828,-0.1676338,-0.8134348,-2.977463,-0.3186611,-0.05383646,-0.08046012,0.06547531,-0.4233691,-3.018303,2.042294
70.40007,7.922262,44,104,497,498,-0.1414536,0.03655203,-0.1739375,-0.8131174,-2.980384,-0.3146898,-0.05699371,-0.09643599,0.06655733,-0.4233121,-3.021969,2.046163
70.60007,7.933373,44,104,497,498,-0.1446967,0.04083275,-0.177071,-0.8130199,-2.983344,-0.310882,-0.06445965,-0.09965164,0.06445494,-0.423416,-3.025424,2.050264
70.80006,7.944485,44,104,497,498,-0.1479449,0.04511888,-0.1812671,-0.8129475,-2.986401,-0.3070497,-0.06448674,-0.0868589,0.0633912,-0.4230011,-3.027175,2.052655
71.00006,7.955596,44,104,497,498,-0.1491296,0.04305271,-0.1897862,-0.8127627,-2.989612,-0.302779,-0.06131845,-0.07940654,0.06017391,-0.422902,-3.029562,2.055447
71.20006,7.966707,44,104,497,498,-0.1523721,0.042012,-0.1940171,-0.812507,-2.992705,-0.2988487,-0.06769283,-0.06983154,0.06447865,-0.4222591,-3.032015,2.058486
71.40005,7.977818,44,104,497,498,-0.1534531,0.03243143,-0.1951349,-0.8120149,-2.995596,-0.2949254,-0.06982695,-0.06236791,0.06341727,-0.4218585,-3.033475,2.060474
71.60005,7.98893,44,104,497,498,-0.1523955,0.02819254,-0.1962468,-0.8116953,-2.998793,-0.2910313,-0.06663465,-0.06449915,0.06339861,-0.4217179,-3.036077,2.063612
71.80005,8.000041,44,104,497,498,-0.1545273,0.01647855,-0.1973671,-0.8109656,-3.001639,-0.2872294,-0.06022489,-0.06234981,0.06869775,-0.4211187,-3.038274,2.066174
72.00005,8.011152,44,104,497,498,-0.1524824,0.01334432,-0.2059506,-0.8102529,-3.005296,-0.2831068,-0.05273155,-0.06341656,0.07611602,-0.4207145,-3.041398,2.06943
72.20004,8.022264,44,104,497,498,-0.1515299,0.007011682,-0.2145268,-0.8094795,-3.008755,-0.2787248,-0.05912045,-0.06661084,0.07401619,-0.4203848,-3.043723,2.072257
72.40004,8.033375,44,104,497,498,-0.1622452,-0.00467518,-0.2208857,-0.808459,-3.012103,-0.2742273,-0.06762606,-0.0517009,0.07936783,-0.4196753,-3.044922,2.07419
72.60004,8.044486,44,104,497,498,-0.165488,-0.01316482,-0.2262361,-0.8073895,-3.0155,-0.2699593,-0.07293582,-0.04105309,0.0857821,-0.4187576,-3.046563,2.076648
72.80003,8.055597,44,104,497,498,-0.1729438,-0.02596528,-0.2262495,-0.8060765,-3.018717,-0.2653995,-0.06760535,-0.03250499,0.08680923,-0.4179906,-3.047269,2.07774
73.00003,8.066709,44,104,497,498,-0.1696956,-0.0323664,-0.2220684,-0.805121,-3.021765,-0.2614798,-0.05481818,-0.0367478,0.08675256,-0.4173962,-3.049564,2.080152
73.20003,8.07782,44,104,497,498,-0.165466,-0.03234934,-0.2231733,-0.8042613,-3.02497,-0.2572805,-0.04841364,-0.04953146,0.0845907,-0.417181,-3.052731,2.083342
73.40002,8.088931,44,104,497,498,-0.1622734,-0.02915673,-0.2231847,-0.8033143,-3.028146,-0.2533721,-0.04517798,-0.04633349,0.09310699,-0.4162174,-3.055585,2.086316
73.60002,8.100042,44,104,497,498,-0.1601274,-0.03980315,-0.2232778,-0.8020472,-3.031162,-0.2495643,-0.05262269,-0.04422197,0.09740496,-0.4154563,-3.058321,2.089694
73.80002,8.111154,44,104,497,498,-0.1611805,-0.05683729,-0.2244591,-0.8003976,-3.03439,-0.245487,-0.06007044,-0.04530204,0.09639449,-0.4146036,-3.061217,2.093024
74.00002,8.122265,44,104,497,498,-0.1621879,-0.06858363,-0.2202653,-0.7988812,-3.037131,-0.2416792,-0.06003837,-0.04316059,0.1006427,-0.4138856,-3.063181,2.095311
74.20001,8.133376,44,104,497,498,-0.1610978,-0.07817987,-0.2192871,-0.7972013,-3.040197,-0.2377692,-0.05263205,-0.04741312,0.09101012,-0.4136789,-3.065218,2.097707
74.40001,8.144487,44,104,497,498,-0.1589822,-0.08455367,-0.2214855,-0.7955283,-3.043259,-0.2339235,-0.04518726,-0.03781592,0.09097205,-0.4129269,-3.06683,2.09948
74.60001,8.155599,44,104,497,498,-0.1599598,-0.09525738,-0.2151641,-0.7936209,-3.045973,-0.2302633,-0.045227,-0.01758114,0.08777118,-0.411974,-3.067405,2.100491
74.8,8.16671,44,104,497,498,-0.1631378,-0.112313,-0.2141832,-0.7914829,-3.048711,-0.2262116,-0.04526613,-0.002668045,0.08350635,-0.4110898,-3.067593,2.101174
75,8.177821,44,104,497,498,-0.1651508,-0.1464501,-0.208012,-0.7885343,-3.051012,-0.2227436,-0.04426193,0.0005253106,0.07177833,-0.4107111,-3.068019,2.102045
75.2,8.188932,44,104,497,498,-0.1607968,-0.1794968,-0.2040352,-0.7853034,-3.053289,-0.2194839,-0.0368332,0.001600172,0.06747524,-0.4101902,-3.068605,2.102909
75.39999,8.200044,44,104,497,498,-0.1565347,-0.1890708,-0.2052141,-0.7825055,-3.055757,-0.2161043,-0.03468071,-0.01543808,0.06640142,-0.4099148,-3.070724,2.105111
75.59999,8.211155,44,104,497,498,-0.1490549,-0.1879991,-0.2031482,-0.7802977,-3.058121,-0.2129655,-0.04104618,-0.03036747,0.06644766,-0.4095398,-3.073802,2.108457
75.79999,8.222266,44,104,497,498,-0.1458925,-0.1720081,-0.2041372,-0.7783732,-3.06085,-0.2095045,-0.03251456,-0.02928232,0.06853578,-0.4089358,-3.075037,2.109733
75.99998,8.233377,44,104,497,498,-0.1448415,-0.1539165,-0.2008238,-0.7767588,-3.06347,-0.2057516,-0.03467794,-0.01969352,0.06003625,-0.4082796,-3.07551,2.110318
76.19998,8.244489,44,104,497,498,-0.1458924,-0.1294448,-0.2006699,-0.7752653,-3.066254,-0.2021574,-0.0497078,-0.01226109,0.03773435,-0.4084128,-3.075133,2.110927
76.39998,8.2556,44,104,497,498,-0.1491521,-0.106024,-0.1961871,-0.7743226,-3.069151,-0.1978947,-0.0433323,-0.002669081,0.03344075,-0.4080613,-3.0751,2.110975
76.59998,8.266711,44,104,497,498,-0.1502457,-0.06343674,-0.1937635,-0.7741676,-3.072444,-0.1939271,-0.035866,-0.01011685,0.03340715,-0.4079015,-3.076262,2.112242
76.79997,8.277822,44,104,497,498,-0.1524033,-0.02190214,-0.1913125,-0.7745863,-3.075431,-0.1901183,-0.02945414,-0.02395266,0.03018046,-0.4080282,-3.077805,2.113521
76.99997,8.288934,44,104,497,498,-0.1556256,0.01642182,-0.1888829,-0.7752361,-3.078649,-0.1860399,-0.03156455,-0.01543121,0.03764386,-0.4075057,-3.078372,2.114561
77.19997,8.300045,44,104,497,498,-0.1609519,0.04301969,-0.184376,-0.7759168,-3.081698,-0.1817783,-0.0400153,-0.01969056,0.05046567,-0.4068421,-3.079858,2.116519
77.39996,8.311156,44,104,497,498,-0.1631233,0.05687579,-0.1863811,-0.776402,-3.084798,-0.1777197,-0.04098485,-0.03992802,0.06325965,-0.4064634,-3.083215,2.119941
77.59996,8.322268,44,104,497,498,-0.1630742,0.07281043,-0.1798787,-0.7772867,-3.087642,-0.1738746,-0.02917704,-0.05482364,0.07812163,-0.4059014,-3.08702,2.123443
77.79996,8.333379,44,104,497,498,-0.1673222,0.08557621,-0.1776023,-0.7782119,-3.090479,-0.1699821,-0.02695158,-0.07186903,0.09093134,-0.4051131,-3.092226,2.128315
77.99995,8.34449,44,104,497,498,-0.167303,0.08875719,-0.1754497,-0.7789506,-3.093378,-0.1660476,-0.03225475,-0.07826655,0.0941544,-0.4046929,-3.096037,2.132314
78.19995,8.355601,44,104,497,498,-0.1640828,0.09089152,-0.1733364,-0.779878,-3.096261,-0.1623053,-0.0322887,-0.07933181,0.08669172,-0.4046375,-3.098676,2.135137
78.39995,8.366713,44,104,497,498,-0.1619321,0.08663049,-0.1723395,-0.7804372,-3.099401,-0.1583468,-0.03017346,-0.07933009,0.08348566,-0.4043999,-3.101734,2.138219
78.59995,8.377824,44,104,497,498,-0.1565457,0.07596026,-0.1682056,-0.7808106,-3.1019,-0.1549715,-0.02804777,-0.07612889,0.0802853,-0.4040149,-3.104426,2.140737
78.79994,8.388935,44,104,497,498,-0.1533409,0.06425231,-0.1693988,-0.7808442,-3.104923,-0.1512628,-0.03552784,-0.07400871,0.07605936,-0.4038215,-3.107064,2.143784
78.99994,8.400046,44,104,497,498,-0.1554548,0.04401952,-0.1705766,-0.7805608,-3.107565,-0.1476254,-0.04090132,-0.06337062,0.06648464,-0.4037666,-3.108503,2.145553
79.19994,8.411158,44,104,497,498,-0.1511625,0.02697472,-0.1696685,-0.7802226,-3.109968,-0.1443268,-0.04195441,-0.05698541,0.07075263,-0.4032969,-3.111012,2.148349
79.39993,8.422269,44,104,497,498,-0.1522185,0.002486806,-0.1719579,-0.7793091,-3.112602,-0.140731,-0.0354715,-0.05056541,0.08668597,-0.4023972,-3.112942,2.150043
79.59993,8.43338,44,104,497,498,-0.1491421,-0.01657894,-0.1848848,-0.778654,-3.115396,-0.1371357,-0.03865351,-0.05376474,0.08776885,-0.4019424,-3.115796,2.153109
