loc,t,aDotS,bDotS,gDotS,aS,bS,gS,qE,qDotE,tpad,enable,emgA,emgB,aDotSH,bDotSH,gDotSH,aSH,bSH,gSH,aDotUB,bDotUB,gDotUB,aUB,bUB,gUB,xHand,yHand,zHand,aHand,bHand,gHand
4,0,-0.5851938,-0.6910484,0.1202847,-1.255511,3.415401,-2.776408,-1.102599,0.01532711,0,0,8.836755,12.25806,-0.9163598,0.5482824,0.2422418,-0.3604013,3.445745,-0.01853427,-0.3816776,0.4636199,0.1385714,-0.9844742,1.602127,-0.009097092,0.2138069,1.156285,0.6912058,302.7689,326.8279,9.17979
4,0.01111111,-0.565951,-0.6918086,0.1436771,-1.255026,3.423988,-2.773482,-1.102583,0.001311015,0,0,8.84653,12.24829,-0.9144565,0.4790874,0.2282197,-0.3583906,3.454197,-0.01652065,-0.3927031,0.4944141,0.08748131,-0.9855752,1.609509,-0.008519718,0.2109842,1.156735,0.6948494,303.1124,325.9166,10.0768
4,0.02222222,-0.5605912,-0.6863276,0.1595962,-1.25447,3.4324,-2.770068,-1.102896,-0.02869985,0,0,8.86608,12.22874,-0.9306349,0.4429367,0.2122902,-0.3566276,3.464406,-0.0152165,-0.3948881,0.4997248,0.07899141,-0.9848124,1.616152,-0.007918909,0.2075976,1.157301,0.6983926,303.2823,325.2648,10.37222
4,0.03333334,-0.5595842,-0.6649549,0.1657735,-1.254031,3.439768,-2.766132,-1.103335,-0.03993479,0,0,8.885631,12.19941,-0.9513651,0.3908868,0.1622709,-0.3565461,3.471636,-0.01072908,-0.3884352,0.5071666,0.08211607,-0.9838111,1.623307,-0.007833689,0.2036479,1.158163,0.7015219,303.2981,324.7617,10.38647
4,0.04444445,-0.5552995,-0.65943,0.183814,-1.253778,3.447884,-2.762475,-1.102809,0.04827863,0,0,8.924732,12.16031,-0.9473147,0.3717697,0.1387594,-0.3558074,3.482083,-0.01019538,-0.3722727,0.5124801,0.09793065,-0.9822382,1.630615,-0.008363125,0.1992607,1.15935,0.7040986,303.1651,324.0451,10.43845
4,0.05555556,-0.5521278,-0.6454731,0.1932518,-1.253561,3.455529,-2.758732,-1.102437,0.03344777,0,0,8.983382,12.12121,-0.9179199,0.341989,0.0915875,-0.3563618,3.490136,-0.00844009,-0.354119,0.5039085,0.1052321,-0.9808486,1.637085,-0.008662464,0.1945752,1.160776,0.706249,302.9085,323.1467,10.52119
4,0.06666667,-0.5446608,-0.632471,0.2122735,-1.253841,3.463265,-2.755345,-1.102381,0.004902447,0,0,9.022484,12.08211,-0.8842886,0.3090039,0.04117633,-0.3574138,3.496831,-0.005954029,-0.3381953,0.4921289,0.1029691,-0.9798813,1.643195,-0.0088377,0.1898049,1.162351,0.708256,302.5975,322.1939,10.53615
4,0.07777778,-0.5276131,-0.6140409,0.237609,-1.254826,3.470687,-2.752407,-1.102388,-0.0006626525,0,0,9.061584,12.05279,-0.8591222,0.2749634,-0.0006570769,-0.3587986,3.502292,-0.002368083,-0.327579,0.4963435,0.09645571,-0.9792523,1.650045,-0.009449694,0.1851205,1.163996,0.7102063,302.243,321.248,10.60394
4,0.08888889,-0.4882381,-0.5827411,0.2638191,-1.256227,3.477602,-2.750356,-1.102661,-0.02499982,0,0,9.081134,12.03324,-0.8426919,0.2271333,-0.06587867,-0.3616157,3.50461,0.00431512,-0.3116941,0.5069133,0.08243541,-0.9788939,1.657328,-0.01060604,0.1806585,1.165608,0.712171,301.8754,320.361,10.7152
4,0.1,-0.4754634,-0.5730108,0.2732743,-1.257038,3.484821,-2.747734,-1.103153,-0.04487943,0,0,9.100685,12.02346,-0.84005,0.2006423,-0.1288184,-0.365089,3.508435,0.01006489,-0.304422,0.50896,0.0610575,-0.9789391,1.663969,-0.01127849,0.1765081,1.167136,0.7140957,301.5196,319.6129,10.83543
4,0.1111111,-0.4180677,-0.5214802,0.2917692,-1.259013,3.490249,-2.746756,-1.1041,-0.08632115,0,0,9.120235,12.02346,-0.821257,0.224143,-0.1821801,-0.3686017,3.517515,0.01021589,-0.2927993,0.507835,0.05136081,-0.9787586,1.670724,-0.01218236,0.1727378,1.168494,0.715746,301.105,318.9912,10.99585
4,0.1222222,-0.4180677,-0.5214802,0.2917692,-1.259013,3.490249,-2.746756,-1.100776,0.3044669,0,0,9.149561,12.02346,-0.821257,0.224143,-0.1821801,-0.3686017,3.517515,0.01021589,-0.2927993,0.507835,0.05136081,-0.9787586,1.670724,-0.01218236,0.1691521,1.169436,0.7174018,300.7026,318.6129,11.14426
4,0.1333333,-0.3233977,-0.4708722,0.3101838,-1.262351,3.501763,-2.745658,-1.107707,-0.6365384,0,0,9.169111,12.04301,-0.708617,0.2762308,-0.2330261,-0.3750961,3.538245,0.002906041,-0.269381,0.5024235,0.0511369,-0.9779053,1.683785,-0.01430837,0.1652863,1.169933,0.7192634,300.6124,318.4055,11.1277
4,0.1444445,-0.2531631,-0.4417529,0.3203501,-1.264376,3.507116,-2.746861,-1.104968,0.2559349,0,0,9.217987,12.06256,-0.610589,0.2824127,-0.2316589,-0.377518,3.546958,-0.002028263,-0.2586386,0.4928203,0.06383537,-0.9768507,1.689873,-0.01524127,0.1622763,1.170397,0.71964,300.383,317.7082,11.06894
4,0.1555556,-0.2042236,-0.4213059,0.32321,-1.266274,3.512384,-2.747898,-1.105813,-0.08031042,0,0,9.266863,12.08211,-0.5499644,0.2642005,-0.2396413,-0.3804358,3.552915,-0.003790211,-0.2426189,0.4821241,0.07222345,-0.9758776,1.695801,-0.01643463,0.1598064,1.170455,0.7199185,300.239,317.4005,10.81641
4,0.1666667,-0.1190911,-0.3965257,0.3205969,-1.26809,3.517252,-2.75106,-1.106506,-0.0628604,0,0,9.325513,12.14076,-0.5148669,0.2534781,-0.2452783,-0.383426,3.558839,-0.004568653,-0.2511741,0.4704368,0.07232387,-0.9752197,1.701711,-0.01671693,0.157743,1.170072,0.7201629,300.1762,317.3659,10.59618
4,0.1777778,-0.03718387,-0.3686135,0.3126357,-1.269881,3.521556,-2.754797,-1.105922,0.05352174,0,0,9.384165,12.25806,-0.4720435,0.2885107,-0.2274256,-0.3854153,3.570835,-0.01177091,-0.2534572,0.4533802,0.06172345,-0.9750051,1.707174,-0.01693984,0.1559098,1.169209,0.7204614,300.2274,317.4748,10.39702
4,0.1888889,0.04466671,-0.3322701,0.2960646,-1.271439,3.525131,-2.759037,-1.107544,-0.1491892,0,0,9.442816,12.40469,-0.4122146,0.3288497,-0.2171451,-0.3875048,3.584169,-0.02159424,-0.2561699,0.4202707,0.01280678,-0.9766477,1.711492,-0.01631213,0.1542132,1.167941,0.7207368,300.418,317.6502,10.13492
4,0.2,0.1168052,-0.2737734,0.2611832,-1.272611,3.526892,-2.763152,-1.10784,-0.02623434,0,0,9.491692,12.60019,-0.3662505,0.3393811,-0.201503,-0.3893563,3.594857,-0.02900396,-0.2551886,0.4000283,0.01071526,-0.9764518,1.716216,-0.01627111,0.1527032,1.166368,0.7207361,300.6288,317.7722,9.841899
4,0.2111111,0.1570479,-0.2227159,0.2392494,-1.274148,3.52828,-2.766727,-1.107863,-0.002530003,0,0,9.530792,12.82502,-0.2980293,0.340299,-0.1967174,-0.3914932,3.604789,-0.03736442,-0.2391894,0.3744265,0.02233076,-0.9758419,1.720193,-0.01637791,0.1514478,1.164531,0.7203735,300.8587,317.9173,9.456019
4,0.2222222,0.2088532,-0.1408705,0.2031196,-1.275496,3.527442,-2.770376,-1.107558,0.02737299,0,0,9.569892,13.0303,-0.2351575,0.3156456,-0.1887649,-0.3935726,3.610937,-0.04250085,-0.2319851,0.3424057,0.007414687,-0.9762211,1.723437,-0.0159542,0.1504866,1.162457,0.7197495,301.1383,318.0808,9.018115
4,0.2333333,0.2488732,-0.05610507,0.1435538,-1.275885,3.524925,-2.773774,-1.10643,0.1023971,0,0,9.608994,13.18671,-0.1945569,0.2910143,-0.1678389,-0.3947662,3.616761,-0.04721439,-0.236461,0.3147012,-0.005273703,-0.9767751,1.726483,-0.01494406,0.1498866,1.160183,0.7190965,301.4717,318.2827,8.528705
4,0.2444444,0.2687756,-0.01174173,0.09721842,-1.275488,3.52285,-2.776014,-1.106443,-0.002479253,0,0,9.63832,13.29423,-0.139209,0.2781247,-0.1714973,-0.3968222,3.623122,-0.05352261,-0.2354384,0.2933839,-0.002057422,-0.9767793,1.729325,-0.01399038,0.1496594,1.157795,0.7186632,301.8766,318.6194,7.972289
4,0.2555556,0.2842885,0.01890469,-0.03736997,-1.271149,3.519627,-2.778757,-1.106152,0.02627555,0,0,9.67742,13.31378,-0.1005351,0.3600285,-0.151373,-0.3983119,3.640904,-0.07014393,-0.2151211,0.2773595,0.01162974,-0.976211,1.732412,-0.01407933,0.1499595,1.155474,0.7184173,302.3091,318.9943,7.434676
4,0.2666667,0.2799338,0.01636058,-0.07568225,-1.269186,3.519021,-2.781429,-1.104363,0.1630022,0,0,9.716519,13.28446,-0.07033342,0.4056918,-0.1163446,-0.3986992,3.656808,-0.08513886,-0.1926892,0.2485543,0.02851856,-0.9753236,1.734653,-0.0140274,0.1509209,1.153372,0.71846,302.7721,319.3406,7.001165
4,0.2777778,0.25092,-0.04519556,-0.2518341,-1.259253,3.518283,-2.782927,-1.104646,-0.02748466,0,0,9.765396,13.22581,-0.02310202,0.3831029,-0.06564141,-0.397937,3.665326,-0.09443703,-0.148165,0.1738343,0.03356401,-0.9747127,1.733616,-0.01346441,0.1525526,1.151668,0.7188888,303.312,319.5857,6.802925
4,0.2888889,0.2252545,-0.07592568,-0.3313557,-1.252511,3.517865,-2.784451,-1.103579,0.09767172,0,0,9.824047,13.12806,-0.02066274,0.2177911,0.01385155,-0.3946837,3.657406,-0.08709949,-0.1166991,0.1054736,0.005684219,-0.975843,1.731828,-0.01240154,0.1548469,1.150448,0.7198939,303.7733,319.5469,7.049024
4,0.3,0.1813258,-0.07166535,-0.4207781,-1.244663,3.515513,-2.784053,-1.102133,0.1312023,0,0,9.882699,13.02053,-0.03963628,0.1431508,0.05751257,-0.3925068,3.655635,-0.08428825,-0.110511,0.07666697,-0.004973824,-0.976333,1.731838,-0.01123881,0.1575357,1.149669,0.7214111,304.0682,319.5306,7.603417
4,0.3111111,0.125454,0.01594573,-0.4811951,-1.238965,3.509342,-2.781397,-1.101864,0.02355967,0,0,9.941349,12.97165,-0.06824005,0.06001943,0.09802827,-0.389735,3.650001,-0.07726017,-0.1053218,0.04361603,-0.007100423,-0.976561,1.731046,-0.009780193,0.1605472,1.149371,0.7233055,304.4208,318.9577,8.642005
4,0.3222222,0.08345297,0.1198667,-0.5141044,-1.23438,3.501409,-2.778126,-1.100591,0.1163541,0,0,10,12.98143,-0.05958457,0.02478548,0.1223837,-0.387572,3.648525,-0.07575361,-0.09894687,0.02441511,-0.001800681,-0.9763958,1.73039,-0.008543421,0.1637312,1.149551,0.7254643,304.6268,318.5494,9.590899
4,0.3333333,-0.01019882,0.3416295,-0.5726057,-1.23052,3.485833,-2.769007,-1.099606,0.08928753,0,0,10.05865,13.0694,-0.02080026,0.02138493,0.1774642,-0.3835431,3.649516,-0.07790199,-0.08602476,0.009494063,0.01834665,-0.9754429,1.729856,-0.007770571,0.1669711,1.15024,0.7278448,304.7821,318.3499,10.3473
4,0.3444445,-0.07256173,0.477352,-0.6132423,-1.226572,3.473164,-2.762011,-1.099769,-0.01522745,0,0,10.1173,13.20626,0.03830986,0.04669889,0.2356461,-0.3789833,3.654974,-0.08563368,-0.07523742,-0.008611266,0.03958995,-0.9742227,1.729139,-0.006873352,0.1702427,1.151507,0.7304959,304.8365,318.3893,10.85125
4,0.3555556,-0.1187054,0.5503975,-0.642631,-1.222209,3.461407,-2.755123,-1.096892,0.2635462,0,0,10.17595,13.36266,0.06624632,0.0742903,0.2589238,-0.3756527,3.660743,-0.09262847,-0.06864983,-0.03307902,0.06940362,-0.9724197,1.727703,-0.005519668,0.1736208,1.153421,0.733446,304.7935,318.5163,11.16808
4,0.3666667,-0.1819656,0.6307586,-0.6827269,-1.217271,3.447675,-2.745646,-1.098268,-0.1276885,0,0,10.21505,13.48974,0.04197405,0.08706175,0.2847149,-0.3717773,3.665685,-0.09684265,-0.05796124,-0.04907529,0.0789266,-0.9711733,1.726483,-0.004596616,0.177327,1.156191,0.7369955,304.7158,318.7791,11.32663
4,0.3777778,-0.2504808,0.6972384,-0.7215809,-1.2126,3.434009,-2.735729,-1.098789,-0.04609674,0,0,10.24438,13.57771,0.0240145,0.06786501,0.3082508,-0.3675716,3.666721,-0.09736624,-0.0420723,-0.06831319,0.07667974,-0.9704479,1.72469,-0.00370499,0.1813469,1.15976,0.7411535,304.3302,318.824,12.01298
4,0.3888889,-0.3189947,0.7585369,-0.749749,-1.207995,3.419419,-2.723976,-1.097427,0.1249937,0,0,10.25415,13.61681,0.01543686,-0.01098657,0.3198612,-0.3632014,3.659301,-0.09044628,-0.03162681,-0.08967648,0.06170158,-0.9704101,1.722755,-0.002764628,0.1856271,1.163969,0.7454557,303.7274,318.6589,13.13366
4,0.4,-0.3703234,0.7997082,-0.7692122,-1.203868,3.405291,-2.713021,-1.097396,0.002160927,0,0,10.25415,13.61681,0.01758131,-0.05362591,0.3314592,-0.3591587,3.654986,-0.08682758,-0.01920179,-0.09511445,0.0253733,-0.9713774,1.721315,-0.002248507,0.1900969,1.168677,0.749849,303.1056,318.4338,14.32629
4,0.4111111,-0.4430288,0.8652862,-0.7909983,-1.200361,3.38934,-2.699994,-1.096558,0.07716683,0,0,10.2346,13.54839,0.03889197,-0.1368102,0.3524016,-0.3540939,3.643151,-0.07694032,-0.00769661,-0.09306952,0.001822328,-0.9721923,1.720171,-0.001967011,0.1946725,1.173732,0.7542602,302.4354,318.1586,15.56227
4,0.4222222,-0.4890386,0.9183244,-0.797811,-1.197428,3.373093,-2.686863,-1.097765,-0.1105835,0,0,10.21505,13.41154,0.05582999,-0.1869167,0.3510934,-0.3498499,3.633074,-0.06871914,-0.001738232,-0.1165899,-0.03441312,-0.9738956,1.717667,-0.0006838997,0.1992977,1.179042,0.7586312,301.7751,317.8943,16.76902
4,0.4333333,-0.551127,1.005398,-0.8038726,-1.195716,3.354908,-2.672041,-1.097133,0.0592823,0,0,10.1955,13.19648,0.04700903,-0.2507642,0.3297062,-0.3467143,3.618619,-0.05535753,0.007730782,-0.1209073,-0.04514902,-0.9747931,1.715788,-9.054747E-06,0.2038397,1.184409,0.763095,301.0515,317.5404,18.04765
4,0.4444444,-0.6057806,1.102142,-0.8057768,-1.19508,3.335496,-2.656579,-1.097667,-0.04897542,0,0,10.18573,12.93255,0.03408699,-0.2528363,0.3127621,-0.3436495,3.61082,-0.04789162,0.01744311,-0.09429543,-0.04210001,-0.9751441,1.715889,-0.0006077334,0.2082788,1.189721,0.7678234,300.3586,317.2463,19.17548
4,0.4555556,-0.6668695,1.20739,-0.8066901,-1.195368,3.314568,-2.639372,-1.097353,0.02956215,0,0,10.18573,12.65885,0.03054601,-0.2282172,0.262785,-0.342278,3.605984,-0.04363616,0.0207615,-0.07192878,-0.03791425,-0.9754211,1.715923,-0.0009984191,0.2126726,1.195017,0.7725933,299.7217,317.0442,20.17469
4,0.4666667,-0.6936621,1.255246,-0.8071078,-1.195051,3.295394,-2.623926,-1.0977,-0.0314774,0,0,10.1955,12.36559,0.03897395,-0.1983608,0.2436117,-0.3402524,3.602818,-0.04137833,0.03155676,-0.0751174,-0.02204469,-0.9753503,1.715086,-0.001286839,0.2170654,1.200348,0.7775428,299.1262,316.9885,20.98607
4,0.4777778,-0.7118765,1.291479,-0.7999696,-1.195359,3.276317,-2.608493,-1.097122,0.0535343,0,0,10.21505,12.05279,0.05301891,-0.1717981,0.2616746,-0.3365421,3.600334,-0.0401373,0.04106681,-0.09432913,-0.02316397,-0.9756485,1.71296,-0.0009094695,0.2215988,1.205844,0.7825125,298.5132,317.0156,21.69008
4,0.4888889,-0.7257546,1.307441,-0.7979552,-1.195636,3.257625,-2.593376,-1.098708,-0.1451396,0,0,10.24438,11.72043,0.08629552,-0.1847337,0.2976038,-0.3316275,3.593053,-0.03526878,0.05584184,-0.1167537,-0.02965079,-0.9762142,1.710596,-0.0007744472,0.2263391,1.211633,0.7875082,297.8825,317.1075,22.42304
4,0.5,-0.7257555,1.307416,-0.8011507,-1.195615,3.239112,-2.578558,-1.099304,-0.05301625,0,0,10.27371,11.36852,0.08411657,-0.2113708,0.298629,-0.3281824,3.582805,-0.02629605,0.06335311,-0.1295523,-0.02011144,-0.9761327,1.708258,-0.0005842975,0.2312749,1.217729,0.792237,297.1775,316.9677,23.50232
4,0.5111111,-0.7193291,1.306507,-0.7883756,-1.196394,3.221165,-2.564234,-1.099865,-0.05056953,0,0,10.30303,11.02639,0.05524563,-0.2539191,0.2955633,-0.3249126,3.569314,-0.01316028,0.06233139,-0.1188812,-0.01905627,-0.9762733,1.707345,-0.0006450176,0.2363224,1.224059,0.7967929,296.4251,316.7498,24.70035
4,0.5222223,-0.7106541,1.294058,-0.7594986,-1.198018,3.204414,-2.550973,-1.10042,-0.05016835,0,0,10.31281,10.74291,-0.003363289,-0.2644638,0.2970733,-0.3215277,3.559202,-0.001386708,0.06341788,-0.1060891,-0.02229638,-0.9767969,1.706814,-0.00117472,0.2414059,1.230531,0.8012299,295.641,316.4181,26.03126
4,0.5333334,-0.711612,1.271806,-0.7475424,-1.19913,3.18787,-2.537055,-1.10095,-0.04802216,0,0,10.30303,10.51809,-0.04797679,-0.2548205,0.3112984,-0.3176443,3.551208,0.008243549,0.05911226,-0.1114068,-0.02437659,-0.9771511,1.705029,-0.0006173207,0.2464481,1.237017,0.8055234,294.8343,315.955,27.51222
4,0.5444446,-0.7157264,1.252886,-0.7217692,-1.200891,3.1717,-2.523192,-1.101738,-0.07149696,0,0,10.27371,10.37146,-0.05416844,-0.2388811,0.332695,-0.3131696,3.544244,0.01559201,0.0538047,-0.1060544,-0.02433785,-0.9774339,1.703912,-0.0003936152,0.251366,1.243415,0.8095574,294.0401,315.5528,28.91441
4,0.5555557,-0.7251865,1.22959,-0.7065888,-1.20264,3.155744,-2.509046,-1.101147,0.05468217,0,0,10.2346,10.29326,-0.04228708,-0.2069747,0.3454556,-0.3089134,3.540264,0.01940512,0.05692109,-0.09650239,-0.03610488,-0.9782621,1.703009,-0.0006069344,0.2560624,1.249609,0.8132855,293.2676,315.1509,30.26042
4,0.5666668,-0.7399405,1.207418,-0.6850095,-1.204907,3.140434,-2.495064,-1.101053,0.008089292,0,0,10.1173,10.27371,-0.03282467,-0.1931013,0.3262346,-0.3061085,3.534454,0.02490721,0.05985349,-0.1029461,-0.06167792,-0.9797232,1.701531,-0.0006026733,0.2604851,1.255517,0.8167793,292.5789,314.655,31.59358
4,0.577778,-0.7483683,1.185221,-0.6624016,-1.207022,3.125497,-2.480813,-1.100791,0.02409863,0,0,9.912024,10.29326,-0.0328791,-0.1685617,0.3124488,-0.3030715,3.530874,0.02865135,0.06625471,-0.1051083,-0.06066241,-0.9802142,1.699834,-0.0007382283,0.2646402,1.261139,0.8200419,291.9651,314.1515,32.79392
4,0.5888891,-0.7311534,1.171918,-0.6143695,-1.210782,3.111395,-2.468218,-1.100803,-0.001246775,0,0,9.608994,10.36168,-0.01278904,-0.1237888,0.2825643,-0.3010251,3.531745,0.02722416,0.0728372,-0.09977072,-0.04262402,-0.9800257,1.698739,-0.001206678,0.2685964,1.266542,0.8231641,291.4321,313.6657,33.84048
4,0.6000003,-0.7042751,1.147955,-0.5662595,-1.214456,3.098672,-2.457241,-1.100533,0.02478898,0,0,9.237537,10.44966,0.02954727,-0.08542049,0.2386344,-0.2998751,3.532405,0.02483025,0.07518616,-0.1167485,-0.01278128,-0.979109,1.69678,-0.0009763148,0.2724122,1.271796,0.8261011,290.9226,313.2191,34.81818
4,0.6111114,-0.7042751,1.147955,-0.5662595,-1.214456,3.098672,-2.457241,-1.09563,0.4481945,0,0,8.787879,10.50831,0.02954727,-0.08542049,0.2386344,-0.2998751,3.532405,0.02483025,0.07518616,-0.1167485,-0.01278128,-0.979109,1.69678,-0.0009763148,0.2762421,1.277137,0.8293903,290.575,313.1081,35.20569
4,0.6222225,-0.6775482,1.136545,-0.5449048,-1.218157,3.084927,-2.445855,-1.109394,-1.261814,0,0,8.289346,10.54741,0.06777023,-0.04601915,0.2128543,-0.2984146,3.5353,0.01996891,0.08170231,-0.1284549,0.005292162,-0.9783602,1.694542,-0.0008069378,0.2804963,1.28323,0.8334391,290.1514,313.7192,35.15504
4,0.6333337,-0.621901,1.088996,-0.5221918,-1.224369,3.059394,-2.425243,-1.110503,-0.09044446,0,0,7.771261,10.63539,0.06922586,-0.06851991,0.2681845,-0.290969,3.527491,0.02589738,0.1122063,-0.2053098,-0.00763152,-0.9789184,1.685807,0.0003768373,0.2840787,1.288833,0.8347806,288.9289,311.6439,38.86415
4,0.6444448,-0.5749472,1.07751,-0.5136819,-1.22765,3.046492,-2.416341,-1.096952,1.237989,0,0,7.272727,10.79179,0.04395184,-0.1293044,0.3193734,-0.2857204,3.514067,0.03921744,0.1164133,-0.2170608,-0.009777229,-0.9790632,1.682249,0.0008423579,0.2864685,1.293023,0.8350211,287.9327,309.0438,42.33974
4,0.655556,-0.5290422,1.07913,-0.4744165,-1.232565,3.034302,-2.408163,-1.102779,-0.5435147,0,0,6.852396,11.04594,0.01636598,-0.1506014,0.3387191,-0.2813795,3.504429,0.04935423,0.1225791,-0.2213871,-0.03113304,-0.9801908,1.679163,0.001107875,0.2888953,1.296994,0.8373936,287.8892,309.7188,41.1969
4,0.6666671,-0.5023464,1.090139,-0.4490327,-1.237964,3.02159,-2.39964,-1.104651,-0.1652872,0,0,6.520039,11.36852,0.006909877,-0.1570217,0.3568945,-0.2768899,3.496725,0.05702121,0.1288064,-0.2150476,-0.05252214,-0.9817562,1.676829,0.0005049353,0.2917223,1.301101,0.8399734,287.87,310.0295,40.70895
4,0.6777782,-0.4777532,1.090592,-0.4128749,-1.243931,3.00984,-2.391504,-1.104937,-0.02546227,0,0,6.304986,11.73021,0.04117365,-0.1944477,0.3884996,-0.2715508,3.482434,0.06903952,0.1273936,-0.2321445,-0.08230477,-0.9838687,1.672903,0.001331314,0.2949609,1.305265,0.8421281,287.5616,309.7643,41.34956
4,0.6888894,-0.4659135,1.076959,-0.3957335,-1.248833,2.998381,-2.383293,-1.104389,0.05003835,0,0,6.207234,12.11144,0.06567161,-0.2264713,0.3956812,-0.2672605,3.467026,0.08217796,0.1147249,-0.2288736,-0.072606,-0.984291,1.670179,0.001923601,0.2984591,1.309339,0.8436702,286.9767,309.4462,42.3995
4,0.7000005,-0.4497285,1.032479,-0.3750739,-1.253153,2.98862,-2.375865,-1.104024,0.03265652,0,0,6.21701,12.51222,0.09071472,-0.3052344,0.3484172,-0.2659997,3.442539,0.1037568,0.1095049,-0.2075577,-0.07045349,-0.9848173,1.668201,0.001848766,0.3021338,1.313275,0.844797,286.3589,309.3087,43.30301
4,0.7111117,-0.4325203,0.9943187,-0.3619448,-1.257335,2.978677,-2.368583,-1.103518,0.04591193,0,0,6.324536,12.89345,0.07517917,-0.3369998,0.2781546,-0.2662351,3.422694,0.1225957,0.09990597,-0.19688,-0.07570955,-0.9859118,1.666067,0.002289786,0.3058854,1.317058,0.8456992,285.7889,309.2932,44.06383
4,0.7222228,-0.4217395,0.9689599,-0.3446634,-1.261998,2.968889,-2.361238,-1.103454,0.005211664,0,0,6.471163,13.17693,0.0740962,-0.298622,0.2676001,-0.2636716,3.414914,0.1294762,0.09683773,-0.1883035,-0.0661203,-0.9864088,1.664301,0.002191782,0.309621,1.320687,0.8465524,285.3149,309.111,44.94554
4,0.7333339,-0.4034332,0.9330959,-0.31558,-1.266663,2.960484,-2.354963,-1.103436,0.001530709,0,0,6.637341,13.35288,0.0983788,-0.223992,0.2217723,-0.2628545,3.415854,0.1265734,0.09708619,-0.1754795,-0.04484029,-0.9860386,1.662594,0.00205889,0.3132322,1.324116,0.8473201,284.8739,308.7177,45.98157
4,0.7444451,-0.3808418,0.894111,-0.2800787,-1.271546,2.952847,-2.349256,-1.103113,0.02942763,0,0,6.84262,13.44086,0.1302075,-0.157931,0.1897143,-0.2617946,3.417496,0.1223912,0.1036648,-0.1765202,-0.02465409,-0.9854708,1.660343,0.0018738,0.3166603,1.327358,0.8481753,284.4587,308.423,46.85798
4,0.7555562,-0.3465461,0.858343,-0.2467691,-1.276409,2.945688,-2.344627,-1.103524,-0.03799024,0,0,7.057673,13.45064,0.1354332,-0.1184733,0.1673929,-0.2607602,3.417785,0.1203917,0.1056937,-0.1818707,-0.03318585,-0.9861824,1.657623,0.002125202,0.319873,1.330471,0.849158,284.0599,308.3644,47.45015
4,0.7666674,-0.3059161,0.8374341,-0.221089,-1.281419,2.93837,-2.340738,-1.103695,-0.01536459,0,0,7.253177,13.43108,0.09188996,-0.1035047,0.1805588,-0.2582148,3.413757,0.1250549,0.1075571,-0.1862008,-0.0608884,-0.9878266,1.654821,0.002278068,0.3227719,1.333427,0.8501593,283.6436,308.2745,48.05459
4,0.7777785,-0.2814296,0.8504218,-0.2095571,-1.287274,2.929772,-2.33613,-1.104385,-0.06310311,0,0,7.419354,13.38221,0.02034698,-0.1257064,0.1661631,-0.2572401,3.403698,0.1373291,0.1043573,-0.1829909,-0.06300232,-0.9886336,1.652687,0.002348376,0.325294,1.336223,0.8511254,283.246,308.2173,48.54969
4,0.7888896,-0.2357605,0.9040606,-0.1878456,-1.294927,2.920271,-2.332525,-1.104921,-0.04867424,0,0,7.575758,13.28446,-0.04790531,-0.1511334,0.16345,-0.2559894,3.392372,0.1513871,0.07571911,-0.1573127,-0.05958344,-0.9891704,1.651789,0.003068228,0.3274304,1.338806,0.8520353,282.8395,307.8484,49.2767
4,0.8000008,-0.2176488,0.9332417,-0.1540952,-1.302738,2.911769,-2.328521,-1.104253,0.06113512,0,0,7.71261,13.16716,-0.06692545,-0.1362178,0.1796263,-0.2533769,3.387466,0.1574016,0.0609179,-0.1338107,-0.05735807,-0.9897169,1.651176,0.003180347,0.3292699,1.341092,0.8529164,282.4331,307.2466,50.10466
4,0.8111119,-0.1953143,0.9839358,-0.1003327,-1.312629,2.903394,-2.325084,-1.105041,-0.07281205,0,0,7.859237,13.04985,-0.07015508,-0.108482,0.1690669,-0.2518722,3.386418,0.1593415,0.05477656,-0.1177695,-0.03708874,-0.9893558,1.650388,0.003265302,0.3310445,1.343143,0.853887,282.0479,307.0587,50.39422
4,0.8222231,-0.1803806,1.013162,-0.05698243,-1.321918,2.89592,-2.321941,-1.104081,0.08824782,0,0,8.005865,12.913,-0.06492721,-0.09035002,0.1520259,-0.2509039,3.383871,0.1622619,0.03920362,-0.08141966,-0.009318175,-0.9885462,1.651129,0.002764095,0.3329459,1.344956,0.8548394,281.5931,307.1971,50.37924
4,0.8333342,-0.1707099,1.035138,0.005626202,-1.332549,2.889282,-2.318929,-1.104133,-0.005720382,0,0,8.132942,12.80547,-0.06072616,-0.05196798,0.1350369,-0.24996,3.387125,0.1596094,0.01504719,-0.03016027,0.00786283,-0.9878096,1.653001,0.002487659,0.3350598,1.346594,0.8557298,281.1217,308.1109,49.70358
4,0.8444453,-0.1780148,1.051936,0.08857727,-1.344393,2.883808,-2.315483,-1.103887,0.02245591,0,0,8.26002,12.73705,-0.04382043,0.0269186,0.09887249,-0.2496729,3.401464,0.1456097,0.001401408,-0.002375965,0.01857962,-0.9874421,1.654403,0.00216222,0.3373746,1.34814,0.8566444,280.587,309.5646,48.63085
4,0.8555565,-0.1895906,1.053557,0.1471841,-1.355737,2.878649,-2.311875,-1.103482,0.03667288,0,0,8.357772,12.68817,-0.03044871,0.09632061,0.0222228,-0.2518333,3.417981,0.1294925,-0.005854869,0.02962801,0.028177,-0.986764,1.656272,0.00158032,0.3398175,1.349619,0.8574959,280.0361,311.2247,47.43922
4,0.8666676,-0.2362441,1.035995,0.2177811,-1.366832,2.87524,-2.30658,-1.102501,0.0892738,0,0,8.445747,12.6784,-0.03605752,0.1326545,-0.02239338,-0.2534578,3.429722,0.1187703,-0.0004507778,0.03492161,0.03238061,-0.9862192,1.656495,0.000958738,0.3421782,1.351046,0.8582738,279.3735,313.36,45.9397
4,0.8777788,-0.3307848,0.9935665,0.2674594,-1.3772,2.872534,-2.298609,-1.102025,0.04286721,0,0,8.52395,12.60019,-0.07149641,0.1647864,-0.06571703,-0.2555458,3.443152,0.1080863,0.009101117,0.02637645,0.03336063,-0.9860055,1.656508,0.0006804377,0.3441885,1.352452,0.8590045,278.6561,316.0803,43.90419
4,0.8888899,-0.4143994,0.8959997,0.3389643,-1.385951,2.87331,-2.291402,-1.099919,0.1921632,0,0,8.592375,12.41447,-0.1121144,0.1649021,-0.08244014,-0.2568225,3.450418,0.1039517,0.01971938,0.01142738,0.03541872,-0.9855533,1.655985,0.000315052,0.3456472,1.353868,0.859678,277.9852,318.7104,41.85688
4,0.900001,-0.4703388,0.8070925,0.4135176,-1.395264,2.874798,-2.285133,-1.097118,0.2547091,0,0,8.660803,12.14076,-0.1493381,0.1564351,-0.07257279,-0.2569908,3.456023,0.1015117,0.02177323,0.003936125,0.03008836,-0.9854032,1.655432,0.0003166498,0.3463393,1.355367,0.8602966,277.3715,321.3773,39.64845
4,0.9111122,-0.4986272,0.7117304,0.474217,-1.403644,2.877676,-2.279023,-1.097411,-0.02849054,0,0,8.729228,11.75953,-0.1691748,0.1893994,-0.0297252,-0.2553476,3.468902,0.09172912,0.04428491,0.003882093,0.0447896,-0.9843538,1.655489,-0.001041829,0.3461425,1.357196,0.8610645,276.8547,324.0956,37.23939
4,0.9222233,-0.5057667,0.6568086,0.5227458,-1.412959,2.879746,-2.273735,-1.098835,-0.129128,0,0,8.80743,11.27077,-0.1723043,0.1627328,-0.01378842,-0.2549465,3.471547,0.09123404,0.06030598,-0.009998303,0.05425247,-0.9833605,1.654909,-0.002022404,0.3448457,1.359461,0.8619581,276.3254,325.6312,35.82362
4,0.9333345,-0.5053887,0.5762728,0.5651122,-1.420679,2.883795,-2.268759,-1.099343,-0.04511537,0,0,8.875856,10.86022,-0.2020792,0.06471099,0.01711206,-0.2539974,3.458565,0.107156,0.07068996,-0.04202624,0.03823426,-0.9835656,1.652812,-0.002089516,0.3424657,1.362146,0.8629159,275.6953,325.6681,35.57973
4,0.9444456,-0.4623839,0.5045366,0.6200673,-1.428634,2.888624,-2.266223,-1.100667,-0.1205677,0,0,8.934506,10.57674,-0.2222598,0.01356861,0.03739273,-0.2530307,3.451483,0.1172321,0.0800954,-0.04954877,0.02111263,-0.9840359,1.651874,-0.002860501,0.3391628,1.36518,0.8640289,275.0259,323.756,36.96363
4,0.9555568,-0.39932,0.4732153,0.6617815,-1.437606,2.892728,-2.264773,-1.101029,-0.03201196,0,0,8.983382,10.44966,-0.2447997,-0.05881754,0.03420479,-0.2532368,3.438145,0.1337197,0.08418807,-0.05704656,0.007241114,-0.9844343,1.650851,-0.003232545,0.3353457,1.368441,0.8653268,274.3265,319.8665,40.05245
4,0.9666679,-0.3020492,0.4046907,0.70059,-1.445004,2.89851,-2.265788,-1.103474,-0.2233039,0,0,9.012708,10.58651,-0.2808747,-0.1280778,0.0694832,-0.2518328,3.421264,0.1544508,0.08614961,-0.06881088,-0.006596725,-0.9848636,1.649183,-0.003378486,0.3312027,1.371779,0.8667517,273.6847,315.3157,43.88825
4,0.977779,-0.2253336,0.4244386,0.7311038,-1.455182,2.901903,-2.266454,-1.104826,-0.1217482,0,0,9.032258,10.73314,-0.3287722,-0.2026182,0.0931275,-0.2507174,3.400775,0.179614,0.07750182,-0.06028556,-0.023578,-0.9857142,1.648839,-0.003807788,0.3268695,1.374975,0.8681314,273.079,309.8206,48.72258
4,0.9888902,-0.1267718,0.6095415,0.776919,-1.471946,2.901067,-2.268466,-1.106852,-0.1847294,0,0,9.042033,10.82111,-0.4109544,-0.2439838,0.08409449,-0.250955,3.383202,0.204126,0.05645675,-0.02502668,-0.009595448,-0.9853499,1.649983,-0.004304734,0.3225797,1.377856,0.8696159,272.4749,303.3664,54.57125
4,1.000001,-0.08353841,0.7579812,0.7976925,-1.488559,2.899596,-2.268454,-1.106543,0.02950368,0,0,9.051809,10.85044,-0.465278,-0.215101,0.07714045,-0.2506152,3.378366,0.2156782,0.03634209,-0.005759215,-0.003047955,-0.9850863,1.650802,-0.004380101,0.3184106,1.38009,0.8711072,271.9308,293.1971,64.17359
4,1.011112,-0.01949775,1.05891,0.8253735,-1.512502,2.892753,-2.269821,-1.107705,-0.1073449,0,0,9.061584,10.75269,-0.5059249,-0.1446239,0.03927565,-0.2513838,3.383412,0.217992,0.005573037,0.01141085,0.003603979,-0.984805,1.651778,-0.003819772,0.3146985,1.381528,0.8726131,271.3097,284.9915,71.69132
4,1.022224,0.1401104,1.399794,0.7693261,-1.537445,2.879812,-2.276508,-1.105259,0.2238549,0,0,9.081134,10.36168,-0.4771509,-0.07540184,0.02322978,-0.2513672,3.389832,0.215748,-0.018853,0.02322802,0.007005638,-0.9847246,1.65248,-0.003206979,0.3118715,1.382134,0.8740384,270.4145,281.9205,74.13526
4,1.033335,0.1650922,1.604837,0.8097968,-1.563567,2.871252,-2.279012,-1.106194,-0.0877486,0,0,9.090909,10.0391,-0.4397143,0.002290905,0.02311361,-0.2504799,3.400427,0.2089825,-0.0367948,0.07016977,0.007090161,-0.9846095,1.655453,-0.003786749,0.3102485,1.382035,0.8753362,270.6688,77.08023,278.5445
4,1.044446,0.1827333,1.7788,0.8357049,4.69339,2.862583,-2.281713,-1.111111,-0.4492743,0,0,9.090909,9.872923,-0.4147613,0.05251518,-0.06645033,-0.2537753,3.412113,0.2014167,-0.03993537,0.07870445,0.008166576,-0.9845259,1.656811,-0.004224306,0.3102549,1.381556,0.8766277,272.0169,79.52215,275.911
4,1.055557,0.2250223,1.867154,0.8144554,4.670688,2.853544,-2.286064,-1.106194,0.4520354,0,0,9.07136,9.931575,-0.385795,0.04951096,-0.1753533,-0.2592049,3.416941,0.2000335,-0.04748758,0.08297279,-0.003487014,-0.9849696,1.658044,-0.004114584,0.3122524,1.380622,0.8776845,273.4373,83.01273,272.6284
4,1.066668,0.2565,1.940886,0.7209425,4.649436,2.841068,-2.290571,-1.104982,0.1071332,0,0,9.032258,10.43011,-0.3301876,0.0549826,-0.2844456,-0.265775,3.42481,0.1942534,-0.06214469,0.1246013,0.007218873,-0.9846798,1.66161,-0.004930843,0.3158536,1.379366,0.8784034,275.2621,83.75969,272.8918
4,1.077779,0.1797023,1.865603,0.5716943,4.634847,2.830225,-2.290665,-1.105878,-0.08277664,0,0,8.973608,11.20235,-0.2739894,0.07946864,-0.3242498,-0.2699742,3.43463,0.1859507,-0.08521892,0.1662798,0.02867444,-0.9834569,1.665684,-0.005522331,0.3203128,1.378008,0.8786656,277.1251,84.48979,273.7722
4,1.08889,0.08234155,1.543976,0.404745,4.630743,2.825145,-2.288486,-1.105317,0.05139422,0,0,8.924732,12.16031,-0.1878561,0.1134555,-0.3525518,-0.2744558,3.446862,0.1731726,-0.07981481,0.1598886,0.039289,-0.9826654,1.667615,-0.005825931,0.3248899,1.376503,0.8782213,278.6414,86.33935,273.5981
4,1.100002,0.08234155,1.543976,0.404745,4.630743,2.825145,-2.288486,-1.097948,0.6725646,0,0,8.875856,13.29423,-0.1878561,0.1134555,-0.3525518,-0.2744558,3.446862,0.1731726,-0.07981481,0.1598886,0.039289,-0.9826654,1.667615,-0.005825931,0.3293866,1.374789,0.8772343,279.8171,88.93571,272.3179
4,1.111113,0.02642548,0.9228561,0.2119751,4.629531,2.822959,-2.287932,-1.100548,-0.2436554,0,0,8.82698,14.49658,-0.07064086,0.1931617,-0.368211,-0.2818807,3.476068,0.1433444,-0.01371641,0.1085747,0.06432041,-0.9806159,1.668727,-0.008117847,0.3338635,1.373226,0.8763933,280.7492,89.60033,272.849
4,1.122224,0.05390209,0.6714222,0.2027512,4.628254,2.825068,-2.289962,-1.100232,0.03170805,0,0,8.80743,15.42522,-0.01296572,0.1823471,-0.3473766,-0.2845913,3.482838,0.135002,0.01393053,0.0871741,0.06835476,-0.9798073,1.669005,-0.009244897,0.3373996,1.372094,0.8757312,280.8821,88.9145,274.8134
4,1.133335,0.08091325,0.5596924,0.207013,4.625069,2.825539,-2.291861,-1.10154,-0.1198846,0,0,8.797654,15.99218,0.0106815,0.1694486,-0.3177648,-0.2868352,3.488904,0.1281492,0.03509414,0.05406792,0.06608528,-0.9791559,1.668151,-0.01002227,0.3395132,1.371475,0.8753597,280.8042,88.6016,275.9752
4,1.144446,0.111038,0.470306,0.206779,4.621469,2.825482,-2.294245,-1.10369,-0.195452,0,0,8.797654,16.19746,0.04607768,0.079774,-0.2660569,-0.288186,3.480159,0.1348015,0.05519608,0.02415975,0.06276178,-0.9784571,1.667238,-0.01080631,0.3400869,1.371338,0.8751216,280.9214,89.14571,275.6749
4,1.155557,0.1538273,0.3977465,0.1807645,4.619255,2.824812,-2.297528,-1.10352,0.01701929,0,0,8.797654,16.11926,0.04672305,-0.05258767,-0.1523848,-0.2865402,3.458978,0.1546261,0.07080989,-0.006843034,0.03710382,-0.9790046,1.665709,-0.01118022,0.3391833,1.371465,0.8749652,281.001,90.31749,274.2267
4,1.166668,0.1784224,0.3495594,0.1492326,4.617419,2.823764,-2.300774,-1.103712,-0.01807782,0,0,8.787879,15.92375,0.03929348,-0.1029884,-0.002235062,-0.2814184,3.445361,0.1676724,0.06835732,-0.02820152,0.0116091,-0.9796555,1.66416,-0.01095917,0.3372275,1.371661,0.8750333,281.0059,91.39845,272.4392
4,1.17778,0.1934141,0.2699962,0.0733043,4.618733,2.822196,-2.303724,-1.104355,-0.05875814,0,0,8.768329,15.62072,0.01824736,-0.1158132,0.03412516,-0.2802066,3.439482,0.1739047,0.04685586,-0.02710167,-0.00948979,-0.9803394,1.663885,-0.01055224,0.3347646,1.371704,0.8752244,280.9275,92.05971,270.8141
4,1.188891,0.2073975,0.1626531,-0.01087042,4.622848,2.821248,-2.306634,-1.104088,0.02472426,0,0,8.739002,15.3568,-0.0008549653,-0.1371144,0.04807743,-0.2796282,3.430655,0.183095,0.0500727,-0.01859317,-0.01060182,-0.9804976,1.664013,-0.0112934,0.3323542,1.3714,0.8755196,280.7628,92.1938,269.7024
4,1.200002,0.2128148,0.1036613,-0.05182409,4.624747,2.820463,-2.309365,-1.103457,0.05717642,0,0,8.709679,15.20039,0.01387791,-0.1424164,0.02557591,-0.2806365,3.424965,0.1877502,0.05862917,0.0101227,-0.01712958,-0.9808753,1.665447,-0.01299809,0.3304822,1.370645,0.8759371,280.5816,91.60973,269.475
4,1.211113,0.2290076,0.00959455,-0.08819876,4.629098,2.821045,-2.312469,-1.103216,0.02145744,0,0,8.680352,15.16129,0.07447007,-0.09879144,-0.001434922,-0.2815765,3.427572,0.1820944,0.03947277,0.01232603,-0.01588621,-0.9810164,1.665741,-0.01289582,0.3294466,1.369394,0.876407,280.3151,90.18434,270.3851
4,1.222224,0.2323219,-0.02341059,-0.08786408,4.630371,2.821276,-2.315358,-1.102885,0.02993623,0,0,8.660803,15.32747,0.1180231,-0.02528915,-0.03463553,-0.282678,3.437678,0.1694766,0.02577507,-0.009951016,0.008787569,-0.9800289,1.664517,-0.01194428,0.3293355,1.367697,0.8768509,280.0633,87.9996,272.3697
4,1.233335,0.2249663,-0.0176335,-0.04102838,4.62944,2.822308,-2.317505,-1.103211,-0.03013731,0,0,8.670577,15.53275,0.1062868,0.0003192872,-0.04300722,-0.2833603,3.44104,0.1655264,0.03224471,-0.03550741,0.02688513,-0.9790302,1.66287,-0.01163056,0.3300606,1.365679,0.8771326,280.0605,85.56344,274.9377
4,1.244446,0.1982409,0.03801283,-0.00848449,4.626355,2.821371,-2.318907,-1.102877,0.03073836,0,0,8.719453,15.7478,0.07550532,0.03977616,-0.03841138,-0.2833049,3.447244,0.1599385,0.03762634,-0.04190708,0.03429767,-0.9784757,1.661975,-0.01194667,0.3313176,1.363498,0.8772554,280.1577,83.08439,277.8458
4,1.255558,0.1789826,0.06675521,-0.00446526,4.624883,2.820149,-2.320241,-1.102065,0.07393824,0,0,8.797654,15.94331,0.04678258,0.05580802,-0.03708019,-0.2834519,3.452069,0.1559731,0.03676429,-0.02056967,0.04811774,-0.977443,1.662815,-0.01266306,0.3327917,1.361339,0.8771961,280.4758,81.0483,280.4547
4,1.266669,0.1490435,0.09853981,-0.01216667,4.62356,2.818155,-2.321119,-1.101068,0.09046495,0,0,8.905182,16.09971,0.03177566,0.03986726,-0.04551437,-0.2842775,3.450833,0.157298,0.02926049,-0.0205605,0.0428651,-0.9771319,1.662404,-0.01250594,0.3341248,1.359416,0.8770384,280.9667,79.69264,282.4286
4,1.27778,0.1042767,0.1004499,-0.01950758,4.622798,2.817182,-2.320892,-1.100954,0.009763348,0,0,9.032258,16.04106,0.01890824,0.02286323,-0.05184317,-0.2851265,3.4496,0.1587438,0.02048387,-0.02164168,0.01737683,-0.97804,1.662044,-0.01210833,0.3352075,1.357933,0.8769742,281.4184,78.84744,283.7357
4,1.288891,0.08831888,0.08537713,-0.02996799,4.623006,2.816375,-2.321347,-1.100566,0.03562513,0,0,9.188662,15.69893,-0.002590101,-0.002620075,-0.07090429,-0.2867516,3.446865,0.1621234,0.02349538,-0.02488332,-0.0007565783,-0.9788225,1.661535,-0.01219142,0.3359477,1.356942,0.8770063,281.6353,78.43995,284.4387
4,1.300002,0.07769415,0.067118,-0.04147285,4.623558,2.815669,-2.321946,-1.099699,0.07902264,0,0,9.374389,15.07331,-0.0112659,-0.01854402,-0.08686171,-0.2885631,3.445102,0.1641948,0.03739365,-0.01214924,-0.0009190111,-0.9788539,1.661979,-0.01347613,0.3363823,1.356444,0.8771368,281.6825,78.40276,284.572
4,1.311113,0.07884297,0.04155578,-0.04121722,4.624319,2.815684,-2.322821,-1.100534,-0.07678697,0,0,9.579668,14.23265,0.02391903,-0.006896213,-0.08604845,-0.2894499,3.446913,0.1608682,0.02998969,0.004921018,-0.001945865,-0.9789327,1.662823,-0.0140077,0.3365542,1.35639,0.877331,281.6385,78.75603,284.1875
4,1.322224,0.08953014,0.04709144,-0.02425145,4.623346,2.815423,-2.324444,-1.100987,-0.04055529,0,0,9.784947,13.32356,0.05273666,0.007948101,-0.0819786,-0.2900033,3.44957,0.1567342,0.02686099,0.003881949,0.005542824,-0.9785892,1.662805,-0.01414698,0.3365044,1.356661,0.8775529,281.4935,79.46287,283.3853
4,1.333336,0.09265868,0.08460054,-0.003331661,4.620999,2.814352,-2.325713,-1.101491,-0.04570829,0,0,9.990225,12.59042,0.05821074,0.01855274,-0.06601688,-0.2900044,3.451876,0.1535981,0.02902996,-0.01315059,0.0162076,-0.9779511,1.661789,-0.01398692,0.3363464,1.357126,0.8778641,281.3097,80.30236,282.3981
4,1.344447,0.08089619,0.09623951,-0.007683422,4.62004,2.813005,-2.326311,-1.102321,-0.07547028,0,0,10.16618,12.10166,0.02970029,0.02707259,-0.03700573,-0.2891868,3.454113,0.1523094,0.02597908,-0.009913016,0.03008436,-0.9770291,1.661875,-0.01425217,0.3360962,1.357609,0.8781332,281.17,81.17275,281.3732
4,1.355558,0.06705178,0.08218503,-0.02348625,4.620397,2.812097,-2.326571,-1.10198,0.03173364,0,0,10.34213,11.83773,0.02433818,0.04841229,-0.0465044,-0.2899245,3.459366,0.1472305,0.01974712,-0.00240641,0.04397915,-0.9759803,1.662235,-0.01442475,0.3358323,1.357982,0.8783387,281.1562,82.09492,280.3004
4,1.366669,0.05223187,0.02641792,-0.05590788,4.623165,2.812007,-2.326529,-1.101249,0.06656034,0,0,10.49853,11.81818,0.03287496,0.05904501,-0.04761053,-0.2903991,3.463136,0.142828,0.01762593,-0.01941536,0.05148542,-0.9751601,1.661443,-0.0141041,0.3356695,1.358145,0.8785645,281.2148,82.96601,279.3242
4,1.37778,0.04274663,-0.02502142,-0.08306321,4.626113,2.812085,-2.32678,-1.100952,0.02661385,0,0,10.63539,12.11144,0.04460458,0.03130435,-0.04031196,-0.2906052,3.46015,0.1446411,0.02189845,-0.02261852,0.05465006,-0.974407,1.661018,-0.01418852,0.3356986,1.358054,0.8788847,281.2098,83.29523,278.9387
4,1.388891,0.03640852,-0.05504111,-0.09978905,4.628685,2.812028,-2.326953,-1.100825,0.01152687,0,0,10.75269,12.49267,0.05621149,0.004667237,-0.04792484,-0.2916119,3.457045,0.1465191,0.01543072,-0.02687692,0.04725585,-0.9742941,1.660364,-0.01390356,0.3359339,1.357737,0.8792816,281.1231,82.90959,279.3193
4,1.400002,0.04601811,-0.06248236,-0.1008065,4.630156,2.811842,-2.327863,-1.10125,-0.03886998,0,0,10.84066,12.90323,0.06497332,-0.009269916,-0.01500383,-0.2906089,3.454847,0.147516,0.00904703,-0.02791376,0.04731749,-0.9737971,1.660064,-0.01374404,0.3363478,1.357245,0.8797278,280.959,81.98766,280.2687
4,1.411114,0.04702303,-0.03466421,-0.08937153,4.63007,2.810984,-2.328512,-1.101313,-0.00537531,0,0,10.91887,13.24536,0.059782,-0.0007727966,-2.772734E-05,-0.2899586,3.455703,0.1462328,0.001616197,-0.02362278,0.04844569,-0.9732155,1.659969,-0.01342207,0.3368934,1.356644,0.8801908,280.8368,80.95512,281.3687
4,1.422225,0.03840858,-0.00162439,-0.08542702,4.629758,2.809457,-2.32883,-1.102104,-0.07224885,0,0,10.98729,13.29423,0.03239898,0.04929365,0.02694912,-0.2881498,3.464639,0.1384071,-0.005743057,-0.006547912,0.05274491,-0.9724863,1.660614,-0.01336268,0.3375181,1.356036,0.8806585,280.8302,79.87046,282.5775
4,1.433336,0.02983005,0.0164679,-0.08452278,4.629739,2.808175,-2.328939,-1.101898,0.01953111,0,0,11.07527,13.09873,0.0005515218,0.09302461,0.03050221,-0.2872358,3.474358,0.1304025,-0.004546087,0.01263534,0.0590896,-0.9715621,1.661768,-0.01399731,0.3381525,1.355507,0.8811793,280.9106,79.09148,283.5313
4,1.444447,0.01269861,0.02684925,-0.106948,4.6305,2.806163,-2.328707,-1.101498,0.0363483,0,0,11.17302,12.66862,-0.004760392,0.08663712,0.03478928,-0.286701,3.476413,0.1287332,-0.00045601,0.005136528,0.04415162,-0.9716426,1.66145,-0.01398825,0.338746,1.355092,0.8816803,281.036,78.63592,284.1276
4,1.455558,-0.005378224,-4.163384E-05,-0.1268708,4.632739,2.805332,-2.328006,-1.10132,0.01597663,0,0,11.29032,12.02346,0.01857941,0.05997371,0.02920697,-0.2867138,3.474999,0.1289982,-0.006916115,0.007275021,0.03569273,-0.971502,1.661631,-0.0138037,0.3393079,1.354825,0.8821473,281.122,78.35809,284.5027
4,1.466669,-0.0180968,-0.02249664,-0.1308735,4.634691,2.804942,-2.327374,-1.100994,0.02973054,0,0,11.4174,11.24145,0.05345022,0.04613833,-0.004127247,-0.2879692,3.475636,0.1263723,-0.006761198,0.01262393,0.05059447,-0.9703462,1.662016,-0.01385669,0.3398509,1.35471,0.8825763,281.1089,78.2813,284.6365
4,1.47778,-0.02764028,-0.03098487,-0.1243711,4.635942,2.804638,-2.32669,-1.100712,0.02565749,0,0,11.56403,10.52786,0.06910541,0.02595834,-0.04052314,-0.2898137,3.475385,0.1252708,-0.005678948,-0.000149647,0.05806617,-0.9693848,1.661407,-0.01340342,0.340434,1.354715,0.8829516,280.9983,78.28552,284.6527
4,1.488891,-0.03291032,-0.02644852,-0.09670276,4.635719,2.804706,-2.326173,-1.100933,-0.02032313,0,0,11.68133,9.941349,0.03929565,0.008955978,-0.03393491,-0.2900475,3.473632,0.1275947,0.004003279,-0.02146114,0.075057,-0.9679328,1.660043,-0.01321807,0.3410553,1.354857,0.8833517,280.8394,78.25888,284.7502
4,1.500003,-0.03717452,-0.01352604,-0.08190273,4.635621,2.804142,-2.325673,-1.101051,-0.01052909,0,0,11.76931,9.491692,0.02244011,0.01000369,-0.01142403,-0.2891703,3.474115,0.127408,0.009305499,-0.01509903,0.06967094,-0.9673443,1.660233,-0.01365829,0.3416416,1.355102,0.8837663,280.7057,78.53504,284.5828
4,1.511114,-0.02970041,0.009223446,-0.04699515,4.634363,2.804068,-2.325634,-1.10137,-0.02897312,0,0,11.81818,9.159335,0.02801014,-0.003936592,0.02258921,-0.2876555,3.471508,0.1293993,0.002684508,-0.01405589,0.04522909,-0.9677757,1.660066,-0.01333871,0.3421399,1.355444,0.8841875,280.6622,78.89577,284.3183
4,1.522225,-0.01271074,0.05867295,-0.009185338,4.631665,2.803236,-2.326317,-1.101459,-0.007799127,0,0,11.81818,8.934506,0.009160031,0.001335667,0.0621724,-0.2855585,3.47133,0.1300547,0.00458025,-0.02688514,0.02499311,-0.9682018,1.659093,-0.01295734,0.3425375,1.355899,0.8847188,280.6948,79.32788,283.9561
4,1.533336,-0.008553624,0.1143806,0.02007078,4.628254,2.801878,-2.326505,-1.102015,-0.05080453,0,0,11.79863,8.924732,-0.02580528,-0.001850769,0.0869451,-0.283657,3.46993,0.1330414,0.008713106,-0.02586152,0.01110238,-0.9686167,1.658787,-0.01302978,0.3428448,1.356465,0.8853577,280.7248,79.63658,283.6761
4,1.544447,-0.02160595,0.2297918,0.05942772,4.621812,2.798769,-2.326134,-1.102734,-0.06531443,0,0,11.76931,9.159335,-0.05995399,-0.04120156,0.0892522,-0.2829885,3.462516,0.1421808,0.003399003,-0.002429544,0.002590404,-0.9688601,1.659716,-0.01349584,0.3430194,1.357089,0.8860165,280.7868,80.28982,283.0443
4,1.555558,-0.04088685,0.269242,0.06867246,4.618033,2.796672,-2.325162,-1.102216,0.04783387,0,0,11.74976,9.628544,-0.07177503,-0.06033935,0.08184062,-0.2825902,3.457269,0.148464,-0.007120689,0.01786114,0.009047969,-0.9684409,1.660803,-0.01361195,0.3430816,1.357676,0.886648,280.9007,81.34078,281.9851
4,1.566669,-0.07405597,0.3127992,0.06725208,4.613771,2.793641,-2.323348,-1.100284,0.1761551,0,0,11.73021,10.30303,-0.05219618,-0.07830048,0.002807669,-0.2856001,3.453463,0.152021,-0.007921521,0.05091693,0.02390861,-0.9676335,1.663017,-0.01474832,0.3431884,1.358211,0.8874735,281.14,82.5623,280.7366
4,1.577781,-0.09533802,0.3009712,0.06315947,4.611437,2.792087,-2.321675,-1.101976,-0.1560255,0,0,11.75953,11.1046,-0.03436931,-0.07398629,-0.03461321,-0.2873088,3.452166,0.1529533,-0.007831035,0.05945228,0.02921309,-0.9672622,1.664117,-0.01542476,0.3435568,1.358784,0.8886499,281.5762,83.67754,279.6645
4,1.588892,-0.09411436,0.2422574,0.05096535,4.610907,2.79179,-2.320678,-1.100198,0.1640512,0,0,11.78886,11.84751,-0.008206084,-0.04511735,-0.1008028,-0.2907234,3.455809,0.1485642,-0.01093809,0.047772,0.04311408,-0.9663014,1.664265,-0.0152663,0.3437949,1.359159,0.8892503,281.5807,84.10204,279.2717
4,1.600003,-0.08334789,0.1984893,0.03859586,4.610458,2.791356,-2.320315,-1.100413,-0.02100377,0,0,11.78886,12.47312,-0.006046414,-0.00356083,-0.107112,-0.2918015,3.461391,0.1433122,-0.0194849,0.03181983,0.04643392,-0.9655163,1.663791,-0.01454752,0.3442088,1.359501,0.8897789,281.6502,84.30125,279.0434
4,1.611114,-0.04170778,0.1623068,0.02926778,4.610052,2.791002,-2.321356,-1.101432,-0.09276497,0,0,11.74976,12.9521,-0.011994,0.02403076,-0.05799259,-0.2905376,3.4649,0.1403012,-0.01323101,0.02857917,0.03359928,-0.9655504,1.664108,-0.01474885,0.3448234,1.359904,0.8902977,281.7429,84.56924,278.8481
4,1.622225,-0.01930697,0.1430876,0.01768259,4.609474,2.790132,-2.321948,-1.102242,-0.07321247,0,0,11.652,13.15738,-0.02743094,0.02389413,0.01031663,-0.2879308,3.463992,0.1419971,-0.01664159,0.0221626,0.01339929,-0.9661501,1.664175,-0.01451476,0.3454978,1.360361,0.8907769,281.7578,84.95575,278.6362
4,1.633336,-0.006522134,0.1215548,-0.008766102,4.609778,2.788935,-2.322407,-1.103682,-0.131135,0,0,11.4956,13.10851,-0.0542417,0.03114182,0.1202753,-0.2827697,3.463217,0.1442999,-0.01894842,0.0200049,-0.003619709,-0.9667871,1.664298,-0.01418986,0.3461447,1.360859,0.8912365,281.758,85.39748,278.3658
4,1.644447,0.001988992,0.1237081,-0.009873124,4.608707,2.787797,-2.322783,-1.10319,0.04595118,0,0,11.30987,12.76637,-0.04982081,0.01402916,0.1447016,-0.2803898,3.460171,0.1476105,-0.0232703,0.01255465,-0.007831759,-0.9670715,1.664126,-0.01378665,0.3467047,1.361296,0.8916973,281.7411,86.20712,277.6911
4,1.655559,-0.008697852,0.1473032,0.008031856,4.606221,2.786575,-2.322396,-1.102799,0.0350953,0,0,11.11437,12.13099,-0.06085848,-0.01567888,0.1031719,-0.2812335,3.455753,0.1528378,-0.02863509,-0.001271365,-0.00775547,-0.967144,1.663511,-0.01304816,0.3471656,1.361557,0.8921946,281.7289,87.02054,276.9678
4,1.66667,-0.01514681,0.1783466,0.02478033,4.603389,2.785104,-2.322151,-1.102579,0.01986254,0,0,10.92864,11.29032,-0.08713832,-0.04739289,0.02127436,-0.2840996,3.451361,0.1589912,-0.009304992,0.005074984,0.005897728,-0.9665986,1.663866,-0.01382713,0.3475534,1.361609,0.8927347,281.7109,87.30657,276.7133
4,1.677781,-0.0333381,0.2286879,0.0573464,4.599008,2.78351,-2.321303,-1.101734,0.07705,0,0,10.80156,10.42033,-0.09600616,-0.0440764,-0.02338647,-0.2857092,3.451079,0.1605327,0.009109813,0.01358505,0.03447141,-0.9650992,1.664526,-0.01504366,0.3479208,1.361484,0.8933288,281.8012,87.25301,276.7742
4,1.688892,-0.05263451,0.2767013,0.07076021,4.594652,2.781172,-2.320301,-1.101758,-0.002800952,0,0,10.72336,9.794722,-0.08660494,-0.04403897,-0.04689838,-0.2871463,3.450296,0.1619439,0.01138564,0.01786521,0.04829933,-0.9638875,1.664991,-0.01548575,0.3483077,1.361294,0.8940505,282.0276,86.96326,277.1217
4,1.700003,-0.05585137,0.2928102,0.08445433,4.591033,2.779626,-2.31973,-1.101197,0.05140502,0,0,10.67449,9.481916,-0.05677599,-0.07181793,-0.03974865,-0.287508,3.44381,0.1677248,0.005966146,0.02318975,0.03661977,-0.9640872,1.66554,-0.0155731,0.3487005,1.361139,0.8948742,282.2877,86.69424,277.488
4,1.711114,-0.05474463,0.2843454,0.08986369,4.588157,2.778585,-2.319304,-1.100974,0.01997943,0,0,10.67449,9.47214,-0.03523014,-0.109238,-0.0005915537,-0.2865385,3.433605,0.1770464,-0.001816266,0.02847604,0.0004622866,-0.9655882,1.666098,-0.01555659,0.3491448,1.361138,0.8958628,282.5898,86.56219,277.6972
4,1.722225,-0.0473173,0.300456,0.1003344,4.584346,2.776998,-2.319159,-1.101571,-0.05470191,0,0,10.69404,9.755621,-0.04787772,-0.08261175,0.01022532,-0.2860491,3.433608,0.178142,-0.006211132,0.03911489,-0.01761771,-0.9662726,1.667189,-0.01595819,0.3496797,1.361384,0.8969364,282.8633,86.43718,277.8687
4,1.733337,-0.02299783,0.389367,0.1409243,4.576794,2.774133,-2.320201,-1.101906,-0.03001971,0,0,10.70381,10.37146,-0.06798667,-0.08048101,0.02636906,-0.2854568,3.430417,0.182679,-0.01907723,0.02531004,-0.01959647,-0.9665037,1.666921,-0.01498481,0.350242,1.361896,0.8979238,283.0504,86.59455,277.7907
4,1.744448,-0.02967107,0.4832003,0.1506488,4.568955,2.769622,-2.320242,-1.10216,-0.02305269,0,0,10.74291,11.56403,-0.1091292,-0.05707423,0.0715008,-0.2830035,3.4291,0.1865654,-0.02430373,0.02959783,-0.01102876,-0.9661741,1.667297,-0.01480771,0.3507554,1.36262,0.898754,283.1774,87.25134,277.2444
4,1.755559,-0.03305507,0.5407144,0.1500774,4.562002,2.765285,-2.320323,-1.103151,-0.09046818,0,0,10.83089,13.41154,-0.1293234,-0.064512,0.07909979,-0.2820852,3.424798,0.1928174,-0.03991321,0.0499526,0.01997978,-0.9648089,1.668926,-0.01475684,0.3512073,1.363493,0.8993879,283.3939,88.25585,276.32
4,1.76667,-0.01947439,0.6400164,0.1682142,4.552655,2.759851,-2.321505,-1.10194,0.1114609,0,0,10.94819,15.75758,-0.1722327,-0.0941923,0.04954174,-0.2830477,3.417343,0.2034581,-0.05598556,0.05212266,0.009475711,-0.9650342,1.66974,-0.01404152,0.3517134,1.364437,0.8999242,283.7827,89.71442,274.9264
4,1.777781,-0.01004773,0.6998314,0.1814376,4.543998,2.755132,-2.322546,-1.101792,0.01239047,0,0,11.12415,18.3089,-0.1862481,-0.1228963,0.03466881,-0.2836842,3.40915,0.2136955,-0.06245742,0.05425169,0.001005321,-0.965463,1.670334,-0.01338691,0.3524213,1.365375,0.9005184,284.1897,91.09117,273.6501
4,1.788892,-0.02412289,0.8111094,0.2336168,4.53145,2.749375,-2.322826,-1.10268,-0.08122768,0,0,11.31965,20.86999,-0.1907554,-0.1889007,0.01963257,-0.2850003,3.393723,0.2307797,-0.06474881,0.05742162,-0.01708976,-0.9663227,1.671243,-0.01308118,0.3533996,1.366271,0.9011983,284.5541,92.20784,272.6747
4,1.800003,-0.02006197,0.8891383,0.2573207,4.519645,2.743369,-2.323744,-1.102656,0.002930443,0,0,11.55425,23.34311,-0.2012582,-0.1995872,0.04206241,-0.2842701,3.383838,0.2429503,-0.08293296,0.08407972,-0.03507387,-0.9672596,1.67333,-0.01271739,0.3546682,1.367049,0.9019165,285.03,93.40996,271.7101
4,1.811115,-0.01199007,1.03413,0.2643474,4.505697,2.734092,-2.325805,-1.101603,0.09613237,0,0,11.79863,25.7478,-0.2200407,-0.1762182,0.08594597,-0.2819515,3.377803,0.2519337,-0.09669948,0.1171472,-0.03926563,-0.967886,1.676363,-0.01286733,0.3561575,1.367693,0.902715,285.6271,94.3752,271.1036
4,1.822226,-0.03573322,1.158009,0.3015081,4.490163,2.725577,-2.326444,-1.102014,-0.0383034,0,0,12.07234,27.99609,-0.2242216,-0.1357227,0.08607364,-0.2810333,3.377592,0.2547162,-0.114707,0.1619493,-0.04556957,-0.9686189,1.680568,-0.01329743,0.3577997,1.368284,0.9035386,286.4148,95.01649,270.8731
4,1.833337,-0.05296016,1.235964,0.3252568,4.475975,2.717733,-2.327105,-1.102483,-0.04260581,0,0,12.29717,29.82405,-0.2265322,-0.08450018,0.051061,-0.2814999,3.381368,0.2535928,-0.1102786,0.2641608,-0.06710787,-0.9701917,1.688307,-0.0165361,0.3595915,1.368855,0.9044008,287.1631,95.7175,270.5551
4,1.844448,-0.06493652,1.357912,0.378387,4.457791,2.708605,-2.328184,-1.101127,0.1242365,0,0,12.45357,31.08504,-0.2045751,-0.07375717,-0.004481681,-0.2835899,3.381722,0.2546163,-0.04063031,0.5354365,-0.1300716,-0.9741849,1.706563,-0.02867505,0.3616725,1.369367,0.9053099,287.9539,96.66216,269.9492
4,1.855559,-0.05234289,1.449987,0.4189785,4.439793,2.699545,-2.330555,-1.101098,0.001777009,0,0,12.51222,31.75953,-0.1507833,-0.1355209,-0.05726214,-0.2872395,3.370605,0.2649422,0.0258407,0.8216259,-0.1972994,-0.9795091,1.729685,-0.04425641,0.3639747,1.369823,0.9060369,288.8821,97.48277,269.5611
4,1.86667,-0.0262773,1.661475,0.4647144,4.416299,2.686044,-2.335009,-1.101198,-0.008956603,0,0,12.48289,31.95503,-0.07957193,-0.2006305,-0.06224376,-0.2892092,3.356015,0.2773299,-0.02142245,0.9251895,-0.1672322,-0.9811096,1.746932,-0.05214656,0.3663375,1.37031,0.9064742,289.8398,98.15146,269.4633
4,1.877781,-0.02127433,1.748749,0.4542531,4.397161,2.673462,-2.338724,-1.102424,-0.1118645,0,0,12.38514,31.91594,-0.07599849,-0.2263376,-0.009061202,-0.2883213,3.342947,0.2906888,-0.2448332,0.6780486,-0.03889555,-0.9761412,1.744095,-0.03967071,0.3687087,1.370963,0.9066631,290.9722,98.85294,269.407
4,1.888893,-0.05035305,1.790566,0.3846565,4.380432,2.659111,-2.34161,-1.10318,-0.06828212,0,0,12.22874,31.63246,-0.2141706,-0.1042212,0.2703762,-0.2753613,3.340728,0.3001263,-0.3559217,0.6560489,-0.06123003,-0.9779341,1.751972,-0.03637319,0.3710271,1.37183,0.9066452,292.1931,99.7275,269.1974
4,1.900004,-0.08128071,1.751518,0.3254845,4.36665,2.647293,-2.34357,-1.102165,0.09270219,0,0,12.05279,31.31965,-0.3409924,-0.03317982,0.5144471,-0.2609136,3.33235,0.3164962,-0.2889392,0.7130427,-0.2100668,-0.9860327,1.763891,-0.04226303,0.3733423,1.372842,0.9064457,293.5196,100.9892,268.63
4,1.911115,-0.1279516,1.643174,0.2670378,4.355954,2.637385,-2.343716,-1.099827,0.211996,0,0,11.88661,31.00685,-0.5000631,-0.1599316,0.636854,-0.2521055,3.29348,0.3652099,-0.1622682,0.669548,-0.4263916,-0.9982668,1.770135,-0.04807325,0.3757151,1.373823,0.9062828,294.5571,102.4638,267.8339
4,1.922226,-0.1529739,1.463864,0.2433713,4.347496,2.631965,-2.343402,-1.098511,0.117462,0,0,11.74976,30.76247,-0.4769717,-0.2171274,0.4735402,-0.2545162,3.277184,0.3853091,-0.119781,0.6840478,-0.556806,-1.009192,1.778899,-0.0527194,0.3782232,1.37463,0.9061776,295.3161,103.7139,267.1532
4,1.933337,-0.1544259,1.250718,0.2348532,4.341042,2.62867,-2.34305,-1.096201,0.2095997,0,0,11.68133,30.76247,-0.3130726,-0.2764492,0.199371,-0.2636583,3.270706,0.3889504,-0.167192,0.7501193,-0.6374397,-1.019355,1.790992,-0.05530613,0.3808864,1.375158,0.9061415,295.9164,104.7983,266.596
4,1.944448,-0.1248928,0.9905711,0.2054464,4.33879,2.628234,-2.342875,-1.095769,0.03654104,0,0,11.652,30.97752,-0.09242091,-0.2507097,-0.05906296,-0.2730427,3.276415,0.3767481,-0.268911,0.7721138,-0.4766994,-1.01939,1.802065,-0.05464567,0.3834144,1.375352,0.9059227,296.4402,105.6084,266.3779
4,1.955559,-0.09565449,0.8112458,0.1613758,4.336198,2.625881,-2.34376,-1.094862,0.08144501,0,0,11.64223,31.39785,0.003776312,-0.2186951,-0.1609554,-0.2779957,3.27903,0.3709874,-0.315512,0.6916484,-0.304585,-1.016522,1.807825,-0.05256974,0.3854983,1.375261,0.9055188,296.9156,106.2254,266.403
4,1.966671,-0.045899,0.4971384,0.05682191,4.342301,2.627812,-2.344335,-1.093981,0.07815973,0,0,11.652,32.01369,0.06477508,-0.2814699,-0.2457417,-0.2850679,3.26803,0.3787737,-0.2722174,0.484245,-0.04041015,-1.007244,1.805452,-0.05006157,0.3868964,1.374976,0.9051474,297.2859,106.626,266.6212
4,1.977782,-0.03708014,0.3418659,-0.02473148,4.344813,2.626109,-2.344725,-1.091916,0.186089,0,0,11.652,32.74683,0.02037552,-0.2591114,-0.2069774,-0.2863766,3.260841,0.3875762,-0.1804988,0.2839863,0.1614972,-0.9986833,1.801014,-0.04897979,0.3874066,1.374516,0.9049637,297.4294,106.8148,266.8374
4,1.988893,-0.02072504,0.1416209,-0.1314165,4.352504,2.626236,-2.344982,-1.090203,0.1526749,0,0,11.6129,33.42131,-0.001534611,-0.1326786,-0.04457176,-0.2802801,3.264184,0.3852665,-0.09032218,0.1517935,0.2844645,-0.9916658,1.798604,-0.04964798,0.3871584,1.373856,0.905211,297.3972,106.7637,267.0042
4,2.000004,-0.01087621,0.04664304,-0.1507216,4.355446,2.626337,-2.34515,-1.085475,0.4284958,0,0,11.58358,34.03715,-0.003171004,0.002216835,0.1198262,-0.2724925,3.269569,0.3801135,-0.08503255,0.1400483,0.2854965,-0.9887422,1.800151,-0.0495593,0.3861719,1.372874,0.9059228,296.9828,106.3821,267.1754
4,2.011115,-0.005184129,-0.04469183,-0.1242452,4.358591,2.62895,-2.344405,-1.082464,0.2690013,0,0,11.58358,34.59433,0.001318231,0.05084294,0.2711832,-0.2645744,3.264503,0.3848279,-0.05947968,0.1035464,0.1862449,-0.9905047,1.800107,-0.04971323,0.38491,1.371556,0.9072386,296.5658,105.5583,267.5566
4,2.022226,0.006730884,-0.06547461,-0.07612642,4.358447,2.630601,-2.344438,-1.078276,0.3779712,0,0,11.6129,35.08309,0.004564196,0.05934906,0.2754391,-0.2610313,3.263437,0.3856265,-0.04816309,0.08852074,0.1499433,-0.9903135,1.800579,-0.04988926,0.3835657,1.369832,0.9089535,296.0325,104.3016,268.2252
4,2.033337,0.02064615,-0.007982893,0.02127024,4.354073,2.632159,-2.34468,-1.074456,0.3432373,0,0,11.73021,35.5132,-0.02734528,0.02635118,0.2894693,-0.2583266,3.254228,0.3960208,-0.06124578,0.09148132,0.005167035,-0.9963748,1.801341,-0.04914464,0.3822109,1.367828,0.9104614,296.0698,102.6574,269.3282
4,2.044448,0.01094684,0.08325062,0.09069586,4.348013,2.63138,-2.344784,-1.070835,0.3253993,0,0,11.90616,35.90421,-0.04550048,-0.08093959,0.1753672,-0.2619475,3.240163,0.4108517,-0.06478577,0.1169584,-0.04065724,-0.9984558,1.803912,-0.04971696,0.3808532,1.365775,0.9118088,296.2215,101.0723,270.6876
4,2.055559,-0.001936674,0.129208,0.1094415,4.344255,2.630426,-2.344577,-1.066689,0.3732451,0,0,12.07234,36.11926,-0.01861077,-0.1372402,0.08659913,-0.2652018,3.231601,0.4182321,-0.0671559,0.07114828,-0.04906921,-0.9991243,1.802887,-0.04847299,0.3794868,1.363853,0.9129461,296.499,99.7614,271.8881
4,2.06667,-0.007378489,0.1783655,0.1249394,4.340224,2.628815,-2.344855,-1.061146,0.5002556,0,0,12.21896,36.13881,0.04214558,-0.2063325,-0.02697291,-0.2713442,3.221736,0.4250045,-0.0424868,-0.01620748,0.00306686,-0.9969122,1.798628,-0.04642103,0.3782519,1.362217,0.9141009,296.9918,98.86872,272.6801
4,2.077781,0.005410582,0.1848877,0.1333648,4.337464,2.62853,-2.345613,-1.055914,0.4707461,0,0,12.31672,35.98241,0.09846184,-0.2383835,-0.03708124,-0.2732094,3.210084,0.4332739,-0.01848457,-0.05344311,0.07640985,-0.9934198,1.796591,-0.04595631,0.3772992,1.360905,0.9152998,297.4819,98.21269,273.1797
4,2.088892,0.008293808,0.2667384,0.1144196,4.332871,2.624609,-2.347313,-1.051255,0.4186521,0,0,12.31672,35.67937,0.1081841,-0.2746877,-0.01167424,-0.2742545,3.19436,0.4469466,-0.01251741,-0.04801222,0.1413286,-0.9893824,1.796428,-0.04596137,0.3766521,1.359901,0.9164507,297.7856,97.68991,273.5907
4,2.100003,-0.02171031,0.2950871,0.08225505,4.329847,2.621269,-2.347214,-1.047202,0.3636049,0,0,12.19941,35.17107,0.05549246,-0.2545061,0.05590805,-0.2724366,3.18232,0.4598334,-0.02372027,-0.01381302,0.1818479,-0.9860663,1.797975,-0.04608946,0.3762659,1.359164,0.9174041,298.0247,97.33383,273.9131
4,2.111114,-0.02174446,0.2927546,0.06203349,4.327754,2.618997,-2.348036,-1.04168,0.498188,0,0,11.98436,34.4477,-0.05039586,-0.1148606,0.1039575,-0.2679609,3.191123,0.4559201,-0.05171104,0.02454789,0.1372992,-0.9864157,1.799826,-0.04539065,0.3759319,1.358545,0.9179356,298.2172,97.27005,274.0005
4,2.122225,-0.02392101,0.3195402,0.07774862,4.323621,2.616712,-2.34857,-1.034722,0.6281468,0,0,11.66178,33.52884,-0.1238542,-0.04332148,0.09299198,-0.266567,3.197327,0.4539161,-0.05610316,0.04156945,0.1170671,-0.9859661,1.801187,-0.04531502,0.3757685,1.357849,0.9181293,298.4385,97.43094,273.8393
4,2.133336,-0.03045639,0.3803931,0.09206365,4.317858,2.612977,-2.34964,-1.030514,0.3757933,0,0,11.27077,32.46334,-0.1324644,0.01320846,0.06869093,-0.2660498,3.203836,0.449148,-0.05380826,0.07459554,0.1212429,-0.9844567,1.80358,-0.04624313,0.3759751,1.35698,0.9183022,298.6326,97.56095,273.7852
4,2.144447,-0.02764517,0.535326,0.1363001,4.307367,2.606412,-2.351971,-1.024935,0.5034074,0,0,10.87977,31.38808,-0.03879891,0.06101985,0.04675423,-0.2649808,3.214233,0.4362897,-0.05803204,0.1097474,0.1116281,-0.9836619,1.806628,-0.04712996,0.3764131,1.355848,0.9185577,298.8249,97.80015,273.838
4,2.155558,-0.01595443,0.5611374,0.1562545,4.300812,2.602968,-2.353722,-1.01934,0.5034114,0,0,10.54741,30.16618,0.01532543,-0.04349212,0.04608081,-0.2664056,3.197426,0.4504854,-0.04867411,0.08731212,0.09559157,-0.9833312,1.806713,-0.04702557,0.3768462,1.354416,0.9188932,299.2215,97.92894,274.0895
4,2.166669,-0.004328191,0.560809,0.1200062,4.296373,2.598218,-2.35601,-1.013863,0.4925801,0,0,10.28348,28.7781,0.04126968,-0.2312527,0.1381116,-0.2663443,3.157705,0.4873739,-0.03521744,0.04992493,0.06890081,-0.983532,1.805632,-0.04654833,0.3773032,1.352766,0.9194055,299.8425,97.66191,274.6106
4,2.17778,-0.02022395,0.4996151,0.07910839,4.294894,2.595287,-2.356252,-1.008802,0.4546857,0,0,10.08798,27.25318,0.04763222,-0.3879432,0.1707143,-0.2682464,3.119339,0.5237823,-0.05672913,0.06166191,0.04245375,-0.98394,1.806856,-0.04590544,0.3777778,1.350981,0.9199178,300.654,97.24226,275.2549
4,2.188891,-0.07132941,0.4294233,0.00217668,4.29561,2.591486,-2.355038,-1.003096,0.5140387,0,0,9.980451,25.65982,0.03355479,-0.3526736,0.1336234,-0.2694682,3.110646,0.5322969,-0.08132134,0.06173408,0.03310063,-0.9839624,1.807683,-0.04454776,0.3780145,1.349116,0.9202476,301.2137,96.78746,275.9744
4,2.200002,-0.08405828,0.4004395,-0.0156124,4.293563,2.588267,-2.355054,-0.9959738,0.642781,0,0,9.951125,23.99804,-0.004446,-0.2500643,0.01911128,-0.2722986,3.123287,0.5215585,-0.0691638,0.073484,0.07450788,-0.9816439,1.809258,-0.04511741,0.3779434,1.347137,0.9202664,301.4758,96.35091,276.5766
4,2.211113,-0.07126117,0.412401,0.004476219,4.289377,2.585026,-2.356198,-0.9883294,0.6896427,0,0,9.941349,23.21603,-0.04989555,-0.08348499,-0.1090396,-0.2750427,3.150325,0.4976915,-0.05379169,0.09267131,0.114807,-0.9789993,1.811315,-0.04628654,0.3776425,1.345042,0.9201818,301.5551,95.96108,277.1109
4,2.222224,-0.07019994,0.418876,0.01186822,4.285524,2.581574,-2.356867,-0.9839933,0.38696,0,0,9.931575,23.53861,-0.03589528,-0.01001946,-0.1068398,-0.2745991,3.15909,0.4891463,-0.05593403,0.0894836,0.1148333,-0.9777663,1.812423,-0.04620957,0.3773461,1.342895,0.9202071,301.624,95.40047,277.7083
4,2.233335,-0.04670244,0.3911147,-0.001762018,4.283738,2.578574,-2.358494,-0.9795927,0.3954894,0,0,9.902249,24.93646,0.04658793,0.05470512,-0.06578708,-0.2725175,3.165907,0.4788537,-0.06986351,0.08206668,0.1096549,-0.9768432,1.813155,-0.04522846,0.3773081,1.3408,0.9205889,301.9264,94.88041,278.2458
4,2.244446,-0.02321973,0.3676365,-0.01330312,4.282003,2.575654,-2.360333,-0.9733151,0.5666421,0,0,9.804497,27.47801,0.1079682,0.04160138,0.01998661,-0.2694656,3.16027,0.4807344,-0.08826247,0.07567433,0.08213517,-0.9770643,1.813643,-0.04381406,0.3775207,1.338783,0.9213191,302.3932,94.51769,278.6914
4,2.255557,-0.02527192,0.3323083,-0.0289175,4.280883,2.573055,-2.361081,-0.9684644,0.4345466,0,0,9.687196,30.29325,0.1061929,-0.01072781,0.07740618,-0.2678123,3.14765,0.4919626,-0.07886612,0.06069337,0.06822453,-0.97675,1.813778,-0.04333309,0.3778317,1.336848,0.9221747,302.7921,94.1224,279.1791
4,2.266668,-0.09055345,0.1128722,-0.00522656,4.285284,2.579094,-2.355118,-0.9629548,0.4962556,0,0,9.569892,33.09873,0.07134393,-0.04774518,-0.009754678,-0.2714406,3.146598,0.4935637,-0.06730101,0.03294238,0.06284036,-0.9762323,1.813035,-0.04259513,0.3781339,1.334926,0.9229361,302.9817,93.73976,279.5856
4,2.277779,-0.04901267,0.08061261,-0.04868045,4.286458,2.577245,-2.357022,-0.956233,0.6064814,0,0,9.452591,35.91398,0.06106419,-0.05924669,-0.09386007,-0.2755749,3.150896,0.4890935,-0.05963737,0.03082192,0.08513958,-0.9744698,1.813411,-0.04241963,0.3783485,1.332901,0.9234546,303.1128,93.49449,279.8379
4,2.28889,0.04166303,-0.007069744,-0.1098157,4.291469,2.577165,-2.361029,-0.9474723,0.7922073,0,0,9.354838,38.40665,0.01785553,-0.05365715,-0.1702081,-0.2800777,3.157822,0.4838181,-0.06343852,0.04796164,0.1266917,-0.9714647,1.814975,-0.04244146,0.3783426,1.330731,0.923713,303.2191,93.31281,280.226
4,2.300001,0.05990951,-0.07879423,-0.1496205,4.296146,2.577479,-2.362257,-0.9463437,0.09298359,0,0,9.315739,39.68719,0.001235843,0.04004966,-0.1378989,-0.2783504,3.170886,0.4719494,-0.06448674,0.07457346,0.119193,-0.9705363,1.817123,-0.04274427,0.377838,1.328707,0.9239837,303.2102,92.64814,281.1668
4,2.311112,0.06318158,-0.1076125,-0.1557305,4.299048,2.57773,-2.362834,-0.9441641,0.1952673,0,0,9.462366,41.3783,0.06174897,0.1675896,-0.06030826,-0.2734976,3.188413,0.4521802,-0.04984512,0.07552842,0.09028703,-0.9706892,1.818141,-0.04329128,0.3771771,1.326792,0.9244758,303.122,91.95356,281.7298
4,2.322223,0.0535292,-0.09601501,-0.1654094,4.300838,2.576432,-2.363596,-0.9361107,0.7304661,0,0,9.804497,43.94917,0.104488,0.3102979,-0.0784152,-0.2714113,3.218843,0.4200828,-0.04266783,0.04244687,0.07430075,-0.9703931,1.817295,-0.04252616,0.3764504,1.324629,0.9251856,302.855,91.47993,281.9199
4,2.333334,0.0311496,-0.1025992,-0.1770046,4.303534,2.575644,-2.363415,-0.9294975,0.5943898,0,0,10.31281,47.61486,0.06960647,0.3646433,-0.05670302,-0.2690453,3.238943,0.4013293,-0.03314402,0.01365789,0.07852659,-0.9692612,1.816257,-0.041887,0.3757854,1.322084,0.926182,302.7339,90.76377,282.3464
4,2.344445,0.005498528,-0.05017142,-0.1465787,4.303267,2.574194,-2.363174,-0.9234623,0.5432304,0,0,10.94819,53.08895,0.05450797,0.3082406,-0.06630524,-0.2693292,3.24581,0.3948741,-0.006403334,-0.03858451,0.1103262,-0.9668324,1.813454,-0.04118286,0.375209,1.319257,0.9272463,302.8606,89.71297,283.1365
4,2.355556,0.0161025,0.02196684,-0.07595271,4.300082,2.573189,-2.364335,-0.9171991,0.5644855,0,0,11.56403,58.88564,0.05671849,0.215481,-0.03458352,-0.2690639,3.241621,0.3980227,0.007716432,-0.05242806,0.1443029,-0.9641671,1.812311,-0.04093705,0.3747945,1.316299,0.9281583,303.1248,88.47922,284.1818
4,2.366668,-0.009517394,0.0669903,-0.04012016,4.29788,2.571986,-2.363831,-0.9113289,0.5282086,0,0,12.14076,64.55524,0.03973035,0.01830456,0.01941338,-0.2697873,3.214844,0.4239593,0.03651963,-0.05784829,0.15043,-0.9622294,1.8114,-0.04182361,0.3745685,1.31344,0.9288308,303.4402,87.24289,285.4107
4,2.377779,-0.04466802,0.08846019,-0.01360994,4.296183,2.571167,-2.362459,-0.9072218,0.3672243,0,0,12.66862,70.09776,-0.0007955953,-0.1713296,0.05870342,-0.2714944,3.184214,0.4549715,0.056004,-0.07404937,0.07889493,-0.963921,1.809495,-0.04184145,0.3745259,1.310938,0.9292938,303.9137,86.34188,286.4778
4,2.38889,-0.05088441,0.02008154,-0.03101462,4.298314,2.572096,-2.361258,-0.8997927,0.6721143,0,0,13.12806,75.00489,0.03405938,-0.2800274,0.04644983,-0.2744771,3.160741,0.4760307,0.04587349,-0.0666725,0.02037895,-0.9656249,1.808795,-0.04133013,0.374497,1.308884,0.9295592,304.4034,86.0384,287.0543
4,2.400001,-0.03354172,-0.1027644,-0.06923905,4.303709,2.574623,-2.360575,-0.8927976,0.6294327,0,0,13.40176,77.80059,0.05412458,-0.2608205,0.01969801,-0.2760132,3.157452,0.4777538,0.0446858,-0.05285468,0.002252907,-0.9662566,1.808653,-0.04168832,0.3744593,1.307258,0.9298708,304.7305,85.91618,287.3747
4,2.411112,-0.02912253,-0.1711439,-0.09092556,4.307519,2.576421,-2.35957,-0.887328,0.4905211,0,0,13.54839,78.39687,0.0295486,-0.1392404,-0.01817035,-0.2761437,3.169324,0.4668444,0.04998975,-0.02946847,-0.009567662,-0.9668036,1.809058,-0.04275279,0.3744301,1.305987,0.9303392,304.826,85.79522,287.5369
4,2.422223,-0.02801543,-0.2108984,-0.1246184,4.312146,2.577355,-2.358949,-0.8819074,0.4867924,0,0,13.56794,76.8524,0.01157334,-0.02306979,-0.02840121,-0.2748079,3.183841,0.4535598,0.05025894,0.002520941,0.006348399,-0.9662274,1.810533,-0.04416506,0.3742471,1.304883,0.9308512,304.5829,85.65204,287.6318
4,2.433334,-0.01738882,-0.248718,-0.1807288,4.317907,2.5773,-2.35916,-0.8742012,0.6952042,0,0,13.50929,73.77322,0.009793326,0.1452402,-0.02372594,-0.2714027,3.211444,0.4269521,0.03785561,0.02392345,0.03838659,-0.9647093,1.811582,-0.04470702,0.3737888,1.303648,0.9313815,304.1533,85.47475,287.6589
4,2.444445,-0.02167687,-0.2607075,-0.2061654,4.322494,2.577425,-2.358748,-0.8665958,0.6837689,0,0,13.49951,70.59629,-0.0006262511,0.2517799,-0.01912189,-0.2687534,3.232955,0.406461,0.02962618,0.003788038,0.07685644,-0.9625186,1.810929,-0.04439117,0.3731439,1.30201,0.9320049,303.7832,85.08829,287.7331
4,2.455556,-0.03124607,-0.2703863,-0.2124345,4.326382,2.578006,-2.357879,-0.8584721,0.7312529,0,0,13.51906,67.49756,-0.02608092,0.2304646,0.0002123863,-0.2675785,3.236021,0.4047246,0.03289242,-0.02921064,0.09713,-0.9607146,1.809137,-0.04380687,0.3725464,1.299695,0.9326796,303.4445,84.22636,288.1321
4,2.466667,-0.04186174,-0.2886158,-0.2207462,4.331041,2.578809,-2.35673,-0.8493817,0.8186961,0,0,13.54839,64.98534,-0.04932907,0.1558394,0.04176711,-0.2661563,3.229732,0.4121732,0.04767587,-0.06549421,0.09811518,-0.9596632,1.806523,-0.04327796,0.3719095,1.296796,0.9331094,303.7153,83.41849,288.7925
4,2.477778,-0.06297955,-0.3451068,-0.2169199,4.33658,2.581562,-2.354194,-0.8397629,0.8658124,0,0,13.57771,63.0303,-0.05854693,0.1045926,0.1003077,-0.2636343,3.223527,0.41901,0.05612984,-0.08151098,0.09699127,-0.9587753,1.804831,-0.04323376,0.3713373,1.29337,0.9335849,304.0004,82.29276,289.922
4,2.488889,-0.1031962,-0.4175674,-0.2054316,4.34294,2.585503,-2.35025,-0.8297579,0.9005236,0,0,13.61681,61.66178,-0.04342242,0.08211731,0.1320943,-0.2612614,3.219631,0.4227307,0.0603264,-0.07408804,0.08734874,-0.9580775,1.804134,-0.04366758,0.3708429,1.289556,0.9341568,304.2539,80.95937,291.2785
4,2.5,-0.134935,-0.4772104,-0.1940954,4.349251,2.589594,-2.346205,-0.8187649,0.9901285,0,0,13.61681,61.07527,-0.03034553,0.1363633,0.1555545,-0.2577263,3.228579,0.4138574,0.06880219,-0.04964693,0.07336894,-0.9578245,1.804605,-0.04491688,0.3704316,1.285498,0.9349023,304.4967,79.5846,292.6901
4,2.511111,-0.1857675,-0.5506057,-0.166587,4.355891,2.595373,-2.340267,-0.8069607,1.063258,0,0,13.56794,60.59629,-0.02093257,0.1513202,0.1299475,-0.256194,3.235931,0.406605,0.07859756,-0.009188611,0.07958955,-0.9567944,1.80641,-0.04719654,0.3700162,1.281365,0.9358635,304.7206,78.17085,294.1459
4,2.522222,-0.2336477,-0.5440573,-0.1356361,4.360432,2.599392,-2.334521,-0.7956833,1.014333,0,0,13.48974,60.02932,-0.07552391,0.1610904,0.09525193,-0.2557013,3.243597,0.4019911,0.09575626,0.003541376,0.08685569,-0.9555699,1.80688,-0.04904531,0.3694815,1.277369,0.9369829,304.9354,76.67043,295.6278
4,2.533333,-0.3040741,-0.4703009,-0.08826031,4.36191,2.601729,-2.327933,-0.7828234,1.159156,0,0,13.36266,59.36462,-0.1189964,0.1771052,0.1180038,-0.2526594,3.24995,0.3988124,0.1117455,0.01200566,0.08455198,-0.9548189,1.807442,-0.05117717,0.3687265,1.273673,0.9381564,305.1172,75.23677,296.9872
4,2.544444,-0.3723886,-0.4074112,-0.06208168,4.363452,2.60367,-2.320719,-0.7703204,1.124969,0,0,13.22581,58.1134,-0.1266862,0.1825124,0.08612282,-0.2518536,3.257643,0.3928123,0.1031481,0.02479544,0.07182515,-0.9545147,1.808372,-0.05256601,0.3677776,1.270397,0.9395952,305.3076,73.88028,298.2208
4,2.555555,-0.4768329,-0.3615392,-0.02285297,4.364495,2.606377,-2.31082,-0.7566376,1.233108,0,0,13.08895,56.11926,-0.1493232,0.1804978,0.05327558,-0.2517172,3.265501,0.3876047,0.09554458,0.04714692,0.04841988,-0.9548529,1.809882,-0.0541117,0.3667907,1.267634,0.9414926,305.6088,72.70565,299.1628
4,2.566666,-0.5587826,-0.3442335,0.02938336,4.365371,2.610416,-2.300188,-0.7432669,1.203456,0,0,12.913,53.74389,-0.1690885,0.1689888,-0.0190324,-0.2536171,3.274922,0.380998,0.08167533,0.07487015,0.03571462,-0.9550405,1.812154,-0.05584382,0.3659444,1.265463,0.9438982,306.0158,71.75075,299.7839
4,2.577777,-0.6375352,-0.356017,0.0478176,4.367961,2.614441,-2.289128,-0.7281498,1.36341,0,0,12.70772,51.09482,-0.2198692,0.1788725,-0.111287,-0.2568869,3.288791,0.371686,0.05715346,0.09198719,0.02739333,-0.9550532,1.814074,-0.05673625,0.3653304,1.263914,0.9466784,306.3201,70.945,300.2142
4,2.588888,-0.6842668,-0.3987666,0.04943302,4.372079,2.619092,-2.278271,-0.7148723,1.19371,0,0,12.46334,48.41642,-0.2520063,0.2003041,-0.1386799,-0.2581823,3.303278,0.3616288,0.03496849,0.1261706,0.03393099,-0.9545968,1.817273,-0.05819247,0.3650936,1.26305,0.9499611,306.5685,70.21432,300.6249
4,2.599999,-0.7564753,-0.478988,0.04084048,4.378422,2.624907,-2.265489,-0.7016385,1.191387,0,0,12.19941,46.29521,-0.2873653,0.26864,-0.1797802,-0.2593147,3.327197,0.3429086,0.02986491,0.1496576,0.04778312,-0.953711,1.820432,-0.06031208,0.3651603,1.262952,0.9535859,306.6579,69.6065,300.9385
4,2.61111,-0.8307962,-0.5721093,0.0217275,4.386235,2.631118,-2.251513,-0.6891094,1.126785,0,0,11.94526,44.41838,-0.3051698,0.4082162,-0.1739799,-0.2579064,3.365152,0.3102447,0.02875882,0.1445508,0.156467,-0.9483559,1.822576,-0.06193208,0.3654657,1.263552,0.9572756,306.4866,69.07927,301.0895
4,2.622221,-0.8997613,-0.6704662,0.009049058,4.394917,2.638013,-2.236892,-0.6747262,1.296955,0,0,11.70088,42.67839,-0.2830215,0.5219582,-0.09504785,-0.2534381,3.399757,0.2790415,0.04636162,0.1595017,0.2095364,-0.9443793,1.825598,-0.06478858,0.3659611,1.264629,0.960867,306.0595,68.69563,301.0854
4,2.633332,-0.9506257,-0.7568864,0.01112664,4.403469,2.64541,-2.22235,-0.6606786,1.264709,0,0,11.46628,41.04595,-0.2048937,0.5024964,-0.04350834,-0.2509944,3.41525,0.2636902,0.06826102,0.1733832,0.2657624,-0.9397907,1.829043,-0.06844591,0.3667751,1.265942,0.9646111,305.534,68.19981,301.1878
4,2.644443,-0.9696147,-0.8037379,0.02016458,4.411622,2.65255,-2.208933,-0.6474384,1.191455,0,0,11.25122,39.43304,-0.1675537,0.4512472,-0.02475032,-0.2498066,3.427073,0.2527359,0.0780694,0.1861624,0.2848188,-0.9362566,1.832368,-0.07150002,0.3680006,1.267357,0.9685912,304.9841,67.51766,301.4641
4,2.655554,-0.9971073,-0.8624068,0.02296686,4.420651,2.66007,-2.194824,-0.6350888,1.110759,0,0,11.08504,37.53666,-0.1726664,0.447973,0.002980798,-0.2478157,3.444191,0.2383851,0.08374651,0.2117629,0.3113477,-0.9322363,1.836823,-0.0752588,0.3695476,1.26884,0.9725603,304.4434,66.7946,301.8538
4,2.666665,-1.037385,-0.9318634,0.0152477,4.431231,2.667765,-2.179675,-0.6236846,1.025001,0,0,10.95797,35.57185,-0.2519661,0.4226795,-0.04971741,-0.2492239,3.461784,0.2269479,0.09864571,0.2021228,0.31335,-0.928803,1.839541,-0.07847297,0.3712212,1.270381,0.9763106,303.9343,66.1993,302.2876
4,2.677776,-1.075545,-1.0133,-0.01791799,4.443454,2.674752,-2.16467,-0.610878,1.154087,0,0,10.86022,33.59727,-0.361297,0.3452886,-0.1150824,-0.2523574,3.470167,0.2267591,0.11117,0.1977652,0.2876682,-0.9267662,1.842175,-0.08168714,0.3728514,1.271894,0.9798484,303.4207,65.73859,302.7028
4,2.688887,-1.11272,-1.077722,-0.05552518,4.456428,2.681298,-2.149321,-0.5976757,1.189193,0,0,10.79179,31.73021,-0.3898957,0.3477463,-0.2288413,-0.2576507,3.491156,0.2117519,0.1077342,0.1902752,0.265344,-0.9247773,1.844738,-0.08433086,0.3743728,1.273292,0.9833722,302.8983,65.11213,303.2646
4,2.699998,-1.119086,-1.089507,-0.05964959,4.467236,2.687508,-2.135287,-0.5855966,1.086497,0,0,10.72336,30.2346,-0.3369267,0.4767223,-0.2982056,-0.2614303,3.533439,0.1724447,0.1032425,0.1934342,0.2398144,-0.923082,1.84773,-0.08701799,0.3758384,1.274529,0.9871221,302.3257,64.15819,304.0366
4,2.711109,-1.130678,-1.090118,-0.0105868,4.476499,2.695675,-2.120179,-0.5735368,1.085984,0,0,10.66471,29.07136,-0.1601611,0.7063291,-0.2276856,-0.2593738,3.596613,0.1067403,0.1276803,0.1986565,0.231047,-0.9210511,1.85099,-0.09124655,0.3773813,1.275563,0.9912002,301.7005,62.94461,304.9187
4,2.72222,-1.125267,-1.08763,0.02345514,4.485705,2.703264,-2.106306,-0.5633571,0.9140725,0,0,10.61584,28.21115,0.06006637,0.5646858,0.03550065,-0.2494961,3.59862,0.09615849,0.1870853,0.2166937,0.3082189,-0.9151591,1.855565,-0.09847011,0.3790341,1.276493,0.9952983,301.1848,61.58833,305.8951
4,2.733331,-1.114728,-1.057787,0.01993465,4.494809,2.708683,-2.09317,-0.5518181,1.040038,0,0,10.57674,27.64418,0.09733588,0.3333351,0.08792491,-0.2475477,3.578792,0.1133116,0.1792094,0.2211143,0.3743365,-0.9088474,1.859663,-0.1027021,0.380693,1.277487,0.9991115,300.8669,60.44227,306.8477
4,2.744442,-1.112682,-1.034402,0.01437396,4.503983,2.714005,-2.079919,-0.5420119,0.8804754,0,0,10.55719,27.27273,-0.01617232,0.2854393,0.1600868,-0.2431221,3.582502,0.1138712,0.1371987,0.2213865,0.4375925,-0.9019919,1.863653,-0.1048167,0.3821502,1.278783,1.002688,300.704,59.42573,307.9222
4,2.755553,-1.115966,-0.9938183,0.02673958,4.511987,2.719268,-2.066563,-0.5318913,0.9112678,0,0,10.54741,26.90127,-0.2126124,0.2280632,0.2552375,-0.237098,3.584625,0.1214817,0.1504824,0.2438145,0.4821584,-0.8957905,1.869016,-0.1102344,0.3832461,1.280488,1.006103,300.4088,58.48302,308.9048
4,2.766664,-1.124593,-0.9489446,0.0422888,4.51917,2.724333,-2.052881,-0.5215939,0.9272665,0,0,10.55719,26.39296,-0.3143932,0.08026639,0.2173399,-0.2366059,3.565552,0.1471804,0.1675473,0.2352324,0.4873358,-0.8905675,1.872594,-0.1149916,0.3840934,1.282529,1.009475,299.9523,57.597,309.5723
4,2.777775,-1.117287,-0.8847762,0.06505461,4.525055,2.72911,-2.039892,-0.5115656,0.9025622,0,0,10.57674,25.72825,-0.3133854,-0.01669404,0.2330676,-0.2344679,3.550386,0.164786,0.1711169,0.1967532,0.4298495,-0.888275,1.873737,-0.1177186,0.3849105,1.284773,1.013043,299.4224,56.80547,309.9983
4,2.788886,-1.101489,-0.8325708,0.06022587,4.531266,2.732819,-2.027643,-0.5017118,0.8872042,0,0,10.61584,24.91691,-0.2831877,-0.1213175,0.3039571,-0.2294441,3.523086,0.1933087,0.1491791,0.1626401,0.3768572,-0.8862281,1.874694,-0.119161,0.3858075,1.287138,1.01691,298.9237,56.16955,310.2892
4,2.799997,-1.083526,-0.8201429,0.01955925,4.540011,2.735543,-2.015672,-0.4932047,0.764488,0,0,10.65494,23.98827,-0.3067235,-0.1521401,0.2987393,-0.2268694,3.51082,0.2095032,0.1128722,0.1616944,0.3697529,-0.8823884,1.877681,-0.1208252,0.3867838,1.289622,1.020967,298.498,55.62445,310.5554
4,2.811108,-1.059158,-0.8130369,-0.02318859,4.548885,2.737728,-2.004334,-0.4851012,0.728946,0,0,10.70381,22.9521,-0.3978516,-0.08283722,0.3443642,-0.2214397,3.513267,0.2151384,0.07918645,0.2193846,0.3902036,-0.8778865,1.884344,-0.124711,0.3877894,1.292223,1.025052,298.0756,55.19276,310.76
4,2.822219,-1.044233,-0.8291746,-0.04333058,4.558535,2.740847,-1.992682,-0.4768699,0.7410635,0,0,10.74291,21.86706,-0.3938732,0.02991045,0.4170378,-0.2135024,3.525805,0.2072472,0.06906693,0.2450938,0.4381931,-0.871578,1.890471,-0.128954,0.3888502,1.294843,1.028987,297.5402,54.70696,310.9565
4,2.83333,-1.004825,-0.8657698,-0.09313297,4.569952,2.742669,-1.982675,-0.4693139,0.6793829,0,0,10.79179,20.75269,-0.3648622,0.1534275,0.4192352,-0.2078294,3.54943,0.187123,0.05835422,0.2815332,0.5298449,-0.8627065,1.898076,-0.1341101,0.3901767,1.297324,1.032802,296.892,53.95338,311.3326
4,2.844441,-0.9619495,-0.9811527,-0.137898,4.585297,2.746087,-1.97294,-0.46148,0.7055881,0,0,10.83089,19.65787,-0.2279559,0.3448693,0.4431088,-0.2004135,3.598716,0.1366441,0.05243871,0.2933661,0.5746213,-0.8551421,1.904395,-0.138743,0.3919637,1.299554,1.036556,296.2772,53.13553,311.8469
4,2.855552,-0.9523048,-1.019756,-0.1641706,4.598118,2.748622,-1.962133,-0.4554916,0.5367789,0,0,10.87977,18.6999,-0.1940256,0.3192821,0.4299917,-0.1958782,3.607346,0.1294469,0.05020502,0.2933525,0.5639967,-0.849721,1.909756,-0.1427279,0.3942036,1.301545,1.040188,295.7493,52.16829,312.6863
4,2.866663,-0.8830912,-1.041232,-0.2035477,4.61105,2.749995,-1.954603,-0.4388005,1.516987,0,0,10.88954,17.91789,-0.2146716,0.246961,0.3958926,-0.1925891,3.605731,0.1340835,0.05303614,0.3017818,0.5224051,-0.8460687,1.91546,-0.1471852,0.3971326,1.303161,1.044221,295.03,50.46025,314.3137
4,2.877774,-0.7670923,-1.052109,-0.2623236,4.624096,2.75009,-1.950171,-0.4508481,-1.119017,0,0,10.86022,17.30205,-0.2715366,0.2003005,0.3568208,-0.1898599,3.607169,0.1379728,0.04084675,0.2932206,0.4767358,-0.8432117,1.920031,-0.1501967,0.4008242,1.304889,1.048686,294.556,47.32248,317.4799
4,2.888885,-0.7065485,-1.036426,-0.3116419,4.636297,2.749218,-1.944614,-0.4388591,1.102357,0,0,10.79179,16.84262,-0.3109411,0.1833165,0.3624189,-0.185454,3.611569,0.1385491,0.0300559,0.2495798,0.477992,-0.8379871,1.922516,-0.1518902,0.4038148,1.306664,1.050371,293.7482,48.01158,317.3235
4,2.899997,-0.6972076,-0.9942335,-0.3557978,4.647391,2.747517,-1.93695,-0.4340953,0.4200831,0,0,10.68426,16.52004,-0.3179388,0.2173033,0.411556,-0.1784621,3.627654,0.1263902,0.05742797,0.3294744,0.5244502,-0.8314745,1.93289,-0.1604973,0.4066716,1.307743,1.051782,293.0508,48.28512,317.5614
4,2.911108,-0.6845348,-0.9730479,-0.3720238,4.658547,2.746635,-1.929843,-0.4267284,0.6664084,0,0,10.54741,16.26588,-0.2809929,0.3271476,0.3412184,-0.1764232,3.671542,0.08488186,0.05799173,0.3593949,0.573399,-0.8242084,1.941585,-0.1669901,0.4095267,1.307859,1.05357,292.3622,47.22232,318.9422
4,2.922219,-0.6835313,-0.9452758,-0.3638081,4.668993,2.746602,-1.92217,-0.4183666,0.7548789,0,0,10.39101,16.11926,-0.2288432,0.3728977,0.3238689,-0.1730852,3.704103,0.05347787,0.0435003,0.3361175,0.6268491,-0.8159174,1.947557,-0.1710447,0.4125558,1.307028,1.055913,292.1266,45.5506,320.7458
4,2.93333,-0.6750923,-0.9228652,-0.3619051,4.679265,2.746271,-1.914794,-0.4132443,0.4586461,0,0,10.22483,16.09971,-0.2436146,0.3209753,0.219463,-0.1739332,3.713106,0.04788017,0.04461599,0.3073774,0.6439489,-0.8086326,1.952401,-0.174841,0.4158243,1.305644,1.058722,292.3885,43.59252,322.8473
4,2.944441,-0.6613435,-0.8898437,-0.366556,4.688991,2.745163,-1.908081,-0.4077353,0.4968045,0,0,10.05865,16.16813,-0.301572,0.2796435,0.1750798,-0.1735007,3.722228,0.04422259,0.03715997,0.2861134,0.652584,-0.801742,1.957084,-0.178178,0.4191935,1.304128,1.061664,292.7324,41.67384,325.0431
4,2.955552,-0.6369369,-0.8577915,-0.3648373,4.698552,2.744063,-1.901828,-0.4032122,0.4062303,0,0,9.921799,16.30499,-0.3120152,0.3190489,0.1933651,-0.1702985,3.752002,0.01889486,0.03616822,0.3191494,0.6504034,-0.7954873,1.965627,-0.1842298,0.4223883,1.302873,1.064479,293.0328,40.02568,327.1084
4,2.966663,-0.5679916,-0.7454249,-0.3373751,4.703587,2.742814,-1.897994,-0.3993735,0.3448103,0,0,9.804497,16.41251,-0.2437323,0.4148197,0.1834639,-0.1686894,3.800309,-0.02839063,0.05082951,0.3424643,0.6150637,-0.7910483,1.973707,-0.1909487,0.4253648,1.302109,1.067289,293.1646,38.56425,328.8969
4,2.977774,-0.5329788,-0.6941113,-0.3305427,4.710553,2.741459,-1.893262,-0.3955487,0.3439989,0,0,9.716519,16.48094,-0.1714682,0.439267,0.1563226,-0.1681387,3.836257,-0.06458698,0.05817747,0.3243189,0.6107746,-0.7851068,1.979575,-0.1960111,0.4281609,1.301923,1.070107,293.0892,37.2928,330.3298
4,2.988885,-0.4830445,-0.6502286,-0.3268467,-1.566205,2.739933,-1.889702,-0.3938341,0.1512303,0,0,9.648094,16.50049,-0.08433759,0.4647503,0.1216032,-0.1686921,3.87275,-0.102998,0.05633439,0.303091,0.6502563,-0.7770305,1.985351,-0.2006825,0.4308463,1.302281,1.072968,292.8316,36.34253,331.3512
4,2.999996,-0.4532939,-0.6331156,-0.3281372,-1.55858,2.738621,-1.885374,-0.3891725,0.4224382,0,0,9.608994,16.46139,-0.03164268,0.5010703,0.04137734,-0.1717057,3.911501,-0.142318,0.04581549,0.311672,0.660989,-0.770159,1.992735,-0.206064,0.4333966,1.302944,1.075799,292.3437,36.12073,331.6654
4,3.011107,-0.4299297,-0.6322114,-0.3516327,-1.550395,2.736369,-1.881222,-0.3863954,0.2477294,0,0,9.560118,16.32454,-0.03097889,0.4212649,0.009225547,-0.1730202,3.92455,-0.154634,0.03711731,0.3020866,0.6461753,-0.7642777,1.999055,-0.2107173,0.4358077,1.303647,1.07862,291.798,35.76201,332.1191
4,3.022218,-0.4032435,-0.6513925,-0.3600425,-1.541362,2.734688,-1.877602,-0.3821365,0.3850843,0,0,9.521016,16.08016,-0.02341148,0.3380774,0.0430595,-0.1715619,3.931616,-0.1615929,0.02949167,0.2818549,0.6356291,-0.7584358,2.004448,-0.2147312,0.4380895,1.304153,1.081298,291.2369,35.14073,332.783
4,3.033329,-0.3647848,-0.6832037,-0.3566107,-1.531802,2.733843,-1.874704,-0.3788458,0.2954013,0,0,9.491692,15.72825,-0.02352859,0.2699057,0.04501669,-0.1711875,3.937091,-0.166651,0.01567854,0.3053302,0.6303884,-0.7528133,2.012583,-0.2202799,0.4403007,1.304312,1.083798,290.8034,34.16721,333.7607
4,3.04444,-0.3253775,-0.6593592,-0.3292506,-1.524872,2.733237,-1.872483,-0.3764405,0.2158348,0,0,9.462366,15.30792,-0.04519378,0.2711196,-0.0006185472,-0.173302,3.95266,-0.1807093,-0.005419314,0.3299519,0.6465253,-0.7462124,2.021937,-0.2260315,0.4425983,1.304062,1.086108,290.514,32.89473,334.9931
4,3.055551,-0.3030161,-0.646348,-0.3134663,-1.517598,2.732387,-1.869679,-0.3745976,0.1651821,0,0,9.442816,14.89736,-0.08152774,0.2765586,-0.01416752,-0.1748493,3.972765,-0.1980185,0.008324996,0.2958114,0.6496642,-0.7394885,2.027143,-0.2304977,0.4451044,1.303397,1.08835,290.3434,31.46556,336.4777
4,3.066662,-0.2539193,-0.6555267,-0.2889941,-1.509755,2.732414,-1.868567,-0.3730141,0.1420311,0,0,9.442816,14.51613,-0.03808001,0.3117199,-0.05171392,-0.1774768,3.996964,-0.2229436,0.06371542,0.2956144,0.6480722,-0.7333547,2.034228,-0.2383393,0.4477262,1.302341,1.090463,290.2638,30.17035,337.9984
4,3.077773,-0.2156085,-0.6350446,-0.2765089,-1.502728,2.731758,-1.86724,-0.3704526,0.2317834,0,0,9.47214,14.174,-0.01328438,0.2905953,-0.14359,-0.1830135,4.005012,-0.231617,0.06901833,0.2881362,0.6491038,-0.7271032,2.041101,-0.2443469,0.4502958,1.300982,1.092419,290.3263,29.33514,339.1922
4,3.088884,-0.131616,-0.5641814,-0.2497344,-1.498517,2.731156,-1.86867,-0.3702044,0.0196891,0,0,9.511242,13.85142,-0.002122983,0.2968162,-0.08081151,-0.1826438,4.024266,-0.2508272,0.05173521,0.2636652,0.6333346,-0.7213774,2.046447,-0.2483342,0.4526798,1.29946,1.094276,290.5027,28.44239,340.4648
4,3.099995,-0.04243344,-0.4463297,-0.2127926,-1.497176,2.730416,-1.870941,-0.3685602,0.1492436,0,0,9.569892,13.56794,-0.011408,0.3233904,-0.04871506,-0.1831978,4.049033,-0.2747573,0.05919089,0.2689669,0.6332542,-0.7153704,2.053655,-0.2544017,0.4547093,1.29784,1.095931,290.6072,27.37669,341.8547
4,3.111106,0.001113772,-0.3992074,-0.2027231,-1.493985,2.729446,-1.872439,-0.3697288,-0.1090471,0,0,9.648094,13.33333,-0.04420877,0.3479006,-0.02602404,-0.1839041,4.074774,-0.2983015,0.08223645,0.2751894,0.589345,-0.7114193,2.060493,-0.2613166,0.4563656,1.296199,1.097484,290.7628,26.51181,342.9469
4,3.122217,0.0009405613,-0.3394289,-0.1894653,-1.491473,2.728479,-1.871968,-0.3693256,0.03689378,0,0,9.716519,13.09873,0.009619087,0.4276046,0.02810089,-0.1841661,4.120276,-0.344711,0.09115031,0.2697029,0.5200238,-0.7089574,2.066146,-0.2669518,0.457545,1.294549,1.098711,290.8703,26.20361,343.3958
4,3.133328,0.02471942,-0.4103311,-0.149395,-1.484178,2.730501,-1.873085,-0.3671594,0.1967004,0,0,9.765396,12.84457,0.05111441,0.372144,0.03613733,-0.1850157,4.134371,-0.3605933,0.1013487,0.2525388,0.4784124,-0.7058298,2.071094,-0.2721892,0.4582826,1.292798,1.099726,290.9529,26.21842,343.4421
4,3.144439,0.04736453,-0.4253548,-0.06194171,-1.479747,2.734076,-1.874655,-0.363849,0.3001526,0,0,9.804497,12.58065,0.009614088,0.1668115,-0.04499397,-0.1861337,4.104237,-0.3298506,0.09854966,0.1981183,0.4284742,-0.7028828,2.073073,-0.2747221,0.4588203,1.290865,1.10082,291.0793,25.79445,343.7625
4,3.15555,0.05166221,-0.4252097,-0.04812538,-1.474933,2.735163,-1.87545,-0.3640051,-0.01728137,0,0,9.814272,12.27762,-0.07517529,0.05740694,-0.09569798,-0.1878327,4.086911,-0.3085315,0.0947986,0.1618366,0.384903,-0.7001008,2.075311,-0.2771861,0.4593225,1.28887,1.102087,291.3256,25.01579,344.4076
4,3.166661,0.09112334,-0.4216576,-0.02588792,-1.470738,2.737108,-1.87801,-0.3636355,0.03363677,0,0,9.804497,11.97458,-0.1600191,0.0002120659,-0.1686721,-0.1914238,4.069626,-0.2866813,0.0837252,0.142627,0.347758,-0.6979666,2.077849,-0.2797195,0.4596738,1.286841,1.103343,291.4579,23.72855,345.6452
4,3.177772,0.1113838,-0.4301097,-0.0247897,-1.465652,2.738251,-1.879898,-0.3623502,0.1165511,0,0,9.765396,11.68133,-0.1468448,-0.06676207,-0.2381957,-0.195565,4.050016,-0.2664487,0.08064524,0.1309561,0.3648578,-0.6936209,2.081664,-0.2834043,0.4597197,1.284791,1.104482,291.5693,22.86199,346.5145
4,3.188883,0.139133,-0.4406057,-0.01836179,-1.460565,2.739929,-1.882646,-0.3632791,-0.08621664,0,0,9.706745,11.39785,-0.09680681,-0.07426435,-0.236444,-0.1974558,4.046224,-0.2630931,0.06951772,0.1694439,0.4128271,-0.6884878,2.089279,-0.2896795,0.4595909,1.282738,1.105672,291.7312,22.1241,347.1473
4,3.199994,0.177299,-0.3677893,0.006371841,-1.459201,2.741253,-1.885896,-0.3622069,0.0984083,0,0,9.63832,11.1437,-0.09333228,-0.08394878,-0.1992085,-0.1979847,4.038745,-0.254869,0.06005161,0.191858,0.4171335,-0.6845559,2.096351,-0.2955025,0.4592976,1.280646,1.10662,291.8067,21.31413,347.7306
4,3.211105,0.2250416,-0.2895913,0.03316066,-1.459015,2.742662,-1.890059,-0.3623103,-0.01074882,0,0,9.579668,10.93842,-0.1251416,-0.009331018,-0.1977048,-0.2006782,4.047387,-0.2606444,0.04449968,0.1705136,0.3587276,-0.6831536,2.099244,-0.297661,0.4590738,1.278462,1.107517,291.9216,20.38648,348.3974
4,3.222216,0.2719448,-0.2839165,0.05216174,-1.456611,2.744753,-1.894897,-0.3623369,-0.002658227,0,0,9.540568,10.80156,-0.07860211,0.2003411,-0.1538822,-0.2035039,4.093153,-0.3062148,0.0463458,0.2055731,0.314961,-0.6821058,2.105433,-0.303056,0.4589711,1.27616,1.108328,292.0557,19.68467,348.9598
4,3.233327,0.2944269,-0.2996074,0.07462528,-1.452948,2.747465,-1.899151,-0.3626895,-0.03260247,0,0,9.501467,10.72336,-0.01773795,0.2790777,-0.1466911,-0.2063747,4.120399,-0.3341412,0.0300773,0.2172784,0.2799338,-0.6810023,2.110787,-0.3070263,0.4588622,1.273774,1.108918,292.2604,19.71509,348.9759
4,3.244438,0.3275339,-0.3056426,0.09910593,-1.450106,2.750588,-1.904377,-0.3627524,-0.00588151,0,0,9.47214,10.68426,-0.03289221,0.235477,-0.1669183,-0.2092195,4.121781,-0.3347101,0.002530456,0.1575697,0.2057378,-0.6811621,2.110279,-0.3056992,0.4586309,1.271286,1.10927,292.496,19.86404,348.9248
4,3.255549,0.3637423,-0.2882999,0.1169552,-1.448215,2.753271,-1.909901,-0.3662496,-0.320217,0,0,9.452591,10.65494,-0.09922764,0.1994771,-0.1920153,-0.2121229,4.122551,-0.3316237,-0.006757241,0.1010221,0.1462802,-0.6811215,2.108848,-0.3041927,0.4583265,1.268879,1.109424,292.5447,19.32564,349.581
4,3.26666,0.3796833,-0.2646508,0.1326575,-1.446897,2.755937,-1.915063,-0.3572268,0.8272189,0,0,9.442816,10.63539,-0.1659437,0.1731568,-0.269317,-0.2179249,4.117961,-0.3227368,-0.008030644,0.07649878,0.133557,-0.6801388,2.109335,-0.3044491,0.4579122,1.26771,1.108967,291.9875,18.87239,350.098
4,3.277771,0.3700659,-0.2615329,0.1283837,-1.444594,2.75797,-1.918907,-0.3610389,-0.3561913,0,0,9.442816,10.56696,-0.1178312,0.1836684,-0.2505008,-0.2206962,4.125387,-0.330571,-0.01429865,0.07335575,0.1474779,-0.6780291,2.111856,-0.3061557,0.4577241,1.267335,1.108634,291.647,18.97159,350.0697
4,3.288882,0.3338452,-0.2638159,0.1253016,-1.44222,2.760149,-1.921487,-0.3609691,0.01003731,0,0,9.452591,10.44966,-0.06556471,0.1792883,-0.2413408,-0.2234419,4.129751,-0.3361722,-0.01157435,0.1160533,0.1942421,-0.6751337,2.118243,-0.3111121,0.4575225,1.266983,1.108346,291.2486,19.10117,350.0265
4,3.299993,0.3189754,-0.2626255,0.1434283,-1.440114,2.763232,-1.924894,-0.3593414,0.1481976,0,0,9.47214,10.28348,-0.05912744,0.1824522,-0.2371117,-0.2261908,4.135219,-0.3413714,-0.005907178,0.136337,0.2229132,-0.672331,2.123886,-0.315648,0.4572788,1.266486,1.108054,290.8182,18.94899,350.2349
4,3.311104,0.3042229,-0.2889918,0.1746235,-1.437309,2.767603,-1.928258,-0.3577094,0.1478652,0,0,9.501467,10.05865,-0.07806192,0.1973355,-0.2102904,-0.2282958,4.145085,-0.3493945,0.007579852,0.1266321,0.1887186,-0.6718788,2.125688,-0.3175415,0.4570646,1.265985,1.107813,290.4091,18.77764,350.4519
4,3.322215,0.304392,-0.3153344,0.2036549,-1.434269,2.772424,-1.932379,-0.3582154,-0.04743555,0,0,9.540568,9.804497,-0.1147749,0.1996611,-0.2675242,-0.2337968,4.14655,-0.3476136,0.01238186,0.1115985,0.1386323,-0.6723587,2.126547,-0.3185332,0.4568665,1.265551,1.107636,290.0425,18.65513,350.6362
4,3.333326,0.2969957,-0.3280658,0.2123145,-1.431225,2.776244,-1.935955,-0.3580641,0.0143473,0,0,9.560118,9.540568,-0.1275985,0.1783705,-0.2685505,-0.2373729,4.145231,-0.344519,0.007648744,0.1083294,0.09181334,-0.6732695,2.128074,-0.3193572,0.4565518,1.265147,1.107477,289.6312,18.45386,350.9657
4,3.344437,0.2990754,-0.3120695,0.2132141,-1.429329,2.779599,-1.939823,-0.3586895,-0.05737574,0,0,9.589444,9.257087,-0.08673686,0.1632571,-0.2177786,-0.2381947,4.149653,-0.3494384,0.01585411,0.09226447,0.06406938,-0.6738655,2.128592,-0.3201793,0.4560407,1.264766,1.10728,289.1628,17.70605,351.8671
4,3.355548,0.2979137,-0.2865305,0.2108216,-1.428059,2.782432,-1.943478,-0.3582889,0.03709008,0,0,9.618768,8.963832,-0.08912562,0.1292577,-0.2401862,-0.241448,4.147657,-0.3462437,0.03494883,0.06131087,0.06821249,-0.6727065,2.128519,-0.3210933,0.4553362,1.264383,1.107016,288.6069,16.47618,353.2864
4,3.366659,0.3062316,-0.2376615,0.1943301,-1.427935,2.784142,-1.947429,-0.3585275,-0.02218078,0,0,9.628544,8.719453,-0.1114339,0.0791816,-0.2209564,-0.2427775,4.14157,-0.3383293,0.05392043,0.02394228,0.06065144,-0.6719629,2.126978,-0.3211932,0.4546175,1.264036,1.106741,288.0469,15.11644,354.8323
4,3.37777,0.310358,-0.2090388,0.1791149,-1.427219,2.785965,-1.951266,-0.3583624,0.01521934,0,0,9.667644,8.563051,-0.1305733,0.06428482,-0.2069553,-0.2441251,4.14208,-0.3360624,0.05064401,0.01329952,0.05645625,-0.6713136,2.127207,-0.3217067,0.4540246,1.263693,1.106421,287.5905,14.01948,356.0868
4,3.388881,0.3037867,-0.1773915,0.1500494,-1.426777,2.786716,-1.954503,-0.3587326,-0.03400671,0,0,9.755621,8.504399,-0.1304025,0.03118908,-0.1782753,-0.2446588,4.137341,-0.3300075,0.03997346,0.002689075,0.05870765,-0.670478,2.126995,-0.3215604,0.4535862,1.263352,1.106102,287.1749,13.46573,356.7935
4,3.399992,0.2770109,-0.165075,0.1127117,-1.425364,2.787244,-1.956461,-0.3585712,0.01500583,0,0,9.882699,8.52395,-0.1155171,-0.0114338,-0.1710272,-0.2456537,4.130421,-0.3226318,0.03136155,-0.0004807841,0.05134856,-0.6700545,2.127314,-0.3216694,0.4532917,1.263024,1.105786,286.7901,13.31524,357.0685
4,3.411103,0.2470729,-0.1623472,0.07546976,-1.423645,2.787324,-1.958023,-0.3580428,0.04811825,0,0,10.04888,8.592375,-0.08456838,-0.07013131,-0.1511823,-0.2455232,4.116802,-0.3097035,0.02175016,0.01978088,0.04181924,-0.6701301,2.129039,-0.3228457,0.4530794,1.262689,1.105483,286.433,13.25851,357.2108
4,3.422215,0.2129643,-0.1765695,0.05012783,-1.421116,2.78793,-1.959201,-0.3567565,0.1171754,0,0,10.22483,8.680352,-0.05126024,-0.03830709,-0.1247414,-0.2462215,4.119316,-0.3130658,0.01006816,0.0411189,0.03762418,-0.6702707,2.131079,-0.3241232,0.452997,1.262419,1.105168,286.0958,13.2339,357.2343
4,3.433326,0.1757118,-0.2067385,0.02922295,-1.417827,2.788985,-1.959879,-0.3564087,0.03093879,0,0,10.39101,8.748778,-0.008110205,0.04248503,-0.07586262,-0.2463797,4.136313,-0.3309875,0.0046836,0.0272898,0.0377041,-0.669736,2.130919,-0.3237565,0.4530505,1.262253,1.104929,285.7487,13.59696,356.838
4,3.444437,0.1544463,-0.2336325,0.01037055,-1.414288,2.789793,-1.960924,-0.356119,0.02648801,0,0,10.53763,8.80743,0.06893439,0.09020192,-0.0444017,-0.2466721,4.147974,-0.3458346,0.00463802,0.01450627,0.03773019,-0.6692684,2.130679,-0.3236153,0.4532376,1.262168,1.104697,285.5548,13.82132,356.4767
4,3.455548,0.1246624,-0.271332,-0.02007877,-1.409627,2.790158,-1.961341,-0.3557546,0.03325861,0,0,10.66471,8.84653,0.08293185,0.1008022,-0.02850183,-0.24703,4.153574,-0.3525293,0.002417772,0.0144954,0.02816227,-0.6693658,2.130947,-0.3237858,0.4534326,1.262131,1.104458,285.36,14.06093,356.0943
4,3.466659,0.1044601,-0.305786,-0.04951172,-1.404664,2.790399,-1.96175,-0.356365,-0.05590219,0,0,10.73314,8.82698,0.07886085,0.1199364,-0.009244226,-0.2472074,4.162223,-0.3616554,-4.945509E-05,0.009108054,-0.00589496,-0.6705952,2.130161,-0.3230859,0.4537175,1.262041,1.104043,285.0284,15.5886,354.5058
4,3.47777,0.1065212,-0.2984604,-0.06345155,-1.401475,2.790375,-1.962979,-0.3561099,0.02402445,0,0,10.75269,8.787879,0.07254805,0.09861522,0.005676717,-0.2467403,4.164832,-0.3646198,-0.003503886,-0.01009064,-0.02499536,-0.6711986,2.128529,-0.3214776,0.4537812,1.262071,1.10391,284.889,14.39121,355.4674
4,3.488881,0.1180022,-0.2421094,-0.0789561,-1.400466,2.789356,-1.964407,-0.3563032,-0.01776724,0,0,10.73314,8.739002,0.03071606,0.06467319,-0.02177139,-0.2477022,4.160761,-0.3594594,-0.01123482,-0.04525046,-0.040833,-0.6716423,2.125151,-0.3183748,0.4538777,1.262117,1.103723,284.7175,13.4849,356.1472
4,3.499992,0.1327594,-0.2027609,-0.09110712,-1.399241,2.788318,-1.966301,-0.3573749,-0.09767979,0,0,10.68426,8.709679,0.0235211,0.07846528,0.01135672,-0.2469262,4.16895,-0.3670094,-0.01663542,-0.07505113,-0.03645688,-0.6711246,2.122196,-0.3155324,0.4540694,1.262184,1.103474,284.5092,13.26646,356.1596
4,3.511103,0.1475004,-0.1720612,-0.1159544,-1.397733,2.786588,-1.968096,-0.3579555,-0.05217565,0,0,10.65494,8.739002,0.08589519,0.1271978,0.07276761,-0.2451221,4.186892,-0.387805,-0.00816983,-0.09958064,-0.03329358,-0.6707784,2.119057,-0.313334,0.4542349,1.26221,1.103138,284.211,13.73744,355.5757
4,3.522214,0.1506898,-0.1829069,-0.1360909,-1.39459,2.785555,-1.969803,-0.3584865,-0.04816631,0,0,10.63539,8.82698,0.1325814,0.09944516,0.05525868,-0.245349,4.186292,-0.390694,0.001229115,-0.1252013,-0.04398457,-0.6708945,2.115085,-0.3105952,0.4543867,1.262208,1.102762,283.8696,14.40618,354.8167
4,3.533325,0.1464687,-0.212975,-0.1581516,-1.390358,2.784621,-1.97105,-0.3585174,-0.002522687,0,0,10.63539,8.954058,0.1206015,0.02813536,0.0434707,-0.2443354,4.177855,-0.3827615,0.005155396,-0.1284823,-0.07917537,-0.6725089,2.111773,-0.3081957,0.4545577,1.262175,1.10235,283.4896,15.00449,354.0929
4,3.544436,0.1368706,-0.2238407,-0.1761292,-1.386679,2.783351,-1.972021,-0.3582554,0.02388995,0,0,10.62561,9.120235,0.08747496,0.004778259,0.03622111,-0.2438454,4.174818,-0.3795572,-0.0004001819,-0.1178677,-0.1079093,-0.6742991,2.109237,-0.3060017,0.4546793,1.262153,1.101644,283.1262,15.80058,353.0632
4,3.555547,0.1357993,-0.2282044,-0.1846014,-1.383224,2.782368,-1.973366,-0.357728,0.04796772,0,0,10.62561,9.296188,0.08978709,0.02388357,0.05647898,-0.2430699,4.180535,-0.3860151,-0.001537509,-0.1104211,-0.1185598,-0.6754831,2.107234,-0.3043769,0.4550259,1.262164,1.100947,282.7068,16.78834,351.8965
4,3.566658,0.1261997,-0.2336799,-0.196241,-1.37962,2.78103,-1.974157,-0.3574841,0.02192827,0,0,10.61584,9.462366,0.1848632,0.09930646,0.07188344,-0.2433043,4.198177,-0.4086541,0.005699281,-0.1222044,-0.1377796,-0.6771066,2.103414,-0.3017164,0.4555385,1.262208,1.100271,282.3181,18.28833,350.2387
4,3.577769,0.1219555,-0.247651,-0.2067372,-1.375583,2.77993,-1.975133,-0.3578335,-0.03202838,0,0,10.59628,9.589444,0.2274701,0.07042716,0.07571281,-0.2423365,4.196683,-0.4114799,0.0184864,-0.1382094,-0.1314684,-0.6775071,2.099735,-0.2995737,0.4560148,1.262128,1.099079,282.6445,17.50063,350.6774
4,3.58888,0.1145705,-0.2948775,-0.2392704,-1.369297,2.77829,-1.97578,-0.3574367,0.03660712,0,0,10.57674,9.687196,0.2271021,-0.0499046,0.05729824,-0.2403716,4.177195,-0.3951721,0.02373222,-0.1552774,-0.1336136,-0.6782704,2.09533,-0.2966391,0.4565027,1.262154,1.097711,282.2171,19.20631,348.8104
4,3.599991,0.1125631,-0.3742931,-0.2970643,-1.360733,2.77603,-1.976608,-0.3575842,-0.01381002,0,0,10.53763,9.755621,0.1637713,-0.1189181,0.01716906,-0.2399998,4.160539,-0.3779143,-0.001108985,-0.1648383,-0.1663926,-0.6806043,2.090753,-0.2921219,0.4568248,1.262144,1.095638,282.8955,16.40555,351.0888
4,3.611102,0.1179656,-0.4192798,-0.3232589,-1.353355,2.774321,-1.977688,-0.3574489,0.01252809,0,0,10.49853,9.794722,0.1500925,-0.1061556,0.03542271,-0.2387428,4.159444,-0.3779659,-0.005433261,-0.165901,-0.1727424,-0.6821277,2.08692,-0.288925,0.4573389,1.262329,1.094492,282.2479,19.27074,348.0612
4,3.622213,0.1265267,-0.4504084,-0.3485361,-1.345768,2.772374,-1.97899,-0.3578042,-0.03254601,0,0,10.46921,9.843597,0.1972282,-0.05519179,0.05753298,-0.2378075,4.166374,-0.3885062,-0.003514085,-0.1915058,-0.1854836,-0.6835077,2.081108,-0.2843939,0.4577236,1.262526,1.093422,282.3163,18.41633,348.0569
4,3.633324,0.139227,-0.4269634,-0.3509415,-1.340642,2.770257,-1.980532,-0.359702,-0.1732005,0,0,10.43988,9.892473,0.2379366,-0.02654096,0.07858767,-0.2366139,4.17254,-0.398659,0.003829442,-0.2054009,-0.1919146,-0.6848942,2.075738,-0.2805121,0.4582013,1.262699,1.091705,282.6075,17.55456,348.0496
4,3.644435,0.1305786,-0.3875567,-0.3491842,-1.336498,2.767844,-1.981143,-0.3566894,0.2768623,0,0,10.42033,9.921799,0.2926737,0.04571325,0.1124199,-0.235538,4.189128,-0.4200556,0.01215945,-0.2288913,-0.2036637,-0.6865534,2.069382,-0.2760193,0.4586857,1.262646,1.088641,283.728,15.02524,349.6219
4,3.655546,0.1241224,-0.3759329,-0.3567411,-1.331365,2.765423,-1.981597,-0.3583587,-0.1551921,0,0,10.39101,9.951125,0.3206914,0.1233736,0.1390435,-0.2348216,4.210317,-0.4445823,0.01419299,-0.2406274,-0.2089871,-0.6881092,2.063722,-0.2717505,0.4592398,1.262706,1.086925,282.6605,18.84127,345.82
4,3.666657,0.1198829,-0.3931296,-0.3704073,-1.324937,2.763098,-1.982198,-0.3577589,0.05644491,0,0,10.36168,9.980451,0.330505,0.1808441,0.154025,-0.2346043,4.230122,-0.4678868,0.01721421,-0.2619659,-0.2196261,-0.6898716,2.056934,-0.2668123,0.4595521,1.262606,1.084505,283.748,17.70693,346.7311
4,3.677768,0.1241537,-0.4103192,-0.3862228,-1.318307,2.760745,-1.983062,-0.3575427,0.01913964,0,0,10.34213,10.01955,0.3551317,0.1796813,0.1676558,-0.2335033,4.240045,-0.4823222,0.02778656,-0.2801166,-0.2218197,-0.691354,2.050463,-0.2625877,0.4599054,1.262807,1.082936,282.8532,19.81946,344.3718
4,3.688879,0.1411424,-0.4050514,-0.3980364,-1.312526,2.757977,-1.98446,-0.3577078,-0.01517027,0,0,10.32258,10.04888,0.3634245,0.1253768,0.1514696,-0.2323001,4.24028,-0.4868671,0.03414142,-0.2875984,-0.2229293,-0.6928677,2.044238,-0.2584092,0.4603147,1.262813,1.080471,284.0933,17.57552,346.0013
4,3.69999,0.1474684,-0.3869669,-0.4024968,-1.307313,2.755136,-1.985661,-0.3580423,-0.03048888,0,0,10.30303,10.06843,0.3544953,0.02638495,0.1214349,-0.2308146,4.226297,-0.4770574,0.02624278,-0.2876662,-0.2697216,-0.6964214,2.037649,-0.2532251,0.4611433,1.262969,1.078647,283.3018,20.86115,342.2772
4,3.711101,0.1505874,-0.3710361,-0.4090585,-1.302207,2.75202,-1.986568,-0.3587161,-0.06128865,0,0,10.28348,10.0782,0.3382496,-0.03532374,0.1022291,-0.2292998,4.21744,-0.4716088,0.02065811,-0.288768,-0.2973673,-0.6997802,2.031131,-0.2482958,0.4618198,1.263031,1.075884,284.3784,19.83756,342.724
4,3.722212,0.1398887,-0.3658566,-0.4197366,-1.296529,2.748849,-1.986877,-0.3585648,0.01429972,0,0,10.25415,10.0782,0.3412876,-0.06297159,0.08936365,-0.228063,4.214345,-0.4724562,0.02237222,-0.3080383,-0.334634,-0.7036274,2.022758,-0.242211,0.46271,1.263133,1.073848,283.551,23.52787,338.6221
4,3.733323,0.133542,-0.3819023,-0.423816,-1.290085,2.746343,-1.98744,-0.358266,0.02710029,0,0,10.29326,10.08798,0.350789,-0.08534837,0.0807022,-0.2267628,4.209079,-0.4719785,0.02328142,-0.3101998,-0.3506131,-0.7069803,2.015989,-0.2373955,0.4633815,1.263097,1.07067,284.8236,22.20823,339.5024
4,3.744434,0.1389068,-0.3892878,-0.4184287,-1.284047,2.744015,-1.988537,-0.3576449,0.05654051,0,0,10.38123,10.10753,0.3570389,-0.07785404,0.06149467,-0.2264678,4.206285,-0.4734826,0.01258504,-0.3197515,-0.3515599,-0.7099854,2.00858,-0.2314804,0.4642876,1.263163,1.068526,283.9582,26.04822,335.2681
4,3.755545,0.1336411,-0.409555,-0.4192633,-1.277493,2.741951,-1.989215,-0.3576913,-0.004705222,0,0,10.53763,10.13685,0.3882135,0.01901528,0.07321433,-0.2271059,4.224646,-0.496818,0.02249817,-0.3186481,-0.3175677,-0.7113921,2.002815,-0.2277738,0.4649594,1.263204,1.065264,285.2877,24.08013,336.7202
4,3.766656,0.1252108,-0.4437562,-0.4274213,-1.269835,2.739735,-1.989643,-0.3582223,-0.04848295,0,0,10.75269,10.17595,0.4278907,0.08601293,0.09010891,-0.227345,4.241514,-0.5194719,0.03970772,-0.3250605,-0.2974732,-0.7129884,1.996159,-0.2238286,0.4657485,1.263318,1.062701,284.6955,26.0144,334.3845
