loc,t,aDotS,bDotS,gDotS,aS,bS,gS,qE,qDotE,tpad,enable,emgA,emgB,aDotSH,bDotSH,gDotSH,aSH,bSH,gSH,aDotUB,bDotUB,gDotUB,aUB,bUB,gUB,xHand,yHand,zHand,aHand,bHand,gHand
5,0,-0.2883687,-0.04178445,0.08176652,-1.15764,3.51626,-2.926972,-1.376407,0.1097973,0,0,12.16031,11.2219,-0.6925483,0.6708713,0.1803425,-0.4592153,3.536757,-0.1559552,-0.3277821,0.6186441,0.4869296,-0.9316882,1.655025,-0.05449547,0.2168214,1.190554,0.6901456,300.3026,303.6502,25.78552
5,0.01111111,-0.2646594,-0.05811383,0.1521623,-1.161317,3.518313,-2.925496,-1.378076,-0.1540643,0,0,12.10166,11.2219,-0.7503037,0.7178854,0.1414203,-0.4608728,3.557764,-0.1644609,-0.3252718,0.598492,0.5391497,-0.9243598,1.663092,-0.05574609,0.2156903,1.19185,0.6933652,299.5514,302.7305,26.65548
5,0.02222222,-0.2494484,-0.0667314,0.2533846,-1.166835,3.520419,-2.923445,-1.376762,0.1210259,0,0,12.02346,11.20235,-0.747962,0.810867,0.008488625,-0.4668052,3.582643,-0.1781649,-0.2991759,0.6112716,0.5932245,-0.9164448,1.672664,-0.05901245,0.2143007,1.19238,0.6963851,298.6862,301.7842,27.43669
5,0.03333334,-0.2663458,-0.04694799,0.3310296,-1.172812,3.521778,-2.920335,-1.375099,0.1504233,0,0,11.89638,11.15347,-0.6668837,0.936846,-0.1483842,-0.476227,3.611246,-0.1986055,-0.294758,0.6272616,0.6038078,-0.9099292,1.682866,-0.06207216,0.2127161,1.191842,0.6991003,298.076,301.3267,27.65475
5,0.04444445,-0.2704232,-0.04536922,0.3917486,-1.178737,3.523813,-2.91818,-1.373937,0.1047203,0,0,11.74976,11.05572,-0.5635,1.063883,-0.3150015,-0.4876253,3.639707,-0.2206943,-0.2947572,0.6517249,0.5931101,-0.9043094,1.693247,-0.06523733,0.2110524,1.190363,0.701433,297.9332,301.5979,27.04529
5,0.05555556,-0.2564519,-0.04818034,0.4290215,-1.184311,3.525917,-2.916681,-1.372826,0.1006642,0,0,11.6129,10.94819,-0.500342,1.12589,-0.4378018,-0.4992612,3.664683,-0.2392488,-0.274821,0.6579739,0.5556333,-0.9000472,1.70314,-0.06901955,0.2093446,1.188303,0.7033026,298.1012,302.5,25.84831
5,0.06666667,-0.207224,-0.06566302,0.4780418,-1.190715,3.529012,-2.91736,-1.373261,-0.04067111,0,0,11.4956,10.84066,-0.4682218,1.175182,-0.5753317,-0.5132284,3.688268,-0.2555681,-0.2710953,0.6737973,0.4884617,-0.8976264,1.713406,-0.07255542,0.2073978,1.185989,0.7050993,298.3893,303.6076,24.52178
5,0.07777778,-0.1269952,-0.1150129,0.5229866,-1.197185,3.533846,-2.920332,-1.373806,-0.0493898,0,0,11.40763,10.71359,-0.4747679,1.125153,-0.5892529,-0.5228563,3.705737,-0.265201,-0.2789987,0.6864962,0.4320497,-0.8951358,1.723941,-0.0756937,0.2051502,1.183761,0.7068678,298.6782,304.5581,23.325
5,0.08888889,-0.06076637,-0.1443917,0.5432951,-1.203213,3.538147,-2.923542,-1.375419,-0.1473843,0,0,11.31965,10.58651,-0.5091025,0.9341627,-0.4424576,-0.5237628,3.713796,-0.2654397,-0.2892559,0.6289144,0.3821802,-0.8928801,1.730637,-0.07630169,0.202664,1.181886,0.7084746,298.8701,305.3159,22.28322
5,0.1,0.04284304,-0.1819628,0.5838091,-1.210177,3.543357,-2.929543,-1.376849,-0.1297598,0,0,11.20235,10.45943,-0.5148519,0.8476412,-0.3382235,-0.5258651,3.726626,-0.2708334,-0.3023398,0.5692868,0.3738882,-0.8892801,1.736473,-0.0761989,0.199934,1.180452,0.7097858,298.8549,305.9602,21.4324
5,0.1111111,0.112217,-0.1694582,0.6410329,-1.218903,3.546799,-2.934304,-1.376897,-0.003738806,0,0,11.06549,10.33236,-0.4973973,0.7515756,-0.2639847,-0.5278401,3.736761,-0.2746968,-0.2949885,0.5394381,0.3738802,-0.8853967,1.743593,-0.07776058,0.1969779,1.179313,0.7105851,298.6137,306.2988,20.87887
5,0.1222222,0.1409706,-0.1262134,0.6991614,-1.22848,3.548837,-2.937374,-1.37871,-0.1663731,0,0,10.88954,10.20528,-0.4922682,0.7271338,-0.2896482,-0.5339617,3.748595,-0.2796766,-0.3014536,0.5128362,0.3771856,-0.8814637,1.750146,-0.07836698,0.1938694,1.178226,0.7109108,298.2411,306.4027,20.42736
5,0.1333333,0.1269521,-0.06101009,0.7305961,-1.237921,3.549266,-2.938312,-1.377596,0.1027318,0,0,10.66471,10.09775,-0.4913251,0.7261087,-0.3067037,-0.5402574,3.761864,-0.2855268,-0.3151423,0.5118562,0.3943629,-0.876866,1.75826,-0.07961893,0.1907621,1.176893,0.7106567,297.7515,306.5218,19.88095
5,0.1444445,0.1193822,-0.03227083,0.7314301,-1.246001,3.550403,-2.939759,-1.375591,0.1817102,0,0,10.43011,10.04888,-0.490862,0.6886494,-0.2343705,-0.5422297,3.773904,-0.290402,-0.3354919,0.5448988,0.3678599,-0.8741858,1.768079,-0.0814179,0.1877403,1.175064,0.7100444,297.3182,307.0789,18.87703
5,0.1555556,0.1342646,-0.03555956,0.7143781,-1.253094,3.552743,-2.942552,-1.37336,0.2021562,0,0,10.20528,10.04888,-0.4722843,0.6117454,-0.1569092,-0.5426111,3.782286,-0.2930239,-0.3361049,0.5170916,0.31039,-0.8729448,1.774234,-0.08174893,0.1848894,1.172768,0.7092149,297.188,308.1348,17.39165
5,0.1666667,0.1951319,-0.08774072,0.68803,-1.259217,3.557115,-2.948515,-1.373176,0.01501829,0,0,10.01955,10.1173,-0.4178932,0.5860902,-0.1445581,-0.545662,3.792453,-0.2988016,-0.3236713,0.505259,0.2762123,-0.8714592,1.781283,-0.08307491,0.1822508,1.170257,0.7084377,297.3994,309.3792,15.73647
5,0.1777778,0.2891536,-0.1695583,0.6693072,-1.265354,3.563162,-2.956563,-1.373982,-0.07366696,0,0,9.921799,10.22483,-0.2846596,0.5518106,-0.1317125,-0.5482,3.801016,-0.3074811,-0.3262559,0.4987844,0.2283079,-0.8709474,1.788545,-0.08395935,0.1798199,1.167756,0.7078857,297.715,310.4104,14.37479
5,0.1888889,0.340307,-0.3008638,0.6113428,-1.269843,3.571196,-2.964917,-1.376332,-0.2144057,0,0,9.892473,10.34213,-0.1855831,0.5911236,-0.1387065,-0.552354,3.814228,-0.3197471,-0.3243116,0.4859508,0.2123467,-0.869284,1.795139,-0.08475004,0.1776561,1.16543,0.7073541,297.9781,311.2139,13.33345
5,0.2,0.3310896,-0.3181286,0.5948572,-1.274294,3.577133,-2.969649,-1.377686,-0.1223504,0,0,9.941349,10.47898,-0.1526136,0.6454589,-0.1569168,-0.5575243,3.829006,-0.3315944,-0.3266309,0.4645886,0.197624,-0.8680238,1.801196,-0.08515937,0.1757005,1.163215,0.7067977,298.0957,311.8144,12.55391
5,0.2111111,0.2319641,-0.3715519,0.50293,-1.275864,3.583555,-2.970762,-1.376915,0.07090631,0,0,10.04888,10.62561,-0.1107221,0.7262893,-0.1218665,-0.5612702,3.848006,-0.3477473,-0.3133805,0.4090875,0.156983,-0.8679082,1.803978,-0.08389676,0.1739633,1.160983,0.7058423,298.1516,312.3878,11.86017
5,0.2222222,0.1988825,-0.3826586,0.4679596,-1.278904,3.589104,-2.973489,-1.373328,0.3270012,0,0,10.21505,10.76246,-0.07852495,0.717634,-0.0848223,-0.5634519,3.861417,-0.3592913,-0.2700009,0.344978,0.1513857,-0.8665265,1.806028,-0.08377612,0.1722603,1.158598,0.7045913,298.3681,312.8634,11.18523
5,0.2333333,-0.006905288,-0.4423149,0.3220633,-1.276103,3.596036,-2.968448,-1.369037,0.3892682,0,0,10.36168,10.86022,-0.06112543,0.5842818,-0.0117424,-0.5617043,3.865671,-0.3629074,-0.2325292,0.2477851,0.09476918,-0.8673766,1.805253,-0.08197929,0.1704018,1.156158,0.7035199,298.8908,313.3722,10.31464
5,0.2444444,-0.2298356,-0.4646042,0.1940014,-1.27311,3.601786,-2.960489,-1.370658,-0.1509784,0,0,10.49853,10.92864,-0.09578156,0.4957096,0.07245922,-0.5588084,3.872138,-0.3662185,-0.2021107,0.1549555,0.08189069,-0.8667183,1.803663,-0.07958218,0.1682827,1.154051,0.7029943,299.6566,313.6619,9.545581
5,0.2555556,-0.3983302,-0.4841759,0.1062381,-1.270402,3.607446,-2.952494,-1.363174,0.6861043,0,0,10.63539,10.94819,-0.2271318,0.2974086,0.2124761,-0.5507017,3.871221,-0.3584628,-0.1564594,0.07491325,0.09867891,-0.8648983,1.801322,-0.07792383,0.1660164,1.152514,0.7029015,300.156,313.6308,9.089511
5,0.2666667,-0.6499215,-0.5192046,-0.003519714,-1.265331,3.613817,-2.938802,-1.360653,0.2252799,0,0,10.75269,10.95797,-0.3240601,0.1131511,0.2468089,-0.5455624,3.864747,-0.3462879,-0.1280612,0.03107404,0.07613899,-0.8646251,1.799868,-0.0765776,0.1634162,1.151866,0.7038422,300.8094,313.1093,8.980383
5,0.2777778,-0.8034989,-0.5278855,-0.07437165,-1.261111,3.618936,-2.926672,-1.361724,-0.09834973,0,0,10.86999,10.95797,-0.3867947,0.01408315,0.2811079,-0.5406718,3.86227,-0.3380297,-0.1104389,-0.001030497,0.03555731,-0.8656414,1.798561,-0.07496106,0.1605923,1.152633,0.7058285,301.2638,312.295,9.143978
5,0.2888889,-1.02649,-0.5266207,-0.1888004,-1.253678,3.623448,-2.908918,-1.357387,0.3986379,0,0,10.97752,10.95797,-0.3952981,-0.02534401,0.2906608,-0.5371644,3.862564,-0.333975,-0.1095553,0.0191466,0.006743267,-0.8666459,1.799513,-0.07433601,0.1577154,1.155065,0.7085333,301.2,311.3031,9.657089
5,0.3,-1.231227,-0.5593683,-0.302973,-1.245009,3.629122,-2.89061,-1.360375,-0.2755665,0,0,11.07527,10.95797,-0.4101833,-0.08608353,0.3055394,-0.532547,3.859491,-0.3264039,-0.1074376,0.04681163,-0.007174056,-0.8672329,1.801532,-0.07458422,0.1546622,1.159265,0.7120001,300.862,310.0518,10.55834
5,0.3111111,-1.487063,-0.6493565,-0.4825401,-1.231873,3.636467,-2.868572,-1.356951,0.3168845,0,0,11.17302,10.95797,-0.4738896,-0.1116613,0.340013,-0.5272947,3.858654,-0.3184935,-0.1098287,0.0669869,-0.04554922,-0.8692185,1.803152,-0.07440526,0.1515384,1.16517,0.7159409,300.0629,308.3133,11.98497
5,0.3222222,-1.605427,-0.696498,-0.5798388,-1.219929,3.643008,-2.849035,-1.357321,-0.03539824,0,0,11.261,10.95797,-0.5439246,-0.1191421,0.3809713,-0.5213287,3.859048,-0.3102681,-0.1133225,0.05629281,-0.07426285,-0.8711243,1.803276,-0.07309791,0.1481868,1.172576,0.7205852,299.1077,306.1101,13.93059
5,0.3333333,-1.762172,-0.7439487,-0.6940197,-1.206409,3.649348,-2.826926,-1.354979,0.2159479,0,0,11.3392,10.96774,-0.6563466,-0.1340925,0.4552236,-0.5135491,3.859709,-0.2998235,-0.08527693,0.007067017,-0.1330217,-0.8744782,1.800538,-0.07127924,0.1444557,1.181229,0.7259077,297.987,303.1487,16.68979
5,0.3444445,-1.854022,-0.73317,-0.7567015,-1.194083,3.653787,-2.804954,-1.359295,-0.3950832,0,0,11.38807,10.85044,-0.7581279,-0.1789048,0.5336016,-0.5044773,3.857721,-0.2866038,-0.07922882,-0.006873466,-0.1660694,-0.8771148,1.799666,-0.07010186,0.1402704,1.190885,0.7317024,296.8943,299.4446,20.16768
5,0.3555556,-1.961058,-0.6596435,-0.8262854,-1.181632,3.654247,-2.780015,-1.358961,0.03535894,0,0,11.40763,10.58651,-0.8547415,-0.237512,0.592744,-0.4950055,3.853851,-0.2704962,-0.08779049,-0.004719313,-0.1713234,-0.8791894,1.799492,-0.06872633,0.1359615,1.201203,0.737082,295.6157,295.1434,24.24443
5,0.3666667,-2.049022,-0.5141013,-0.8294311,-1.17255,3.651444,-2.753398,-1.36116,-0.200568,0,0,11.3783,10.18573,-0.9205061,-0.2620389,0.6378891,-0.4856887,3.850889,-0.2554147,-0.1069113,0.009195574,-0.1711792,-0.8810962,1.79995,-0.06712417,0.1314162,1.211695,0.742198,294.4023,290.3951,28.66737
5,0.3777778,-2.087851,-0.383052,-0.8102359,-1.164867,3.64762,-2.727594,-1.361301,-0.009987283,0,0,11.31965,9.648094,-0.9966774,-0.238692,0.7098512,-0.4752656,3.852802,-0.2434819,-0.1661882,0.08506937,-0.1611943,-0.8826755,1.804281,-0.06604666,0.1267377,1.222014,0.7469927,293.374,285.4377,33.19316
5,0.3888889,-2.152591,-0.1399131,-0.750375,-1.162039,3.637571,-2.697561,-1.362172,-0.07862955,0,0,11.23167,9.002934,-1.031458,-0.1833572,0.7539035,-0.465609,3.857974,-0.2352836,-0.1968161,0.1193047,-0.1460682,-0.8839356,1.80747,-0.06480563,0.1219179,1.232068,0.7519119,292.7032,280.81,37.29997
5,0.4,-2.201398,0.1171566,-0.6896243,-1.161285,3.625087,-2.666693,-1.364676,-0.2272886,0,0,11.11437,8.269795,-1.051011,-0.09086275,0.8352278,-0.4544732,3.868851,-0.2329555,-0.2242681,0.1588387,-0.1352431,-0.8852912,1.811149,-0.06375368,0.1171565,1.241982,0.75695,292.203,276.8464,40.87271
5,0.4111111,-2.199796,0.323734,-0.5827796,-1.163154,3.613396,-2.637609,-1.364205,0.04559965,0,0,10.98729,7.487782,-1.068947,-0.08876932,0.8588022,-0.444203,3.87205,-0.2234677,-0.2308916,0.1534908,-0.1586104,-0.8878952,1.812829,-0.06205964,0.1126855,1.251835,0.761918,291.7299,273.2227,44.26535
5,0.4222222,-2.231769,0.382918,-0.5033697,-1.162948,3.605852,-2.608556,-1.365208,-0.09134797,0,0,10.84066,6.695992,-1.109334,-0.1409799,0.8802741,-0.4331227,3.869293,-0.2073694,-0.2354321,0.1428012,-0.1851833,-0.8908594,1.814085,-0.06006787,0.1085252,1.261903,0.7670855,291.2125,270.2118,47.19228
5,0.4333333,-2.241382,0.5036182,-0.3435251,-1.16898,3.597649,-2.580073,-1.367582,-0.2157736,0,0,10.71359,6.01173,-1.190008,-0.1910641,0.9286801,-0.42043,3.865855,-0.1884162,-0.254946,0.13961,-0.2212238,-0.8945771,1.815596,-0.05751496,0.1047513,1.272467,0.7725052,290.6314,267.3688,50.17956
5,0.4444444,-2.055876,0.5338838,-0.2559206,-1.172704,3.591358,-2.56101,-1.366869,0.06753068,0,0,10.62561,5.728251,-1.248751,-0.2047839,0.9066936,-0.4106552,3.863475,-0.1705675,-0.2888792,0.1493491,-0.2081571,-0.8966309,1.817963,-0.05467124,0.1013332,1.283531,0.7778551,289.9089,264.1418,53.93015
5,0.4555556,-1.880761,0.4840933,-0.1856571,-1.174635,3.588349,-2.544933,-1.368136,-0.1163978,0,0,10.57674,5.943305,-1.271687,-0.2642363,0.8364038,-0.4029352,3.853968,-0.1469306,-0.3013879,0.166482,-0.1846464,-0.8981154,1.820894,-0.0527756,0.09806089,1.294938,0.7826689,289.1893,260.4435,58.32509
5,0.4666667,-1.812184,0.5157225,-0.008215725,-1.183537,3.585777,-2.525546,-1.377172,-0.8246642,0,0,10.55719,6.608016,-1.266484,-0.262069,0.8182619,-0.3940552,3.849474,-0.1287055,-0.3096786,0.1846578,-0.1664947,-0.8995338,1.824235,-0.05109008,0.09461134,1.306563,0.7868105,288.2753,256.1281,63.32016
5,0.4777778,-1.706517,0.606288,0.1888599,-1.196438,3.582458,-2.508656,-1.379448,-0.2015288,0,0,10.56696,7.693059,-1.241931,-0.2109476,0.8160838,-0.3848369,3.851414,-0.1175248,-0.3156589,0.2135013,-0.1334687,-0.9001911,1.828386,-0.05004825,0.09091312,1.317681,0.7901363,287.4952,249.5649,70.36523
5,0.4888889,-1.572507,0.8003396,0.3870572,-1.214287,3.575868,-2.493195,-1.37539,0.3715142,0,0,10.59628,9.120235,-1.160273,-0.1523017,0.7528013,-0.3786557,3.85434,-0.1100988,-0.3122041,0.2092839,-0.1025966,-0.9004179,1.83119,-0.04840002,0.0870326,1.327406,0.792464,286.9907,242.3938,77.72577
5,0.5,-1.451377,0.9778814,0.5311,-1.232207,3.568262,-2.477961,-1.377058,-0.1563221,0,0,10.64516,10.75269,-1.064954,-0.1426394,0.6711912,-0.3738487,3.852114,-0.09939743,-0.3088851,0.1997084,-0.08449797,-0.9008989,1.833365,-0.04637868,0.08247817,1.335743,0.7944715,286.3493,237.3244,82.7816
5,0.5111111,-1.377272,1.134255,0.5913049,-1.249941,3.558954,-2.461836,-1.379204,-0.1950347,0,0,10.70381,12.53177,-1.017824,-0.125371,0.5526509,-0.3715839,3.850369,-0.08809817,-0.2947767,0.2050322,-0.05800017,-0.9007199,1.836564,-0.04562315,0.07733472,1.34288,0.7962468,285.5974,233.9477,85.88864
5,0.5222223,-1.383633,1.159107,0.6358415,-1.264408,3.553757,-2.444337,-1.379055,0.01431031,0,0,10.76246,14.34995,-1.06943,-0.1389873,0.4858825,-0.3678337,3.845211,-0.06950904,-0.279803,0.209239,-0.05281767,-0.9012728,1.839665,-0.04483112,0.07198703,1.349089,0.7980441,284.8347,231.1848,88.10995
5,0.5333334,-1.42399,1.152848,0.670103,-1.279276,3.549475,-2.425784,-1.377709,0.1220412,0,0,10.81134,15.87488,-1.124758,-0.1089622,0.4937836,-0.3619145,3.845199,-0.05488482,-0.2788799,0.209202,-0.06880867,-0.9027045,1.84251,-0.04351046,0.06685321,1.354666,0.8001435,284.2115,228.7155,89.96529
5,0.5444446,-1.458946,1.150115,0.7405257,-1.295387,3.547231,-2.40733,-1.37413,0.3254595,0,0,10.85044,17.15543,-1.108753,-0.05159938,0.4853044,-0.3564119,3.84923,-0.04673395,-0.2873177,0.2188276,-0.0634219,-0.9033437,1.845919,-0.04213148,0.06232684,1.359944,0.802687,283.6827,226.5916,91.66757
5,0.5555557,-1.448277,1.212826,0.8368502,-1.314712,3.54363,-2.39061,-1.372049,0.1876311,0,0,10.86999,18.1916,-1.017277,0.07838166,0.4402405,-0.353442,3.865044,-0.05353327,-0.2891459,0.233795,-0.03573542,-0.9029543,1.849807,-0.04120922,0.05850558,1.36524,0.8053954,283.1249,225.0891,93.1703
5,0.5666668,-1.336898,1.380109,0.9085728,-1.337876,3.536733,-2.377476,-1.371265,0.07031243,0,0,10.88954,19.01271,-0.9140809,0.1784825,0.4024706,-0.3506014,3.88109,-0.06190038,-0.2931584,0.228541,-0.005859789,-0.9021559,1.852877,-0.0397562,0.05527355,1.370956,0.8079678,282.4216,223.5586,95.02647
5,0.577778,-1.221065,1.453107,0.9160807,-1.357679,3.530184,-2.36626,-1.373258,-0.1825429,0,0,10.88954,19.66765,-0.8921112,0.1999114,0.3405839,-0.3488182,3.889141,-0.06005109,-0.2855578,0.2221486,0.0132586,-0.9015663,1.85565,-0.0385157,0.05246887,1.377393,0.8100017,281.575,220.9383,98.11452
5,0.5888891,-1.030606,1.515755,0.9245819,-1.378528,3.523647,-2.359872,-1.377561,-0.3921398,0,0,10.89932,20.28348,-0.9293568,0.1392004,0.3577381,-0.3443601,3.88882,-0.04813504,-0.2846068,0.2114758,0.004745085,-0.9018902,1.858176,-0.03697852,0.05004234,1.384703,0.811419,280.7916,215.6752,103.699
5,0.6000003,-0.8923317,1.578222,0.937502,-1.399825,3.517423,-2.35326,-1.379108,-0.1389284,0,0,10.89932,20.64516,-0.9416042,0.1113256,0.4387233,-0.3366997,3.890719,-0.03901637,-0.2977406,0.1859014,-0.0227902,-0.9031866,1.859586,-0.03402614,0.04810645,1.392705,0.8124817,280.4002,206.7141,112.8287
5,0.6111114,-0.6782635,1.621007,0.9780713,-1.422495,3.511646,-2.352641,-1.382976,-0.3534695,0,0,10.89932,20.68426,-0.8961483,0.0993011,0.5427729,-0.3271187,3.894405,-0.03404372,-0.3021381,0.165666,-0.03017423,-0.9038625,1.861055,-0.03151318,0.04673856,1.400872,0.8133823,280.6162,196.3721,123.3754
5,0.6222225,-0.5153688,1.717352,1.076918,-1.448645,3.507,-2.351668,-1.381793,0.1103939,0,0,10.88954,20.43011,-0.8301575,0.04809511,0.5411412,-0.3212443,3.891821,-0.02489949,-0.3032776,0.1539403,-0.03334609,-0.9043802,1.862692,-0.0291238,0.04604797,1.408421,0.8140844,281.266,186.1988,133.8752
5,0.6333337,-0.2721975,1.978045,1.171968,-1.481899,3.496182,-2.35547,-1.386009,-0.3875472,0,0,10.87977,19.89247,-0.8007652,-0.01148987,0.4896514,-0.3177428,3.883967,-0.009817744,-0.3128369,0.1475961,-0.02792412,-0.9045538,1.864486,-0.02650857,0.04580957,1.414899,0.8149168,281.9148,177.3377,143.2541
5,0.6444448,-0.1832775,2.184882,1.270044,-1.516962,3.485992,-2.355768,-1.384311,0.1576531,0,0,10.85044,19.18866,-0.8961297,0.0005553961,0.4072649,-0.3160006,3.885812,0.001914014,-0.327712,0.1455286,-0.02246735,-0.9047259,1.866477,-0.02349387,0.04590586,1.419686,0.8157101,282.5167,169.3118,151.9969
5,0.655556,-0.1587657,2.776047,1.368131,-1.565975,3.462963,-2.353276,-1.387683,-0.3109404,0,0,10.80156,18.37732,-0.9769473,-0.02034056,0.2810059,-0.3174286,3.882613,0.0186882,-0.325438,0.14449,-0.006504767,-0.9042577,1.868571,-0.02135456,0.04602378,1.422655,0.8167838,282.7823,161.5003,160.4606
5,0.6666671,-0.1533191,3.012643,1.375627,4.676808,3.444752,-2.351829,-1.382445,0.4793932,0,0,10.74291,17.44868,-1.07585,-0.006057978,0.1517809,-0.320471,3.883524,0.03336914,-0.309302,0.130617,0.01787071,-0.903324,1.869659,-0.01908901,0.04625662,1.423899,0.8186214,282.8541,153.4064,169.0255
5,0.6777782,-0.2197089,3.378047,1.405633,4.629375,3.421382,-2.347988,-1.377717,0.4268218,0,0,10.65494,16.50049,-1.084597,0.1165981,0.0978073,-0.3212635,3.902521,0.02776239,-0.304712,0.1391848,0.05083251,-0.9016995,1.87209,-0.01737313,0.04684309,1.423784,0.8214592,282.571,144.3659,178.3939
5,0.6888894,-0.2426879,3.554127,1.451021,4.584785,3.402343,-2.346592,-1.376416,0.1129672,0,0,10.55719,15.75758,-0.937263,0.3116933,-0.04335751,-0.3267432,3.938012,-0.001452754,-0.2783957,0.1711705,0.1208497,-0.8977985,1.876086,-0.01775822,0.04873313,1.422977,0.8254039,282.2932,133.3538,189.7819
5,0.7000005,-0.2528057,3.740129,1.526075,4.537375,3.38317,-2.346787,-1.372424,0.3644668,0,0,10.47898,15.21994,-0.6991454,0.3428332,-0.2718654,-0.338197,3.951323,-0.01519546,-0.2397042,0.1891889,0.1513647,-0.8949957,1.879782,-0.01887702,0.05219113,1.421974,0.8300795,282.4704,122.6589,201.4784
5,0.7111117,-0.3012371,3.841963,1.498682,4.493298,3.361711,-2.345697,-1.37356,-0.1072879,0,0,10.42033,14.88759,-0.6541899,0.2961724,-0.3841566,-0.3466504,3.955146,-0.01323564,-0.1734718,0.1740728,0.1785039,-0.8920413,1.881516,-0.02062032,0.05742656,1.421321,0.8351405,283.4443,112.3357,213.3264
5,0.7222228,-0.3322403,3.850878,1.432567,4.45392,3.340982,-2.345819,-1.374307,-0.06610377,0,0,10.39101,14.69208,-0.6684661,0.1741327,-0.5718279,-0.358951,3.947549,0.002563825,-0.1243559,0.1728469,0.1897829,-0.8897083,1.883972,-0.02276444,0.06411731,1.421265,0.8399565,285.3504,104.8243,222.9126
5,0.7333339,-0.3322947,3.795678,1.333976,4.417532,3.319991,-2.347538,-1.371355,0.2697029,0,0,10.39101,14.53568,-0.593909,-0.07072592,-0.6805517,-0.3706492,3.921083,0.03139867,-0.08613963,0.1503197,0.184156,-0.887883,1.885074,-0.02398523,0.07180817,1.421714,0.8439576,287.9101,100.8274,229.2107
5,0.7444451,-0.3041623,3.668276,1.246565,4.384966,3.301586,-2.351193,-1.370958,0.03198948,0,0,10.43011,14.41838,-0.5256698,-0.2083207,-0.6461905,-0.3761406,3.902308,0.05216227,-0.08197993,0.1577297,0.1691826,-0.8867666,1.887578,-0.02476607,0.07996373,1.42268,0.8472594,290.5201,99.59886,232.754
5,0.7555562,-0.1980972,3.124477,1.02416,4.373172,3.293211,-2.35594,-1.371093,-0.01307987,0,0,10.47898,14.26197,-0.4284896,-0.2916532,-0.5980805,-0.3811101,3.885959,0.06852873,-0.09458308,0.1950714,0.1734876,-0.8847985,1.892288,-0.0262087,0.08806537,1.424076,0.8500217,292.9231,100.021,234.5052
5,0.7666674,-0.1235052,2.7849,0.9012699,4.356443,3.283583,-2.360957,-1.372476,-0.1266791,0,0,10.53763,14.0567,-0.3420142,-0.2886152,-0.5720468,-0.3866846,3.880796,0.07402523,-0.1039728,0.2270814,0.1820359,-0.8824517,1.897341,-0.02779355,0.09572997,1.425668,0.852401,295.1157,101.0556,235.3645
5,0.7777785,-0.01663375,2.313744,0.7049391,4.349694,3.277741,-2.367103,-1.375771,-0.3003991,0,0,10.57674,13.79277,-0.3011951,-0.2578734,-0.5296423,-0.3910351,3.877572,0.07887031,-0.09995516,0.2174368,0.1585811,-0.8816571,1.900018,-0.02862259,0.1024202,1.42708,0.8543471,297.0224,102.5168,235.7916
5,0.7888896,0.07765234,1.966498,0.4253913,4.347933,3.266632,-2.375134,-1.37477,0.09305169,0,0,10.58651,13.46041,-0.2473466,-0.1259819,-0.4711086,-0.3937814,3.888106,0.06996444,-0.1223371,0.2175179,0.157718,-0.8799936,1.903017,-0.02830115,0.1070781,1.427932,0.8557939,298.1831,104.518,235.52
5,0.8000008,0.1375151,1.763355,0.1959466,4.342626,3.252076,-2.384171,-1.375827,-0.0984992,0,0,10.58651,13.10851,-0.2267374,-0.04726675,-0.4337783,-0.3969474,3.89548,0.06480323,-0.1888262,0.2360014,0.2200695,-0.8751696,1.907785,-0.02662868,0.1093996,1.427953,0.8568364,299.0298,105.5838,235.4156
5,0.8111119,0.2025861,1.545191,-0.05164111,4.345529,3.237877,-2.393796,-1.374784,0.0953727,0,0,10.58651,12.73705,-0.2764543,0.1771977,-0.2741302,-0.3926948,3.924419,0.04326252,-0.2164747,0.2212138,0.2320618,-0.8722252,1.910269,-0.02484649,0.1093778,1.426943,0.8576671,299.1937,105.9723,235.1775
5,0.8222231,0.2691418,1.152633,-0.3850698,4.364231,3.227744,-2.402712,-1.37329,0.1347359,0,0,10.59628,12.35582,-0.2385725,0.4014608,-0.08314534,-0.3859975,3.95659,0.014633,-0.2461658,0.23412,0.2418911,-0.8694091,1.914228,-0.02361318,0.1078183,1.42487,0.8588722,298.5525,105.5123,234.7964
5,0.8333342,0.3276755,0.7183988,-0.6094136,4.382102,3.224385,-2.40961,-1.372939,0.03095471,0,0,10.60606,11.98436,-0.06199273,0.48408,0.01380034,-0.3821737,3.979888,-0.01324497,-0.2555249,0.2416547,0.2643331,-0.865653,1.918255,-0.02300998,0.1060208,1.421678,0.8607372,297.6776,104.1173,234.9603
5,0.8444453,0.3863347,0.3017981,-0.7647169,4.40314,3.224934,-2.41581,-1.372878,0.004085915,0,0,10.64516,11.69111,0.08965018,0.4997366,0.06177127,-0.3800629,3.9953,-0.03416809,-0.2603892,0.2396391,0.3165906,-0.8599336,1.921821,-0.02244113,0.1047386,1.4175,0.8634326,296.4289,102.7218,235.6764
5,0.8555565,0.4207062,-0.1518624,-0.8865919,4.422119,3.229051,-2.420202,-1.372412,0.04071994,0,0,10.68426,11.74976,0.2561463,0.5985214,0.08638868,-0.3788155,4.022659,-0.06853911,-0.2814473,0.259995,0.3359188,-0.8555117,1.926746,-0.02173512,0.1041726,1.41238,0.8665439,294.6565,101.6662,236.516
5,0.8666676,0.4245268,-0.3438235,-0.9137,4.435505,3.229492,-2.425486,-1.372152,0.02251712,0,0,10.72336,12.22874,0.4256848,0.7506422,0.08023167,-0.3793801,4.060285,-0.113991,-0.2631215,0.2333564,0.3709706,-0.8500874,1.929013,-0.02108185,0.1043236,1.40659,0.8695542,293.1438,100.0936,238.192
5,0.8777788,0.4297324,-0.5963275,-0.9168746,4.452882,3.234266,-2.429435,-1.370652,0.1364522,0,0,10.76246,13.09873,0.4725738,0.7590961,0.08204666,-0.3794648,4.083162,-0.1417744,-0.2427692,0.2152064,0.3910632,-0.8449805,1.931443,-0.02077639,0.1047934,1.400607,0.8722667,291.9213,97.95853,240.723
5,0.8888899,0.4143949,-0.7604191,-0.9132819,4.470229,3.239122,-2.432098,-1.369685,0.08674534,0,0,10.75269,14.30108,0.4191081,0.7048806,0.06418684,-0.3802717,4.098811,-0.1590203,-0.1619653,0.1233241,0.4118148,-0.8394587,1.928524,-0.02045467,0.1053394,1.394954,0.8745071,290.9268,95.33803,243.6909
5,0.900001,0.3613558,-0.8428695,-0.9379829,4.486444,3.241086,-2.434459,-1.36896,0.06578498,0,0,10.72336,15.80645,0.2769531,0.5794666,0.02441341,-0.3816811,4.102565,-0.1598834,-0.1344452,0.05718912,0.4191528,-0.8345931,1.926141,-0.01853267,0.1057111,1.390048,0.8764659,290.2404,93.18707,246.3087
5,0.9111122,0.3059361,-0.8603636,-0.9653495,4.502023,3.241163,-2.43585,-1.367187,0.1610221,0,0,10.65494,17.39003,0.206402,0.4933134,0.006598294,-0.3826366,4.107812,-0.1642616,-0.09301317,-0.01537554,0.4370253,-0.8289829,1.921982,-0.01643197,0.1055117,1.386078,0.8779541,289.4431,91.75599,248.1499
5,0.9222233,0.2803751,-0.8486257,-0.9515164,4.515063,3.241334,-2.438364,-1.365785,0.1268491,0,0,10.54741,18.97361,0.2254529,0.3942185,0.008345336,-0.382472,4.110239,-0.1697954,-0.06293491,-0.02714707,0.469803,-0.8225008,1.921016,-0.01625966,0.1044914,1.38316,0.8791508,288.515,91.34641,248.7023
5,0.9333345,0.2751755,-0.799897,-0.8571015,4.524275,3.24293,-2.440886,-1.364281,0.1368448,0,0,10.42033,20.46921,0.3104625,0.3920476,-0.02104029,-0.3845892,4.120896,-0.1861904,-0.04350001,-0.01013083,0.4930383,-0.8162051,1.92238,-0.0168381,0.1027159,1.381174,0.8803773,287.5233,91.96957,247.7731
5,0.9444456,0.2699441,-0.7232997,-0.741626,4.530947,3.244481,-2.443936,-1.365393,-0.102565,0,0,10.29326,21.59335,0.3294775,0.4347113,-0.05089447,-0.3873578,4.137399,-0.2058701,-0.04661903,0.03992195,0.4801894,-0.8113757,1.925944,-0.0185356,0.1006526,1.379878,0.8816769,286.5137,92.87096,246.1389
5,0.9555568,0.2677673,-0.6384298,-0.6581829,4.537201,3.244808,-2.44696,-1.365903,-0.04571811,0,0,10.18573,22.54155,0.3512723,0.4881657,-0.1404116,-0.3937601,4.154056,-0.225852,-0.04550135,0.08144262,0.4683847,-0.8066672,1.929566,-0.02053777,0.09862214,1.378969,0.8830387,285.7549,94.01067,244.2756
5,0.9666679,0.2719102,-0.5386599,-0.5791517,4.541509,3.244391,-2.450241,-1.36646,-0.05071981,0,0,10.10753,23.40176,0.3244225,0.449912,-0.1648065,-0.3970613,4.161477,-0.2352501,-0.01059514,0.04825516,0.4553418,-0.8023742,1.928634,-0.02092685,0.09681768,1.378215,0.8843859,285.3369,94.78627,242.9934
5,0.977779,0.2428812,-0.4297605,-0.5384418,4.546109,3.242225,-2.452699,-1.366236,0.02086387,0,0,10.05865,24.174,0.1716975,0.386296,-0.2064739,-0.400908,4.163887,-0.2333539,-0.00249891,0.01939202,0.4201649,-0.7990719,1.927266,-0.02022165,0.09515435,1.377469,0.8857919,285.1117,95.37775,242.2555
5,0.9888902,0.1774369,-0.3010225,-0.5286769,4.549746,3.237817,-2.453253,-1.366296,-0.005658791,0,0,10.02933,24.92669,0.009317212,0.3152526,-0.2566169,-0.4058029,4.163247,-0.2265293,-0.004787132,0.005525775,0.4084927,-0.7949339,1.926515,-0.01955985,0.09365778,1.376641,0.8873277,284.825,95.6154,241.9232
5,1.000001,0.133487,-0.2115733,-0.5133199,4.553648,3.234014,-2.454211,-1.365192,0.1010434,0,0,10.0391,25.87488,-0.07171905,0.2322633,-0.2530333,-0.4081294,4.161294,-0.221392,0.003541768,-0.04564054,0.4085116,-0.7903953,1.923001,-0.01751614,0.09237872,1.375655,0.8890439,284.5673,95.82679,241.6864
5,1.011112,0.08634031,-0.09841575,-0.4651301,4.554415,3.229404,-2.454204,-1.36294,0.2051674,0,0,10.08798,27.10655,-0.0497517,0.199332,-0.3033457,-0.4134137,4.161155,-0.2216514,-0.009990782,-0.01678422,0.4320175,-0.7846503,1.924152,-0.01767087,0.09135797,1.37445,0.8911002,284.2869,96.14201,241.3776
5,1.022224,0.06596965,-0.03533797,-0.4304458,4.556083,3.225893,-2.454921,-1.363507,-0.05326274,0,0,10.1564,28.64125,-0.02734524,0.2099436,-0.2992069,-0.4170361,4.166257,-0.2268912,-0.045445,0.04205468,0.4929517,-0.7768382,1.928269,-0.01868767,0.09081326,1.373089,0.8935567,283.9763,96.01815,241.493
5,1.033335,0.05211368,-0.003131807,-0.3955203,4.557564,3.222967,-2.455415,-1.362611,0.08236829,0,0,10.25415,30.39101,0.01192041,0.3204174,-0.1916272,-0.4167741,4.186213,-0.2467611,-0.08407217,0.1488097,0.5367838,-0.7691033,1.936766,-0.02208613,0.09078985,1.371601,0.8962943,283.7438,95.72562,241.9173
5,1.044446,0.02254739,-0.01229031,-0.3324946,4.559224,3.222478,-2.454931,-1.363276,-0.06175307,0,0,10.35191,32.17987,0.1008312,0.5332978,-0.1629725,-0.4210953,4.218526,-0.2808373,-0.08282524,0.161616,0.5516642,-0.7624716,1.940278,-0.02373356,0.09134516,1.37013,0.8992316,283.6634,94.77492,243.108
5,1.055557,0.01091051,-0.02719326,-0.3259384,4.562549,3.220831,-2.454972,-1.362733,0.04959279,0,0,10.45943,33.70479,0.09876633,0.5609885,-0.158618,-0.4246916,4.233292,-0.2951304,-0.08634585,0.1157933,0.5347351,-0.7570482,1.940161,-0.02259186,0.09233326,1.368712,0.9021232,283.6384,94.0565,244.2796
5,1.066668,-0.01690903,-0.01578254,-0.3493825,4.566021,3.217692,-2.454247,-1.361048,0.1527108,0,0,10.56696,34.86804,0.06481248,0.5524603,-0.1381533,-0.4270214,4.24603,-0.3061991,-0.07700855,0.08483629,0.5197934,-0.7519414,1.939964,-0.02198306,0.09344346,1.367516,0.9054537,283.6214,94.38448,244.5913
5,1.077779,-0.01378778,0.01415442,-0.3389967,4.567662,3.214331,-2.454924,-1.360585,0.04001178,0,0,10.68426,35.71848,0.06151882,0.5194595,-0.1445979,-0.4300835,4.254627,-0.314461,-0.06650269,0.08370485,0.5037262,-0.7471701,1.941238,-0.02269333,0.09433427,1.366534,0.9093333,283.5697,94.59632,244.9537
5,1.08889,0.009377375,0.131888,-0.2857521,4.564887,3.209053,-2.456707,-1.357984,0.2361965,0,0,10.80156,36.22679,0.02826369,0.373568,-0.1500547,-0.4316478,4.250234,-0.3095975,-0.07718572,0.07309422,0.5049065,-0.741537,1.94201,-0.02200037,0.09500201,1.365336,0.9115001,283.5803,93.33324,246.6284
5,1.100002,0.01032987,0.1692405,-0.2786166,4.565177,3.204848,-2.4576,-1.357382,0.05147733,0,0,10.91887,36.31476,0.009170324,0.3597125,-0.135028,-0.433536,4.258061,-0.3160229,-0.08678016,0.05715555,0.5092836,-0.735866,1.941724,-0.02076334,0.09529173,1.364334,0.9134111,283.4116,93.05887,247.1792
5,1.111113,-0.02871818,0.3480289,-0.2832202,4.560873,3.194354,-2.457476,-1.356144,0.1111597,0,0,11.05572,36.34409,-0.0365252,0.254235,-0.100864,-0.433062,4.257116,-0.3131297,-0.08385766,0.01025926,0.4997607,-0.7304795,1.939719,-0.01827275,0.09533253,1.363549,0.9154413,283.3129,93.36062,246.9251
5,1.122224,-0.06279717,0.3371483,-0.2947295,4.56201,3.189691,-2.45624,-1.352827,0.3002914,0,0,11.2219,36.43206,-0.06404136,0.1657438,-0.05933446,-0.4317053,4.254189,-0.3087088,-0.09553963,0.02734237,0.4966381,-0.7251154,1.941214,-0.01791429,0.09527025,1.36283,0.9177427,283.4463,93.87501,246.4554
5,1.133335,-0.07310241,0.2723836,-0.2643098,4.56309,3.188144,-2.455249,-1.347822,0.4526192,0,0,11.39785,36.66667,-0.05639064,0.2093617,-0.04010995,-0.4326534,4.263271,-0.3165753,-0.1484064,0.09256078,0.5140337,-0.7188628,1.946742,-0.01834678,0.09520522,1.361974,0.9203982,283.4715,94.35186,245.9673
5,1.144446,-0.1071115,0.2885858,-0.2238572,4.561441,3.184712,-2.453717,-1.344284,0.3175598,0,0,11.59335,37.33138,0.01747477,0.3764713,-0.01891416,-0.4356335,4.28813,-0.3421206,-0.1598874,0.09478244,0.5397005,-0.71184,1.948699,-0.01756461,0.09555785,1.36095,0.9235062,283.4767,94.12139,246.1777
5,1.155557,-0.1094124,0.3494617,-0.2051965,4.558666,3.178801,-2.453326,-1.341704,0.2307516,0,0,11.77908,38.27957,0.06892312,0.4541025,0.01074038,-0.4372463,4.307238,-0.362252,-0.1386482,0.05743924,0.548104,-0.7053409,1.947906,-0.01630893,0.09622429,1.359694,0.9266856,283.4282,93.66769,246.9741
5,1.166668,-0.1436433,0.4038268,-0.1863805,4.555548,3.172508,-2.451479,-1.337354,0.3931419,0,0,11.92571,39.13001,0.08918101,0.4647332,0.01170149,-0.4387803,4.319868,-0.3754668,-0.1219532,0.02004442,0.5245836,-0.7004396,1.946135,-0.01429612,0.09686241,1.35819,0.9294547,283.4689,92.88224,248.3197
5,1.17778,-0.168167,0.4004463,-0.1969255,4.554985,3.167596,-2.449489,-1.334073,0.293699,0,0,12.04301,39.87292,0.06560972,0.4658776,-0.005163401,-0.4413044,4.330228,-0.3843519,-0.1211932,0.008271627,0.4958361,-0.6960289,1.945586,-0.01255947,0.09735387,1.356601,0.9318832,283.6237,91.57153,250.0875
5,1.188891,-0.1469886,0.4281691,-0.2036252,4.553229,3.161414,-2.449597,-1.328416,0.511696,0,0,12.11144,40.41056,0.02823383,0.4606272,-0.016625,-0.4437423,4.340496,-0.3924748,-0.1257744,-0.002424017,0.4649981,-0.6922562,1.944658,-0.01035171,0.09778902,1.355049,0.9341964,283.7842,90.43242,251.5375
5,1.200002,-0.07997006,0.4658275,-0.190318,4.550195,3.155188,-2.452298,-1.323915,0.4040141,0,0,12.13099,40.43011,0.01622942,0.3157975,-0.02967575,-0.4436757,4.336107,-0.3882194,-0.1112076,-0.03129205,0.4382871,-0.6883637,1.942528,-0.008016914,0.09823004,1.353595,0.9364981,283.9133,89.59879,252.6618
5,1.211113,-0.0437077,0.4337976,-0.214664,4.550461,3.150181,-2.453876,-1.321194,0.2420955,0,0,12.10166,39.8045,0.01918911,0.1837211,-0.03961501,-0.4433077,4.328818,-0.381954,-0.1051437,-0.04202846,0.4062928,-0.6850332,1.94126,-0.006044044,0.09866676,1.352264,0.9387676,283.9322,89.03432,253.5025
5,1.222224,0.03740501,0.3968349,-0.2135492,4.55044,3.146246,-2.45778,-1.318854,0.2083347,0,0,12.02346,38.55328,0.001051093,0.04307296,-0.01852131,-0.4408384,4.319146,-0.3725405,-0.1310119,-0.01644675,0.3617381,-0.6826289,1.942611,-0.004586496,0.09916473,1.350954,0.940914,283.9875,88.77397,253.9806
5,1.233335,0.1942571,0.3217071,-0.2240691,4.552381,3.143845,-2.46636,-1.312594,0.5665025,0,0,11.90616,36.70577,0.002159059,0.03666031,-0.01109453,-0.4408565,4.319909,-0.3731914,-0.1682482,0.01032,0.3567004,-0.6786906,1.944644,-0.002777411,0.09976257,1.349408,0.9429684,284.1281,89.064,253.9414
5,1.244446,0.3169511,0.2656402,-0.2325126,4.554064,3.141294,-2.474684,-1.309003,0.3190325,0,0,11.77908,34.67253,-0.003824718,0.09408667,0.03597395,-0.4401705,4.329604,-0.381697,-0.181968,-0.005569302,0.3781582,-0.6736476,1.94362,0.0005739112,0.1003421,1.347469,0.94507,284.1758,88.91733,254.4085
5,1.255558,0.3778436,0.2050094,-0.2492329,4.556507,3.13896,-2.481206,-1.307786,0.1042041,0,0,11.66178,32.58065,0.001863942,0.2154583,0.06607165,-0.4409971,4.346259,-0.3968592,-0.1838777,0.01577388,0.3941216,-0.6685333,1.945186,0.001536644,0.1007933,1.345059,0.9473069,284.1837,88.18346,255.5047
5,1.266669,0.4002622,0.1815491,-0.2618873,4.558422,3.135965,-2.486757,-1.30113,0.6028253,0,0,11.56403,30.69404,0.01872712,0.2432097,0.03619005,-0.4431191,4.353816,-0.4045003,-0.2028572,0.01695725,0.4155964,-0.6629881,1.945601,0.004134025,0.1008538,1.341777,0.9494076,284.1564,87.57023,256.5269
5,1.27778,0.4235554,0.2081433,-0.2760402,4.559148,3.131177,-2.492947,-1.292201,0.8060474,0,0,11.4956,29.06158,0.01558873,0.2346636,0.04685119,-0.443019,4.358706,-0.4088506,-0.2537071,0.03636956,0.4394528,-0.6571627,1.94736,0.007481352,0.1004255,1.337426,0.9514645,284.1228,85.8532,258.4884
5,1.288891,0.4331104,0.2102462,-0.283547,4.56042,3.127186,-2.498685,-1.283918,0.7456959,0,0,11.44673,27.71261,0.02831154,0.2357346,0.03823903,-0.443974,4.364454,-0.4148148,-0.3310901,0.07080269,0.4688488,-0.6508286,1.950485,0.01152083,0.09954344,1.332107,0.9536393,284.0811,82.37352,262.0495
5,1.300002,0.435087,0.2335198,-0.3039997,4.561663,3.121844,-2.504331,-1.277297,0.5946296,0,0,11.4174,26.77419,0.05177513,0.3305424,0.02659842,-0.4469205,4.379356,-0.4296331,-0.3637149,0.09336212,0.5042542,-0.64389,1.953448,0.01447108,0.09835506,1.326097,0.955873,284.1382,77.50488,266.9324
5,1.311113,0.418001,0.2451819,-0.3029786,4.562454,3.117256,-2.509024,-1.270181,0.6412037,0,0,11.39785,26.09971,0.06481138,0.5009599,0.03226137,-0.4515422,4.405038,-0.4539765,-0.3738925,0.1062833,0.5543882,-0.6357242,1.956145,0.01707992,0.09705534,1.319661,0.9579977,284.3674,72.2771,272.1679
5,1.322224,0.3743268,0.2719203,-0.2711073,4.561513,3.112946,-2.512096,-1.263022,0.64447,0,0,11.39785,25.64027,0.1225832,0.7427371,0.02501133,-0.459488,4.441341,-0.4900379,-0.2953394,0.01757659,0.5623764,-0.6290615,1.950909,0.02169012,0.09582636,1.313169,0.960108,284.7257,66.94052,277.492
5,1.333336,0.3255059,0.2474909,-0.2430348,4.561477,3.110069,-2.514242,-1.255359,0.6906297,0,0,11.4174,25.37634,0.1544529,0.7182243,0.01725644,-0.4628244,4.454061,-0.5041968,-0.2564041,-0.03589423,0.5322914,-0.6245112,1.946538,0.02658554,0.09485943,1.306945,0.9622262,285.1873,62.03047,282.4158
5,1.344447,0.270327,0.2220271,-0.2064136,4.56139,3.108321,-2.51543,-1.247106,0.7444292,0,0,11.43695,25.21994,0.09973893,0.5852063,-0.01251334,-0.4645938,4.455637,-0.5046943,-0.2175371,-0.02658217,0.4658737,-0.6219195,1.946273,0.02774881,0.0942741,1.301323,0.9643397,285.8043,57.81435,286.7144
5,1.355558,0.1884751,0.2286592,-0.1476086,4.558816,3.105471,-2.515186,-1.239886,0.6497103,0,0,11.4565,24.92669,0.01308072,0.4309101,-0.03464261,-0.465365,4.453817,-0.4999933,-0.1798854,0.0008082464,0.3760014,-0.6208888,1.948303,0.02696584,0.09429967,1.29673,0.9665093,286.554,53.38224,290.8245
5,1.366669,0.08954087,0.2189659,-0.1163071,4.557672,3.103655,-2.512904,-1.23289,0.6302375,0,0,11.47605,24.42815,-0.01897451,0.216766,-0.01151636,-0.4623269,4.444319,-0.4900794,-0.1317996,-0.01765703,0.280795,-0.6209053,1.947123,0.02793469,0.09551839,1.293558,0.9687367,287.1907,49.70186,294.0355
5,1.37778,0.02587134,0.1483811,-0.1218854,4.559298,3.10295,-2.511384,-1.225248,0.6894535,0,0,11.4956,23.72434,-0.02139,-0.02292033,-0.009973924,-0.4584914,4.428411,-0.4757577,-0.08869207,-0.006221745,0.2122151,-0.6204686,1.947677,0.02715998,0.09742656,1.291609,0.9706064,287.5341,49.62456,294.7089
5,1.388891,0.0005678758,0.06829083,-0.1328333,4.561985,3.103553,-2.510365,-1.217436,0.7046675,0,0,11.51515,22.85435,-0.03131733,-0.09739245,-0.04418169,-0.4582943,4.419027,-0.4666479,-0.08030926,0.02671533,0.1822512,-0.6194848,1.950135,0.02576076,0.09958241,1.290725,0.972285,287.7202,51.29921,293.9893
5,1.400002,0.007462904,-0.09282213,-0.1624019,4.568987,3.107192,-2.510184,-1.212677,0.4256981,0,0,11.55425,21.96481,-0.02399842,-0.108009,-0.06024306,-0.4591034,4.416152,-0.4639125,-0.07072558,0.02455217,0.183239,-0.6171855,1.9505,0.02613946,0.1014273,1.290627,0.9739068,287.6482,53.5165,292.7703
5,1.411114,0.003499895,-0.1867268,-0.1786259,4.574386,3.110233,-2.509637,-1.208097,0.4118002,0,0,11.5738,21.23167,0.007087827,-0.04096467,-0.04431833,-0.4599716,4.420475,-0.4689126,-0.05139333,0.006415773,0.2086689,-0.613955,1.949313,0.02694613,0.1025625,1.290933,0.9755471,287.273,55.48777,291.4656
5,1.422225,-0.004795492,-0.2625274,-0.1939481,4.580033,3.11273,-2.508785,-1.204016,0.3659483,0,0,11.58358,20.70381,0.05775484,0.08346061,0.01743239,-0.46015,4.433716,-0.4831464,-0.05326945,0.001160312,0.2406604,-0.6099678,1.948746,0.02815867,0.1027296,1.291214,0.9771444,286.7563,57.16646,290.1654
5,1.433336,-0.02936736,-0.2660124,-0.2172899,4.584579,3.112929,-2.507436,-1.198201,0.5248626,0,0,11.5738,20.38123,0.07320337,0.2100832,0.07091316,-0.4609729,4.44904,-0.4980207,-0.09992425,0.0109705,0.2623636,-0.6062852,1.949595,0.03044472,0.101641,1.290983,0.9786348,286.1174,58.2091,289.2057
5,1.444447,-0.08825791,-0.2164609,-0.2505448,4.58813,3.111085,-2.504539,-1.192429,0.5197025,0,0,11.55425,20.26393,0.0468908,0.2803432,0.103244,-0.4616675,4.462568,-0.5097482,-0.1149738,0.002483711,0.2507935,-0.6038734,1.949017,0.03278458,0.09947507,1.290058,0.9801623,285.715,57.64845,289.3458
5,1.455558,-0.1215556,-0.1516686,-0.2573952,4.590419,3.108752,-2.502177,-1.186501,0.5344291,0,0,11.51515,20.40078,0.01526737,0.2791987,0.1503544,-0.4602352,4.471797,-0.51691,-0.1057966,-0.01148192,0.2102521,-0.6030606,1.947674,0.03458328,0.09657737,1.288449,0.9818349,285.5355,55.55133,290.7272
5,1.466669,-0.1268545,-0.1505405,-0.2477995,4.593319,3.108517,-2.500603,-1.179812,0.604011,0,0,11.4565,20.63539,0.01287715,0.195098,0.128849,-0.4591726,4.47107,-0.5163167,-0.1166362,0.01619618,0.1772722,-0.6022595,1.949726,0.03459286,0.09355017,1.286326,0.9837337,285.5583,52.3382,293.0063
5,1.47778,-0.1648861,-0.2272911,-0.2374303,4.598309,3.111238,-2.497224,-1.175554,0.3813138,0,0,11.3783,20.89931,-0.009627551,0.1962399,0.1130427,-0.4596941,4.476418,-0.5200421,-0.1484915,0.05997969,0.1700154,-0.60061,1.953717,0.03416836,0.09102166,1.284022,0.9859835,285.7942,48.76365,295.701
5,1.488891,-0.2125982,-0.2742126,-0.221954,4.602708,3.11386,-2.492817,-1.172228,0.2981976,0,0,11.3001,21.13392,-0.02386303,0.2347614,0.05358738,-0.4629794,4.482515,-0.5247123,-0.1481088,0.08561279,0.2029951,-0.5968799,1.957031,0.03322826,0.08938496,1.281848,0.9885507,286.1206,45.86432,298.0714
5,1.500003,-0.2911498,-0.3168105,-0.1840438,4.606419,3.117577,-2.486261,-1.166617,0.5076888,0,0,11.23167,21.14369,-0.02773468,0.2541879,-0.03901105,-0.4680634,4.485815,-0.5269141,-0.0850191,0.06306586,0.2386994,-0.5929683,1.956482,0.03234356,0.08861995,1.279949,0.9911618,286.3258,43.99313,299.8898
5,1.511114,-0.3570325,-0.3392072,-0.1570041,4.609967,3.120678,-2.479709,-1.161386,0.4712838,0,0,11.17302,20.96774,-0.006637745,0.2286569,-0.06266949,-0.4699984,4.487317,-0.5288985,-0.062638,0.05871452,0.2427717,-0.5901677,1.956988,0.03211053,0.08843119,1.278435,0.9936886,286.385,42.71997,301.4366
5,1.522225,-0.4007189,-0.3264864,-0.1452522,4.612901,3.122472,-2.473495,-1.155549,0.5275195,0,0,11.11437,20.61584,-0.009862259,0.2116189,-0.06375529,-0.4715958,4.489816,-0.530956,-0.0596402,0.05866177,0.2203731,-0.5884526,1.958103,0.03175979,0.08851338,1.277469,0.9961858,286.4127,41.92835,302.6319
5,1.533336,-0.4318109,-0.2851509,-0.1561683,4.615836,3.122419,-2.467698,-1.151862,0.3305062,0,0,11.07527,20.09775,-0.06470447,0.1571411,0.02280283,-0.4687712,4.493779,-0.5317613,-0.06442027,0.0287706,0.1746615,-0.587993,1.956881,0.03371109,0.08855844,1.277253,0.9988344,286.45,41.43255,303.5222
5,1.544447,-0.4640189,-0.2321367,-0.1714354,4.618237,3.121502,-2.461558,-1.148836,0.2720017,0,0,11.03617,19.48191,-0.1165902,0.05051732,0.08362857,-0.4646928,4.491543,-0.5267243,-0.06493378,0.02014963,0.1203493,-0.5884585,1.956697,0.03457848,0.0883809,1.277906,1.001624,286.377,41.12856,304.0748
5,1.555558,-0.4939751,-0.2175117,-0.1917138,4.621857,3.121274,-2.455022,-1.145913,0.2628666,0,0,10.99707,18.92473,-0.1461336,0.001435637,0.1305875,-0.4616036,4.491802,-0.5245184,-0.08516769,0.04257962,0.1119561,-0.5874348,1.958929,0.03441869,0.08794967,1.27941,1.004498,286.1437,41.13917,304.127
5,1.566669,-0.5674387,-0.2370435,-0.2008927,4.626007,3.12219,-2.44599,-1.142353,0.3211276,0,0,10.98729,18.79765,-0.154139,0.08119404,0.1883798,-0.4597506,4.503729,-0.5331185,-0.09867311,0.09060335,0.1300992,-0.5852765,1.963795,0.0319803,0.08737284,1.281596,1.007395,285.717,41.56613,303.5876
5,1.577781,-0.6461275,-0.2412558,-0.1611928,4.62833,3.124151,-2.435921,-1.138863,0.3142895,0,0,10.99707,19.20821,-0.1117065,0.1334192,0.156245,-0.4612835,4.511118,-0.5399205,-0.06756507,0.06605166,0.1660912,-0.5820999,1.963418,0.03207032,0.08680659,1.284218,1.010378,285.1416,42.47422,302.4741
5,1.588892,-0.6704562,-0.2559176,-0.1226594,4.630812,3.126253,-2.427481,-1.133447,0.490519,0,0,11.03617,20.10753,-0.09681975,0.08440007,0.1613476,-0.45908,4.512319,-0.5402917,-0.04289319,0.01809312,0.2075103,-0.5785142,1.960554,0.03431457,0.08632114,1.286972,1.01343,284.4507,43.71049,301.0694
5,1.600003,-0.6863184,-0.2750319,-0.1085929,4.633794,3.128602,-2.419158,-1.12945,0.3594517,0,0,11.1046,21.4565,-0.0997514,0.09070432,0.1965412,-0.4568392,4.518344,-0.5444924,-0.06307246,0.01924734,0.2140783,-0.5758883,1.960759,0.03543362,0.08587569,1.289759,1.016702,283.8931,44.75464,299.9614
5,1.611114,-0.6948585,-0.2815466,-0.1202241,4.637154,3.129824,-2.411135,-1.128299,0.1005908,0,0,11.19257,22.80547,-0.09297439,0.1097451,0.2455544,-0.4541116,4.52756,-0.5519772,-0.07162517,0.01928548,0.2098955,-0.5737519,1.961535,0.03580753,0.0853658,1.292637,1.020112,283.556,45.6323,299.1354
5,1.622225,-0.6906685,-0.2784915,-0.1383749,4.64074,3.130631,-2.40358,-1.125854,0.220934,0,0,11.30987,24.00782,-0.1097599,0.07343733,0.2871301,-0.4500678,4.532788,-0.5550392,-0.06895528,0.01703641,0.1512822,-0.5739655,1.961693,0.03639742,0.08465731,1.295581,1.023564,283.2087,46.54787,298.3134
5,1.633336,-0.7013577,-0.2893862,-0.1616835,4.645012,3.131547,-2.395431,-1.1232,0.238692,0,0,11.44673,25.08309,-0.1470541,0.008472353,0.2968184,-0.4460976,4.532777,-0.5522056,-0.0658927,0.01806229,0.1352826,-0.5728145,1.962101,0.03660222,0.08371415,1.298491,1.026894,282.7816,47.27775,297.5186
5,1.644447,-0.7205604,-0.304592,-0.1870575,4.64979,3.132385,-2.38677,-1.120713,0.2234139,0,0,11.59335,25.91398,-0.2175529,-0.05851731,0.2822437,-0.442309,4.529981,-0.5449608,-0.07266094,0.04781409,0.07989078,-0.5738547,1.965011,0.03517503,0.08268808,1.301273,1.030096,282.2922,47.80948,296.7184
5,1.655559,-0.7259468,-0.2993807,-0.1987994,4.653637,3.132861,-2.378587,-1.117197,0.3175418,0,0,11.74976,26.11926,-0.2280341,-0.02233842,0.3015961,-0.4394935,4.537307,-0.5486666,-0.08966365,0.08194857,0.0703915,-0.5732065,1.968529,0.03384638,0.0817191,1.303818,1.033165,281.7846,48.411,295.8359
5,1.66667,-0.7164178,-0.2715289,-0.185222,4.656198,3.133231,-2.370955,-1.113662,0.3184963,0,0,11.85728,25.71848,-0.1096046,0.07124031,0.3105651,-0.4383558,4.550155,-0.5630136,-0.0916419,0.08731031,0.08531399,-0.5717328,1.970564,0.03323172,0.08089554,1.306068,1.036169,281.2988,48.82133,295.2067
5,1.677781,-0.7037009,-0.2490421,-0.1822614,4.658469,3.132992,-2.363781,-1.111144,0.2256414,0,0,11.92571,24.73118,-0.06923527,0.1053353,0.2890574,-0.4374242,4.55772,-0.5704281,-0.08829947,0.09052318,0.1012627,-0.569892,1.972345,0.03262053,0.08027325,1.308057,1.039177,280.8902,48.8441,295.0436
5,1.688892,-0.6813964,-0.2480593,-0.2015187,4.662448,3.132902,-2.356974,-1.108799,0.2105947,0,0,11.95504,23.34311,-0.07779221,0.1426697,0.2785723,-0.4365997,4.566994,-0.5774359,-0.08167924,0.06606308,0.1364087,-0.5672501,1.972079,0.03341761,0.07987552,1.309874,1.042174,280.6157,48.7522,295.0879
5,1.700003,-0.6568618,-0.2661697,-0.2120956,4.666845,3.133483,-2.350466,-1.106272,0.2271761,0,0,11.94526,21.98436,-0.0916525,0.1394872,0.2786666,-0.4346902,4.573977,-0.5821742,-0.07090739,0.05646547,0.1533787,-0.5649002,1.972469,0.03344797,0.07970761,1.311616,1.045175,280.469,48.57695,295.2398
5,1.711114,-0.657893,-0.2811417,-0.2183492,4.671202,3.134273,-2.34293,-1.103615,0.2388918,0,0,11.89638,20.65494,-0.0992735,0.09478956,0.2636944,-0.4322875,4.576123,-0.5827899,-0.06442476,0.06390856,0.1596967,-0.563004,1.974141,0.03247725,0.07980897,1.313383,1.048181,280.3101,48.30486,295.5266
5,1.722225,-0.6653622,-0.2704433,-0.2098945,4.674651,3.134632,-2.335211,-1.100857,0.2480387,0,0,11.80841,19.35484,-0.1143298,0.05435982,0.2509145,-0.4298369,4.577433,-0.5821609,-0.05898639,0.08094256,0.1649441,-0.5609602,1.976705,0.03080132,0.08007526,1.315118,1.051125,279.9762,48.57931,295.4192
5,1.733337,-0.6525563,-0.2671051,-0.1993057,4.677805,3.135227,-2.328412,-1.096747,0.371509,0,0,11.67155,18.07429,-0.08361769,0.08848414,0.2220173,-0.4298001,4.583949,-0.5880563,-0.06210075,0.07459626,0.177774,-0.5584984,1.977952,0.03064366,0.08035946,1.316737,1.05402,279.562,49.45367,294.7664
5,1.744448,-0.6173903,-0.2690957,-0.1983376,4.681477,3.135753,-2.322715,-1.093372,0.3032808,0,0,11.51515,16.83285,-0.03869386,0.1427188,0.2378115,-0.4290693,4.594794,-0.5989665,-0.04927482,0.05113825,0.1926179,-0.5558486,1.977364,0.03127909,0.08052697,1.318221,1.056942,279.218,50.31287,294.0882
5,1.755559,-0.5832981,-0.2657169,-0.1920876,4.684984,3.13624,-2.317285,-1.09126,0.1887159,0,0,11.36852,15.65983,-0.006723225,0.1853035,0.2334296,-0.4289351,4.605073,-0.6091403,-0.0427147,0.0447663,0.2138738,-0.5529245,1.977912,0.03103541,0.08053634,1.319624,1.05981,278.9882,50.64697,293.8483
5,1.76667,-0.4951505,-0.1961854,-0.1972282,4.686433,3.134543,-2.314631,-1.089371,0.1690396,0,0,11.24145,14.53568,0.02723071,0.1959686,0.2129686,-0.429113,4.612583,-0.6175032,-0.04149693,0.03521364,0.2351874,-0.549571,1.977879,0.0314735,0.08035643,1.320975,1.062539,278.767,50.74363,293.7954
5,1.777781,-0.4291338,-0.1471978,-0.2033992,4.688721,3.13342,-2.311064,-1.08656,0.2533994,0,0,11.1437,13.45064,0.01996219,0.1650038,0.2438374,-0.426379,4.619042,-0.6232204,-0.04389045,0.01813913,0.2139336,-0.5479518,1.977092,0.03284104,0.07998689,1.322227,1.065079,278.4914,50.81252,293.7173
5,1.788892,-0.3899877,-0.1255863,-0.2098961,4.690503,3.131569,-2.308686,-1.085971,0.0494558,0,0,11.07527,12.40469,-0.007748559,0.1437196,0.2482452,-0.4245057,4.625208,-0.6275864,-0.05050766,0.01918844,0.1884202,-0.5467283,1.977712,0.03311774,0.07946734,1.323358,1.067403,278.2401,50.76701,293.683
5,1.800003,-0.3303157,-0.1371559,-0.2185136,4.693748,3.130827,-2.306957,-1.081918,0.3677926,0,0,11.03617,11.39785,-0.05910398,0.1140193,0.2229741,-0.4233467,4.62811,-0.6279132,-0.05918311,0.04580062,0.1596842,-0.5458425,1.980315,0.03184209,0.07897348,1.324206,1.069468,277.983,51.52542,292.7721
5,1.811115,-0.2918937,-0.1572778,-0.2216547,4.697192,3.130678,-2.304919,-1.079477,0.2174793,0,0,11.02639,10.43011,-0.08804119,0.100261,0.2029085,-0.4225057,4.631992,-0.6294645,-0.05697751,0.06283147,0.1606963,-0.5439315,1.982402,0.03058774,0.07859737,1.324691,1.07155,277.765,52.06984,292.1093
5,1.822226,-0.2290885,-0.1614705,-0.2409995,4.700859,3.129583,-2.304531,-1.076884,0.2331926,0,0,11.02639,9.608994,-0.102548,0.0568184,0.1198047,-0.4232072,4.628139,-0.6243131,-0.05364278,0.05220335,0.1809276,-0.5412624,1.982785,0.03076058,0.07840839,1.324728,1.073657,277.568,52.26461,291.8795
5,1.833337,-0.2142837,-0.1466232,-0.2550275,4.703915,3.127864,-2.302372,-1.073372,0.3169907,0,0,11.02639,8.934506,-0.1144648,0.08888669,0.08695409,-0.4245569,4.632367,-0.6266418,-0.06313342,0.06503161,0.1873881,-0.5388368,1.984619,0.03031876,0.07836766,1.324244,1.075795,277.3877,51.78259,292.4351
5,1.844448,-0.2123018,-0.1125825,-0.26172,4.706092,3.125575,-2.300126,-1.071791,0.1397349,0,0,11.01662,8.426197,-0.1111193,0.1357222,0.09983678,-0.4251625,4.640687,-0.633108,-0.06262967,0.09174781,0.2320758,-0.5348485,1.988224,0.0278841,0.0783963,1.323267,1.077961,277.2962,50.29255,294.0544
5,1.855559,-0.2092157,-0.07737131,-0.2567118,4.707637,3.123396,-2.297891,-1.067387,0.4000064,0,0,10.97752,8.074292,-0.06081356,0.2005965,0.1209569,-0.4260866,4.653274,-0.6457633,-0.05604209,0.1034797,0.250115,-0.5312868,1.991191,0.02579511,0.07850023,1.321824,1.080014,277.2766,48.01593,296.4405
5,1.86667,-0.2274582,-0.01861985,-0.2305262,4.707281,3.120932,-2.294834,-1.064721,0.2390041,0,0,10.94819,7.99609,0.03614068,0.2686834,0.1108413,-0.4286059,4.664474,-0.6596922,-0.0537344,0.1386324,0.2542873,-0.5284052,1.996409,0.02175004,0.07871529,1.320176,1.082209,277.4322,44.76345,299.7776
5,1.877781,-0.2106883,0.07754716,-0.2047869,4.705111,3.116967,-2.292966,-1.062756,0.1766431,0,0,10.91887,8.211144,0.09590392,0.2834947,0.1221619,-0.4294496,4.673656,-0.6710916,-0.05254722,0.133333,0.2702787,-0.5247077,1.998881,0.02022192,0.07910708,1.318589,1.084628,277.6686,41.74903,302.8858
5,1.888893,-0.1543111,0.1120451,-0.1828765,4.704079,3.11456,-2.292891,-1.060292,0.2229657,0,0,10.88954,8.699903,0.0862193,0.2750186,0.1094347,-0.4303956,4.679994,-0.677412,-0.04626401,0.1098684,0.2681352,-0.5218102,1.999529,0.01993243,0.07965564,1.31726,1.08715,277.9224,39.78727,305.0298
5,1.900004,-0.1243232,0.08353186,-0.1667487,4.704953,3.113579,-2.292523,-1.059985,0.02543084,0,0,10.87977,9.41349,0.02108559,0.2708882,0.09072588,-0.4319924,4.685833,-0.6805252,-0.02498056,0.1076461,0.2668834,-0.5189691,2.001301,0.01795929,0.08032727,1.316361,1.089604,278.2299,39.04339,306.0168
5,1.911115,-0.1284746,0.05910671,-0.1569602,4.706324,3.112243,-2.290622,-1.060628,-0.05961849,0,0,10.90909,10.24438,-0.000417918,0.2571242,0.067408,-0.4334747,4.69031,-0.6838114,-0.003495947,0.1001568,0.2912134,-0.5147262,2.003171,0.01576618,0.08110438,1.315977,1.091787,278.4447,39.39845,305.937
5,1.922226,-0.1411439,0.05505598,-0.127054,4.706229,3.111674,-2.288603,-1.059287,0.1223543,0,0,10.92864,10.91887,-0.008482859,0.2381692,-0.01248284,-0.4369976,4.689707,-0.6828353,0.01260705,0.09799236,0.3059891,-0.5107591,2.005145,0.01333844,0.081893,1.31589,1.093528,278.3346,40.97093,304.6515
5,1.933337,-0.1581891,0.08190787,-0.09633727,4.704714,3.110178,-2.286246,-1.056603,0.2435069,0,0,10.95797,11.38807,0.002918586,0.2031036,-0.04887401,-0.4390237,4.689442,-0.6829972,0.02221107,0.09050673,0.3112406,-0.5072156,2.006528,0.0116223,0.08247101,1.31589,1.095078,278.0483,43.26467,302.7583
5,1.944448,-0.1326491,0.08731037,-0.09859866,4.704531,3.108548,-2.285584,-1.055458,0.1021889,0,0,10.97752,11.6129,0.04949402,0.1328141,-0.07816483,-0.4398413,4.68455,-0.6808422,0.0114722,0.09265861,0.3006785,-0.5042525,2.008774,0.009908291,0.08260976,1.315873,1.096669,277.7948,45.20931,301.1775
5,1.955559,-0.1124931,0.08181173,-0.1273755,4.705492,3.106256,-2.284967,-1.054455,0.09066195,0,0,10.95797,11.48583,0.07048398,0.0519085,-0.108369,-0.4401683,4.677384,-0.6759071,-0.007672027,0.09699303,0.301901,-0.5009086,2.011204,0.008565525,0.0823618,1.315814,1.098314,277.6833,46.34609,300.0514
5,1.966671,-0.1071777,0.06674311,-0.1475043,4.706826,3.104376,-2.283977,-1.055547,-0.1009718,0,0,10.90909,11.03617,0.005410939,0.03497653,-0.1175245,-0.4415074,4.675344,-0.6717891,0.006334566,0.1161327,0.3113296,-0.4971131,2.015344,0.004343616,0.08188329,1.31576,1.100065,277.6862,46.8295,299.4001
5,1.977782,-0.1103395,0.04856168,-0.154803,4.70823,3.102863,-2.282459,-1.055203,0.0320648,0,0,10.86022,10.35191,-0.02424619,0.04667384,-0.09596959,-0.4423031,4.676682,-0.6716463,0.02355116,0.1384514,0.3217852,-0.4932403,2.02031,-0.000978978,0.08134686,1.31563,1.101814,277.5542,46.96725,299.0544
5,1.988893,-0.1284787,0.04625092,-0.1675037,4.709298,3.100928,-2.280478,-1.054277,0.08389924,0,0,10.79179,9.452591,-0.04325704,0.0775415,-0.07870349,-0.4437157,4.679883,-0.6735081,0.0182815,0.1310324,0.3314336,-0.489261,2.022768,-0.003151319,0.08093769,1.315336,1.10366,277.3257,46.90362,298.9247
5,2.000004,-0.1528744,0.02062186,-0.164006,4.710823,3.099994,-2.277933,-1.05325,0.09287904,0,0,10.73314,8.455523,-0.07783692,0.1519751,-0.01113965,-0.4446387,4.690484,-0.6809825,-0.02817892,0.1919657,0.3519653,-0.4848029,2.03134,-0.008599347,0.08075805,1.314851,1.105632,277.1524,46.66384,299.0648
5,2.011115,-0.1697768,-0.0199201,-0.1657237,-1.570297,3.099438,-2.275593,-1.052397,0.07715207,0,0,10.70381,7.595308,-0.07977041,0.206251,0.007127598,-0.4466611,4.698042,-0.6868724,-0.05237225,0.22086,0.3734274,-0.4801152,2.038786,-0.01393819,0.08083567,1.314224,1.107742,277.0808,46.13802,299.6017
5,2.022226,-0.1740017,-0.03920232,-0.1761967,-1.567994,3.098392,-2.273534,-1.051577,0.07417803,0,0,10.68426,6.959922,-0.06352928,0.266885,0.03273836,-0.448911,4.708817,-0.6964638,-0.05638733,0.2209381,0.4011586,-0.4748139,2.04446,-0.01824825,0.08116646,1.31356,1.110096,277.068,45.52063,300.3277
5,2.033337,-0.1750776,-0.04775723,-0.1814522,-1.56609,3.096904,-2.271308,-1.0516,-0.002701749,0,0,10.69404,6.549365,-0.05781625,0.3232181,0.07546048,-0.4506228,-1.562036,-0.7071188,-0.05530318,0.2209381,0.4032796,-0.4703201,2.050039,-0.02264433,0.08165565,1.312954,1.112652,277.0612,44.91459,301.1422
5,2.044448,-0.1889131,-0.01334783,-0.1390908,-1.566918,3.096132,-2.268797,-1.051814,-0.01954625,0,0,10.71359,6.353861,0.01701844,0.4743648,0.08596464,-0.45642,-1.542014,-0.7277666,-0.0829503,0.2412844,0.4002956,-0.4661443,2.057968,-0.02782338,0.08216448,1.312417,1.115043,277.0118,44.36389,301.9477
5,2.055559,-0.2124388,0.01322306,-0.1371265,-1.566732,3.094066,-2.265593,-1.051587,0.02088744,0,0,10.75269,6.334311,0.04457507,0.4690546,0.06763664,-0.4596765,-1.533763,-0.736518,-0.07671317,0.2231325,0.3906855,-0.462198,2.062365,-0.03110732,0.08263806,1.311989,1.117196,276.917,43.77655,302.7147
5,2.06667,-0.2295627,0.04414446,-0.1266833,-1.567281,3.092252,-2.262404,-1.051204,0.03477181,0,0,10.78201,6.422287,0.06999059,0.3614348,0.06396984,-0.4593484,-1.532365,-0.7394094,-0.03539611,0.2229258,0.364752,-0.4591497,2.067999,-0.03718971,0.08309361,1.311713,1.119089,276.8562,43.60874,302.9826
5,2.077781,-0.2273677,0.03139868,-0.1233894,-1.566285,3.091327,-2.260153,-1.050463,0.06747736,0,0,10.74291,6.764418,0.06119712,0.2453821,0.04667131,-0.4586049,-1.534661,-0.7377036,-0.02381652,0.2164656,0.3518768,-0.4557958,2.073216,-0.04203081,0.08348601,1.311682,1.120924,276.871,44.54375,302.172
5,2.088892,-0.2325438,-0.01555096,-0.1304281,-1.563852,3.091031,-2.257419,-1.050438,0.001751478,0,0,10.62561,7.40958,0.004528433,0.1432142,0.03509877,-0.4572141,-1.538091,-0.7326322,-0.02612518,0.1951488,0.3412894,-0.4523571,2.076807,-0.04493791,0.08383486,1.311947,1.122897,276.8041,45.47855,301.3306
5,2.100003,-0.2387792,-0.06249145,-0.1353292,-1.561093,3.091192,-2.25457,-1.051417,-0.08946934,0,0,10.44966,8.308896,-0.03957985,0.1007431,-0.005091194,-0.458273,-1.536974,-0.7321914,-0.01453452,0.1631396,0.3401758,-0.448651,2.078658,-0.04682769,0.08414596,1.312498,1.124973,276.6573,46.84015,300.0718
5,2.111114,-0.2344763,-0.08817188,-0.1500387,-1.558369,3.09059,-2.252032,-1.051034,0.03576827,0,0,10.1955,9.364614,-0.05989864,0.06461199,-0.02110132,-0.4585713,-1.54131,-0.7267308,0.00429029,0.1097829,0.3241294,-0.4454787,2.077905,-0.04675898,0.08434451,1.313171,1.127034,276.3475,48.86132,298.1794
5,2.122225,-0.2068021,-0.09996224,-0.1702697,-1.555524,3.089554,-2.250676,-1.05085,0.0164084,0,0,9.931575,10.38123,-0.07987647,0.05388208,0.01630357,-0.4575902,-1.538803,-0.7274004,-0.01072212,0.1108845,0.3125402,-0.4425268,2.08131,-0.04925783,0.08436377,1.313801,1.128945,275.983,50.65785,296.4684
5,2.133336,-0.1909512,-0.1066035,-0.2064949,-1.552225,3.087533,-2.24858,-1.051156,-0.02804421,0,0,9.657869,11.30987,-0.0957584,0.06665137,0.02711474,-0.4578554,-1.535332,-0.7290353,-0.03842162,0.1152448,0.3106434,-0.4392453,2.085311,-0.05148023,0.08417982,1.314325,1.130674,275.65,51.83531,295.3051
5,2.144447,-0.1965443,-0.06429887,-0.2398667,-1.550436,3.084162,-2.24611,-1.052337,-0.1077261,0,0,9.374389,12.16031,-0.113838,0.0847801,0.0283631,-0.4586645,-1.531988,-0.7300859,-0.05739113,0.1643251,0.3139127,-0.4358551,2.094177,-0.05799726,0.08386938,1.314695,1.132303,275.3309,52.62458,294.4343
5,2.155558,-0.2083956,-0.06036302,-0.271816,-1.547495,3.081392,-2.243129,-1.05164,0.06454862,0,0,9.120235,12.86413,-0.09790723,0.04001752,0.02917996,-0.4577809,-1.533733,-0.7279948,-0.09564751,0.2198375,0.3013663,-0.433136,2.104456,-0.06498965,0.08357213,1.314816,1.133837,274.9885,53.18425,293.713
5,2.166669,-0.2264387,-0.09147005,-0.2874694,-1.543388,3.079996,-2.239973,-1.051119,0.04689757,0,0,8.924732,13.28446,-0.05155209,0.1186115,0.08976994,-0.4580227,-1.523175,-0.7385028,-0.1061442,0.2507794,0.3056638,-0.4298417,2.114307,-0.07237673,0.08349325,1.314674,1.135478,274.6644,53.0794,293.6096
5,2.17778,-0.2325471,-0.1219442,-0.2360496,-1.540922,3.080803,-2.237134,-1.050542,0.05238754,0,0,8.817204,13.32356,0.01505744,0.3442771,0.1271873,-0.4639349,-1.499839,-0.7618356,-0.1256148,0.3127512,0.3664434,-0.4241126,2.129137,-0.08379876,0.08384015,1.314322,1.137473,274.4088,53.12242,293.4307
5,2.188891,-0.2419638,-0.1301456,-0.193333,-1.539152,3.081445,-2.234152,-1.050326,0.01943329,0,0,8.80743,12.97165,0.05880815,0.4603668,0.1175972,-0.4695595,-1.484061,-0.7780555,-0.1148756,0.2914353,0.3844927,-0.419532,2.135691,-0.08899006,0.08464348,1.31378,1.139844,274.1727,52.99427,293.6324
5,2.200002,-0.2576552,-0.1627949,-0.1429282,-1.537001,3.083514,-2.230787,-1.050632,-0.02818435,0,0,8.86608,12.31672,0.1064941,0.5445997,0.07060355,-0.4763111,-1.471701,-0.7917194,-0.08186243,0.2998098,0.378865,-0.4158755,2.144949,-0.09780405,0.08571567,1.313072,1.142368,274.0123,52.36678,294.5721
5,2.211113,-0.2734814,-0.1903334,-0.1181551,-1.534043,3.084678,-2.22682,-1.050586,0.004536705,0,0,8.954058,11.56403,0.07259348,0.5236381,-0.04532747,-0.4827698,-1.471881,-0.7910827,-0.07562673,0.3050757,0.3596299,-0.4128773,2.154804,-0.1061179,0.08672562,1.312241,1.144662,274.0304,52.15997,295.2361
5,2.222224,-0.3462587,-0.1032862,-0.1229279,-1.53454,3.082379,-2.220329,-1.050209,0.03448867,0,0,9.07136,10.72336,0.0418179,0.433041,-0.01445374,-0.4834745,-1.467949,-0.7939381,-0.0810722,0.3306184,0.3351287,-0.4105502,2.166837,-0.1160057,0.08739153,1.311387,1.146609,274.1078,51.89508,295.9322
5,2.233335,-0.324954,-0.04516212,-0.06170593,-1.536704,3.0828,-2.217661,-1.049693,0.04685491,0,0,9.208211,9.804497,0.03161316,0.3128612,-0.07968374,-0.4850804,-1.471975,-0.7907226,-0.06811976,0.3199583,0.358475,-0.4060612,2.176457,-0.1244493,0.087502,1.310629,1.148231,274.1053,50.96895,297.1136
5,2.244446,-0.2770494,-0.06551017,-0.09471416,-1.534171,3.082052,-2.216264,-1.047459,0.2041653,0,0,9.384165,8.817204,-0.06469774,0.194837,-0.1187126,-0.4860077,-1.478654,-0.7810096,-0.04485554,0.2751261,0.3583506,-0.4022678,2.181608,-0.1295108,0.08711326,1.310103,1.149593,273.9734,49.05973,298.9156
5,2.255557,-0.255874,-0.04965575,-0.1183566,-1.532685,3.08038,-2.214132,-1.051183,-0.3419398,0,0,9.569892,7.790812,-0.1176721,0.1223338,-0.06739512,-0.4848604,-1.478022,-0.7785254,-0.01534671,0.2366207,0.3400381,-0.3995216,2.185364,-0.1337437,0.0865868,1.310111,1.151028,273.9514,47.97899,299.6298
5,2.266668,-0.2859213,-0.001954354,-0.1368136,-1.532791,3.077766,-2.210224,-1.052986,-0.1616872,0,0,9.745846,6.832844,-0.1830846,0.00107298,-0.1055947,-0.483727,-1.487837,-0.7656673,-0.021145,0.1971593,0.302867,-0.39766,2.188497,-0.1362622,0.08601535,1.310644,1.152613,273.7989,51.55893,295.8378
5,2.277779,-0.2934167,-0.006322205,-0.1420595,-1.531425,3.0762,-2.205858,-1.052276,0.06593719,0,0,9.912024,5.99218,-0.1809264,-0.01918176,-0.09821369,-0.4840817,-1.490348,-0.7615647,-0.04588706,0.2195507,0.2679045,-0.3960792,2.197116,-0.1426618,0.08545019,1.311205,1.153914,273.2712,57.88934,289.3592
5,2.28889,-0.2825711,-0.023011,-0.1036062,-1.530567,3.07694,-2.203227,-1.050323,0.1777595,0,0,10.05865,5.268817,-0.0802355,0.08707197,-0.04113631,-0.4862368,-1.479943,-0.7736821,-0.0369732,0.2706814,0.2901096,-0.3926783,2.210636,-0.1550168,0.08510616,1.311605,1.155246,272.8011,66.04512,280.9442
5,2.300001,-0.2781238,-0.03220645,-0.05986018,-1.530573,3.078017,-2.200513,-1.049657,0.05948413,0,0,10.1955,4.652982,-0.02797331,0.1456162,-0.04243025,-0.4895167,-1.474596,-0.7800686,-0.001760803,0.2737517,0.2951199,-0.3898101,2.220232,-0.1649959,0.0852161,1.311859,1.156757,272.6065,71.68721,275.0541
5,2.311112,-0.3025184,-0.03848226,-0.03523108,-1.530155,3.078609,-2.196361,-1.05134,-0.1541876,0,0,10.31281,4.125122,0.02198254,0.159449,-0.05980606,-0.4917175,-1.473703,-0.7824812,0.03448805,0.2757378,0.2990673,-0.3869413,2.229114,-0.1747388,0.08578334,1.31202,1.158274,272.5064,73.82977,272.9156
5,2.322223,-0.3365924,-0.01705453,-0.006540352,-1.531133,3.079105,-2.191448,-1.051448,-0.008478746,0,0,10.42033,3.714565,0.1044811,0.1190722,-0.1340352,-0.4945341,-1.479663,-0.7811211,0.04712318,0.3129149,0.2658645,-0.385973,2.242182,-0.1878812,0.08656312,1.312016,1.159637,272.468,79.06183,267.9564
5,2.333334,-0.3271535,-0.01954163,-0.05131223,-1.529468,3.077332,-2.188045,-1.050015,0.1309264,0,0,10.48876,3.489736,0.1750952,0.0372099,-0.2231966,-0.4968249,-1.490681,-0.7754821,-0.0331123,0.3376296,0.2175233,-0.3860976,2.254116,-0.1956033,0.08732055,1.311744,1.160917,272.5258,87.15715,260.1753
5,2.344445,-0.2867633,-0.05190203,-0.1150855,-1.526028,3.075469,-2.186193,-1.049199,0.07359562,0,0,10.51809,3.44086,0.1752109,-0.01079276,-0.1998923,-0.4966284,-1.495433,-0.7732688,-0.0358538,0.3387985,0.2686817,-0.3822137,2.266572,-0.2066424,0.08792038,1.311228,1.162179,272.6083,91.99507,255.5328
5,2.355556,-0.1334092,-0.1633448,-0.2552557,-1.516819,3.072565,-2.189965,-1.050868,-0.1530938,0,0,10.50831,3.548388,0.06525463,-0.06173952,-0.2215854,-0.4970939,-1.503033,-0.7630441,-0.02312225,0.329151,0.2685956,-0.379608,2.276333,-0.2160255,0.0883458,1.310644,1.163214,272.6471,89.83995,257.7306
5,2.366668,-0.06089678,-0.220998,-0.2997273,-1.511081,3.071572,-2.191231,-1.052641,-0.1606124,0,0,10.45943,3.753665,-0.04643939,-0.001327407,-0.06506529,-0.4952926,-1.49413,-0.766499,-0.01785152,0.346137,0.2546692,-0.3784853,2.288802,-0.2275639,0.08872438,1.310191,1.163814,272.432,84.5004,263.0152
5,2.377779,0.01794806,-0.2282003,-0.3041844,-1.506708,3.070364,-2.194104,-1.058181,-0.5055953,0,0,10.39101,4.193548,-0.0456165,0.09002376,0.03212621,-0.4955418,-1.481945,-0.7772417,-0.001642823,0.2458389,0.2035684,-0.3776916,2.287531,-0.2268486,0.08917006,1.309931,1.164132,271.9999,82.21502,265.2809
5,2.38889,0.04665083,-0.2131872,-0.3044007,-1.503502,3.06883,-2.195125,-1.055568,0.242606,0,0,10.31281,4.887586,-0.05376544,0.1282503,0.07596564,-0.4957868,-1.475567,-0.7820373,-0.0003409237,0.1764816,0.1397628,-0.3780943,2.286692,-0.2260097,0.08977005,1.30951,1.1641,271.3378,92.88741,254.6067
5,2.400001,0.05736896,-0.2108239,-0.282084,-1.500221,3.068188,-2.196083,-1.056161,-0.05724576,0,0,10.21505,5.826003,-0.02622043,0.1726362,0.1920105,-0.4938806,-1.461809,-0.7947088,-0.02493799,0.09330799,0.04424722,-0.380439,2.280049,-0.2187132,0.09053145,1.308815,1.164137,271.0776,105.7318,241.8063
5,2.411112,0.06384921,-0.1826112,-0.2248206,-1.498902,3.068427,-2.196995,-1.053891,0.2078337,0,0,10.09775,6.901272,0.05557671,0.1981907,0.1563164,-0.4956457,-1.457143,-0.8022312,-0.02749846,0.06023622,0.01023671,-0.3811069,2.27958,-0.2178836,0.09137674,1.307776,1.164169,270.9792,108.3476,239.3433
5,2.422223,0.0447568,-0.1415853,-0.153735,-1.499357,3.069209,-2.196882,-1.053097,0.07048833,0,0,10,8.084066,0.06884755,0.1653514,0.08368422,-0.4973118,-1.458369,-0.8024142,-0.02787076,0.02396908,-0.016329,-0.3820113,2.276248,-0.2144628,0.0922533,1.30646,1.164392,270.8586,98.50697,249.3791
5,2.433334,0.005268946,-0.1290473,-0.1632996,-1.496938,3.068105,-2.195564,-1.052654,0.03983697,0,0,9.931575,9.217987,0.05160891,0.1302905,0.06241446,-0.4974886,-1.457519,-0.8030243,0.02150268,0.0302442,0.02263915,-0.3806307,2.279132,-0.2190402,0.09306411,1.304986,1.164737,270.7786,77.51754,270.569
5,2.444445,-0.007441774,-0.1568795,-0.172606,-1.493263,3.067867,-2.195116,-1.051369,0.1170856,0,0,9.902249,10.2346,0.05074503,0.01124708,-0.03485487,-0.4973592,-1.469249,-0.7932073,0.02692477,0.02598542,0.03538326,-0.3798541,2.279999,-0.2203412,0.09369273,1.303459,1.165062,270.9352,57.79601,290.4648
5,2.455556,0.009654671,-0.1749765,-0.1778298,-1.489904,3.067728,-2.19586,-1.05011,0.1140512,0,0,9.912024,11.1046,0.05139498,-0.06000373,-0.07980198,-0.4967946,-1.477016,-0.7870853,0.002716002,0.04956011,0.05898721,-0.3788773,2.284439,-0.2234669,0.09404933,1.302074,1.165384,271.2066,45.40348,302.9824
5,2.466667,0.0566251,-0.2175821,-0.1967871,-1.485106,3.067788,-2.198171,-1.050839,-0.06747437,0,0,9.951125,11.71066,0.01388327,-0.08120331,-0.1072874,-0.4971493,-1.482689,-0.7809581,-0.01223684,0.05812903,0.05057777,-0.3788293,2.28721,-0.2254278,0.09417645,1.301017,1.165812,271.3198,30.65779,317.7462
5,2.477778,0.09915558,-0.2101107,-0.2129658,-1.481704,3.066754,-2.200595,-1.05212,-0.1164575,0,0,9.990225,12.02346,-0.01763594,-0.09517817,-0.04529678,-0.4948915,-1.481904,-0.7802066,-0.0178354,0.06874344,0.0154538,-0.3801513,2.289591,-0.2272193,0.09414009,1.300337,1.166143,271.3488,15.50165,332.8188
5,2.488889,0.1098191,-0.2229621,-0.2246073,-1.47763,3.066181,-2.202092,-1.053659,-0.1399261,0,0,10.02933,12.04301,-0.1288689,-0.1780108,-0.09157819,-0.4931716,-1.492593,-0.7660308,-0.03648422,0.09105602,-0.05580328,-0.3835964,2.292226,-0.2286689,0.09402321,1.299958,1.166207,271.3168,3.089529,345.0883
5,2.5,0.07148722,-0.273625,-0.2762442,-1.470772,3.065122,-2.201423,-1.053744,-0.00682541,0,0,10.05865,11.79863,-0.1742816,-0.09710143,-0.05159836,-0.4938172,-1.489283,-0.7655291,-0.05255918,0.1379374,-0.08664203,-0.3861472,2.299103,-0.2338908,0.0939199,1.299691,1.165942,271.2104,348.7339,359.2696
5,2.511111,0.07259566,-0.2605647,-0.2507616,-1.468617,3.064915,-2.202447,-1.052476,0.1156373,0,0,10.08798,11.34897,-0.03847814,0.03789608,-0.005352935,-0.4962471,-1.478722,-0.7792383,-0.05589628,0.1240851,-0.09618136,-0.3876188,2.300602,-0.234535,0.09397356,1.299376,1.165468,271.1117,334.2042,13.64248
5,2.522222,0.08536279,-0.2188395,-0.2233435,-1.466191,3.064346,-2.203343,-1.050067,0.2191111,0,0,10.08798,10.86022,0.1193501,0.07281648,0.01061979,-0.4971797,-1.474736,-0.7895958,-0.04623642,0.1112898,-0.08239365,-0.3882436,2.302327,-0.2359454,0.09423033,1.298921,1.165112,271.1068,316.3907,31.40789
5,2.533333,0.09598199,-0.1906641,-0.1885676,-1.465743,3.064154,-2.205194,-1.051417,-0.1251622,0,0,10.05865,10.39101,0.1580559,0.11953,0.05094375,-0.4977959,-1.468117,-0.7984524,-0.04219715,0.07397407,-0.09088445,-0.3893808,2.30074,-0.2341092,0.09473958,1.298331,1.164995,271.3763,304.03,43.68542
5,2.544444,0.1097707,-0.1735598,-0.1876951,-1.463482,3.063321,-2.206818,-1.051496,-0.005947781,0,0,10.00978,9.960899,0.07685208,0.08281581,-0.1190029,-0.5024458,-1.478577,-0.7873146,-0.04113097,0.04735896,-0.07912699,-0.389768,2.299405,-0.2324487,0.09558187,1.297674,1.165025,271.5343,303.7414,43.91397
5,2.555555,0.1000498,-0.1534519,-0.1995468,-1.461124,3.06183,-2.207126,-1.052317,-0.07524416,0,0,9.951125,9.579668,0.03762308,0.07320133,-0.09210537,-0.5029172,-1.478115,-0.7868288,-0.01201208,0.04838663,-0.03676128,-0.3886783,2.301566,-0.2350285,0.09664837,1.29694,1.165112,271.6119,308.1846,39.62191
5,2.566666,0.1020603,-0.1225477,-0.199826,-1.459578,3.060152,-2.20811,-1.052122,0.01845589,0,0,9.902249,9.286413,0.0592978,0.001625694,-0.03067894,-0.499927,-1.479555,-0.7863982,-0.008615531,0.04522704,-0.01120729,-0.3879778,2.303216,-0.2363774,0.09781478,1.296122,1.165097,271.6757,313.6746,34.39933
5,2.577777,0.12654,-0.1203635,-0.2041868,-1.457131,3.05895,-2.210199,-1.050744,0.1256202,0,0,9.872923,9.081134,0.05216694,-0.05603327,0.02141088,-0.4966316,-1.48007,-0.7867103,-0.02037812,0.0580363,-0.02178025,-0.3887837,2.305604,-0.2379713,0.09893812,1.295203,1.16497,271.8179,315.4387,32.93993
5,2.588888,0.157456,-0.1062002,-0.1820367,-1.45584,3.058354,-2.212918,-1.051263,-0.0484457,0,0,9.853374,8.963832,0.02469128,-0.05608307,0.05144383,-0.4950433,-1.478599,-0.7873558,-0.02833701,0.05051549,-0.07603247,-0.3914522,2.304996,-0.2369012,0.09996822,1.294317,1.164874,272.0444,317.7916,30.84066
5,2.599999,0.1490227,-0.1167554,-0.167003,-1.453773,3.058229,-2.214334,-1.052342,-0.09815135,0,0,9.843597,8.924732,-0.0472838,-0.08241145,-0.02479556,-0.4963946,-1.485153,-0.7785187,-0.0436102,0.0739172,-0.1270766,-0.394804,2.306998,-0.2377779,0.1008224,1.293602,1.164919,272.2552,320.277,28.60428
5,2.61111,0.1203229,-0.134919,-0.1614562,-1.450778,3.057701,-2.214278,-1.05287,-0.04760227,0,0,9.853374,8.934506,-0.09335668,-0.06414507,-0.06382684,-0.4976899,-1.488885,-0.7727764,-0.03493381,0.1037274,-0.1229417,-0.3963178,2.312065,-0.2424209,0.1014604,1.292954,1.164905,272.3728,319.8131,29.2406
5,2.622221,0.0789194,-0.1562118,-0.1419596,-1.448216,3.058454,-2.213787,-1.051394,0.1351217,0,0,9.863148,8.954058,-0.02626065,0.007187594,-0.07797568,-0.5003957,-1.487181,-0.7760888,-0.01021352,0.1185858,-0.1050784,-0.3973404,2.316449,-0.2472527,0.1018269,1.292244,1.164812,272.3742,318.5299,30.64411
5,2.633332,0.06085981,-0.1561588,-0.1280424,-1.446406,3.058763,-2.214061,-1.049753,0.148747,0,0,9.892473,8.963832,0.03973594,-0.002451606,-0.08487812,-0.5009209,-1.488891,-0.7776169,-0.00569398,0.110116,-0.06993388,-0.3970704,2.319137,-0.2496109,0.1019106,1.291449,1.164714,272.478,317.69,31.5079
5,2.644443,0.06826229,-0.1433633,-0.1303063,-1.444581,3.058192,-2.215046,-1.049119,0.05693014,0,0,9.941349,8.963832,0.04814021,-0.05996983,-0.09149277,-0.4998311,-1.494886,-0.7733162,-0.02990986,0.1081419,-0.03669015,-0.3966949,2.322509,-0.2516258,0.1017592,1.290712,1.164716,272.7474,317.1503,31.9912
5,2.655554,0.08736029,-0.1273053,-0.1294694,-1.442776,3.057195,-2.216278,-1.050065,-0.08668599,0,0,10,8.944282,0.0002822354,-0.06953041,-0.07945105,-0.4994311,-1.497318,-0.7692075,-0.04448472,0.1284955,-0.006765366,-0.3963343,2.328478,-0.2561519,0.1013972,1.290125,1.164896,272.9529,316.1043,32.94473
5,2.666665,0.1063958,-0.07812525,-0.1171721,-1.442844,3.056035,-2.218002,-1.051113,-0.09497168,0,0,10.05865,8.905182,-0.03945134,0.02614852,0.005268693,-0.4997928,-1.487382,-0.7759503,-0.0378222,0.1285207,0.02299165,-0.3957026,2.332656,-0.2599898,0.1008957,1.289675,1.165173,273.0595,314.6401,34.2662
5,2.677776,0.09023885,-0.0001233146,-0.08369267,-1.445231,3.05465,-2.218234,-1.051529,-0.03726611,0,0,10.12708,8.856306,-0.02746986,0.07933338,0.03196721,-0.5008415,-1.481233,-0.7815834,-0.02851972,0.1177812,-0.004769824,-0.3968664,2.334352,-0.2615488,0.1003914,1.289293,1.165319,273.1873,313.1907,35.51986
5,2.688887,0.04323949,0.0542818,-0.05525456,-1.447181,3.053285,-2.216636,-1.052009,-0.0437153,0,0,10.20528,8.729228,-0.01559205,0.1165472,0.04689206,-0.5018823,-1.476691,-0.7859913,-0.03134781,0.08358826,-0.06966981,-0.3996893,2.3323,-0.2592521,0.1000383,1.288957,1.165207,273.3304,312.5898,35.94321
5,2.699998,0.0006637303,0.03593289,-0.0645439,-1.446459,3.05256,-2.215098,-1.050533,0.1352164,0,0,10.27371,8.494623,-0.0349552,0.04098115,0.034042,-0.5004826,-1.479871,-0.7821347,-0.02317347,0.07603311,-0.1059497,-0.4021363,2.332015,-0.2589871,0.09991057,1.288679,1.164966,273.3429,313.5969,34.86818
5,2.711109,-0.0001310222,-0.02683935,-0.05547909,-1.444316,3.053596,-2.215475,-1.048598,0.1758306,0,0,10.34213,8.172044,-0.09407201,-0.06851371,-0.01909181,-0.4989842,-1.489324,-0.7707814,-0.02409858,0.09948546,-0.1006605,-0.4034172,2.336498,-0.2628572,0.1000408,1.288567,1.164807,273.295,317.3604,31.13032
5,2.72222,0.008673117,-0.06910409,-0.01785731,-1.443151,3.055725,-2.216155,-1.048611,-0.002460358,0,0,10.39101,7.790812,-0.09409546,-0.1335174,-0.01181627,-0.4963525,-1.494693,-0.7649397,-0.03760424,0.1155758,-0.06861052,-0.4035898,2.341347,-0.2664317,0.10036,1.28879,1.164845,273.3224,320.9502,27.71987
5,2.733331,0.01927945,-0.04124446,-0.004275331,-1.443924,3.05577,-2.216865,-1.050565,-0.1783156,0,0,10.43011,7.42913,-0.08675493,-0.15373,-0.02577695,-0.4953378,-1.498769,-0.7610068,-0.04045574,0.1060813,-0.02595615,-0.4027578,2.344195,-0.2685865,0.1008149,1.289336,1.164733,273.2952,317.1002,31.82642
5,2.744442,0.006229285,0.05158796,0.01946878,-1.447294,3.054383,-2.216284,-1.051049,-0.04260593,0,0,10.43011,7.1261,-0.1215783,-0.1634055,0.02026486,-0.4926645,-1.499859,-0.7574957,-0.05093686,0.1050934,-0.00669363,-0.4026875,2.34729,-0.2706246,0.1009373,1.290023,1.165476,273.2109,314.2826,35.01868
5,2.755553,-0.02263013,0.09532156,0.03836715,-1.450095,3.05374,-2.215096,-1.051373,-0.02952352,0,0,10.41056,6.871946,-0.1477741,-0.1549952,0.07695033,-0.4898224,-1.497582,-0.7571108,-0.06157884,0.1083277,-0.006606052,-0.4031829,2.35039,-0.2724283,0.1006549,1.290615,1.166131,272.9492,312.1038,37.38287
5,2.766664,-0.07795407,0.04579372,0.002766216,-1.448346,3.053797,-2.212643,-1.050293,0.09897318,0,0,10.36168,6.686217,-0.1815557,-0.1241637,0.1135085,-0.4878213,-1.494623,-0.7566288,-0.07663837,0.1126124,-0.02566495,-0.4046109,2.353097,-0.2735932,0.1000378,1.29101,1.166708,272.7266,311.0374,38.3744
5,2.777775,-0.1055447,0.00939933,-0.005351361,-1.44732,3.054154,-2.210654,-1.049541,0.06789268,0,0,10.30303,6.637341,-0.1965267,-0.05802925,0.09463419,-0.4887183,-1.491475,-0.7568238,-0.07692529,0.1285169,-0.06402867,-0.4067957,2.3565,-0.2757397,0.09946477,1.290445,1.167326,273.121,314.5806,34.79906
5,2.788886,-0.1118677,-0.00552529,-0.00412939,-1.447132,3.054555,-2.209546,-1.048317,0.111569,0,0,10.2346,6.695992,-0.1762345,-0.006917477,0.09142515,-0.4891806,-1.48823,-0.7587404,-0.07903001,0.1317218,-0.06401947,-0.4078844,2.359771,-0.2780029,0.09935647,1.288835,1.168141,274.2112,317.7081,32.05072
5,2.799997,-0.1403889,-0.05340218,0.01555406,-1.445755,3.056672,-2.207249,-1.048889,-0.05301962,0,0,10.1955,6.871946,-0.1301706,0.03449549,0.1188974,-0.4888387,-1.481995,-0.7643989,-0.06838518,0.1125192,-0.05662116,-0.4084991,2.361032,-0.2787222,0.09950179,1.287013,1.169051,275.1758,322.1928,27.9827
5,2.811108,-0.1499215,-0.06191775,0.02098764,-1.445299,3.057547,-2.205516,-1.050084,-0.1085109,0,0,10.16618,7.106549,-0.1195981,0.006806388,0.1134235,-0.4873159,-1.481489,-0.7637405,-0.0598022,0.100792,-0.04495941,-0.4087931,2.362805,-0.2800093,0.09971958,1.285421,1.170029,275.9792,326.0951,24.41537
5,2.822219,-0.1561277,-0.1259926,0.005583115,-1.442289,3.059269,-2.203792,-1.048997,0.1004225,0,0,10.16618,7.321603,-0.144042,-0.07737145,0.1346819,-0.4833456,-1.483551,-0.7595019,-0.06066442,0.0827423,-0.01402416,-0.4079734,2.364093,-0.2805251,0.09989981,1.284307,1.170931,276.522,328.6175,22.21541
5,2.83333,-0.1496658,-0.1634305,-0.01436125,-1.439326,3.060351,-2.202486,-1.049767,-0.07127808,0,0,10.17595,7.536658,-0.1597581,-0.09877077,0.1741588,-0.4796278,-1.481592,-0.7588901,-0.07543209,0.0764465,0.005298913,-0.4074493,2.366404,-0.281269,0.09976627,1.283921,1.171849,276.8257,330.1468,21.01564
5,2.844441,-0.1303688,-0.2082261,-0.0278857,-1.435783,3.062065,-2.201979,-1.049942,-0.01508722,0,0,10.1955,7.741935,-0.1778329,-0.06572354,0.1733216,-0.4786899,-1.47801,-0.759546,-0.09978002,0.07231461,0.0246973,-0.4067046,2.368708,-0.2813771,0.09877531,1.284755,1.172611,276.5313,335.3487,15.42915
5,2.855552,-0.1249533,-0.2391721,-0.03616281,-1.432441,3.063665,-2.201028,-1.050564,-0.05670483,0,0,10.21505,7.956989,-0.1671711,-0.04869117,0.1722252,-0.4774196,-1.475221,-0.7604992,-0.09867845,0.06380296,0.03215549,-0.4063776,2.370097,-0.2817084,0.09710804,1.286749,1.173003,276.0564,332.7278,17.69154
5,2.866663,-0.1269411,-0.3001228,-0.06119665,-1.427221,3.06563,-2.199792,-1.051393,-0.07534425,0,0,10.2346,8.162268,-0.1503183,-0.06569171,0.1486175,-0.4757774,-1.476111,-0.7588289,-0.09322485,0.07658429,0.04060319,-0.406107,2.373766,-0.2843545,0.09512494,1.28943,1.173071,275.5292,323.9146,26.13474
5,2.877774,-0.1343059,-0.3397118,-0.077879,-1.422195,3.067448,-2.198349,-1.051034,0.03346764,0,0,10.22483,8.387097,-0.1579677,-0.01658238,0.114724,-0.4768097,-1.47381,-0.7588044,-0.1059503,0.0915419,0.04389881,-0.4057629,2.377763,-0.2860461,0.09305786,1.292291,1.172841,274.9492,313.2496,36.32385
5,2.888885,-0.1384084,-0.3887965,-0.08489729,-1.4166,3.070139,-2.197066,-1.050639,0.03571845,0,0,10.18573,8.543499,-0.1065032,0.1100508,0.1392016,-0.4788918,-1.4613,-0.7703324,-0.1099674,0.09055048,0.07163272,-0.4043999,2.381572,-0.2882321,0.09095346,1.295033,1.172667,274.2885,301.3124,47.73957
5,2.899997,-0.1257122,-0.3610257,-0.08197529,-1.413831,3.071347,-2.196411,-1.050441,0.01781804,0,0,10.1173,8.631476,-0.07016899,0.1579236,0.146523,-0.4799986,-1.453208,-0.7780358,-0.08956052,0.0702821,0.09918781,-0.4024015,2.383233,-0.2894909,0.08875951,1.297559,1.172619,273.7841,287.5786,60.85191
5,2.911108,-0.08755489,-0.2904097,-0.0635283,-1.413413,3.071766,-2.196932,-1.050505,-0.005855124,0,0,10.04888,8.631476,-0.07597701,0.1992776,0.2191374,-0.4787858,-1.44071,-0.7878197,-0.09702377,0.07989173,0.09390706,-0.4020654,2.386789,-0.2915013,0.08658372,1.299694,1.172801,273.7955,273.4839,74.40591
5,2.922219,-0.06085879,-0.2922946,-0.04655432,-1.410964,3.073718,-2.197552,-1.051393,-0.08117131,0,0,9.970675,8.553275,-0.08110473,0.2439724,0.2384776,-0.479467,-1.42914,-0.7970104,-0.1088509,0.09801017,0.07373732,-0.402402,2.391044,-0.2937853,0.08458963,1.301162,1.173119,274.1628,265.6679,81.80505
5,2.93333,-0.06528756,-0.2551008,-0.05537581,-1.409072,3.074008,-2.19659,-1.052729,-0.1214649,0,0,9.902249,8.416423,-0.09082195,0.2760111,0.2162675,-0.4814766,-1.420538,-0.8032067,-0.1048056,0.0936849,0.0502653,-0.40294,2.392707,-0.294388,0.0829567,1.301931,1.173562,274.3806,263.0303,84.08817
5,2.944441,-0.07073709,-0.213493,-0.04612915,-1.408301,3.074374,-2.195643,-1.052559,0.01640874,0,0,9.853374,8.250244,-0.09117626,0.2718824,0.1693846,-0.4832407,-1.415919,-0.8062862,-0.08713686,0.07436481,0.00859592,-0.4043371,2.392056,-0.2934689,0.08180495,1.301957,1.173999,274.4251,262.6361,84.28211
5,2.955552,-0.06015648,-0.1803281,-0.03472079,-1.407749,3.074988,-2.195596,-1.051054,0.1372707,0,0,9.814272,8.054741,-0.08413614,0.2677737,0.1139244,-0.4857968,-1.412583,-0.8085687,-0.07455046,0.05511136,-0.006402044,-0.4048697,2.391345,-0.2924953,0.08104687,1.301244,1.17431,274.4903,264.7903,82.11819
5,2.966663,-0.03134461,-0.1779452,-0.01778536,-1.406438,3.076532,-2.196516,-1.050842,0.01813562,0,0,9.794722,7.849463,-0.05379912,0.2423666,0.04331477,-0.4884706,-1.413002,-0.8086643,-0.04900396,0.02945976,0.001937632,-0.4044622,2.390362,-0.2918873,0.08064082,1.300094,1.174609,274.5795,270.3367,76.61462
5,2.977774,0.01033716,-0.2107132,-0.007025287,-1.403486,3.078228,-2.198014,-1.052327,-0.1358025,0,0,9.784947,7.702836,-0.01474966,0.1870406,0.002382301,-0.4895742,-1.414906,-0.8083221,-0.0212981,-0.001515193,0.0166672,-0.4034226,2.388219,-0.2905834,0.08051023,1.298789,1.174651,274.6547,277.316,69.75954
5,2.988885,0.04556665,-0.2211406,0.003605567,-1.401457,3.080263,-2.20005,-1.051873,0.04262836,0,0,9.804497,7.644184,-0.004346088,0.134903,-0.02234203,-0.490084,-1.416552,-0.8070459,-0.001020078,-0.03564753,0.03572652,-0.4018524,2.384843,-0.2882462,0.08046764,1.297537,1.174426,274.7775,282.9469,64.28629
5,2.999996,0.1009761,-0.2112283,0.0172021,-1.400459,3.082162,-2.203602,-1.052866,-0.09142787,0,0,9.843597,7.683285,-0.01092978,0.05078595,-0.03424995,-0.4887295,-1.421686,-0.8021646,0.02146924,-0.06871033,0.0632835,-0.3996356,2.381103,-0.2858323,0.0805042,1.296592,1.174267,274.9012,287.2754,60.02557
5,3.011107,0.115851,-0.2122847,0.01184015,-1.398525,3.083532,-2.205141,-1.053251,-0.03452061,0,0,9.912024,7.820137,-0.02821486,0.01999962,-0.06190403,-0.4894879,-1.425099,-0.7982287,0.03984398,-0.08150139,0.0982946,-0.3970459,2.379361,-0.2853897,0.08049741,1.295964,1.173953,275.0836,289.4101,57.99872
5,3.022218,0.1274721,-0.2071177,-0.01168031,-1.396201,3.083952,-2.207106,-1.05451,-0.1151448,0,0,10,7.976541,-0.03141465,0.02320242,-0.06293634,-0.4902166,-1.425851,-0.7970237,0.06675541,-0.07302766,0.1257407,-0.394591,2.380178,-0.2879143,0.0803412,1.295565,1.173556,275.1552,289.0511,58.43545
5,3.033329,0.1305334,-0.1837864,-0.02573453,-1.394868,3.08407,-2.208549,-1.052395,0.1940652,0,0,10.08798,8.162268,-0.01043469,0.04142055,-0.1099102,-0.4929895,-1.428209,-0.7956833,0.09113657,-0.0731528,0.114882,-0.3933809,2.378552,-0.2879125,0.08002579,1.295156,1.173108,275.1007,286.6101,60.85922
5,3.04444,0.1240387,-0.1668773,-0.03864156,-1.393348,3.084117,-2.209766,-1.052484,-0.01008598,0,0,10.18573,8.357772,0.01405055,0.06058086,-0.1153655,-0.495023,-1.428472,-0.7964985,0.09614288,-0.09559207,0.08824463,-0.3928354,2.373898,-0.2848869,0.07957514,1.294574,1.172519,275.1442,285.168,62.20558
