loc,t,aDotS,bDotS,gDotS,aS,bS,gS,qE,qDotE,tpad,enable,emgA,emgB,aDotSH,bDotSH,gDotSH,aSH,bSH,gSH,aDotUB,bDotUB,gDotUB,aUB,bUB,gUB,xHand,yHand,zHand,aHand,bHand,gHand
5,0,-0.1286994,-0.6296721,0.3164967,-1.325115,3.506997,-3.039743,-1.387001,-0.03708577,0,0,10.73314,8.396872,-0.3239242,0.401745,-0.1122499,-0.669058,3.952163,-0.3480754,-0.1298438,0.2485805,0.1672257,-0.7741655,2.03826,-0.2331997,0.2215463,1.120652,0.7569734,298.1624,328.7492,7.764815
5,0.01111111,-0.1180961,-0.6137003,0.3131041,-1.327673,3.513762,-3.040452,-1.38734,-0.03063152,0,0,10.78201,8.514174,-0.3239137,0.3729657,-0.103792,-0.6709472,3.956535,-0.3478725,-0.130953,0.2379423,0.1683239,-0.7727364,2.042341,-0.2345915,0.2166668,1.120115,0.7564629,298.5423,325.6227,8.865172
5,0.02222222,-0.09056988,-0.5647249,0.3018918,-1.330199,3.518888,-3.041537,-1.387902,-0.05138158,0,0,10.79179,8.797654,-0.2993637,0.3206862,-0.08600321,-0.67202,3.959179,-0.347562,-0.1362476,0.2251988,0.1790405,-0.7709292,2.046015,-0.2355403,0.2123699,1.12003,0.7553584,299.5334,319.806,13.81483
5,0.03333334,-0.08529963,-0.5455408,0.3016886,-1.333059,3.524876,-3.042173,-1.387118,0.07194357,0,0,10.74291,9.227761,-0.2801549,0.2950639,-0.07662813,-0.6734628,3.962705,-0.3479196,-0.1342028,0.2219854,0.1705048,-0.7699545,2.050005,-0.2369478,0.2084841,1.119973,0.7544959,299.6053,319.0846,13.56738
5,0.04444445,-0.05459434,-0.4923576,0.2840326,-1.335239,3.52879,-3.043652,-1.387628,-0.04734868,0,0,10.66471,9.608994,-0.2481135,0.2725939,-0.06095572,-0.6743454,3.965954,-0.3488277,-0.1343646,0.2145029,0.154538,-0.7693164,2.05339,-0.2378759,0.2055549,1.119802,0.7538019,299.7756,317.9705,14.15805
5,0.05555556,-0.03976295,-0.4733138,0.2678237,-1.337241,3.534195,-3.045026,-1.386893,0.06751372,0,0,10.56696,9.892473,-0.2118763,0.2629251,-0.05701206,-0.6758437,3.969738,-0.3505349,-0.131346,0.1984903,0.1406882,-0.7686288,2.056287,-0.2386475,0.2037209,1.119744,0.7538867,299.604,317.6628,14.34082
5,0.06666667,-0.02282249,-0.4629701,0.2325266,-1.338167,3.539275,-3.046546,-1.387978,-0.09992812,0,0,10.47898,10.1173,-0.1820383,0.2554027,-0.05407146,-0.6772594,3.973433,-0.3523072,-0.1325881,0.1814299,0.1279414,-0.7679886,2.058689,-0.238824,0.2025563,1.119673,0.7542913,299.5607,317.9287,14.16508
5,0.07777778,-0.006941445,-0.4558244,0.1972654,-1.338761,3.544515,-3.048134,-1.387472,0.04702394,0,0,10.38123,10.31281,-0.169298,0.2319376,-0.05315981,-0.6784009,3.97587,-0.3526057,-0.1264089,0.1526203,0.1162176,-0.7672945,2.06,-0.2386315,0.2020334,1.119622,0.7546929,299.6305,318.0679,14.32504
5,0.08888889,0.02062215,-0.4293873,0.1703071,-1.339502,3.548778,-3.050292,-1.387432,0.003069514,0,0,10.29326,10.48876,-0.1746231,0.1946539,-0.04468218,-0.6790342,3.977309,-0.3516044,-0.1190223,0.1302256,0.1183258,-0.7661099,2.061685,-0.2388515,0.2017394,1.119566,0.7550528,299.5315,318.5506,14.21972
5,0.1,0.04282017,-0.3857767,0.1580822,-1.340453,3.552034,-3.052068,-1.387294,0.01250026,0,0,10.20528,10.66471,-0.1596155,0.1903345,-0.0320282,-0.6796334,3.98028,-0.352615,-0.1179528,0.1174474,0.1258,-0.7646474,2.063575,-0.238884,0.2014114,1.1195,0.7552776,299.3978,318.7341,14.3334
5,0.1111111,0.06715342,-0.3442578,0.1469501,-1.341494,3.554707,-3.053895,-1.387892,-0.05493645,0,0,10.1564,10.89932,-0.1157089,0.2040461,-0.006784342,-0.6800089,3.985013,-0.3564409,-0.115927,0.08973636,0.1279582,-0.7631805,2.064105,-0.2379891,0.2009546,1.119446,0.7554106,299.3069,318.5146,14.7443
5,0.1222222,0.07557618,-0.3187756,0.1360179,-1.342422,3.557574,-3.055683,-1.387607,0.02643761,0,0,10.12708,11.17302,-0.06537742,0.2294543,0.01950316,-0.6801729,3.990759,-0.3618927,-0.1106749,0.08650544,0.1204636,-0.7622947,2.065655,-0.2380586,0.2004305,1.119383,0.7554559,299.2116,318.0189,15.35625
5,0.1333333,0.09465143,-0.2965861,0.1133802,-1.342755,3.560474,-3.058207,-1.387546,0.005124466,0,0,10.10753,11.4565,-0.04188542,0.2411215,0.02360129,-0.6810054,3.995546,-0.3658009,-0.1075045,0.08542444,0.118316,-0.7612166,2.067578,-0.2382874,0.1999321,1.119322,0.7555194,299.1153,317.5481,15.91383
5,0.1444445,0.1105278,-0.2916485,0.07068306,-1.34183,3.563576,-3.060734,-1.387277,0.02439379,0,0,10.0782,11.76931,-0.02695699,0.2570763,0.02138709,-0.6821197,4.00078,-0.3701173,-0.09587798,0.0640681,0.1182557,-0.7599176,2.068015,-0.2379191,0.1994998,1.119286,0.7556292,299.0119,317.2121,16.32036
5,0.1555556,0.116864,-0.2876469,0.0429348,-1.341234,3.566677,-3.063092,-1.387793,-0.04753086,0,0,10.0391,12.03324,-0.006612957,0.2452837,0.03611308,-0.682133,4.004656,-0.3737368,-0.08431344,0.04909196,0.107531,-0.7591607,2.068356,-0.2376048,0.1991081,1.119244,0.7557464,298.8903,316.9576,16.65469
5,0.1666667,0.1199455,-0.282803,-0.005062409,-1.339156,3.569583,-3.06524,-1.387611,0.01697105,0,0,10,12.18964,0.02539618,0.2238881,0.04752697,-0.6818854,4.007734,-0.3775662,-0.07285176,0.02557464,0.08829942,-0.7587692,2.067573,-0.2366791,0.198762,1.119183,0.7557929,298.7173,316.6664,17.01534
5,0.1777778,0.1016431,-0.2513113,-0.04690773,-1.337017,3.571,-3.065942,-1.387221,0.03534639,0,0,9.970675,12.22874,0.07428612,0.1822563,0.04278523,-0.6817623,4.008701,-0.3810022,-0.06679344,-0.01177063,0.06700266,-0.7584597,2.06555,-0.2346423,0.1984632,1.119139,0.7558048,298.536,316.3129,17.36679
5,0.1888889,0.0973039,-0.2300511,-0.05137447,-1.336291,3.572712,-3.067204,-1.386854,0.03308535,0,0,9.960899,12.16031,0.08254601,0.1354151,0.02131225,-0.6821874,4.008337,-0.3818443,-0.05857844,-0.04167163,0.04460929,-0.758415,2.063262,-0.2326543,0.1981897,1.119114,0.7558469,298.3892,315.9895,17.65114
5,0.2,0.08972847,-0.1906677,-0.05283788,-1.335519,3.573429,-3.068204,-1.385632,0.1115074,0,0,9.951125,12.01369,0.0729268,0.07255526,0.03296509,-0.6809495,4.006613,-0.3809679,-0.05449274,-0.05875374,0.03182613,-0.7581199,2.061551,-0.2309893,0.1979662,1.11912,0.755829,298.2248,315.6046,17.94575
5,0.2111111,0.08431934,-0.1673009,-0.05839433,-1.334612,3.574424,-3.069183,-1.385981,-0.03291611,0,0,9.980451,11.79863,0.08069202,0.03088202,0.08181924,-0.6780744,4.006805,-0.3822773,-0.05793671,-0.09178219,0.01806063,-0.7578323,2.058441,-0.2280486,0.197751,1.11919,0.755774,298.17,315.1132,18.17387
5,0.2222222,0.06291269,-0.1462279,-0.07455006,-1.333102,3.575288,-3.069261,-1.386016,-0.002706981,0,0,10.02933,11.54448,0.1034531,-0.01297473,0.141196,-0.6740897,4.00653,-0.3839972,-0.06345093,-0.1130851,0.006421603,-0.7576603,2.055532,-0.2250107,0.1974309,1.119281,0.7556745,298.2086,314.5488,18.493
5,0.2333333,0.03719527,-0.1166937,-0.09611159,-1.331175,3.575429,-3.068615,-1.38593,0.007853291,0,0,10.08798,11.261,0.1111266,-0.03330583,0.1730486,-0.6710377,4.006763,-0.3856923,-0.06465949,-0.1290765,-0.003132679,-0.757599,2.05267,-0.2222277,0.1970365,1.119374,0.7555143,298.2966,313.9325,18.88941
5,0.2444444,0.01794647,-0.0998173,-0.1068993,-1.329554,3.575781,-3.068172,-1.385082,0.07748123,0,0,10.16618,10.98729,0.110311,-0.04936279,0.2081748,-0.6672816,4.007241,-0.3872806,-0.05526346,-0.1515073,-0.01489236,-0.7576485,2.048946,-0.2192525,0.1965967,1.11947,0.7552457,298.5088,313.5446,19.06398
5,0.2555556,-0.03972872,-0.06834612,-0.1369314,-1.327106,3.575363,-3.065761,-1.384536,0.04932496,0,0,10.2346,10.75269,0.1178816,-0.04834354,0.2219717,-0.6644342,4.008415,-0.3897339,-0.04696177,-0.1739396,-0.02984013,-0.7578754,2.044902,-0.2160476,0.1961869,1.119603,0.7548953,298.8151,313.4717,18.89357
5,0.2666667,-0.09309616,-0.05063914,-0.1604412,-1.324613,3.575185,-3.062963,-1.384794,-0.02381704,0,0,10.29326,10.56696,0.1327097,-0.0227662,0.2048663,-0.6631787,4.010452,-0.3933124,-0.03657877,-0.1995866,-0.049059,-0.7583671,2.040159,-0.2124736,0.1958396,1.119743,0.7544156,299.2161,313.7816,18.28404
5,0.2777778,-0.1293674,-0.04664484,-0.1753372,-1.321961,3.575479,-3.060344,-1.383251,0.1414452,0,0,10.34213,10.44966,0.1474955,-0.02276132,0.1887727,-0.6615894,4.011079,-0.3959649,-0.02828456,-0.2188299,-0.06720506,-0.7590174,2.035352,-0.2089889,0.1955596,1.119855,0.7541038,299.3027,313.6029,18.24965
5,0.2888889,-0.1784152,-0.04593539,-0.1954849,-1.319092,3.575726,-3.05677,-1.382932,0.02820103,0,0,10.38123,10.41056,0.1388116,-0.0376247,0.1717709,-0.6598216,4.010501,-0.3967625,-0.02644163,-0.2401816,-0.09061631,-0.7599874,2.030111,-0.2048477,0.1952267,1.119999,0.7538895,299.494,314.1323,17.39654
5,0.3,-0.2274063,-0.05905078,-0.2122945,-1.316159,3.576774,-3.05302,-1.383336,-0.03682756,0,0,10.41056,10.43011,0.1057523,-0.07698715,0.1772726,-0.6569939,4.008501,-0.3951774,-0.02245119,-0.266862,-0.1097833,-0.7610452,2.024037,-0.2003371,0.1947106,1.120181,0.7538615,299.5795,314.4858,16.70072
5,0.3111111,-0.2678769,-0.0699352,-0.2227487,-1.31337,3.577713,-3.048971,-1.382801,0.0494853,0,0,10.43011,10.47898,0.07820713,-0.1334698,0.2114565,-0.6524451,4.005691,-0.3927957,-0.01956995,-0.2797036,-0.1406806,-0.7628018,2.018515,-0.1961386,0.1937083,1.120399,0.753562,299.758,315.9715,14.64579
5,0.3222222,-0.3371526,-0.06928693,-0.2417922,-1.309974,3.578275,-3.043165,-1.38274,0.005425417,0,0,10.43988,10.45943,0.06448486,-0.1857074,0.2402112,-0.6476792,4.002157,-0.39022,-0.02936064,-0.2935178,-0.1565911,-0.7643613,2.012758,-0.1914661,0.1921787,1.120622,0.7531768,300.0802,316.6779,13.13985
5,0.3333333,-0.4256283,-0.06337297,-0.2608486,-1.306468,3.578584,-3.035686,-1.382865,-0.01117477,0,0,10.44966,10.34213,0.05610643,-0.2027819,0.2615418,-0.6435305,4.000256,-0.3892072,-0.03046827,-0.2999417,-0.1618538,-0.765555,2.007276,-0.1870711,0.1899416,1.120873,0.7525713,300.42,317.6326,11.13834
5,0.3444445,-0.5161898,-0.06695254,-0.2712803,-1.303104,3.57909,-3.027206,-1.381649,0.1115816,0,0,10.45943,10.13685,0.04258035,-0.2380206,0.3105753,-0.6373551,3.997584,-0.3870447,-0.01902913,-0.318139,-0.1864243,-0.7676322,2.000683,-0.1825347,0.1869568,1.121092,0.7516314,300.7438,318.5864,8.815373
5,0.3555556,-0.5694332,-0.08000492,-0.2806256,-1.29956,3.580246,-3.019524,-1.380441,0.1099219,0,0,10.45943,9.824047,0.01847135,-0.3126954,0.3787816,-0.6292182,3.992451,-0.3822515,-0.02159023,-0.3533399,-0.2214986,-0.7701809,1.99267,-0.1765636,0.1832986,1.121323,0.7505593,301.1814,319.3254,6.39052
5,0.3666667,-0.6994097,-0.09992345,-0.3142453,-1.294812,3.581474,-3.007905,-1.379934,0.04596706,0,0,10.45943,9.39394,-0.0004910752,-0.3255053,0.408735,-0.6226428,3.989634,-0.3793322,-0.02401356,-0.3618989,-0.2534282,-0.7731812,1.98577,-0.1713307,0.1794126,1.121958,0.7497976,301.7224,318.8801,5.204832
5,0.3777778,-0.7675779,-0.1130665,-0.3288847,-1.290543,3.582618,-2.997621,-1.381209,-0.1163298,0,0,10.44966,8.914956,-0.01553442,-0.3115855,0.389707,-0.618336,3.987263,-0.3767049,-0.02187432,-0.3523163,-0.2566557,-0.7754044,1.980274,-0.1671746,0.175837,1.123521,0.7496892,302.0826,317.8557,4.940416
5,0.3888889,-0.8560368,-0.1221836,-0.3605637,-1.285433,3.583543,-2.985545,-1.378133,0.2828012,0,0,10.44966,8.377321,-0.02855721,-0.3264183,0.3631386,-0.6140221,3.982436,-0.3720971,-0.02741786,-0.3406298,-0.2896519,-0.779029,1.974597,-0.1626648,0.172927,1.126225,0.75023,302.0202,316.7539,5.188702
5,0.4,-0.9307061,-0.1164707,-0.4030861,-1.279445,3.583948,-2.973208,-1.379941,-0.1672741,0,0,10.43011,7.839687,-0.03636405,-0.3263038,0.3195228,-0.6108141,3.977893,-0.3677008,-0.03333992,-0.3385832,-0.3620465,-0.7848959,1.968169,-0.1573766,0.1706665,1.130147,0.7516778,301.7377,315.7405,5.792157
5,0.4111111,-0.9926789,-0.08298943,-0.4437843,-1.273448,3.582638,-2.960148,-1.379283,0.06244319,0,0,10.42033,7.39003,-0.02175547,-0.3326384,0.282099,-0.6077312,3.972897,-0.3639625,-0.03056744,-0.4208499,-0.5014962,-0.7942409,1.955301,-0.1480821,0.16908,1.13527,0.75374,301.1133,314.7066,6.828374
5,0.4222222,-1.033293,-0.05889886,-0.4727136,-1.267367,3.581305,-2.946921,-1.379859,-0.05277069,0,0,10.40078,7.086999,0.03070486,-0.4447362,0.3421471,-0.5994365,3.962498,-0.357437,-0.02397245,-0.5809177,-0.652562,-0.8048643,1.936076,-0.134573,0.1679381,1.141395,0.7563594,300.2779,313.6341,8.247476
5,0.4333333,-1.07497,-0.04570884,-0.5228322,-1.260142,3.580026,-2.933569,-1.380469,-0.05472067,0,0,10.39101,6.940372,0.09457879,-0.6828408,0.5286,-0.5831609,3.944625,-0.3455729,-0.02219978,-0.7536404,-0.7353929,-0.813634,1.914932,-0.1197091,0.1670006,1.148261,0.7593259,299.3059,312.4185,10.00831
5,0.4444444,-1.113455,-0.03669316,-0.570789,-1.252426,3.578062,-2.91927,-1.38107,-0.05387308,0,0,10.38123,6.930596,0.1190537,-0.8675824,0.7037642,-0.565118,3.925609,-0.3317329,-0.05585,-0.9154031,-0.7274045,-0.8196528,1.893063,-0.1030105,0.1661106,1.155673,0.7623811,298.3331,311.1468,11.85608
5,0.4555556,-1.139138,-0.0136112,-0.5975978,-1.245369,3.575662,-2.905144,-1.38161,-0.04862145,0,0,10.37146,7.038124,0.1164223,-1.1036,0.9663805,-0.5406649,3.901505,-0.3121451,-0.07919031,-0.9440114,-0.7016183,-0.8255538,1.877021,-0.09050673,0.165119,1.163403,0.7652599,297.3831,309.7597,13.79975
5,0.4666667,-1.189459,0.04012636,-0.6406604,-1.237404,3.571025,-2.888562,-1.381505,0.01034032,0,0,10.36168,7.223851,0.08696494,-1.183881,1.165661,-0.5175886,3.883526,-0.2964972,-0.09808907,-0.9406813,-0.6705805,-0.8312472,1.862393,-0.07897018,0.1638529,1.17127,0.7678327,296.5806,308.162,15.849
5,0.4777778,-1.2621,0.07457558,-0.6898742,-1.228938,3.566318,-2.870679,-1.382342,-0.07623325,0,0,10.36168,7.536658,0.05048165,-1.185125,1.26927,-0.4974039,3.868068,-0.282053,-0.1031524,-0.9331448,-0.6439397,-0.8369436,1.848263,-0.06829943,0.1622457,1.179172,0.7700589,295.8936,306.3304,17.92021
5,0.4888889,-1.346338,0.06735674,-0.7461067,-1.219374,3.562896,-2.852117,-1.381241,0.1017409,0,0,10.35191,8.01564,-0.04425192,-1.137329,1.399022,-0.4757546,3.856703,-0.268301,-0.118194,-0.9341781,-0.6587322,-0.8441379,1.83359,-0.05672613,0.1603224,1.186978,0.7720503,295.2145,304.3319,19.92879
5,0.5,-1.436927,0.04958094,-0.790485,-1.209753,3.559795,-2.832377,-1.380449,0.07194123,0,0,10.35191,8.621701,-0.1538304,-1.041524,1.526896,-0.4533574,3.851191,-0.2577138,-0.1410016,-0.9182007,-0.7214504,-0.8537535,1.820146,-0.04554804,0.158171,1.194704,0.7740533,294.6765,302.1906,21.93025
5,0.5111111,-1.492324,0.03099743,-0.8178778,-1.200352,3.556878,-2.813183,-1.379973,0.04339165,0,0,10.34213,9.296188,-0.2236199,-0.9829595,1.581902,-0.4326375,3.841495,-0.244108,-0.1604651,-0.8926368,-0.7692694,-0.8635928,1.807585,-0.03486211,0.1559002,1.202403,0.776222,294.2339,299.8434,24.11532
5,0.5222223,-1.567917,-0.00146237,-0.8440245,-1.190173,3.554314,-2.791937,-1.379417,0.05090411,0,0,10.32258,10,-0.320166,-0.8773534,1.605293,-0.4128262,3.837777,-0.233429,-0.1774728,-0.831888,-0.7980142,-0.8735461,1.797525,-0.02583719,0.1535226,1.210184,0.7786515,293.9106,297.3272,26.49508
5,0.5333334,-1.632901,-0.02521257,-0.8596573,-1.17991,3.550986,-2.769721,-1.380631,-0.110728,0,0,10.32258,10.67449,-0.4130561,-0.7929516,1.557214,-0.3960142,3.830479,-0.2191313,-0.2048605,-0.7529763,-0.7979052,-0.882407,1.789224,-0.01718218,0.1511002,1.218151,0.7812699,293.5892,294.6921,29.04635
5,0.5444446,-1.679728,-0.05215986,-0.8763313,-1.169691,3.548244,-2.748122,-1.379367,0.1170637,0,0,10.33236,11.30987,-0.4945795,-0.7212065,1.469613,-0.3816608,3.823043,-0.2037798,-0.2331544,-0.6963478,-0.7700669,-0.8900369,1.781664,-0.008757805,0.1486882,1.226319,0.7838809,293.2072,291.8235,31.8926
5,0.5555557,-1.700944,-0.07450666,-0.8749946,-1.160441,3.545099,-2.727428,-1.379335,0.002393485,0,0,10.34213,11.88661,-0.5323123,-0.6752111,1.40821,-0.366933,3.813225,-0.1873963,-0.2907901,-0.5756619,-0.7143914,-0.8961564,1.77847,-0.001325988,0.1462374,1.23474,0.7865914,292.9215,288.8291,34.81305
5,0.5666668,-1.716818,-0.09997834,-0.8608521,-1.15127,3.542975,-2.706619,-1.38056,-0.111384,0,0,10.37146,12.33627,-0.5500963,-0.5950116,1.295617,-0.3560795,3.807999,-0.175579,-0.3394088,-0.3974142,-0.6290503,-0.9004275,1.780538,0.002835734,0.1438068,1.243538,0.7892737,292.7124,285.6763,37.87912
5,0.577778,-1.729495,-0.1179293,-0.8404067,-1.142596,3.540731,-2.685981,-1.382441,-0.1705121,0,0,10.39101,12.65885,-0.5512128,-0.5233107,1.14025,-0.3479266,3.800734,-0.1626803,-0.3411708,-0.3483831,-0.6099498,-0.9069209,1.777323,0.008604141,0.1413709,1.252676,0.7919837,292.4356,282.1431,41.33601
5,0.5888891,-1.72942,-0.1348535,-0.8285143,-1.133784,3.538454,-2.665694,-1.382638,-0.01628269,0,0,10.40078,12.85435,-0.5607666,-0.4696836,0.9977045,-0.3411914,3.79337,-0.1491847,-0.3322444,-0.2908714,-0.5887986,-0.9129193,1.775484,0.01318797,0.1390121,1.262001,0.7945327,292.0776,278.3045,45.14178
5,0.6000003,-1.723927,-0.1622314,-0.79843,-1.125496,3.537068,-2.646214,-1.383278,-0.05828695,0,0,10.40078,12.94233,-0.5817621,-0.4598766,0.9051965,-0.3333085,3.780583,-0.1297833,-0.3329653,-0.2301444,-0.5793096,-0.919271,1.774682,0.01733798,0.1366455,1.271303,0.7969177,291.748,274.3594,49.12605
5,0.6111114,-1.707891,-0.1641041,-0.77714,-1.117594,3.534588,-2.626687,-1.384069,-0.07155068,0,0,10.39101,12.98143,-0.6110259,-0.4639381,0.8425598,-0.3251602,3.76645,-0.1086996,-0.3264641,-0.1993213,-0.5815415,-0.9260908,1.772847,0.02186322,0.1341856,1.280426,0.7990619,291.5448,270.4904,53.06083
5,0.6222225,-1.683338,-0.1497135,-0.7315266,-1.111367,3.532042,-2.607637,-1.384837,-0.06952006,0,0,10.36168,13.0303,-0.6400596,-0.4510337,0.802359,-0.3168128,3.75365,-0.08853466,-0.3133062,-0.154598,-0.5593497,-0.9315375,1.772922,0.02480814,0.1316256,1.289221,0.800858,291.4773,266.6904,56.8848
5,0.6333337,-1.646012,-0.1222735,-0.6636779,-1.106882,3.529361,-2.589125,-1.385499,-0.05988357,0,0,10.33236,13.04008,-0.6756242,-0.4220654,0.7409368,-0.3100857,3.742877,-0.06968214,-0.2872553,-0.1067561,-0.5276912,-0.9364809,1.773226,0.02671603,0.1289012,1.297561,0.8022466,291.5062,263.1028,60.45243
5,0.6444448,-1.608702,-0.07769072,-0.5864388,-1.104019,3.526332,-2.571234,-1.386155,-0.05937238,0,0,10.29326,12.97165,-0.6800292,-0.39643,0.7165319,-0.3027604,3.732573,-0.0521399,-0.2686237,-0.05563819,-0.4906409,-0.9405976,1.774868,0.02803456,0.1260315,1.305413,0.8032907,291.644,259.7295,63.6418
5,0.655556,-1.579949,-0.03658029,-0.5314974,-1.101206,3.522999,-2.553163,-1.386811,-0.05958175,0,0,10.25415,12.81525,-0.6665865,-0.3761239,0.6589328,-0.2970623,3.720715,-0.0341095,-0.2456437,-0.003476769,-0.4451173,-0.944146,1.776795,0.02875309,0.1230971,1.312758,0.8041067,291.7722,256.4922,66.56602
5,0.6666671,-1.51606,0.02511686,-0.4555536,-1.100732,3.519088,-2.536904,-1.387562,-0.06822288,0,0,10.24438,12.60019,-0.6406978,-0.3844755,0.5681494,-0.293606,3.705047,-0.01289449,-0.2152704,0.0369544,-0.3996226,-0.9470829,1.778974,0.02886654,0.1202235,1.319581,0.8046933,291.8518,253.5035,69.23138
5,0.6777782,-1.434071,0.1083673,-0.3596616,-1.102003,3.514853,-2.521925,-1.387439,0.01163621,0,0,10.2346,12.37537,-0.639182,-0.3843469,0.4914218,-0.2905615,3.688356,0.01011548,-0.1968501,0.06035487,-0.3742512,-0.9504907,1.780812,0.02932779,0.117432,1.325919,0.8052102,291.9337,250.8282,71.60665
5,0.6888894,-1.335076,0.1969763,-0.2670175,-1.105311,3.51008,-2.508373,-1.389252,-0.1660805,0,0,10.21505,12.17009,-0.6422341,-0.3691369,0.3721578,-0.2906441,3.675448,0.02976082,-0.1803847,0.09975691,-0.3361098,-0.9530718,1.783717,0.02906734,0.1147612,1.331881,0.8057789,292.0668,248.4917,73.67021
5,0.7000005,-1.224344,0.2759792,-0.1796259,-1.109544,3.505455,-2.496448,-1.390501,-0.1130799,0,0,10.1955,11.97458,-0.6431674,-0.3347325,0.248676,-0.2921323,3.666287,0.04591849,-0.1766804,0.1360359,-0.2925216,-0.9547305,1.787243,0.02884017,0.112325,1.337463,0.8063615,292.0905,246.1601,75.83684
5,0.7111117,-1.081648,0.3562571,-0.08597082,-1.114162,3.500475,-2.486197,-1.391724,-0.1112946,0,0,10.16618,11.75953,-0.6074685,-0.2696129,0.1644005,-0.2929829,3.66361,0.05385924,-0.1848096,0.1712733,-0.2637562,-0.9567448,1.790933,0.02899543,0.1101329,1.342636,0.8070187,291.994,243.9061,78.03498
5,0.7222228,-0.9240802,0.4460285,-0.0009110868,-1.121178,3.495281,-2.478813,-1.392691,-0.0880171,0,0,10.1173,11.63245,-0.535337,-0.1886456,0.105436,-0.2937824,3.665784,0.0553594,-0.1929511,0.2203483,-0.2424653,-0.9586288,1.796024,0.02847532,0.1083201,1.347292,0.8076577,291.8187,241.7178,80.21454
5,0.7333339,-0.82293,0.4979372,0.04522917,-1.126871,3.490487,-2.470803,-1.393765,-0.098205,0,0,10.05865,11.58358,-0.4918257,-0.137509,0.07112924,-0.29394,3.666229,0.05886412,-0.2011416,0.2534378,-0.2200917,-0.9603604,1.800659,0.02812378,0.1068889,1.351396,0.8082922,291.5945,240.0496,81.95363
5,0.7444451,-0.6727225,0.5427502,0.1115885,-1.134311,3.48627,-2.466902,-1.395813,-0.1871544,0,0,10.00978,11.6129,-0.4547078,-0.07996833,0.03582162,-0.2947645,3.670495,0.05838475,-0.2060371,0.2982521,-0.1902977,-0.9612392,1.806652,0.02709766,0.1058032,1.355043,0.8089447,291.3673,238.954,83.19054
5,0.7555562,-0.5810663,0.5637279,0.1570107,-1.140964,3.482802,-2.462103,-1.394109,0.1564822,0,0,9.960899,11.68133,-0.454837,-0.004245758,0.0008554086,-0.2957307,3.678575,0.05578124,-0.2207271,0.3238969,-0.1763819,-0.9627045,1.811838,0.02696371,0.1050513,1.358135,0.8097651,291.0855,237.4539,84.85576
5,0.7666674,-0.4084094,0.6035841,0.2532059,-1.150618,3.480101,-2.462421,-1.396579,-0.2281899,0,0,9.951125,11.73998,-0.4666043,0.08108556,-0.02654301,-0.2968439,3.691855,0.04869803,-0.2427861,0.3549223,-0.1538832,-0.963448,1.81808,0.02690086,0.1044745,1.360671,0.8110069,290.774,236.1819,86.35088
5,0.7777785,-0.3253488,0.6426021,0.294199,-1.159471,3.476151,-2.459896,-1.394481,0.1932215,0,0,9.951125,11.77908,-0.4461234,0.174771,-0.02007742,-0.2966453,3.708507,0.03701368,-0.2488653,0.3677769,-0.1219031,-0.963635,1.823319,0.02687103,0.1041744,1.362454,0.8123341,290.384,235.1198,87.74144
5,0.7888896,-0.2391371,0.700869,0.341372,-1.169715,3.471582,-2.458327,-1.397755,-0.3021701,0,0,9.970675,11.81818,-0.4150644,0.2460782,-0.01695484,-0.2965606,3.725513,0.02428324,-0.242313,0.3816126,-0.1102652,-0.9644526,1.828931,0.02593626,0.1039658,1.363504,0.8137571,289.8954,234.7824,88.49593
5,0.8000008,-0.1677651,0.7335191,0.3877749,-1.180025,3.467824,-2.457324,-1.394546,0.2953593,0,0,10.00978,11.85728,-0.3821882,0.2801713,-0.04377053,-0.2979268,3.740401,0.01315389,-0.2494043,0.405136,-0.07722217,-0.9640398,1.835383,0.02525635,0.1038913,1.363692,0.8149452,289.302,234.5499,89.1291
5,0.8111119,-0.09944528,0.7084165,0.4134686,-1.188502,3.465721,-2.457644,-1.394145,0.03291027,0,0,10.04888,11.87683,-0.3763712,0.2611631,-0.1109935,-0.3014933,3.747569,0.01038819,-0.2490945,0.428609,-0.05169874,-0.9636361,1.84196,0.02416978,0.1037545,1.363233,0.8162066,288.7202,234.9803,88.98624
5,0.8222231,-0.05764824,0.6362588,0.4290374,-1.195444,3.46548,-2.458386,-1.393353,0.07161115,0,0,10.08798,11.91593,-0.4067082,0.22727,-0.1662331,-0.3051769,3.752337,0.01131178,-0.2425336,0.4381967,-0.03578805,-0.9633617,1.848265,0.02299666,0.1036077,1.362351,0.8174714,288.1291,235.8032,88.37383
5,0.8333342,-0.02001113,0.550614,0.479914,-1.202915,3.467373,-2.459788,-1.393005,0.03069125,0,0,10.12708,12.01369,-0.4206647,0.2220054,-0.177864,-0.3074151,3.760392,0.008872055,-0.2445026,0.436103,-0.01446657,-0.9627764,1.853846,0.0225663,0.1034166,1.361244,0.818727,287.5227,236.7437,87.67522
5,0.8444453,-0.003693908,0.4809879,0.5423833,-1.211101,3.470425,-2.46143,-1.391849,0.1049324,0,0,10.1564,12.21896,-0.4132633,0.2369312,-0.1885394,-0.3098625,3.770824,0.003284476,-0.2306688,0.4264626,-0.01136631,-0.9627215,1.859197,0.02158705,0.103105,1.359957,0.8198158,286.9936,237.572,87.14452
5,0.8555565,-0.0002519786,0.4271569,0.5898044,-1.219452,3.472958,-2.462107,-1.390872,0.0879495,0,0,10.1955,12.51222,-0.3790038,0.2773231,-0.1770004,-0.3114146,3.785779,-0.007955128,-0.2123603,0.4242898,0.01298828,-0.9617361,1.864637,0.0200267,0.1025242,1.358555,0.8206586,286.5248,238.3775,86.58092
5,0.8666676,-0.008399427,0.3316843,0.6323452,-1.226406,3.477891,-2.463435,-1.390007,0.07801165,0,0,10.22483,12.88368,-0.3544947,0.3156465,-0.1856241,-0.3138556,3.801432,-0.01976758,-0.206792,0.432833,0.0384969,-0.9603162,1.870839,0.01857209,0.1015859,1.357073,0.821084,285.9872,239.0937,86.00749
5,0.8777788,-0.002694666,0.2383757,0.6737787,-1.23316,3.484064,-2.465843,-1.388673,0.1209068,0,0,10.25415,13.25513,-0.3452206,0.3477113,-0.233566,-0.3183995,3.817597,-0.03164874,-0.200078,0.4562764,0.06609438,-0.9585425,1.877844,0.01655501,0.1000968,1.35564,0.8211718,285.4109,239.7504,85.37995
5,0.8888899,-0.02240098,0.119849,0.7570639,-1.240423,3.493452,-2.468173,-1.388023,0.05822632,0,0,10.27371,13.63636,-0.3849303,0.3436235,-0.2694856,-0.3227261,3.828888,-0.03656201,-0.2010009,0.4850498,0.0681831,-0.9576796,1.885682,0.01428413,0.09802812,1.354366,0.820976,284.9018,240.209,84.8074
5,0.900001,-0.1071813,0.01151514,0.8148053,-1.246847,3.503776,-2.467571,-1.388384,-0.0335562,0,0,10.27371,14.00782,-0.4083348,0.3852314,-0.2755897,-0.3262862,3.846324,-0.04770361,-0.2000201,0.482896,0.0585852,-0.9573638,1.892167,0.01276213,0.09532008,1.353269,0.8204709,284.4805,240.2808,84.52775
5,0.9111122,-0.2804503,-0.1186636,0.8430717,-1.250996,3.514219,-2.461473,-1.387095,0.1180494,0,0,10.27371,14.34995,-0.4149156,0.4002346,-0.3032196,-0.3308988,3.861701,-0.05750803,-0.1904378,0.4477318,0.07561124,-0.9559555,1.896762,0.01186678,0.09202242,1.352255,0.8195578,284.0768,239.8459,84.60892
5,0.9222233,-0.3941189,-0.2071584,0.8697698,-1.255863,3.525718,-2.456779,-1.383704,0.3089702,0,0,10.25415,14.60411,-0.4515358,0.3428675,-0.3392893,-0.3359935,3.866945,-0.05621986,-0.1658956,0.4125144,0.09891139,-0.9540157,1.900962,0.01048247,0.08806506,1.351243,0.8181941,283.6075,239.1909,84.83221
5,0.9333345,-0.4759605,-0.535212,1.003267,-1.257648,3.549543,-2.456694,-1.378203,0.5005839,0,0,10.2346,14.74096,-0.4921711,0.2992907,-0.3476039,-0.3402417,3.871696,-0.05381263,-0.1584985,0.4114012,0.09140191,-0.9531592,1.90661,0.008700015,0.08336,1.350344,0.8164554,283.2648,239.0271,84.36826
5,0.9444456,-0.49937,-0.4821382,1.095457,-1.267133,3.562782,-2.454267,-1.379493,-0.1213145,0,0,10.22483,14.78983,-0.5945355,0.2664799,-0.351135,-0.344392,3.877346,-0.04915316,-0.1755555,0.4104059,0.0904756,-0.9521621,1.912173,0.008021175,0.0779269,1.350031,0.8144786,283.1336,239.7365,82.78635
5,0.9555568,-0.49937,-0.4821382,1.095457,-1.267133,3.562782,-2.454267,-1.37517,0.3971963,0,0,10.22483,14.76051,-0.5945355,0.2664799,-0.351135,-0.344392,3.877346,-0.04915316,-0.1755555,0.4104059,0.0904756,-0.9521621,1.912173,0.008021175,0.0714132,1.350564,0.8124227,282.5701,238.4911,83.55398
5,0.9666679,-0.5060369,0.1242032,1.320465,-1.308135,3.56955,-2.444241,-1.389211,-1.286551,0,0,10.24438,14.71163,-0.7113639,0.2399628,-0.2991439,-0.3498888,3.89052,-0.04247502,-0.1775739,0.4349165,0.09151752,-0.9499773,1.92488,0.004658668,0.06260636,1.351718,0.8097339,281.6558,236.1296,85.511
5,0.977779,-0.5145074,0.5029398,1.375209,-1.333529,3.565296,-2.43684,-1.384407,0.450864,0,0,10.27371,14.66276,-0.7790993,0.2506217,-0.2463828,-0.3508027,3.900097,-0.04063424,-0.1797266,0.4519499,0.07978289,-0.9495724,1.931828,0.002641323,0.05410438,1.352831,0.8055611,282.3628,232.4656,86.79927
5,0.9888902,-0.549197,1.070798,1.387585,-1.367874,3.549269,-2.424987,-1.384961,-0.05482881,0,0,10.32258,14.49658,-0.8690339,0.2868533,-0.1773998,-0.3502291,3.913938,-0.04035009,-0.1797491,0.4711031,0.06696638,-0.9493413,1.939237,0.0003699131,0.04649699,1.354575,0.8019397,282.1695,228.6716,87.89591
5,1.000001,-0.5278528,1.41061,1.376606,-1.39706,3.537573,-2.417439,-1.384319,0.05940745,0,0,10.37146,14.19355,-0.894375,0.2932259,-0.1505485,-0.3509556,3.924102,-0.03905446,-0.1690097,0.4849106,0.06898758,-0.9484428,1.946429,-0.002520948,0.04029379,1.357364,0.7999985,281.0998,223.6641,91.11204
5,1.011112,-0.4965348,1.965456,1.347433,-1.437091,3.512727,-2.408525,-1.382485,0.1669142,0,0,10.43988,13.78299,-0.8622254,0.3027036,-0.1284115,-0.3519011,3.934898,-0.04114584,-0.1732556,0.4902538,0.0679472,-0.9477812,1.953429,-0.00450234,0.03616711,1.361019,0.7998424,280.0266,217.4445,96.54173
5,1.022224,-0.3661888,2.542994,1.318877,-1.479684,3.4848,-2.405986,-1.385498,-0.2778916,0,0,10.48876,13.26491,-0.7730446,0.2770393,-0.16114,-0.3552289,3.94021,-0.04145104,-0.1603794,0.4678656,0.09131699,-0.9459596,1.958737,-0.006242982,0.03471244,1.365626,0.8017255,278.9267,209.6761,104.3458
5,1.033335,-0.3072789,2.776091,1.282301,-1.514764,3.465323,-2.403533,-1.38633,-0.07220155,0,0,10.53763,12.84457,-0.6926965,0.2035231,-0.220551,-0.3598836,3.937867,-0.03438141,-0.14965,0.4582512,0.1040283,-0.9444288,1.964519,-0.008546617,0.03630218,1.370704,0.8049698,278.0763,198.9448,115.8952
5,1.044446,-0.2081213,2.998486,1.123222,-1.547943,3.438483,-2.403264,-1.391826,-0.5029156,0,0,10.57674,12.59042,-0.6139873,0.1813438,-0.3650492,-0.3693154,3.939356,-0.03181359,-0.1472433,0.4710732,0.1316856,-0.9419968,1.971589,-0.0111914,0.04119449,1.37606,0.8095988,277.3818,183.2499,132.9903
5,1.055557,-0.1912473,2.976038,1.008364,4.708936,3.420391,-2.401492,-1.390351,0.1391457,0,0,10.60606,12.36559,-0.5554553,0.2313521,-0.3856379,-0.3743861,3.951689,-0.03904381,-0.1536091,0.4817469,0.1306468,-0.9407489,1.978696,-0.01326654,0.04932663,1.381029,0.8151312,277.5742,163.0277,155.6257
5,1.066668,-0.2079115,2.746446,0.8562695,4.691035,3.406714,-2.398507,-1.391386,-0.09546604,0,0,10.62561,12.18964,-0.4243873,0.276915,-0.3929645,-0.3791729,3.963977,-0.05051324,-0.1399048,0.4656927,0.1209762,-0.9398253,1.984442,-0.01556804,0.05950634,1.384902,0.8208432,278.6685,146.3072,175.7364
5,1.077779,-0.2050897,2.43292,0.7220541,4.677748,3.397763,-2.396897,-1.388494,0.2632107,0,0,10.64516,12.16031,-0.334926,0.2788849,-0.396862,-0.383867,3.97167,-0.05722148,-0.113587,0.4112258,0.110199,-0.9391318,1.987525,-0.01713265,0.07071179,1.38729,0.8262209,280.065,136.1331,189.5091
5,1.08889,-0.202376,2.194538,0.6424779,4.663419,3.389087,-2.395305,-1.386335,0.1957293,0,0,10.66471,12.19941,-0.2389174,0.287183,-0.3826884,-0.3877397,3.980351,-0.06648635,-0.09792808,0.3557418,0.09951201,-0.9384761,1.989876,-0.01793825,0.08137602,1.388308,0.8311309,281.3146,129.0866,200.1963
5,1.100002,-0.1738734,1.858036,0.5446519,4.656877,3.385191,-2.394662,-1.387259,-0.08621189,0,0,10.70381,12.26784,-0.196391,0.2924626,-0.3958041,-0.3929217,3.988368,-0.07300577,-0.07489251,0.2948905,0.08132149,-0.9383147,1.990908,-0.01863547,0.09009317,1.388249,0.8350824,282.1351,124.1421,208.3431
5,1.111113,-0.1050971,1.630919,0.5052882,4.647928,3.381236,-2.396501,-1.387176,0.008569951,0,0,10.75269,12.36559,-0.1728497,0.2902526,-0.3821468,-0.3968078,3.995632,-0.07873449,-0.06541026,0.2575762,0.08770193,-0.937143,1.992608,-0.01930499,0.09593955,1.387533,0.8378912,282.6019,120.1919,214.41
5,1.122224,-0.005271018,1.35687,0.4503784,4.642384,3.379507,-2.400668,-1.38808,-0.08297492,0,0,10.80156,12.11144,-0.08709487,0.2654043,-0.3093788,-0.3975396,4.00039,-0.08549413,-0.03561688,0.1882624,0.1195423,-0.9345102,1.991754,-0.01961498,0.09878574,1.386602,0.8395512,282.7784,116.4424,219.0477
5,1.133335,0.1709635,1.196319,0.4293207,4.633641,3.376014,-2.40953,-1.39033,-0.205222,0,0,10.86022,11.76931,-0.0161486,0.2085766,-0.2152635,-0.39606,4.000614,-0.08848859,-0.0007969141,0.09224958,0.1279462,-0.932696,1.988579,-0.0190653,0.0987293,1.38587,0.8403307,282.6335,113.9016,221.5134
5,1.144446,0.2947554,1.077778,0.3652915,4.627601,3.371365,-2.418025,-1.392489,-0.1960361,0,0,10.92864,11.4565,-0.002377493,0.02171629,-0.04535948,-0.388919,3.983248,-0.07311708,0.0253649,0.0005045421,0.1172417,-0.9317223,1.984194,-0.01777394,0.09645657,1.385397,0.8402981,282.4278,112.1802,222.3286
5,1.155557,0.3193982,0.9832087,0.2777904,4.622256,3.36519,-2.422786,-1.396398,-0.3564735,0,0,10.99707,11.1828,-0.1008095,-0.05289894,0.05431648,-0.3842851,3.97478,-0.06043378,0.03862353,-0.0603388,0.07568994,-0.9325293,1.980792,-0.01662851,0.09291922,1.384971,0.8395107,282.1115,111.3144,221.6263
5,1.166668,0.2405611,0.895403,0.152069,4.620055,3.358152,-2.423107,-1.395203,0.1112654,0,0,11.05572,10.97752,-0.1302271,-0.03804211,0.1025257,-0.3812959,3.975508,-0.0584681,0.05558211,-0.06042904,0.06490068,-0.9322507,1.97992,-0.01734756,0.08921226,1.384342,0.8384892,281.9093,110.9352,220.2219
5,1.17778,0.1174095,0.6699554,0.02040008,4.623665,3.355961,-2.420437,-1.390105,0.4639394,0,0,11.1046,10.90909,-0.08223021,-0.0285596,0.107493,-0.3804475,3.976866,-0.06034696,0.06521764,-0.04980753,0.06587008,-0.9315119,1.980243,-0.01845437,0.08606037,1.383244,0.837836,281.7595,110.9693,218.8379
5,1.188891,0.08620968,0.7342706,-0.03665374,4.61863,3.346354,-2.421067,-1.384512,0.5070632,0,0,11.15347,10.91887,0.02208341,-0.06604619,0.1055099,-0.3792054,3.971426,-0.05964842,0.06204305,-0.05085381,0.06909337,-0.9306214,1.97953,-0.01860857,0.08403877,1.381638,0.8378768,281.4836,110.2545,218.7153
5,1.200002,0.05005869,0.7018839,-0.06500994,4.615143,3.34025,-2.421685,-1.38149,0.2723261,0,0,11.2219,10.95797,0.0749076,-0.1182545,0.06341897,-0.380293,3.96262,-0.05448535,0.05677394,-0.06464331,0.08407417,-0.9289495,1.978423,-0.01820191,0.08345553,1.379841,0.8386806,280.9955,108.5293,220.2522
5,1.211113,0.02991802,0.6310102,-0.114318,4.61494,3.334954,-2.42161,-1.384193,-0.2489746,0,0,11.3001,11.04594,0.09485821,-0.1277991,0.02914689,-0.3812134,3.957644,-0.0517098,0.05140335,-0.07314506,0.08306666,-0.9280419,1.977,-0.01770043,0.08420905,1.378227,0.839889,280.4407,106.131,222.9311
5,1.222224,0.05153184,0.5006068,-0.1598832,4.617386,3.332998,-2.424028,-1.385115,-0.08132067,0,0,11.39785,11.1437,0.1273234,-0.1234296,-0.04247753,-0.3845109,3.953892,-0.05093908,0.04496692,-0.08589977,0.08420317,-0.9271231,1.975237,-0.01696567,0.08650596,1.377212,0.8415803,280.289,103.2659,226.2542
5,1.233335,0.09975515,0.3886674,-0.18122,4.619338,3.331087,-2.427288,-1.384707,0.03794526,0,0,11.52493,11.15347,0.1378271,-0.07863596,-0.07228191,-0.3865594,3.955938,-0.05471544,0.0279299,-0.09113723,0.08860397,-0.9260413,1.973906,-0.01570892,0.09006022,1.376706,0.8432673,280.5754,101.7604,228.742
5,1.244446,0.146815,0.3043776,-0.2070968,4.621796,3.328853,-2.430923,-1.387523,-0.2579769,0,0,11.55425,11.4174,0.1199757,0.03111149,-0.06654815,-0.3872385,3.968339,-0.06664667,0.01634511,-0.06551541,0.09184818,-0.9248967,1.974242,-0.0156522,0.09422889,1.376599,0.8446187,280.9698,102.3258,229.6043
5,1.255558,0.1672101,0.252117,-0.2172667,4.623279,3.326218,-2.434066,-1.388567,-0.09334058,0,0,11.47605,12.03324,0.1299184,0.1269082,-0.0450846,-0.3869424,3.981387,-0.08037686,0.01014239,-0.03882838,0.1014389,-0.923458,1.975246,-0.0162064,0.09807491,1.376614,0.8454405,281.4561,104.6784,228.8157
5,1.266669,0.1779032,0.2598967,-0.1886042,4.622038,3.323117,-2.436747,-1.388713,-0.01298887,0,0,11.27077,12.98143,0.1333063,0.1684148,-0.03116149,-0.3870489,3.990608,-0.09054828,0.01015541,-0.03776123,0.1025023,-0.9222686,1.974796,-0.01606552,0.1010155,1.376471,0.8457243,281.8705,106.9163,227.6882
5,1.27778,0.1853848,0.2751049,-0.1621419,4.620128,3.319578,-2.439446,-1.387892,0.07485943,0,0,10.93842,14.32063,0.1411204,0.2375574,-0.002272278,-0.3861296,4.003601,-0.1043309,0.01008752,-0.0430994,0.09825341,-0.92132,1.973729,-0.01536591,0.1027273,1.375977,0.8457056,282.1257,108.6591,226.5928
5,1.288891,0.190748,0.2817717,-0.1366528,4.618369,3.316585,-2.442078,-1.387058,0.07547537,0,0,10.64516,15.61095,0.1718223,0.2524782,-0.03017882,-0.3879027,4.01236,-0.115558,0.01969258,-0.06335784,0.1109957,-0.9196055,1.971901,-0.01485538,0.1031381,1.375064,0.8456435,282.186,109.2972,226.1493
5,1.300002,0.1993593,0.3015779,-0.07720509,4.614603,3.314316,-2.445056,-1.3868,0.02301175,0,0,10.43988,16.69599,0.1843261,0.2056354,-0.05382523,-0.3894836,4.012299,-0.1180398,0.03880876,-0.09751678,0.1215587,-0.9177322,1.968772,-0.01407614,0.1025678,1.373802,0.8456492,282.05,108.3634,226.8071
5,1.311113,0.2388819,0.3140686,-0.01243096,4.610351,3.312775,-2.44929,-1.386652,0.0133413,0,0,10.33236,17.61486,0.1444094,0.08541561,-0.08682654,-0.3913749,4.0012,-0.1077693,0.05991529,-0.130643,0.1139875,-0.9168065,1.965457,-0.01350196,0.1014215,1.372302,0.8457713,281.7886,106.5888,228.1238
5,1.322224,0.2891124,0.2911128,0.02179979,4.607649,3.312015,-2.454828,-1.386949,-0.02736871,0,0,10.34213,18.25025,0.0684067,-0.02411327,-0.1045962,-0.392648,3.988927,-0.09393262,0.06516866,-0.1338781,0.1075644,-0.9157774,1.9634,-0.01301966,0.1000667,1.370714,0.8460239,281.4957,104.3169,229.9259
5,1.333336,0.2999078,0.2625493,0.03912523,4.605662,3.311197,-2.458861,-1.388157,-0.1103151,0,0,10.57674,18.29912,0.0279815,-0.06348708,-0.08839172,-0.3927566,3.983927,-0.08827767,0.06727428,-0.1264445,0.1000828,-0.9149141,1.96207,-0.01307772,0.09878626,1.369197,0.8463894,281.3592,101.6547,232.2386
5,1.344447,0.2383769,0.1642646,0.02960441,4.606711,3.312516,-2.459258,-1.3894,-0.1128855,0,0,10.98729,18.53373,0.07081209,0.02163684,-0.08213268,-0.3936706,3.991962,-0.09795426,0.05469994,-0.1050591,0.1150611,-0.9130472,1.961674,-0.01297039,0.09768006,1.367718,0.8466921,281.4147,99.68701,234.1189
5,1.355558,0.1958693,0.123552,0.01945959,4.606884,3.312413,-2.460011,-1.387687,0.15728,0,0,11.54448,19.17889,0.1038624,0.09192336,-0.09607542,-0.3956914,4.001128,-0.1087976,0.05696337,-0.07736254,0.1171243,-0.9117055,1.961999,-0.01386628,0.09666086,1.366118,0.8469081,281.5281,98.93797,234.9521
5,1.366669,0.1511871,0.09564307,0.01131826,4.60701,3.312283,-2.460021,-1.383924,0.3424336,0,0,12.19941,20.36168,0.1367177,0.1441411,-0.1303,-0.3988105,4.009554,-0.1193038,0.071842,-0.08168994,0.1148818,-0.9104645,1.960725,-0.01441889,0.09568319,1.364361,0.8470979,281.5397,98.14375,235.7905
5,1.37778,0.1245794,0.07617803,-0.008666048,4.607431,3.311578,-2.460947,-1.383863,0.002859321,0,0,12.77615,22.44379,0.1464972,0.1291382,-0.1027182,-0.3991029,4.010912,-0.1223746,0.08647966,-0.1041622,0.09135997,-0.9103659,1.958199,-0.01450784,0.09473788,1.362663,0.8472878,281.326,96.35268,237.4916
5,1.388891,0.1352088,0.06736533,-0.03949855,4.608343,3.310207,-2.463354,-1.38343,0.04007429,0,0,13.21603,25.00489,0.1531754,0.08959773,-0.05705874,-0.3980382,4.010117,-0.123589,0.07995029,-0.1105512,0.07757419,-0.909992,1.95635,-0.01402927,0.09396899,1.361319,0.847554,281.0647,94.10452,239.5558
5,1.400002,0.1800662,-0.008594938,-0.0835717,4.611932,3.310752,-2.4668,-1.384506,-0.09848806,0,0,13.51906,27.43891,0.1629828,0.001039356,-0.007276293,-0.3957154,4.002116,-0.1182936,0.05629535,-0.1147597,0.05221211,-0.9101635,1.954598,-0.01269689,0.09349206,1.360547,0.8479358,280.8834,92.03197,241.4972
5,1.411114,0.2240085,-0.1151896,-0.1017569,4.616218,3.313575,-2.470721,-1.386209,-0.1547085,0,0,13.69502,29.7654,0.1290715,-0.0426567,0.02590978,-0.3942054,3.997405,-0.1141399,0.03385382,-0.115742,0.0438754,-0.909853,1.952996,-0.01135492,0.09335495,1.36042,0.8484311,280.7666,91.11493,242.3999
5,1.422225,0.2934878,-0.2196594,-0.1274847,4.622001,3.317003,-2.476253,-1.387612,-0.1270787,0,0,13.76344,31.73998,0.07993802,-0.05317962,0.01242619,-0.394379,3.99474,-0.1107808,0.02653118,-0.1061027,0.05563606,-0.9087909,1.951992,-0.01077542,0.09354553,1.360711,0.8488602,280.7171,91.95488,241.6977
5,1.433336,0.2968681,-0.2695732,-0.1120626,4.625143,3.320326,-2.479357,-1.388273,-0.05959911,0,0,13.75367,32.64907,0.04680437,-0.01790697,-0.009597789,-0.395555,3.997504,-0.1127074,0.008463576,-0.1070794,0.06111002,-0.9078812,1.950506,-0.009455553,0.09385306,1.361033,0.848945,280.6793,94.00597,239.8888
5,1.444447,0.2905912,-0.2636713,-0.05351398,4.625775,3.323412,-2.48209,-1.389675,-0.1280603,0,0,13.69502,32.72727,0.0149929,0.1462653,-0.03131507,-0.3976355,4.016356,-0.1290014,-0.00931941,-0.09841795,0.09745888,-0.905584,1.949518,-0.008133827,0.09399721,1.361068,0.8486159,280.6669,96.27913,237.8582
5,1.455558,0.2510923,-0.1810756,0.01285486,4.623219,3.324119,-2.483465,-1.386806,0.2628163,0,0,13.60704,32.09189,0.01947263,0.2410631,-0.02792303,-0.3985372,4.031452,-0.1435204,-0.01759681,-0.09833502,0.1273571,-0.9030614,1.948047,-0.006871222,0.09359813,1.3605,0.8480397,280.6908,98.73321,235.6772
5,1.466669,0.20301,-0.110656,0.03675115,4.62146,3.323916,-2.484068,-1.385414,0.1241754,0,0,13.50929,30.84067,0.03896247,0.3400611,-0.01292133,-0.3992792,4.050599,-0.1623151,-0.01853161,-0.08553041,0.1369303,-0.9011503,1.947447,-0.006238455,0.092399,1.359294,0.8476348,280.7381,99.29055,235.2
5,1.47778,0.1121456,0.0009425972,0.03582257,4.618936,3.32097,-2.482499,-1.38296,0.2226986,0,0,13.44086,29.73607,0.06359971,0.3293142,0.007102624,-0.39895,4.058582,-0.171196,-0.009045705,-0.07601604,0.118716,-0.9007551,1.94676,-0.006154299,0.09048852,1.357626,0.8475779,280.6707,97.31072,236.8889
5,1.488891,0.07280547,-0.02479734,0.03084981,4.619732,3.322317,-2.482355,-1.380955,0.180595,0,0,13.43108,28.82698,0.06661613,0.198256,0.01741427,-0.3979849,4.052849,-0.1666982,-0.005006507,-0.07395352,0.08991601,-0.9008036,1.9458,-0.005649364,0.08822381,1.355759,0.8479776,280.5178,93.63249,240.0289
5,1.500003,0.05772864,-0.002922127,-0.014083,4.620636,3.320558,-2.482649,-1.377385,0.3240346,0,0,13.47019,28.05474,0.03321784,0.04813589,0.007725347,-0.3974741,4.040958,-0.1549637,-0.0107658,-0.06870604,0.03243338,-0.9024489,1.944983,-0.004968659,0.08603372,1.353975,0.8488069,280.2531,89.42741,243.6281
5,1.511114,0.03539184,-0.03307514,-0.03930288,4.622643,3.320945,-2.48252,-1.377771,-0.03896762,0,0,13.55816,27.42913,0.009358685,-0.03269058,-0.02530396,-0.3983951,4.033944,-0.1477927,-0.0203874,-0.05377053,0.02076248,-0.9024941,1.944849,-0.004280765,0.08433695,1.352582,0.8499871,280.0374,85.50349,247.1731
5,1.522225,0.00771023,-0.04818456,-0.05080715,4.624066,3.321189,-2.481693,-1.376583,0.1078774,0,0,13.67546,26.87195,0.02736834,-0.03589327,-0.03717409,-0.3991461,4.032269,-0.1471463,-0.0202863,-0.03778382,0.02499514,-0.9020792,1.945007,-0.004151335,0.08311384,1.351534,0.8509586,279.8841,83.62617,249.0373
5,1.533336,-0.01681841,-0.03441627,-0.05090007,4.624559,3.320858,-2.480931,-1.374426,0.1946359,0,0,13.79277,26.21701,0.07333469,0.004476719,-0.02785254,-0.3993005,4.036972,-0.1540668,-0.01789631,-0.02922232,0.05266566,-0.900354,1.944978,-0.004089816,0.08245917,1.350805,0.8517085,279.7139,82.81351,249.8058
5,1.544447,-0.05200731,-0.0001465697,-0.02346932,4.623296,3.320324,-2.479129,-1.371459,0.2679046,0,0,13.91007,25.3959,0.0779925,0.03312669,0.01479398,-0.3979583,4.041132,-0.1590078,-0.01723244,-0.07614391,0.02717412,-0.9008675,1.941852,-0.001982457,0.08231232,1.350363,0.8522573,279.6143,82.64255,250.0189
5,1.555558,-0.07231415,0.04476914,-0.0004252475,4.621227,3.31936,-2.477984,-1.368967,0.2237882,0,0,13.99804,24.3695,0.03803264,0.04690776,0.07800731,-0.3950666,4.044996,-0.1613905,-0.02181804,-0.09854791,-0.0004479941,-0.9018683,1.939332,9.986854E-05,0.08248589,1.350195,0.8527872,279.6463,83.08105,249.8052
5,1.566669,-0.1011816,0.07664452,-0.001734279,4.619939,3.317849,-2.476001,-1.365329,0.3289052,0,0,14.06647,23.20626,0.01376537,0.03196068,0.1111895,-0.3926655,4.045585,-0.1612355,-0.02511093,-0.08684359,-0.01748606,-0.9025235,1.938781,0.0009366337,0.082749,1.350249,0.8533912,279.7888,83.74439,249.4821
5,1.577781,-0.1342239,0.07107508,-0.01651918,4.620079,3.316929,-2.473482,-1.363104,0.1986855,0,0,14.0958,22.00391,0.001183696,-0.0128454,0.1474069,-0.3895757,4.042095,-0.1576567,-0.02401598,-0.08790593,-0.01323166,-0.902532,1.937511,0.001955559,0.08300585,1.35054,0.8541565,279.9655,83.79963,249.6334
5,1.588892,-0.1352924,0.07309176,-0.02505136,4.62017,3.316297,-2.472479,-1.359417,0.3334713,0,0,14.10557,20.73314,0.002112731,-0.0820869,0.1482908,-0.3875746,4.034512,-0.1506438,-0.007008489,-0.09756115,-0.01228658,-0.9025799,1.935689,0.00263573,0.08330129,1.351002,0.8550555,280.0889,83.80917,249.6436
5,1.600003,-0.13539,0.1050166,-0.02856959,4.619184,3.314325,-2.47117,-1.355862,0.31997,0,0,14.04692,19.40372,0.01772328,-0.1438292,0.11712,-0.3868156,4.024949,-0.142473,0.001470834,-0.09760631,-0.01768111,-0.9029331,1.934273,0.003143063,0.08371185,1.35155,0.8560609,280.1381,84.11846,249.3547
5,1.611114,-0.1439929,0.1272881,-0.03622699,4.61826,3.312315,-2.469564,-1.354254,0.1422662,0,0,13.91984,18.04497,0.03982735,-0.1821659,0.09234991,-0.3861685,4.016715,-0.1361275,0.002498105,-0.09229714,-0.0251561,-0.9034742,1.933252,0.0037476,0.08406743,1.352051,0.8570821,280.2225,85.40385,248.4099
5,1.622225,-0.1547793,0.1633366,-0.05041636,4.617204,3.309328,-2.467766,-1.350717,0.3198564,0,0,13.73412,16.68622,0.05236627,-0.1853135,0.06241285,-0.3861951,4.010672,-0.1316129,-0.01575547,-0.08373965,-0.04740069,-0.9048446,1.932399,0.005121791,0.08411,1.352262,0.8579614,280.3592,87.19208,247.0263
5,1.633336,-0.1197219,0.1813146,-0.07304109,4.616751,3.306464,-2.467908,-1.346954,0.3388642,0,0,13.51906,15.40567,0.04061134,-0.1586291,0.05192461,-0.3857104,4.009074,-0.1300355,-0.01690081,-0.07310752,-0.06232438,-0.9059813,1.931821,0.005760417,0.08394975,1.352097,0.8587294,280.4103,87.45458,246.7515
5,1.644447,-0.0813884,0.169479,-0.0953799,4.617247,3.304138,-2.468493,-1.343295,0.329522,0,0,13.28446,14.24242,0.0164117,-0.0819246,0.07148519,-0.384431,4.014141,-0.1340276,-0.02851145,-0.04749137,-0.0622761,-0.9066652,1.932271,0.006198507,0.08379669,1.351646,0.8595133,280.36,86.33171,247.6635
5,1.655559,-0.04298124,0.1364019,-0.1111134,4.618495,3.302878,-2.469466,-1.341894,0.123154,0,0,13.02053,13.23558,0.01587832,-0.01493916,0.121731,-0.38155,4.020328,-0.1399195,-0.04016502,-0.02507268,-0.06542554,-0.9075765,1.932919,0.006647783,0.08380115,1.35103,0.8604718,280.2873,84.87067,249.0031
5,1.66667,-0.02807896,0.1320753,-0.1217566,4.61905,3.300781,-2.469899,-1.339209,0.2422266,0,0,12.72727,12.36559,0.0192527,0.02656806,0.1345887,-0.3799702,4.024895,-0.1444754,-0.04217931,-0.01971683,-0.0537001,-0.9077758,1.93288,0.007210242,0.08403042,1.350252,0.8615995,280.2297,83.84766,250.0774
5,1.677781,-0.03460559,0.199403,-0.09791172,4.616304,3.297229,-2.469507,-1.336274,0.263834,0,0,12.43402,11.66178,0.001245141,0.03083576,0.1464615,-0.3780522,4.027142,-0.1459434,-0.03996416,-0.01970774,-0.04306571,-0.907854,1.932485,0.00778442,0.08443034,1.34926,0.8627894,280.1861,82.87826,251.2398
5,1.688892,-0.03796595,0.2849413,-0.06574076,4.612138,3.29269,-2.469426,-1.332365,0.3530288,0,0,12.16031,11.07527,-0.01908136,0.005324364,0.142301,-0.3765369,4.025314,-0.1432552,-0.03570275,-0.01759695,-0.04416887,-0.9083547,1.932347,0.008102401,0.08491237,1.348041,0.8639289,280.145,81.69282,252.6672
5,1.700003,-0.06794629,0.356454,-0.04402227,4.607816,3.287736,-2.468203,-1.328211,0.3748142,0,0,11.92571,10.69404,-0.02066006,-0.04354471,0.08999387,-0.3770093,4.01906,-0.1371198,-0.04626022,0.0165219,-0.05053484,-0.9092016,1.933997,0.007895473,0.08540293,1.346644,0.8650297,280.1972,80.30717,254.3254
5,1.711114,-0.09572029,0.3958949,-0.03263705,4.604546,3.283532,-2.466761,-1.325673,0.2275472,0,0,11.73021,10.51809,0.005674245,-0.06588802,0.05777144,-0.3771808,4.015301,-0.1346726,-0.04508131,0.03676265,-0.04738401,-0.909592,1.935347,0.007481885,0.08589598,1.345216,0.8661587,280.4381,78.62836,256.2809
5,1.722225,-0.1138885,0.4257888,-0.02117869,4.600739,3.27907,-2.465277,-1.322303,0.3050514,0,0,11.56403,10.51809,0.05416012,-0.09034132,-0.001269229,-0.3789907,4.009432,-0.1315721,-0.03984568,0.03139898,-0.05593929,-0.9105257,1.935624,0.007613977,0.08646537,1.343864,0.8672757,280.7322,77.00233,258.1165
5,1.733337,-0.1149119,0.4151761,-0.01573646,4.598235,3.275966,-2.464477,-1.320215,0.1872942,0,0,11.42717,10.63539,0.06456029,-0.07856871,-0.03541239,-0.3803708,4.007635,-0.130848,-0.03345788,0.02072928,-0.05171591,-0.911053,1.935435,0.007797736,0.08718923,1.34275,0.8684088,280.9975,75.50343,259.8375
5,1.744448,-0.1031064,0.3692107,-0.03447613,4.597436,3.273329,-2.464023,-1.318643,0.1414719,0,0,11.3392,10.83089,0.06236518,-0.04230262,-0.05235083,-0.3817407,4.009572,-0.1332774,-0.01530906,0.003632635,-0.03798223,-0.9110131,1.934765,0.007753794,0.08801492,1.34199,0.8694707,281.2123,74.49129,261.1502
5,1.755559,-0.09343116,0.3135214,-0.06589494,4.597904,3.271048,-2.463638,-1.318199,0.03875268,0,0,11.3001,11.09482,0.06259285,-0.02851725,-0.02780904,-0.3809114,4.010283,-0.1346095,-0.00251201,-0.01025107,-0.02953697,-0.9110535,1.934184,0.007655256,0.08899111,1.341709,0.87045,281.3994,73.73841,262.1177
5,1.76667,-0.08915538,0.2931007,-0.08487514,4.597574,3.268054,-2.463143,-1.317546,0.0588278,0,0,11.3001,11.43695,0.0500662,-0.05095107,0.00953065,-0.379208,4.007164,-0.1318803,0.0006559798,-0.01452722,-0.03062334,-0.9114994,1.933834,0.007800133,0.09006807,1.341907,0.8713188,281.5248,73.88422,262.2207
5,1.777781,-0.05830637,0.2811214,-0.1189115,4.597744,3.264318,-2.463927,-1.316653,0.08039314,0,0,11.34897,11.80841,0.02475984,-0.06590481,0.04591718,-0.3772815,4.004299,-0.1286182,0.008016641,-0.03906012,-0.02957559,-0.9118562,1.932275,0.008469385,0.09113991,1.342454,0.8720211,281.5354,74.85562,261.5086
5,1.788892,-0.03811999,0.2992125,-0.1255277,4.596498,3.260334,-2.46479,-1.315547,0.09988692,0,0,11.4174,12.13099,0.01126779,-0.06598778,0.0907652,-0.3748159,4.003297,-0.127367,0.01435824,-0.05825745,-0.02639306,-0.9120086,1.930679,0.00901986,0.0921816,1.343209,0.8725658,281.4703,76.25547,260.2836
5,1.800003,-0.02432075,0.3260006,-0.1141094,4.594346,3.256209,-2.465487,-1.315891,-0.03270259,0,0,11.47605,12.23851,0.01351067,-0.0564332,0.1024895,-0.373242,4.002892,-0.1272269,0.01335273,-0.05823996,-0.0189277,-0.9119574,1.929801,0.009442504,0.09318027,1.344012,0.8730379,281.4474,77.94611,258.738
5,1.811115,-0.020131,0.3742098,-0.08797336,4.590869,3.251675,-2.465941,-1.315287,0.05508742,0,0,11.4956,12.10166,0.01984301,-0.03830748,0.09075764,-0.3728889,4.003518,-0.1282837,0.01342645,-0.03055009,-0.02430198,-0.9124139,1.930662,0.008755675,0.09419774,1.344679,0.8735203,281.4316,79.63622,257.1439
5,1.822226,-0.03188679,0.4009793,-0.07117107,4.587656,3.247323,-2.465716,-1.314378,0.08214872,0,0,11.48583,11.74976,0.03992758,-0.03510083,0.07036381,-0.3727914,4.002906,-0.1288773,0.01448554,-0.01778416,-0.03179008,-0.9130169,1.930987,0.00835407,0.09525225,1.345071,0.8741351,281.5277,80.97326,255.9602
5,1.833337,-0.06390733,0.4308175,-0.06074651,4.584392,3.242674,-2.464417,-1.313436,0.08513517,0,0,11.4174,11.19257,0.04593593,-0.06270626,0.02870376,-0.3736031,3.998036,-0.1250775,0.01229273,-0.008210092,-0.04457048,-0.9139245,1.93123,0.008135424,0.09632868,1.345124,0.8748903,281.7183,81.61494,255.5542
5,1.844448,-0.1065219,0.4393209,-0.05113832,4.581328,3.238629,-2.462341,-1.312248,0.1076387,0,0,11.3001,10.52786,0.04870692,-0.09136055,-0.0171964,-0.3750317,3.992384,-0.1203938,0.01550982,-0.005025676,-0.04353672,-0.9143697,1.931288,0.007805725,0.09742197,1.34486,0.8757778,281.9586,81.51959,255.9288
5,1.855559,-0.1331664,0.4478215,-0.0458375,4.578259,3.234318,-2.460508,-1.310727,0.1379651,0,0,11.12415,9.755621,0.05170399,-0.1190201,-0.03540063,-0.3757529,3.986001,-0.1151226,0.02617258,-0.01358557,-0.03827931,-0.914611,1.930697,0.007478955,0.09851363,1.344372,0.8767404,282.1722,80.94241,256.8204
5,1.86667,-0.145897,0.4274635,-0.05414256,4.576531,3.230422,-2.459217,-1.309747,0.08847402,0,0,10.89932,8.885631,0.05904143,-0.1317845,-0.04720986,-0.3764309,3.980842,-0.1112144,0.03047054,-0.01465889,-0.03298424,-0.9147894,1.930442,0.007178284,0.09960765,1.343803,0.8777021,282.3537,80.07592,257.971
5,1.877781,-0.1426072,0.3739531,-0.07917943,4.576282,3.227465,-2.458121,-1.309845,-0.009622169,0,0,10.63539,7.986315,0.07293723,-0.1414221,-0.03988476,-0.3763409,3.975566,-0.1076596,0.03375039,-0.01039616,-0.02449032,-0.9146701,1.930485,0.006696252,0.100766,1.343365,0.878592,282.5155,78.94854,259.3006
5,1.888893,-0.1339581,0.3194673,-0.09676927,4.576553,3.224996,-2.457453,-1.310455,-0.05567256,0,0,10.38123,7.223851,0.07198828,-0.1201333,-0.03023537,-0.3762434,3.974236,-0.1071504,0.03279533,-0.003980532,-0.01383977,-0.9144288,1.930746,0.006250439,0.1020269,1.343248,0.8794216,282.6576,78.11064,260.3467
5,1.900004,-0.1061017,0.2404276,-0.1247996,4.57846,3.223541,-2.457411,-1.310793,-0.03042303,0,0,10.17595,6.715542,0.05650071,-0.04990597,0.01374501,-0.3747025,3.979695,-0.1123654,0.03910623,-0.03170224,-0.009582369,-0.9144251,1.929029,0.006666425,0.1033859,1.343503,0.8801299,282.7155,78.02654,260.6752
5,1.911115,-0.08149104,0.1999874,-0.1276416,4.578908,3.221826,-2.45761,-1.311217,-0.03870488,0,0,10.02933,6.500489,0.053539,-0.01373191,0.0341047,-0.3737768,3.982388,-0.1153849,0.04761533,-0.04663589,-0.003232051,-0.9142717,1.927806,0.006607302,0.1047606,1.34406,0.8806321,282.7051,78.84778,260.144
5,1.922226,-0.05690386,0.1562096,-0.144301,4.580559,3.220313,-2.458102,-1.311869,-0.05934247,0,0,9.941349,6.529815,0.05901945,0.01285851,0.04691061,-0.3729565,3.985476,-0.1190915,0.04330148,-0.05514393,-0.005313324,-0.9144331,1.926606,0.007010239,0.1060153,1.344797,0.8809482,282.6747,80.36087,258.9445
5,1.933337,-0.06540912,0.1454812,-0.1495021,4.581069,3.21799,-2.457225,-1.311932,-0.005485829,0,0,9.902249,6.754644,0.08145322,0.02558289,0.05102168,-0.3724132,3.987164,-0.1224276,0.03701872,-0.0476418,0.004313075,-0.914023,1.926404,0.006957242,0.1070246,1.345544,0.8811182,282.5973,82.06994,257.4539
5,1.944448,-0.0472773,0.1661232,-0.1145892,4.579399,3.215939,-2.457595,-1.312013,-0.007563224,0,0,9.931575,7.106549,0.08571921,-0.008536071,0.05942175,-0.3714401,3.983993,-0.1206212,0.03808398,-0.04764627,0.004304558,-0.9139793,1.925739,0.006890663,0.1077798,1.346173,0.8812779,282.558,83.54126,256.0759
5,1.955559,-0.01525331,0.1686651,-0.08272565,4.578016,3.214489,-2.458724,-1.310355,0.1515355,0,0,10,7.458456,0.06424455,-0.06813689,0.05305673,-0.3706417,3.976647,-0.1137532,0.03274327,-0.04123722,7.5077E-05,-0.9141418,1.925404,0.006991863,0.108283,1.34654,0.8814777,282.4823,84.69535,254.9497
5,1.966671,-0.004561331,0.1570198,-0.0783684,4.577806,3.212968,-2.459151,-1.311318,-0.08949405,0,0,10.12708,7.820137,0.04593903,-0.105345,0.03712441,-0.3706113,3.970101,-0.1076143,0.02855051,-0.02736936,0.001149879,-0.9141061,1.925596,0.006668821,0.1086365,1.346662,0.8818107,282.4634,84.9916,254.6417
5,1.977782,0.004046372,0.125065,-0.08019666,4.578403,3.212163,-2.459629,-1.312126,-0.0729679,0,0,10.28348,8.132942,0.01789442,-0.1222414,-0.002105922,-0.3717091,3.964388,-0.1015298,0.01905618,-0.003891641,0.0001232359,-0.9140885,1.926631,0.006129265,0.1088641,1.346541,0.882184,282.5802,84.94563,254.7589
5,1.988893,-0.0001407685,0.1027455,-0.07356592,4.578651,3.211551,-2.459464,-1.31128,0.0776981,0,0,10.43011,8.269795,0.02078122,-0.09763399,-0.04681512,-0.3736756,3.963558,-0.101166,0.02017585,0.01101596,-0.0009765294,-0.9141204,1.927447,0.00536121,0.1089544,1.346152,0.8825579,282.6732,84.7934,254.9981
5,2.000004,-0.01396643,0.1082045,-0.05654426,4.577796,3.21047,-2.458964,-1.31114,0.01191321,0,0,10.55719,8.191594,0.0227535,-0.07840228,-0.071286,-0.375347,3.962674,-0.1006712,0.02983485,0.004603211,0.01067513,-0.9136038,1.927203,0.004706871,0.1089078,1.3455,0.8829141,282.6536,84.43062,255.4143
5,2.011115,-0.02997903,0.1080082,-0.07248642,4.577941,3.208493,-2.458401,-1.310396,0.06794861,0,0,10.68426,7.898339,-0.02839021,-0.01648002,-0.08776675,-0.3769358,3.967206,-0.1028177,0.03205621,0.01100213,0.01916498,-0.9131638,1.927592,0.004103132,0.1087569,1.344656,0.8832502,282.5786,83.7849,256.0589
5,2.022226,-0.03527297,0.09303707,-0.07658528,4.578388,3.207466,-2.457954,-1.309858,0.04848839,0,0,10.79179,7.39003,-0.04072906,0.084671,-0.05652337,-0.3769726,3.979477,-0.113273,0.04076602,0.03335766,0.03077491,-0.9123777,1.929116,0.002386459,0.1085431,1.343744,0.8835679,282.554,82.72806,257.0851
5,2.033337,-0.03844262,0.09098399,-0.06803638,4.578186,3.206473,-2.457597,-1.309631,0.02044326,0,0,10.87977,6.82307,-0.008483857,0.110105,-0.02688824,-0.3763063,3.985595,-0.1201184,0.0472368,0.04611976,0.03389683,-0.9118653,1.930454,0.0007667241,0.1083607,1.34297,0.8840192,282.5645,81.42598,258.3201
5,2.044448,-0.05339028,0.1113012,-0.05648663,4.577044,3.204793,-2.456728,-1.309884,-0.02323863,0,0,10.96774,6.226784,0.01715087,0.03328352,0.0004167464,-0.3749507,3.979386,-0.1156326,0.04373533,0.02478388,0.007332749,-0.9127952,1.929781,0.0008447547,0.1083259,1.342467,0.8846808,282.5137,80.39087,259.3052
5,2.055559,-0.08524824,0.08146025,-0.04865737,4.577335,3.204722,-2.45471,-1.310028,-0.01300073,0,0,11.03617,5.610948,0.002076161,-0.0124704,-0.00917277,-0.3754844,3.973934,-0.1099989,0.03944952,0.02905371,0.002033008,-0.9129683,1.930386,0.0001978729,0.108457,1.342263,0.885404,282.4743,79.90319,259.8267
5,2.06667,-0.1000258,0.02917895,-0.05235499,4.578753,3.205375,-2.453061,-1.309454,0.052589,0,0,11.09482,4.975562,-0.01422974,-0.06776386,-0.03688201,-0.3766764,3.966407,-0.1022409,0.02038433,0.04192707,0.008554408,-0.9126781,1.931484,5.672533E-05,0.1087376,1.342342,0.886082,282.5081,79.9976,259.8325
5,2.077781,-0.1180156,-0.0177958,-0.05716866,4.580513,3.206272,-2.451019,-1.308535,0.08365345,0,0,11.1437,4.320625,-0.01954382,-0.0666957,-0.03576946,-0.3769577,3.964392,-0.1000345,0.01321487,0.04096202,0.0448394,-0.9107095,1.932191,-0.0002673814,0.1091139,1.342669,0.8866761,282.5983,80.54126,259.4612
5,2.088892,-0.1338631,-0.06684338,-0.05768828,4.582301,3.207719,-2.448853,-1.30904,-0.04673507,0,0,11.1828,3.724341,-0.01720943,-0.01985689,-0.02182553,-0.3769055,3.968605,-0.1039163,0.0111486,0.04204923,0.05231141,-0.9098445,1.932819,-0.0007187872,0.1094619,1.343256,0.8871858,282.6152,81.18094,259.0091
5,2.100003,-0.1167291,-0.07709719,-0.02351119,4.581948,3.209225,-2.447836,-1.308886,0.01465598,0,0,11.2219,3.167155,-0.02234445,-0.008183591,-0.0004535406,-0.3762567,3.969661,-0.1044569,0.007912993,0.02502842,0.05662915,-0.9089954,1.932561,-0.0005427522,0.1096581,1.344061,0.887583,282.5347,82.13312,258.2012
5,2.111114,-0.08899575,-0.05745012,0.01564663,4.580795,3.210186,-2.447636,-1.30894,-0.005033155,0,0,11.27077,2.658846,-0.05892435,0.003401026,0.08509723,-0.3724953,3.971994,-0.1047525,0.0002786703,0.00586563,0.04500515,-0.9089118,1.931817,0.0001829592,0.1096471,1.34505,0.8879036,282.4186,83.00716,257.3322
5,2.122225,-0.06989579,-0.02413457,0.03656852,4.579462,3.210212,-2.447465,-1.310196,-0.1147464,0,0,11.30987,2.199414,-0.07573278,-0.007293373,0.1171621,-0.3702508,3.971598,-0.1030449,-0.01169846,0.001600638,0.01528052,-0.9098695,1.93158,0.0008988169,0.1094937,1.346259,0.888226,282.3156,83.42455,256.731
5,2.133336,-0.07741003,0.004608158,0.03739149,4.578131,3.209674,-2.446298,-1.311074,-0.07924739,0,0,11.35875,1.779081,-0.107704,-0.032812,0.1216134,-0.3687088,3.968441,-0.09791031,-0.02439855,0.01763975,0.01748815,-0.9096186,1.932578,0.0009896307,0.1092518,1.347637,0.8885652,282.3561,84.17315,255.8353
5,2.144447,-0.1084267,0.03849503,0.02540997,4.577211,3.208426,-2.444127,-1.310963,0.01060924,0,0,11.40763,1.39785,-0.1464033,-0.05608161,0.08456839,-0.3690651,3.964643,-0.09146786,-0.04135278,0.0390195,0.01759356,-0.9092788,1.934194,0.001009871,0.108845,1.348983,0.8889278,282.4941,85.76044,254.2637
5,2.155558,-0.1383693,0.05300468,-0.006628208,4.577381,3.206841,-2.441754,-1.309785,0.1074584,0,0,11.42717,1.221896,-0.1800847,-0.07712981,0.007017471,-0.3713288,3.959756,-0.08388052,-0.0506416,0.06361278,0.04213523,-0.907854,1.936296,0.0005645902,0.108309,1.350096,0.8893154,282.5706,87.24097,252.6673
5,2.166669,-0.1587783,0.09214161,-0.03039848,4.576555,3.204385,-2.439647,-1.308582,0.1091313,0,0,11.39785,1.300098,-0.1941768,-0.08342211,-0.021648,-0.3723424,3.956552,-0.07831078,-0.06203869,0.07862946,0.07522508,-0.9060079,1.937811,0.0007392935,0.1078834,1.35092,0.889806,282.5551,87.98977,251.6133
5,2.17778,-0.1047067,0.2184079,0.009760134,4.571361,3.200308,-2.440912,-1.308355,0.01999818,0,0,11.31965,1.603128,-0.2103465,-0.07694095,-0.04706993,-0.373617,3.954329,-0.07345477,-0.07042019,0.09998218,0.08164702,-0.9048889,1.940107,0.0003699131,0.107684,1.351471,0.8904561,282.5236,88.42306,251.0348
5,2.188891,-0.0825873,0.3478399,0.05528835,4.564393,3.195489,-2.441545,-1.308677,-0.02936188,0,0,11.20235,2.101662,-0.2556842,-0.01197559,-0.003927432,-0.3721608,3.960161,-0.07466491,-0.0938072,0.1341539,0.07005495,-0.9046268,1.943537,3.408846E-05,0.1077711,1.351841,0.8912666,282.4604,88.40974,251.0305
5,2.200002,0.0001777709,0.4943726,0.0898517,4.555812,3.188669,-2.445498,-1.311925,-0.2967091,0,0,11.05572,3.225806,-0.2724332,0.05618575,0.016617,-0.3715115,3.968502,-0.07884448,-0.1256862,0.1672992,0.0627956,-0.9041783,1.947262,0.0001539307,0.1082558,1.352204,0.8922945,282.5161,87.85952,251.6391
5,2.211113,-0.001023501,0.5605905,0.1062404,4.549522,3.183521,-2.446287,-1.311412,0.04946386,0,0,10.87977,5.053763,-0.2881607,0.1424696,0.02655424,-0.3711328,3.98051,-0.0865024,-0.1404154,0.1982664,0.06925274,-0.9031599,1.951258,-0.0004029363,0.1091504,1.352533,0.8934227,282.8811,87.79185,251.9612
5,2.222224,-0.02992079,0.6084462,0.1058259,4.543192,3.177721,-2.445903,-1.314266,-0.2614708,0,0,10.68426,7.556208,-0.2913274,0.2010973,0.01607141,-0.3717555,3.991867,-0.09375579,-0.1708694,0.2602218,0.09176117,-0.9013863,1.957711,-0.001406415,0.1104279,1.352828,0.894776,283.4212,87.90661,252.2249
5,2.233335,-0.1195534,0.6592798,0.100193,4.536822,3.171406,-2.442501,-1.311791,0.2287786,0,0,10.48876,10.62561,-0.2470882,0.1883744,-0.04397094,-0.3743089,3.995607,-0.09593612,-0.176817,0.3007922,0.1258312,-0.8988275,1.96367,-0.003022954,0.1119855,1.352883,0.8961904,284.0008,88.74049,251.9625
5,2.244446,-0.1387595,0.6623527,0.09276079,4.531287,3.16621,-2.441418,-1.310647,0.1029316,0,0,10.33236,14.06647,-0.1946561,0.1245733,-0.1329721,-0.3786195,3.992266,-0.09242367,-0.1797704,0.2944747,0.1599567,-0.8959055,1.967575,-0.003340137,0.1135991,1.352666,0.8976004,284.4738,89.09971,252.2442
5,2.255557,-0.1600603,0.6342767,0.06113027,4.527609,3.161187,-2.439738,-1.308363,0.209007,0,0,10.24438,17.2825,-0.199172,0.06922948,-0.1511853,-0.3807351,3.988978,-0.08692877,-0.175559,0.2752872,0.1631515,-0.8940653,1.970553,-0.003495665,0.1151908,1.352369,0.8990604,284.8361,88.81326,253.0494
5,2.266668,-0.1301552,0.5796881,0.02645448,4.525339,3.157032,-2.440314,-1.311858,-0.320222,0,0,10.24438,20.10753,-0.1938437,0.06816463,-0.1501671,-0.3822669,3.9916,-0.08719829,-0.1605791,0.2614048,0.1790369,-0.8915885,1.973657,-0.004143612,0.1168224,1.352342,0.9006312,285.1567,87.81061,254.4284
5,2.277779,-0.1013019,0.5089921,-0.01977762,4.524824,3.15337,-2.440939,-1.312787,-0.08109123,0,0,10.31281,22.43402,-0.1966192,0.1437219,-0.1158665,-0.3828443,4.002538,-0.09508604,-0.164608,0.2359192,0.2217278,-0.887647,1.975803,-0.003479686,0.1184954,1.352722,0.902038,285.4187,87.45762,255.1599
5,2.28889,-0.1075922,0.4360885,-0.063777,4.524809,3.150071,-2.440029,-1.316069,-0.2991402,0,0,10.43988,23.86119,-0.1938542,0.2341218,-0.05813261,-0.3820885,4.017685,-0.1070412,-0.141993,0.219915,0.2599301,-0.8834776,1.978388,-0.00436066,0.1201243,1.353523,0.9033194,285.5986,88.03997,254.9842
5,2.300001,-0.1267236,0.3941704,-0.09527375,4.524576,3.146383,-2.438636,-1.317131,-0.09416351,0,0,10.61584,24.4477,-0.1828838,0.309684,-0.03672591,-0.3824432,4.03391,-0.1204319,-0.150381,0.2519094,0.2599418,-0.8805513,1.983436,-0.005631787,0.1215972,1.354552,0.9043936,285.7028,89.67246,253.7393
5,2.311112,-0.126614,0.3601079,-0.09173857,4.52329,3.143559,-2.437853,-1.316167,0.08892928,0,0,10.80156,24.34018,-0.1550139,0.3745997,-0.03040092,-0.383639,4.050486,-0.1350121,-0.1814125,0.2573397,0.241009,-0.8784996,1.98767,-0.005128716,0.1227992,1.355557,0.9053204,285.7522,91.57901,252.1293
5,2.322223,-0.1243216,0.3058293,-0.08693807,4.522781,3.141756,-2.436908,-1.315945,0.01978821,0,0,10.96774,23.61682,-0.1621403,0.3691795,0.01225646,-0.382587,4.0609,-0.1425923,-0.1945582,0.2360285,0.2070607,-0.8773118,1.990198,-0.004108459,0.1237469,1.356515,0.9063231,285.7541,92.77486,251.0871
5,2.333334,-0.1444576,0.2587599,-0.1002607,4.52293,3.139681,-2.435179,-1.317161,-0.1108867,0,0,11.1046,22.49267,-0.1782278,0.3255377,0.01015079,-0.3827623,4.066863,-0.1454752,-0.1822485,0.1869266,0.1740239,-0.876408,1.991,-0.00295744,0.124465,1.357389,0.9073431,285.8001,93.58447,250.4823
5,2.344445,-0.1700065,0.2447581,-0.1085826,4.522433,3.136833,-2.432999,-1.317703,-0.04834541,0,0,11.1828,21.55425,-0.206405,0.2521977,-0.03242712,-0.3847693,4.067502,-0.1429534,-0.1823994,0.1624177,0.1687437,-0.8745901,1.992408,-0.001805357,0.1248231,1.358134,0.9082364,285.9359,94.20895,250.1652
5,2.355556,-0.2221239,0.2136996,-0.1102834,4.522532,3.134911,-2.429107,-1.317231,0.0436791,0,0,11.20235,20.79179,-0.2362976,0.2362866,-0.03648918,-0.3856076,4.072793,-0.144207,-0.1877467,0.141147,0.1773488,-0.8722321,1.993544,-0.0002402171,0.1248058,1.358811,0.9091177,285.9705,94.47871,250.034
5,2.366668,-0.2593684,0.2062582,-0.09945454,4.52138,3.132797,-2.425389,-1.316915,0.02874825,0,0,11.1828,20.21505,-0.2360564,0.222351,-0.002436057,-0.3847495,4.079147,-0.1474901,-0.1716178,0.13473,0.1996095,-0.8690757,1.995446,-6.364955E-05,0.1245025,1.359476,0.9100887,285.9111,94.64777,249.8615
5,2.377779,-0.3103563,0.1733283,-0.07557068,4.520864,3.132281,-2.420181,-1.315759,0.1057979,0,0,11.11437,19.79472,-0.1814091,0.1454001,0.0555298,-0.38199,4.077613,-0.145938,-0.1493385,0.127166,0.1919867,-0.8671913,1.996986,-0.0001978729,0.1240581,1.360222,0.9112148,285.8473,94.67403,249.7707
5,2.38889,-0.3314033,0.09997664,-0.05453508,4.52151,3.133411,-2.415828,-1.316241,-0.04464652,0,0,11.02639,19.49169,-0.1716886,0.08884625,0.08621413,-0.3798653,4.076095,-0.1429281,-0.1504705,0.1260932,0.1845388,-0.8654762,1.998774,0.00040773,0.123673,1.361225,0.9125079,285.738,94.22662,249.9982
5,2.400001,-0.3268221,0.008655198,-0.02593206,4.523043,3.136261,-2.41181,-1.315624,0.05727087,0,0,10.94819,19.22776,-0.1725872,0.04296151,0.1180676,-0.377208,4.073713,-0.1387651,-0.1463511,0.1260476,0.1674696,-0.8640701,2.000808,0.0007560714,0.12361,1.362614,0.9138344,285.6702,93.87096,250.1068
5,2.411112,-0.2956992,-0.03333585,0.02662605,4.522427,3.138764,-2.409096,-1.316943,-0.1210369,0,0,10.87977,18.8563,-0.1648615,0.01409152,0.1594762,-0.3742109,4.073581,-0.1369195,-0.1337314,0.1014823,0.1599585,-0.8624503,2.00121,0.001542503,0.1238258,1.364448,0.9151166,285.6964,94.30734,249.6957
5,2.422223,-0.2742706,-0.05860018,0.05134104,4.522272,3.140702,-2.406319,-1.317658,-0.06458681,0,0,10.80156,18.35777,-0.1582087,0.0385178,0.1871906,-0.3712958,4.078486,-0.1398602,-0.121155,0.07264727,0.1492557,-0.861147,2.000968,0.002617088,0.1241026,1.366632,0.9162275,285.7625,95.7974,248.4325
5,2.433334,-0.2667932,-0.06496018,0.05245287,4.52244,3.141835,-2.403403,-1.318497,-0.07676151,0,0,10.72336,17.73216,-0.151789,0.07260129,0.1818962,-0.3698225,4.084525,-0.1440877,-0.1200546,0.07265073,0.1535102,-0.8592578,2.002069,0.003186739,0.124141,1.36896,0.9170671,285.8824,97.84091,246.608
5,2.444445,-0.2528456,-0.1227191,0.02530137,4.52512,3.143788,-2.400674,-1.317535,0.08762854,0,0,10.62561,16.97947,-0.1531034,0.09293406,0.1457343,-0.369863,4.08927,-0.1467631,-0.1210237,0.08331853,0.1598869,-0.8573024,2.003799,0.003437342,0.1238399,1.371201,0.9176888,286.0917,99.84711,244.637
5,2.455556,-0.2580413,-0.1868614,0.004647754,4.528563,3.146569,-2.397124,-1.315953,0.1426822,0,0,10.50831,16.09971,-0.1647198,0.117437,0.1533444,-0.3681863,4.095823,-0.1505293,-0.1135285,0.09287596,0.1587427,-0.8556396,2.005647,0.003144927,0.1231582,1.373139,0.918193,286.249,101.5744,242.8284
5,2.466667,-0.2451884,-0.2059475,0.0101346,4.530181,3.148912,-2.394453,-1.314747,0.1079227,0,0,10.38123,15.07331,-0.1606851,0.1249503,0.1235093,-0.3678678,4.099926,-0.1527017,-0.0932962,0.08321039,0.1628558,-0.8537253,2.006406,0.002990996,0.1221737,1.374664,0.9188308,286.2615,102.9359,241.2758
5,2.477778,-0.2056713,-0.2463701,0.005121499,4.533053,3.151883,-2.393008,-1.3124,0.2123595,0,0,10.2346,13.92962,-0.1885677,0.1080059,0.1045139,-0.3674198,4.101822,-0.1514074,-0.0847636,0.07146928,0.170265,-0.8515537,2.006859,0.003314038,0.1209243,1.375674,0.9196019,286.0991,103.857,240.1203
5,2.488889,-0.1907153,-0.2580154,0.007330485,4.535058,3.154218,-2.390983,-1.311226,0.1040436,0,0,10.0782,12.70772,-0.2024508,0.1048444,0.1003634,-0.366435,4.105084,-0.1518114,-0.086889,0.06402364,0.174562,-0.8493891,2.007435,0.003995807,0.1194578,1.376192,0.9204563,285.8773,104.0278,239.6975
5,2.5,-0.1107605,-0.2564612,0.03376549,4.536021,3.157254,-2.3921,-1.310661,0.04946055,0,0,9.941349,11.54448,-0.2182395,0.06324545,0.1344799,-0.3636318,4.104321,-0.1481045,-0.09440094,0.04275649,0.1789165,-0.8472986,2.007019,0.005564675,0.1178283,1.376302,0.9213755,285.7158,103.6552,239.8458
5,2.511111,-0.06394131,-0.2285262,0.04403997,4.536272,3.158992,-2.392684,-1.308026,0.2390934,0,0,9.863148,10.60606,-0.2255847,0.08666858,0.1431146,-0.3620956,4.109711,-0.1503727,-0.09863037,0.04491329,0.1821425,-0.8451542,2.007861,0.006294115,0.1160753,1.376048,0.922363,285.5243,103.1456,240.1268
5,2.522222,-0.01079519,-0.1739015,0.05828693,4.535348,3.159762,-2.394424,-1.309004,-0.0930727,0,0,9.863148,9.941349,-0.2397833,0.1251757,0.09112485,-0.3632573,4.116962,-0.1538777,-0.1048596,0.0715836,0.1885375,-0.8428239,2.010182,0.006132461,0.1142526,1.375558,0.9234869,285.3524,102.2512,240.8063
5,2.533333,0.003839815,-0.08666707,0.04140265,4.534037,3.158181,-2.395087,-1.306261,0.2501209,0,0,9.931575,9.550343,-0.2655491,0.1892424,0.0510065,-0.3647647,4.128366,-0.1607204,-0.1164302,0.08336291,0.201404,-0.8400052,2.011768,0.006817426,0.1123963,1.374784,0.924548,285.2441,101.3543,241.4495
5,2.544444,-0.003666533,-0.07934231,0.02962878,4.534579,3.158653,-2.394572,-1.304979,0.1135624,0,0,10.05865,9.433041,-0.2743034,0.2117156,0.01704602,-0.3660696,4.136529,-0.1649666,-0.1322318,0.08132959,0.2249781,-0.8366555,2.012575,0.008272843,0.1106644,1.373784,0.9256043,285.1478,100.0762,242.4153
5,2.555555,0.04334465,-0.1476209,0.00676579,4.537755,3.161091,-2.396179,-1.301702,0.2976428,0,0,10.20528,9.608994,-0.2495561,0.2012533,-0.08331688,-0.3705384,4.138725,-0.165067,-0.1511854,0.07507166,0.2560355,-0.8328189,2.013372,0.01000763,0.1091612,1.372552,0.9266173,285.1124,99.04275,243.2545
5,2.566666,0.1031873,-0.2167015,0.006253056,4.540944,3.164744,-2.398696,-1.299173,0.2277965,0,0,10.42033,9.951125,-0.2112892,0.2566275,-0.1069121,-0.3729453,4.150044,-0.174485,-0.1744568,0.08903442,0.2689737,-0.8295949,2.015178,0.01139141,0.1080079,1.371204,0.9278263,285.0831,98.00266,244.2174
5,2.577777,0.1727303,-0.3111757,0.02088781,4.545109,3.170385,-2.401919,-1.300255,-0.101471,0,0,10.71359,10.44966,-0.1354195,0.4216284,-0.1177617,-0.3765326,4.176545,-0.2001706,-0.1933402,0.1179144,0.2903819,-0.8256071,2.01825,0.01213096,0.1071252,1.369903,0.9291807,284.9887,96.87127,245.4465
5,2.588888,0.2250754,-0.3513457,0.03714487,4.547676,3.174639,-2.405183,-1.300398,-0.01274111,0,0,11.06549,11.03617,-0.07776833,0.5270013,-0.1275504,-0.3800991,4.199879,-0.2228107,-0.1953337,0.122207,0.3053003,-0.821827,2.020144,0.01297865,0.1062598,1.368626,0.9304352,284.8315,96.22456,246.2914
5,2.599999,0.2550132,-0.3788202,0.05120045,4.550321,3.179202,-2.408318,-1.300264,0.01133279,0,0,11.40763,11.51515,-0.0585396,0.637805,-0.1476698,-0.3849738,4.226949,-0.2480721,-0.1955378,0.1019409,0.2904223,-0.8191287,2.020678,0.01477229,0.1051493,1.367307,0.9313787,284.7215,95.68815,247.0163
5,2.61111,0.2720542,-0.3636973,0.06699242,4.551657,3.182569,-2.411166,-1.298929,0.1211759,0,0,11.71066,11.98436,-0.0942888,0.682493,-0.09932321,-0.3863757,4.249785,-0.2666295,-0.187122,0.09762339,0.2807773,-0.8163154,2.021825,0.01591585,0.103506,1.365865,0.9319137,284.6317,95.19853,247.6171
5,2.622221,0.2911409,-0.3176709,0.08246718,4.551908,3.184929,-2.414602,-1.2977,0.1105966,0,0,11.96481,12.48289,-0.1992481,0.5215859,0.003391564,-0.3826899,4.253472,-0.2641509,-0.1723037,0.0890258,0.273216,-0.8135275,2.022731,0.0166911,0.1012626,1.364337,0.9322628,284.528,94.36265,248.3385
5,2.633332,0.3038412,-0.2845702,0.08636855,4.552442,3.18723,-2.418041,-1.296262,0.1300395,0,0,12.20919,12.97165,-0.2942961,0.2830664,0.03232498,-0.3802845,4.241945,-0.2471528,-0.1787598,0.0837105,0.2679558,-0.8105714,2.023619,0.01828154,0.09850757,1.362756,0.9325135,284.3528,93.07553,249.2477
5,2.644443,0.329309,-0.2418122,0.09333968,4.552425,3.189068,-2.422248,-1.295848,0.03627206,0,0,12.43402,13.48974,-0.3340402,0.1382793,0.02696161,-0.3794626,4.234064,-0.2348117,-0.1979888,0.1039989,0.2510266,-0.8083029,2.026,0.01950925,0.09549099,1.361217,0.9328488,284.1611,91.45697,250.297
5,2.655554,0.3334536,-0.2013318,0.09186012,4.552255,3.19038,-2.425881,-1.295214,0.05735812,0,0,12.60019,14.0958,-0.3347699,0.03297454,-0.03828812,-0.3814334,4.224283,-0.2219606,-0.2149696,0.1253704,0.24793,-0.8056473,2.028826,0.02049835,0.09247927,1.35972,0.9333427,284.0153,90.03417,251.1415
5,2.666665,0.3514721,-0.173645,0.08621383,4.552495,3.191811,-2.430114,-1.295293,-0.008102368,0,0,12.7175,14.88759,-0.3136916,0.05432665,-0.07036932,-0.3837082,4.228589,-0.2231702,-0.2223262,0.1392397,0.2543764,-0.8022575,2.031121,0.02167653,0.08965112,1.358211,0.9339617,283.9021,88.9366,251.7761
5,2.677776,0.3662622,-0.1191483,0.09841926,4.550982,3.192358,-2.4347,-1.294157,0.103703,0,0,12.80547,15.8651,-0.274397,0.1981886,-0.1193331,-0.3882127,4.244553,-0.2362101,-0.2199152,0.1595131,0.2788251,-0.7982324,2.034445,0.02174072,0.08710264,1.356575,0.934642,283.8488,88.14536,252.2423
5,2.688887,0.349301,-0.1253341,0.124088,4.550449,3.195189,-2.437635,-1.294213,-0.006374048,0,0,12.86413,16.98925,-0.2229671,0.4090565,-0.1320039,-0.3927012,4.272644,-0.26127,-0.2111252,0.1914488,0.2957594,-0.7941748,2.038539,0.02093111,0.08489341,1.354791,0.9353355,283.8456,87.08304,253.1289
5,2.699998,0.3375988,-0.1091221,0.1505867,4.548975,3.197416,-2.440681,-1.294054,0.01444486,0,0,12.9521,18.17204,-0.174863,0.51977,-0.1374424,-0.3969735,4.295413,-0.2819417,-0.1887814,0.1934787,0.2913187,-0.7909508,2.041587,0.0202363,0.08296914,1.352883,0.9360471,283.8694,85.8484,254.322
5,2.711109,0.2981707,-0.0715659,0.1886503,4.546131,3.199246,-2.442425,-1.292417,0.1492014,0,0,13.01075,19.22776,-0.1234815,0.5942143,-0.1238088,-0.4002246,4.316589,-0.3017763,-0.158188,0.1528153,0.2751701,-0.7883143,2.041616,0.02102379,0.08131668,1.350886,0.9367877,283.9896,84.54603,255.6631
5,2.72222,0.2672279,-0.04275249,0.202283,4.543703,3.200622,-2.444071,-1.292035,0.03359473,0,0,13.0303,20.12708,-0.1585428,0.4908642,-0.08863455,-0.4006406,4.321355,-0.3031993,-0.1371404,0.118589,0.2601633,-0.785641,2.041492,0.02198839,0.07970814,1.34888,0.9374804,284.165,83.10806,257.2587
5,2.733331,0.2287837,-0.004503697,0.2041252,4.541283,3.201319,-2.445352,-1.290555,0.1350711,0,0,13.0303,20.86999,-0.258854,0.2576786,-0.05538236,-0.3987759,4.309924,-0.2864669,-0.1266687,0.1099924,0.2419828,-0.7836117,2.042662,0.02215537,0.0780607,1.34704,0.9381498,284.3536,81.42994,259.0102
5,2.744442,0.2096054,-0.004598871,0.20098,4.539866,3.202992,-2.44701,-1.290237,0.02794012,0,0,13.00098,21.43695,-0.3324042,0.0446485,-0.01057306,-0.3957665,4.295356,-0.2668921,-0.1350037,0.1483829,0.2451909,-0.7805624,2.046854,0.02097586,0.07634391,1.345538,0.9388319,284.5853,79.80399,260.6392
5,2.755553,0.1872768,-0.024965,0.1948428,4.539039,3.205015,-2.447971,-1.28984,0.03624186,0,0,12.92278,21.73998,-0.3282678,-0.04059568,-0.00655555,-0.3949979,4.288603,-0.2573447,-0.1476989,0.1782467,0.2399407,-0.7777096,2.050897,0.02009435,0.07457195,1.34449,0.939652,284.7597,78.84987,261.5659
5,2.766664,0.165937,-0.003646791,0.2032095,4.536705,3.2064,-2.449032,-1.290454,-0.05636354,0,0,12.7175,21.92571,-0.303813,-0.03102806,-0.01525077,-0.3957228,4.289866,-0.2561727,-0.1476879,0.1718714,0.245289,-0.7746187,2.05319,0.02015321,0.07270945,1.343881,0.9406848,284.8935,78.67788,261.7267
5,2.777775,0.172249,0.03160915,0.2113657,4.533723,3.206934,-2.451021,-1.289996,0.04252507,0,0,12.33627,22.04301,-0.2792754,0.04779249,-0.02910161,-0.3972888,4.297033,-0.2605437,-0.1424055,0.1633254,0.2441951,-0.7719247,2.055242,0.02006905,0.07076412,1.343592,0.9416984,284.9479,78.7671,261.5259
5,2.788886,0.175362,0.06789994,0.217397,4.530447,3.207258,-2.453174,-1.290038,-0.004197113,0,0,11.81818,22.15054,-0.2653528,0.1255533,-0.03753252,-0.3988398,4.306673,-0.2668128,-0.15395,0.1814918,0.2528196,-0.7683587,2.058842,0.01923228,0.06875259,1.343515,0.9425997,284.9926,79.0158,261.1299
5,2.799997,0.1709868,0.1126813,0.2222867,4.526705,3.206848,-2.454996,-1.290921,-0.08063496,0,0,11.19257,22.42424,-0.2568411,0.2161428,-0.05974784,-0.4017474,4.319645,-0.276242,-0.1804784,0.195454,0.2551881,-0.764895,2.062603,0.01907383,0.06667459,1.343549,0.9433673,285.1242,79.43295,260.5855
5,2.811108,0.169708,0.2012433,0.2363178,4.521132,3.204779,-2.457226,-1.291178,-0.02281985,0,0,10.56696,23.09873,-0.2770436,0.2929188,-0.07110456,-0.4042982,4.332684,-0.2842581,-0.1900652,0.2040091,0.2509908,-0.7622169,2.066212,0.01890472,0.06464736,1.343602,0.9441243,285.2658,79.74332,260.033
5,2.822219,0.1928048,0.3400192,0.2583157,4.513314,3.200761,-2.460861,-1.290735,0.04069438,0,0,9.951125,24.24243,-0.3113748,0.327168,-0.1090976,-0.4080895,4.342612,-0.2887695,-0.182496,0.2050598,0.2626595,-0.7587026,2.069472,0.01814012,0.06280646,1.343556,0.9448858,285.4167,79.91793,259.6006
5,2.83333,0.2115149,0.5364599,0.2946639,4.502147,3.193924,-2.465202,-1.290793,-0.005728636,0,0,9.354838,25.81623,-0.343429,0.305938,-0.115279,-0.4101194,4.347651,-0.2884531,-0.1655179,0.1985998,0.2529849,-0.7557492,2.072634,0.01674329,0.06121811,1.343372,0.9457796,285.6405,79.96479,259.4354
5,2.844441,0.1829158,0.7335645,0.330868,4.491946,3.187529,-2.468253,-1.291814,-0.09330067,0,0,8.817204,27.76149,-0.4296959,0.1984438,-0.08715199,-0.4098456,4.344224,-0.2775493,-0.1582453,0.2283589,0.2378656,-0.753241,2.077008,0.01500505,0.05993725,1.343042,0.9468504,286.006,79.90917,259.5436
5,2.855552,0.1436821,0.8501582,0.3619984,4.477537,3.178382,-2.470178,-1.291703,0.01053138,0,0,8.416423,29.93158,-0.4189569,0.1706817,-0.07025783,-0.4102573,4.346831,-0.2756002,-0.1568571,0.2805645,0.2272185,-0.751176,2.085019,0.01087688,0.05902294,1.342484,0.9480878,286.5333,79.99213,259.6242
5,2.866663,0.104116,0.9475154,0.4143841,4.464199,3.17165,-2.471637,-1.289879,0.1660682,0,0,8.387097,32.22874,-0.3861794,0.1120696,-0.08663769,-0.4115628,4.344969,-0.2707436,-0.155658,0.2976638,0.2345797,-0.7488474,2.091234,0.008049937,0.05855987,1.341625,0.9496202,287.2228,80.13969,259.7582
5,2.877774,0.0614289,1.054898,0.5114229,4.447276,3.16483,-2.472534,-1.287143,0.247906,0,0,8.787879,34.62366,-0.3709238,0.05577123,-0.1636053,-0.4154105,4.338831,-0.2615187,-0.1491919,0.305103,0.2398411,-0.7459679,2.09664,0.005536712,0.05850132,1.340468,0.9515259,287.9565,80.0857,260.2207
5,2.888885,0.06575722,1.065955,0.5518014,4.434233,3.160089,-2.475094,-1.286016,0.1001397,0,0,9.550343,37.0088,-0.3662577,0.03572513,-0.2414587,-0.4203544,4.335875,-0.2547481,-0.1268291,0.2880103,0.2492406,-0.7432499,2.10084,0.003366768,0.05889198,1.339151,0.9537316,288.878,79.59851,261.235
5,2.899997,0.08075702,1.043723,0.5615769,4.422527,3.155417,-2.477853,-1.284263,0.1589143,0,0,10.57674,39.13001,-0.3625242,0.01989232,-0.3033178,-0.4255401,4.331738,-0.2470876,-0.1098089,0.2698396,0.255525,-0.7402075,2.10429,0.001424525,0.05952986,1.33785,0.95594,289.8984,79.05225,262.5109
5,2.911108,0.08075702,1.043723,0.5615769,4.422527,3.155417,-2.477853,-1.286368,-0.1949091,0,0,11.84751,41.01662,-0.3625242,0.01989232,-0.3033178,-0.4255401,4.331738,-0.2470876,-0.1098089,0.2698396,0.255525,-0.7402075,2.10429,0.001424525,0.06012512,1.336794,0.9582484,291.2346,79.28857,263.3224
5,2.922219,0.04342479,1.041357,0.5478587,4.398922,3.144052,-2.480962,-1.282161,0.3847616,0,0,13.18671,42.24829,-0.3842414,0.0968219,-0.3711111,-0.4363579,4.33674,-0.242419,-0.08300334,0.2197569,0.3054096,-0.7325147,2.109283,-0.00104316,0.06008709,1.335776,0.9603472,292.6113,80.48624,263.3367
5,2.93333,0.01680154,1.029428,0.5363384,4.387843,3.138762,-2.481937,-1.279441,0.2434307,0,0,14.52591,42.7175,-0.3807347,0.1372259,-0.3422687,-0.4395116,4.342206,-0.2433882,-0.06690198,0.2240018,0.3190736,-0.7291448,2.113744,-0.004035488,0.05929923,1.334701,0.9615481,292.8945,80.19341,263.8623
5,2.944441,0.008334935,0.9757282,0.4953446,4.379387,3.133984,-2.483175,-1.277265,0.1953468,0,0,15.79668,42.51222,-0.3518009,0.1051412,-0.3138186,-0.4417092,4.340912,-0.2394715,-0.0627096,0.2260977,0.309448,-0.726096,2.117672,-0.006439523,0.05826397,1.333844,0.9629642,293.6714,79.72733,264.1967
5,2.955552,0.01809651,0.8654165,0.4335713,4.373976,3.130908,-2.484985,-1.273869,0.3067189,0,0,16.77419,41.75953,-0.3300388,0.07617904,-0.2490722,-0.4418275,4.339871,-0.2355606,-0.06220832,0.202568,0.2519444,-0.7258344,2.119866,-0.007276289,0.05702189,1.333003,0.9636889,293.8156,79.18409,264.5336
5,2.966663,0.03441501,0.6965256,0.3723592,4.371469,3.130821,-2.486071,-1.271135,0.2450695,0,0,17.41936,40.58651,-0.2749093,0.04278751,-0.1419956,-0.4391111,4.339899,-0.2345164,-0.0340661,0.1576189,0.199574,-0.7258126,2.119948,-0.00795353,0.05570947,1.332264,0.964579,294.2285,79.21442,264.4693
5,2.977774,0.05604899,0.5610558,0.3491566,4.368559,3.131899,-2.487185,-1.268811,0.2077602,0,0,17.70284,39.34507,-0.2213016,0.0330717,-0.09660217,-0.4398381,4.34065,-0.2334048,-0.01210637,0.1233772,0.1664313,-0.7253146,2.119963,-0.008678443,0.05448143,1.33161,0.9657841,294.6967,79.09144,264.5471
5,2.988885,0.08084533,0.4470169,0.3374518,4.365883,3.133812,-2.488507,-1.265283,0.3179671,0,0,17.66374,38.02542,-0.1806917,0.01794501,-0.07782966,-0.4387574,4.339307,-0.2332266,0.00175824,0.1084239,0.177,-0.722841,2.121029,-0.009924269,0.05335628,1.330905,0.9671466,294.9271,78.91294,264.6915
5,2.999996,0.1059068,0.2326717,0.310771,4.367327,3.140422,-2.488794,-1.261436,0.3458207,0,0,17.38025,36.7742,-0.144437,-0.01624852,-0.06435725,-0.4385848,4.335808,-0.2295677,0.01994097,0.09985715,0.1896452,-0.7202919,2.12253,-0.01203988,0.05218382,1.329977,0.9683771,295.0291,78.85748,264.7898
5,3.011107,0.1167792,0.1258339,0.2777172,4.36731,3.143543,-2.489298,-1.257367,0.3657935,0,0,17.03812,36.01173,-0.128735,-0.03537221,-0.09436414,-0.440596,4.332105,-0.2253812,0.02001949,0.09349096,0.2035078,-0.7174354,2.123827,-0.01314137,0.05078208,1.328733,0.9693952,295.2221,78.79259,264.9471
5,3.022218,0.1393901,-0.002462462,0.2256753,4.370264,3.148274,-2.490243,-1.2531,0.3835825,0,0,16.58847,36.64712,-0.1109572,-0.03637668,-0.1349934,-0.4435346,4.329093,-0.2220379,0.01454223,0.08497338,0.1886516,-0.7159663,2.125006,-0.01401622,0.04893684,1.327097,0.9701431,295.4199,78.6765,265.2054
5,3.033329,0.1480115,-0.07425229,0.1816263,4.371992,3.151222,-2.491227,-1.247005,0.5503885,0,0,16.03128,38.87586,-0.1068757,-8.137524E-05,-0.1647702,-0.4467826,4.331182,-0.2227428,0.01030137,0.08287411,0.1918843,-0.7137559,2.126538,-0.01514566,0.04629109,1.324975,0.9705316,295.4493,78.37183,265.5657
5,3.04444,0.0489957,-0.1691745,0.09224652,4.377814,3.154257,-2.486798,-1.242421,0.4105222,0,0,15.36657,42.61975,-0.1161239,0.06165334,-0.136841,-0.4479442,4.337958,-0.2271831,-0.003435254,0.08082875,0.2069137,-0.7108291,2.127836,-0.01551611,0.04295856,1.322458,0.9708411,295.4229,77.18938,266.4043
5,3.055551,0.07778943,-0.2455933,0.008784876,4.383405,3.15712,-2.487701,-1.236287,0.553459,0,0,14.72141,47.43891,-0.06102493,0.1998824,-0.07408494,-0.4480422,4.355509,-0.2444566,-0.02266637,0.100057,0.1889209,-0.7095045,2.130884,-0.01690202,0.03919797,1.31961,0.9711512,295.2672,75.33373,267.5645
5,3.066662,0.1344021,-0.3051618,0.001789004,4.387136,3.16186,-2.489928,-1.225133,1.011095,0,0,14.06647,53.18671,0.006273314,0.2444683,-0.06173208,-0.4493605,4.3656,-0.2563415,-0.03150511,0.08299913,0.1602615,-0.7088104,2.131398,-0.01643596,0.03540635,1.316511,0.9715164,295.0984,73.1383,268.9332
5,3.077773,0.2058816,-0.3465677,-0.003293,4.390608,3.166562,-2.493905,-1.224112,0.08080936,0,0,13.52884,58.68035,0.007567346,0.2710351,-0.03929906,-0.4499863,4.373722,-0.263723,-0.02337189,0.04137127,0.1336385,-0.7083076,2.129509,-0.0151193,0.03190958,1.313442,0.9720205,294.8474,70.71739,270.7278
5,3.088884,0.231399,-0.3175962,0.01020892,4.391464,3.168984,-2.496804,-1.220619,0.3151072,0,0,13.16716,63.55817,-0.005926713,0.2901365,0.000275597,-0.4494335,4.383768,-0.2721253,-0.01088533,0.000811141,0.1186977,-0.7075119,2.12693,-0.01353871,0.02874698,1.310502,0.9727713,294.619,69.06021,272.0641
5,3.099995,0.2364682,-0.2044864,0.0293255,4.388841,3.1679,-2.500045,-1.216038,0.4112379,0,0,12.98143,67.55621,0.008403108,0.2782289,0.06405406,-0.4469514,4.391733,-0.2797209,-0.00569123,-0.01944995,0.1122944,-0.7065744,2.125762,-0.01282152,0.02590014,1.307638,0.9733588,294.6118,67.58829,273.2494
5,3.111106,0.2204199,-0.1682472,0.03753587,4.388616,3.169137,-2.501589,-1.207643,0.7592652,0,0,12.98143,69.8045,-0.0381958,0.1822574,0.0974765,-0.4448214,4.393796,-0.2803856,0.01766208,-0.02166036,0.102529,-0.7054527,2.12548,-0.0133238,0.02325598,1.304724,0.9736282,294.6736,66.3795,274.2359
5,3.122217,0.1915607,-0.1256128,0.04783311,4.38763,3.169448,-2.502441,-1.199765,0.7089431,0,0,13.04985,71.24145,-0.07504634,0.09195987,0.06319483,-0.4441897,4.383412,-0.2677087,0.01970046,-0.01533746,0.08864319,-0.7053617,2.125561,-0.01406335,0.02079841,1.301671,0.9738738,294.8795,65.55315,274.9755
5,3.133328,0.1435275,-0.06362536,0.08142222,4.384897,3.169541,-2.502135,-1.191803,0.717243,0,0,13.13783,72.19942,-0.1228999,0.01987469,-0.04100774,-0.4482111,4.374676,-0.2565103,0.01548466,-0.002529606,0.08758859,-0.7044104,2.126527,-0.01472622,0.0183714,1.298382,0.9742593,295.2487,65.20895,275.5492
5,3.144439,0.12747,-0.0122531,0.1097137,4.381873,3.169379,-2.502985,-1.18367,0.7327654,0,0,13.24536,72.71751,-0.08737775,0.02322398,-0.1275777,-0.4530112,4.373124,-0.2554944,0.01346675,0.01985435,0.08969511,-0.7033419,2.128349,-0.01615793,0.01581588,1.29489,0.9747229,295.5561,64.28596,276.5906
5,3.15555,0.1146097,0.02942843,0.1263763,4.379173,3.169115,-2.503987,-1.175173,0.7657517,0,0,13.31378,73.18671,-0.03757004,0.04665916,-0.1641375,-0.4562421,4.375091,-0.2588563,0.01989417,0.02090056,0.09390142,-0.7021392,2.128707,-0.01689323,0.01331213,1.291382,0.9752845,295.8933,62.46785,278.109
5,3.166661,0.1123395,0.06440598,0.1089883,4.377501,3.167668,-2.505618,-1.168672,0.5827595,0,0,13.21603,74.74096,-0.01095632,0.1297568,-0.1854495,-0.4604243,4.383992,-0.2679161,0.02099255,0.01451781,0.1013614,-0.7007011,2.128582,-0.01707566,0.01113458,1.288097,0.9759665,296.3698,60.49493,279.6812
5,3.177772,0.1164308,0.09926552,0.07773528,4.376495,3.165254,-2.507951,-1.161113,0.6807857,0,0,12.9521,76.40274,0.004383631,0.1722383,-0.1428471,-0.4610353,4.392299,-0.2758462,0.02621496,0.02937594,0.08104543,-0.7006532,2.130022,-0.01863574,0.009341786,1.285117,0.9766689,296.837,59.15586,280.8418
5,3.188883,0.1291529,0.09257129,0.04368088,4.376807,3.164006,-2.510318,-1.15308,0.7227594,0,0,12.522,77.88857,0.01627738,0.1369865,-0.1132032,-0.4610587,4.392366,-0.2765954,0.01860497,0.036825,0.058724,-0.7008742,2.131139,-0.01933055,0.007917081,1.282409,0.9773173,297.1987,58.33813,281.63
5,3.199994,0.1632752,0.02595924,-0.02285579,4.380712,3.164319,-2.513527,-1.144653,0.7580296,0,0,11.99413,78.90518,-0.01102153,0.06656314,-0.04711761,-0.4585782,4.388602,-0.2718677,0.02271562,0.03037817,0.04271683,-0.7011272,2.131074,-0.01977104,0.006819902,1.279818,0.9779211,297.4301,57.82169,282.1568
5,3.211105,0.1558845,-0.01258967,-0.04056963,4.382527,3.165054,-2.514636,-1.13578,0.7982882,0,0,11.47605,78.68036,-0.01489133,0.02167218,0.01245518,-0.4560344,4.386887,-0.269893,0.03433779,0.01008542,0.04159381,-0.7006527,2.129971,-0.01979794,0.006061955,1.277177,0.9785694,297.603,57.34587,282.6501
5,3.222216,0.1219241,-0.08113635,-0.06750806,4.386201,3.167056,-2.513928,-1.127255,0.7656022,0,0,11.04594,77.56599,0.005505191,0.01305876,0.03357505,-0.4548115,4.387146,-0.2709891,0.03642374,-0.001639672,0.04160016,-0.7001253,2.129287,-0.01981285,0.005488725,1.274278,0.9792325,297.6805,56.89512,283.2214
5,3.233327,0.08264503,-0.1518146,-0.09335007,4.390331,3.16948,-2.512458,-1.11491,1.114754,0,0,10.70381,75.28837,0.03956839,0.04924241,0.0237989,-0.4556514,4.391644,-0.2766097,0.03227304,-0.001589809,0.05440982,-0.6991469,2.129569,-0.02024722,0.004929694,1.270878,0.9798039,297.6355,56.28232,283.9442
5,3.244438,0.05506392,-0.2106925,-0.1140072,4.394746,3.172156,-2.511107,-1.10223,1.141786,0,0,10.43988,71.92571,0.09445174,0.08661374,-0.04899002,-0.4596046,4.395071,-0.2829603,0.03125298,0.006938986,0.0554679,-0.6984955,2.130219,-0.02106507,0.00420233,1.266904,0.980289,297.786,55.41526,284.9607
5,3.255549,0.0476875,-0.26425,-0.1411586,4.399588,3.1746,-2.510633,-1.090024,1.098451,0,0,10.26393,67.83969,0.1145348,0.1196732,-0.07570305,-0.462149,4.399531,-0.2888821,0.02281016,0.02402586,0.05550465,-0.6979676,2.131914,-0.02234099,0.003156501,1.262433,0.9807114,298.0045,54.03812,286.4433
5,3.26666,0.05192268,-0.2621923,-0.1497117,4.402857,3.175766,-2.511012,-1.078221,1.061512,0,0,10.17595,63.9785,0.1243016,0.1835541,-0.06816281,-0.4639259,4.409279,-0.2993894,0.02192124,0.01662005,0.08109342,-0.6960102,2.131802,-0.02245045,0.001747904,1.257642,0.9810137,298.2831,52.15891,288.3004
5,3.277771,0.04316954,-0.1865979,-0.1525781,4.403574,3.173599,-2.511692,-1.066552,1.04924,0,0,10.16618,60.32258,0.1107332,0.1611051,-0.02762132,-0.4627205,4.411963,-0.302313,0.04630669,-0.01224019,0.08201304,-0.6950126,2.129972,-0.02248454,0.001252639,1.255782,0.9809306,297.8541,52.1377,288.5456
5,3.288882,0.0119859,-0.08011489,-0.1493047,4.402796,3.169759,-2.511807,-1.054044,1.125602,0,0,10.2346,56.85239,0.06850561,0.1162953,0.03013526,-0.4599561,4.41257,-0.3018773,0.05780835,-0.03042816,0.06597476,-0.6948944,2.128398,-0.02224991,0.001184098,1.255095,0.980526,297.5461,53.04342,287.7648
5,3.299993,-0.03406007,0.009308249,-0.1426317,4.401838,3.165964,-2.510802,-1.039866,1.27738,0,0,10.35191,53.40176,0.02295598,0.04168222,0.07932341,-0.4563342,4.408609,-0.2965936,0.05637872,-0.02411357,0.01697094,-0.6966574,2.12853,-0.02302143,0.001315489,1.254596,0.9800966,297.3861,54.13776,286.71
5,3.311104,-0.06713292,0.04875751,-0.1269432,4.401468,3.164574,-2.509725,-1.024772,1.359492,0,0,10.45943,50.01955,0.04732484,-0.05958155,0.08633324,-0.4538698,4.400044,-0.290406,0.04680732,-0.01448561,0.01383282,-0.6966345,2.129071,-0.0235245,0.001805694,1.254067,0.9799026,297.6019,55.30882,285.526
5,3.322215,-0.1011736,0.01790088,-0.1190461,4.401614,3.164587,-2.506513,-1.009425,1.382052,0,0,10.58651,47.09678,0.05197184,-0.1275967,0.01794122,-0.4549132,4.389962,-0.2821736,0.04989967,-0.01026561,-0.001114844,-0.6972443,2.129157,-0.02424382,0.002591233,1.253426,0.9800822,298.1915,57.15033,283.9224
5,3.333326,-0.1105345,-0.0600061,-0.1267543,4.405217,3.167146,-2.504619,-0.9956877,1.234612,0,0,10.70381,44.60411,0.03669808,-0.112534,-0.02983678,-0.4567971,4.38767,-0.2798708,0.07137324,-0.02734832,0.0275042,-0.6958424,2.127722,-0.02483824,0.003347126,1.252682,0.9804448,298.8216,59.34314,282.2858
5,3.344437,-0.12196,-0.1687801,-0.1341712,4.410218,3.171098,-2.501779,-0.9796134,1.44952,0,0,10.78201,42.50245,0.06328405,-0.04861394,-0.05013122,-0.4586571,4.390984,-0.2844927,0.07571021,-0.03373148,0.04133276,-0.6947649,2.126822,-0.02503238,0.003852466,1.251953,0.9807301,299.2268,61.2888,280.8238
5,3.355548,-0.1527643,-0.201911,-0.1359015,4.413589,3.173093,-2.498369,-0.9668792,1.142012,0,0,10.82111,40.75269,0.07967246,0.001323923,-0.0107188,-0.4576797,4.396016,-0.2905948,0.07017075,-0.03908714,0.01794789,-0.6954771,2.125653,-0.02467392,0.00437073,1.251387,0.9810565,299.6927,62.46906,279.7463
5,3.366659,-0.1964404,-0.2266252,-0.1483039,4.416337,3.174273,-2.493674,-0.9518287,1.356682,0,0,10.84066,39.34507,0.01851258,0.05027874,0.05595174,-0.4554,4.403234,-0.294956,0.05735057,-0.04648112,0.01699929,-0.6953236,2.124668,-0.02414156,0.00434215,1.250791,0.9812453,299.5979,64.17834,278.5334
5,3.37777,-0.2561284,-0.2463384,-0.1852569,4.421106,3.174998,-2.488469,-0.935806,1.443335,0,0,10.81134,38.64125,-0.03589794,0.02694833,0.05207408,-0.4547827,4.402122,-0.2915189,0.06471332,-0.05399144,0.009491561,-0.695493,2.123153,-0.02394688,0.004034793,1.250292,0.9813651,299.239,65.50983,277.5309
5,3.388881,-0.3115399,-0.2606986,-0.2190663,4.426081,3.17578,-2.483238,-0.9195714,1.462507,0,0,10.74291,38.72923,-0.07860643,0.004674852,0.04489828,-0.4545819,4.400322,-0.2877306,0.07197542,-0.06576265,-0.007588512,-0.6961098,2.121572,-0.02375806,0.003922777,1.249865,0.9816669,299.1439,66.19936,276.8668
5,3.399992,-0.4212567,-0.2857744,-0.2451963,4.431611,3.17675,-2.474085,-0.9044383,1.361821,0,0,10.61584,39.48192,-0.02347576,-0.0113333,0.01564665,-0.4551475,4.398378,-0.287525,0.05289719,-0.04330883,-0.007473905,-0.6962557,2.122036,-0.02404595,0.004295453,1.24947,0.9823042,299.6306,66.32642,276.5092
5,3.411103,-0.5235021,-0.3010743,-0.2533105,4.436212,3.178239,-2.46422,-0.8903363,1.268687,0,0,10.42033,40.63539,0.02861226,-0.009263325,0.000310911,-0.4556967,4.398047,-0.2895935,0.03833861,-0.0250755,0.02668993,-0.6948773,2.122636,-0.02436633,0.004768016,1.248942,0.9832355,300.2906,66.85559,276.1044
5,3.422215,-0.6278052,-0.3547923,-0.2706236,4.442278,3.180583,-2.452963,-0.8728803,1.576435,0,0,10.1955,42.07234,0.08427476,0.04704395,0.02024409,-0.4555774,4.40411,-0.2980487,0.02470466,-0.001550451,0.04167498,-0.6938882,2.123832,-0.0249975,0.00509396,1.248302,0.9842788,300.8254,67.69711,275.6343
5,3.433326,-0.733075,-0.4405217,-0.2908362,4.450464,3.184331,-2.43998,-0.8587938,1.265951,0,0,10.05865,43.37244,0.1422989,0.109674,0.06787921,-0.4541371,4.413855,-0.3101422,0.02193092,0.02091441,0.07999704,-0.6919659,2.125657,-0.02672562,0.005439518,1.247792,0.9856674,301.489,67.91367,275.7051
5,3.444437,-0.8310316,-0.4858024,-0.316794,4.458423,3.186783,-2.427004,-0.8450194,1.240816,0,0,9.980451,44.56501,0.1362423,0.05840158,0.1221307,-0.4507384,4.412813,-0.3103515,0.02407833,0.01558943,0.08530912,-0.6909508,2.125618,-0.02703535,0.005819344,1.24747,0.9873304,302.2764,67.47305,276.2344
5,3.455548,-0.9246759,-0.5438538,-0.3426335,4.467197,3.18979,-2.412822,-0.8313856,1.22818,0,0,9.980451,45.50342,0.0898341,0.02210867,0.1874041,-0.4462137,4.413627,-0.310417,0.01965678,0.01557185,0.06616906,-0.6909049,2.125876,-0.02725053,0.006253231,1.247359,0.9892535,303.2225,66.27898,277.1954
5,3.466659,-1.006638,-0.5974978,-0.3599915,4.475692,3.193007,-2.397847,-0.819198,1.096389,0,0,10.06843,45.81623,0.03240966,-0.02045373,0.2101384,-0.4427569,4.412137,-0.3073573,0.02833432,0.01129692,0.08741094,-0.6892533,2.125562,-0.02762071,0.006515624,1.247368,0.9914053,304.088,64.83147,278.4088
5,3.47777,-1.160939,-0.6877817,-0.3960223,4.487304,3.197148,-2.37848,-0.806769,1.119867,0,0,10.18573,45.72825,0.01371823,-0.006713212,0.2667876,-0.438179,4.416439,-0.3106546,0.04557408,0.030424,0.1010841,-0.6876527,2.127114,-0.02989851,0.00656903,1.247452,0.9937229,304.8128,63.29943,279.7366
5,3.488881,-1.308824,-0.7649339,-0.400243,4.49828,3.201796,-2.357985,-0.7948833,1.069997,0,0,10.33236,45.31769,0.0886187,0.01436107,0.3024567,-0.4341294,4.422102,-0.3194542,0.04789321,0.05384841,0.1127482,-0.6859952,2.128898,-0.03178057,0.006501329,1.247687,0.9970653,305.0569,62.43796,279.6955
5,3.499992,-1.390678,-0.8172561,-0.3888791,4.508602,3.206648,-2.338969,-0.7799733,1.347147,0,0,10.51809,44.61388,0.1815111,0.01306342,0.3283299,-0.4300531,4.425818,-0.328025,0.02793159,0.07209039,0.1373807,-0.6835876,2.13137,-0.03328046,0.006508748,1.248388,1.001824,304.8757,62.58931,278.2674
5,3.511103,-1.427867,-0.850345,-0.3852633,4.519028,3.211028,-2.321223,-0.7683966,1.040461,0,0,10.68426,44.07625,0.2327148,0.04884499,0.4611759,-0.4215305,4.436615,-0.3418553,0.01272572,0.07314618,0.103421,-0.6835749,2.132298,-0.0333244,0.004437156,1.24913,1.006985,304.016,57.28406,280.572
5,3.522214,-1.445838,-0.8896888,-0.3730994,4.529357,3.215833,-2.304157,-0.7600896,0.744605,0,0,10.78201,43.76344,0.2764232,0.2168395,0.5581932,-0.4156768,4.462681,-0.3699898,0.008386344,0.06037424,0.1002816,-0.6826885,2.132674,-0.03363093,0.002078861,1.250477,1.013036,303.3618,56.83179,280.2405
5,3.533325,-1.455375,-0.907825,-0.3728981,4.540092,3.219898,-2.286973,-0.7517848,0.7467538,0,0,10.82111,43.53862,0.2813767,0.2741753,0.6307437,-0.4088565,4.482729,-0.3915814,0.03258053,0.003784731,0.09273326,-0.6816829,2.129635,-0.03240135,-0.001275487,1.25152,1.018671,302.8779,52.44822,282.7921
5,3.544436,-1.444722,-0.8970265,-0.3613162,4.54973,3.223272,-2.270781,-0.7429681,0.7932808,0,0,10.81134,43.38221,0.2625949,0.1877565,0.6988549,-0.3992355,4.490731,-0.4012878,0.09271502,-0.083882,0.0668381,-0.6815551,2.123712,-0.03081464,-0.004439807,1.252561,1.02274,302.647,47.90172,285.6497
5,3.555547,-1.436233,-0.8723549,-0.3466647,4.558744,3.226379,-2.254497,-0.7330703,0.8916498,0,0,10.76246,43.23558,0.1658475,0.04077581,0.7557295,-0.3880385,4.489154,-0.398569,0.1218285,-0.1586685,0.01879634,-0.6827578,2.116966,-0.02791046,-0.006620764,1.253624,1.026142,302.4791,45.45942,287.3193
5,3.566658,-1.442589,-0.8712227,-0.3370799,4.568562,3.229771,-2.237681,-0.7242424,0.7931617,0,0,10.72336,42.913,0.1309934,-0.01254272,0.8048784,-0.3775233,4.495634,-0.4048348,0.1258791,-0.181092,0.004957318,-0.6829597,2.11284,-0.02609179,-0.008410466,1.25445,1.029839,302.5752,43.84311,288.076
5,3.577769,-1.460648,-0.8764527,-0.3220705,4.578325,3.233484,-2.220215,-0.7145804,0.8703165,0,0,10.66471,42.522,0.120435,-0.1795587,0.7214439,-0.3700867,4.48331,-0.3947923,0.1310823,-0.2056204,0.002828773,-0.6829027,2.107854,-0.02387737,-0.01008576,1.25519,1.033838,302.6711,42.29705,288.8511
5,3.58888,-1.439214,-0.8963911,-0.298501,4.588295,3.237645,-2.204424,-0.7045249,0.9055716,0,0,10.58651,42.07234,0.1096381,-0.2839467,0.725528,-0.360013,4.475588,-0.388674,0.1267008,-0.2120255,-0.009894725,-0.6831014,2.10377,-0.02211462,-0.01213652,1.2558,1.037795,303.1635,39.35404,290.4012
5,3.599991,-1.360253,-0.9409475,-0.3025242,4.600071,3.241813,-2.191535,-0.6944363,0.9084165,0,0,10.48876,41.58358,0.06634063,-0.3671225,0.7906488,-0.3472096,4.468941,-0.381791,0.1213935,-0.2077384,-0.008791305,-0.6831019,2.100348,-0.02053324,-0.01404512,1.256662,1.041635,303.0687,37.31461,291.6178
5,3.611102,-1.266454,-0.9641716,-0.3078423,4.611526,3.245625,-2.180296,-0.6867403,0.6897638,0,0,10.37146,41.17302,0.02417862,-0.3511945,0.8411018,-0.3357112,4.472953,-0.3845178,0.1215626,-0.2141064,0.01142891,-0.6827035,2.096089,-0.01904453,-0.01589391,1.257442,1.045947,301.327,33.38998,294.3337
5,3.622213,-1.231249,-0.9832873,-0.3120105,4.622899,3.249029,-2.167346,-0.6803492,0.5722062,0,0,10.22483,40.87977,-0.00566268,-0.3628567,0.8423806,-0.3255608,4.47131,-0.3819018,0.1247849,-0.2066624,0.01139289,-0.6824622,2.09284,-0.01793106,-0.01749882,1.258469,1.050384,299.2289,28.48698,298.4935
5,3.633324,-1.224722,-1.030129,-0.3104978,4.635499,3.253428,-2.153591,-0.6725504,0.7016382,0,0,10.0782,40.48876,0.03974979,-0.317312,0.9135131,-0.3130354,4.480769,-0.3929838,0.1101208,-0.1554724,0.008198147,-0.6829096,2.092803,-0.01941152,-0.01695352,1.259677,1.05493,297.0528,22.92887,304.6898
5,3.644435,-1.202298,-1.043796,-0.2997679,4.647153,3.257369,-2.1405,-0.6611404,1.030498,0,0,9.921799,39.9218,0.1227444,-0.2129737,0.8779491,-0.3056739,4.495996,-0.4117061,0.1114814,-0.1405101,0.03692419,-0.6814944,2.091249,-0.01939607,-0.01378045,1.260802,1.059624,295.1551,18.92506,309.889
5,3.655546,-1.124537,-1.023118,-0.2777823,4.657429,3.261177,-2.130409,-0.6505272,0.9550079,0,0,9.775171,39.16911,0.1222202,-0.1925566,0.8076956,-0.2991348,4.500297,-0.4172721,0.1464887,-0.1853945,0.04203654,-0.6807615,2.085495,-0.01774012,-0.008201116,1.261882,1.064255,293.9827,17.49103,313.6742
5,3.666657,-1.070277,-0.9930384,-0.2686282,4.667342,3.264012,-2.120188,-0.6415576,0.8057607,0,0,9.648094,38.16227,0.06549051,-0.2009008,0.7772455,-0.2910526,4.502429,-0.4179701,0.1644046,-0.2025556,0.02486476,-0.6812307,2.080779,-0.01675421,-0.0009326995,1.262879,1.06844,293.0854,15.29094,318.9053
5,3.677768,-1.02678,-0.9527103,-0.2968277,4.677341,3.265099,-2.110472,-0.6351032,0.577041,0,0,9.579668,37.07722,-0.04722685,-0.2398744,0.6811284,-0.2850088,4.495301,-0.4067489,0.1600441,-0.214265,0.019593,-0.6811876,2.07648,-0.01493527,0.006735854,1.264073,1.071946,292.7257,13.08629,324.1732
5,3.688879,-1.016319,-0.9265383,-0.3472075,4.688542,3.264834,-2.099456,-0.6256101,0.8566273,0,0,9.560118,35.96286,-0.09330855,-0.2588874,0.6505699,-0.2777506,4.492815,-0.4021605,0.1345199,-0.2045726,0.01870362,-0.6811663,2.073375,-0.0132202,0.01309358,1.265815,1.074959,292.5854,13.65576,325.9916
5,3.69999,-0.9983278,-0.9032731,-0.3698517,4.698967,3.265137,-2.089048,-0.6163269,0.8348375,0,0,9.589444,34.84849,-0.1106101,-0.2619677,0.6198078,-0.2712174,4.49115,-0.3987514,0.08770238,-0.1777515,0.01158142,-0.6812563,2.071826,-0.01128035,0.01723116,1.267889,1.077609,292.2322,14.05108,327.1339
5,3.711101,-0.8931082,-0.8328356,-0.3878566,4.707397,3.264223,-2.082755,-0.6054446,0.9815702,0,0,9.667644,33.78299,-0.09630705,-0.2980468,0.5514205,-0.2658367,4.481301,-0.3889922,0.04584818,-0.2010463,-0.01253337,-0.6821932,2.067098,-0.006582269,0.01905332,1.270053,1.079993,291.6854,13.35318,328.2255
5,3.722212,-0.8271762,-0.8266307,-0.4275175,-1.564774,3.263127,-2.0757,-0.5964634,0.8064669,0,0,9.765396,33.00098,-0.1262569,-0.324595,0.5430772,-0.2588204,4.473604,-0.379113,0.02318133,-0.2105911,-0.04215713,-0.6836265,2.062733,-0.002588326,0.0189591,1.27216,1.082273,291.2131,11.58694,329.4632
5,3.733323,-0.7196566,-0.8525164,-0.4903682,-1.551932,3.261466,-2.071531,-0.5912575,0.4630381,0,0,9.882699,32.24829,-0.1252527,-0.2268485,0.6445209,-0.2490322,4.493215,-0.3965764,-0.003212795,-0.1742437,-0.03243417,-0.6838289,2.06169,-0.0009331717,0.01761331,1.274183,1.084507,290.9095,9.434645,330.5888
5,3.744434,-0.6183378,-0.9347357,-0.5366751,-1.536418,3.261485,-2.067799,-0.5815321,0.8791483,0,0,10,31.46628,-0.09542936,-0.093656,0.6137208,-0.2451141,4.516558,-0.4191152,-0.04500486,-0.1025774,0.02743545,-0.6813058,2.063936,-0.001033839,0.01573723,1.275907,1.086438,290.5452,7.433235,331.4231
5,3.755545,-0.5639216,-0.9902709,-0.5660837,-1.521458,3.261248,-2.063368,-0.5748699,0.5950301,0,0,10.12708,30.58651,-0.05492151,0.01498562,0.591298,-0.2416243,4.540946,-0.4436451,-0.08037642,-0.01921979,0.08723219,-0.6781899,2.068341,-0.002288454,0.01408868,1.277116,1.088224,290.2229,4.807919,332.7667
5,3.766656,-0.5511199,-1.001955,-0.565998,-1.508591,3.261102,-2.05728,-0.5661316,0.7876758,0,0,10.2346,29.46237,0.04437503,0.2311213,0.5697312,-0.2414049,4.590734,-0.4959339,-0.06692378,0.02238574,0.1477704,-0.6746096,2.070992,-0.00404694,0.01329807,1.277479,1.090112,289.763,1.900705,334.6705
5,3.777767,-0.5585876,-0.9739959,-0.5374919,-1.497832,3.261255,-2.050955,-0.5560638,0.9071275,0,0,10.33236,28.18182,0.1624925,0.4270809,0.5074785,-0.2441874,4.639501,-0.5491345,-0.03148663,-0.002183177,0.195466,-0.6708865,2.069438,-0.003708452,0.01359404,1.276703,1.092182,289.4264,358.9732,337.1219
5,3.788878,-0.5342517,-0.8969398,-0.5084842,-1.489214,3.260391,-2.04557,-0.5451618,0.9830079,0,0,10.42033,26.79375,0.2237386,0.4900276,0.4251131,-0.246172,4.669296,-0.5825031,-0.02055268,-0.01175177,0.2348107,-0.6671815,2.068419,-0.002989931,0.01511598,1.274831,1.094437,289.6083,356.4627,339.5618
5,3.799989,-0.5003466,-0.8329517,-0.511326,-1.480438,3.258395,-2.041124,-0.5359793,0.8255886,0,0,10.49853,25.29814,0.1861043,0.4529017,0.3912368,-0.2456436,4.688971,-0.6022472,-0.01607765,0.009562608,0.2496499,-0.6639186,2.069791,-0.004031227,0.01768364,1.272279,1.096705,290.3683,354.7148,341.7566
5,3.8111,-0.429448,-0.6900613,-0.5235898,-1.47522,3.25326,-2.038167,-0.5285426,0.667598,0,0,10.58651,23.78299,0.1625055,0.3762468,0.3880446,-0.2427972,4.705003,-0.6188302,0.00106369,0.01376235,0.2601521,-0.6608523,2.070319,-0.004864264,0.02096508,1.269526,1.098854,291.3365,353.6371,343.6522
5,3.822211,-0.4083474,-0.6368945,-0.5401453,-1.467295,3.249816,-2.033715,-0.5214155,0.6407292,0,0,10.67449,22.47312,0.1546662,0.2985732,0.3591474,-0.2408132,-1.568285,-0.6299007,0.01363897,-0.01826695,0.2515845,-0.6583659,2.068108,-0.00373535,0.02372935,1.267557,1.100948,291.9979,356.6351,341.1898
5,3.833322,-0.3786863,-0.5944136,-0.5619403,-1.459632,3.245798,-2.030168,-0.5150479,0.5712599,0,0,10.75269,21.38807,0.1575432,0.2251245,0.3355017,-0.2385244,-1.561195,-0.6388218,0.01867205,-0.03750969,0.2292214,-0.656491,2.066101,-0.002175536,0.02541084,1.26693,1.102186,292.8911,358.9877,337.951
5,3.844433,-0.3383896,-0.5390345,-0.5753802,-1.452604,3.241495,-2.027246,-0.505533,0.8599882,0,0,10.82111,20.52786,0.1171134,0.04996666,0.1212613,-0.2404238,4.687077,-0.6047655,0.01971056,-0.04283793,0.2302913,-0.6538209,2.065143,-0.001494832,0.02659276,1.266722,1.103402,293.0428,359.3854,336.381
5,3.855544,-0.3076322,-0.486722,-0.5727712,-1.446608,3.237455,-2.024434,-0.4985001,0.6302612,0,0,10.86999,19.8436,0.0931451,0.03205996,0.05961648,-0.2416307,4.683506,-0.6015617,0.009662181,0.01587676,0.2739506,-0.649211,2.068811,-0.004084224,0.02760425,1.266615,1.105516,292.6046,358.1096,337.1557
5,3.866655,-0.3002204,-0.4694935,-0.5623609,-1.439742,3.233343,-2.02054,-0.4917021,0.6114526,0,0,10.88954,19.26686,0.1181289,0.1032826,0.1022022,-0.2415168,4.702693,-0.6223797,-0.01367217,0.1098919,0.3677178,-0.642036,2.076047,-0.008833972,0.02882608,1.266488,1.10817,292.1536,357.1252,337.9436
5,3.877766,-0.3044566,-0.4650869,-0.5464144,-1.432796,3.230494,-2.016612,-0.4845627,0.6429433,0,0,10.88954,18.76833,0.1652965,0.2246352,0.109584,-0.2442476,-1.551487,-0.6542282,-0.01400602,0.1441151,0.4390359,-0.6347378,2.080875,-0.0125078,0.03004547,1.266334,1.110953,292.0445,358.7073,336.0634
5,3.888877,-0.295981,-0.4156909,-0.5096511,-1.427956,3.227624,-2.013139,-0.4765088,0.7263669,0,0,10.86999,18.27957,0.1802132,0.2651125,0.09997922,-0.2461954,-1.53631,-0.6715147,0.0052948,0.1419313,0.4559235,-0.6294386,2.083113,-0.0150663,0.03134334,1.266064,1.113408,292.1751,359.7642,334.2373
5,3.899988,-0.270559,-0.3568986,-0.4964406,-1.423705,3.223698,-2.010224,-0.4695425,0.6264635,0,0,10.84066,17.79081,0.1694038,0.3024867,0.07246244,-0.2492452,-1.521613,-0.6873028,0.02759716,0.1162788,0.4621812,-0.6240277,2.083939,-0.01675847,0.03280222,1.265873,1.115467,292.5351,0.5462746,332.3128
5,3.911099,-0.2367016,-0.2748254,-0.5015861,-1.420932,3.218575,-2.007994,-0.4636063,0.5334165,0,0,10.79179,17.27273,0.1029985,0.3773226,0.01247384,-0.2551324,-1.506557,-0.7004929,0.03169151,0.1140884,0.4429731,-0.6198305,2.086013,-0.01888474,0.03406037,1.265669,1.117621,292.6711,1.718744,330.6005
5,3.92221,-0.2273619,-0.1777471,-0.4908572,-1.419436,3.213265,-2.004812,-0.4582847,0.4782748,0,0,10.76246,16.70577,0.1234457,0.5229275,0.1351844,-0.2578419,-1.459885,-0.7475656,0.04230066,0.1321245,0.4279371,-0.6156685,2.089847,-0.02282223,0.03490029,1.265404,1.119837,292.6294,2.585449,329.5351
5,3.933321,-0.22854,-0.128665,-0.482814,-1.417499,3.208456,-2.001509,-0.4533414,0.4442011,0,0,10.73314,16.14858,0.163327,0.5983806,0.1744607,-0.2616556,-1.426199,-0.7834189,0.05950959,0.1480507,0.4394822,-0.6104146,2.093953,-0.02745213,0.03541983,1.265078,1.121899,292.5466,2.70482,329.015
5,3.944432,-0.2861943,-0.08288631,-0.4757167,-1.415727,3.202772,-1.995184,-0.4468252,0.5883378,0,0,10.71359,15.62072,0.1798964,0.5505305,0.1273298,-0.2651837,-1.414316,-0.7975483,0.0829653,0.1777562,0.427525,-0.6060225,2.099544,-0.03366395,0.03599749,1.264733,1.12386,292.6338,2.947357,328.1966
5,3.955544,-0.3597961,-0.04039797,-0.4685097,-1.414607,3.19768,-1.987822,-0.4412144,0.5046117,0,0,10.70381,15.12219,0.1305716,0.3577889,0.1325695,-0.2623363,-1.417827,-0.7938132,0.08168582,0.2021899,0.3880686,-0.6033109,2.105097,-0.03904194,0.03668253,1.264388,1.125874,292.8544,3.684914,326.9724
5,3.966655,-0.3843672,-0.02445385,-0.470775,-1.412645,3.191947,-1.981669,-0.4334518,0.7025087,0,0,10.70381,14.67253,0.1071181,0.2544448,0.1538142,-0.2601371,-1.411906,-0.7999641,0.07226117,0.2256961,0.3976918,-0.5986419,2.111403,-0.04444789,0.03764919,1.26415,1.128026,293.2611,4.496308,325.3764
5,3.977766,-0.3949773,-0.03614727,-0.4653101,-1.409945,3.187653,-1.97625,-0.4276536,0.5215021,0,0,10.71359,14.34018,0.07460131,0.1235694,0.1153994,-0.2578782,-1.421443,-0.7903833,0.07148394,0.214058,0.4392672,-0.5924702,2.115386,-0.04852013,0.03891135,1.264119,1.130669,293.7226,5.394142,323.4458
5,3.988877,-0.4237142,-0.05334973,-0.4736004,-1.406586,3.182966,-1.969871,-0.4248589,0.24882,0,0,10.72336,14.10557,0.07425699,0.06398353,0.08649287,-0.2572171,-1.42434,-0.7885751,0.06867051,0.2258619,0.4786817,-0.5860217,2.12123,-0.05417455,0.04028211,1.26424,1.134295,293.8323,6.889447,321.6731
5,3.999988,-0.4440066,-0.03100124,-0.4705777,-1.404972,3.177958,-1.963368,-0.4217867,0.2766012,0,0,10.73314,13.9785,0.1308847,0.04464232,0.111555,-0.2555069,-1.418225,-0.7978676,0.06917025,0.2408727,0.531917,-0.5783038,2.127951,-0.06059304,0.04229931,1.264602,1.139481,292.7923,6.304437,322.5974
5,4.011099,-0.4643339,0.007357091,-0.4645154,-1.404409,3.172763,-1.95677,-0.4174095,0.3955458,0,0,10.75269,13.91984,0.1533344,0.07015991,0.1146328,-0.2557641,-1.40986,-0.8084624,0.08645906,0.2621386,0.5509079,-0.5720001,2.13535,-0.06833645,0.04628175,1.265029,1.145015,291.389,0.4274162,330.0819
5,4.02221,-0.5145112,0.04555783,-0.4658609,-1.403772,3.167057,-1.948507,-0.4139436,0.3114324,0,0,10.77224,13.86119,0.1806734,0.156235,0.1817436,-0.2563047,-1.384788,-0.835509,0.1109868,0.3056751,0.5325214,-0.567084,2.145136,-0.07847723,0.05209998,1.265828,1.150509,290.6154,357.3527,335.179
5,4.033321,-0.5752774,0.06783175,-0.4595509,-1.403367,3.161882,-1.939307,-0.4110467,0.2608389,0,0,10.77224,13.78299,0.2433194,0.247529,0.2656256,-0.2571016,-1.35113,-0.8729264,0.1321152,0.3012851,0.5131764,-0.5624314,2.151819,-0.0862249,0.05948088,1.267007,1.155457,290.4412,358.5517,336.103
5,4.044433,-0.5934653,0.06906077,-0.4520701,-1.403294,3.155789,-1.930127,-0.4070919,0.3581059,0,0,10.77224,13.65591,0.2357582,0.1836324,0.2676567,-0.255134,-1.34315,-0.8828749,0.133959,0.2724821,0.494037,-0.5577043,2.156379,-0.09152006,0.06809422,1.267892,1.160028,290.078,358.6547,339.1567
5,4.055544,-0.591296,0.05954134,-0.44559,-1.401959,3.151152,-1.922789,-0.4039941,0.2791369,0,0,10.76246,13.49951,0.1481149,0.06876538,0.2584969,-0.251102,-1.343565,-0.8812333,0.1245757,0.1722874,0.4420945,-0.5544552,2.154229,-0.09078316,0.07715493,1.26843,1.164085,290.3295,0.01133146,341.6614
5,4.066655,-0.5848873,0.05965292,-0.4360305,-1.400797,3.1464,-1.915782,-0.4025618,0.1279397,0,0,10.74291,13.30401,0.09634782,0.05488136,0.3142867,-0.247985,-1.325028,-0.8985356,0.1287564,0.1520297,0.4431603,-0.5495965,2.157042,-0.09475767,0.08560686,1.269087,1.167795,290.8461,0.2522253,343.7351
5,4.077766,-0.5732331,0.08627912,-0.4384685,-1.400503,3.140931,-1.908903,-0.4029155,-0.03400874,0,0,10.71359,13.07918,0.03269282,0.02613935,0.3530877,-0.2440888,-1.309147,-0.9120219,0.1467624,0.1008479,0.4590924,-0.5436444,2.157024,-0.09699605,0.09389235,1.270205,1.171161,291.4816,359.1896,346.1082
5,4.088878,-0.5722767,0.1202761,-0.4483905,-1.401108,3.134985,-1.90157,-0.4022454,0.06086326,0,0,10.70381,12.86413,-0.02766292,-0.08331208,0.2936546,-0.2399167,-1.317417,-0.9016385,0.1456378,0.09445611,0.455916,-0.5388672,2.159837,-0.1009098,0.1021406,1.270773,1.174185,292.968,350.3683,357.8551
5,4.099989,-0.5893908,0.135011,-0.4623453,-1.40123,3.128929,-1.893422,-0.4013986,0.07614017,0,0,10.70381,12.6784,-0.005901903,-0.09628144,0.3520374,-0.2349936,-1.301464,-0.9178523,0.1289867,0.154219,0.4740579,-0.5333811,2.168406,-0.1089489,0.1080833,1.272041,1.17791,293.1799,350.9921,359.847
5,4.1111,-0.606309,0.03784385,-0.4858341,-1.397116,3.123641,-1.884502,-0.400035,0.123442,0,0,10.71359,12.53177,0.0566394,0.004648924,0.4199638,-0.2340658,-1.264983,-0.9565001,0.1220047,0.2086296,0.5027794,-0.5273602,2.17819,-0.1185144,0.1111321,1.273957,1.181688,292.8748,352.5916,359.5244
5,4.122211,-0.597598,-0.04424155,-0.4935764,-1.392163,3.119201,-1.877413,-0.3983519,0.1523771,0,0,10.74291,12.44379,0.1133593,0.07055005,0.4367107,-0.2337329,-1.237995,-0.9860055,0.1303198,0.2021621,0.4814225,-0.5229916,2.183197,-0.124514,0.111713,1.276506,1.185275,292.4989,352.6666,359.1161
5,4.133323,-0.5236542,-0.2015806,-0.4773144,-1.383234,3.116946,-1.873719,-0.3967396,0.1457496,0,0,10.78201,12.38514,0.1268866,0.068491,0.3982428,-0.2324908,-1.225723,-0.9997712,0.149023,0.1636732,0.444055,-0.5195017,2.18519,-0.1285124,0.1107702,1.279698,1.188636,292.0649,351.3417,359.01
5,4.144434,-0.4797374,-0.2930504,-0.4733264,-1.375748,3.113943,-1.869287,-0.3978475,-0.1028273,0,0,10.81134,12.33627,0.108149,0.06552128,0.3227529,-0.2325185,-1.22142,-1.004352,0.1593639,0.1146024,0.4323473,-0.5150303,2.185556,-0.1309356,0.1094969,1.283474,1.191753,291.5132,348.9865,359.555
5,4.155545,-0.449709,-0.3751167,-0.4832598,-1.367402,3.110504,-1.864852,-0.4004947,-0.2414296,0,0,10.83089,12.29717,0.09542894,0.1262804,0.3166134,-0.2338351,-1.202564,-1.023185,0.168599,0.02720767,0.4356278,-0.5096886,2.181313,-0.129407,0.1085573,1.287547,1.19469,290.6452,346.5987,0.8603141
5,4.166656,-0.3845455,-0.4517125,-0.4890533,-1.358303,3.107434,-1.862406,-0.3995056,0.09187036,0,0,10.84066,12.24829,0.1432962,0.1935976,0.3312542,-0.2343795,-1.179146,-1.04818,0.185494,-0.02291977,0.4441049,-0.5043175,2.178399,-0.129521,0.108125,1.2913,1.197156,289.5429,343.7809,3.263356
5,4.177768,-0.2970607,-0.4886804,-0.4771784,-1.350646,3.104707,-1.861583,-0.3987855,0.06444058,0,0,10.82111,12.14076,0.2194662,0.2399683,0.3457121,-0.2368594,-1.152282,-1.080214,0.2067595,-0.05281579,0.4557151,-0.4986258,2.176866,-0.1311743,0.1084815,1.294287,1.199296,288.6151,341.3268,5.536479
5,4.188879,-0.1851042,-0.4890415,-0.4326985,-1.344502,3.103083,-1.862837,-0.4000031,-0.1122341,0,0,10.78201,12.03324,0.2748813,0.2252617,0.2216442,-0.2395423,-1.154609,-1.082923,0.2151378,-0.05926874,0.4450147,-0.4940782,2.176637,-0.1333735,0.1095928,1.296206,1.20115,288.0293,339.2021,7.760026
5,4.19999,-0.07750523,-0.4693658,-0.4096982,-1.339111,3.100827,-1.865153,-0.4009815,-0.08897592,0,0,10.72336,11.91593,0.2614575,0.1625928,0.1576774,-0.2394203,-1.157338,-1.082698,0.2085569,-0.08163142,0.4344603,-0.4894144,2.174307,-0.1333306,0.1116029,1.296936,1.202603,287.7887,337.33,9.801368
5,4.211102,0.001386464,-0.4851109,-0.4054922,-1.331903,3.098045,-1.866887,-0.4020606,-0.0986066,0,0,10.65494,11.80841,0.1724071,0.1650798,0.08064283,-0.2415205,-1.161449,-1.077304,0.200021,-0.06031859,0.4217117,-0.4851502,2.175537,-0.1363115,0.1141402,1.296354,1.203749,287.732,336.5142,11.39167
5,4.222213,0.0621745,-0.505134,-0.399043,-1.324654,3.095824,-1.869103,-0.4024058,-0.03154671,0,0,10.59628,11.75953,0.171494,0.2279194,0.08506919,-0.2450353,-1.146822,-1.093318,0.1842225,-0.01976547,0.4239017,-0.4805482,2.179451,-0.1411337,0.1168268,1.294442,1.204538,287.9461,336.4069,12.27436
5,4.233324,0.1666694,-0.5107976,-0.3577464,-1.318235,3.093739,-1.873831,-0.4010018,0.1279062,0,0,10.53763,11.74976,0.2123403,0.2802864,-0.01207991,-0.2509465,-1.148726,-1.095259,0.1885903,-0.01337823,0.4334406,-0.4754494,2.181005,-0.1447686,0.11961,1.291345,1.20503,288.4634,336.5674,12.6023
5,4.244435,0.22847,-0.4954107,-0.3292952,-1.313038,3.091861,-1.877919,-0.4003125,0.06123547,0,0,10.48876,11.83773,0.2207813,0.2656975,-0.1485488,-0.2561545,-1.16721,-1.08008,0.2022922,-0.02943498,0.4248371,-0.4709182,2.180377,-0.1469042,0.1223212,1.287332,1.20535,289.3088,336.7124,12.88756
5,4.255547,0.3160285,-0.5309066,-0.2769404,-1.305876,3.0929,-1.884768,-0.4018838,-0.1447815,0,0,10.44966,12.00391,0.239645,0.3137198,-0.19652,-0.2622755,-1.171635,-1.079247,0.1881101,-0.01561397,0.3759209,-0.46849,2.181731,-0.1497466,0.1252196,1.282919,1.205534,290.5699,336.6331,12.62454
5,4.266658,0.3577597,-0.5584363,-0.2523048,-1.295755,3.094621,-1.890296,-0.4005053,0.1267322,0,0,10.40078,12.25806,0.2753812,0.4125988,-0.1464801,-0.268665,-1.156691,-1.097606,0.158294,0.0164465,0.360123,-0.4652644,2.1856,-0.1539382,0.1290532,1.278735,1.205426,291.9524,336.4052,11.80837
5,4.277769,0.4346718,-0.5917994,-0.1978217,-1.288204,3.096973,-1.898519,-0.4014641,-0.08948615,0,0,10.36168,12.54154,0.2753269,0.4541856,-0.1623548,-0.2754507,-1.153328,-1.103945,0.1742696,0.02809092,0.3557193,-0.4615333,2.188655,-0.1588701,0.1340416,1.275073,1.20542,292.8712,336.6213,11.41654
5,4.28888,0.5242772,-0.5673314,-0.1151886,-1.283312,3.09988,-1.908049,-0.3992478,0.2028034,0,0,10.32258,12.82502,0.2169173,0.4812194,-0.2757983,-0.2841598,-1.164997,-1.093082,0.1984559,0.01407701,0.3235857,-0.458869,2.18897,-0.1622462,0.1385783,1.271351,1.205403,292.3585,338.218,13.46066
5,4.299992,0.5850588,-0.5367594,-0.05489807,-1.279203,3.103183,-1.917717,-0.4007243,-0.1373073,0,0,10.29326,13.08895,0.2060773,0.5122073,-0.3054609,-0.292267,-1.167827,-1.09228,0.2002344,-0.001975119,0.2884445,-0.4567566,2.188481,-0.1641125,0.1380608,1.268014,1.204788,290.5352,344.0487,12.22051
5,4.311103,0.6478292,-0.4388089,0.03240336,-1.278673,3.106366,-1.92759,-0.4012494,-0.04726164,0,0,10.28348,13.34311,0.1606221,0.4261751,-0.3724172,-0.296976,-1.184028,-1.077034,0.1751558,-0.03605691,0.2365067,-0.4556615,2.184867,-0.1619197,0.1351841,1.266523,1.203294,290.0182,336.6487,20.27585
5,4.322214,0.6435129,-0.4013888,0.04696637,-1.275899,3.108474,-1.935224,-0.4004409,0.07354704,0,0,10.27371,13.57771,0.1029156,0.3506573,-0.3774623,-0.3003183,-1.194886,-1.065849,0.1612059,-0.02218391,0.2163522,-0.453996,2.185844,-0.1640973,0.133233,1.265762,1.201984,290.177,328.7543,27.39099
5,4.333325,0.6008538,-0.3586313,0.07328267,-1.274024,3.111106,-1.941192,-0.399774,0.05973978,0,0,10.28348,13.74389,0.07650672,0.3250585,-0.3442815,-0.3037452,-1.197572,-1.063257,0.1774838,0.03634134,0.2225118,-0.451539,2.192351,-0.1723286,0.1332129,1.265065,1.200877,289.6794,325.962,29.48041
5,4.344437,0.5708857,-0.2814448,0.1301116,-1.275133,3.11434,-1.946494,-0.397121,0.2416315,0,0,10.29326,13.84164,0.07674731,0.3274437,-0.4454882,-0.3113693,-1.214668,-1.047957,0.1924688,0.044797,0.2266355,-0.4490042,2.194942,-0.177387,0.1335725,1.264054,1.199826,289.1457,323.3253,30.98952
5,4.355548,0.583581,-0.1795038,0.2026059,-1.278104,3.118433,-1.954571,-0.3946123,0.2271065,0,0,10.30303,13.85142,0.08808994,0.2443994,-0.4724289,-0.3147191,-1.232095,-1.032772,0.198834,0.04263453,0.2244579,-0.4466851,2.196756,-0.1814808,0.1340555,1.262928,1.198979,288.3512,322.5905,31.55141
5,4.366659,0.5993964,-0.08410072,0.2591539,-1.281934,3.121878,-1.962023,-0.3933974,0.1092532,0,0,10.31281,13.80254,0.02133226,0.1626562,-0.5413522,-0.3182275,-1.256311,-1.00803,0.1819056,0.06295303,0.229892,-0.4442062,2.200726,-0.186295,0.1345196,1.261861,1.198177,287.4937,322.2921,31.92056
5,4.37777,0.5833675,-0.04559523,0.2790584,-1.284147,3.125219,-1.968936,-0.3957745,-0.2181866,0,0,10.30303,13.74389,-0.04332094,0.1935834,-0.5066619,-0.3235964,-1.262617,-0.9993789,0.1713811,0.07473519,0.2395429,-0.4414712,2.204904,-0.1916057,0.1347614,1.260891,1.197414,286.724,321.7808,32.65537
5,4.388882,0.541698,0.02705674,0.3125173,-1.28801,3.128009,-1.974075,-0.3954981,0.02718309,0,0,10.29326,13.64614,-0.1100845,0.2373048,-0.4751096,-0.3293659,-1.265566,-0.9933423,0.1680919,0.05557136,0.2385352,-0.438857,2.206043,-0.1944227,0.1346655,1.259955,1.196759,286.0461,320.4486,34.27075
5,4.399993,0.474407,0.1273213,0.3425928,-1.294283,3.130698,-1.9778,-0.3947636,0.0665398,0,0,10.28348,13.51906,-0.1496394,0.2139667,-0.4854937,-0.3338485,-1.278202,-0.9784081,0.1443205,0.05453573,0.1971785,-0.4380687,2.207634,-0.1967234,0.1343786,1.258975,1.196019,285.6018,318.5056,36.47238
5,4.411104,0.4049815,0.214721,0.3653203,-1.30067,3.13259,-1.980424,-0.3930181,0.1590473,0,0,10.28348,13.35288,-0.1611206,0.200065,-0.4545375,-0.3375099,-1.285139,-0.9699004,0.1250354,0.08119867,0.1695886,-0.4374785,2.212065,-0.2014351,0.1340518,1.258084,1.195326,285.255,316.3912,38.8082
5,4.422215,0.3739293,0.2583473,0.3670672,-1.306235,3.133957,-1.983183,-0.3915651,0.131605,0,0,10.27371,13.16716,-0.1761092,0.1681347,-0.4555597,-0.341054,-1.296027,-0.9571342,0.09819178,0.07170124,0.1495842,-0.4364234,2.21411,-0.2034117,0.1337744,1.257443,1.194851,284.9998,314.9628,40.5152
5,4.433327,0.3717339,0.253756,0.3340886,-1.309648,3.135331,-1.987612,-0.3908311,0.06629201,0,0,10.28348,12.98143,-0.2243282,0.09155229,-0.4734781,-0.3431792,-1.314379,-0.9358521,0.09693404,0.05781978,0.1336435,-0.4353874,2.214501,-0.2047582,0.1334944,1.256878,1.194693,284.6286,314.2388,41.71827
5,4.444438,0.3909286,0.2323444,0.319321,-1.312262,3.137186,-1.993168,-0.3913994,-0.05216984,0,0,10.30303,12.77615,-0.261169,0.04243071,-0.4083316,-0.3435494,-1.322931,-0.9237366,0.0947559,0.06845866,0.1219233,-0.4347158,2.217579,-0.2085727,0.133331,1.256338,1.194426,284.4342,313.5154,42.69682
5,4.455549,0.4165689,0.1875118,0.3037156,-1.313938,3.139602,-1.999297,-0.3934224,-0.1842488,0,0,10.34213,12.57087,-0.2801939,0.03815624,-0.3890097,-0.3459872,-1.330968,-0.9123814,0.05455853,0.09106255,0.145639,-0.4326518,2.223358,-0.2129719,0.1328779,1.255794,1.19424,284.1806,311.8951,44.0385
5,4.46666,0.4208438,0.1586497,0.2922634,-1.316154,3.141967,-2.004132,-0.394747,-0.1194534,0,0,10.38123,12.35582,-0.2843159,0.05517432,-0.3761505,-0.3495079,-1.338067,-0.9025006,0.009995088,0.1168402,0.1534003,-0.4312531,2.229317,-0.2170657,0.1324258,1.255202,1.193879,284.2129,309.9055,46.01533
