loc,t,aDotS,bDotS,gDotS,aS,bS,gS,qE,qDotE,tpad,enable,emgA,emgB,aDotSH,bDotSH,gDotSH,aSH,bSH,gSH,aDotUB,bDotUB,gDotUB,aUB,bUB,gUB,xHand,yHand,zHand,aHand,bHand,gHand
7,0,-0.2602262,-0.7255093,0.3091447,-1.31382,3.431631,-2.881021,-1.268785,-0.05626612,0,0,12.14076,12.45357,-0.7065017,0.7075855,-0.571092,-0.4722818,3.503052,-0.1007301,-0.2607367,0.5822606,0.3435487,-0.9385395,1.664261,-0.04704181,0.2138684,1.159469,0.6843567,297.8209,327.561,7.287505
7,0.01111111,-0.21217,-0.6995493,0.4248899,-1.320498,3.440669,-2.882437,-1.269173,-0.03501327,0,0,11.98436,12.20919,-0.6784909,0.8517151,-0.6966064,-0.4856572,3.530339,-0.1183554,-0.2879681,0.5718419,0.4119564,-0.9318891,1.67186,-0.04754941,0.2113061,1.158876,0.6865856,297.7174,326.7578,7.66571
7,0.02222222,-0.1780021,-0.6750836,0.5065848,-1.326776,3.449505,-2.883688,-1.269191,-0.001598464,0,0,11.83773,12.03324,-0.665738,0.942301,-0.7209403,-0.4955402,3.555627,-0.1336446,-0.2992334,0.5826324,0.4642258,-0.9252402,1.680821,-0.04920962,0.2079185,1.157629,0.6884019,297.6382,326.3068,7.457619
7,0.03333334,-0.1492031,-0.6650116,0.542645,-1.33205,3.458386,-2.885141,-1.270211,-0.0934405,0,0,11.71066,11.91593,-0.6438026,1.03265,-0.668653,-0.5033225,3.584159,-0.1524076,-0.3007036,0.6615052,0.4992652,-0.9192779,1.693801,-0.05358227,0.2039202,1.155897,0.6897623,297.7271,326.2604,6.630263
7,0.04444445,-0.09695067,-0.6591264,0.5808492,-1.337617,3.467459,-2.888037,-1.270026,0.01743774,0,0,11.60313,11.79863,-0.6405338,1.042881,-0.5354817,-0.5064448,3.606986,-0.1655059,-0.3164343,0.7425013,0.4768928,-0.9155537,1.707777,-0.05798314,0.1995271,1.153873,0.6904432,297.8815,326.5781,5.41761
7,0.05555556,-0.02978298,-0.6436239,0.6199753,-1.343877,3.476255,-2.892331,-1.269983,0.003599101,0,0,11.51515,11.69111,-0.6438415,0.9977757,-0.410944,-0.5083346,3.626469,-0.1753335,-0.3329666,0.7573787,0.3939001,-0.914595,1.719073,-0.0605214,0.1949228,1.151719,0.6905087,298.1508,326.7919,4.230851
7,0.06666667,0.01921561,-0.6186863,0.6483744,-1.350435,3.484373,-2.896032,-1.271144,-0.106295,0,0,11.44673,11.60313,-0.6466437,0.8021436,-0.1856347,-0.503289,3.633499,-0.1739779,-0.3452385,0.747736,0.3290255,-0.9135628,1.728825,-0.06209373,0.1902927,1.149593,0.6901633,298.4835,326.7708,3.222001
7,0.07777778,0.1246602,-0.5536783,0.7220238,-1.359749,3.490877,-2.90231,-1.272394,-0.1136787,0,0,11.39785,11.55425,-0.6315341,0.7188706,-0.1412724,-0.5049204,3.644675,-0.1771772,-0.3509334,0.7221478,0.2960808,-0.9118515,1.738064,-0.0637574,0.1858071,1.147613,0.6894746,298.7595,326.7885,2.261379
7,0.08888889,0.1917394,-0.4921213,0.780858,-1.369433,3.496949,-2.907876,-1.27165,0.06852618,0,0,11.34897,11.51515,-0.5892379,0.6240134,-0.15576,-0.5077359,3.651578,-0.1779684,-0.3403808,0.714609,0.28961,-0.9092149,1.74793,-0.06630366,0.1815749,1.145755,0.6885427,298.8954,326.9073,1.300115
7,0.1,0.2321966,-0.4554319,0.8133918,-1.378426,3.503154,-2.912962,-1.273986,-0.2146238,0,0,11.3001,11.47605,-0.5405112,0.5760355,-0.1776264,-0.5114324,3.660204,-0.1811935,-0.3162541,0.6867374,0.2585791,-0.9079095,1.756552,-0.06898519,0.177672,1.143914,0.6875997,298.9354,327.2498,0.215948
7,0.1111111,0.2993034,-0.4380015,0.8343905,-1.387073,3.509704,-2.919729,-1.273053,0.0865735,0,0,11.25122,11.4956,-0.4156296,0.491857,-0.2566922,-0.5173702,3.663664,-0.1838465,-0.2913171,0.6236836,0.219041,-0.9072868,1.762371,-0.07014793,0.1742425,1.142044,0.6862916,298.8835,328.0325,358.9408
7,0.1222222,0.3579354,-0.4645463,0.8314182,-1.394489,3.517708,-2.926906,-1.271853,0.1083705,0,0,11.21212,11.56403,-0.3522127,0.4599788,-0.3137741,-0.523365,3.669684,-0.1871931,-0.2650625,0.5958022,0.1890523,-0.9066204,1.769555,-0.07246594,0.1711985,1.140012,0.6847426,298.9667,328.982,357.6407
7,0.1333333,0.3910061,-0.494357,0.8274623,-1.401894,3.526106,-2.933738,-1.272854,-0.09259132,0,0,11.20235,11.68133,-0.2751975,0.4493747,-0.3964926,-0.5312314,3.676421,-0.1924424,-0.2385138,0.5764793,0.1910122,-0.9048308,1.776979,-0.07529476,0.1684054,1.137785,0.683149,299.2261,329.77,356.5227
7,0.1444445,0.4475128,-0.5358955,0.8193449,-1.408876,3.535243,-2.941798,-1.272619,0.02198646,0,0,11.20235,11.85728,-0.2501243,0.4665633,-0.4605644,-0.5392517,3.684953,-0.1977762,-0.2099109,0.5337096,0.1993743,-0.9027253,1.782654,-0.07739253,0.1658394,1.135369,0.6813564,299.5091,330.3839,355.5957
7,0.1555556,0.4570984,-0.5445076,0.8109042,-1.416099,3.543259,-2.948344,-1.271675,0.08561799,0,0,11.24145,12.07234,-0.2490872,0.5081406,-0.4743046,-0.5461797,3.69579,-0.2042975,-0.1910475,0.4994956,0.1811666,-0.9017128,1.788348,-0.07944822,0.163402,1.132721,0.679314,299.838,330.8445,354.7942
7,0.1666667,0.439942,-0.5366791,0.7554396,-1.421526,3.550269,-2.953637,-1.272229,-0.05174863,0,0,11.261,12.34604,-0.2349814,0.4930829,-0.4393134,-0.5507619,3.703642,-0.2087266,-0.1563401,0.4640994,0.1468545,-0.9016755,1.793249,-0.08185092,0.1609515,1.129819,0.6772115,300.2697,331.2522,353.957
7,0.1777778,0.4174573,-0.5234957,0.7031139,-1.426523,3.556794,-2.958449,-1.270577,0.1513049,0,0,11.27077,12.66862,-0.2185019,0.458746,-0.3703064,-0.5533378,3.710065,-0.2122497,-0.1239863,0.4254869,0.08380638,-0.9031674,1.797461,-0.08420969,0.1585199,1.126752,0.6748784,300.7665,331.5902,353.1063
7,0.1888889,0.3917127,-0.5216185,0.5955229,-1.428452,3.562985,-2.962801,-1.269004,0.142135,0,0,11.25122,13.0303,-0.1951381,0.4295606,-0.2459476,-0.5527402,3.717479,-0.2172383,-0.09350364,0.4028942,0.0441884,-0.9042646,1.802075,-0.08702518,0.1560853,1.123594,0.6725197,301.3638,331.8763,352.2125
7,0.2,0.3841618,-0.5354401,0.5093929,-1.430001,3.569901,-2.967915,-1.268321,0.06124763,0,0,11.1828,13.38221,-0.1765849,0.4187064,-0.1907381,-0.5538321,3.72531,-0.2226206,-0.07877015,0.3889463,0.02917938,-0.9047765,1.806939,-0.08967316,0.1546529,1.121329,0.6711413,301.7206,329.5949,354.3524
7,0.2111111,0.3818738,-0.552799,0.3913391,-1.429087,3.576394,-2.972886,-1.267823,0.04509896,0,0,11.07527,13.72434,-0.1691544,0.4197605,-0.195056,-0.5573043,3.732837,-0.2274806,-0.07266474,0.3547929,0.01532525,-0.9052883,1.810227,-0.09101246,0.1542832,1.12069,0.6706933,301.4608,329.3038,355.1007
7,0.2222222,0.377516,-0.5535675,0.3274233,-1.42944,3.582843,-2.977869,-1.268434,-0.05608774,0,0,10.94819,13.9785,-0.192773,0.4081396,-0.2130065,-0.5612441,3.739105,-0.2297573,-0.07086338,0.329175,-0.01128407,-0.9065869,1.813553,-0.09237893,0.1543919,1.120428,0.6705996,301.2978,329.6781,354.9549
7,0.2333333,0.321855,-0.5145332,0.211986,-1.427427,3.586649,-2.979955,-1.26839,0.004493259,0,0,10.80156,14.12512,-0.2151285,0.372983,-0.2012053,-0.5636271,3.74346,-0.2302204,-0.06217937,0.2810486,-0.09757239,-0.9107366,1.814741,-0.09269212,0.1545534,1.120233,0.6704744,301.101,330.0036,354.7813
7,0.2444444,0.2748356,-0.4908814,0.1478628,-1.426395,3.591312,-2.982118,-1.268349,0.003648818,0,0,10.66471,14.16422,-0.2020243,0.3205952,-0.146055,-0.5636756,3.7474,-0.231446,-0.06054994,0.2585829,-0.1486932,-0.9142291,1.816937,-0.09343381,0.1546066,1.120075,0.6702559,300.8946,329.99,354.8669
7,0.2555556,0.1925784,-0.4528464,0.04524536,-1.422716,3.594678,-2.982013,-1.265848,0.2285612,0,0,10.57674,14.0958,-0.1609898,0.2648728,-0.06666437,-0.5621693,3.750195,-0.2333054,-0.06747004,0.2191393,-0.1912017,-0.9179597,1.817908,-0.09298107,0.1545726,1.119962,0.6699952,300.7072,329.7581,355.1291
7,0.2666667,0.097571,-0.4286011,-0.05079737,-1.418258,3.598048,-2.980526,-1.265709,0.01095283,0,0,10.52786,13.92962,-0.1436149,0.2359437,-0.02109285,-0.5615387,3.753943,-0.23547,-0.07530356,0.1765261,-0.2113342,-0.9210191,1.818099,-0.09195549,0.1544713,1.119944,0.6699718,300.7283,329.4974,355.3255
7,0.2777778,0.01006594,-0.4224445,-0.1455684,-1.412804,3.601899,-2.978514,-1.263965,0.1597646,0,0,10.53763,13.67546,-0.1400759,0.1942365,0.02989163,-0.5597346,3.756194,-0.2359161,-0.07658227,0.1307296,-0.2080615,-0.9231986,1.817804,-0.09086919,0.1543338,1.119922,0.6701252,300.8705,329.309,355.4344
7,0.2888889,-0.04540855,-0.424314,-0.2040534,-1.408138,3.606071,-2.977055,-1.262856,0.1004518,0,0,10.58651,13.34311,-0.1547114,0.1483262,0.07463115,-0.557512,3.757485,-0.2346698,-0.07660777,0.1051785,-0.1941735,-0.9247869,1.818023,-0.09021884,0.1542196,1.119945,0.6704952,301.1701,329.1568,355.3715
7,0.3,-0.1328858,-0.4287426,-0.2933715,-1.400985,3.610047,-2.973332,-1.262739,0.01031846,0,0,10.68426,12.9521,-0.1765561,0.07889628,0.1534454,-0.5527284,3.756528,-0.2311139,-0.06586233,0.07002186,-0.1579831,-0.9252072,1.817404,-0.08949526,0.1541026,1.120036,0.671165,301.6883,329.1125,355.094
7,0.3111111,-0.2321201,-0.4172271,-0.3839231,-1.39308,3.613098,-2.968047,-1.263834,-0.09970408,0,0,10.78201,12.60997,-0.1794811,-0.00540936,0.2064989,-0.5479859,3.75308,-0.2260065,-0.07635569,0.04987317,-0.1227213,-0.9253979,1.817077,-0.08803611,0.1539451,1.120187,0.6720011,302.3456,329.094,354.7466
7,0.3222222,-0.2961194,-0.4147276,-0.4318097,-1.38573,3.616702,-2.963151,-1.262304,0.1411879,0,0,10.88954,12.38514,-0.1890239,-0.04590628,0.2203083,-0.5449387,3.751151,-0.2221116,-0.08056448,0.04139303,-0.1098927,-0.9262245,1.817257,-0.08709282,0.1537384,1.120342,0.6728294,303.0116,329.0182,354.4679
7,0.3333333,-0.2961194,-0.4147276,-0.4318097,-1.38573,3.616702,-2.963151,-1.261376,0.08408583,0,0,10.97752,12.32649,-0.1890239,-0.04590628,0.2203083,-0.5449387,3.751151,-0.2221116,-0.08056448,0.04139303,-0.1098927,-0.9262245,1.817257,-0.08709282,0.1531503,1.120654,0.6740877,303.5999,326.688,355.9152
7,0.3444445,-0.4380279,-0.369083,-0.5120504,-1.370518,3.621053,-2.949577,-1.267692,-0.5776072,0,0,11.06549,12.40469,-0.2187223,-0.06614643,0.2407417,-0.5385551,3.749765,-0.2149991,-0.06787068,0.0242715,-0.1099661,-0.9286272,1.81693,-0.08581185,0.1526167,1.120942,0.6753143,304.2001,326.6515,355.7918
7,0.3555556,-0.478581,-0.3675483,-0.5556933,-1.36199,3.623635,-2.943247,-1.255882,1.085271,0,0,11.12415,12.61975,-0.2355081,-0.0640679,0.2685831,-0.5344841,3.750207,-0.212443,-0.07876775,-0.003401365,-0.1236959,-0.9305639,1.815168,-0.08347785,0.1522298,1.121087,0.676535,304.3841,326.3303,355.93
7,0.3666667,-0.5478783,-0.3724796,-0.6002847,-1.352789,3.626471,-2.935299,-1.261758,-0.54647,0,0,11.16325,12.94233,-0.2511488,-0.06203052,0.3081436,-0.5293661,3.750998,-0.2097327,-0.07795025,-0.0247389,-0.1428514,-0.9329005,1.813437,-0.08174493,0.1513518,1.121503,0.6792272,305.1438,325.2388,356.3706
7,0.3777778,-0.6118262,-0.3717141,-0.6151167,-1.344576,3.629026,-2.926364,-1.263435,-0.1468958,0,0,11.19257,13.35288,-0.2785999,-0.06525746,0.3381949,-0.524329,3.751347,-0.2058594,-0.08698416,-0.03114046,-0.2034941,-0.9374412,1.812174,-0.0798935,0.1492326,1.122216,0.6842512,304.0745,322.6417,358.3602
7,0.3888889,-0.7302122,-0.3393574,-0.6526207,-1.335374,3.62937,-2.913467,-1.262498,0.08691058,0,0,11.20235,13.82209,-0.3038909,-0.09302479,0.3766762,-0.518437,3.749386,-0.1999935,-0.09772386,-0.01733873,-0.2268698,-0.9408171,1.812118,-0.07804287,0.1474794,1.124772,0.6886936,303.7903,321.5752,358.931
7,0.4,-0.8507271,-0.300716,-0.6976451,-1.325505,3.628874,-2.899121,-1.262095,0.03642706,0,0,11.20235,14.32063,-0.3258814,-0.1464114,0.4342248,-0.5109243,3.744878,-0.1917058,-0.1244321,0.01046014,-0.2554719,-0.9449252,1.813282,-0.07630223,0.1460466,1.128462,0.6928439,303.1231,320.3475,359.8802
7,0.4111111,-0.9637604,-0.2855379,-0.7466698,-1.314994,3.628913,-2.884097,-1.259392,0.2474837,0,0,11.20235,14.74096,-0.3404268,-0.1763584,0.4843339,-0.5032048,3.741455,-0.1845744,-0.1352482,0.01685654,-0.2809646,-0.9489205,1.813158,-0.07437463,0.1450595,1.1332,0.6965486,302.3739,319.024,1.004129
7,0.4222222,-1.05545,-0.2765981,-0.7860611,-1.304342,3.628904,-2.868911,-1.258843,0.0489458,0,0,11.19257,15.04399,-0.3706977,-0.1925048,0.5623139,-0.4934752,3.739394,-0.1774123,-0.1322985,0.004023239,-0.3044036,-0.9530841,1.812231,-0.0725453,0.1443118,1.138801,0.7004725,301.7101,317.6213,2.23483
7,0.4333333,-1.153541,-0.2688058,-0.8307569,-1.293082,3.628588,-2.85243,-1.259116,-0.02444552,0,0,11.16325,15.22972,-0.3905296,-0.2320493,0.61883,-0.4839875,3.734177,-0.1679184,-0.1422848,-0.03539431,-0.329839,-0.9575353,1.809303,-0.06885603,0.1436264,1.145145,0.7050949,300.976,316.0374,3.768869
7,0.4444444,-1.207954,-0.2479498,-0.8596873,-1.282182,3.627307,-2.836535,-1.260079,-0.08706435,0,0,11.12415,15.31769,-0.3935538,-0.2939404,0.6527617,-0.4746403,3.724908,-0.1554061,-0.1456325,-0.04711179,-0.3415133,-0.9617037,1.807743,-0.06614386,0.1429416,1.152086,0.7103854,300.0614,314.2711,5.660277
7,0.4555556,-1.301841,-0.2081354,-0.9005027,-1.270794,3.624258,-2.817469,-1.259992,0.00947753,0,0,11.06549,15.30792,-0.4019824,-0.327004,0.6719106,-0.4657032,3.716775,-0.1433422,-0.1532933,-0.06201467,-0.3584784,-0.9662593,1.805836,-0.06308682,0.1422321,1.159461,0.7160504,299.0117,312.3698,7.843978
7,0.4666667,-1.402156,-0.1598385,-0.9435427,-1.259048,3.620241,-2.796677,-1.261766,-0.1616796,0,0,10.98729,15.23949,-0.4295588,-0.3547097,0.6923048,-0.4565356,3.708236,-0.1298605,-0.1479545,-0.07482013,-0.349986,-0.9698002,1.803864,-0.06068199,0.1414424,1.167079,0.7218185,297.9594,310.3112,10.23512
7,0.4777778,-1.500287,-0.115572,-0.9673566,-1.248213,3.615566,-2.774903,-1.260211,0.1442475,0,0,10.86999,15.10264,-0.4626842,-0.3695297,0.6840177,-0.4487522,3.699683,-0.1157247,-0.135264,-0.09299523,-0.3500532,-0.9735255,1.801489,-0.05838448,0.1406302,1.174776,0.7274276,296.9528,308.0835,12.70342
7,0.4888889,-1.594145,-0.0776858,-0.9911019,-1.237306,3.610271,-2.751959,-1.259552,0.05960192,0,0,10.69404,14.89736,-0.4882708,-0.3822696,0.684196,-0.4407265,3.690543,-0.1011977,-0.1330846,-0.1015138,-0.3372718,-0.9766722,1.799441,-0.05575461,0.1397217,1.182483,0.7330489,296.1624,305.7987,15.13858
7,0.5,-1.680529,-0.05273894,-1.028561,-1.225626,3.604869,-2.72878,-1.259783,-0.02085158,0,0,10.47898,14.64321,-0.5085322,-0.3928758,0.6843363,-0.432696,3.681145,-0.08628748,-0.1382201,-0.1120931,-0.3052595,-0.9787266,1.797316,-0.0528515,0.1387131,1.190304,0.7387336,295.5684,303.4706,17.57369
7,0.5111111,-1.735962,-0.05639817,-1.058266,-1.213601,3.600069,-2.705866,-1.25992,-0.01153925,0,0,10.24438,14.37928,-0.5148566,-0.400355,0.6950228,-0.4241718,3.671278,-0.07132931,-0.1393319,-0.117421,-0.3073823,-0.9822803,1.79525,-0.05004213,0.1375959,1.198429,0.7444983,295.083,301.2069,19.94892
7,0.5222223,-1.819142,-0.03996401,-1.095623,-1.20135,3.593705,-2.680331,-1.260769,-0.07680544,0,0,10.00978,14.18377,-0.5125366,-0.4100216,0.7184035,-0.4150654,3.660581,-0.05615914,-0.1363144,-0.1164096,-0.3319072,-0.9868562,1.793427,-0.04766819,0.136358,1.207037,0.7503098,294.6346,298.8328,22.47773
7,0.5333334,-1.8949,-0.008620322,-1.135298,-1.189194,3.585639,-2.65337,-1.261873,-0.09971253,0,0,9.784947,14.08602,-0.5159137,-0.4195455,0.6992275,-0.4078402,3.648748,-0.03945446,-0.1331315,-0.1334629,-0.3223213,-0.990077,1.790598,-0.04475256,0.1350214,1.21623,0.7560081,294.1466,296.0389,25.46743
7,0.5444446,-1.937603,0.01545808,-1.164282,-1.177444,3.577302,-2.627222,-1.260804,0.09905267,0,0,9.560118,14.07625,-0.56159,-0.4152342,0.7102873,-0.3994715,3.638066,-0.02184644,-0.1276925,-0.1398531,-0.3031787,-0.992575,1.78833,-0.04229686,0.1335957,1.225952,0.7614721,293.5676,292.7067,28.9699
7,0.5555557,-2.015534,0.06591931,-1.207366,-1.165841,3.566723,-2.598092,-1.260809,-0.0006457159,0,0,9.354838,14.16422,-0.6217026,-0.3790696,0.7737604,-0.3882686,3.63166,-0.006491988,-0.1266271,-0.1537006,-0.2935798,-0.9953368,1.785425,-0.03932157,0.1319785,1.236209,0.7669713,293.0588,289.1343,32.62349
7,0.5666668,-2.046497,0.08600793,-1.219304,-1.154651,3.556898,-2.570558,-1.262664,-0.1688374,0,0,9.188662,14.35973,-0.6689423,-0.3898708,0.859364,-0.3753534,3.618782,0.01468068,-0.1223117,-0.1686148,-0.276549,-0.9977256,1.782355,-0.0364664,0.1302268,1.247091,0.772592,292.6351,285.3525,36.44864
7,0.577778,-2.100982,0.1485233,-1.239132,-1.144754,3.544361,-2.540218,-1.261606,0.09872048,0,0,9.081134,14.61388,-0.6989675,-0.4018307,0.9650536,-0.360689,3.604272,0.03716814,-0.1191936,-0.1707781,-0.2861594,-1.001171,1.779865,-0.0339854,0.1285123,1.258545,0.7781574,292.2102,281.2175,40.6807
7,0.5888891,-2.140512,0.1962816,-1.251386,-1.135296,3.531631,-2.510195,-1.263573,-0.180298,0,0,9.022484,14.92669,-0.7165471,-0.4062601,1.02804,-0.3474413,3.588988,0.05981087,-0.1214496,-0.1761197,-0.2989222,-1.004944,1.777119,-0.03107403,0.1268855,1.270584,0.783642,291.8951,277.0703,45.03622
7,0.6000003,-2.201425,0.2738417,-1.263951,-1.126901,3.516056,-2.476476,-1.262837,0.06929676,0,0,9.022484,15.26882,-0.7321591,-0.4394004,1.079209,-0.3339151,3.567377,0.08889818,-0.137171,-0.1536417,-0.2807253,-1.007277,1.776032,-0.02839382,0.1255156,1.283088,0.7886677,291.6317,272.5669,49.81746
7,0.6111114,-2.254829,0.3472989,-1.259405,-1.120302,3.500258,-2.442355,-1.23757,2.310004,0,0,9.051809,15.54252,-0.7651936,-0.4329293,1.076317,-0.3226175,3.549462,0.1157231,-0.1455593,-0.1312277,-0.2785632,-1.010259,1.775253,-0.02604545,0.1239889,1.296227,0.7945257,291.7763,267.9397,54.375
7,0.6222225,-2.290049,0.3910774,-1.244949,-1.114231,3.485292,-2.408984,-1.287877,-4.618432,0,0,9.100685,15.75758,-0.8071493,-0.4113765,1.022401,-0.3140538,3.533708,0.1412573,-0.1632673,-0.07678208,-0.2625268,-1.012608,1.776808,-0.02435674,0.1220565,1.311711,0.8021814,292.4794,265.6487,56.8987
7,0.6333337,-2.30391,0.3995869,-1.243963,-1.107355,3.471196,-2.376754,-1.266449,2.00107,0,0,9.169111,15.94331,-0.8296744,-0.376096,0.9981844,-0.3045543,3.519567,0.1649751,-0.164079,-0.0575751,-0.2423113,-1.014546,1.776773,-0.02252262,0.1224505,1.326586,0.8051042,291.4287,257.5025,66.17645
7,0.6444448,-2.31241,0.3975235,-1.236469,-1.100777,3.457268,-2.344543,-1.263444,0.252691,0,0,9.237537,16.10948,-0.807025,-0.2898974,1.011023,-0.2929264,3.513154,0.1792888,-0.1638321,-0.03837207,-0.2231711,-1.016332,1.777097,-0.02092126,0.1228346,1.34055,0.8075975,290.9271,250.2253,74.32168
7,0.655556,-2.302802,0.4031172,-1.215241,-1.095471,3.443225,-2.312821,-1.26469,-0.1140263,0,0,9.315739,16.26588,-0.7804098,-0.2718233,1.00446,-0.2826115,3.497895,0.2015906,-0.1670255,-0.04261895,-0.2199513,-1.018765,1.77608,-0.01838433,0.1225878,1.353942,0.8107072,291.3134,244.9668,80.04175
7,0.6666671,-2.276146,0.4194004,-1.193114,-1.091146,3.428966,-2.282477,-1.265297,-0.05406167,0,0,9.374389,16.44184,-0.7826148,-0.2749894,0.9970114,-0.2729399,3.477587,0.2299142,-0.1767045,-0.05323011,-0.2241256,-1.021472,1.774793,-0.01530998,0.1217661,1.366893,0.8143346,291.9971,241.2937,84.00964
7,0.6777782,-2.235649,0.442201,-1.162553,-1.087948,3.414554,-2.252669,-1.266288,-0.09010176,0,0,9.423265,16.55914,-0.8025621,-0.2857119,1.034434,-0.2611741,3.452191,0.2641587,-0.1820521,-0.0510786,-0.2283495,-1.024196,1.774168,-0.01272325,0.1205214,1.379558,0.8180696,292.6903,238.6218,86.9697
7,0.6888894,-2.181308,0.4770443,-1.107641,-1.086713,3.400625,-2.223882,-1.268123,-0.1667468,0,0,9.481916,16.59824,-0.8225015,-0.2996333,1.072913,-0.249167,3.422058,0.3032784,-0.1904121,-0.02866753,-0.2230021,-1.026568,1.774704,-0.01062521,0.1190622,1.392022,0.8214799,293.351,236.1589,89.70656
7,0.7000005,-2.142148,0.5125635,-1.063632,-1.086325,3.386528,-2.194982,-1.268992,-0.07800633,0,0,9.540568,16.54936,-0.8318833,-0.2720325,1.087997,-0.2377894,3.396978,0.3370688,-0.2083762,-0.009391293,-0.2165078,-1.028821,1.775429,-0.007950601,0.1175915,1.404283,0.8242429,294.0346,233.5399,92.56238
7,0.7111117,-2.087606,0.5754887,-1.003524,-1.088178,3.371597,-2.166734,-1.269771,-0.07076885,0,0,9.599218,16.43206,-0.8420441,-0.280682,1.148796,-0.2246302,3.359904,0.3830211,-0.2315005,0.008882418,-0.1875948,-1.029779,1.776402,-0.004958806,0.1161557,1.416391,0.8264474,294.7488,230.7582,95.51654
7,0.7222228,-2.088753,0.6763077,-0.9439832,-1.093045,3.356677,-2.136741,-1.26964,0.01245711,0,0,9.667644,16.20723,-0.8630924,-0.2445389,1.169326,-0.2124121,3.327802,0.4246773,-0.2408358,0.01429476,-0.1576999,-1.030305,1.776694,-0.002073271,0.1147999,1.42837,0.8282143,295.4642,227.8976,98.51286
7,0.7333339,-2.097337,0.7537441,-0.879886,-1.09912,3.342721,-2.106765,-1.27041,-0.07077969,0,0,9.745846,16.00196,-0.9261416,-0.1920645,1.108198,-0.2028748,3.300035,0.4635442,-0.2309329,0.02282186,-0.1226323,-1.030207,1.77739,-0.0003688478,0.1136055,1.440256,0.829652,296.1987,225.2794,101.2125
7,0.7444451,-2.093161,0.8560963,-0.7873024,-1.108566,3.329831,-2.078085,-1.268494,0.1756333,0,0,9.833823,15.8651,-0.9521897,-0.1386937,1.068093,-0.1947149,3.283002,0.4928227,-0.2337919,0.03672494,-0.08747724,-1.029872,1.778272,0.001819472,0.1127611,1.452139,0.8308216,296.9217,222.7547,103.8245
7,0.7555562,-2.051544,0.8849158,-0.6982057,-1.116463,3.319653,-2.052461,-1.267679,0.07303099,0,0,9.912024,15.79668,-0.9256587,-0.01504624,1.026699,-0.1839467,3.281169,0.5040629,-0.245196,0.05387425,-0.05758727,-1.029261,1.779795,0.004235758,0.1121633,1.46414,0.8320226,297.5428,220.0589,106.8132
7,0.7666674,-1.977799,0.8541593,-0.6138816,-1.121736,3.311551,-2.030308,-1.268317,-0.05878284,0,0,9.990225,15.88465,-0.8863291,0.03181291,1.005204,-0.1739896,3.264645,0.5284822,-0.2410265,0.05703104,-0.07254362,-1.030778,1.780692,0.006215286,0.1117885,1.476294,0.8331617,298.0834,217.4803,109.804
7,0.7777785,-1.885942,0.79231,-0.5419284,-1.125909,3.305296,-2.010517,-1.270084,-0.1608853,0,0,10.04888,16.11926,-0.83463,0.03187633,0.9472438,-0.1668758,3.237777,0.5619763,-0.238016,0.06123219,-0.1002695,-1.032936,1.781607,0.008176703,0.1116829,1.488446,0.8339578,298.5649,214.7931,113.0066
7,0.7888896,-1.828292,0.7576348,-0.5107119,-1.13048,3.297655,-1.989496,-1.272493,-0.2192823,0,0,10.10753,16.49072,-0.8114951,0.02981532,0.9161526,-0.1589817,3.208278,0.5994445,-0.2380835,0.06440455,-0.11093,-1.03456,1.782473,0.01043373,0.1116643,1.500359,0.8342943,299.1523,212.1943,116.1712
7,0.8000008,-1.759935,0.7060394,-0.4697231,-1.134341,3.291559,-1.970551,-1.273752,-0.1137722,0,0,10.1564,16.97947,-0.8215224,0.001235962,0.8692901,-0.1533438,3.174089,0.6425654,-0.2348265,0.076113,-0.1109743,-1.035707,1.784063,0.01203509,0.1115975,1.5117,0.834091,299.9442,209.737,119.1529
7,0.8111119,-1.706548,0.6703708,-0.4310257,-1.138662,3.285768,-1.951397,-1.272572,0.1082151,0,0,10.21505,17.54643,-0.8418413,-0.0166893,0.8630627,-0.1461564,3.13231,0.6943223,-0.2251976,0.08991055,-0.1153284,-1.037115,1.785934,0.01316161,0.1111479,1.522105,0.8335903,300.924,207.1989,122.1777
7,0.8222231,-1.644684,0.6700817,-0.3746406,-1.144886,3.280692,-1.933438,-1.273191,-0.0580155,0,0,10.27371,18.06452,-0.8295215,-0.05491936,0.8181053,-0.1420807,3.087668,0.7471453,-0.2177026,0.09094821,-0.1111286,-1.038198,1.787195,0.0146141,0.1102057,1.531485,0.8330997,301.9138,205.093,124.5118
7,0.8333342,-1.574356,0.7115387,-0.3027721,-1.153576,3.276237,-1.916785,-1.272319,0.07982906,0,0,10.33236,18.63148,-0.8065761,-0.1101201,0.772002,-0.1392498,3.037187,0.8053149,-0.2197626,0.09203732,-0.1025906,-1.038964,1.788391,0.01650361,0.1087904,1.53972,0.8326661,302.7901,203.4751,126.1885
7,0.8444453,-1.5232,0.7367449,-0.2509309,-1.162021,3.271764,-1.899855,-1.272511,-0.01860722,0,0,10.40078,19.26686,-0.7692462,-0.1294,0.7833347,-0.1346302,2.977326,0.8717586,-0.2342305,0.1283943,-0.06844213,-1.038282,1.791882,0.01792574,0.1069289,1.547008,0.8324398,303.4431,202.3728,127.1714
7,0.8555565,-1.138181,0.5377315,-0.2054491,-1.160349,3.271943,-1.903076,-1.272992,-0.04411103,0,0,10.47898,19.9609,-0.7258438,-0.142166,0.7531126,-0.1316395,2.925625,0.9293349,-0.2435112,0.1583017,-0.04817484,-1.037927,1.795327,0.01926318,0.104801,1.553647,0.8324235,303.8607,201.5484,127.7177
7,0.8666676,-0.968666,0.4134273,-0.2958538,-1.157191,3.264647,-1.89554,-1.272163,0.07570216,0,0,10.53763,20.71359,-0.7071423,-0.1580703,0.7017577,-0.1303058,2.878818,0.9829131,-0.2509018,0.175379,-0.0502777,-1.038643,1.798197,0.02089836,0.10264,1.560005,0.8326466,304.1335,200.7939,128.1202
7,0.8777788,-0.9376138,0.3563739,-0.260074,-1.15828,3.262656,-1.885615,-1.289247,-1.563473,0,0,10.60606,21.5347,-0.7222232,-0.1899632,0.6900734,-0.1294243,2.818023,1.051753,-0.2433949,0.1913133,-0.05461951,-1.039357,1.801393,0.02167307,0.1004741,1.566437,0.8331483,304.4092,200.1157,128.7191
7,0.8888899,-0.8864467,0.3750353,-0.2230747,-1.163135,3.259924,-1.876568,-1.281579,0.7132557,0,0,10.62561,22.15054,-0.7426718,-0.2122593,0.6741674,-0.1292272,2.758606,1.119911,-0.247688,0.2243147,-0.08126982,-1.041264,1.805748,0.02235218,0.09829377,1.571805,0.8339329,305.4712,198.9516,130.1245
7,0.900001,-0.840533,0.3424727,-0.1907958,-1.165206,3.258332,-1.868479,-1.274057,0.6788337,0,0,10.60606,22.49267,-0.7164044,-0.2057918,0.6292202,-0.1289678,2.716097,1.168916,-0.2488338,0.2349496,-0.09938303,-1.042951,1.809299,0.02334527,0.09603396,1.575807,0.8354224,306.2998,198.5916,130.6301
7,0.9111122,-0.8149716,0.3630671,-0.1654857,-1.169943,3.255601,-1.859254,-1.273021,0.08849455,0,0,10.53763,22.55132,-0.6667284,-0.1736119,0.5768008,-0.1267271,2.682534,1.207996,-0.2518576,0.246705,-0.08446351,-1.043273,1.812895,0.02447232,0.09393079,1.578746,0.8372983,306.2523,198.7769,130.2881
7,0.9222233,-0.7882298,0.3315178,-0.1353306,-1.172163,3.254337,-1.851011,-1.272103,0.08258321,0,0,10.43988,22.27761,-0.5921811,-0.1076762,0.5571646,-0.1234785,2.646598,1.247099,-0.2505643,0.253122,-0.05892219,-1.042898,1.816317,0.02544091,0.09228043,1.580864,0.8390253,305.8144,199.1395,129.8211
7,0.9333345,-0.7690108,0.3157971,-0.1159609,-1.175191,3.253063,-1.842677,-1.269841,0.2049168,0,0,10.33236,21.86706,-0.5433787,-0.0128476,0.5080037,-0.1192074,2.627808,1.269832,-0.2387956,0.2296584,-0.03660448,-1.04235,1.818118,0.02668248,0.09088989,1.582804,0.8407116,305.4431,199.6061,129.3698
7,0.9444456,-0.7019359,0.3239318,-0.06715184,-1.179343,3.252719,-1.836307,-1.268491,0.1205033,0,0,10.2346,21.39785,-0.5146471,0.01908374,0.4950629,-0.1166315,2.589742,1.312323,-0.2250343,0.2008312,-0.02813702,-1.04228,1.819272,0.02808463,0.089761,1.585058,0.842288,305.1681,199.9617,129.0557
7,0.9555568,-0.6081995,0.3673669,-0.01238298,-1.185499,3.253137,-1.833412,-1.266729,0.1588605,0,0,10.1564,20.86999,-0.4817956,-0.009714603,0.4819183,-0.1166827,2.547427,1.35839,-0.2187881,0.1645857,-0.02280275,-1.042318,1.819766,0.030029,0.08879934,1.58787,0.843715,305.1074,200.041,129.0183
7,0.9666679,-0.5376107,0.2611516,0.004656881,-1.183859,3.253862,-1.830788,-1.266385,0.02869705,0,0,10.08798,20.36168,-0.4600932,-0.006697834,0.5285933,-0.1154502,2.482895,1.426808,-0.2093516,0.1272464,-0.01749966,-1.042395,1.819673,0.03208071,0.08809011,1.59131,0.8449147,305.1799,199.787,129.2252
7,0.977779,-0.495039,0.264122,-0.02206573,-1.186429,3.251652,-1.826101,-1.267463,-0.1003929,0,0,10.0782,20.14663,-0.4719243,0.01148939,0.5106345,-0.1140227,2.440557,1.474607,-0.1943826,0.1154679,-0.002679734,-1.041818,1.820616,0.03316807,0.08772911,1.59504,0.8456558,305.2874,199.0079,130.0941
7,0.9888902,-0.4471218,0.2513178,-0.03586927,-1.188558,3.249034,-1.821501,-1.265298,0.1968084,0,0,10.09775,20.01955,-0.4976569,-0.02556992,0.5012426,-0.1144813,2.389809,1.532177,-0.1987484,0.1250456,-0.02290218,-1.042791,1.822708,0.03447542,0.08748446,1.598863,0.8461439,305.4996,197.8738,131.5542
7,1.000001,-0.4268006,0.2313692,-0.01010674,-1.190275,3.249984,-1.817952,-1.261477,0.3454714,0,0,10.13685,19.91203,-0.5183947,-0.04988939,0.4502039,-0.1160488,2.364252,1.564096,-0.2051431,0.1538038,-0.04314212,-1.04403,1.825959,0.03533855,0.08705287,1.602271,0.8464929,305.9568,197.0732,132.7803
7,1.011112,-0.4404359,0.141132,0.01972227,-1.188772,3.251953,-1.813317,-1.258721,0.2471227,0,0,10.18573,19.7654,-0.4918023,-0.06275719,0.452047,-0.1173996,2.321869,1.610793,-0.1975283,0.1676295,-0.0315013,-1.043819,1.828698,0.03587624,0.08636453,1.605266,0.8470424,306.4194,196.5464,133.4539
7,1.022224,-0.4637091,0.08177802,0.05027059,-1.187856,3.254245,-1.80807,-1.255597,0.2816677,0,0,10.20528,19.40372,-0.4610339,-0.09689075,0.4453013,-0.1200191,2.282295,1.653927,-0.1933037,0.155891,-0.02831382,-1.043848,1.830082,0.03717267,0.08562101,1.607724,0.8478482,306.7613,196.1519,133.7651
7,1.033335,-0.4923212,0.0386329,0.1040401,-1.186886,3.258162,-1.802784,-1.251278,0.3906679,0,0,10.21505,18.8563,-0.4315436,-0.1086136,0.4108849,-0.1222972,2.259616,1.68022,-0.1954803,0.1303449,-0.01760473,-1.043594,1.830464,0.03921904,0.08468562,1.609669,0.8490756,306.89,195.6694,134.2562
7,1.044446,-0.4986064,0.03943256,0.174373,-1.188682,3.263185,-1.7992,-1.247664,0.3253297,0,0,10.21505,18.13294,-0.4437388,-0.003964007,0.3260391,-0.1183754,2.256233,1.689042,-0.1877423,0.1292974,0.02069137,-1.041795,1.832007,0.0402678,0.08330508,1.610934,0.8505002,306.808,195.4926,134.6587
7,1.055557,-0.4783157,0.05952418,0.2560917,-1.190593,3.269427,-1.796969,-1.244315,0.3017833,0,0,10.21505,17.25318,-0.4430332,0.03560835,0.2718184,-0.1165943,2.244954,1.705141,-0.1703038,0.1346004,0.06848839,-1.039117,1.833812,0.04052506,0.08126947,1.611681,0.8519878,306.5768,195.5791,134.729
7,1.066668,-0.434583,0.0720509,0.3176914,-1.193277,3.275265,-1.796097,-1.242918,0.1234704,0,0,10.21505,16.28544,-0.4031043,0.04955333,0.2022668,-0.1156856,2.24916,1.703924,-0.1543881,0.1174773,0.07159126,-1.038206,1.834533,0.04128459,0.07854152,1.611997,0.8532218,306.2408,195.7158,134.5132
7,1.077779,-0.3791561,0.07578698,0.3601474,-1.19442,3.280913,-1.796038,-1.241226,0.1517429,0,0,10.2346,15.40567,-0.3590736,0.1196947,0.2244735,-0.1123225,2.212122,1.742997,-0.1385508,0.1077851,0.0597636,-1.038034,1.835431,0.04185557,0.07521455,1.612157,0.8541565,305.9267,195.6528,134.1431
7,1.08889,-0.3142051,0.09627244,0.3694279,-1.197308,3.285182,-1.796509,-1.239915,0.1165616,0,0,10.26393,14.69208,-0.3837576,0.1123449,0.2044154,-0.1116333,2.196885,1.763275,-0.1343649,0.09816918,0.05655152,-1.037468,1.836279,0.04280472,0.07147431,1.612269,0.8547261,305.6873,195.4404,133.7528
7,1.100002,-0.2831948,0.04627365,0.369976,-1.196844,3.289687,-1.796264,-1.237846,0.1859568,0,0,10.30303,14.174,-0.4276432,0.05920443,0.1939792,-0.1135151,2.184918,1.781682,-0.1250453,0.08422352,0.0298636,-1.03819,1.836631,0.04361672,0.06752445,1.61239,0.8550112,305.6097,195.1386,133.4091
7,1.111113,-0.303218,-0.0408847,0.3912486,-1.194561,3.296029,-1.794661,-1.235705,0.1918749,0,0,10.35191,13.82209,-0.4779871,-0.03975761,0.1909111,-0.1182854,2.174064,1.800021,-0.1147261,0.1021901,-0.02563933,-1.040568,1.838832,0.04346252,0.06354763,1.612542,0.8551694,305.652,194.8681,133.0288
7,1.122224,-0.3309904,0.002905518,0.4056844,-1.197242,3.300856,-1.791756,-1.231666,0.3652743,0,0,10.37146,13.60704,-0.5106867,-0.1258028,0.1238293,-0.1225597,2.193352,1.787343,-0.1178863,0.1447796,-0.04912219,-1.041824,1.842517,0.04309687,0.0597247,1.612854,0.8554888,305.7447,194.5751,132.7094
7,1.133335,-0.3235331,0.009537995,0.4236502,-1.198508,3.305441,-1.790457,-1.226417,0.4748544,0,0,10.40078,13.66569,-0.4828913,-0.09178054,0.1258242,-0.1225502,2.180267,1.804502,-0.1198499,0.1565277,-0.03527734,-1.041573,1.844876,0.04325293,0.0561179,1.613156,0.8560237,305.8455,194.2848,132.643
7,1.144446,-0.2946566,-0.01413864,0.4888926,-1.199462,3.313722,-1.791303,-1.222656,0.3381215,0,0,10.43011,14.0176,-0.4272431,-0.03441805,0.1404244,-0.1212985,2.161224,1.82603,-0.1122103,0.134178,0.004116189,-1.040079,1.84554,0.04386732,0.05249727,1.613457,0.8568082,305.8011,194.0352,132.6964
7,1.155557,-0.2615726,0.00272119,0.5589934,-1.202059,3.322911,-1.793175,-1.22169,0.08382468,0,0,10.46921,14.65298,-0.4101468,-0.02169341,0.1435142,-0.1216628,2.147097,1.843999,-0.09518813,0.08087234,0.03709182,-1.0386,1.844218,0.04498079,0.04889498,1.614084,0.8578649,305.5257,193.9187,132.4787
7,1.166668,-0.2234694,0.1231878,0.5586237,-1.208861,3.327845,-1.793747,-1.220123,0.1410984,0,0,10.51809,15.5132,-0.452764,-0.02373666,0.1427995,-0.1226119,2.137141,1.860335,-0.08560158,0.06485962,0.04769675,-1.037736,1.844339,0.04552115,0.04552322,1.614942,0.8589073,305.2487,193.8236,132.2611
7,1.17778,-0.2334092,0.2978777,0.5576361,-1.219237,3.331321,-1.792237,-1.218543,0.1418483,0,0,10.58651,16.44184,-0.4761483,-0.009834349,0.1451636,-0.1226625,2.123422,1.880005,-0.07810513,0.0658849,0.05189023,-1.037174,1.845133,0.04568467,0.04225363,1.615854,0.8598388,305.0107,193.2439,132.6697
7,1.188891,-0.2223444,0.5946341,0.5137021,-1.237309,3.331508,-1.789993,-1.216715,0.1644957,0,0,10.64516,17.21408,-0.5070834,-0.06199002,0.1527435,-0.1257502,2.114695,1.895211,-0.07812385,0.06587975,0.04869368,-1.036749,1.845999,0.0460647,0.03890499,1.616706,0.8606578,304.7664,192.4017,133.3448
7,1.200002,-0.208069,0.8921353,0.5293325,-1.257914,3.332525,-1.787845,-1.213322,0.3073704,0,0,10.70381,17.85924,-0.504815,-0.1047143,0.1824108,-0.1293604,2.09757,1.917848,-0.0952494,0.08404005,0.02535903,-1.037181,1.847847,0.04676511,0.03573504,1.617572,0.8613932,304.4742,191.8078,133.5188
7,1.211113,-0.1328469,1.100988,0.5161386,-1.278025,3.332907,-1.789141,-1.212028,0.1148496,0,0,10.74291,18.31867,-0.5145035,-0.08760566,0.1665602,-0.1301551,2.089088,1.932397,-0.1145635,0.106456,-0.008622854,-1.038393,1.850155,0.04747271,0.03315885,1.618905,0.8621462,304.0226,191.3716,133.3183
7,1.222224,-0.1225234,1.257339,0.4919382,-1.297661,3.33341,-1.788124,-1.210627,0.1264021,0,0,10.76246,18.47507,-0.5436082,-0.07891315,0.1231588,-0.1307431,2.091831,1.936633,-0.1305589,0.1363308,-0.03091937,-1.039363,1.853108,0.04797791,0.03179037,1.621083,0.8630208,303.5502,190.5065,133.5467
7,1.233335,-0.1152833,1.370136,0.4788845,-1.316956,3.334173,-1.787296,-1.213078,-0.2254749,0,0,10.78201,18.5044,-0.5593186,-0.1372345,0.04322907,-0.1333413,2.115219,1.920108,-0.1281598,0.1491413,-0.004320312,-1.038372,1.85536,0.04810388,0.03196795,1.624174,0.8640815,303.2047,188.8905,134.9318
7,1.244446,-0.1059724,1.502094,0.4645591,-1.338388,3.33425,-1.78642,-1.209956,0.2866739,0,0,10.80156,18.47507,-0.5539374,-0.1646451,-0.06984036,-0.1346798,2.153692,1.887939,-0.1215265,0.1555407,0.02331852,-1.037079,1.857457,0.04814329,0.03360591,1.6278,0.8655202,303.2293,186.603,137.5802
7,1.255558,-0.1188823,1.571103,0.4456507,-1.358534,3.334395,-1.784859,-1.208775,0.104702,0,0,10.83089,18.3871,-0.5163399,-0.1744389,-0.03076902,-0.1372071,2.151369,1.894689,-0.1338656,0.1822918,0.06384902,-1.03488,1.860625,0.04838671,0.03637243,1.631514,0.8673063,303.2456,184.1562,140.8644
7,1.266669,-0.1487046,1.559078,0.4245079,-1.37603,3.334744,-1.782219,-1.20808,0.06232408,0,0,10.86999,18.44575,-0.3577784,-0.1388497,0.0649453,-0.1390617,2.123363,1.920899,-0.1687516,0.2229628,0.07150726,-1.033668,1.865064,0.04913985,0.03982885,1.634998,0.8693823,303.2135,181.7643,144.2765
7,1.27778,-0.1942283,1.4103,0.3718869,-1.38641,3.334294,-1.778637,-1.206697,0.1253501,0,0,10.93842,18.70968,-0.2664969,-0.06430557,0.005807821,-0.1365403,2.132648,1.91149,-0.1804332,0.2272866,0.07372607,-1.032659,1.868038,0.05000964,0.04371024,1.637927,0.8715163,303.0626,179.4603,147.588
7,1.288891,-0.2163621,1.260347,0.3065362,-1.395349,3.333653,-1.775319,-1.204984,0.155311,0,0,10.99707,19.15934,-0.2542521,0.0499143,-0.08877642,-0.131011,2.153593,1.893357,-0.1654023,0.2187141,0.094928,-1.03083,1.870327,0.0501396,0.04756694,1.640392,0.8737398,302.8569,177.375,150.6623
7,1.300002,-0.2234627,1.051465,0.2109761,-1.399476,3.33185,-1.772552,-1.203757,0.1107584,0,0,11.04594,19.7654,-0.2707495,0.1012868,-0.1630554,-0.1269923,2.179747,1.871042,-0.1164506,0.1843978,0.1105913,-1.028958,1.871202,0.04919844,0.05101953,1.642374,0.8758211,302.5984,175.7572,153.2334
7,1.311113,-0.203025,0.9283692,0.1580636,-1.405041,3.330469,-1.770786,-1.203792,-0.00414062,0,0,11.06549,20.47898,-0.2429545,0.09692937,-0.150518,-0.1257369,2.187118,1.865425,-0.10171,0.163003,0.1019901,-1.028085,1.872343,0.04918965,0.05363805,1.644096,0.877636,302.3739,174.8822,154.9446
7,1.322224,-0.1429971,0.7283629,0.08041489,-1.40604,3.328023,-1.771353,-1.20444,-0.05918917,0,0,11.04594,21.11437,-0.1324815,0.1049596,-0.06618991,-0.1254461,2.163014,1.8863,-0.1083919,0.1406246,0.07863484,-1.028206,1.873153,0.05034946,0.055262,1.645551,0.8790217,302.3381,174.3468,156.0244
7,1.333336,-0.1066658,0.6533406,0.03652246,-1.410419,3.326009,-1.771127,-1.205247,-0.07335953,0,0,10.97752,21.46628,-0.01957357,0.09583009,0.06067176,-0.1262445,2.123137,1.922222,-0.1164889,0.09263988,0.02550373,-1.030061,1.872258,0.05243152,0.05588942,1.646728,0.879969,302.4482,174.1595,156.3916
7,1.344447,-0.08740449,0.6072505,0.009349195,-1.415768,3.324256,-1.770605,-1.207513,-0.2068322,0,0,10.86022,21.4565,0.0009393096,0.09355927,0.09245498,-0.1261673,2.104429,1.940003,-0.100657,0.06910484,0.02115707,-1.029923,1.872049,0.0530057,0.05578424,1.647534,0.8804077,302.5291,174.1023,156.2857
7,1.355558,-0.06387073,0.5568454,-0.02202204,-1.420041,3.322403,-1.77076,-1.206187,0.1222031,0,0,10.71359,21.12415,-0.01509737,0.07868651,0.08934592,-0.1260192,2.099717,1.945556,-0.08454355,0.0754355,0.03487141,-1.028988,1.873303,0.05273938,0.05530541,1.647771,0.8803622,302.6877,174.3685,155.6386
7,1.366669,-0.04457036,0.4809312,-0.04884889,-1.422474,3.320389,-1.770607,-1.204774,0.1272568,0,0,10.52786,20.48876,-0.02906029,0.04997133,0.08298726,-0.1267388,2.095748,1.950327,-0.06213006,0.06681493,0.04643382,-1.028047,1.873793,0.05246454,0.05471276,1.64777,0.8803329,302.866,174.4007,155.1084
7,1.37778,-0.03270751,0.4114793,-0.06832098,-1.424058,3.318064,-1.770441,-1.204314,0.04013103,0,0,10.35191,19.58944,-0.01871054,0.06497814,0.04352663,-0.1252293,2.0988,1.947127,-0.04633844,0.03476131,0.04316431,-1.027826,1.872714,0.0530057,0.05426216,1.647706,0.8806785,303.0397,174.1976,154.8791
7,1.388891,-0.01334375,0.2833288,-0.1009463,-1.422653,3.315595,-1.769897,-1.202855,0.1321795,0,0,10.20528,18.45552,0.03140809,0.1000453,0.04001202,-0.1229976,2.087786,1.95599,-0.01883252,-0.005861584,0.04514927,-1.027375,1.870779,0.05321768,0.05414119,1.647511,0.8814595,303.1059,174.0644,154.8079
7,1.400002,0.01766375,0.218024,-0.1332263,-1.422775,3.313004,-1.77085,-1.201488,0.1227206,0,0,10.09775,17.1261,0.06733333,0.0531596,0.01506543,-0.1238189,2.097097,1.944596,0.002367824,-0.03579395,0.05142394,-1.026665,1.869063,0.05341129,0.05438489,1.647241,0.8826755,302.9694,174.1555,154.746
7,1.411114,0.03053161,0.1774517,-0.1423389,-1.423198,3.311175,-1.771568,-1.199701,0.1614137,0,0,10.02933,15.6696,0.1245791,-0.01935013,-0.0005474775,-0.1260756,2.109777,1.928684,0.005336151,-0.05182111,0.03224995,-1.027035,1.867783,0.05395351,0.05503774,1.646839,0.8841354,302.7299,174.4195,154.6768
7,1.422225,0.05828239,0.148733,-0.1430848,-1.423602,3.309444,-1.772904,-1.199636,0.003413449,0,0,10.00978,14.34018,0.1382909,-0.03852177,-0.01350475,-0.1269987,2.116412,1.919934,-0.001163492,-0.04862024,0.01524804,-1.027521,1.8673,0.05436817,0.05606393,1.646127,0.8855937,302.5609,174.774,154.631
7,1.433336,0.08918402,0.1520523,-0.1367419,-1.425146,3.308024,-1.774943,-1.197787,0.1679792,0,0,10.01955,13.18671,0.1179938,-0.04272671,-0.01866518,-0.1273135,2.119863,1.916052,-0.007544074,-0.05496774,0.02169805,-1.027029,1.866336,0.05524515,0.05728303,1.645333,0.8873067,302.5065,174.8599,154.8656
7,1.444447,0.09130511,0.1606823,-0.1283199,-1.427039,3.306425,-1.775795,-1.196563,0.1090771,0,0,10.06843,12.21896,0.0736885,0.004115589,0.02233401,-0.1265779,2.102745,1.933865,-0.01277551,-0.05279391,0.03238804,-1.026289,1.865669,0.05585741,0.05851005,1.644527,0.8892745,302.2939,174.7318,155.3753
7,1.455558,0.09555366,0.1757471,-0.1157096,-1.429234,3.30516,-1.776898,-1.195409,0.1033447,0,0,10.13685,11.43695,0.08569705,0.07755294,0.03842729,-0.123756,2.085929,1.949096,-0.003111336,-0.04219376,0.03443336,-1.025805,1.865433,0.05556952,0.05962184,1.643635,0.8912706,301.9369,174.6569,155.8757
7,1.466669,0.09235039,0.1931906,-0.08181777,-1.432085,3.304872,-1.77779,-1.192392,0.273666,0,0,10.22483,10.80156,0.09199696,0.1543247,0.007701993,-0.1194044,2.080609,1.952953,-0.002110414,-0.04966142,0.03017512,-1.025696,1.86452,0.05595914,0.06051913,1.642652,0.8932182,301.5945,174.5722,156.322
7,1.47778,0.08914641,0.2114887,-0.06498019,-1.434912,3.304188,-1.778766,-1.190554,0.1642721,0,0,10.30303,10.30303,0.06636974,0.1565275,0.0004640222,-0.117872,2.078041,1.955719,0.006441459,-0.05821311,0.03971047,-1.024986,1.863328,0.05622492,0.06115923,1.641669,0.8950895,301.253,174.5023,156.6405
7,1.488891,0.07089487,0.2958673,-0.04357497,-1.441033,3.303192,-1.778819,-1.188353,0.1987749,0,0,10.35191,10,0.05849519,0.1204422,-0.04005859,-0.1171109,2.092383,1.94112,0.01179744,-0.05397746,0.04072881,-1.024496,1.862778,0.05617033,0.06154053,1.640744,0.8968474,300.9547,174.3942,156.8927
7,1.500003,0.06549537,0.3557425,-0.02512133,-1.44666,3.301782,-1.779358,-1.186581,0.1590762,0,0,10.38123,9.892473,0.04505102,0.05672729,-0.1019156,-0.1176521,2.12361,1.910128,0.004290815,-0.04649676,0.0301258,-1.024526,1.862549,0.05663292,0.06169553,1.639878,0.8984107,300.664,174.1854,157.1743
7,1.511114,0.06225857,0.3878368,-0.01270432,-1.451789,3.301021,-1.780053,-1.184103,0.2242794,0,0,10.40078,9.951125,0.06211541,0.03855868,-0.09465601,-0.1174779,2.129434,1.903158,0.0001456589,-0.0283559,0.03332975,-1.023953,1.862953,0.05655196,0.06169408,1.639057,0.8997248,300.4348,173.9781,157.3919
7,1.522225,0.05686548,0.4339374,0.0123316,-1.45838,3.300652,-1.780479,-1.183191,0.08076717,0,0,10.40078,10.10753,0.09329425,0.03306333,-0.05978171,-0.1175434,2.124506,1.9059,-0.002923366,-0.02299032,0.04612849,-1.023018,1.862843,0.05666541,0.06172369,1.63842,0.9008609,300.1913,173.6514,157.5981
7,1.533336,0.04615718,0.4480141,0.0313421,-1.46413,3.300314,-1.779955,-1.182168,0.09228341,0,0,10.38123,10.35191,0.07399061,0.06620575,-0.08295991,-0.1149889,2.133353,1.897032,0.0003129095,-0.03363941,0.05890519,-1.021998,1.861931,0.05707181,0.06194506,1.63812,0.9018819,300.0015,173.3477,157.814
7,1.544447,0.01096106,0.4791195,0.05444617,-1.470823,3.300427,-1.778903,-1.180862,0.1180788,0,0,10.34213,10.69404,-0.03160247,0.1069832,-0.1085837,-0.1117755,2.144507,1.889858,0.013162,-0.04433181,0.07480379,-1.020696,1.860836,0.05704411,0.06237082,1.638076,0.9028383,299.993,172.8716,158.3412
7,1.555558,-0.002919823,0.4972277,0.05637432,-1.476971,3.299849,-1.778332,-1.179056,0.1636579,0,0,10.27371,11.12415,-0.065906,0.0847397,-0.1275294,-0.11109,2.15993,1.876383,0.02194615,-0.03899524,0.1066868,-1.018463,1.860479,0.05672853,0.06301611,1.638111,0.9036598,300.0623,172.186,159.1541
7,1.566669,-0.0157465,0.5173504,0.04762705,-1.483341,3.298677,-1.777654,-1.177766,0.1162672,0,0,10.18573,11.6129,-0.09844754,0.03809423,-0.1849205,-0.1112669,2.19826,1.840356,-0.002425455,-0.01968876,0.1111033,-1.017042,1.860878,0.05740603,0.06381911,1.638108,0.9043331,300.1546,171.4491,160.0868
7,1.577781,-0.02437225,0.5595142,0.009852841,-1.490594,3.295933,-1.776906,-1.177803,-0.004538324,0,0,10.08798,12.09189,-0.1230039,0.02536383,-0.1879442,-0.110861,2.215795,1.825048,-0.01181136,0.02615467,0.1068405,-1.015991,1.862906,0.05679378,0.06460501,1.638315,0.9050414,300.1862,170.6773,161.1162
7,1.588892,-0.03618157,0.608343,-0.00349199,-1.498629,3.293871,-1.776091,-1.177426,0.03430322,0,0,9.970675,12.62952,-0.1373966,0.08491298,-0.1407723,-0.1079555,2.207383,1.835453,0.01517384,0.1303726,0.08303442,-1.015681,1.868723,0.05261954,0.06532316,1.638664,0.9057575,300.2625,170.0571,161.9777
7,1.600003,-0.0479477,0.6382725,0.006818924,-1.506574,3.292623,-1.775113,-1.177132,0.02634928,0,0,9.833823,13.24536,-0.1379928,0.160449,-0.1043195,-0.1037536,2.194401,1.84975,0.1069842,0.1980533,0.06199614,-1.015528,1.874061,0.04534911,0.06600261,1.639168,0.9065713,300.3843,169.5714,162.6045
7,1.611114,-0.0479477,0.6382725,0.006818924,-1.506574,3.292623,-1.775113,-1.175829,0.1188053,0,0,9.687196,13.93939,-0.1379928,0.160449,-0.1043195,-0.1037536,2.194401,1.84975,0.1069842,0.1980533,0.06199614,-1.015528,1.874061,0.04534911,0.06673767,1.64005,0.907862,300.6621,168.9731,163.2616
7,1.622225,-0.0607062,0.6484344,0.05786744,-1.521451,3.292591,-1.773607,-1.177062,-0.1136601,0,0,9.530792,14.68231,-0.1548127,0.2744846,-0.1059706,-0.09382369,2.191267,1.856812,0.1131584,0.169239,0.05240386,-1.014531,1.877135,0.04091947,0.06767103,1.641341,0.9098222,300.8899,167.8357,164.5592
7,1.633336,-0.06381482,0.6310868,0.1241315,-1.528363,3.295085,-1.773077,-1.17638,0.06324776,0,0,9.384165,15.4741,-0.1537903,0.3096777,-0.1197251,-0.08859804,2.195591,1.854162,0.04346893,0.1716278,-0.007796686,-1.01689,1.879494,0.04211736,0.06870142,1.641942,0.9112437,300.8413,167.3945,165.4484
7,1.644447,-0.05627501,0.5984567,0.1564738,-1.534382,3.296828,-1.772843,-1.17589,0.04399619,0,0,9.247313,16.39296,-0.1455612,0.2553934,-0.141257,-0.0874172,2.219815,1.831278,0.03554694,0.1768904,-0.0737898,-1.020107,1.882378,0.04038098,0.06955916,1.64237,0.9125152,300.7709,166.7461,166.4945
7,1.655559,-0.05515587,0.5814561,0.1609604,-1.540568,3.297786,-1.772639,-1.175929,-0.003980834,0,0,9.120235,17.44868,-0.1368949,0.1679091,-0.1021711,-0.08880896,2.219625,1.832743,0.07033373,0.07448021,-0.05365172,-1.019972,1.878838,0.04003344,0.07011026,1.642815,0.9136624,300.6888,165.7415,167.8111
7,1.66667,-0.06788665,0.5504705,0.1549415,-1.545832,3.298265,-1.771434,-1.176163,-0.02135015,0,0,9.012708,18.61193,-0.1422469,0.06772013,-0.08111037,-0.09155415,2.22802,1.826062,0.06721025,-0.0691511,0.0531275,-1.015664,1.871394,0.04324388,0.07017139,1.64332,0.9145652,300.6051,164.6963,169.1094
7,1.677781,-0.08380204,0.5171928,0.1361913,-1.550514,3.29844,-1.770169,-1.176117,0.004302471,0,0,8.924732,19.8045,-0.1721061,-0.01216413,-0.06404484,-0.09447671,2.237297,1.820015,0.02935824,-0.1071636,0.1450936,-1.010665,1.868292,0.04607988,0.06970528,1.643838,0.9151554,300.6104,164.0063,169.8825
7,1.688892,-0.1038039,0.3783806,0.1122604,-1.54955,3.298884,-1.768233,-1.17502,0.1001387,0,0,8.856306,21.02639,-0.191638,-0.0731353,0.0339481,-0.09861952,2.204591,1.85544,-0.03263558,-0.04600764,0.2168434,-1.00533,1.870381,0.0477345,0.06885441,1.64435,0.9155224,300.7183,163.6037,170.1212
7,1.700003,-0.09400952,0.2825821,0.1187323,-1.549566,3.300982,-1.768117,-1.174815,0.01785074,0,0,8.82698,22.00391,-0.1551101,-0.05198655,0.06458856,-0.09850394,2.188263,1.871916,-0.0334423,0.05089099,0.1858112,-1.0045,1.875397,0.04530197,0.0678416,1.644945,0.9158145,300.8325,163.3817,170.0217
7,1.711114,-0.04677843,0.06833805,0.1009555,-1.542998,3.302827,-1.769084,-1.174166,0.05923837,0,0,8.86608,22.6784,-0.07934916,-0.02553596,0.07254954,-0.09815612,2.17502,1.883073,0.0002715923,0.0932101,0.107719,-1.006173,1.878658,0.04237116,0.0668304,1.645708,0.9162086,300.9926,163.3211,169.7961
7,1.722225,-0.02740564,-0.0397068,0.05956919,-1.538947,3.302389,-1.769779,-1.175908,-0.1596702,0,0,8.944282,23.04008,-0.05069219,-0.007434584,0.05638219,-0.09755479,2.173485,1.884238,0.02969684,0.09617361,0.05209529,-1.007663,1.880106,0.04013623,0.06582646,1.646553,0.9166613,301.1289,163.4984,169.4738
7,1.733337,0.0015378,-0.1852536,-0.0004621837,-1.531077,3.301843,-1.770901,-1.177094,-0.1070932,0,0,9.061584,23.0303,-0.04201899,0.0106199,0.06914782,-0.09717182,2.158875,1.898941,0.04398197,0.05233894,-0.00120716,-1.009696,1.87879,0.03985234,0.0647513,1.647261,0.9170533,301.313,163.5798,169.3707
7,1.744448,0.02304332,-0.2827345,-0.04946946,-1.52469,3.301192,-1.772175,-1.176785,0.02892079,0,0,9.13001,22.74682,-0.04827046,0.01591808,0.08520338,-0.09741683,2.141166,1.917514,0.0252584,-0.04453903,-0.01689566,-1.010494,1.873812,0.04302656,0.06341304,1.647636,0.9173787,301.4702,164.0435,168.9198
7,1.755559,0.02520248,-0.2989428,-0.06950286,-1.520996,3.300807,-1.772794,-1.176939,-0.01451282,0,0,9.149561,22.21896,-0.01706247,0.02000885,0.1222408,-0.09795266,2.112762,1.944932,-0.001378544,-0.125279,0.03670345,-1.008159,1.86861,0.04673634,0.06185955,1.647791,0.9178519,301.5322,164.7182,168.1399
7,1.76667,-0.002565727,-0.2759653,-0.1049061,-1.518427,3.298774,-1.771612,-1.176636,0.02725518,0,0,9.120235,21.46628,0.0008925311,-0.005561091,0.109228,-0.09925868,2.110599,1.946272,-0.0180956,-0.1623712,0.1050681,-1.004654,1.864768,0.0495348,0.06010689,1.647646,0.918556,301.6057,165.5786,167.1427
7,1.777781,-0.02283244,-0.265605,-0.1262989,-1.515508,3.297474,-1.770715,-1.175265,0.1244665,0,0,9.022484,20.59629,0.00611639,0.006184835,0.09537391,-0.09913937,2.105128,1.951681,-0.02729551,-0.1409602,0.1423876,-1.001815,1.863737,0.0507705,0.05827831,1.647139,0.9195707,301.6188,166.2798,166.1743
7,1.788892,-0.0345161,-0.2979336,-0.155742,-1.510433,3.295587,-1.769769,-1.172531,0.2480275,0,0,8.836755,19.87292,0.02539381,0.03063082,0.1006121,-0.09845068,2.086054,1.9696,-0.0372315,-0.06094709,0.1838878,-0.9980713,1.866494,0.05011297,0.05657997,1.646402,0.9209752,301.4233,166.7379,165.3574
7,1.800003,-0.02589509,-0.348249,-0.1775675,-1.50387,3.293494,-1.770034,-1.171492,0.09205738,0,0,8.641251,19.23754,0.0145366,0.04138296,0.07409966,-0.09766398,2.084743,1.971153,-0.04647242,-0.005493985,0.1923957,-0.9954709,1.868695,0.04980804,0.05529259,1.645576,0.9226694,301.0132,167.2316,164.5745
7,1.811115,-0.01832929,-0.4210065,-0.2054891,-1.495714,3.291642,-1.769991,-1.170214,0.1150127,0,0,8.445747,18.69013,0.01315305,0.1285442,0.1404196,-0.09516539,2.027196,2.028358,-0.06698281,0.01158065,0.1456506,-0.9956057,1.869471,0.05094014,0.05450169,1.644793,0.9244853,300.5759,167.7601,164.0043
7,1.822226,-0.002282917,-0.4634932,-0.1986101,-1.489107,3.290953,-1.770282,-1.169883,0.02807884,0,0,8.289346,18.1916,0.08283469,0.2050003,0.1730891,-0.09221515,1.969791,2.081882,-0.07696428,0.004099585,0.09780079,-0.996182,1.869162,0.05222805,0.05411965,1.644139,0.9262649,300.1845,168.4243,163.5436
7,1.833337,-0.001225233,-0.448547,-0.1956111,-1.48426,3.289408,-1.770325,-1.167871,0.1823406,0,0,8.230694,17.68328,0.09635086,0.1795022,0.1398743,-0.09145615,1.96175,2.088275,-0.07304306,-0.01940509,0.0690463,-0.9964761,1.867808,0.0536563,0.05395276,1.643643,0.9279122,299.9494,169.1958,163.1341
7,1.844448,0.01354691,-0.3554538,-0.1636839,-1.483869,3.288841,-1.770964,-1.166042,0.1640269,0,0,8.24047,17.17498,0.08373314,0.125098,0.1728422,-0.09384447,1.938536,2.111158,-0.05424915,-0.04086687,0.03164662,-0.9976718,1.866364,0.05418601,0.0537869,1.643137,0.9293274,299.9019,169.9189,162.7632
7,1.855559,0.01774728,-0.3094871,-0.1503677,-1.481838,3.288175,-1.771394,-1.1637,0.2111985,0,0,8.308896,16.68622,0.03538585,0.06137683,0.1411027,-0.09549031,1.944117,2.107121,-0.05103835,-0.05364728,0.04229861,-0.9967562,1.865121,0.05532291,0.05346508,1.642595,0.9305602,299.8883,170.3774,162.4948
7,1.86667,0.01444702,-0.2486859,-0.1436174,-1.481155,3.286921,-1.771302,-1.161872,0.1637398,0,0,8.426197,16.20723,-0.01052651,0.03059378,0.136079,-0.09681176,1.936703,2.116336,-0.04670879,-0.08771397,0.07321494,-0.9948558,1.862224,0.05715623,0.05291628,1.642347,0.9319068,299.7636,170.6937,162.2026
7,1.877781,0.009030536,-0.1921021,-0.1325468,-1.480822,3.286034,-1.771182,-1.159286,0.233364,0,0,8.572825,15.75758,-0.006095357,0.008138686,0.1626056,-0.09887785,1.915111,2.13773,-0.04020006,-0.08771655,0.08915323,-0.9932339,1.861098,0.05802016,0.05229923,1.642127,0.9331909,299.6798,170.7201,162.1232
7,1.888893,-0.0006137341,-0.1459164,-0.0989874,-1.48098,3.286155,-1.770821,-1.156278,0.271224,0,0,8.680352,15.36657,0.01081533,-0.007838242,0.1496337,-0.1002728,1.909042,2.142856,-0.03767335,-0.03976458,0.1071611,-0.9914432,1.862592,0.05734425,0.05160582,1.641852,0.9344999,299.676,170.8201,162.0072
7,1.900004,-0.004911199,-0.1114081,-0.06315391,-1.481187,3.286919,-1.770689,-1.153613,0.2396171,0,0,8.768329,15.07331,0.01697619,0.009290917,0.1187368,-0.09956814,1.90301,2.148531,-0.04082608,-0.01631578,0.09756816,-0.9906017,1.863515,0.05748114,0.05091495,1.641407,0.9357924,299.6382,170.9866,161.815
7,1.911115,-0.03593247,-0.01817305,-0.0109404,-1.484671,3.288249,-1.769308,-1.150701,0.2625223,0,0,8.82698,14.87781,-0.01865646,0.007395577,0.06255997,-0.09868823,1.91695,2.136176,-0.03330453,0.002812976,0.0910909,-0.9898102,1.864311,0.05693093,0.05026826,1.640835,0.9371369,299.5346,171.0691,161.6936
7,1.922226,-0.04985235,0.03108133,0.01193401,-1.486964,3.288717,-1.768308,-1.148224,0.2224435,0,0,8.885631,14.78006,-0.02826006,0.03940295,0.05314807,-0.09748714,1.905329,2.14851,-0.01619694,0.02721663,0.08346437,-0.9891359,1.865728,0.0557357,0.04965865,1.640191,0.938507,299.3224,171.004,161.7474
7,1.933337,-0.05421828,0.1094372,0.06324343,-1.491435,3.290765,-1.767707,-1.144328,0.352615,0,0,8.954058,14.73118,0.006667256,0.08204204,0.01461253,-0.09466579,1.903365,2.148785,-0.005615266,0.04736275,0.05884544,-0.989489,1.867287,0.05437243,0.04904903,1.639539,0.9398828,299.0692,170.7976,161.9602
7,1.944448,-0.03731504,0.2003603,0.09199897,-1.497302,3.291723,-1.767991,-1.142033,0.2050499,0,0,9.022484,14.61388,-0.01217377,0.05568606,-0.06626981,-0.09304871,1.940826,2.112242,-0.01222429,0.0388369,0.03441196,-0.9899327,1.867368,0.05463262,0.04845,1.639002,0.9412134,298.7657,170.3686,162.3851
7,1.955559,-0.02678236,0.2751913,0.1124373,-1.503308,3.292659,-1.768178,-1.139716,0.2083959,0,0,9.090909,14.3695,-0.07839212,0.02816653,-0.07857719,-0.09291077,1.956691,2.099967,-0.01575884,0.01643337,0.004642982,-0.9910565,1.866613,0.05535514,0.04789899,1.6386,0.9424199,298.519,169.9986,162.7537
7,1.966671,-0.02705473,0.4429161,0.1520297,-1.515016,3.293606,-1.767962,-1.138102,0.1440537,0,0,9.169111,14.00782,-0.1434848,-0.0270987,-0.07820363,-0.09450387,1.977526,2.083081,-0.008458093,-0.007056231,-0.001765832,-0.9913005,1.865431,0.05562118,0.04741091,1.638235,0.9433338,298.334,169.3454,163.4242
7,1.977782,-0.0431459,0.5112545,0.1671882,-1.523072,3.293792,-1.766696,-1.135505,0.2344943,0,0,9.237537,13.52884,-0.1689834,-0.0377304,-0.06736676,-0.09506899,1.985109,2.078428,-0.01164808,-0.02087465,0.007867894,-0.9908776,1.864498,0.0563429,0.04699605,1.637906,0.9440373,298.2739,168.5971,164.183
7,1.988893,-0.06137943,0.591454,0.1950342,-1.533103,3.295108,-1.765362,-1.132539,0.2674008,0,0,9.286413,12.90323,-0.1529232,-0.06337832,-0.05053369,-0.09643519,1.991781,2.072875,-0.01248008,-0.01870073,0.03449281,-0.9896435,1.864276,0.05635329,0.04669308,1.637659,0.9447035,298.2763,167.7683,164.9434
7,2.000004,-0.06566572,0.6192716,0.2053392,-1.541079,3.295808,-1.764714,-1.129063,0.3139745,0,0,9.325513,12.10166,-0.1190159,-0.1188224,-0.05951089,-0.09903923,2.018673,2.04606,-0.01852444,0.009077343,0.06219612,-0.9877675,1.865634,0.05608351,0.04667817,1.637527,0.9454472,298.2614,166.5925,165.9862
7,2.011115,-0.0476135,0.6556464,0.2166292,-1.549995,3.297086,-1.764974,-1.126551,0.2255546,0,0,9.354838,11.12415,-0.09791158,-0.07402597,-0.09364388,-0.09731191,2.035175,2.030058,-0.02468466,0.05066843,0.06644468,-0.9867544,1.868219,0.0553293,0.04697604,1.637636,0.9463676,298.19,165.635,166.9234
7,2.022226,-0.01997632,0.7029302,0.2469519,-1.560088,3.298987,-1.765796,-1.125303,0.1112471,0,0,9.384165,10.0391,-0.06474942,0.0004844815,-0.09582864,-0.09418429,2.032026,2.032653,-0.03525346,0.05925334,0.07183795,-0.9856822,1.869368,0.05550906,0.04759124,1.638001,0.9474438,298.1597,164.5908,168.0456
7,2.033337,-0.00617826,0.7382461,0.2582617,-1.570138,3.300542,-1.766348,-1.124537,0.06804979,0,0,9.423265,8.983382,-0.07004391,0.01008522,-0.09364113,-0.09332569,2.040853,2.025002,-0.03638803,0.0507179,0.06546172,-0.9852796,1.869353,0.05564355,0.04843882,1.638516,0.9485768,298.2128,163.5792,169.2797
7,2.044448,-0.02440476,0.7977422,0.2469291,4.701707,3.300661,-1.765352,-1.1236,0.08422768,0,0,9.481916,8.191594,-0.1061623,0.05063231,-0.09215499,-0.09104176,2.040564,2.027822,-0.03230252,0.05278755,0.03985118,-0.9859374,1.870198,0.05527125,0.04939588,1.638913,0.9495907,298.3513,162.3537,170.8141
7,2.055559,-0.06282538,0.8314925,0.2231475,4.690991,3.300499,-1.763395,-1.121958,0.1484994,0,0,9.579668,7.71261,-0.1543309,-0.0003567934,-0.1057437,-0.09205003,2.065883,2.006357,-0.03892805,0.04213394,0.01648535,-0.9865648,1.87037,0.05590747,0.0502881,1.639114,0.9504748,298.517,160.9583,172.5251
7,2.06667,-0.0798986,0.8419771,0.2113195,4.681075,3.300507,-1.761842,-1.119166,0.2532811,0,0,9.69697,7.526882,-0.1365114,-0.08451977,-0.1210601,-0.09514835,2.10297,1.97004,-0.04117034,0.03253394,0.004793074,-0.9869957,1.870299,0.05612931,0.05100306,1.639144,0.9513828,298.6821,159.6879,173.9986
7,2.077781,-0.08945173,0.8172293,0.1924575,4.672904,3.300591,-1.760626,-1.117108,0.1854694,0,0,9.853374,7.634409,-0.1003313,-0.142148,-0.1119469,-0.098309,2.126675,1.9462,-0.04537365,0.0347003,0.01121385,-0.9865771,1.870898,0.05648432,0.05163672,1.639158,0.9523894,298.6875,158.5726,175.1594
7,2.088892,-0.08507508,0.7347054,0.1497374,4.667964,3.299701,-1.75992,-1.11675,0.0309377,0,0,10.01955,8.044967,-0.09467234,-0.1092335,-0.08101387,-0.09832657,2.12504,1.948698,-0.04403353,0.05390025,0.03248332,-0.9852988,1.872355,0.05589895,0.05232851,1.639292,0.9534427,298.5966,157.5753,176.1591
7,2.100003,-0.06463593,0.594391,0.08212285,4.666331,3.298158,-1.759985,-1.116598,0.01342574,0,0,10.16618,8.768329,-0.08244339,-0.01455635,-0.04354907,-0.09563731,2.105275,1.968914,-0.03543743,0.05706841,0.04093844,-0.9844673,1.873244,0.05558337,0.05316402,1.639529,0.9543384,298.518,156.6453,177.1523
7,2.111114,-0.04960662,0.5237871,0.05419676,4.662607,3.297488,-1.760133,-1.116601,-0.0005552238,0,0,10.29326,9.784947,-0.02769894,0.03422888,-0.006589211,-0.09423116,2.086257,1.986251,-0.02022958,0.07407494,0.06742552,-0.9827714,1.874811,0.05433008,0.05412596,1.639819,0.9549341,298.541,155.9477,178.0172
7,2.122225,-0.02075979,0.4627232,0.02079176,4.659833,3.296004,-1.760958,-1.116883,-0.02617268,0,0,10.40078,11.01662,0.006458204,0.04266691,-0.001519173,-0.0937193,2.08235,1.988828,-0.01805856,0.07300621,0.0738029,-0.9817094,1.875596,0.05407149,0.05509915,1.640167,0.9553508,298.7453,155.7522,178.4657
7,2.133336,0.01121363,0.4606027,0.01650592,4.654794,3.294733,-1.762356,-1.116571,0.02834757,0,0,10.44966,12.21896,0.04515796,0.03393757,0.04287072,-0.09447297,2.062039,2.007285,-0.02353818,0.07086977,0.05573678,-0.9817157,1.876367,0.05421823,0.05595715,1.640527,0.9557684,299.0467,155.8223,178.6249
7,2.144447,0.03352809,0.4969997,0.02778461,4.647882,3.294239,-1.763577,-1.116709,-0.01316386,0,0,10.46921,13.41154,0.0206562,-0.0139881,0.05358219,-0.09667914,2.063047,2.006865,-0.0131275,0.06012346,0.03117135,-0.9822057,1.876743,0.05381849,0.05665508,1.640882,0.9562896,299.2928,155.6002,178.9958
7,2.155558,0.01750463,0.5288897,0.02422132,4.641077,3.292897,-1.763373,-1.116846,-0.0127094,0,0,10.46921,14.61388,-0.02213724,-0.04262171,0.04001306,-0.09797823,2.068331,2.003489,0.004660303,0.03867948,0.003372024,-0.9830867,1.876416,0.05338946,0.05718939,1.641162,0.9569472,299.4048,155.3101,179.3849
7,2.166669,-0.02839622,0.5799258,0.02259817,4.632822,3.291511,-1.761498,-1.116267,0.0526947,0,0,10.43011,15.826,-0.05156757,-0.1254856,-0.01964871,-0.1008033,2.107116,1.966318,0.01512133,0.02475656,-0.01160118,-0.9837366,1.876291,0.05303978,0.05766559,1.641325,0.9576943,299.3949,154.8107,179.9067
7,2.17778,-0.08701459,0.5998592,0.005366832,4.625857,3.289657,-1.758962,-1.114353,0.1743333,0,0,10.38123,17.02835,-0.0411281,-0.1808679,-0.03161882,-0.1041775,2.128602,1.945048,0.01080559,0.01093302,-0.009416616,-0.9837871,1.875841,0.05331915,0.05817261,1.641361,0.9585526,299.3998,154.1297,180.5787
7,2.188891,-0.1295416,0.5462649,-0.01524385,4.621918,3.288522,-1.756484,-1.112292,0.1868519,0,0,10.35191,18.20137,-0.01153591,-0.2128358,-0.05220496,-0.1069712,2.149948,1.922826,-0.002847868,0.01743636,0.01411865,-0.9827304,1.87636,0.05377029,0.05884503,1.641303,0.9595048,299.3535,153.4811,181.196
7,2.200002,-0.1517405,0.4394056,-0.0395507,4.620847,3.287091,-1.754271,-1.111421,0.07815543,0,0,10.33236,19.05181,-0.006194592,-0.196861,-0.05433331,-0.1082554,2.160933,1.911783,-0.01011482,0.03028329,0.03226484,-0.9817498,1.877206,0.05379399,0.05984078,1.64137,0.9605328,299.2271,152.7883,181.8776
7,2.211113,-0.1622414,0.3507005,-0.06085198,4.620261,3.28598,-1.752533,-1.111616,-0.01819562,0,0,10.31281,19.52102,0.06430328,-0.02474166,0.05317374,-0.1043416,2.102422,1.966994,0.01039242,0.06003397,0.04804252,-0.9806175,1.879192,0.05193617,0.06124552,1.64166,0.9614906,299.1289,152.2531,182.5408
7,2.222224,-0.1513412,0.2056285,-0.0783499,4.623165,3.285012,-1.751335,-1.112047,-0.03907086,0,0,10.30303,19.62854,0.1104632,0.04006645,0.07854252,-0.102692,2.078424,1.987979,0.01998323,0.05466272,0.05330577,-0.9798638,1.879511,0.05132844,0.06291196,1.642172,0.9621965,299.1559,151.9704,183.1778
7,2.233335,-0.1201953,0.0487955,-0.1031604,4.627663,3.284204,-1.751084,-1.112706,-0.05989597,0,0,10.27371,19.35484,0.1180493,0.03467584,0.09550902,-0.1033418,2.064683,2.000163,0.02703189,0.01836505,0.02454583,-0.9805551,1.878384,0.05151273,0.06460286,1.642922,0.9625944,299.3108,151.9929,183.6084
7,2.244446,-0.0976025,-0.08787236,-0.1324838,4.633655,3.28283,-1.7509,-1.113369,-0.06005931,0,0,10.29326,18.99316,0.06591059,0.008100744,0.1086461,-0.1049227,2.056043,2.009827,0.0341879,-0.006207634,0.002161182,-0.9812816,1.877407,0.05154575,0.06609726,1.64388,0.9627379,299.5999,152.1593,183.8544
7,2.255557,-0.08898655,-0.1519989,-0.151976,4.637289,3.28136,-1.750221,-1.114344,-0.08876482,0,0,10.35191,18.64125,0.0542082,-0.04518405,0.1235014,-0.1077845,2.048966,2.016713,0.04769708,-0.03507869,-0.02239629,-0.9823064,1.875929,0.05146159,0.06714449,1.644976,0.9626921,299.9011,152.5955,183.772
7,2.266668,-0.07616566,-0.1863722,-0.1782203,4.641013,3.279086,-1.749922,-1.114336,0.001309652,0,0,10.45943,18.28935,0.06901601,-0.1219438,0.1295449,-0.1121217,2.05151,2.012853,0.03586189,-0.05206555,-0.02547752,-0.9827597,1.874589,0.05230075,0.06756078,1.646023,0.9625131,300.2129,153.3022,183.2945
7,2.277779,-0.07405585,-0.1650793,-0.1806256,4.642297,3.276836,-1.749557,-1.113684,0.05946109,0,0,10.60606,18.04497,0.08958082,-0.1402242,0.1708556,-0.1153149,2.035209,2.027198,0.01780923,-0.05195521,-0.01787776,-0.9826116,1.874035,0.05305097,0.06731284,1.646838,0.9622965,300.4561,154.1436,182.4552
7,2.28889,-0.07835803,-0.1372066,-0.1649621,4.643042,3.275713,-1.748562,-1.113829,-0.01378107,0,0,10.81134,18.16227,0.1039374,-0.03809313,0.2072629,-0.114476,1.997191,2.063519,-0.005466091,-0.04967367,0.00360326,-0.9818265,1.873372,0.05446111,0.06658988,1.647404,0.9621803,300.5518,154.8324,181.5123
7,2.300001,-0.0740976,-0.1165308,-0.1289691,4.643621,3.275736,-1.747981,-1.113699,0.01196996,0,0,10.97752,18.32845,0.1189332,0.02047377,0.2019738,-0.1136174,1.9742,2.084473,0.001119882,-0.04221833,0.02484946,-0.9808795,1.87304,0.05442809,0.06568179,1.647763,0.9622895,300.4663,155.4598,180.4796
7,2.311112,-0.07413494,-0.08207235,-0.09845526,4.643144,3.27585,-1.7472,-1.113062,0.05803598,0,0,11.1046,18.4653,0.08225261,0.008983575,0.1500444,-0.1139439,1.977434,2.081564,0.0248867,-0.03375766,0.0630077,-0.9789135,1.872744,0.05355271,0.06494369,1.647998,0.9626245,300.2361,155.8426,179.6747
7,2.322223,-0.09023215,0.0003300458,-0.06424276,4.640194,3.275843,-1.745663,-1.113445,-0.03549955,0,0,11.1828,18.48485,0.04053229,-0.01539987,0.1354041,-0.1154981,1.974974,2.084993,0.03465453,-0.02100182,0.07889546,-0.9775186,1.87284,0.05286721,0.0645312,1.648167,0.9631287,300.0408,155.9539,179.3424
7,2.333334,-0.134032,0.07392901,-0.05011874,4.636868,3.275465,-1.742703,-1.113264,0.0168804,0,0,11.15347,18.11339,-0.02937178,-0.04807873,0.06558739,-0.1162694,1.994012,2.068933,0.0260489,-0.01671587,0.06510454,-0.9773002,1.872841,0.05288852,0.06440943,1.648237,0.9636695,299.9522,155.8705,179.429
7,2.344445,-0.1618194,0.113443,-0.03882878,4.634246,3.274934,-1.739656,-1.112462,0.0731041,0,0,11.02639,17.39981,-0.0273575,-0.06404836,0.05485574,-0.1175573,1.999433,2.063683,0.01401373,-0.01139487,0.02044334,-0.9786488,1.873008,0.05318652,0.06452394,1.648278,0.9642075,299.895,155.6296,179.746
7,2.355556,-0.1820728,0.1284828,-0.02512991,4.632294,3.274879,-1.737014,-1.110763,0.1543913,0,0,10.86022,16.40274,0.01187801,-0.1163077,0.04692101,-0.1205906,2.008345,2.053289,0.01441913,-0.01153451,-0.06691646,-0.9824369,1.8731,0.05295483,0.06491037,1.648393,0.9647215,299.8458,155.249,180.1652
7,2.366668,-0.1991058,0.1220864,-0.02397192,4.631046,3.274502,-1.734262,-1.110219,0.04818816,0,0,10.65494,15.16129,0.02431983,-0.156728,0.0157873,-0.1229145,2.029641,2.031466,0.01511787,-0.02438371,-0.1063121,-0.9847608,1.872395,0.05318333,0.06561871,1.648721,0.9651921,299.8063,154.9059,180.5519
7,2.377779,-0.201163,0.07076484,-0.03932955,4.632135,3.274009,-1.732042,-1.110197,0.001189792,0,0,10.44966,13.79277,0.003594946,-0.121711,0.07678926,-0.1244149,2.008557,2.053141,0.01850471,-0.01159043,-0.08931097,-0.985009,1.872802,0.05267227,0.06661825,1.649306,0.9655586,299.8655,154.6864,180.9141
7,2.38889,-0.1648097,0.003851559,-0.02791193,4.634137,3.274671,-1.731498,-1.109438,0.06888831,0,0,10.29326,12.58065,0.0606027,-0.01435075,0.1160338,-0.1224346,1.976541,2.082263,0.02456924,0.03323068,-0.02231125,-0.9829876,1.875101,0.0508203,0.06777927,1.650143,0.9658089,300.0452,154.5567,181.2523
7,2.400001,-0.09335258,-0.01673777,0.02233927,4.634496,3.27675,-1.732688,-1.109056,0.03346966,0,0,10.22483,11.85728,0.1227187,0.05788987,0.1370232,-0.1208835,1.950522,2.104521,0.02076989,0.04185931,0.03310177,-0.9808412,1.875755,0.05036437,0.06899721,1.651243,0.9660075,300.2643,154.5505,181.4688
7,2.411112,-0.05290842,0.004884414,0.04232195,4.633164,3.278048,-1.733158,-1.10975,-0.06455319,0,0,10.21505,11.72043,0.0757927,0.03775441,0.135226,-0.1218929,1.941572,2.114116,0.02337809,0.02811,0.1055464,-0.9772587,1.875338,0.05022003,0.07006349,1.652503,0.966126,300.5175,154.6886,181.6397
7,2.422223,-0.04773986,0.09115449,0.03918646,4.629252,3.277689,-1.732848,-1.110587,-0.07674979,0,0,10.27371,12.11144,-0.07725601,-0.04164861,0.07021558,-0.1239712,1.965358,2.096334,0.01914289,0.01111016,0.1205182,-0.9755857,1.874653,0.05054387,0.07070981,1.653612,0.9660469,300.8542,154.7668,181.8711
7,2.433334,-0.07551888,0.1358127,0.03445001,4.626149,3.277615,-1.731096,-1.108786,0.1644448,0,0,10.39101,12.9912,-0.1285518,-0.06707227,0.0577887,-0.125445,1.96971,2.095223,0.001700565,-0.01974419,0.08873668,-0.9758664,1.873094,0.05201047,0.07077091,1.654233,0.9657321,301.2248,154.6394,182.1062
7,2.444445,-0.1214601,0.2103086,0.03469427,4.621305,3.277213,-1.728243,-1.106701,0.1884312,0,0,10.50831,14.27175,-0.1725903,-0.1467897,0.03449182,-0.1289556,1.985886,2.08286,-0.0257632,-0.05383399,0.0027054,-0.9788992,1.871101,0.05445366,0.0703077,1.654353,0.9654276,301.4615,154.4598,182.1202
7,2.455556,-0.1460612,0.2677826,0.03299779,4.616423,3.276933,-1.726046,-1.104365,0.2114902,0,0,10.61584,15.53275,-0.1060139,-0.2043059,-0.01523748,-0.1317668,2.013402,2.054384,-0.05545198,-0.06451197,-0.1121088,-0.9840481,1.870203,0.05658898,0.06956306,1.654423,0.9656755,301.4959,154.2919,181.9456
7,2.466667,-0.1600572,0.3563316,0.04583501,4.609278,3.27674,-1.723784,-1.102559,0.1631774,0,0,10.68426,16.65689,-0.0588999,-0.1650514,0.003658876,-0.132529,2.010426,2.056268,-0.08566,-0.008027591,-0.2003839,-0.9886847,1.872889,0.05697513,0.06883065,1.654623,0.9665205,301.3121,154.112,181.7336
7,2.477778,-0.159183,0.4942799,0.08894563,4.599075,3.277064,-1.72215,-1.102785,-0.02201146,0,0,10.73314,17.52688,-0.0008378103,-0.06301738,0.04396131,-0.1308038,1.984857,2.079771,-0.09829961,0.03995457,-0.2142106,-0.9912845,1.875485,0.05696528,0.06845143,1.654881,0.9675868,300.9982,153.7569,181.7456
7,2.488889,-0.2032447,0.7442833,0.1564111,4.582208,3.278602,-1.718374,-1.102564,0.02044463,0,0,10.73314,17.82014,0.006797791,-0.03325066,0.05784218,-0.1309018,1.976109,2.088231,-0.09671164,0.08688879,-0.1759431,-0.9917122,1.878718,0.05625954,0.06863671,1.655207,0.9685656,300.7018,153.2322,182.0893
7,2.5,-0.2547836,0.9907724,0.1972842,4.56252,3.279297,-1.713662,-1.103001,-0.04033922,0,0,10.72336,18.03519,-0.07648125,-0.06394102,0.04246156,-0.1326643,1.983789,2.08414,-0.06946468,0.1156115,-0.1144041,-0.9907891,1.881296,0.0546478,0.06954168,1.655595,0.9691491,300.4815,152.3622,182.9052
7,2.511111,-0.4512863,1.300882,0.233254,4.536901,3.27916,-1.701591,-1.100898,0.1925683,0,0,10.72336,18.31867,-0.1695689,-0.08066088,-0.001545515,-0.1331304,1.999021,2.074166,-0.07420883,0.1146886,-0.03660733,-0.9887683,1.882594,0.05490186,0.07126231,1.656186,0.9692679,300.5154,151.0957,184.2105
7,2.522222,-0.6454844,1.467696,0.2262143,4.515421,3.279212,-1.688301,-1.099617,0.1153495,0,0,10.72336,18.68035,-0.2359992,-0.08999768,-0.04469356,-0.1335144,2.016624,2.061629,-0.08878082,0.08822788,0.02746489,-0.986298,1.882414,0.056622,0.07387379,1.657165,0.9690769,300.9422,149.3278,186.0583
7,2.533333,-0.7586475,1.013868,0.2454172,4.518786,3.283593,-1.674956,-1.092378,0.6610612,0,0,10.74291,19.23754,-0.2222226,-0.1279994,-0.1717004,-0.1331783,2.068379,2.012147,-0.1046304,0.07769263,0.05210058,-0.9849046,1.882889,0.0580894,0.07748839,1.658619,0.9687062,301.6801,147.5377,187.9728
7,2.544444,-0.7147105,0.854066,0.2408644,4.514129,3.286457,-1.668436,-1.091249,0.09785862,0,0,10.80156,20.37146,-0.1874476,-0.06397441,-0.2325266,-0.1298936,2.095832,1.985793,-0.1055967,0.1160279,0.03926473,-0.9848971,1.886048,0.057536,0.08227985,1.660785,0.9681913,302.5826,145.6652,190.151
7,2.555555,-0.5461893,0.768465,0.2736919,4.507637,3.290193,-1.667634,-1.093109,-0.1693922,0,0,10.86999,21.652,-0.1764205,-0.02042042,-0.1983985,-0.1282573,2.09929,1.983902,-0.09577718,0.1894584,0.02097111,-0.9849515,1.89173,0.05517031,0.08775344,1.663641,0.9673088,303.8932,144.6264,192.3748
7,2.566666,-0.1008163,0.7983907,0.3987121,4.495781,3.298338,-1.680201,-1.100683,-0.6897843,0,0,10.94819,22.94233,-0.2103226,-0.06092723,-0.1662822,-0.1299058,2.11187,1.974992,-0.1022389,0.2118233,-0.00352009,-0.9856365,1.895303,0.05456471,0.09225237,1.666703,0.9654513,305.313,144.98,193.9107
7,2.577777,0.02168393,0.7930936,0.3816179,4.486647,3.300888,-1.683281,-1.107465,-0.614692,0,0,11.00684,24.08602,-0.2313664,-0.1121486,-0.1225799,-0.1326973,2.119969,1.970285,-0.1131061,0.2107699,-0.03113495,-0.9868056,1.898177,0.05462569,0.09513596,1.669986,0.9629638,306.7589,145.4337,194.505
7,2.588888,0.01516873,0.8070984,0.3015767,4.476737,3.300596,-1.68262,-1.121432,-1.273016,0,0,11.01662,24.64321,-0.2579572,-0.1931273,-0.0980922,-0.1370159,2.135332,1.958788,-0.1348662,0.2012078,-0.08422044,-0.9894746,1.900552,0.05564542,0.09625474,1.673102,0.9603822,308.2119,145.374,194.6185
7,2.599999,-0.06905937,0.8126148,0.2387342,4.467538,3.300102,-1.679154,-1.110594,1.000209,0,0,11.00684,24.74096,-0.2808486,-0.2241877,-0.02554718,-0.1410756,2.130745,1.967251,-0.1735523,0.1715449,-0.1083833,-0.9913021,1.901876,0.0580934,0.09557062,1.675045,0.9584106,309.8809,145.1864,194.2525
7,2.61111,-0.1330101,0.8197117,0.2174042,4.458069,3.300839,-1.67526,-1.103504,0.6372196,0,0,10.97752,24.43793,-0.2749363,-0.1625776,0.02998736,-0.1415662,2.115345,1.985372,-0.1755939,0.170518,-0.0955738,-0.9916664,1.904307,0.05875013,0.09347997,1.675696,0.9579826,310.5369,145.0606,193.4488
7,2.622221,-0.1830629,0.8034761,0.2006713,4.448824,3.302734,-1.671077,-1.099328,0.3763994,0,0,10.91887,23.77322,-0.2565939,-0.1168592,0.04702008,-0.1417377,2.107849,1.995029,-0.1625342,0.1641232,-0.05411478,-0.9907497,1.906203,0.05912244,0.0909192,1.675334,0.959095,309.9895,144.6348,192.7459
7,2.633332,-0.2021447,0.7468995,0.1938835,4.442292,3.30408,-1.667794,-1.098406,0.08135542,0,0,10.86022,22.88368,-0.1901959,-0.06594518,0.0764476,-0.1415704,2.09287,2.00968,-0.1518379,0.1513073,-0.03926218,-0.9906421,1.907671,0.05969289,0.08876702,1.67443,0.9613075,308.7674,143.646,192.7709
7,2.644443,-0.1934985,0.6808699,0.1946691,4.436635,3.306217,-1.665707,-1.097919,0.04371831,0,0,10.82111,22.17986,-0.1168972,-0.06922818,0.05238723,-0.1424924,2.097774,2.003582,-0.1316826,0.1256449,-0.03298241,-0.9908216,1.908261,0.06015202,0.0876075,1.673385,0.9639161,307.4868,142.1713,193.6348
7,2.655554,-0.1741526,0.582854,0.1915165,4.433157,3.308,-1.663929,-1.097883,0.002250782,0,0,10.76246,21.90616,-0.09047392,-0.08839471,0.03293627,-0.1438197,2.104498,1.997232,-0.1233808,0.08830826,-0.03724239,-0.9913063,1.907992,0.06141223,0.08768851,1.672552,0.9662877,306.5333,140.5761,195.0751
7,2.666665,-0.1494737,0.4922811,0.1893393,4.430693,3.309965,-1.662667,-1.098177,-0.02794047,0,0,10.66471,22.12121,-0.09485091,-0.1213908,0.02647372,-0.1460254,2.110695,1.992401,-0.1024356,0.06045334,-0.06612201,-0.9930304,1.90774,0.06201703,0.08886902,1.672207,0.9680472,306.0952,139.3493,196.63
7,2.677776,-0.1259462,0.4281512,0.1676817,4.427802,3.310966,-1.661711,-1.096961,0.1100396,0,0,10.53763,22.7566,-0.09921857,-0.1479955,0.0200386,-0.1483498,2.117725,1.986695,-0.07608676,0.04961706,-0.09613303,-0.9950582,1.90814,0.06179918,0.09079226,1.672381,0.9689557,306.1941,138.5741,197.9887
7,2.688887,-0.1194967,0.384234,0.1458288,4.424379,3.311863,-1.660334,-1.095652,0.1172737,0,0,10.37146,23.70479,-0.1086245,-0.1800154,0.0498564,-0.1517197,2.115288,1.990687,-0.05282054,0.04414566,-0.114406,-0.9967844,1.908728,0.06143726,0.09295578,1.67292,0.9689516,306.7284,138.2793,199.0128
7,2.699998,-0.1311552,0.3425102,0.1324707,4.421968,3.312706,-1.658264,-1.093631,0.1821565,0,0,10.16618,24.93646,-0.1232178,-0.1577143,0.08201055,-0.1534897,2.105997,2.001627,-0.03472099,0.04298893,-0.1156064,-0.9980398,1.909435,0.06087374,0.09480562,1.673726,0.9682488,307.5082,138.3609,199.6225
7,2.711109,-0.1353828,0.3265856,0.137985,4.418712,3.314228,-1.656156,-1.090915,0.2451412,0,0,9.980451,26.43206,-0.1381347,-0.1235716,0.07371938,-0.1539297,2.102871,2.006743,-0.01988689,0.02481,-0.113557,-0.9992239,1.909203,0.06081701,0.09613699,1.67467,0.967195,308.2322,138.6352,199.6456
7,2.72222,-0.1118523,0.2732477,0.1301015,4.417384,3.316095,-1.655452,-1.087826,0.2786359,0,0,9.794722,28.18182,-0.1348208,-0.138537,0.09069215,-0.1563361,2.099852,2.011054,-0.002904646,-0.02424361,-0.08804128,-0.9994476,1.906874,0.06165458,0.09693374,1.675657,0.9661496,308.8161,138.8838,199.3877
7,2.733331,-0.07116581,0.1516066,0.1091097,4.41959,3.317226,-1.655923,-1.085543,0.2048175,0,0,9.628544,30.0782,-0.1061382,-0.1630811,0.08612779,-0.1591175,2.100727,2.010394,0.01421718,-0.04559246,-0.06363687,-0.9994391,1.90552,0.06168786,0.09723377,1.676541,0.965293,309.2049,139.0445,199.0664
7,2.744442,-0.05188203,0.07998816,0.08756347,4.421079,3.318054,-1.655858,-1.084593,0.0834272,0,0,9.521016,31.84751,-0.08005726,-0.1522772,0.01775964,-0.1594988,2.115802,1.995559,0.0175298,-0.0370717,-0.05408615,-0.9997592,1.905516,0.06140397,0.09712914,1.677244,0.9647428,309.4433,139.0391,198.8417
7,2.755553,-0.008084785,0.001030296,0.07031216,4.42367,3.318501,-1.657097,-1.082924,0.14992,0,0,9.452591,33.29424,-0.02931575,-0.1266569,-0.03478123,-0.1590871,2.128946,1.981317,0.01566283,-0.02104624,-0.02959175,-0.999218,1.905857,0.06119891,0.09657951,1.677538,0.9644881,309.607,139.1136,198.6376
7,2.766664,0.01441613,-0.07581761,0.05738014,4.426896,3.32015,-1.657826,-1.079323,0.3256542,0,0,9.423265,34.34995,-0.01462582,-0.119141,-0.0636493,-0.1594126,2.140987,1.969094,0.01922132,0.01626137,-0.006235276,-0.9984351,1.907528,0.05997732,0.09545666,1.677233,0.9645731,309.6365,139.3283,198.3571
7,2.777775,0.03149231,-0.1123583,0.02688403,4.429361,3.319657,-1.658838,-1.077171,0.1916245,0,0,9.41349,35.05376,-0.02212081,-0.03596091,-0.08677101,-0.1566615,2.145159,1.965735,0.01938738,0.02267643,0.01186471,-0.9977245,1.907922,0.05960581,0.09387124,1.676427,0.965091,309.3617,139.3279,198.1089
7,2.788886,0.05602434,-0.1218964,0.03126787,4.43118,3.321163,-1.660066,-1.073702,0.3132003,0,0,9.403714,35.42522,-0.02590372,0.01503831,-0.04077207,-0.1555712,2.133842,1.977407,0.0258093,0.007751927,0.02568997,-0.9970268,1.907368,0.05943217,0.09203202,1.675072,0.9659187,308.8313,139.178,197.8517
7,2.799997,0.04642583,-0.1079197,0.04390345,4.431885,3.322183,-1.660008,-1.069816,0.3500955,0,0,9.364614,35.48387,-0.03394461,0.09802921,-0.004239671,-0.1527105,2.117294,1.994198,0.04066096,-0.01574928,0.03307145,-0.9965118,1.9063,0.05905373,0.09011862,1.673312,0.9669848,308.1563,138.8639,197.7591
7,2.811108,0.02082598,-0.08345568,0.0436671,4.431687,3.322881,-1.659256,-1.066938,0.2577601,0,0,9.325513,35.06354,-0.03178548,0.07775247,0.004205145,-0.1527014,2.115482,1.996303,0.044768,-0.03495672,0.02561306,-0.99654,1.905138,0.05908276,0.08837034,1.671402,0.9683068,307.4121,138.474,197.7893
7,2.822219,0.02182998,-0.04607239,0.04964474,4.430449,3.323706,-1.659286,-1.061817,0.4633737,0,0,9.286413,34.12513,-0.0353823,-0.01804717,-0.02162063,-0.1554231,2.131265,1.981117,0.03815682,-0.04029241,0.0001041093,-0.99743,1.904411,0.05927824,0.08691754,1.669431,0.9697024,306.7712,137.9258,198.0731
7,2.83333,0.04951958,-0.04824004,0.04113558,4.430857,3.324211,-1.660725,-1.057004,0.4333204,0,0,9.257087,32.78592,-0.05926035,-0.08500283,-0.05890786,-0.157323,2.149236,1.964712,0.01896844,-0.02955034,-0.008288818,-0.9977693,1.904609,0.05967478,0.08582177,1.667688,0.9712251,306.2508,137.2921,198.5652
7,2.844441,0.09426491,-0.06010569,0.02101676,4.431893,3.324405,-1.663368,-1.055319,0.147732,0,0,9.247313,31.29033,-0.06664865,-0.1159308,-0.04296025,-0.1593859,2.154216,1.960797,0.0009170887,-0.008164449,-0.0145764,-0.9980527,1.905405,0.05990461,0.08515963,1.666384,0.9728155,305.781,136.6486,199.094
7,2.855552,0.09957661,-0.06350957,0.001873134,4.432777,3.323815,-1.664847,-1.049569,0.5217085,0,0,9.266863,29.63832,-0.06749217,-0.125602,-0.01421785,-0.1613343,2.153444,1.962342,-0.006387223,0.01212015,-0.008166274,-0.9979568,1.906317,0.05967771,0.08493583,1.665291,0.9742146,305.5195,136.1886,199.5108
7,2.866663,0.09001482,-0.08060162,-0.001111595,4.434245,3.323958,-1.66536,-1.047567,0.175154,0,0,9.266863,27.91789,-0.05741971,-0.05223589,0.0253372,-0.1600624,2.137997,1.977723,-0.005255833,0.02064078,-0.004991392,-0.9978476,1.906884,0.05937517,0.08501087,1.664273,0.9753267,305.3741,135.9149,199.9015
7,2.877774,0.06339499,-0.08483765,0.004304132,4.435185,3.324513,-1.664893,-1.041716,0.5303372,0,0,9.237537,26.16813,-0.03924359,0.03085634,0.01371494,-0.1567766,2.130759,1.98463,-0.006228305,0.02386215,0.005663648,-0.9973996,1.907358,0.05930407,0.08521397,1.663077,0.9761279,305.3837,135.9606,200.0285
7,2.888885,0.04736063,-0.04632175,0.01987577,4.433996,3.325375,-1.664663,-1.035853,0.5278817,0,0,9.169111,24.43793,-0.01913829,0.1225465,-0.02559218,-0.1517746,2.130236,1.984386,0.002601722,0.02494673,0.04607959,-0.9954177,1.907564,0.05892244,0.0854027,1.661766,0.9769468,305.4059,135.9905,200.1406
7,2.899997,0.03452739,-0.01972513,0.0185278,4.433301,3.32552,-1.664568,-1.02992,0.5346296,0,0,9.051809,22.93255,-0.0200672,0.1480794,-0.01591774,-0.1498012,2.122366,1.992377,0.01452886,0.02812262,0.07154867,-0.9937692,1.907968,0.05810192,0.08547038,1.660501,0.9780122,305.3231,135.8472,200.3918
7,2.911108,0.03979864,0.02518873,0.03186275,4.431227,3.326182,-1.665184,-1.025116,0.4313687,0,0,8.905182,21.71066,-0.01364242,0.1405911,-0.008536283,-0.1486481,2.116976,1.997802,0.01787324,0.02282016,0.09496521,-0.9919124,1.907971,0.05780977,0.08532871,1.659386,0.979354,305.13,135.4559,200.8554
7,2.922219,0.04400446,0.06368861,0.04421262,4.429074,3.327047,-1.665589,-1.019958,0.4644569,0,0,8.748778,20.80156,-0.02880683,0.06075196,-0.02036101,-0.1505331,2.127159,1.988544,0.01354874,0.02495606,0.08540799,-0.9913255,1.908321,0.05765584,0.08498089,1.658283,0.9807199,304.8868,134.9018,201.4002
7,2.93333,0.0386592,0.08615057,0.05357962,4.42735,3.328268,-1.665718,-1.015521,0.398078,0,0,8.572825,20.18573,-0.06320294,-0.03501132,-0.03314312,-0.1535419,2.141368,1.976603,0.002627946,0.03559433,0.04285688,-0.992427,1.909279,0.05749765,0.08446749,1.657168,0.9820511,304.6139,134.3975,201.8363
7,2.944441,0.03860441,0.1170645,0.05536863,4.424959,3.328829,-1.665985,-1.01003,0.4950173,0,0,8.396872,19.81427,-0.07626051,-0.07113473,-0.05870777,-0.154784,2.155726,1.963574,-0.00832855,0.03877717,0.0003210143,-0.993872,1.910024,0.05752162,0.08383945,1.655976,0.9833129,304.4131,133.8885,202.227
7,2.955552,0.06200196,0.1438724,0.06679803,4.422214,3.330331,-1.667157,-1.004295,0.516273,0,0,8.250244,19.59922,-0.06116787,-0.110669,-0.0269948,-0.1574093,2.156619,1.962929,-0.01056439,0.03877094,-0.01350425,-0.9943476,1.910622,0.05737594,0.08312631,1.654662,0.9845185,304.2491,133.3553,202.6275
7,2.966663,0.07695846,0.1302318,0.08291645,4.42114,3.331832,-1.668151,-0.9986354,0.5093036,0,0,8.162268,19.62854,-0.0740938,-0.1159204,-0.04394359,-0.1583217,2.165863,1.954931,-0.01691446,0.03881,-0.008130143,-0.9941644,1.911086,0.05750005,0.08233745,1.653228,0.9856939,304.0648,132.8192,203.0331
7,2.977774,0.09830779,0.1134318,0.1001517,4.420178,3.333855,-1.669395,-0.9942507,0.3929566,0,0,8.132942,19.94135,-0.119903,-0.05932426,-0.05617025,-0.1562983,2.167763,1.95632,-0.01342957,0.04417639,0.02699384,-0.9924648,1.911848,0.05716315,0.08155905,1.651755,0.9869319,303.8383,132.2218,203.4664
7,2.988885,0.08874272,0.1006163,0.09818697,4.419231,3.334974,-1.669714,-0.9886628,0.5039381,0,0,8.142718,20.48876,-0.123345,-0.01551577,-0.09436547,-0.1538647,2.178865,1.947001,-0.008821892,0.05912232,0.06209248,-0.9903843,1.913164,0.05628644,0.08079715,1.650195,0.9882103,303.6697,131.5968,203.9836
7,2.999996,0.07172328,0.08457117,0.0951909,4.418832,3.335904,-1.669574,-0.9835198,0.4622369,0,0,8.181818,21.14369,-0.08411345,0.04950264,-0.1317776,-0.1501906,2.189295,1.936156,-0.01054338,0.08688756,0.09722193,-0.9878027,1.915496,0.05516925,0.07995448,1.648492,0.9895075,303.5104,131.0559,204.4999
7,3.011107,0.08562688,0.06020407,0.1050392,4.418884,3.33752,-1.670567,-0.9769359,0.5944644,0,0,8.250244,21.92571,-0.06372876,0.07073417,-0.1191024,-0.1483993,2.19047,1.934971,-0.01574367,0.1124784,0.09722766,-0.986617,1.917988,0.05424912,0.07895441,1.646641,0.9908569,303.3428,130.5383,204.9779
7,3.022218,0.09420078,0.02715911,0.10115,4.41948,3.338752,-1.671594,-0.9711057,0.5246234,0,0,8.357772,22.84458,-0.09045105,0.04523095,-0.1242751,-0.1484984,2.200721,1.926883,-0.02014152,0.1188575,0.07487926,-0.9865606,1.919872,0.05362701,0.0778347,1.64471,0.9922619,303.0423,129.9209,205.4812
7,3.033329,0.1027945,-0.01768102,0.09097211,4.421265,3.339216,-1.672893,-0.9674071,0.3306806,0,0,8.504399,23.87097,-0.1449723,-0.01002917,-0.1335713,-0.1499296,2.217737,1.913927,-0.01068439,0.1240979,0.05349343,-0.986788,1.921634,0.05232393,0.07667737,1.642803,0.9936515,302.6297,129.2279,206.0292
7,3.04444,0.1080955,-0.002746306,0.09186278,4.420682,3.340232,-1.674018,-0.9625969,0.4338986,0,0,8.680352,24.97556,-0.1094575,-0.009117819,-0.08800076,-0.1497666,2.206463,1.925214,-0.01409267,0.1134289,0.03222824,-0.987155,1.922663,0.05199848,0.07549111,1.640974,0.9949501,302.2579,128.5882,206.5651
7,3.055551,0.09848312,0.01434045,0.0970071,4.419711,3.34148,-1.674393,-0.9578272,0.4291706,0,0,8.86608,26.04106,-0.08503247,0.008978836,-0.1009564,-0.1483359,2.217756,1.914071,-0.02810754,0.1006889,0.01850196,-0.9874858,1.923321,0.05244164,0.07424819,1.639307,0.9962137,301.9201,128.0716,207.0148
7,3.066662,0.09846744,0.02717415,0.1000501,4.418402,3.342516,-1.675152,-0.9531059,0.4249482,0,0,9.07136,27.58554,-0.09220548,0.01315521,-0.06785849,-0.1482188,2.213852,1.919216,-0.03676791,0.07942128,0.01433958,-0.9874229,1.923471,0.05304271,0.0729636,1.637758,0.9973733,301.5797,127.6848,207.2969
7,3.077773,0.1208317,0.03255367,0.09995776,4.417584,3.343474,-1.677129,-0.9478329,0.4755485,0,0,9.296188,29.7654,-0.1380229,-0.007006854,-0.06328323,-0.1488004,2.21931,1.917264,-0.04531483,0.06456758,0.02188183,-0.9869148,1.923733,0.05377109,0.07171983,1.636263,0.9983904,301.3425,127.1775,207.6074
7,3.088884,0.1293661,0.01104596,0.07995547,4.418079,3.343721,-1.678731,-0.9436097,0.3791821,0,0,9.521016,32.522,-0.1476123,-0.0006043911,-0.06532992,-0.1483253,2.227012,1.911532,-0.05272346,0.07419238,0.02192417,-0.9865739,1.925166,0.05384006,0.07058381,1.634879,0.9993414,301.1505,126.5672,208.0058
7,3.099995,0.1347389,-0.01884326,0.07389554,4.419339,3.344479,-1.680215,-0.9404112,0.2863624,0,0,9.755621,35.80645,-0.1040265,-0.007017598,-0.07312846,-0.1479429,2.229429,1.908805,-0.06433336,0.09662062,0.02091192,-0.9862713,1.927486,0.05370504,0.06958928,1.633621,1.000291,301.0025,126.0618,208.3659
7,3.111106,0.1326756,-0.05838567,0.06262949,4.421186,3.345086,-1.681549,-0.9355296,0.4409794,0,0,9.970675,39.40372,-0.09677434,-0.00162299,-0.09874067,-0.1470118,2.242281,1.89686,-0.06630909,0.1094352,0.03156011,-0.9854676,1.929504,0.05323313,0.06867945,1.632305,1.001214,300.9381,125.8317,208.5444
7,3.122217,0.123138,-0.09585444,0.04814915,4.423661,3.34535,-1.682485,-0.9310943,0.3987567,0,0,10.18573,42.77615,-0.1222665,0.00905107,-0.09210843,-0.1463844,2.246827,1.89473,-0.06194313,0.1126273,0.04324077,-0.9844567,1.931098,0.05285602,0.06779807,1.630818,1.002165,300.8302,125.7113,208.631
7,3.133328,0.09871551,-0.159084,0.01799095,4.427621,3.344719,-1.682837,-0.9265792,0.40664,0,0,10.40078,45.92376,-0.1199197,0.0601453,-0.07706446,-0.1436626,2.24263,1.900267,-0.05862955,0.1264644,0.04958637,-0.9835603,1.933231,0.05215907,0.06689294,1.629124,1.003167,300.649,125.5294,208.78
7,3.144439,0.06045179,-0.2200871,-0.0004518167,4.432473,3.344534,-1.682107,-0.9216908,0.4405543,0,0,10.60606,48.69013,-0.09106423,0.09523188,-0.07507224,-0.1412807,2.242599,1.900051,-0.06284664,0.1467129,0.04213015,-0.9832748,1.936045,0.05151832,0.06591685,1.627266,1.004299,300.3859,125.2635,209.0139
7,3.15555,0.03071952,-0.2906544,-0.01878849,4.438016,3.34444,-1.681336,-0.9164092,0.4761661,0,0,10.79179,50.57674,-0.0737765,0.1057775,-0.0485551,-0.1399555,2.236132,1.906657,-0.06176244,0.1520323,0.04104849,-0.982765,1.93829,0.05091724,0.06486818,1.625334,1.005601,299.9937,124.943,209.2917
7,3.166661,0.01905942,-0.3356318,-0.03744268,4.443528,3.343885,-1.681252,-0.9109982,0.4877955,0,0,10.93842,51.44673,-0.03506728,0.109844,-0.008385524,-0.1391715,2.222503,1.918893,-0.06723171,0.1382015,0.03259052,-0.9826239,1.939528,0.05126692,0.06392569,1.624355,1.00646,299.0369,124.9097,209.4807
7,3.177772,0.01914248,-0.3837517,-0.05071669,4.44992,3.344171,-1.681745,-0.9064042,0.4127441,0,0,11.00684,51.3001,-0.01898319,0.0618133,0.01475982,-0.1404604,2.219846,1.921081,-0.07711132,0.1009455,0.01994078,-0.9828428,1.939222,0.05274177,0.06316498,1.624138,1.006804,298.4113,125.2601,209.1899
7,3.188883,0.008511513,-0.4074245,-0.06961161,4.455314,3.343328,-1.681686,-0.9023243,0.3663682,0,0,11.02639,50.19551,-0.04202992,0.02334543,0.06917911,-0.142616,2.203911,1.93819,-0.08579221,0.0807358,0.01258082,-0.9829515,1.939389,0.05390211,0.06257015,1.624182,1.00682,298.1707,125.7872,208.4859
7,3.199994,-0.03194156,-0.4365432,-0.09480114,4.461203,3.342025,-1.680275,-0.898182,0.3720665,0,0,10.99707,48.72923,-0.07061015,-0.02781296,0.1033793,-0.145162,2.191485,1.952399,-0.09647219,0.06375639,0.02014692,-0.9824087,1.939404,0.05532824,0.06202968,1.624356,1.00665,298.0977,126.5819,207.4772
7,3.211105,-0.0521467,-0.4676951,-0.1146632,4.467396,3.340819,-1.679397,-0.892087,0.5502824,0,0,10.90909,47.09678,-0.08216432,-0.06835694,0.1321202,-0.1481117,2.181417,1.963615,-0.1060591,0.07231634,0.01487558,-0.9824087,1.940834,0.05605501,0.06147558,1.624799,1.006274,297.8741,128.206,206.215
7,3.222216,-0.07020685,-0.5051788,-0.1291339,4.474542,3.339581,-1.678252,-0.8850121,0.6382508,0,0,10.81134,45.21017,-0.1142786,-0.07464038,0.1153291,-0.1493171,2.180304,1.967091,-0.1113473,0.08937809,0.008497478,-0.9824657,1.942803,0.0563903,0.06094522,1.625046,1.006204,297.8788,129.0288,205.1973
7,3.233327,-0.1149006,-0.5491965,-0.1520151,4.482317,3.337998,-1.675813,-0.8796682,0.4791563,0,0,10.73314,43.0694,-0.1022374,-0.06305268,0.1514843,-0.1506843,2.162762,1.985199,-0.1346737,0.1299589,-0.004172733,-0.9828539,1.946452,0.05672134,0.06030736,1.62515,1.006616,297.7339,129.1453,204.6511
7,3.244438,-0.1862118,-0.6007309,-0.1758545,4.491168,3.335961,-1.671564,-0.8734534,0.5600314,0,0,10.67449,40.74291,-0.0593872,-0.05362788,0.1767227,-0.1522417,2.145151,2.001575,-0.154939,0.1630461,-0.02963826,-0.9839783,1.95014,0.0571533,0.05953008,1.625129,1.007379,297.2339,129.7273,204.213
7,3.255549,-0.2660025,-0.6746265,-0.1973011,4.501511,3.333962,-1.66618,-0.865693,0.7001355,0,0,10.68426,38.45552,-0.03687062,-0.01214574,0.1841103,-0.1519797,2.12854,2.017666,-0.13889,0.2151262,-0.05540358,-0.9852119,1.955306,0.05528323,0.05876078,1.625064,1.008373,296.7899,129.6412,204.0005
7,3.26666,-0.3437002,-0.7497455,-0.2336401,4.512633,3.331252,-1.660287,-0.8570617,0.778533,0,0,10.69404,36.30499,-0.0261704,-0.001522653,0.1872474,-0.1526076,2.114036,2.031909,-0.1377189,0.2300423,-0.05224387,-0.9855299,1.958955,0.05468109,0.05783461,1.62494,1.00954,296.1359,130.2704,203.6116
7,3.277771,-0.4384359,-0.8239552,-0.2806338,4.524794,3.327416,-1.652824,-0.849045,0.7217364,0,0,10.70381,34.32063,-0.02877001,-0.0791575,0.1497664,-0.155927,2.121591,2.024897,-0.1524896,0.2407888,-0.04042959,-0.9853967,1.962662,0.05485712,0.05696985,1.624775,1.011174,295.6623,129.1924,203.9235
7,3.288882,-0.5086769,-0.8882688,-0.305382,4.536777,3.32424,-1.645443,-0.8414636,0.6823309,0,0,10.70381,32.49267,-0.06492359,-0.09014116,0.2864033,-0.1607425,2.081885,2.066105,-0.1778868,0.2515929,-0.02533583,-0.9849265,1.966312,0.05569149,0.05596684,1.624519,1.014015,295.5216,131.6691,201.4861
7,3.299993,-0.5310323,-0.8979071,-0.3063125,4.547259,3.321507,-1.639253,-0.8326815,0.7923989,0,0,10.69404,30.85044,-0.06420287,-0.01471026,0.35374,-0.1617806,2.040065,2.108003,-0.2012362,0.2527936,-0.01450745,-0.9845307,1.969713,0.05688113,0.05494938,1.624125,1.017569,295.3421,131.6059,201.5688
7,3.311104,-0.5843231,-0.875499,-0.2947849,4.556262,3.319162,-1.631281,-0.825638,0.6323484,0,0,10.61584,29.46237,-0.06077829,0.02144539,0.3730013,-0.1627479,2.01076,2.137438,-0.2225676,0.2209693,0.003810917,-0.9838159,1.971178,0.05924202,0.05380683,1.62365,1.021677,295.0217,130.3746,202.4618
7,3.322215,-0.7132727,-0.8599182,-0.3108345,4.565359,3.315123,-1.619691,-0.8196347,0.5385044,0,0,10.50831,28.18182,-0.0848829,-0.03301583,0.4316427,-0.1685105,1.983096,2.166365,-0.2235818,0.2263056,0.007006268,-0.9834979,1.974416,0.05995894,0.05254457,1.623031,1.025961,294.4478,128.8792,203.5941
7,3.333326,-0.8134351,-0.8570542,-0.3245975,4.574999,3.311295,-1.60754,-0.8104985,0.8254367,0,0,10.39101,26.95015,-0.140003,-0.06924792,0.4724894,-0.1741787,1.95887,2.193714,-0.2286519,0.2455454,0.0283241,-0.9822335,1.978602,0.06035415,0.05152636,1.622249,1.030349,293.1623,130.4524,202.0291
7,3.344437,-0.9091997,-0.9136686,-0.3227754,4.587327,3.308072,-1.594354,-0.7988349,1.054018,0,0,10.27371,25.73803,-0.1436322,-0.06732449,0.546034,-0.1796435,1.921651,2.231887,-0.2387424,0.2818953,0.07734806,-0.9795133,1.98373,0.06038931,0.05135018,1.621836,1.035062,291.3587,133.1884,199.8757
7,3.355548,-1.014511,-1.036894,-0.3660059,4.603676,3.302978,-1.580425,-0.7905551,0.7432797,0,0,10.20528,24.42815,-0.1620425,-0.152466,0.5299585,-0.1866343,1.913675,2.242021,-0.2713715,0.308747,0.1116454,-0.9768049,1.98879,0.06169346,0.0520294,1.62268,1.039484,289.9798,132.9121,200.4797
7,3.366659,-1.058146,-1.087504,-0.4058472,4.617384,3.297428,-1.567997,-0.7823941,0.7352079,0,0,10.16618,23.1476,-0.1820333,-0.1802282,0.5651995,-0.1934227,1.893439,2.264536,-0.2966123,0.3334212,0.1373703,-0.9742978,1.994026,0.06275606,0.05339917,1.624968,1.043248,289.2081,133.0942,200.8623
7,3.37777,-1.06568,-1.078481,-0.4538882,4.629315,3.29051,-1.556348,-0.7742251,0.7357055,0,0,10.1564,21.93548,-0.1906086,-0.1741689,0.6824824,-0.2024689,1.854041,2.305535,-0.3157353,0.3580056,0.1278903,-0.9728868,1.999738,0.06369776,0.0549874,1.628757,1.046275,289.0264,135.0821,199.8964
7,3.388881,-0.8246533,-1.291952,-0.528465,4.650996,3.282459,-1.556736,-0.7685819,0.505114,0,0,10.17595,20.80156,-0.1796184,-0.1146077,0.7091943,-0.2077724,1.819903,2.340562,-0.3599356,0.3623929,0.0557858,-0.9743207,2.005136,0.06607809,0.05613444,1.633974,1.048618,289.3444,138.3456,197.5853
7,3.399992,-0.8694077,-1.31815,-0.5771236,4.666248,3.274178,-1.546319,-0.7623522,0.5607221,0,0,10.21505,19.77517,-0.1782309,-0.06142539,0.733849,-0.2133048,1.786604,2.374921,-0.3718208,0.3453904,0.04524784,-0.9739431,2.008959,0.06836228,0.05682647,1.64036,1.050438,289.7556,141.9406,194.2324
7,3.411103,-0.8993976,-1.24718,-0.6087866,4.67726,3.265995,-1.535797,-0.7670373,-0.4379677,0,0,10.2346,18.98338,-0.178761,-0.05306679,0.7945787,-0.2210573,1.754989,2.407725,-0.3602574,0.3453065,0.02493467,-0.9737955,2.013578,0.06926136,0.05722518,1.647712,1.052176,290.27,145.8416,190.3049
7,3.422215,-0.8708555,-1.133333,-0.6282281,4.684956,3.257937,-1.526967,-0.7499152,1.563524,0,0,10.24438,18.55327,-0.2277892,-0.0348478,0.7854691,-0.2275943,1.729285,2.436765,-0.363469,0.336808,0.02816736,-0.9730951,2.017799,0.07098603,0.05730988,1.654134,1.053471,291.5716,151.2699,184.9609
7,3.433326,-0.906087,-1.086648,-0.6404965,4.695034,3.249565,-1.516404,-0.7413202,0.7668618,0,0,10.2346,18.52395,-0.2587278,0.03665662,0.7646188,-0.2314106,1.699593,2.469699,-0.3703167,0.358265,0.09531148,-0.9693283,2.023345,0.07228165,0.05720314,1.659484,1.055148,292.387,154.6915,181.3737
7,3.444437,-0.9061245,-1.088043,-0.6671478,4.707325,3.240077,-1.506674,-0.7363188,0.4474525,0,0,10.21505,18.82698,-0.2253813,0.003408253,0.8111001,-0.2403455,1.676495,2.493316,-0.3871655,0.3626405,0.1188817,-0.96694,2.028092,0.07442976,0.05723396,1.66414,1.057556,292.3896,156.6245,179.1877
7,3.455548,-0.8825812,-1.160631,-0.6834015,-1.561337,3.231057,-1.497674,-0.728366,0.719278,0,0,10.1955,19.30596,-0.1831953,-0.04487553,0.8958314,-0.2518935,1.652865,2.516722,-0.3933812,0.3861203,0.126351,-0.9649112,2.034023,0.07564709,0.05774191,1.668391,1.060684,291.9883,158.2186,177.5222
7,3.466659,-0.854768,-1.230956,-0.6890404,-1.546051,3.221899,-1.488867,-0.7228107,0.4973263,0,0,10.17595,19.78495,-0.1533247,-0.04709759,0.9030122,-0.2603954,1.631926,2.537858,-0.3848179,0.3946124,0.1262877,-0.9631215,2.039772,0.07634271,0.05877166,1.671896,1.063838,291.7083,160.1555,176.0777
7,3.47777,-0.8066227,-1.34478,-0.6814182,-1.528021,3.213187,-1.48125,-0.7177821,0.4517956,0,0,10.1564,20.20528,-0.148019,-0.05525294,0.776175,-0.2641691,1.625469,2.545643,-0.3702313,0.3763803,0.09530944,-0.9628861,2.044055,0.07746124,0.05999926,1.674775,1.066921,291.5415,162.4381,174.6674
7,3.488881,-0.7735348,-1.42857,-0.6581023,-1.510876,3.204845,-1.472652,-0.7123998,0.4843409,0,0,10.12708,20.57674,-0.1360539,-0.03615627,0.80062,-0.2719098,1.60445,2.567098,-0.3461559,0.358086,0.0514847,-0.9634784,2.048215,0.07815499,0.0612257,1.677401,1.070087,291.2984,165.0594,172.7763
7,3.499992,-0.7277041,-1.44117,-0.646282,-1.494945,3.196553,-1.465448,-0.7081095,0.3844427,0,0,10.09775,20.84067,-0.1371586,-0.05206579,0.8016816,-0.2801172,1.586651,2.586078,-0.3081743,0.3141878,0.03208805,-0.9635008,2.050803,0.07887537,0.06230946,1.679943,1.073341,291.0721,167.8302,170.6306
7,3.511103,-0.6629731,-1.349365,-0.6431193,-1.484222,3.188019,-1.459062,-0.7018937,0.5612695,0,0,10.06843,20.86999,-0.1447611,-0.1255885,0.8046939,-0.2895724,1.583001,2.591561,-0.2658106,0.2319775,0.0542602,-0.9621596,2.050443,0.08059045,0.06310543,1.682252,1.07632,290.9497,170.8759,168.1786
7,3.522214,-0.6354609,-1.245011,-0.6517945,-1.474812,3.179297,-1.452186,-0.6980955,0.3391511,0,0,10.04888,20.76246,-0.1765311,-0.1699974,0.7078925,-0.2955832,1.585381,2.592006,-0.2561569,0.2212945,0.0691248,-0.9606427,2.053019,0.08163894,0.06352762,1.684241,1.078813,290.9176,173.6719,165.939
7,3.533325,-0.6134737,-1.077867,-0.6686187,-1.469553,3.170085,-1.444715,-0.6941913,0.3511016,0,0,10.0391,20.56696,-0.2092069,-0.1675515,0.6239961,-0.2995582,1.583489,2.597462,-0.2854893,0.2151579,0.1386036,-0.9566032,2.055458,0.08441076,0.06338727,1.686123,1.080985,290.9289,176.118,163.9883
7,3.544436,-0.6051095,-0.9841463,-0.672893,-1.462682,3.161214,-1.43724,-0.6890668,0.4626011,0,0,10.02933,20.35191,-0.2262477,-0.2044398,0.5057989,-0.3026603,1.590631,2.593805,-0.2865224,0.2045262,0.1503593,-0.9542591,2.057655,0.08645899,0.06293288,1.687993,1.082958,290.9728,178.2671,161.8893
7,3.555547,-0.5733902,-0.8422743,-0.6607036,-1.458251,3.153122,-1.430736,-0.683919,0.4636787,0,0,10.04888,20.28348,-0.1941467,-0.2333285,0.5288954,-0.3110295,1.588091,2.597073,-0.2887231,0.2290006,0.1247717,-0.9533909,2.061697,0.08745555,0.06249473,1.690075,1.084999,291.036,180.2395,159.7316
7,3.566658,-0.5371511,-0.8025261,-0.6367985,-1.450907,3.144792,-1.425306,-0.6795385,0.3939257,0,0,10.0782,20.2737,-0.1815694,-0.187466,0.4958848,-0.3151995,1.581971,2.604696,-0.297148,0.2801417,0.1045221,-0.9525765,2.067566,0.08775435,0.06244461,1.692465,1.087161,291.1556,181.894,157.9173
7,3.577769,-0.4870933,-0.7528785,-0.5883983,-1.445192,3.139101,-1.420995,-0.6763029,0.2897041,0,0,10.13685,20.28348,-0.2172199,-0.06996906,0.4081179,-0.3149641,1.571408,2.618171,-0.2970291,0.2971925,0.1087572,-0.9509035,2.072173,0.08838046,0.06291547,1.695116,1.089436,291.4202,183.2729,156.7123
7,3.58888,-0.4370645,-0.7022828,-0.5496144,-1.439686,3.13323,-1.416845,-0.6734756,0.2535182,0,0,10.21505,20.31281,-0.209155,0.02290323,0.334805,-0.3143883,1.560448,2.630878,-0.2861753,0.3035631,0.1299739,-0.9483303,2.076211,0.08876848,0.06377234,1.697938,1.091834,291.7151,184.1985,156.2922
7,3.599991,-0.3743213,-0.6437253,-0.5620685,-1.435461,3.125703,-1.41372,-0.6703688,0.2790256,0,0,10.32258,20.33236,-0.1417167,0.0752608,0.2331941,-0.3123984,1.554088,2.635915,-0.2804699,0.3057401,0.1778661,-0.9444293,2.080132,0.08938155,0.06495345,1.700544,1.093985,292.0325,185.3989,155.619
7,3.611102,-0.3264503,-0.6150079,-0.5731066,-1.430561,3.117844,-1.410469,-0.6666265,0.3371138,0,0,10.43011,20.23461,-0.1432773,0.07437217,0.1746008,-0.3122317,1.552652,2.638914,-0.2832898,0.3185911,0.2194151,-0.9403004,2.084468,0.0901488,0.0663467,1.702566,1.095867,292.5432,186.0747,155.4407
7,3.622213,-0.2433434,-0.599179,-0.5894198,-1.424091,3.109265,-1.409193,-0.6639122,0.2426991,0,0,10.51809,19.99022,-0.1434041,0.1383707,0.1439016,-0.3109166,1.541907,2.650692,-0.2904811,0.341032,0.2396803,-0.9365906,2.089799,0.09053016,0.06771523,1.703875,1.097744,293.0373,186.4818,155.5855
7,3.633324,-0.1858183,-0.6128396,-0.5776224,-1.417218,3.101796,-1.407311,-0.6600389,0.3495432,0,0,10.59628,19.59922,-0.05973145,0.2360884,0.1892862,-0.3114279,1.518343,2.670959,-0.3000544,0.3314982,0.2482906,-0.9332899,2.093623,0.09195123,0.06903896,1.704455,1.09986,293.3505,187.1857,155.3267
7,3.644435,-0.1174954,-0.6456402,-0.5603521,-1.408498,3.094167,-1.406822,-0.6581874,0.163594,0,0,10.64516,19.09091,0.01251894,0.3212426,0.1505448,-0.3086438,1.503041,2.683389,-0.2872332,0.3229261,0.257794,-0.9298885,2.097292,0.09243646,0.07033613,1.704445,1.102417,293.4193,188.3736,154.5042
7,3.655546,-0.03644723,-0.651338,-0.5071366,-1.401029,3.088713,-1.407989,-0.6537528,0.401457,0,0,10.66471,18.55327,0.01400873,0.3417241,0.06962849,-0.3048995,1.492365,2.693347,-0.2468672,0.293964,0.2617902,-0.9266176,2.099846,0.09224897,0.07172677,1.703673,1.105273,293.4553,189.8981,153.2974
7,3.666657,0.007295787,-0.662752,-0.4847076,-1.393757,3.082518,-1.408343,-0.6512222,0.2251838,0,0,10.66471,18.01564,-0.02100232,0.3292952,-0.03665069,-0.299914,1.491686,2.695701,-0.2301086,0.26615,0.24358,-0.9245195,2.102048,0.09300451,0.07316861,1.702072,1.108269,293.314,191.3755,152.2782
7,3.677768,0.1171133,-0.6975634,-0.4673967,-1.384993,3.076192,-1.411909,-0.6488243,0.2148043,0,0,10.64516,17.55621,0.06355004,0.3929366,-0.006264091,-0.2983854,1.471316,2.711527,-0.2140163,0.275669,0.2519659,-0.921156,2.105895,0.09249318,0.07444272,1.69989,1.111575,293.0313,192.9723,151.2801
7,3.688879,0.1639843,-0.6790988,-0.442094,-1.378614,3.070819,-1.414071,-0.6444067,0.3994033,0,0,10.61584,17.1652,0.1035126,0.3525518,-0.05894352,-0.2950165,1.465893,2.714234,-0.1838202,0.2777203,0.298614,-0.9157689,2.109477,0.0913379,0.07543053,1.697114,1.114995,292.6026,194.4809,150.2798
7,3.69999,0.204421,-0.6371918,-0.4159709,-1.373459,3.06622,-1.416739,-0.6436866,0.05988108,0,0,10.58651,16.85239,0.09042251,0.2422144,-0.1976583,-0.2891905,1.479071,2.701066,-0.1240118,0.2636124,0.3269399,-0.9110125,2.111974,0.08907688,0.076069,1.693969,1.118492,292.0747,196.2663,148.9093
7,3.711101,0.2160315,-0.5849819,-0.4165789,-1.36948,3.060617,-1.418149,-0.6385605,0.4655739,0,0,10.56696,16.65689,0.09368557,0.2027466,-0.1796932,-0.2875298,1.477494,2.701827,-0.07852909,0.2186175,0.3138752,-0.9080548,2.112868,0.08795463,0.07641095,1.690331,1.121878,291.7241,198.225,147.2332
7,3.722212,0.2435929,-0.505994,-0.4057922,-1.3669,3.055686,-1.420599,-0.6348901,0.3288937,0,0,10.54741,16.51026,0.09965534,0.1310701,-0.08834036,-0.2903953,1.477002,2.700738,-0.06922799,0.1663625,0.3128136,-0.9046518,2.112492,0.08890297,0.07654203,1.686607,1.125402,291.2144,200.0996,145.443
7,3.733323,0.2840438,-0.4725901,-0.3785085,-1.363388,3.051862,-1.42446,-0.6301785,0.4257123,0,0,10.49853,16.39296,0.09290584,0.1504159,-0.1340312,-0.2864895,1.472693,2.704254,-0.03615004,0.09383794,0.3680664,-0.8987849,2.109805,0.08975945,0.07663038,1.682915,1.128921,290.6756,201.8602,143.6691
7,3.744434,0.3501462,-0.4827029,-0.3390585,-1.357579,3.048379,-1.429917,-0.6275302,0.2363817,0,0,10.43988,16.30499,0.09644793,0.2231699,-0.2371677,-0.2782268,1.464943,2.710335,0.009710103,0.0191136,0.4242893,-0.8923709,2.106273,0.09031844,0.07685322,1.679499,1.132347,290.097,203.6807,141.8484
7,3.755545,0.4152288,-0.530353,-0.3215532,-1.350051,3.044033,-1.435718,-0.6255296,0.1789678,0,0,10.36168,16.16813,0.08558206,0.2228736,-0.1369296,-0.2790833,1.454905,2.71908,0.0745416,-0.03232718,0.4377181,-0.8873392,2.102964,0.08932243,0.07734597,1.676415,1.135454,289.6069,205.2615,140.3448
7,3.766656,0.4376173,-0.5300441,-0.2981516,-1.344712,3.040468,-1.440471,-0.6239265,0.1429106,0,0,10.25415,15.95308,0.07802951,0.2645067,-0.1580491,-0.2750316,1.443878,2.729029,0.1023324,-0.0452202,0.4588355,-0.881599,2.101268,0.08842707,0.07809042,1.673581,1.138138,289.2938,206.5466,139.3097
7,3.777767,0.4599701,-0.5117437,-0.2824109,-1.339615,3.036916,-1.445434,-0.6213677,0.2305404,0,0,10.14663,15.6696,0.1450823,0.3272992,-0.1797226,-0.2699657,1.428156,2.740258,0.09298298,-0.07811603,0.5122228,-0.8742167,2.097778,0.0899741,0.07893566,1.670709,1.140358,289.2517,207.7346,138.5618
7,3.788878,0.4673997,-0.4880953,-0.2656534,-1.335537,3.033721,-1.450159,-0.6170502,0.3906747,0,0,10.04888,15.31769,0.1747061,0.3177244,-0.2002378,-0.2661808,1.421215,2.744164,0.0834083,-0.07806638,0.5144257,-0.8686123,2.095978,0.09062977,0.0797889,1.667623,1.142397,289.3908,208.9186,137.7842
7,3.799989,0.4652282,-0.4537509,-0.240484,-1.331563,3.031275,-1.454549,-0.6141489,0.2600482,0,0,9.960899,14.92669,0.1936938,0.2911055,-0.216462,-0.2625541,1.418207,2.7444,0.09373769,-0.08775899,0.4781404,-0.8646794,2.093854,0.09058236,0.08062405,1.664393,1.144639,289.3663,209.9417,137.0251
7,3.8111,0.4684089,-0.4528034,-0.2522348,-1.327022,3.027126,-1.458854,-0.6110591,0.2786522,0,0,9.912024,14.56501,0.1632397,0.326191,-0.1724336,-0.2601615,1.401967,2.759123,0.1034288,-0.05691853,0.4726949,-0.8596732,2.093802,0.08921723,0.08144368,1.661029,1.147169,289.1638,211.144,136.0231
7,3.822211,0.4833433,-0.4666916,-0.2584854,-1.321776,3.023263,-1.463686,-0.6081147,0.2654468,0,0,9.892473,14.32063,0.1165629,0.4050896,-0.1675384,-0.2561066,1.378827,2.781654,0.09630859,-0.02701798,0.497207,-0.8533269,2.094046,0.08828779,0.08226532,1.65757,1.149935,288.804,212.6108,134.7398
7,3.833322,0.5110251,-0.4524991,-0.2331148,-1.317629,3.020896,-1.469568,-0.6063527,0.1577805,0,0,9.912024,14.23265,0.1154095,0.5565007,-0.2118061,-0.2487872,1.341154,2.817008,0.08586431,-0.01628327,0.5185693,-0.8469076,2.093455,0.08823586,0.08306338,1.654049,1.152726,288.3724,214.3882,133.1761
7,3.844433,0.5185173,-0.4705193,-0.2275966,-1.312286,3.017893,-1.474748,-0.6051106,0.1113344,0,0,9.951125,14.28153,0.1836019,0.5915499,-0.2208054,-0.243618,1.316088,2.83648,0.0856083,-0.03655371,0.49836,-0.8422625,2.091343,0.0887043,0.08389287,1.65058,1.155449,288.0255,216.5824,131.1551
7,3.855544,0.5238881,-0.4939144,-0.2252082,-1.306312,3.01475,-1.479911,-0.6042861,0.07352733,0,0,10.01955,14.46725,0.2279117,0.5176792,-0.1308408,-0.2445421,1.301389,2.8461,0.1043806,-0.02289259,0.4374681,-0.8397245,2.091287,0.08700015,0.08479568,1.647197,1.157928,287.2412,217.8889,129.9004
7,3.866655,0.5452416,-0.5063675,-0.1995143,-1.300463,3.012907,-1.486198,-0.6024283,0.168394,0,0,10.0782,14.78983,0.1207231,0.4285818,-0.1898816,-0.2399838,1.298871,2.850837,0.1126448,-0.02830601,0.4075922,-0.8360856,2.090243,0.08623236,0.08567999,1.644061,1.160439,286.1563,220.8729,126.9851
7,3.877766,0.5569261,-0.4784784,-0.1849215,-1.296356,3.010994,-1.492224,-0.6011947,0.1106161,0,0,10.12708,15.03421,-0.01838127,0.3565809,-0.2475207,-0.2349797,1.298655,2.85597,0.09060267,-0.06665462,0.3353697,-0.8350863,2.087295,0.0878505,0.08649418,1.641081,1.162754,285.0323,224.2043,123.7689
7,3.888877,0.5536594,-0.4465381,-0.1863427,-1.292856,3.008482,-1.497351,-0.6009487,0.021049,0,0,10.16618,15.13197,-0.03856644,0.3459458,-0.2388676,-0.2317866,1.285581,2.869537,0.0775827,-0.06983289,0.3088388,-0.832574,2.0857,0.08867154,0.0871924,1.638363,1.165051,284.2447,228.2275,119.8873
7,3.899988,0.5514792,-0.4144974,-0.1792402,-1.289579,3.006456,-1.502791,-0.599861,0.09875644,0,0,10.17595,15.06354,0.06955157,0.4073795,-0.1927041,-0.22972,1.257683,2.891577,0.0499101,-0.05053215,0.2994322,-0.8295512,2.08549,0.08916663,0.08773658,1.635756,1.167237,283.4513,232.1851,115.9968
7,3.911099,0.5418773,-0.3940244,-0.1570875,-1.286043,3.005229,-1.50812,-0.5982994,0.141444,0,0,10.18573,14.73118,0.1472398,0.4584185,-0.2123866,-0.2250424,1.231889,2.912417,0.04039097,-0.02598464,0.2930807,-0.8263203,2.086009,0.08873519,0.08817154,1.633217,1.169398,282.8775,236.4879,111.6697
7,3.92221,0.51738,-0.390765,-0.148579,-1.281962,3.003545,-1.512586,-0.5977539,0.04834629,0,0,10.17595,14.2131,0.1425297,0.4873484,-0.2698067,-0.2185289,1.210353,2.93264,0.04153331,0.004885793,0.2823712,-0.8234979,2.087218,0.08739562,0.0885886,1.630698,1.171387,282.1265,240.6679,107.3854
7,3.933321,0.4833437,-0.4282504,-0.1609113,-1.276079,3.00089,-1.516027,-0.5969247,0.07515204,0,0,10.16618,13.53861,0.08588573,0.3905135,-0.2696299,-0.2152345,1.207896,2.935996,0.05738635,0.001586363,0.2673369,-0.8210914,2.086676,0.08646937,0.08904706,1.62824,1.173364,281.7145,245.3878,102.5886
7,3.944432,0.4812865,-0.471996,-0.16681,-1.269539,2.998363,-1.520701,-0.5957507,0.1064542,0,0,10.1564,12.7175,0.05743274,0.3520577,-0.2205233,-0.2138982,1.197704,2.94665,0.062333,-0.01235469,0.22684,-0.8199617,2.085541,0.08641239,0.08955276,1.625808,1.175151,281.1637,250.2565,97.67278
7,3.955544,0.4738432,-0.4685868,-0.1465991,-1.264459,2.997131,-1.525377,-0.59467,0.09783248,0,0,10.14663,11.82796,0.04344438,0.348937,-0.2363957,-0.2101602,1.18267,2.96137,0.0653564,-0.02730374,0.2140553,-0.8181161,2.084184,0.08651279,0.09010327,1.623342,1.176733,280.6894,255.64,92.28011
7,3.966655,0.4439906,-0.459065,-0.1477402,-1.259908,2.99526,-1.528711,-0.5956229,-0.08796437,0,0,10.13685,11.06549,0.115548,0.3627935,-0.2785105,-0.2044456,1.163539,2.976359,0.06939198,-0.06993198,0.213018,-0.8159148,2.080858,0.08788298,0.09071574,1.621062,1.17844,280.8402,260.9736,86.97105
7,3.977766,0.4343862,-0.4592948,-0.1669019,-1.254878,2.992379,-1.53232,-0.5952138,0.03810455,0,0,10.13685,10.38123,0.1863735,0.4136432,-0.228872,-0.2026884,1.133161,3.001468,0.08243526,-0.05291662,0.2352633,-0.8126827,2.080454,0.08681266,0.0913897,1.618924,1.180045,280.6276,265.9914,81.94785
7,3.988877,0.4546243,-0.4623403,-0.1573093,-1.249921,2.990655,-1.537351,-0.5938892,0.1206015,0,0,10.13685,9.755621,0.1522755,0.3816796,-0.2170075,-0.1998372,1.121561,3.013156,0.1060194,-0.05300421,0.2553248,-0.8092707,2.07936,0.08570505,0.09208513,1.616717,1.181438,280.3536,271.3896,76.57349
7,3.999988,0.4791718,-0.4878126,-0.1517185,-1.243692,2.988934,-1.542813,-0.5942993,-0.03850738,0,0,10.13685,9.159335,0.1154559,0.3357378,-0.1529111,-0.2001051,1.111495,3.022877,0.127489,-0.07435849,0.2892806,-0.8051881,2.076777,0.08523953,0.09279916,1.614643,1.18297,280.8334,275.774,72.25086
7,4.011099,0.4855944,-0.5058867,-0.1493937,-1.237588,2.987113,-1.547735,-0.5953768,-0.09811131,0,0,10.12708,8.543499,0.08967006,0.3102832,-0.173012,-0.1974169,1.100087,3.033999,0.1211865,-0.07431158,0.3010454,-0.8016109,2.075164,0.08528587,0.09356789,1.612761,1.184231,280.8131,280.2859,67.76035
7,4.02221,0.4748994,-0.4835015,-0.1464417,-1.233091,2.98536,-1.551954,-0.5957806,-0.03623683,0,0,10.09775,7.908113,0.1055216,0.2889828,-0.1849213,-0.1946227,1.088727,3.043205,0.1084553,-0.06571788,0.2989846,-0.7986681,2.074455,0.08480757,0.09424475,1.611141,1.185025,280.3577,284.6427,63.34072
7,4.033321,0.4492559,-0.4279633,-0.1299838,-1.23022,2.984461,-1.555791,-0.5951291,0.05961252,0,0,10.08798,7.44868,0.1304189,0.2770699,-0.1351006,-0.1946936,1.07451,3.054671,0.1050837,-0.07318142,0.2798427,-0.7963454,2.0728,0.08481795,0.09462255,1.61065,1.185275,280.0322,286.2017,61.75871
7,4.044433,0.4214387,-0.3650684,-0.1232111,-1.228419,2.983153,-1.558971,-0.598212,-0.2825359,0,0,10.09775,7.223851,0.09461038,0.2422017,-0.2062879,-0.1895862,1.068692,3.060612,0.1003495,-0.1147601,0.2469204,-0.7948753,2.068674,0.08690134,0.09465747,1.61076,1.186204,280.0651,286.4979,61.30574
7,4.055544,0.4097032,-0.3533352,-0.1201348,-1.22494,2.981821,-1.562637,-0.5894949,0.7993726,0,0,10.1173,7.233627,0.08436269,0.2442027,-0.1582556,-0.1893699,1.054122,3.07437,0.1034938,-0.1137221,0.2394376,-0.7926148,2.066679,0.08703503,0.09477323,1.610823,1.187224,280.0626,286.8322,60.75975
7,4.066655,0.3840908,-0.3266272,-0.1097603,-1.222227,2.980846,-1.565529,-0.5922737,-0.2610497,0,0,10.1564,7.507332,0.1007761,0.2610728,-0.1114575,-0.190049,1.034484,3.091636,0.1045437,-0.08286759,0.2191466,-0.7908566,2.06699,0.08574872,0.09501077,1.6107,1.187571,279.8317,287.6494,59.85828
7,4.077766,0.352084,-0.2859531,-0.08781131,-1.220585,2.980697,-1.568187,-0.593462,-0.1054701,0,0,10.21505,8.035191,0.1015365,0.2505241,-0.1455876,-0.186996,1.022467,3.102274,0.08851784,-0.04980579,0.1904517,-0.7898083,2.067916,0.08469571,0.09524381,1.610698,1.187672,279.623,288.2675,59.19465
7,4.088878,0.3104895,-0.2507256,-0.07431248,-1.218869,2.980311,-1.57008,-0.5927861,0.06251732,0,0,10.25415,8.729228,0.088617,0.2292195,-0.153024,-0.18449,1.017388,3.10738,0.08630747,-0.03811108,0.1744808,-0.7883463,2.067503,0.08426668,0.09546527,1.610745,1.187824,279.4462,288.7804,58.63903
7,4.099989,0.2635719,-0.2230776,-0.07137698,-1.217321,2.979556,-1.571048,-0.5923302,0.04116165,0,0,10.26393,9.550343,0.037482,0.1749467,-0.1410462,-0.1834577,1.018487,3.107879,0.0767417,-0.02528892,0.1692089,-0.7866525,2.067639,0.08366826,0.09633899,1.610961,1.187932,280.1161,286.2978,61.35862
7,4.1111,0.2454523,-0.2145032,-0.06399679,-1.215195,2.979099,-1.572983,-0.591813,0.04710991,0,0,10.24438,10.43011,0.005414475,0.1505353,-0.149378,-0.1813554,1.01438,3.112968,0.05117401,-0.03047758,0.1747468,-0.7843675,2.066534,0.08503819,0.09685995,1.610962,1.188334,280.1089,287.7265,60.29105
7,4.122211,0.2379899,-0.1982463,-0.03860188,-1.213591,2.979679,-1.575578,-0.5912351,0.05270862,0,0,10.17595,11.16325,0.01832662,0.1963029,-0.144017,-0.1798853,0.992345,3.133939,0.03108767,-0.02289394,0.1898008,-0.7817091,2.066285,0.08567682,0.09732695,1.610779,1.188419,279.7245,288.6472,59.38203
7,4.133323,0.2337089,-0.1669803,-0.004856035,-1.212891,2.98101,-1.578473,-0.5923318,-0.1004896,0,0,10.05865,11.75953,0.05488095,0.2696644,-0.1195744,-0.1798688,0.9581305,-3.117796,0.04825521,-0.01231608,0.2013767,-0.7789469,2.066329,0.08461235,0.09759237,1.610728,1.18848,279.4947,289.245,58.78719
7,4.144434,0.2336685,-0.1337677,0.01182058,-1.212667,2.981855,-1.581395,-0.5929816,-0.05834563,0,0,9.941349,12.18964,0.07508082,0.2760414,-0.1250506,-0.1783008,0.9398801,-3.101333,0.04922377,-0.02298275,0.1960599,-0.7770278,2.065107,0.08491649,0.09766857,1.610746,1.188524,279.4305,289.5037,58.51641
7,4.155545,0.2335424,-0.05255425,0.03328252,-1.215217,2.983033,-1.584325,-0.5932186,-0.02116266,0,0,9.833823,12.44379,0.03051038,0.2088997,-0.08973092,-0.1785735,0.9401587,-3.1004,0.04903482,-0.02514721,0.1736926,-0.7760265,2.064273,0.08510078,0.09758754,1.610771,1.18854,279.4945,289.3524,58.65226
7,4.166656,0.2270967,-0.01623135,0.04354142,-1.216203,2.983955,-1.586851,-0.5935307,-0.02837769,0,0,9.745846,12.5611,-0.01024399,0.1344545,-0.1066563,-0.1768792,0.9465111,-3.105134,0.04680296,-0.01770448,0.1555849,-0.7750028,2.064385,0.08462328,0.0974592,1.610872,1.188655,279.6584,289.4751,58.5804
7,4.177768,0.2046633,0.02103721,0.04527639,-1.217931,2.984568,-1.588481,-0.5935249,0.000816786,0,0,9.706745,12.60997,-0.06492534,0.02488474,-0.1246524,-0.1746624,0.9684223,-3.123888,0.04535057,-0.009261191,0.09805367,-0.7760659,2.06485,0.08377985,0.09820734,1.610842,1.188789,279.8572,287.7849,60.54305
7,4.188879,0.1833406,0.03053913,0.03986137,-1.218614,2.984753,-1.589906,-0.5932751,0.0228707,0,0,9.726295,12.69795,-0.0841319,-0.01030302,-0.1171631,-0.1734261,0.9785202,-3.131845,0.03353233,0.00567947,0.07361212,-0.7760984,2.065773,0.08305414,0.09917206,1.610897,1.188784,279.4355,288.6306,60.01818
7,4.19999,0.1503369,0.01115815,0.02732871,-1.217886,2.984618,-1.590308,-0.592564,0.0648656,0,0,9.814272,12.85435,-0.07913689,-0.001661144,-0.1587262,-0.1700444,0.9766927,-3.129333,0.0186242,0.03661979,0.05343653,-0.7761256,2.068073,0.08173507,0.09974073,1.610985,1.188861,279.6444,288.9539,59.75879
7,4.211102,0.1237627,-0.03168606,0.01079016,-1.21599,2.984196,-1.590618,-0.5925848,-0.002283539,0,0,9.960899,13.07918,-0.01685781,0.04921963,-0.1100909,-0.1705851,0.9599681,-3.115041,0.009112729,0.06435709,0.04494323,-0.7757596,2.07053,0.08023278,0.1002933,1.610964,1.18897,279.3558,290.1358,58.71856
7,4.222213,0.1110231,-0.06488764,-0.002673376,-1.214007,2.983702,-1.591223,-0.5918828,0.06440748,0,0,10.13685,13.38221,0.01440055,0.1055375,-0.07822002,-0.1709984,0.9401787,-3.096729,0.01657481,0.0770932,0.03634173,-0.7756031,2.072463,0.07829214,0.1004559,1.610928,1.188866,279.5856,289.1873,59.85963
7,4.233324,0.1078609,-0.09271135,-0.01301772,-1.211914,2.98314,-1.592129,-0.5920436,-0.01515013,0,0,10.32258,13.79277,0.03918576,0.1149818,-0.04643743,-0.1717014,0.9303148,-3.088339,0.02276112,0.06637998,0.01606679,-0.7762166,2.072988,0.07733899,0.1004315,1.610928,1.188594,279.8618,288.4963,60.49707
7,4.244435,0.118525,-0.1001737,-0.01507366,-1.210543,2.98296,-1.593829,-0.592622,-0.05250416,0,0,10.47898,14.24242,0.05750259,0.06691195,-0.01052463,-0.1727582,0.9365168,-3.095619,0.01384608,0.0269635,-0.009377681,-0.7773885,2.071257,0.07876325,0.1003088,1.610924,1.188346,279.9898,287.9823,60.95447
7,4.255547,0.1366168,-0.09385052,-0.0247487,-1.209888,2.982351,-1.595947,-0.5931813,-0.05059565,0,0,10.59628,14.70186,0.05312777,0.02858567,-0.01593407,-0.1723417,0.9440861,-3.103473,0.001748454,-0.01136396,-0.03373105,-0.7788132,2.069217,0.08066875,0.1002482,1.610912,1.188115,280.0446,287.6542,61.23413
7,4.266658,0.1408425,-0.07575478,-0.02708751,-1.209774,2.98197,-1.59745,-0.5939936,-0.07378501,0,0,10.68426,15.14174,0.06171156,0.05947378,-0.01590138,-0.1723305,0.9308667,-3.091534,0.005937165,-0.03373982,-0.03054078,-0.7791483,2.067911,0.08111855,0.1002882,1.61092,1.187843,279.9939,287.4452,61.39179
7,4.277769,0.1365148,-0.04284742,-0.03704023,-1.210549,2.981106,-1.59854,-0.5946551,-0.05990522,0,0,10.71359,15.45455,0.04525945,0.009576373,-0.061729,-0.1697872,0.9402649,-3.100668,0.01339902,-0.06144601,-0.01137956,-0.7786497,2.065286,0.08254574,0.1004271,1.611008,1.187503,279.9629,287.9173,60.74947
7,4.28888,0.1279486,-0.02597456,-0.05106757,-1.210793,2.979964,-1.599193,-0.5939866,0.06153758,0,0,10.71359,15.6305,0.05214129,0.004040662,-0.001093969,-0.1718549,0.9433151,-3.104367,0.01019746,-0.05077913,-0.02096406,-0.7793165,2.065476,0.08225759,0.1009491,1.611085,1.187333,280.7778,285.4462,63.23598
7,4.299992,0.1077433,-0.05494114,-0.06563755,-1.209026,2.978683,-1.599211,-0.5936521,0.02998442,0,0,10.67449,15.6696,0.05414009,-0.009772148,-0.01393769,-0.1712013,0.9469277,-3.108609,0.008100459,-0.01777157,-0.03911132,-0.7803712,2.0672,0.08095957,0.1014383,1.611951,1.187085,280.2947,284.8461,63.96526
7,4.311103,0.08433473,-0.08506759,-0.08871634,-1.206929,2.976809,-1.598637,-0.5933257,0.0296549,0,0,10.61584,15.58162,0.07973881,-0.008806579,-0.006719004,-0.1707763,0.9496459,-3.112628,0.005795512,-0.001828866,-0.07213949,-0.7822583,2.068247,0.08032227,0.1019956,1.613136,1.186601,279.5101,282.8713,65.9381
7,4.322214,0.077963,-0.1044074,-0.1023419,-1.20505,2.975141,-1.598707,-0.5927984,0.0480818,0,0,10.55719,15.41545,0.099113,-0.00678622,0.01656518,-0.171898,0.9497794,-3.114573,0.002424531,-0.0146184,-0.08701091,-0.7838466,2.067457,0.08096622,0.1026173,1.614454,1.185833,278.9569,279.7708,69.0722
7,4.333325,0.06303583,-0.1055532,-0.1076429,-1.203948,2.973686,-1.598204,-0.5925032,0.02664444,0,0,10.51809,15.23949,0.08547819,0.008083146,0.03909715,-0.1731939,0.9463937,-3.1117,0.01147974,-0.05627603,-0.129618,-0.7869156,2.064702,0.08245014,0.1034983,1.615872,1.185109,279.7266,274.3032,74.72833
7,4.344437,0.05023475,-0.09708898,-0.1109205,-1.203219,2.972297,-1.597776,-0.5932037,-0.06406638,0,0,10.49853,15.05376,0.08349435,0.0378633,0.05303338,-0.1739657,0.9385542,-3.104439,0.01351206,-0.06694849,-0.1360129,-0.7887772,2.063337,0.0831106,0.1044413,1.617447,1.184342,279.7078,270.3402,78.80885
7,4.355548,0.02995629,-0.07365697,-0.10904,-1.203428,2.971016,-1.596918,-0.5927755,0.03979249,0,0,10.49853,14.87781,0.1241735,0.05477426,0.07298747,-0.1756445,0.9311956,-3.10012,0.02824806,-0.1106874,-0.1296623,-0.7900746,2.059434,0.08505204,0.105171,1.618953,1.183461,278.9698,266.0309,83.09631
7,4.366659,0.02143182,-0.0693517,-0.1037495,-1.202726,2.970058,-1.596524,-0.5929049,-0.01212888,0,0,10.50831,14.70186,0.1411295,0.03769793,0.06744166,-0.1757164,0.9349959,-3.105842,0.0250456,-0.1223756,-0.1221563,-0.7911634,2.057198,0.08657084,0.1059031,1.62033,1.182618,279.6953,261.9938,87.26836
7,4.37777,0.01184046,-0.06723777,-0.1037639,-1.202032,2.968848,-1.595842,-0.5926071,0.02750641,0,0,10.53763,14.57478,0.1430924,0.03349218,0.04823621,-0.1755673,0.9334265,-3.105964,0.02832758,-0.1245029,-0.109394,-0.7919879,2.055218,0.08752719,0.1067439,1.621585,1.181647,279.5208,258.2021,91.02866
7,4.388882,0.003316797,-0.06190401,-0.1016792,-1.201522,2.967841,-1.595312,-0.5930679,-0.04228823,0,0,10.56696,14.47703,0.1450447,-0.04105319,0.04159267,-0.1755929,0.9503953,-3.124357,0.04970848,-0.1426874,-0.08716071,-0.7923549,2.05207,0.0883794,0.1075526,1.622706,1.180624,278.8571,253.8778,95.3513
7,4.399993,-0.007345166,-0.06311215,-0.1123074,-1.200678,2.966119,-1.594218,-0.5930583,0.001376401,0,0,10.57674,14.34995,0.1515364,-0.06988306,0.05956031,-0.1768983,0.9611617,-3.136883,0.04426023,-0.1639678,-0.08922455,-0.7937413,2.048635,0.0904825,0.1083614,1.623669,1.179626,279.9298,252.4566,97.00707
