loc,t,aDotS,bDotS,gDotS,aS,bS,gS,qE,qDotE,tpad,enable,emgA,emgB,aDotSH,bDotSH,gDotSH,aSH,bSH,gSH,aDotUB,bDotUB,gDotUB,aUB,bUB,gUB,xHand,yHand,zHand,aHand,bHand,gHand
7,0,0.4822693,-0.02977958,0.1218407,-1.269146,3.319766,3.007103,-1.78423,-0.01523844,0,0,11.36852,10.68426,0.1118475,0.3303221,-0.2198958,-0.6666126,3.883288,-0.4844815,0.07847612,0.1204986,0.4234838,-0.7428318,1.814606,-0.1469447,0.2054824,1.186749,0.6754,291.5288,317.78,19.62299
7,0.01111111,0.4959397,0.05269046,0.1549278,-1.27146,3.31595,3.002365,-1.784239,-0.0007411485,0,0,11.20235,10.78201,0.08654569,0.3740516,-0.2015462,-0.6705243,3.890033,-0.4899665,0.08146594,0.1151329,0.4074847,-0.738967,1.81701,-0.1495655,0.205396,1.185316,0.6762115,291.8243,317.6569,19.8633
7,0.02222222,0.5020698,0.1434649,0.171966,-1.273305,3.310951,2.998053,-1.784555,-0.02894577,0,0,11.02639,10.88954,0.06962483,0.3911427,-0.1917974,-0.6743965,3.89563,-0.4945669,0.07998431,0.1225343,0.3702073,-0.7362676,1.819967,-0.1524652,0.2053345,1.183034,0.6769727,292.2166,318.323,19.19485
7,0.03333334,0.4890652,0.1944414,0.1618321,-1.27413,3.306934,2.99431,-1.78473,-0.015739,0,0,10.85044,10.95797,0.07960734,0.4198694,-0.1556464,-0.6775156,3.902844,-0.5013659,0.08174051,0.1395216,0.3339383,-0.7340652,1.823559,-0.1560168,0.2054065,1.180173,0.6776983,292.7469,319.5473,17.95323
7,0.04444445,0.4740908,0.1995768,0.1501076,-1.275084,3.304358,2.990178,-1.78458,0.0137294,0,0,10.69404,10.97752,0.1052199,0.4016996,-0.1452235,-0.6806124,3.907333,-0.5068384,0.08483751,0.1395031,0.3253824,-0.7308944,1.826692,-0.1593561,0.2057269,1.177031,0.6784043,293.3728,320.94,16.61333
7,0.05555556,0.441085,0.173655,0.1302805,-1.275683,3.303268,2.986629,-1.783651,0.08474184,0,0,10.53763,10.99707,0.1253032,0.3409292,-0.146485,-0.6830689,3.908763,-0.5100228,0.0868046,0.1298845,0.3136526,-0.7279186,1.828933,-0.161979,0.2063668,1.173884,0.6791521,294.0209,322.1991,15.50552
7,0.06666667,0.4134337,0.1168959,0.1107562,-1.275839,3.303253,2.984133,-1.78353,0.01034526,0,0,10.39101,11.03617,0.114493,0.2685193,-0.1453394,-0.6849682,3.908767,-0.5109988,0.09099614,0.1160208,0.3093604,-0.7247175,1.831022,-0.1647234,0.2072916,1.170966,0.6799509,294.6357,323.2496,14.71217
7,0.07777778,0.3913052,0.0410867,0.1031922,-1.277037,3.305169,2.979866,-1.782594,0.08559367,0,0,10.25415,11.08504,0.09302348,0.2163728,-0.1494255,-0.6869299,3.908441,-0.5111048,0.1028406,0.108556,0.3220231,-0.7208932,1.833512,-0.1681323,0.2083578,1.168426,0.6807787,295.1248,324.1656,14.15363
7,0.08888889,0.3723601,-0.03583214,0.0913595,-1.278033,3.307896,2.975465,-1.781309,0.1169728,0,0,10.16618,11.13392,0.07148475,0.1599751,-0.1609713,-0.6889837,3.907049,-0.5102127,0.1061359,0.1096327,0.3305041,-0.7172825,1.83652,-0.1716575,0.2093724,1.166356,0.6815653,295.5142,324.933,13.77304
7,0.1,0.3522659,-0.08284812,0.08558512,-1.279183,3.310322,2.971533,-1.782635,-0.1220576,0,0,10.10753,11.1828,0.06182021,0.1450925,-0.1651477,-0.6912746,3.907404,-0.5108728,0.1061881,0.1117689,0.3347621,-0.7136989,1.839507,-0.1750815,0.2101529,1.164843,0.6822124,295.8019,325.4882,13.55264
7,0.1111111,0.3268104,-0.1320127,0.07773544,-1.280295,3.312892,2.968509,-1.782905,-0.02332827,0,0,10.08798,11.24145,0.04689963,0.1557701,-0.1692691,-0.6939079,3.908559,-0.5119264,0.1041002,0.1213637,0.3369056,-0.7102416,1.843042,-0.1788086,0.2104815,1.163745,0.6829332,295.8215,325.7787,13.48939
7,0.1222222,0.3077089,-0.1566309,0.073828,-1.281428,3.315477,2.96498,-1.782691,0.01975009,0,0,10.09775,11.29032,0.02996389,0.185642,-0.1648474,-0.6969253,3.911536,-0.514009,0.1031204,0.1224414,0.3443726,-0.7064312,1.846331,-0.18243,0.2102685,1.162831,0.68378,295.6749,325.8351,13.48564
7,0.1333333,0.2757709,-0.1620271,0.07826213,-1.28263,3.317264,2.962707,-1.7819,0.07229928,0,0,10.1173,11.32942,0.0151832,0.2208353,-0.1593789,-0.7001275,3.915385,-0.5166261,0.1061635,0.1224062,0.3294198,-0.7036476,1.849028,-0.1858836,0.2095684,1.16196,0.6845551,295.5408,325.8047,13.39492
7,0.1444445,0.21399,-0.1417434,0.1006048,-1.284481,3.317759,2.962236,-1.78253,-0.05815141,0,0,10.1564,11.35875,0.01653166,0.2996693,-0.1487089,-0.7042916,3.922684,-0.5223764,0.1081518,0.1383609,0.3133947,-0.7011507,1.853156,-0.1903265,0.2084733,1.161065,0.6852801,295.4943,325.7226,13.20838
7,0.1555556,0.1809309,-0.1225653,0.1111567,-1.286222,3.318243,2.961131,-1.781813,0.06634808,0,0,10.1955,11.36852,0.01431229,0.3294992,-0.1657219,-0.7085968,3.92674,-0.5254984,0.1134163,0.1404743,0.3090669,-0.6982713,1.856641,-0.194284,0.2071166,1.160046,0.685976,295.4306,325.553,13.0288
7,0.1666667,0.1414915,-0.1012591,0.1238274,-1.287966,3.318486,2.960553,-1.780578,0.112529,0,0,10.24438,11.3783,0.00152421,0.3348615,-0.1688019,-0.7122518,3.930201,-0.5277932,0.1272401,0.1319235,0.3078578,-0.6951788,1.859434,-0.1984231,0.2056468,1.158842,0.6867959,295.3988,325.4537,12.73337
7,0.1777778,0.1085016,-0.1012656,0.1335328,-1.289963,3.31928,2.960308,-1.781441,-0.07959712,0,0,10.29326,11.38807,-0.003930368,0.3210291,-0.1794114,-0.7158295,3.932525,-0.5293115,0.132529,0.1393742,0.3035268,-0.6923654,1.863362,-0.2030303,0.2042547,1.157533,0.6877699,295.4417,325.5297,12.26535
7,0.1888889,0.05959596,-0.1055327,0.1497249,-1.292222,3.320505,2.96057,-1.781442,0.0009632092,0,0,10.28348,11.40763,-0.0265252,0.2912648,-0.1962592,-0.7192378,3.933434,-0.5289781,0.1302779,0.1393645,0.2928997,-0.6898589,1.866672,-0.2068893,0.2030918,1.156191,0.6888605,295.4984,325.6343,11.83855
7,0.2,0.01603064,-0.1311918,0.1555054,-1.29454,3.322564,2.96136,-1.781268,0.01604758,0,0,10.20528,11.42717,-0.07148985,0.2498315,-0.2097224,-0.7223537,3.932921,-0.5261559,0.1274931,0.1158637,0.2396986,-0.6890982,1.867739,-0.2088805,0.2022294,1.154878,0.6900463,295.5723,325.8483,11.44291
7,0.2111111,-0.01044945,-0.1609386,0.1708588,-1.297366,3.324965,2.961713,-1.780968,0.02753224,0,0,10.05865,11.4565,-0.1012298,0.222203,-0.1913545,-0.7243708,3.934092,-0.5248401,0.1138236,0.08382954,0.1674595,-0.6894498,1.867405,-0.2093111,0.2016133,1.153695,0.6912634,295.6915,326.2467,11.03692
7,0.2222222,-0.04010375,-0.1938969,0.1862609,-1.300474,3.32788,2.962311,-1.780563,0.03706009,0,0,9.853374,11.4956,-0.09908838,0.1838469,-0.1796636,-0.7261716,3.93392,-0.5237165,0.1100406,0.08270206,0.1142348,-0.6900479,1.868802,-0.2115722,0.2010786,1.152748,0.692576,295.8295,326.7354,10.67191
7,0.2333333,-0.05815199,-0.223702,0.1920004,-1.303338,3.330719,2.963736,-1.781263,-0.063944,0,0,9.589444,11.5347,-0.08925334,0.1518472,-0.1435412,-0.7267463,3.934311,-0.5234446,0.1044409,0.08162506,0.09087034,-0.6898456,1.870579,-0.2138255,0.2004754,1.152144,0.6937578,295.9224,327.1833,10.37147
7,0.2444444,-0.09859733,-0.2312824,0.1943607,-1.30601,3.333265,2.965548,-1.78133,-0.005304317,0,0,9.315739,11.5738,-0.06660381,0.09212504,-0.09582172,-0.7255607,3.933472,-0.5228899,0.08714566,0.06352424,0.07191179,-0.6897571,1.870675,-0.2142364,0.199677,1.151955,0.6946924,295.939,327.5891,10.04965
7,0.2555556,-0.1390927,-0.2304316,0.1881055,-1.308264,3.335386,2.967857,-1.780879,0.04143339,0,0,9.042033,11.60313,-0.03793497,0.04518207,-0.09396255,-0.7259553,3.931182,-0.5217716,0.0719254,0.04116399,0.04974321,-0.689813,1.870204,-0.213936,0.1985584,1.152183,0.6954319,295.8791,327.8921,9.734429
7,0.2666667,-0.1998821,-0.2233322,0.176518,-1.310088,3.337411,2.971792,-1.780898,-0.001828847,0,0,8.797654,11.63245,-0.009243194,0.03233521,-0.09847921,-0.7270904,3.930302,-0.5219825,0.07092112,0.01881325,0.06044667,-0.6885741,1.869877,-0.2144372,0.1971083,1.152825,0.6959602,295.7459,327.9921,9.478357
7,0.2777778,-0.2647987,-0.253565,0.1621875,-1.312025,3.341099,2.975832,-1.780911,-0.0008774698,0,0,8.621701,11.64223,0.02179756,0.02159712,-0.07957904,-0.7272049,3.93002,-0.5230949,0.05900225,-0.009939644,0.04783765,-0.6881661,1.868461,-0.2135988,0.1953361,1.153803,0.6965598,295.4951,327.8341,9.340215
7,0.2888889,-0.2945551,-0.2933238,0.1425138,-1.31371,3.345682,2.978743,-1.779738,0.1076177,0,0,8.514174,11.63245,0.03144511,0.01944096,-0.07221233,-0.7278047,3.929802,-0.5235106,0.05759718,-0.03448015,0.02338941,-0.688441,1.866529,-0.2124686,0.1933656,1.154992,0.6974489,295.141,327.476,9.272885
7,0.3,-0.3392101,-0.3460153,0.1145221,-1.314901,3.351491,2.982573,-1.779573,0.01446975,0,0,8.475073,11.6129,0.02632318,0.05673511,-0.05937085,-0.7289429,3.932159,-0.5254057,0.06360233,-0.07820494,-0.003247289,-0.6888106,1.862442,-0.210268,0.1913855,1.156418,0.6983563,294.8271,327.0927,9.201958
7,0.3111111,-0.3988441,-0.3795923,0.08635418,-1.315716,3.356908,2.987463,-1.780976,-0.1278639,0,0,8.504399,11.58358,0.02278697,0.1227784,0.003549941,-0.7288284,3.93885,-0.5305334,0.07080561,-0.1006141,-0.02139588,-0.6890727,1.859515,-0.2089836,0.1894368,1.158051,0.6993433,294.4937,326.6727,9.213453
7,0.3222222,-0.447903,-0.3907304,0.06002378,-1.316137,3.361751,2.992874,-1.780354,0.05826125,0,0,8.572825,11.54448,0.07703231,0.1332651,0.1106776,-0.7254397,3.945021,-0.5378531,0.07050896,-0.1198215,-0.04480535,-0.6899717,1.856133,-0.2071822,0.1875254,1.159791,0.7001882,294.0879,326.186,9.382587
7,0.3333333,-0.5385812,-0.3957926,0.0199165,-1.315592,3.3666,3.000711,-1.779762,0.05380633,0,0,8.641251,11.51515,0.1380852,0.1299014,0.1484887,-0.7235505,3.948712,-0.5443382,0.05618697,-0.1358269,-0.08403578,-0.691698,1.852226,-0.204204,0.1856035,1.161563,0.7008964,293.7398,325.6484,9.592112
7,0.3444445,-0.6409534,-0.3986671,-0.01165064,-1.314897,3.371522,3.010075,-1.779837,-0.006918296,0,0,8.709679,11.4956,0.2009429,0.1340113,0.1479322,-0.7231702,3.952074,-0.5513641,0.05363704,-0.1688883,-0.1159224,-0.6934179,1.847004,-0.200732,0.1836423,1.163354,0.7016134,293.4532,325.0487,9.815059
7,0.3555556,-0.7464504,-0.4056195,-0.02717591,-1.314727,3.376432,3.020616,-1.778004,0.1682105,0,0,8.778104,11.50538,0.1879233,0.08504273,0.1341803,-0.722082,3.951795,-0.5527734,0.07663397,-0.2233056,-0.1448594,-0.694961,1.839661,-0.1966044,0.1816911,1.1652,0.7023808,293.1944,324.3456,10.09124
7,0.3666667,-0.8402103,-0.4178624,-0.04268415,-1.314302,3.381828,3.031391,-1.776964,0.0940536,0,0,8.836755,11.52493,0.1312928,-0.00110323,0.1389136,-0.7190886,3.949471,-0.5504797,0.09119249,-0.262787,-0.1694693,-0.6967767,1.832327,-0.1925018,0.179777,1.167201,0.7033435,292.9997,323.5339,10.43335
7,0.3777778,-0.8998929,-0.4267828,-0.0583486,-1.313649,3.387157,3.042115,-1.776547,0.03808632,0,0,8.895406,11.5738,0.06298336,-0.1202566,0.1575862,-0.714305,3.944415,-0.5450396,0.1087232,-0.3140225,-0.2122066,-0.6995347,1.823017,-0.187192,0.1779005,1.169547,0.7046411,292.833,322.7403,10.76626
7,0.3888889,-0.9883954,-0.4370562,-0.08987352,-1.312072,3.392609,3.054466,-1.777048,-0.04536984,0,0,8.934506,11.64223,0.02783274,-0.2032707,0.1802405,-0.709457,3.94028,-0.5412976,0.1112564,-0.3375502,-0.2676061,-0.7034468,1.814817,-0.1821666,0.1760183,1.172434,0.7062657,292.5898,321.9953,11.15188
7,0.4,-1.071628,-0.4378119,-0.1289878,-1.30964,3.397838,3.067724,-1.778023,-0.08814627,0,0,8.944282,11.71066,-0.02641719,-0.3064853,0.2179706,-0.7026388,3.933866,-0.5341949,0.1033446,-0.334397,-0.309071,-0.7074479,1.808246,-0.1780206,0.1740593,1.175921,0.7081365,292.1494,321.0392,11.82979
7,0.4111111,-1.153857,-0.423643,-0.1682717,-1.30684,3.402245,3.081816,-1.777263,0.07083745,0,0,8.914956,11.75953,-0.06443988,-0.3895088,0.2779291,-0.6949359,3.928617,-0.5283523,0.09019896,-0.3301594,-0.3419615,-0.7116457,1.801614,-0.1734333,0.1719871,1.179971,0.7100711,291.5428,319.7881,12.81056
7,0.4222222,-1.209381,-0.4134862,-0.1937616,-1.304004,3.406747,3.095835,-1.777124,0.01265647,0,0,8.836755,11.78886,-0.08438002,-0.455524,0.330284,-0.6867265,3.923337,-0.5226989,0.06297004,-0.3397655,-0.3938514,-0.7169603,1.793862,-0.1673882,0.1697467,1.184528,0.7121074,290.873,318.1664,14.10983
7,0.4333333,-1.296907,-0.4046415,-0.2308377,-1.300447,3.411176,3.111829,-1.777329,-0.01816195,0,0,8.719453,11.78886,-0.1025491,-0.4991616,0.3357576,-0.6800009,3.91686,-0.516012,0.05103135,-0.342974,-0.4128963,-0.7213801,1.78652,-0.162027,0.1673401,1.189515,0.7142404,290.1409,316.0969,15.77457
7,0.4444444,-1.371551,-0.3943868,-0.241348,-1.297551,3.415518,3.128261,-1.778196,-0.07853804,0,0,8.611927,11.76931,-0.1422275,-0.5331455,0.3158535,-0.6741973,3.909228,-0.5071599,0.02952033,-0.328045,-0.4339859,-0.7262957,1.780614,-0.1572043,0.1648827,1.194864,0.7163655,289.3697,313.7349,17.66689
7,0.4555556,-1.43236,-0.375516,-0.2488056,-1.294634,3.419133,-3.138409,-1.777107,0.1007668,0,0,8.514174,11.73998,-0.1890736,-0.5127925,0.3141384,-0.6689898,3.904952,-0.5000844,0.001781493,-0.3205452,-0.4390176,-0.7306958,1.774466,-0.1517171,0.1624195,1.200453,0.7184248,288.559,311.1601,19.82172
7,0.4666667,-1.475028,-0.3629103,-0.2509228,-1.291797,3.422935,-3.121737,-1.777359,-0.02338764,0,0,8.426197,11.69111,-0.2037298,-0.4701615,0.3323925,-0.6632714,3.903035,-0.4958369,-0.009994358,-0.3152039,-0.4452877,-0.7352716,1.76836,-0.1467961,0.159911,1.206233,0.7205021,287.835,308.4717,22.13402
7,0.4777778,-1.535832,-0.362322,-0.273086,-1.287875,3.42696,-3.103713,-1.778305,-0.08567961,0,0,8.357772,11.652,-0.2129612,-0.4019678,0.3538086,-0.658195,3.903687,-0.4936494,-0.02301987,-0.3141462,-0.467525,-0.7407337,1.761859,-0.1412964,0.1573004,1.212219,0.7226923,287.1689,305.7169,24.52025
7,0.4888889,-1.601993,-0.3780121,-0.3195351,-1.282543,3.431732,-3.085242,-1.77891,-0.0540914,0,0,8.338222,11.62268,-0.2576584,-0.3678065,0.4113977,-0.651896,3.90253,-0.489276,-0.02650195,-0.314176,-0.4930603,-0.7465559,1.755329,-0.1360953,0.1546401,1.218402,0.7249339,286.5192,302.6959,27.13795
7,0.5,-1.648945,-0.3967596,-0.3596334,-1.276765,3.436747,-3.066542,-1.759014,1.82034,0,0,8.377321,11.6129,-0.2949283,-0.3709317,0.4728009,-0.642624,3.903316,-0.4846234,-0.032096,-0.3184577,-0.5164307,-0.7526253,1.748626,-0.130647,0.1518219,1.22476,0.7275363,285.9651,299.1827,30.22364
7,0.5111111,-1.718337,-0.4244626,-0.4293759,-1.269037,3.442266,-3.046568,-1.796954,-3.483616,0,0,8.475073,11.62268,-0.331817,-0.3900431,0.5231931,-0.633402,3.901383,-0.4781133,-0.0514068,-0.3077911,-0.5311508,-0.7587059,1.7429,-0.1253547,0.1482402,1.232188,0.7313277,286.0608,296.5184,32.43378
7,0.5222223,-1.773864,-0.4531126,-0.4938318,-1.260526,3.447885,-3.026324,-1.781475,1.447041,0,0,8.611927,11.63245,-0.3824457,-0.4037922,0.5843599,-0.6232181,3.900544,-0.4712115,-0.06428783,-0.2928659,-0.5427478,-0.764854,1.737814,-0.120483,0.145665,1.239704,0.7323651,285.034,290.5675,37.96432
7,0.5333334,-1.822878,-0.4953903,-0.5400596,-1.252166,3.454329,-3.006323,-1.777718,0.3277624,0,0,8.768329,11.64223,-0.3902473,-0.4165916,0.6685819,-0.6117712,3.900677,-0.4668343,-0.07519199,-0.2726462,-0.5692943,-0.7719998,1.733192,-0.1160667,0.143261,1.2468,0.7330509,284.2013,284.4786,43.67696
7,0.5444446,-1.874094,-0.5173936,-0.5843735,-1.24324,3.459888,-2.985369,-1.777834,-0.01166087,0,0,8.924732,11.64223,-0.384323,-0.4613771,0.7484163,-0.5987005,3.89904,-0.4614419,-0.105474,-0.2811597,-0.6083629,-0.77979,1.726916,-0.1092706,0.1405757,1.25366,0.7342408,284.0127,278.6888,48.99582
7,0.5555557,-1.909298,-0.5306564,-0.6139294,-1.234548,3.465129,-2.964953,-1.778564,-0.06579332,0,0,9.081134,11.58358,-0.4011016,-0.5220818,0.7964761,-0.5858997,3.89455,-0.4526641,-0.1293404,-0.289692,-0.6453751,-0.7878605,1.720497,-0.1024587,0.1375533,1.260514,0.7359642,284.1852,273.9744,53.19362
7,0.5666668,-1.965954,-0.5283171,-0.6680917,-1.224316,3.469492,-2.942868,-1.778611,-0.003296316,0,0,9.217987,11.43695,-0.4351738,-0.5688703,0.8116795,-0.5739262,3.889057,-0.4420155,-0.1305537,-0.2747936,-0.6624302,-0.7954516,1.716001,-0.09792709,0.1342354,1.267532,0.7378798,284.4447,269.9195,56.76673
7,0.577778,-2.000237,-0.5139835,-0.7075564,-1.214081,3.472799,-2.920666,-1.77984,-0.1118183,0,0,9.335289,11.20235,-0.5171099,-0.6624323,0.8496559,-0.5596899,3.87923,-0.4249281,-0.1306975,-0.2769516,-0.6752114,-0.8030224,1.710469,-0.09268333,0.1307346,1.274858,0.7396784,284.768,265.8007,60.35834
7,0.5888891,-2.044242,-0.4797057,-0.7685459,-1.202499,3.474456,-2.897205,-1.779135,0.06582353,0,0,9.423265,10.90909,-0.6008981,-0.7570581,0.918539,-0.5435331,3.868703,-0.4064096,-0.1468593,-0.2758886,-0.6899537,-0.8110098,1.705008,-0.08658629,0.1272211,1.282513,0.74107,285.1299,261.1102,64.46903
7,0.6000003,-2.064836,-0.4432178,-0.8306879,-1.190189,3.474971,-2.87369,-1.779808,-0.06177085,0,0,9.521016,10.61584,-0.6560472,-0.7995501,0.9584272,-0.5283243,3.858996,-0.3887872,-0.1756137,-0.2502676,-0.6939315,-0.818677,1.701591,-0.08121762,0.1237793,1.290525,0.7420557,285.6346,256.0255,68.92026
7,0.6111114,-2.084363,-0.4088786,-0.8949462,-1.177647,3.475084,-2.850143,-1.779731,0.008075581,0,0,9.628544,10.36168,-0.6804957,-0.7973734,0.9639707,-0.5151512,3.85098,-0.3736567,-0.202407,-0.2161622,-0.7149945,-0.8273275,1.698958,-0.07632966,0.1204652,1.298925,0.7428298,286.2723,250.7411,73.53932
7,0.6222225,-2.097416,-0.3979523,-0.958949,-1.163989,3.475102,-2.826391,-1.780562,-0.07573992,0,0,9.755621,10.13685,-0.716356,-0.7589465,0.9941337,-0.5013267,3.846416,-0.3603156,-0.2118214,-0.1958849,-0.7031995,-0.8345835,1.696358,-0.07188511,0.1173348,1.307751,0.7436093,287.1003,245.6661,77.97115
7,0.6333337,-2.097572,-0.3973758,-1.001573,-1.150573,3.475371,-2.803201,-1.781204,-0.05771354,0,0,9.902249,9.960899,-0.731302,-0.7131428,1.099748,-0.4842469,3.845932,-0.3511468,-0.2169138,-0.18306,-0.6850525,-0.8413096,1.693527,-0.06748796,0.1145162,1.316957,0.7444687,288.0728,240.8433,82.21821
7,0.6444448,-2.09579,-0.3856098,-1.088014,-1.134948,3.473908,-2.779517,-1.781457,-0.02248274,0,0,10.0782,9.892473,-0.7068307,-0.6567806,1.200767,-0.4664916,3.847785,-0.3457148,-0.2212023,-0.1734676,-0.68928,-0.8490072,1.690785,-0.06305913,0.112105,1.326404,0.7453065,289.1082,236.4317,86.22337
7,0.655556,-2.1014,-0.3795477,-1.128583,-1.119935,3.471428,-2.753574,-1.782238,-0.07109059,0,0,10.27371,9.931575,-0.6840341,-0.6068198,1.232541,-0.4508982,3.84796,-0.3392207,-0.251757,-0.1435432,-0.6655543,-0.8556694,1.68956,-0.05841857,0.1100466,1.33594,0.7460685,290.2099,232.4881,89.9374
7,0.6666671,-2.109019,-0.3639414,-1.158571,-1.105686,3.468978,-2.728735,-1.78277,-0.04783999,0,0,10.46921,10.0782,-0.68527,-0.5972154,1.211246,-0.4369528,3.843418,-0.3273933,-0.2643369,-0.1190049,-0.6526744,-0.8625036,1.688279,-0.05428854,0.1082522,1.345368,0.7466124,291.3647,229.0068,93.32047
7,0.6777782,-2.098499,-0.3310369,-1.169642,-1.09254,3.465456,-2.704334,-1.781245,0.1400316,0,0,10.64516,10.31281,-0.7120265,-0.5950528,1.196547,-0.4228796,3.837333,-0.3130026,-0.2770132,-0.09020664,-0.6483126,-0.8695732,1.687838,-0.05050845,0.1066092,1.354581,0.746938,292.6653,226.2453,95.97063
7,0.6888894,-2.075159,-0.3012602,-1.175414,-1.079621,3.461737,-2.680635,-1.782444,-0.1106772,0,0,10.78201,10.53763,-0.7276787,-0.5332429,1.213763,-0.4083723,3.839124,-0.3060901,-0.2895637,-0.07311317,-0.6300847,-0.8759115,1.687028,-0.04640532,0.1050446,1.363686,0.7470351,293.9612,224.1757,97.87588
7,0.7000005,-2.037936,-0.2862386,-1.177852,-1.066746,3.457663,-2.657524,-1.783739,-0.1172848,0,0,10.81134,10.66471,-0.7362173,-0.5129781,1.206391,-0.3944706,3.837041,-0.2957486,-0.2955755,-0.0655918,-0.5970019,-0.8812411,1.686177,-0.04233734,0.1033524,1.372773,0.7471179,295.2647,221.9779,99.87131
7,0.7111117,-2.003866,-0.2873082,-1.187547,-1.05343,3.453893,-2.63488,-1.784752,-0.09152684,0,0,10.70381,10.68426,-0.7490987,-0.521467,1.194793,-0.3804336,3.830855,-0.2815073,-0.2814277,-0.06561571,-0.5705218,-0.886472,1.684724,-0.03885579,0.1014727,1.381795,0.7473332,296.5625,219.675,101.9339
7,0.7222228,-1.959226,-0.2820947,-1.211204,-1.039536,3.448746,-2.612211,-1.785563,-0.07359291,0,0,10.47898,10.57674,-0.7585451,-0.5139929,1.20873,-0.3655977,3.826974,-0.2690903,-0.2781741,-0.06561197,-0.5652308,-0.8925222,1.683483,-0.03511538,0.09948232,1.390546,0.7474945,297.8399,217.6861,103.7261
7,0.7333339,-1.926264,-0.2951525,-1.24526,-1.024602,3.443538,-2.589041,-1.785832,-0.02417212,0,0,10.14663,10.37146,-0.764845,-0.50015,1.21411,-0.3508922,3.823047,-0.2566909,-0.2821578,-0.0431978,-0.5439143,-0.8980349,1.683772,-0.03191905,0.09745527,1.398911,0.7475055,299.1256,216.1322,105.0477
7,0.7444451,-1.896417,-0.3143794,-1.258988,-1.010285,3.438725,-2.566529,-1.786326,-0.0451948,0,0,9.736072,10.05865,-0.757584,-0.4969457,1.190624,-0.3377091,3.817164,-0.2431069,-0.2840058,-0.02931575,-0.520474,-0.9028755,1.683829,-0.02870435,0.09539799,1.40686,0.7473571,300.4385,214.9179,105.9779
7,0.7555562,-1.879341,-0.3163627,-1.252636,-0.9968106,3.433201,-2.543065,-1.785726,0.05510719,0,0,9.325513,9.687196,-0.7801312,-0.5469635,1.184409,-0.3230947,3.802534,-0.219813,-0.2925257,-0.03569774,-0.5203871,-0.9088772,1.682616,-0.02446593,0.09331095,1.414456,0.7471757,301.8125,213.9353,106.6242
7,0.7666674,-1.862423,-0.2854526,-1.256243,-0.9838212,3.425372,-2.518288,-1.785924,-0.01885103,0,0,8.944282,9.296188,-0.8109822,-0.5543464,1.192133,-0.3082859,3.791033,-0.1985901,-0.3009187,-0.01543166,-0.5128667,-0.9144816,1.683034,-0.02107839,0.09121551,1.421738,0.7469248,303.1606,213.2137,107.0375
7,0.7777785,-1.845498,-0.2448265,-1.249316,-0.9717854,3.416607,-2.493066,-1.785227,0.0637339,0,0,8.611927,8.914956,-0.8440036,-0.4860963,1.173274,-0.2954159,3.78917,-0.1860319,-0.3112018,0.03149743,-0.4883157,-0.9192044,1.685448,-0.01867382,0.08910222,1.428796,0.7465722,304.4174,212.6161,107.3382
7,0.7888896,-1.819908,-0.2209507,-1.219858,-0.9608706,3.408754,-2.469191,-1.784994,0.02065843,0,0,8.396872,8.631476,-0.8401688,-0.443496,1.113585,-0.2847425,3.783578,-0.17156,-0.3216092,0.07200813,-0.4754826,-0.924143,1.687981,-0.01641919,0.08694144,1.435774,0.746092,305.6256,212.1082,107.5758
7,0.8000008,-1.741128,-0.1087425,-1.122353,-0.9556466,3.39917,-2.447278,-1.785008,-0.001332092,0,0,8.289346,8.406648,-0.8051515,-0.3988043,1.084558,-0.2731972,3.779738,-0.160134,-0.3450266,0.09761995,-0.4784558,-0.9296414,1.690507,-0.01320528,0.08476929,1.44283,0.7455021,306.9052,211.5877,107.8158
7,0.8111119,-1.705031,-0.04318616,-1.084864,-0.9487224,3.388905,-2.42378,-1.785773,-0.07007648,0,0,8.269795,8.103617,-0.790078,-0.3637216,1.095071,-0.2604289,3.776304,-0.1485975,-0.3543261,0.1115243,-0.4549388,-0.9339471,1.692414,-0.01012321,0.08269556,1.450023,0.7447556,308.1934,210.9296,108.2009
7,0.8222231,-1.652997,0.0556199,-1.03293,-0.9444645,3.377064,-2.400728,-1.788576,-0.2558732,0,0,8.338222,7.741935,-0.8035723,-0.3444855,1.009963,-0.2517816,3.76841,-0.1316342,-0.3454973,0.1402993,-0.432705,-0.9379137,1.695491,-0.008543687,0.08080322,1.457337,0.7438183,309.3688,210.092,108.7628
7,0.8333342,-1.604132,0.1545017,-0.9735277,-0.9417098,3.364828,-2.377617,-1.78732,0.1168798,0,0,8.445747,7.292278,-0.8255158,-0.361486,0.9440759,-0.2431413,3.752645,-0.1064995,-0.3484601,0.1573643,-0.4145879,-0.9419824,1.698236,-0.006209427,0.07929283,1.464707,0.7427292,310.4401,209.0027,109.6267
7,0.8444453,-1.578646,0.2457962,-0.9171903,-0.9391797,3.352623,-2.353703,-1.788064,-0.06988691,0,0,8.533725,6.715542,-0.8556135,-0.3443536,0.9102746,-0.2335129,3.742227,-0.08570878,-0.3639633,0.1840896,-0.3782478,-0.945094,1.701848,-0.00386904,0.07812335,1.472083,0.7417085,311.583,207.9224,110.6093
7,0.8555565,-1.542406,0.3149798,-0.8424817,-0.9386019,3.341161,-2.330855,-1.787906,0.01502374,0,0,8.611927,6.109482,-0.838909,-0.2825782,0.8547626,-0.2257785,3.740292,-0.07489368,-0.3738493,0.253435,-0.3217711,-0.9466521,1.708574,-0.003249855,0.07731761,1.479414,0.7409133,312.7214,206.8493,111.6705
7,0.8666676,-1.500776,0.3552315,-0.7813144,-0.937715,3.330794,-2.30937,-1.786632,0.115905,0,0,8.670577,5.513196,-0.8020347,-0.2422241,0.7969285,-0.2184884,3.735031,-0.06217016,-0.3993165,0.2694893,-0.3172674,-0.9503394,1.712973,-0.0005938849,0.07681159,1.486716,0.7404783,313.692,205.9483,112.7009
7,0.8777788,-1.425063,0.4473857,-0.6675938,-0.9414919,3.320559,-2.290054,-1.786755,-0.01254307,0,0,8.729228,4.916912,-0.7617301,-0.1315023,0.7465648,-0.2122934,3.748982,-0.06869837,-0.4143852,0.2737612,-0.3320223,-0.9545925,1.716926,0.002342783,0.07641792,1.494094,0.7403941,314.4801,205.3429,113.6326
7,0.8888899,-1.390925,0.4917967,-0.6139106,-0.9431734,3.310119,-2.269486,-1.78716,-0.03691814,0,0,8.787879,4.437927,-0.7322561,-0.03790498,0.6813476,-0.2069734,3.761919,-0.07421351,-0.4016205,0.2801385,-0.3375154,-0.9587577,1.721119,0.003736948,0.07613102,1.501391,0.7404195,315.1491,204.7577,114.68
7,0.900001,-1.324777,0.5344087,-0.5432594,-0.9466781,3.300744,-2.251627,-1.788843,-0.1539949,0,0,8.86608,4.115348,-0.7186558,-0.03152657,0.6514024,-0.2008988,3.763537,-0.06831647,-0.385683,0.2715797,-0.3398096,-0.9626145,1.724471,0.005524461,0.07584022,1.508487,0.7403868,315.7456,204.1493,115.758
7,0.9111122,-1.24899,0.5578371,-0.4745346,-0.9500641,3.292543,-2.235383,-1.787385,0.1344269,0,0,8.973608,4.02737,-0.716516,-0.05079031,0.659888,-0.1926824,3.755633,-0.05257772,-0.3696201,0.236416,-0.3260945,-0.9657543,1.726143,0.008091216,0.07556559,1.515275,0.7402238,316.3032,203.383,116.9145
7,0.9222233,-1.175343,0.5833602,-0.4090376,-0.9542298,3.284793,-2.220361,-1.788738,-0.1255433,0,0,9.120235,4.173998,-0.7303973,-0.05074501,0.6568109,-0.1856048,3.75484,-0.04320712,-0.3673617,0.2172442,-0.3101115,-0.9685587,1.728171,0.01099726,0.07514744,1.521789,0.7399845,316.9016,202.7229,117.9196
7,0.9333345,-1.123024,0.6001339,-0.3561308,-0.9586954,3.27747,-2.20546,-1.78926,-0.04689005,0,0,9.305963,4.516129,-0.7185783,-0.06357479,0.6737292,-0.177537,3.749505,-0.03043327,-0.3651362,0.2236421,-0.3026868,-0.9715536,1.73146,0.01301886,0.07459597,1.527965,0.7396334,317.4892,202.0375,118.8677
7,0.9444456,-1.102697,0.5875605,-0.3443306,-0.9614054,3.269662,-2.189355,-1.789587,-0.03003818,0,0,9.511242,4.946238,-0.7101709,-0.04116821,0.6555585,-0.1710602,3.753605,-0.02686384,-0.3603917,0.242877,-0.2644284,-0.9732314,1.735726,0.0142069,0.073919,1.533698,0.739179,318.0387,201.3423,119.7674
7,0.9555568,-1.085455,0.553771,-0.3237561,-0.9638475,3.263349,-2.174268,-1.788809,0.07091659,0,0,9.706745,5.376344,-0.6987263,-0.02625775,0.6203123,-0.1653685,3.756077,-0.02188932,-0.3464943,0.2385939,-0.259248,-0.9759122,1.738808,0.01586125,0.07313456,1.538965,0.7387012,318.5844,200.6721,120.556
7,0.9666679,-1.036972,0.4770569,-0.2473868,-0.9658864,3.26155,-2.163462,-1.787199,0.1460487,0,0,9.882699,5.767351,-0.6903229,-0.06357276,0.6159532,-0.1586727,3.743296,-0.002084456,-0.3223707,0.2086856,-0.2893089,-0.9802217,1.74044,0.01761947,0.07219832,1.543891,0.7383305,319.1154,200.117,121.1838
7,0.977779,-0.9993368,0.429828,-0.1979634,-0.9682471,3.258917,-2.152282,-1.786734,0.04098406,0,0,10.0391,6.119258,-0.6817557,-0.1115438,0.6339556,-0.1510641,3.723272,0.02481134,-0.3139668,0.2022631,-0.2989805,-0.9837856,1.742917,0.01941152,0.07107414,1.548603,0.738078,319.6346,199.7759,121.6116
7,0.9888902,-0.981008,0.4079871,-0.1572789,-0.9713193,3.255776,-2.14005,-1.788005,-0.1166731,0,0,10.16618,6.412513,-0.6736416,-0.1296527,0.5923133,-0.1460243,3.708382,0.04673422,-0.2901709,0.2044038,-0.2683555,-0.9857009,1.746032,0.02000966,0.06976744,1.553115,0.737812,320.0189,199.4501,122.0558
7,1.000001,-0.9637209,0.4131532,-0.08495507,-0.9762526,3.254288,-2.129035,-1.7878,0.01944965,0,0,10.24438,6.568915,-0.6936039,-0.177499,0.515744,-0.1432067,3.681645,0.08163121,-0.2739758,0.1916157,-0.2461425,-0.9876636,1.748131,0.02135882,0.06827971,1.557198,0.7373185,320.2761,198.9698,122.6541
7,1.011112,-0.943395,0.4523081,-0.02261668,-0.9826835,3.2519,-2.11797,-1.786551,0.1135997,0,0,10.27371,6.637341,-0.6929162,-0.1849169,0.4752527,-0.1394618,3.662863,0.10789,-0.2716715,0.1799334,-0.2291141,-0.9897159,1.750238,0.02307869,0.06656012,1.560872,0.7366526,320.6273,198.4782,123.1239
7,1.022224,-0.9241774,0.4837776,0.02062875,-0.9891049,3.249674,-2.107301,-1.786338,0.01827316,0,0,10.26393,6.647117,-0.6762006,-0.1816548,0.436818,-0.135736,3.649967,0.1276898,-0.2691868,0.177841,-0.1961119,-0.9906464,1.752506,0.02468324,0.06463919,1.564334,0.7358726,321.0168,198.0475,123.3677
7,1.033335,-0.8728907,0.5092571,0.08834821,-0.9964238,3.248994,-2.099151,-1.786476,-0.01282697,0,0,10.2346,6.617791,-0.6570953,-0.1795554,0.4281273,-0.1317386,3.630722,0.1532692,-0.2743781,0.1693665,-0.1821933,-0.9921899,1.75471,0.02666916,0.06266331,1.567732,0.7349694,321.3507,197.5425,123.585
7,1.044446,-0.8131582,0.5108035,0.1115556,-1.00228,3.247565,-2.091219,-1.786479,-0.0004228853,0,0,10.21505,6.647117,-0.6633824,-0.1176726,0.422937,-0.1267755,3.633515,0.1584416,-0.2742139,0.1704508,-0.1672814,-0.9935109,1.757092,0.02847186,0.06082879,1.571171,0.7339628,321.6979,196.9914,123.8624
7,1.055557,-0.7619109,0.4811761,0.1127819,-1.006785,3.246335,-2.083762,-1.787788,-0.1199604,0,0,10.20528,6.88172,-0.6706991,-0.0409506,0.4177162,-0.1220069,3.646243,0.1536529,-0.2451866,0.1778603,-0.1441654,-0.9941804,1.759619,0.02892539,0.05922219,1.574765,0.7329188,322.0462,196.3918,124.2678
7,1.066668,-0.6966096,0.4080395,0.1240554,-1.009517,3.246921,-2.078389,-1.788121,-0.02969614,0,0,10.20528,7.341155,-0.6288002,0.03348982,0.4365622,-0.1161362,3.663996,0.1415896,-0.2252302,0.1809929,-0.1710223,-0.9970326,1.762477,0.02929237,0.05795258,1.578395,0.7318537,322.374,195.6525,124.9411
7,1.077779,-0.6495025,0.3529181,0.1330509,-1.012173,3.247587,-2.073173,-1.788003,0.01056785,0,0,10.1955,8.025416,-0.6055046,0.006805122,0.4278189,-0.1118885,3.650852,0.1604869,-0.2211982,0.1766968,-0.1913026,-0.9997789,1.764727,0.03037735,0.0568976,1.58197,0.7309209,322.7632,194.8945,125.8021
7,1.08889,-0.6312853,0.3339268,0.143882,-1.016086,3.247879,-2.066731,-1.788579,-0.05319894,0,0,10.1955,8.895406,-0.6103553,-0.06561673,0.3819787,-0.1102117,3.614262,0.2038248,-0.210569,0.1905253,-0.196767,-1.002091,1.767985,0.0306663,0.05592161,1.585326,0.730217,323.15,194.1949,126.6762
7,1.100002,-0.6130834,0.3342903,0.1693813,-1.020666,3.248684,-2.060963,-1.788225,0.03253349,0,0,10.1955,9.912024,-0.6132741,-0.1741886,0.3223332,-0.1095459,3.563615,0.2612809,-0.2072282,0.2043807,-0.1861673,-1.003708,1.771339,0.03105006,0.05489539,1.588225,0.7297661,323.4462,193.5587,127.4618
7,1.111113,-0.6023713,0.343106,0.1916216,-1.025802,3.249445,-2.055147,-1.786664,0.141992,0,0,10.1955,10.90909,-0.5801008,-0.2200297,0.2314573,-0.1110639,3.530141,0.2997785,-0.2112425,0.2140124,-0.1658993,-1.004761,1.774697,0.0316538,0.05373815,1.590589,0.7295907,323.6406,193.0919,127.9618
7,1.122224,-0.5905548,0.3628682,0.2382254,-1.031999,3.251367,-2.050121,-1.786519,0.01181891,0,0,10.18573,11.85728,-0.5549447,-0.2030205,0.1801078,-0.1114038,3.51526,0.3197815,-0.2205754,0.2087374,-0.1412881,-1.005312,1.777202,0.03308019,0.05245635,1.592608,0.7296637,323.7038,192.8166,128.1604
7,1.133335,-0.5457957,0.4094123,0.2865445,-1.039797,3.252988,-2.046408,-1.786193,0.02956868,0,0,10.18573,12.7175,-0.5010315,-0.1615788,0.1221118,-0.1119636,3.515756,0.3231147,-0.2028954,0.2173033,-0.08503065,-1.004177,1.780422,0.03293132,0.05111324,1.594414,0.7298617,323.679,192.6069,128.2855
7,1.144446,-0.512805,0.4449649,0.3115706,-1.046967,3.25429,-2.042519,-1.78607,0.01076906,0,0,10.18573,13.33333,-0.4426375,-0.1190584,0.08862745,-0.1117004,3.51901,0.323031,-0.1824505,0.2172816,-0.06607676,-1.00427,1.783285,0.03276008,0.04980485,1.596128,0.730053,323.6024,192.4042,128.4006
7,1.155557,-0.4523154,0.5188088,0.3211507,-1.056225,3.253985,-2.039385,-1.787241,-0.1072665,0,0,10.1955,13.73412,-0.4190883,-0.05840057,0.08417855,-0.1105579,3.527482,0.3185031,-0.1890052,0.2140773,-0.08091721,-1.005663,1.785974,0.03362481,0.04869705,1.597742,0.7300461,323.484,192.1275,128.5772
7,1.166668,-0.4110729,0.5955229,0.3094591,-1.065568,3.252587,-2.035602,-1.787011,0.02165615,0,0,10.22483,13.91984,-0.434234,-0.02532351,0.05131767,-0.1105041,3.53413,0.3177111,-0.1837693,0.2002137,-0.08735134,-1.006895,1.788124,0.03429805,0.04791737,1.59933,0.7297928,323.4171,191.7262,128.9084
7,1.17778,-0.3985968,0.6754239,0.3052867,-1.076164,3.250698,-2.030681,-1.788115,-0.1014913,0,0,10.26393,13.90029,-0.4587967,-0.05402648,0.05258538,-0.1104802,3.519011,0.3386755,-0.145471,0.1607191,-0.08452014,-1.00772,1.788712,0.03433986,0.04729298,1.601121,0.7294011,323.4294,191.2567,129.4374
7,1.188891,-0.3902,0.7116799,0.3058949,-1.085757,3.249889,-2.026161,-1.787663,0.04179291,0,0,10.31281,13.75367,-0.4384095,-0.0178746,0.05985256,-0.1095555,3.522436,0.3395291,-0.1335113,0.1671118,-0.06335108,-1.007688,1.791235,0.03416276,0.04705598,1.602945,0.728894,323.5946,190.7424,130.0063
7,1.200002,-0.3804591,0.674482,0.3105553,-1.09297,3.250441,-2.022574,-1.786259,0.1275644,0,0,10.36168,13.59726,-0.3554096,0.04052582,0.03251914,-0.1092397,3.54616,0.3169622,-0.1181882,0.1703219,-0.02623316,-1.006669,1.793583,0.03372015,0.04730849,1.604805,0.7284328,323.8268,190.1995,130.611
7,1.211113,-0.3866585,0.6351476,0.3195623,-1.099729,3.251629,-2.018865,-1.785675,0.05218689,0,0,10.42033,13.47019,-0.3225943,0.03938678,0.008769206,-0.1102096,3.551207,0.3142834,-0.1159687,0.1724544,-0.01880287,-1.006596,1.795873,0.03371429,0.04802729,1.60685,0.7281247,323.9723,189.6508,131.3387
7,1.222224,-0.3854231,0.6130482,0.342192,-1.107355,3.253129,-2.015339,-1.785698,-0.002538479,0,0,10.47898,13.36266,-0.2868631,0.05105314,-0.05012017,-0.112166,3.565584,0.3021271,-0.1058912,0.2023086,0.02046755,-1.005051,1.799652,0.03257579,0.04906129,1.609059,0.7279686,324.0071,189.0636,132.3011
7,1.233335,-0.3746389,0.5984225,0.3636314,-1.114985,3.254925,-2.012323,-1.785105,0.05416337,0,0,10.54741,13.28446,-0.2444772,0.06161262,-0.07925726,-0.1136866,3.578995,0.2900981,-0.1026233,0.2044312,0.02575425,-1.004536,1.80226,0.03206659,0.05026684,1.611097,0.7278137,323.9901,188.4879,133.3608
7,1.244446,-0.3701484,0.5657599,0.3938323,-1.122093,3.257782,-2.009606,-1.784936,0.01487449,0,0,10.60606,13.23558,-0.1743382,0.0699746,-0.1001183,-0.1150848,3.591452,0.2774859,-0.1019004,0.1841539,-0.001927671,-1.00553,1.803852,0.0323132,0.05139638,1.612957,0.7276449,323.9588,187.9577,134.2619
7,1.255558,-0.3571824,0.5383718,0.4164781,-1.128984,3.260772,-2.007365,-1.785181,-0.02259859,0,0,10.66471,13.21603,-0.1264961,0.09223687,-0.1175712,-0.1164339,3.610937,0.2578417,-0.09489478,0.1478621,-0.03605041,-1.007273,1.803979,0.0331473,0.05240256,1.61465,0.7273683,323.8701,187.4663,134.9952
7,1.266669,-0.3237054,0.4192244,0.4198741,-1.131778,3.264878,-2.006745,-1.784927,0.02332925,0,0,10.73314,13.20626,-0.1116544,0.06023692,-0.116656,-0.1178001,3.609522,0.2602148,-0.06619003,0.1222314,-0.03632878,-1.007633,1.804521,0.03258218,0.05317859,1.616158,0.7269131,323.7777,186.939,135.767
7,1.27778,-0.2868132,0.240449,0.4260883,-1.130992,3.271417,-2.007677,-1.7852,-0.02524839,0,0,10.80156,13.18671,-0.1123226,0.07726213,-0.07615799,-0.116966,3.619625,0.2514477,-0.04925,0.1115189,-0.04502299,-1.008396,1.805372,0.03192944,0.05361178,1.617479,0.726235,323.7064,186.3849,136.496
7,1.288891,-0.290705,0.1349092,0.4220113,-1.131346,3.276913,-2.006598,-1.786218,-0.09293754,0,0,10.88954,13.16716,-0.120911,0.07411079,-0.08139008,-0.1174518,3.630867,0.2421559,-0.04482489,0.1125942,-0.03015713,-1.008139,1.806956,0.0314474,0.05364069,1.618584,0.725314,323.6988,185.8598,137.0701
7,1.300002,-0.3135174,-0.04208905,0.4166992,-1.127168,3.284477,-2.005636,-1.786601,-0.03433333,0,0,10.97752,13.10851,-0.1382941,0.001722381,-0.09938543,-0.119741,3.614784,0.2602699,-0.03488656,0.1051478,0.003835918,-1.006784,1.807833,0.03105139,0.05323968,1.619229,0.7241278,323.7723,185.3506,137.5038
7,1.311113,-0.409683,-0.2135127,0.4563547,-1.122961,3.29481,-2.002358,-1.784812,0.1636437,0,0,11.07527,13.15738,-0.1457283,-0.03340888,-0.0854764,-0.1205043,3.603822,0.2731698,-0.04033251,0.08915412,-0.004609856,-1.007172,1.808107,0.03149268,0.05212065,1.619336,0.7227898,323.9101,184.8006,137.8661
7,1.322224,-0.4795632,-0.2899926,0.4979821,-1.120581,3.304272,-1.998821,-1.783697,0.1002703,0,0,11.17302,13.34311,-0.1337771,0.01129737,-0.07170981,-0.1203147,3.617741,0.2604055,-0.04276052,0.04652259,-0.02370603,-1.008166,1.806917,0.03269456,0.05020487,1.618984,0.7214163,324.0443,184.3594,137.9344
7,1.333336,-0.5157309,-0.2414777,0.5593455,-1.123276,3.312723,-1.995816,-1.78018,0.3210506,0,0,11.27077,13.65591,-0.1280224,0.1263267,-0.05573449,-0.1192414,3.662533,0.2169685,-0.035414,0.01241129,-0.02693842,-1.008661,1.805613,0.03357793,0.04744345,1.618143,0.7199578,324.1111,184.0356,137.6825
7,1.344447,-0.4901513,-0.2208715,0.5824652,-1.124983,3.320556,-1.994614,-1.780232,-0.007293248,0,0,11.36852,14.10557,-0.1716122,0.1754481,-0.0595715,-0.1191797,3.691568,0.1913905,-0.005262682,-0.0121191,0.007930362,-1.007321,1.804203,0.03336222,0.04395358,1.616871,0.7182168,323.9917,183.787,137.0987
7,1.355558,-0.4229094,-0.2450026,0.5931566,-1.124687,3.329264,-1.995781,-1.781674,-0.1313424,0,0,11.4565,14.69208,-0.2087091,0.163811,-0.03474699,-0.1185224,3.703234,0.1833099,0.01505735,-0.006843371,0.01409527,-1.006871,1.804245,0.03250495,0.03981886,1.615779,0.7161246,323.8668,183.642,136.2294
7,1.366669,-0.2993048,-0.2528568,0.607688,-1.12521,3.336951,-1.999669,-1.784167,-0.2268104,0,0,11.50538,15.32747,-0.2556106,0.1159774,-0.02370691,-0.1185251,3.698712,0.1921351,0.01902357,-0.004757425,-0.01364962,-1.007947,1.804311,0.03211426,0.03557161,1.61521,0.7137197,323.9388,183.4248,135.2305
7,1.37778,-0.2174078,-0.1883143,0.6354104,-1.128533,3.345088,-2.003424,-1.786425,-0.2044918,0,0,11.52493,15.96285,-0.3172879,-0.006400317,0.02365162,-0.117635,3.663079,0.23305,0.003584336,-0.01864057,-0.05927442,-1.010255,1.803539,0.03309537,0.03166229,1.615327,0.7112286,324.2742,182.9855,134.4594
7,1.388891,-0.2005001,-0.1798925,0.6181779,-1.129946,3.351313,-2.00398,-1.789493,-0.2790545,0,0,11.50538,16.56892,-0.368315,-0.08406591,0.05708227,-0.1169064,3.630543,0.2709053,-0.008265316,0.0005255751,-0.07515407,-1.011518,1.804009,0.03336781,0.02837099,1.615965,0.70893,324.7374,182.4724,133.7419
7,1.400002,-0.2270013,0.03142649,0.5668114,-1.139039,3.352049,-2.000745,-1.788934,0.05283907,0,0,11.4565,17.0088,-0.4282942,-0.112666,0.02883247,-0.1181511,3.612824,0.2954303,-0.03377365,0.04957781,-0.07920321,-1.012501,1.806603,0.03320216,0.02621777,1.617153,0.7072085,325.1406,181.8915,133.1088
7,1.411114,-0.2548744,0.1309897,0.6158245,-1.14707,3.358398,-1.999608,-1.785933,0.2731507,0,0,11.38807,17.22385,-0.4643778,-0.1338992,0.05043097,-0.1178161,3.595156,0.3191514,-0.05391297,0.07519608,-0.07475636,-1.013018,1.808703,0.03333053,0.02490968,1.618903,0.7063942,325.3439,181.0465,133.4981
7,1.422225,-0.2705967,0.3934101,0.649037,-1.161862,3.360945,-1.997255,-1.783895,0.1839325,0,0,11.29032,17.2043,-0.47497,-0.1360072,0.05798048,-0.1174539,3.579795,0.3400218,-0.08678919,0.1008442,-0.06591123,-1.013384,1.811135,0.03417182,0.02450476,1.62088,0.706457,325.3792,180.4662,134.0734
7,1.433336,-0.2498949,0.605985,0.6912351,-1.178237,3.363605,-1.99609,-1.783415,0.04228894,0,0,11.19257,16.95992,-0.5026969,-0.06348252,0.03377437,-0.1171493,3.596555,0.329685,-0.1088054,0.1136972,-0.03586502,-1.012756,1.812681,0.0351713,0.02457129,1.623529,0.7074297,325.2685,179.9068,135.1978
7,1.444447,-0.1656743,0.7229147,0.8259476,-1.194054,3.371529,-1.999936,-1.783851,-0.03955463,0,0,11.07527,16.53959,-0.5439361,0.01436526,0.04697316,-0.1153293,3.615427,0.3183058,-0.1364472,0.1041736,-0.02916039,-1.012833,1.813522,0.0369463,0.02487223,1.626411,0.7089473,324.928,179.059,136.8354
7,1.455558,-0.1114077,0.8360839,0.9213897,-1.211315,3.378624,-2.003046,-1.785048,-0.1094782,0,0,10.97752,16.05083,-0.5887218,0.06455451,0.02821764,-0.1148866,3.636168,0.3056872,-0.1588356,0.1063488,-0.03105196,-1.013186,1.81499,0.03869946,0.02524601,1.629508,0.7107841,324.49,178.2366,138.4283
7,1.466669,-0.1197199,1.188932,1.033435,-1.239562,3.382371,-2.002522,-1.788063,-0.2748329,0,0,10.88954,15.67937,-0.6518621,0.09029722,-0.01274612,-0.115774,3.652662,0.2982413,-0.1802423,0.1074468,-0.04041411,-1.014012,1.816458,0.04061933,0.0257901,1.632526,0.712622,323.9717,177.3816,139.9649
7,1.47778,-0.1672651,1.679909,1.034276,-1.276062,3.378316,-1.997187,-1.787715,0.03447472,0,0,10.80156,15.46432,-0.6870728,0.1393982,-0.03265163,-0.115888,3.680582,0.2793469,-0.1831409,0.1447651,-0.02018919,-1.013512,1.819699,0.04104011,0.02644697,1.634914,0.7141641,323.4364,176.1944,141.7254
7,1.488891,-0.1204237,2.023501,1.064178,-1.310997,3.374596,-1.995874,-1.784899,0.2563334,0,0,10.70381,15.42522,-0.6798748,0.1745411,-0.07318001,-0.117096,3.708524,0.2584883,-0.1796493,0.1650144,0.003180969,-1.01266,1.822316,0.04145663,0.02705809,1.636724,0.7154451,323.0163,174.9993,143.2528
7,1.500003,-0.1090338,2.669883,1.309097,-1.366354,3.374345,-1.994929,-1.78216,0.2470555,0,0,10.60606,15.62072,-0.675011,0.2235647,-0.1392491,-0.1199115,3.750453,0.2241833,-0.1794865,0.1767493,0.01594829,-1.011942,1.82507,0.0419882,0.02798281,1.638675,0.716721,322.7233,173.976,144.3028
7,1.511114,-0.07736921,2.808128,1.368083,-1.405442,3.375346,-1.995322,-1.78565,-0.3221163,0,0,10.50831,16.10948,-0.6689255,0.1905295,-0.1659404,-0.1220228,3.761934,0.2197491,-0.1824705,0.1852959,0.03301097,-1.011005,1.827588,0.04262389,0.02996907,1.641841,0.7183483,322.5103,173.3248,144.8455
7,1.522225,-0.04784131,3.348205,1.536407,-1.464877,3.373254,-1.995713,-1.785428,0.02405782,0,0,10.39101,16.87195,-0.7004481,0.1149955,-0.2157707,-0.1262903,3.758796,0.2317512,-0.1726155,0.1757224,0.05955046,-1.009455,1.829389,0.04328809,0.03397608,1.646661,0.7204997,322.3006,172.4015,145.7323
7,1.533336,-0.09860229,3.524609,1.513212,-1.513184,3.369387,-1.992263,-1.786306,-0.07914759,0,0,10.27371,17.90812,-0.8012518,0.07806194,-0.2787569,-0.1309034,3.767959,0.2354125,-0.1704246,0.1874352,0.06270134,-1.008647,1.832206,0.04359595,0.04058497,1.652619,0.7231604,322.1479,170.0525,149.0664
7,1.544447,-0.2111042,3.714061,1.528392,-1.563416,3.366357,-1.985717,-1.786609,-0.02703111,0,0,10.1564,19.13001,-0.797859,0.02372545,-0.3598058,-0.1376364,3.768394,0.2440734,-0.152857,0.2609483,0.09650617,-1.006224,1.838745,0.04122493,0.04933786,1.658106,0.7259695,322.3786,167.4074,153.7016
7,1.555558,-0.2934983,3.838656,1.548516,4.670079,3.364302,-1.979826,-1.782588,0.3660188,0,0,10.0391,20.35191,-0.737197,-0.09036601,-0.4552161,-0.1468866,3.748851,0.2695535,-0.1219085,0.2608787,0.1014991,-1.004826,1.841891,0.0398582,0.05996559,1.66283,0.7290521,322.8611,164.7062,158.759
7,1.566669,-0.3255432,3.851445,1.55803,4.623565,3.363401,-1.975591,-1.778956,0.3278171,0,0,9.951125,21.42718,-0.7194651,-0.1031776,-0.4937305,-0.1537986,3.751554,0.2742113,-0.1123733,0.2523316,0.09821021,-1.003812,1.84466,0.03930267,0.07163525,1.666739,0.7323486,323.4104,162.3347,163.8623
7,1.577781,-0.3764095,3.741127,1.523257,4.581825,3.363269,-1.969689,-1.779642,-0.06431334,0,0,9.882699,22.33627,-0.7461866,-0.1126953,-0.5009553,-0.1600389,3.752619,0.2824621,-0.04981341,0.1808013,0.08484,-1.003433,1.843802,0.03803953,0.08367739,1.670115,0.7355672,323.8237,160.0695,168.7924
7,1.588892,-0.3863103,3.491036,1.451511,4.547701,3.363596,-1.965119,-1.781885,-0.2033176,0,0,9.833823,23.04008,-0.6880215,-0.1693535,-0.4131019,-0.1626994,3.735027,0.3062025,-0.02345699,0.135971,0.06756608,-1.003294,1.843687,0.03760756,0.09550524,1.672944,0.7383236,324.3961,157.7998,173.6177
7,1.600003,-0.3677342,3.292159,1.384527,4.515265,3.364328,-1.961577,-1.780871,0.09474599,0,0,9.804497,23.51906,-0.6100932,-0.2324164,-0.3776017,-0.1669701,3.713821,0.3313974,-0.01724038,0.06883984,0.06439047,-1.002827,1.841629,0.03858414,0.1064029,1.675069,0.7404393,325.331,155.7032,178.1005
7,1.611114,-0.3220906,2.890748,1.207951,4.494396,3.364079,-1.96009,-1.782427,-0.1430715,0,0,9.804497,23.77322,-0.5482476,-0.3327102,-0.3387403,-0.1712807,3.681395,0.3677399,-0.04475209,0.0465505,0.08602764,-1.000961,1.841331,0.04032559,0.1158346,1.67681,0.7418705,326.2415,154.0421,181.6656
7,1.622225,-0.2970858,2.675303,1.091146,4.468712,3.363373,-1.958382,-1.783679,-0.113291,0,0,9.804497,23.75367,-0.5375803,-0.3764204,-0.3250076,-0.1763055,3.657394,0.3969873,-0.06916267,0.04554788,0.09481533,-0.9995941,1.84183,0.04163959,0.123574,1.678412,0.7426578,327.1129,152.8578,184.1683
7,1.633336,-0.2338151,2.357848,0.8922242,4.452798,3.360383,-1.958423,-1.785204,-0.1390483,0,0,9.824047,23.47019,-0.4693998,-0.3361735,-0.2147935,-0.1765798,3.643185,0.4144931,-0.08705763,0.06371766,0.1120284,-0.9977922,1.843619,0.04233387,0.1293582,1.679542,0.7428285,328.1496,151.9491,186.232
7,1.644447,-0.1714295,2.051305,0.7188296,4.438506,3.357974,-1.959818,-1.784206,0.09144185,0,0,9.833823,22.98143,-0.404971,-0.3523332,-0.1514284,-0.177783,3.620434,0.4394562,-0.08818504,0.08182158,0.1034952,-0.9968302,1.845551,0.04241883,0.1328219,1.68013,0.7426675,329.1967,151.5356,187.5453
7,1.655559,-0.1422458,1.792029,0.5853861,4.427184,3.355469,-1.959832,-1.784195,-0.0008466537,0,0,9.843597,22.44379,-0.3755455,-0.2959779,-0.09199524,-0.1776536,3.610052,0.4529576,-0.1119173,0.07756495,0.0771226,-0.9968452,1.846109,0.04412538,0.1343423,1.68041,0.742645,329.907,151.3003,188.0736
7,1.66667,-0.07431078,1.358325,0.3761502,4.427068,3.352922,-1.962405,-1.784255,-0.006893001,0,0,9.833823,21.96481,-0.3582216,-0.1969559,-0.08891338,-0.178296,3.619204,0.4474784,-0.1205754,0.08181808,0.06336413,-0.9964926,1.847092,0.04509291,0.1343616,1.680802,0.7431431,330.1463,151.3168,188.0258
7,1.677781,-0.01918995,0.9312804,0.1912885,4.432289,3.350537,-1.964681,-1.781159,0.2817108,0,0,9.804497,21.58358,-0.3183629,-0.133151,-0.05727972,-0.1775087,3.622821,0.4460374,-0.1135025,0.07430073,0.02920606,-0.9973501,1.847797,0.04574219,0.1333314,1.681053,0.7442729,330.0828,151.3499,187.6853
7,1.688892,0.02087408,0.606997,0.05325784,4.436401,3.348625,-1.967152,-1.781464,-0.03188661,0,0,9.765396,21.27077,-0.2173329,-0.04394211,0.01857892,-0.1738448,3.627967,0.4401143,-0.1138522,0.07637887,-0.003817618,-0.9984516,1.848708,0.04638295,0.1317629,1.68127,0.7460784,329.7112,151.3219,187.3672
7,1.700003,0.06732608,0.221531,-0.1267401,4.450079,3.345654,-1.970284,-1.779191,0.2064635,0,0,9.716519,21.06549,-0.08968522,-0.01234044,0.1069364,-0.1694346,3.623345,0.4411833,-0.1462252,0.0700051,-0.04074722,-1.000267,1.849476,0.04876008,0.1295483,1.680957,0.7482358,329.1918,151.4658,187.0826
7,1.711114,0.1178657,-0.08802712,-0.2841876,4.462669,3.342477,-1.974324,-1.776993,0.1971846,0,0,9.648094,21.00684,-0.01852127,-0.02534456,0.2053808,-0.165018,3.603481,0.4589345,-0.1924246,0.05620158,-0.07432974,-1.002264,1.849508,0.05246587,0.1267916,1.680446,0.7507246,328.491,151.6877,186.6014
7,1.722225,0.1649983,-0.3325551,-0.4381332,4.477235,3.337831,-1.978829,-1.774802,0.1969011,0,0,9.608994,20.88954,0.05577585,0.05860643,0.2697402,-0.1589018,3.609243,0.4504085,-0.1934043,0.06367011,-0.06793687,-1.002701,1.850745,0.05387042,0.1236298,1.679571,0.7533159,327.7176,151.8719,186.0945
7,1.733337,0.1736073,-0.4570992,-0.5230139,4.488449,3.33364,-1.98233,-1.772986,0.1624339,0,0,9.579668,20.66471,0.1416504,0.229895,0.2946172,-0.1515323,3.649377,0.4061784,-0.1952718,0.05731717,-0.04233687,-1.002129,1.85123,0.05579296,0.1200543,1.678453,0.7558502,326.8175,152.3025,185.3416
7,1.744448,0.1846054,-0.6379125,-0.59234,4.50413,3.330704,-1.98526,-1.770371,0.2357148,0,0,9.579668,20.30303,0.1812211,0.3278091,0.2847184,-0.1462363,3.686322,0.3663002,-0.1720166,-0.003328234,0.05124354,-0.9983925,1.848376,0.05848009,0.1162197,1.676981,0.7581795,325.8992,152.8968,184.2871
7,1.755559,0.2095052,-0.7893914,-0.6162452,4.51951,3.329849,-1.988942,-1.766628,0.3383285,0,0,9.599218,19.70675,0.2768918,0.3584799,0.2529761,-0.1427944,3.715612,0.3311082,-0.1417156,-0.01291826,0.09673955,-0.9957815,1.847633,0.05940713,0.1124261,1.675409,0.7603939,325.0404,153.6139,183.0429
7,1.76667,0.228945,-0.8842926,-0.6280088,4.533984,3.328572,-1.992572,-1.763398,0.2904352,0,0,9.628544,19.56012,0.3167311,0.2944874,0.1993194,-0.1425361,3.720285,0.3218893,-0.1221461,-0.04486719,0.1391835,-0.9928403,1.845409,0.06115923,0.1089047,1.673935,0.762571,324.3248,154.2211,181.992
7,1.777781,0.2364799,-0.909858,-0.6298721,4.546858,3.326631,-1.995763,-1.761685,0.1520209,0,0,9.657869,20.04888,0.3078766,0.2337961,0.1791293,-0.1413132,3.719645,0.3193814,-0.1307849,-0.07894433,0.13506,-0.9916174,1.842778,0.06436168,0.105601,1.67253,0.7646177,323.7166,154.7709,181.1483
7,1.788892,0.2407084,-0.9013275,-0.6299905,4.558209,3.324259,-1.999088,-1.758739,0.2659726,0,0,9.687196,21.14369,0.2907411,0.2487537,0.1643803,-0.1390916,3.735811,0.3010232,-0.1285006,-0.1142124,0.05731033,-0.9941974,1.840004,0.06736306,0.1022567,1.671118,0.7664853,323.2749,155.2087,180.5558
7,1.800003,0.2554718,-0.8468533,-0.6221519,4.567788,3.321375,-2.002887,-1.755206,0.3187514,0,0,9.706745,22.85435,0.2481775,0.2211556,0.1775346,-0.1363506,3.740709,0.2949379,-0.1310983,-0.1398252,0.01901896,-0.9954869,1.837192,0.07042596,0.09880124,1.669955,0.768307,322.7995,155.6995,179.8188
7,1.811115,0.2669355,-0.7453121,-0.5967373,4.574428,3.318078,-2.006809,-1.752267,0.2641417,0,0,9.69697,25.34702,0.1370948,0.2245851,0.2626834,-0.1299229,3.74572,0.2924574,-0.1304345,-0.1771449,-0.009704176,-0.9967881,1.83364,0.07404041,0.09537738,1.668893,0.7700673,322.2852,156.2839,178.859
7,1.822226,0.2602655,-0.6342671,-0.5734926,4.579788,3.314425,-2.009974,-1.749729,0.2278498,0,0,9.706745,28.48485,0.1274583,0.2395259,0.2499861,-0.1269641,3.765106,0.2715884,-0.127168,-0.1206961,-0.01407772,-0.9969815,1.834487,0.07486173,0.09210017,1.667784,0.7717691,321.8149,156.8735,177.909
7,1.833337,0.2548261,-0.5722298,-0.5507495,4.586043,3.311616,-2.013063,-1.746862,0.2581982,0,0,9.765396,32.17987,0.1801435,0.1584504,0.207924,-0.1264554,3.756222,0.2765735,-0.1374077,-0.0492672,0.01044292,-0.9958869,1.836764,0.07550887,0.08922065,1.666736,0.7735381,321.3189,157.4573,176.8935
7,1.844448,0.2664238,-0.4886336,-0.511268,4.590404,3.309059,-2.016915,-1.743085,0.3411591,0,0,9.872923,36.18769,0.1985621,0.07533783,0.1469947,-0.1274834,3.741381,0.2882667,-0.1422956,-0.01618824,0.04454558,-0.9941016,1.837686,0.07677174,0.08702994,1.665837,0.7755091,320.8599,157.9597,176.0165
7,1.855559,0.2629865,-0.4108217,-0.5068267,4.59436,3.304953,-2.020233,-1.740087,0.2692501,0,0,10.04888,39.81427,0.1498381,0.0648428,0.06326861,-0.1294243,3.748791,0.2808583,-0.1389421,-0.02895617,0.06157178,-0.9929026,1.836678,0.07873822,0.08556146,1.66482,0.7776357,320.55,158.2994,175.6686
7,1.86667,0.2319064,-0.3458726,-0.501066,4.598467,3.300773,-2.022374,-1.737815,0.2032125,0,0,10.2346,42.53177,0.1198725,0.01591803,0.06138264,-0.1290669,3.738563,0.2907951,-0.1401349,-0.0683828,0.05738046,-0.9927247,1.833422,0.08206823,0.08450036,1.663524,0.7798589,320.3557,158.4868,175.8301
7,1.877781,0.2030501,-0.3193498,-0.5023295,4.603302,3.296819,-2.024127,-1.733964,0.348118,0,0,10.43011,44.22288,0.08286974,-0.05325673,0.1117565,-0.1271585,3.707695,0.3218119,-0.1575335,-0.06732522,0.0245411,-0.9936776,1.832618,0.08487095,0.08365405,1.662179,0.7823175,320.1051,158.6424,176.0027
7,1.888893,0.1721289,-0.3044604,-0.4959873,4.60843,3.293397,-2.025519,-1.729417,0.4104699,0,0,10.61584,44.94624,0.09927288,0.01699832,0.1372112,-0.1237667,3.722341,0.3052347,-0.168242,-0.03322897,0.01289326,-0.993897,1.833724,0.08655593,0.08298966,1.660926,0.7850724,319.713,158.9016,176.0029
7,1.900004,0.1529515,-0.2787005,-0.4738399,4.612491,3.290261,-2.026921,-1.725654,0.3383566,0,0,10.79179,44.79961,0.1357984,0.07442404,0.1539484,-0.1209251,3.73942,0.2853487,-0.161989,-0.003444239,-0.004261781,-0.9945011,1.835043,0.08771494,0.08243917,1.659826,0.7880681,319.2454,159.1991,175.9683
7,1.911115,0.1422608,-0.2325839,-0.4445004,4.615138,3.287146,-2.02861,-1.721912,0.3368475,0,0,10.88954,43.91985,0.1508627,0.1478855,0.15387,-0.1180324,3.768127,0.2549694,-0.1628199,0.03173199,0.01061676,-0.9937021,1.836918,0.08856209,0.08197878,1.658854,0.7911537,318.712,159.5135,175.8357
7,1.922226,0.1420891,-0.1556291,-0.4230112,4.616327,3.28318,-2.030685,-1.718344,0.320808,0,0,10.90909,42.53177,0.1975986,0.2393823,0.1140645,-0.1170981,3.814635,0.2050977,-0.1593334,0.03175797,0.03721212,-0.9921207,1.837048,0.08999301,0.08158563,1.657971,0.7941679,318.1741,159.7865,175.705
7,1.933337,0.1653195,-0.04532921,-0.3806915,4.614787,3.279254,-2.033686,-1.714867,0.3125525,0,0,10.85044,40.73314,0.1995008,0.2127534,0.09592383,-0.1163418,3.826412,0.1911063,-0.1410755,-0.02577585,0.0615919,-0.9906709,1.833672,0.09256482,0.08121916,1.657045,0.7969697,317.7399,159.9998,175.6525
7,1.944448,0.1715456,0.020908,-0.3665604,4.614404,3.275018,-2.036263,-1.711105,0.3384135,0,0,10.71359,38.72923,0.1425748,0.2011782,0.0463279,-0.1174795,3.839241,0.1786819,-0.1150292,-0.06091226,0.1135574,-0.987693,1.830735,0.09471107,0.08088966,1.65607,0.7995855,317.4107,160.1888,175.5932
7,1.955559,0.1701649,0.1264843,-0.3571202,4.611618,3.269443,-2.038709,-1.70763,0.3116738,0,0,10.56696,37.087,0.09754405,0.2002388,0.01477248,-0.1179589,3.85923,0.1593106,-0.1103662,-0.05554748,0.1497223,-0.9847293,1.829867,0.09624051,0.0806876,1.655117,0.8021076,317.0981,160.3695,175.5064
7,1.966671,0.1701553,0.1458301,-0.3424232,4.611454,3.265569,-2.040969,-1.70243,0.4692527,0,0,10.40078,35.77713,0.09610736,0.1629627,-0.01399616,-0.1188963,3.864747,0.1529392,-0.1189824,-0.05127931,0.1423553,-0.9835464,1.829501,0.09873536,0.08071271,1.654129,0.8046322,316.8506,160.4746,175.5336
7,1.977782,0.1680877,0.1438647,-0.3274775,4.611479,3.262053,-2.043117,-1.696944,0.4938209,0,0,10.26393,34.76051,0.08717667,0.1022757,-0.04270881,-0.1206039,3.858162,0.1588301,-0.1288682,-0.04064616,0.1126174,-0.983499,1.829456,0.1005996,0.08096661,1.653096,0.8073091,316.6374,160.6137,175.6054
7,1.988893,0.1574842,0.1354537,-0.3166748,4.61155,3.258682,-2.044633,-1.691502,0.4895957,0,0,10.1564,34.00782,0.1034406,0.1256451,-0.0183647,-0.1198177,3.873817,0.1414077,-0.1121073,-0.01409164,0.08150852,-0.9836519,1.830393,0.1008446,0.08150038,1.651931,0.8102075,316.4051,160.7182,175.7983
7,2.000004,0.1384308,0.1400595,-0.281496,4.610869,3.256095,-2.045807,-1.685821,0.5113525,0,0,10.08798,33.44086,0.1388837,0.1436712,0.01118495,-0.1180595,3.893591,0.1192651,-0.07622874,0.01667792,0.04379282,-0.9844162,1.832144,0.09944936,0.0821478,1.65057,0.8132999,316.0929,160.72,176.2009
7,2.011115,0.1149986,0.1507566,-0.270878,4.610289,3.252751,-2.046691,-1.679305,0.5872963,0,0,10.0782,32.88367,0.1366699,0.109587,0.01118834,-0.1179312,3.894307,0.1170875,-0.06671809,0.01558222,0.03623126,-0.9843059,1.832268,0.0996475,0.08279976,1.64903,0.8165519,315.6266,160.7331,176.4774
7,2.022226,0.09584282,0.1636752,-0.253901,4.609292,3.249693,-2.04748,-1.672835,0.582204,0,0,10.0782,32.94233,0.1448932,0.06806264,-0.009133097,-0.118418,3.893919,0.1159471,-0.06139682,0.01876562,0.03510426,-0.9839283,1.832609,0.09996415,0.08355252,1.647491,0.8199617,315.0179,160.7325,176.6094
7,2.033337,0.08320493,0.1587002,-0.2197043,4.608464,3.247841,-2.048171,-1.6661,0.6065698,0,0,10.06843,33.78299,0.1361572,0.07874889,-0.03568285,-0.1195466,3.904202,0.1044851,-0.06338833,-0.00145396,0.05113236,-0.9827964,1.831402,0.1012254,0.08433025,1.645845,0.8233275,314.436,160.5889,177.0392
7,2.044448,0.07792951,0.1609992,-0.2037232,4.607599,3.245504,-2.049155,-1.659458,0.5975497,0,0,10.04888,35.34702,0.135982,0.1000571,-0.06018455,-0.1209022,3.919945,0.08742865,-0.04269163,-0.006769352,0.09353255,-0.9802728,1.830653,0.1013373,0.08504014,1.644156,0.8265814,313.8905,160.4825,177.5037
7,2.055559,0.07676483,0.2188128,-0.1788176,4.604291,3.242475,-2.050275,-1.652763,0.6025128,0,0,10.00978,37.59531,0.1436911,0.05426514,-0.1380454,-0.1251228,3.915859,0.08964014,-0.01063444,-0.04729516,0.1092177,-0.9787415,1.828335,0.1014638,0.08565433,1.642614,0.8297547,313.3841,160.3618,177.9192
7,2.06667,0.07778284,0.240213,-0.1716122,4.602001,3.239279,-2.051493,-1.646109,0.5984351,0,0,9.912024,40.51809,0.1372877,0.006326005,-0.1273689,-0.1263974,3.902341,0.1015786,0.007273793,-0.06971816,0.09413636,-0.9785029,1.826636,0.101615,0.08607336,1.641094,0.8327233,312.9505,160.1838,178.3506
7,2.077781,0.07652597,0.3192697,-0.1522791,4.596852,3.235412,-2.052771,-1.639124,0.6288108,0,0,9.784947,43.35289,0.1250215,-0.02243604,-0.06228571,-0.1249518,3.890839,0.112045,0.008957013,-0.05806154,0.05042316,-0.9794792,1.826433,0.1015229,0.08629829,1.639644,0.8355556,312.559,160.0617,178.6313
7,2.088892,0.06902278,0.3471061,-0.1387219,4.593194,3.232234,-2.053591,-1.631983,0.6426323,0,0,9.657869,45.8651,0.07337454,-0.06918963,0.01168951,-0.1220324,3.872891,0.1307836,-0.03923995,-0.04307904,0.02322958,-0.9799948,1.826822,0.1033189,0.08643723,1.638267,0.8383057,312.189,159.9429,178.8571
7,2.100003,0.04768404,0.3911542,-0.1040125,4.587743,3.228995,-2.053408,-1.624621,0.6626056,0,0,9.530792,47.86901,0.02577704,-0.01898825,0.03985848,-0.1204494,3.887106,0.118394,-0.05634799,-0.0185558,0.0127284,-0.9801642,1.827608,0.1041205,0.08659616,1.636977,0.8410859,311.8322,159.8614,179.0072
7,2.111114,0.03701738,0.416906,-0.08509369,4.583103,3.226186,-2.053817,-1.616803,0.7042376,0,0,9.462366,48.79766,0.03541935,0.04278021,0.02914611,-0.1201565,3.908132,0.09684452,-0.03075033,-0.007955117,0.01350367,-0.9798611,1.827902,0.1033615,0.08694536,1.635689,0.8439006,311.4656,159.6941,179.2439
7,2.122225,0.02100718,0.4468949,-0.06832796,4.577718,3.223157,-2.05407,-1.608285,0.7677788,0,0,9.364614,48.64125,0.04586478,0.05448433,0.002418986,-0.1210732,3.916759,0.08724063,-0.01455851,-0.04204157,0.04000544,-0.9787186,1.825756,0.1041285,0.08766864,1.634464,0.8468272,310.9528,159.5814,179.1911
7,2.133336,0.01141497,0.4554589,-0.06199891,4.573218,3.220252,-2.054282,-1.601341,0.6233166,0,0,9.227761,47.45846,0.04328145,0.05876718,-0.04976705,-0.1235014,3.923213,0.08030469,-0.009989724,-0.05585791,0.07087103,-0.9769407,1.824165,0.1049208,0.08926916,1.633606,0.849946,310.3214,159.3531,179.1601
7,2.144447,0.009300441,0.4500987,-0.06513015,4.569281,3.217082,-2.054903,-1.593696,0.6887174,0,0,9.051809,45.29815,0.06205633,0.04807407,-0.08936145,-0.1257896,3.924183,0.07828975,-0.009522498,-0.03769756,0.1102583,-0.9743862,1.824151,0.1049693,0.09147939,1.632549,0.8528905,310.0536,158.9048,180.0438
7,2.155558,0.0102938,0.3869038,-0.09427305,4.567318,3.214043,-2.055394,-1.586045,0.6885172,0,0,8.82698,42.48289,0.089739,0.03841822,-0.0885511,-0.1267478,3.925267,0.07533763,-0.00734137,-0.01320025,0.1102026,-0.9730716,1.824779,0.1046502,0.09400212,1.631227,0.8556901,309.964,158.3677,181.3193
7,2.166669,0.005280539,0.3239133,-0.1094741,4.566892,3.211428,-2.055467,-1.578747,0.6562546,0,0,8.52395,39.75562,0.097431,0.03411161,-0.06199745,-0.1265033,3.925382,0.07385638,0.001020119,-0.00897672,0.09411927,-0.9728176,1.824774,0.1043011,0.09643156,1.629671,0.8583814,309.8776,157.8331,182.708
7,2.17778,0.0108779,0.2193048,-0.1285253,4.568828,3.210109,-2.055959,-1.570656,0.7290702,0,0,8.191594,37.15543,0.09243102,-0.002116427,-0.01615916,-0.1251808,3.914196,0.08414418,0.01327482,-0.009067576,0.04498077,-0.973983,1.824804,0.1037064,0.09863862,1.628206,0.8612446,309.5525,157.6364,183.2956
7,2.188891,0.0153729,0.1457427,-0.1351559,4.570107,3.208727,-2.056621,-1.563109,0.6784658,0,0,7.859237,34.68231,0.09135574,-0.02130254,-0.00977238,-0.1253427,3.905698,0.09196774,0.009823008,0.001555873,0.01836747,-0.9746776,1.825274,0.1033277,0.1010629,1.627134,0.8644367,308.9299,157.5967,183.2978
7,2.200002,0.01341526,0.07201304,-0.1534698,4.572856,3.207473,-2.056873,-1.555523,0.6824749,0,0,7.546432,32.37537,0.08049589,-0.01167709,-0.03523808,-0.1266621,3.907937,0.08923826,0.001208492,0.01221267,0.007792726,-0.9749577,1.825924,0.1032627,0.1031543,1.625702,0.8672176,308.5419,157.1118,184.3443
7,2.211113,0.01554323,0.06348918,-0.1565537,4.572528,3.205581,-2.057188,-1.547621,0.7111468,0,0,7.311829,30.26393,0.1052204,0.00422962,-0.01734623,-0.1263009,3.913036,0.08182935,0.004534546,0.01860835,0.01840202,-0.9741827,1.82628,0.1028713,0.1044527,1.624024,0.8697543,308.3202,156.8741,185.2314
7,2.222224,0.01982746,0.06142221,-0.1522844,4.572712,3.203933,-2.057789,-1.539011,0.7756433,0,0,7.165201,28.35777,0.1308713,0.007359356,-0.009053997,-0.1260847,3.914313,0.07815499,0.01337739,0.01437087,0.04920723,-0.9724762,1.826061,0.10252,0.1048622,1.622231,0.8722916,308.0748,156.8405,185.5524
7,2.233335,0.0209443,0.03470634,-0.1604879,4.573741,3.202436,-2.058239,-1.530606,0.756233,0,0,7.106549,26.57869,0.1268551,0.08086784,-0.0004543364,-0.1254338,3.941661,0.04987408,0.004145745,0.01337074,0.08233176,-0.9704127,1.82596,0.1028396,0.1044564,1.620283,0.874859,307.6141,156.9142,185.3296
7,2.244446,0.01463126,0.001564533,-0.1686026,4.575826,3.201072,-2.058335,-1.522504,0.7286885,0,0,7.1261,24.87781,0.1022414,0.1363582,-0.02360185,-0.1258301,3.973612,0.01848447,0.0191978,-0.0004865117,0.09710068,-0.9689645,1.825276,0.1023599,0.1037205,1.618377,0.8776013,306.9516,156.9002,184.8377
7,2.255557,-0.001254052,-0.04017374,-0.1808373,4.578656,3.199823,-2.057952,-1.513895,0.7751853,0,0,7.214077,23.25513,0.09012714,0.03625683,-0.04058431,-0.1270291,3.948997,0.04231763,0.03159861,-0.04635575,0.07039316,-0.9693533,1.82266,0.1030374,0.1028959,1.616427,0.8804167,306.2758,156.8048,184.5606
7,2.266668,-0.03526096,-0.08412781,-0.1951099,4.58199,3.19862,-2.056362,-1.504967,0.8039476,0,0,7.302053,21.652,0.0806299,-0.01913472,-0.01602322,-0.1264267,3.928113,0.06237976,0.03127063,-0.06236802,0.04272024,-0.9699531,1.821398,0.1034151,0.1021398,1.614433,0.8832751,305.6151,156.7481,184.3933
7,2.277779,-0.07985041,-0.1408131,-0.2039023,4.586272,3.197305,-2.053988,-1.495993,0.8080668,0,0,7.40958,20.23461,0.08415942,0.007461749,0.01590893,-0.1250306,3.934302,0.05543636,0.02045328,-0.003789442,0.01612603,-0.9705544,1.823948,0.102124,0.1014544,1.612337,0.8860611,305.0081,156.6884,184.4457
7,2.28889,-0.1053334,-0.1610703,-0.2003989,4.589189,3.195981,-2.052101,-1.486417,0.8631796,0,0,7.517106,19.03226,0.09393143,0.004232869,0.03712596,-0.1238668,3.933236,0.05509734,0.01714783,0.00578663,0.003363025,-0.9708628,1.824495,0.1016004,0.1007554,1.610218,0.8887614,304.4145,156.6647,184.5362
7,2.300001,-0.1381706,-0.1649061,-0.1544195,4.590999,3.196892,-2.049216,-1.477338,0.817435,0,0,7.624634,18.05474,0.09435399,-0.01283015,0.09037796,-0.120981,3.928337,0.05908729,0.01607253,0.01750291,0.0001631863,-0.9709257,1.825258,0.1010419,0.100254,1.608517,0.8915746,303.5924,156.798,184.0855
7,2.311112,-0.154099,-0.1486985,-0.1300448,4.592126,3.196812,-2.047173,-1.469832,0.6742436,0,0,7.741935,17.2825,0.09781361,0.007379048,0.1127124,-0.1190726,3.93281,0.05330823,0.00971498,0.01751763,0.003430967,-0.9706594,1.825273,0.1011588,0.1004335,1.607662,0.8945738,302.6192,157.0722,183.2007
7,2.322223,-0.1828078,-0.142145,-0.1087092,4.593461,3.196852,-2.044037,-1.461428,0.7577259,0,0,7.849463,16.78397,0.07480513,0.02019935,0.1566058,-0.1155737,3.937722,0.04848231,0.0001882529,0.007959807,0.01100359,-0.9702748,1.82492,0.1017365,0.1014108,1.607422,0.8974294,302.0269,157.0495,183.0566
7,2.333334,-0.2136371,-0.1496213,-0.1010443,4.595622,3.197088,-2.040655,-1.454447,0.6268337,0,0,7.956989,16.66667,0.0322749,0.003238559,0.1708249,-0.1133798,3.929826,0.0576396,-0.0009468589,-0.02719554,0.01105781,-0.9703877,1.82287,0.1028918,0.1026958,1.607414,0.8997893,301.9651,156.5426,184.1449
7,2.344445,-0.2413576,-0.1561138,-0.1040394,4.59752,3.196831,-2.036688,-1.446058,0.756964,0,0,8.044967,16.9697,-0.01808826,-0.06054705,0.1541996,-0.1127401,3.902403,0.08669735,8.776411E-05,-0.04743696,0.01213852,-0.9703451,1.821257,0.1037639,0.1036739,1.607281,0.90155,302.2078,156.1531,185.3863
7,2.355556,-0.2721859,-0.1893727,-0.1152551,4.601281,3.196723,-2.032545,-1.438565,0.67397,0,0,8.132942,17.59531,-0.02733894,-0.07014586,0.1958158,-0.1094037,3.886365,0.1035509,-0.01494532,-0.05912954,0.003791546,-0.9707771,1.820055,0.1052561,0.1040282,1.607191,0.9030102,302.3513,156.022,186.071
7,2.366668,-0.2721073,-0.1956386,-0.1034599,4.603811,3.197294,-2.029631,-1.431114,0.6712753,0,0,8.22092,18.37732,0.01164037,0.002159253,0.2476971,-0.104438,3.906743,0.08177795,-0.02796614,-0.0303766,-0.02380775,-0.9720788,1.821241,0.1054052,0.1036708,1.607193,0.904331,302.3007,156.1618,185.9961
7,2.377779,-0.2612174,-0.2217756,-0.06377792,4.606611,3.199708,-2.026894,-1.424423,0.6019902,0,0,8.347996,19.06158,0.004090905,-0.02445368,0.2445572,-0.1020891,3.892552,0.0961023,-0.03329261,-0.009066464,-0.0280421,-0.9725103,1.822227,0.1053997,0.1028975,1.607446,0.9056572,302.0234,156.4472,185.3459
7,2.38889,-0.2569484,-0.219596,-0.06062989,4.608996,3.200009,-2.024211,-1.419458,0.4449219,0,0,8.543499,19.57967,-0.03117968,-0.06376028,0.2406085,-0.09961767,3.870498,0.1195829,-0.02366306,-0.01973214,-0.02280689,-0.9725822,1.821377,0.1055842,0.1018223,1.607983,0.9070244,301.7926,156.7694,184.7597
7,2.400001,-0.2592025,-0.1650716,-0.04420647,4.608677,3.200044,-2.021161,-1.413943,0.4966293,0,0,8.797654,19.9609,-0.0652886,-0.1211701,0.2558362,-0.09617899,3.83694,0.1550969,-0.00482201,-0.0517616,-0.04747027,-0.9742386,1.819342,0.1060615,0.1004336,1.608557,0.9083102,301.7032,156.9241,184.4444
7,2.411112,-0.2849362,-0.1258536,-0.05415381,4.60908,3.19918,-2.017234,-1.407988,0.5365265,0,0,9.100685,20.14663,-0.07584868,-0.1786817,0.281474,-0.09292355,3.786275,0.2067516,-0.03054588,-0.03469048,-0.06532727,-0.9755809,1.819749,0.1070479,0.09875634,1.609195,0.9095987,301.5854,156.9813,184.1541
7,2.422223,-0.3030939,-0.1206986,-0.06266533,4.610753,3.198926,-2.013288,-1.402,0.5393652,0,0,9.462366,20.01955,-0.09606957,-0.1775684,0.2827171,-0.09035626,3.759186,0.2354109,-0.06037322,-0.02397794,-0.06715082,-0.9763676,1.820025,0.1086644,0.09694388,1.609764,0.9108819,301.4211,157.1791,183.629
7,2.433334,-0.3200679,-0.1334503,-0.05499502,4.612638,3.19945,-2.009053,-1.39569,0.5689504,0,0,9.784947,19.8436,-0.1160367,-0.08057696,0.2840122,-0.08670507,3.781903,0.2146188,-0.08176114,-0.01010229,-0.07652973,-0.9774835,1.820614,0.1102016,0.09532209,1.610329,0.9122274,301.1885,157.3206,183.0369
7,2.444445,-0.3200037,-0.1418847,-0.04637013,4.614576,3.200257,-2.005581,-1.390722,0.4463883,0,0,10.04888,19.68719,-0.09140718,-0.0390754,0.2859454,-0.0831833,3.786522,0.2099474,-0.07735564,-0.00583259,-0.06380153,-0.9777775,1.820732,0.1107587,0.09413602,1.610819,0.9135408,300.981,157.4814,182.5801
7,2.455556,-0.2944188,-0.1288323,-0.03063831,4.615326,3.200861,-2.003196,-1.385936,0.4311121,0,0,10.2346,19.62854,-0.04998589,0.009839565,0.2589573,-0.08097075,3.80535,0.1902027,-0.07399826,-0.01647187,-0.04677378,-0.9776533,1.819917,0.111869,0.0933038,1.611143,0.9146935,300.8572,157.6145,182.4311
7,2.466667,-0.2731457,-0.1287446,-0.03068875,4.616273,3.201338,-2.000442,-1.382342,0.3221488,0,0,10.30303,19.89247,-0.03724679,0.01193978,0.25032,-0.07855047,3.798911,0.1962968,-0.06962446,-0.02285724,-0.03509357,-0.977664,1.819323,0.1128062,0.09277574,1.611438,0.9156873,300.7139,157.6141,182.4996
7,2.477778,-0.2443569,-0.1500911,-0.04226917,4.618892,3.20154,-1.998799,-1.379258,0.2766537,0,0,10.25415,20.45943,-0.03216793,0.009808093,0.2236394,-0.07712035,3.795565,0.1997698,-0.0706301,-0.01006744,-0.03190015,-0.9778398,1.819852,0.1133883,0.09234986,1.611761,0.9165052,300.6242,157.5351,182.7456
7,2.488889,-0.2219153,-0.1842531,-0.05474215,4.622365,3.201876,-1.997123,-1.374838,0.3990007,0,0,10.1173,21.16325,-0.0429035,-0.0008156002,0.2152071,-0.07518636,3.784121,0.2118656,-0.07269692,-0.01218486,-0.02548316,-0.9779234,1.819647,0.1144041,0.09205177,1.612164,0.9172235,300.5381,157.53,182.7131
7,2.5,-0.2026785,-0.1990661,-0.05144682,4.62507,3.20261,-1.995532,-1.371816,0.270298,0,0,9.921799,21.96481,-0.04830503,-0.0359579,0.2163061,-0.0732284,3.752519,0.2441599,-0.07380135,-0.0207109,-0.02758553,-0.9782893,1.818933,0.1156297,0.091946,1.612688,0.9179299,300.4702,157.608,182.5372
7,2.511111,-0.1877194,-0.1945963,-0.03663576,4.626816,3.203736,-1.993949,-1.36794,0.3495606,0,0,9.687196,22.76637,-0.044321,-0.09242283,0.1991965,-0.07261375,3.703968,0.2925967,-0.06959593,-0.02925427,-0.03188541,-0.9789924,1.818064,0.1165575,0.0918873,1.613153,0.9185963,300.5495,157.8073,182.4866
7,2.522222,-0.197442,-0.1617017,-0.04443588,4.627695,3.203302,-1.991455,-1.364166,0.3394507,0,0,9.501467,23.34311,-0.0847559,-0.06569706,0.1963831,-0.07054554,3.697856,0.3009984,-0.06864273,-0.0335302,-0.04147831,-0.9798686,1.817533,0.1175674,0.09160826,1.613423,0.9192445,300.6577,158.01,182.5405
7,2.533333,-0.2028872,-0.1211913,-0.04062535,4.62768,3.202937,-1.98904,-1.360436,0.3357081,0,0,9.364614,24.32063,-0.07537337,-0.04227084,0.1675441,-0.06956709,3.699725,0.2996956,-0.06961008,-0.0303203,-0.03294638,-0.9798723,1.817373,0.1184579,0.09102727,1.613464,0.9198951,300.6675,158.0666,182.603
7,2.544444,-0.1923219,-0.09017503,-0.03679492,4.62747,3.20198,-1.987433,-1.355745,0.4236933,0,0,9.266863,25.89443,-0.05319117,-0.06469583,0.1513487,-0.0691101,3.671399,0.3275012,-0.07926901,-0.03563983,-0.03816244,-0.9805365,1.816647,0.1201267,0.09002464,1.613237,0.9205328,300.6215,157.9895,182.7677
7,2.555555,-0.1700563,-0.05169759,-0.03200115,4.626844,3.20158,-1.986431,-1.352217,0.3166889,0,0,9.208211,28.01564,-0.04254332,-0.0466091,0.1459333,-0.06775668,3.66539,0.3335087,-0.09325059,-0.02817189,-0.05187141,-0.9816033,1.816763,0.1215973,0.08872838,1.612884,0.9212377,300.3957,158.0412,182.5529
7,2.566666,-0.1625872,-0.05274513,-0.03201734,4.62766,3.201567,-1.984997,-1.349581,0.2361778,0,0,9.169111,30.68426,-0.06917162,-0.001804873,0.1334075,-0.0662488,3.682969,0.3176573,-0.09326822,-0.01966094,-0.05508405,-0.9823719,1.816839,0.1225344,0.08760852,1.612738,0.9221464,299.8614,158.2768,181.5938
7,2.577777,-0.1551772,-0.04963671,-0.04167007,4.628402,3.200994,-1.983622,-1.346908,0.2402017,0,0,9.13001,34.0176,-0.1033663,-0.03794183,0.131571,-0.06535824,3.654349,0.3486413,-0.07083806,-0.005852908,-0.05214317,-0.9826798,1.817346,0.1223097,0.08737732,1.613099,0.9233258,299.2709,158.5211,180.5137
7,2.588888,-0.1638053,-0.02516724,-0.04621866,4.627879,3.199334,-1.981505,-1.343165,0.3378932,0,0,9.139785,37.34116,-0.08344049,-0.09335332,0.1122036,-0.06568314,3.609882,0.3932075,-0.07204337,0.01329978,-0.06920442,-0.9839805,1.818454,0.1224649,0.08789047,1.613419,0.9242983,299.2186,158.3782,180.755
7,2.599999,-0.1629253,0.02270291,-0.05533334,4.626361,3.197108,-1.979916,-1.339759,0.3062481,0,0,9.188662,40.45944,-0.02694882,-0.1350456,0.1255141,-0.06531722,3.556904,0.4441777,-0.09351328,0.04314354,-0.09032115,-0.9856008,1.820459,0.1231637,0.08868021,1.613515,0.9250485,299.4439,158.1858,181.5452
7,2.61111,-0.1267124,0.04108994,-0.04183514,4.625322,3.196666,-1.979783,-1.335519,0.3827474,0,0,9.296188,43.17693,0.01056789,-0.07335766,0.133712,-0.06318669,3.565225,0.4343975,-0.1062078,0.05808915,-0.08487893,-0.9862202,1.821914,0.1239832,0.08957426,1.613518,0.9257846,299.493,158.2037,181.8002
7,2.622221,-0.09686647,0.04981627,-0.03245499,4.624702,3.196512,-1.979872,-1.332459,0.2742429,0,0,9.462366,44.90714,0.003275145,-0.03712625,0.1423199,-0.06114298,3.565698,0.4342034,-0.1019664,0.05062532,-0.08491673,-0.9870932,1.82237,0.1247307,0.09090763,1.613776,0.926747,299.1875,158.3302,181.3765
7,2.633332,-0.09479554,0.06793192,-0.03267413,4.623561,3.195649,-1.979019,-1.330554,0.1694966,0,0,9.648094,45.6696,-0.03293737,-0.03277566,0.14052,-0.05992325,3.549985,0.4513144,-0.07214322,0.02286945,-0.07987326,-0.9878793,1.821432,0.1249638,0.09294473,1.614309,0.927839,298.9259,158.2345,181.3356
7,2.644443,-0.1140638,0.1052228,-0.02664226,4.621335,3.194677,-1.977102,-1.327105,0.3111077,0,0,9.853374,45.5132,-0.03635844,-0.03702344,0.116042,-0.05977518,3.536585,0.4650694,-0.0494604,0.01114582,-0.04814214,-0.9873766,1.821133,0.1250437,0.09521998,1.614615,0.928699,299.1304,157.7684,182.4696
7,2.655554,-0.1206275,0.1778218,-0.01041523,4.617415,3.193547,-1.975797,-1.322027,0.4586872,0,0,10.0782,44.4868,-0.02108607,-0.06472808,0.04557815,-0.0621438,3.526238,0.4751279,-0.05243073,-0.001600437,-0.02465566,-0.9868844,1.820508,0.1260405,0.09707048,1.614448,0.9293908,299.5405,157.3168,183.8565
7,2.666665,-0.1187339,0.2653383,0.002405494,4.611877,3.191645,-1.974721,-1.316556,0.493236,0,0,10.30303,42.8739,0.0007354766,-0.1063092,-0.005779739,-0.06506955,3.502821,0.4974777,-0.05675215,-0.01863399,-0.02671422,-0.9873568,1.819743,0.1273417,0.0982123,1.613854,0.9301248,299.7944,156.9848,184.8338
7,2.677776,-0.1244093,0.3739942,0.004362501,4.605262,3.189014,-1.973482,-1.3126,0.3544192,0,0,10.47898,41.30987,0.00177481,-0.0850037,-0.01430215,-0.06532627,3.501818,0.4984316,-0.03769322,-0.01763624,-0.03864042,-0.9881201,1.819447,0.1274205,0.09843455,1.612817,0.9309434,299.8961,156.5559,185.7058
7,2.688887,-0.1460784,0.4933285,0.01157398,4.596449,3.18564,-1.971516,-1.308185,0.3975134,0,0,10.56696,39.8045,-0.009206049,-0.08922783,-0.05041984,-0.06735401,3.499071,0.5015281,-0.03122406,-0.004850559,-0.03339472,-0.9883103,1.820108,0.1269611,0.09784789,1.611504,0.9319364,299.6927,156.0703,186.1576
7,2.699998,-0.1754344,0.7281407,0.05259372,4.580765,3.180472,-1.969213,-1.302986,0.4684215,0,0,10.54741,38.36755,-0.0411792,-0.09874551,-0.05013312,-0.06856255,3.480117,0.5218619,-0.04947551,0.02712257,-0.05241772,-0.9893153,1.821887,0.1272125,0.09696624,1.610131,0.93315,299.2192,155.5598,186.2142
7,2.711109,-0.1952298,0.9435263,0.07359196,4.563784,3.17494,-1.967139,-1.296905,0.5482317,0,0,10.43988,37.0088,-0.06753389,-0.05607874,-0.03069784,-0.06798518,3.487808,0.5157449,-0.04752503,0.03454881,-0.07055739,-0.9906006,1.822741,0.1272525,0.09620443,1.608709,0.9344479,298.7161,154.9702,186.3394
7,2.72222,-0.2403968,1.068072,0.0755308,4.548581,3.169848,-1.963592,-1.290819,0.5479637,0,0,10.25415,35.7478,-0.07818897,-0.08055701,-0.02528242,-0.06891941,3.466722,0.5378169,-0.04217497,0.03560612,-0.06848819,-0.9912727,1.823331,0.1271918,0.0962942,1.607636,0.9359472,297.9747,154.1743,186.2734
7,2.733331,-0.3043798,1.115007,0.09866363,4.535147,3.166348,-1.958603,-1.285185,0.506404,0,0,10.01955,34.60411,-0.08488984,-0.132732,-0.04548642,-0.07163157,3.435596,0.5700462,-0.05370077,0.05908377,-0.05560948,-0.9911646,1.824971,0.1271611,0.09831551,1.607273,0.9376128,297.2926,152.8197,186.7496
7,2.744442,-0.3432981,1.193817,0.01692964,4.521465,3.15789,-1.955124,-1.277788,0.6677736,0,0,9.736072,33.54839,-0.07996884,-0.1071653,-0.09665564,-0.07423349,3.451518,0.554831,-0.05900513,0.07507295,-0.05663862,-0.9916488,1.826745,0.127037,0.102332,1.607038,0.9389117,297.4181,151.2639,188.519
7,2.755553,-0.3719972,1.403723,-0.0642498,4.501488,3.14582,-1.952312,-1.270304,0.6742504,0,0,9.41349,32.58065,-0.02492103,-0.03696279,-0.1535877,-0.07652806,3.501532,0.5033185,-0.06512359,0.09535606,-0.03529412,-0.9911934,1.828961,0.1268818,0.1078865,1.606639,0.9397502,298.0873,149.7869,191.0676
7,2.766664,-0.3704932,1.115662,0.08293343,4.496938,3.150068,-1.947206,-1.264519,0.5189365,0,0,9.061584,31.70088,0.06037005,-0.03823527,-0.1479784,-0.07789533,3.503361,0.4976327,-0.03099915,0.09102888,-0.03139425,-0.9912339,1.830023,0.1254764,0.1141374,1.606151,0.9402807,299.0045,148.4502,194.1291
7,2.777775,-0.3102028,0.9165294,0.0754596,4.492941,3.149783,-1.946309,-1.257948,0.5915178,0,0,8.748778,30.86999,0.08480491,-0.01378478,-0.1620419,-0.07970202,3.523451,0.4758725,-0.02921253,0.06861939,-0.05908497,-0.99286,1.830224,0.1255611,0.1204619,1.605593,0.9408222,299.8968,147.6526,196.6034
7,2.788886,-0.2528797,0.8622994,-0.02320629,4.486864,3.143339,-1.946439,-1.252275,0.5093471,0,0,8.494623,29.98045,0.08710131,-0.02978411,-0.1397019,-0.08084984,3.519689,0.4787107,-0.02400145,0.04090364,-0.0644317,-0.9938139,1.829809,0.1258796,0.126851,1.605045,0.9415175,300.5506,146.4899,199.0228
7,2.799997,-0.1134604,0.8676823,-0.05681613,4.478477,3.138129,-1.950952,-1.248653,0.3229043,0,0,8.308896,29.01271,0.07419342,-0.07875986,-0.1406724,-0.08352472,3.5,0.4979443,-0.03047019,0.0302585,-0.06967416,-0.9947913,1.8299,0.1264418,0.1283067,1.604836,0.9415896,300.2214,148.231,198.2165
7,2.811108,0.0568459,0.8505974,-0.1084056,4.471365,3.131501,-1.959245,-1.241253,0.6685742,0,0,8.181818,27.96677,0.07478467,0.007506132,-0.09909323,-0.08193482,3.528457,0.4687427,-0.03773603,0.05585787,-0.05684508,-0.9948339,1.831673,0.1261358,0.1279783,1.604746,0.940859,300.7048,149.0814,197.9205
7,2.822219,0.1196675,0.8432007,-0.1213414,4.463357,3.12621,-1.963756,-1.238042,0.2823739,0,0,8.093843,26.84262,0.08550915,-0.01490521,-0.08534865,-0.08285733,3.521449,0.4743575,-0.03331472,0.05587269,-0.04197955,-0.9946305,1.832697,0.1258099,0.1276931,1.603701,0.9404979,301.2508,147.3742,199.1269
7,2.83333,0.1324177,0.8332763,-0.1383807,4.458524,3.121465,-1.966041,-1.233741,0.3855862,0,0,8.123168,25.87488,0.06502347,-0.0894241,-0.09265368,-0.08565312,3.490437,0.5051985,-0.02283216,0.01855379,-0.05056889,-0.9956291,1.831605,0.1262906,0.1276073,1.601849,0.9410257,301.559,146.2735,199.4758
7,2.844441,0.09600186,0.8811231,-0.1312798,4.449329,3.116917,-1.966689,-1.222185,1.047202,0,0,8.289346,25.12219,0.06213032,-0.03720126,-0.0723547,-0.08496283,3.508087,0.4872288,-0.01753988,0.03451411,-0.05703913,-0.9963802,1.832688,0.1256546,0.1277591,1.59929,0.9422652,301.2731,146.6476,198.7949
7,2.855552,0.08637136,0.893874,-0.131392,4.440334,3.111373,-1.968776,-1.211526,0.9601324,0,0,8.563051,24.57478,0.08351391,-0.02873255,-0.06615365,-0.08541504,3.510817,0.4828508,-0.01445983,0.04088694,-0.06879705,-0.9974231,1.833777,0.1251971,0.1272649,1.597662,0.9427571,301.2534,150.8445,195.5981
7,2.866663,0.0554347,0.9097515,-0.1271708,4.431626,3.106587,-1.969825,-1.201993,0.8585553,0,0,8.954058,24.2522,0.07596521,-0.08091666,-0.06397976,-0.08737299,3.486251,0.5064589,-0.007310111,-0.00176568,-0.08905714,-0.9992313,1.832253,0.1258802,0.1257747,1.592782,0.9430853,302.4504,147.1201,200.7643
7,2.877774,0.05007243,0.9258276,-0.1177418,4.421926,3.101284,-1.971614,-1.195588,0.5737618,0,0,9.423265,24.2522,0.04698746,-0.1266496,-0.07545486,-0.08988275,3.463601,0.5295802,0.01060558,-0.005020164,-0.1062915,-1.000991,1.832322,0.1251688,0.124156,1.591235,0.943365,301.7427,150.2549,197.5325
7,2.888885,0.04050702,0.932238,-0.1103422,4.413129,3.095917,-1.973422,-1.1877,0.7118606,0,0,9.853374,24.39883,0.04451437,-0.1798971,-0.0999627,-0.09348015,3.440492,0.5520573,0.01070786,0.02587773,-0.1031393,-1.001885,1.834107,0.1240058,0.1236557,1.590784,0.9434562,301.2007,151.0811,196.0944
7,2.899997,0.02992058,0.9119788,-0.1090005,4.404819,3.090888,-1.974853,-1.181188,0.5846555,0,0,10.22483,24.64321,0.04536094,-0.1692106,-0.1265805,-0.09572892,3.442047,0.5499297,-0.00904553,0.05153856,-0.06247486,-1.00105,1.835604,0.124017,0.1243364,1.590904,0.9432848,301.4205,149.7951,196.7661
7,2.911108,0.03111881,0.8810889,-0.1065434,4.397769,3.085967,-1.976753,-1.17437,0.6140166,0,0,10.51809,24.88759,0.06242676,-0.1926914,-0.1182239,-0.0981492,3.423194,0.5674925,-0.005542452,0.03985379,-0.03160187,-1.000406,1.835622,0.1239491,0.125603,1.591212,0.9427757,302.3566,147.7453,198.2681
7,2.922219,0.05048007,0.8095823,-0.1217568,4.392544,3.081531,-1.979482,-1.167324,0.6344612,0,0,10.66471,24.92669,0.07854466,-0.2055235,-0.09920163,-0.1000299,3.401879,0.5873719,-0.008731771,0.03027463,-0.02942651,-1.000838,1.835638,0.1240378,0.1276745,1.589222,0.944583,303.0549,146.6223,198.7374
7,2.93333,0.04756039,0.6995563,-0.1460299,4.389611,3.077422,-1.981194,-1.161265,0.544494,0,0,10.67449,24.77028,0.08178057,-0.07874833,-0.1279389,-0.100227,3.443209,0.5452061,-0.006251216,0.03350761,0.002503424,-0.9996814,1.836063,0.1238104,0.1277995,1.588342,0.9444774,302.6424,146.6418,199.1566
7,2.944441,0.02235717,0.5918708,-0.1447136,4.387647,3.074289,-1.981324,-1.155941,0.4780805,0,0,10.60606,24.78983,0.1002124,-0.01061663,-0.1110325,-0.09974284,3.468087,0.5187433,0.01523456,-0.005924495,0.02682912,-0.9987466,1.83431,0.123894,0.1272552,1.588113,0.9438079,302.3777,149.1867,196.5957
7,2.955552,0.03446132,0.4833197,-0.1381622,4.386221,3.072175,-1.982741,-1.148926,0.6332718,0,0,10.46921,25.10264,0.1477696,-0.0214189,-0.0337013,-0.09824668,3.448928,0.5346237,0.03949047,-0.02943548,0.008488434,-0.999422,1.833094,0.1233275,0.1271272,1.58778,0.9433151,302.6421,150.132,195.6465
7,2.966663,0.04973565,0.3832258,-0.1381326,4.385844,3.069895,-1.984748,-1.141568,0.6634217,0,0,10.32258,25.72825,0.1468384,-0.03312995,-0.01558331,-0.09819075,3.440604,0.5413719,0.04157868,-0.04649016,0.007421579,-0.99956,1.831866,0.1234503,0.1270758,1.587543,0.942943,302.8528,150.6539,194.9709
7,2.977774,0.05972786,0.2435332,-0.1525137,4.388393,3.068664,-1.986009,-1.137267,0.3839472,0,0,10.25415,26.80352,0.04654864,-0.06271683,-0.02426928,-0.09970236,3.429905,0.5549375,0.04576023,-0.08804218,0.008496009,-0.999674,1.829046,0.1244232,0.1271005,1.587404,0.9427608,302.8992,150.7677,194.6225
7,2.988885,0.04616033,0.2023321,-0.1189442,4.387351,3.06808,-1.986568,-1.132274,0.449621,0,0,10.25415,27.80059,-0.003492691,-0.1244018,-0.003605552,-0.101263,3.396685,0.5900063,0.05417633,-0.09020248,-0.001181319,-1.000145,1.827827,0.1241473,0.1270736,1.587232,0.9425522,302.9469,151.0951,194.1918
7,2.999996,0.02283698,0.1929679,-0.09317102,4.385461,3.067247,-1.986169,-1.126233,0.5446826,0,0,10.33236,28.56305,0.01025702,-0.1574648,-0.005872503,-0.1030835,3.371006,0.6148192,0.03809005,-0.0624899,-0.01702736,-1.000868,1.828383,0.1239145,0.1270171,1.58695,0.9424593,303.0984,151.8242,193.4539
7,3.011107,-0.01868434,0.2262592,-0.05823875,4.38174,3.066345,-1.985,-1.120221,0.5414488,0,0,10.48876,29.12024,0.0158698,-0.04030178,-0.003747547,-0.1010238,3.402892,0.5826826,0.01807988,-0.0294038,-0.001940359,-1.000278,1.829342,0.1239358,0.1268588,1.586597,0.9423158,303.259,152.9719,192.5578
7,3.022218,-0.04856762,0.2659336,-0.02765926,4.377149,3.06567,-1.983355,-1.113939,0.5665298,0,0,10.68426,29.35484,0.007406858,0.0033872,-0.008981598,-0.1005407,3.416011,0.5698808,0.03230805,-0.01980034,0.03091935,-0.9987722,1.829125,0.1230498,0.1270128,1.585781,0.9421921,303.4766,153.5591,192.3156
7,3.033329,-0.08998656,0.2909373,0.02761406,4.372301,3.066302,-1.980882,-1.108129,0.5233626,0,0,10.87977,28.92473,0.03019982,0.04166854,0.02704844,-0.09821951,3.423339,0.5615403,0.03996823,-0.0155313,0.04894257,-0.9975935,1.828917,0.122449,0.1268006,1.585542,0.9417732,303.5502,154.2319,191.8449
7,3.04444,-0.08442941,0.2787657,0.07889795,4.368819,3.068087,-1.979808,-1.102983,0.4630452,0,0,11.02639,28.43597,0.04177077,0.02779773,0.01308068,-0.09878623,3.423046,0.5607576,0.0347311,-0.01124921,0.05645081,-0.9966785,1.828852,0.1222958,0.1267958,1.585524,0.9415568,303.6942,154.2581,191.8029
7,3.055551,-0.05661097,0.2663243,0.100249,4.365774,3.068845,-1.979919,-1.09807,0.4425025,0,0,11.12415,28.06452,0.01602679,-0.06695474,0.01860117,-0.1007085,3.3866,0.5977409,0.03039069,-0.04319921,0.05547134,-0.9964324,1.826872,0.1232567,0.1269646,1.58563,0.9413922,303.8613,153.7419,192.166
7,3.066662,-0.05231002,0.2718337,0.1151023,4.362052,3.069337,-1.979475,-1.095411,0.2364569,0,0,11.17302,27.97654,-0.05757664,-0.1370861,0.02884333,-0.1023165,3.349842,0.637859,0.03330525,-0.05176011,0.03094788,-0.9970981,1.825879,0.1233092,0.127295,1.585897,0.9413983,304.026,152.6863,193.2707
7,3.077773,-0.05229273,0.2815815,0.1288391,4.358047,3.069744,-1.978771,-1.091992,0.3077613,0,0,11.16325,28.64125,-0.1149267,-0.1497582,0.05385301,-0.1025136,3.326248,0.6646856,0.02873341,-0.02942111,-0.002059557,-0.9984031,1.826706,0.122743,0.1276553,1.586124,0.9415331,304.2802,151.0184,195.0402
7,3.088884,-0.05756977,0.291405,0.1500521,4.353694,3.070441,-1.977695,-1.086806,0.4682802,0,0,11.11437,29.56012,-0.1545533,-0.1368686,0.02758681,-0.1036641,3.320917,0.6730234,0.02020423,-0.02194887,-0.004108286,-0.9985373,1.826799,0.1228,0.1276999,1.586121,0.9416537,304.4352,151.1878,195.1207
7,3.099995,-0.07555512,0.2874213,0.1789254,4.349754,3.071894,-1.975805,-1.081748,0.4551945,0,0,11.04594,30.57673,-0.1683588,-0.1038126,0.02346502,-0.1036651,3.320596,0.6755513,0.01917645,-0.03046015,0.001243355,-0.9983562,1.826021,0.123094,0.1276577,1.586041,0.9417992,304.508,151.3227,195.1935
7,3.111106,-0.06785914,0.2515997,0.2112745,4.346959,3.074647,-1.974338,-1.076755,0.4494794,0,0,10.95797,31.68133,-0.1558985,-0.08358426,-0.01819223,-0.1050649,3.329383,0.6679128,0.03091184,-0.02196247,0.00110613,-0.9983317,1.826103,0.1222428,0.1276001,1.585949,0.941833,304.5755,151.6257,195.1027
7,3.122217,-0.05816942,0.2283204,0.2221816,4.344173,3.076921,-1.973102,-1.071499,0.4736713,0,0,10.86022,32.6784,-0.1085296,-0.1092202,-0.07402957,-0.1082351,3.33058,0.6662806,0.0288695,-0.005970031,0.006435992,-0.9979237,1.826816,0.1216636,0.1275491,1.586025,0.941829,304.5484,151.6077,195.1764
7,3.133328,-0.06133118,0.2143974,0.2170365,4.341658,3.078385,-1.971997,-1.067628,0.3468121,0,0,10.79179,33.0303,-0.06353216,-0.07524604,-0.05525034,-0.1082804,3.33308,0.6629585,0.00869978,0.01644654,0.008754449,-0.9975983,1.828138,0.121699,0.1274851,1.586072,0.9418871,304.5676,151.6982,195.2505
7,3.144439,-0.05597359,0.2198402,0.2254558,4.338245,3.079633,-1.971255,-1.063021,0.4151112,0,0,10.80156,33.01075,-0.05655932,-0.0550309,0.004367629,-0.1060407,3.321344,0.6753348,0.0226721,0.043062,0.01496427,-0.9969767,1.829878,0.1200276,0.127361,1.586065,0.9420463,304.6189,152.061,195.2299
7,3.15555,-0.03465927,0.2027082,0.211728,4.335948,3.08081,-1.971187,-1.058028,0.4496673,0,0,10.90909,32.73705,-0.1096428,-0.08580912,0.03253793,-0.1062985,3.298543,0.7010382,0.03958217,0.0174494,0.007358146,-0.9972574,1.829063,0.119401,0.1272547,1.585999,0.9423372,304.7266,152.5427,195.1093
7,3.166661,-0.02611017,0.182365,0.2001903,4.334227,3.08169,-1.970774,-1.053422,0.4140021,0,0,11.08504,32.35582,-0.1820362,-0.1399828,0.05128514,-0.1079134,3.266562,0.7373036,0.0469026,-0.003883239,-0.001215766,-0.9975983,1.828037,0.1191525,0.1271558,1.585912,0.9424989,304.7993,153.0466,194.9762
7,3.177772,-0.03562044,0.1449067,0.1878734,4.333207,3.083159,-1.969425,-1.049178,0.3811745,0,0,11.30987,32.31672,-0.2034639,-0.1708229,0.04614103,-0.1097196,3.244277,0.7624875,0.0287943,0.02384562,-0.006383812,-0.9977027,1.829507,0.1186089,0.127086,1.585908,0.9425855,304.8255,153.3263,194.8502
7,3.188883,-0.04622363,0.1223511,0.1753809,4.332048,3.084293,-1.968353,-1.043823,0.4830983,0,0,11.56403,32.5611,-0.1985282,-0.1900082,0.009855382,-0.112713,3.233955,0.7747109,0.01295837,0.05371717,0.001205247,-0.9972276,1.831491,0.1179535,0.1270083,1.585818,0.9426212,304.9449,153.7711,194.6674
7,3.199994,-0.0503425,0.07752727,0.1695074,4.332011,3.085945,-1.967197,-1.03809,0.5166794,0,0,11.77908,32.82502,-0.1738419,-0.1144457,0.01071332,-0.1118975,3.242248,0.7675979,-0.001763947,0.07187739,0.01518959,-0.9964142,1.832868,0.1175024,0.1269407,1.585143,0.9427018,304.7758,154.4795,194.1743
7,3.211105,-0.0660118,-0.02922171,0.1558883,4.335139,3.088844,-1.964878,-1.03325,0.4349019,0,0,11.97458,33.05963,-0.06145266,0.0003261343,0.03850173,-0.108266,3.25883,0.7481882,-0.01220991,0.09961608,0.02912057,-0.9952068,1.835358,0.1167791,0.1267975,1.58473,0.9428034,304.6486,154.7718,194.3538
7,3.222216,-0.07752804,-0.1039907,0.1440339,4.33802,3.091923,-1.96245,-1.028477,0.4295005,0,0,12.12121,33.18671,-0.05066641,0.0290597,0.0448028,-0.1070191,3.262691,0.7444713,-0.01748167,0.1092191,0.03236086,-0.9945458,1.837154,0.1161935,0.1267024,1.584572,0.9428887,304.7789,155.3085,194.1689
7,3.233327,-0.05584375,-0.2168567,0.1431354,4.34336,3.095992,-1.961105,-1.022888,0.5041244,0,0,12.18964,32.97165,-0.0684822,0.1057852,0.05671328,-0.1039059,3.282338,0.7263636,-0.01861203,0.08897929,0.03026989,-0.9942486,1.837407,0.1163365,0.1266084,1.584491,0.9429882,304.9049,155.5727,194.1725
7,3.244438,-0.05469324,-0.2316967,0.1507681,4.345259,3.09928,-1.959496,-1.017764,0.4607445,0,0,12.19941,32.34604,-0.06837757,0.1025958,0.07164134,-0.102161,3.279309,0.7305858,-0.0007397421,0.06335196,0.01306532,-0.9947828,1.837147,0.1158163,0.1265195,1.584339,0.9430805,305.0046,156.2315,193.919
7,3.255549,-0.05992669,-0.2464919,0.1626775,4.347431,3.102859,-1.957424,-1.014044,0.33268,0,0,12.15054,31.31965,-0.05901978,0.03120093,0.06513248,-0.1032944,3.259559,0.7504769,0.01927282,0.02600605,-0.0009509558,-0.9954667,1.835909,0.1155133,0.1263851,1.584217,0.9431475,305.078,156.835,193.6004
7,3.26666,-0.07587145,-0.2647938,0.1522789,4.350409,3.10533,-1.955265,-1.008317,0.5171984,0,0,12.06256,29.90225,-0.08476324,-0.02520299,0.06000842,-0.1047086,3.240779,0.7709098,0.01174317,-0.0197831,0.001320084,-0.9955956,1.833525,0.1169644,0.1258909,1.584171,0.9431648,304.946,158.2804,192.4194
7,3.277771,-0.06190501,-0.2902135,0.161047,4.353386,3.109045,-1.953764,-1.002443,0.5288624,0,0,11.99413,28.28934,-0.1187942,-0.08265648,0.08160177,-0.1057302,3.208908,0.805203,0.004011355,-0.05281637,-0.01773044,-0.9967557,1.831352,0.1184033,0.1256969,1.583461,0.9434986,304.6983,159.1381,192.1839
7,3.288882,-0.06368141,-0.3871335,0.1653549,4.360111,3.113809,-1.951625,-0.9964367,0.5409266,0,0,11.95504,26.66667,-0.1075321,-0.06457776,0.1433062,-0.1027788,3.18371,0.8309925,-0.0003230209,-0.04962118,-0.02514552,-0.997373,1.830917,0.1187935,0.1246002,1.583805,0.9393221,303.6029,159.2163,193.2724
7,3.299993,-0.1079845,-0.466669,0.2101235,4.365819,3.120754,-1.946622,-0.9919487,0.4021098,0,0,11.91593,25.03421,-0.09977208,0.04619934,0.1464783,-0.09837717,3.202021,0.8134711,-0.0367828,-0.02294843,-0.05248769,-0.9991301,1.832047,0.1200761,0.1241248,1.584022,0.9389957,303.6135,160.5994,191.8458
7,3.311104,-0.1501528,-0.5504587,0.2549257,4.372505,3.128486,-1.940927,-0.9861483,0.52312,0,0,11.85728,23.40176,-0.1147588,0.1026951,0.1263954,-0.09578112,3.219134,0.7985291,-0.04314937,-0.01654181,-0.05136222,-0.9996399,1.832222,0.1207259,0.1240124,1.58405,0.9383766,303.6398,160.4296,192.9053
7,3.322215,-0.1836691,-0.6973296,0.278065,4.382576,3.137086,-1.934968,-0.9783346,0.7060696,0,0,11.77908,21.79863,-0.09563184,0.1324752,0.1113111,-0.09378695,3.230757,0.7871452,-0.01109171,0.02600397,-0.05069655,-0.9997869,1.834636,0.1182499,0.1250148,1.583427,0.942988,305.0302,160.9326,192.1192
7,3.333326,-0.2077438,-0.82638,0.2743165,4.394149,3.145049,-1.929494,-0.9722045,0.5507503,0,0,11.66178,20.30303,-0.08256335,0.091993,0.03660005,-0.09559363,3.243547,0.7747833,-0.01434688,0.0249385,-0.05598697,-1.000483,1.835219,0.1182531,0.1235558,1.583834,0.9403592,303.5623,162.4577,191.9485
7,3.344437,-0.2257044,-0.8592712,0.2907323,4.402552,3.152386,-1.924033,-0.9668947,0.4775551,0,0,11.54448,19.02248,-0.1046833,0.09736423,0.06130553,-0.09358348,3.241746,0.7783773,-0.01326767,0.02067785,-0.05386233,-1.00099,1.835367,0.118279,0.1226878,1.583998,0.9398705,303.369,164.0798,191.4699
7,3.355548,-0.2767012,-0.8503788,0.3376864,4.409353,3.1609,-1.916673,-0.961946,0.4452032,0,0,11.42717,17.96676,-0.1330627,0.1070037,0.1009879,-0.09058476,3.232806,0.7897428,-0.005884933,-0.009167485,-0.0549683,-1.001782,1.833862,0.1188579,0.1220142,1.58404,0.9404548,303.0276,165.4463,190.908
7,3.366659,-0.4056436,-0.7905245,0.3918098,4.413238,3.169482,-1.905198,-0.9565968,0.481932,0,0,11.31965,17.1261,-0.1808941,0.08796699,0.12062,-0.08848246,3.221466,0.8048893,-0.005884933,-0.009167479,-0.0549683,-1.002398,1.833828,0.1189413,0.1213,1.584191,0.9413201,302.52,167.0117,190.1527
7,3.37777,-0.4662133,-0.8021278,0.4188296,4.419789,3.178238,-1.896003,-0.9499182,0.6029518,0,0,11.23167,16.48094,-0.2135443,0.04967427,0.1720402,-0.08655486,3.184506,0.8451744,-0.0038407,-0.0230277,-0.06029908,-1.003468,1.832895,0.1193402,0.1207696,1.584411,0.942383,301.9219,168.2279,189.7531
7,3.388881,-0.5308421,-0.9089066,0.4170987,4.431096,3.187198,-1.885535,-0.9409283,0.8136747,0,0,11.19257,16.01173,-0.2330626,-0.0163745,0.2680754,-0.08458466,3.109369,0.9232877,-0.008995462,-0.01767066,-0.04533561,-1.002538,1.832642,0.1192771,0.1198347,1.584681,0.9435439,301.0261,170.0508,188.6279
7,3.399992,-0.5518425,-0.9995108,0.4182065,4.443047,3.195948,-1.876715,-0.9384506,0.2169078,0,0,11.17302,15.6696,-0.2155295,-0.02602226,0.3254472,-0.08173294,3.054586,0.9797829,-0.01748522,-0.01871384,-0.04204695,-1.002919,1.832406,0.1198918,0.1193421,1.584986,0.9452116,300.0044,171.2921,188.188
7,3.411103,-0.5823427,-1.112504,0.4217533,4.457139,3.205769,-1.866662,-0.9332808,0.4687009,0,0,11.16325,15.40567,-0.2067151,-0.02605629,0.3573268,-0.07924342,2.998872,1.037253,-0.03787183,-0.006973695,-0.05782351,-1.004023,1.832745,0.1206865,0.1191755,1.584933,0.9466457,298.5279,173.4179,187.5776
7,3.422215,-0.6034642,-1.17118,0.4203579,4.469805,3.214388,-1.857292,-0.9304861,0.2487805,0,0,11.1437,15.19062,-0.260544,-0.02595341,0.4100169,-0.07674751,2.931065,1.109379,-0.04852182,-0.00589066,-0.05770142,-1.00467,1.832731,0.1218993,0.1184785,1.585641,0.9475734,297.3462,174.707,186.9218
7,3.433326,-0.634325,-1.183027,0.4184736,4.481595,3.222839,-1.847285,-0.9255539,0.4462402,0,0,11.07527,14.92669,-0.3092293,-0.04076606,0.4488097,-0.07507078,2.849699,1.195617,-0.05395546,-0.02506245,-0.06294877,-1.005931,1.83167,0.1237369,0.1177813,1.586219,0.9484118,296.2642,175.4008,186.8804
7,3.444437,-0.6780532,-1.174814,0.4046735,4.492593,3.230123,-1.836982,-0.9218074,0.3360294,0,0,10.96774,14.60411,-0.3526011,-0.04600197,0.4811571,-0.07377169,2.768197,1.281961,-0.07654715,-0.02930587,-0.08294296,-1.007682,1.831045,0.1253427,0.1171739,1.586368,0.9498435,295.0907,177.1454,186.0635
7,3.455548,-0.7261015,-1.153795,0.3939466,4.503309,3.237213,-1.825632,-0.9173434,0.4029289,0,0,10.81134,14.26197,-0.3154081,-0.03121603,0.583094,-0.07138337,2.635804,1.416238,-0.0894853,-0.03782348,-0.09558164,-1.009506,1.830118,0.1273279,0.1157874,1.586338,0.9514367,293.7682,181.416,182.2301
7,3.466659,-0.7954926,-1.10931,0.3915246,4.512733,3.243846,-1.813077,-0.9130584,0.385967,0,0,10.60606,13.87097,-0.2916684,-0.0462184,0.6212178,-0.07168218,2.520204,1.533993,-0.09612479,-0.02718627,-0.1210984,-1.011921,1.830836,0.1279279,0.1154029,1.587377,0.9534339,292.3122,181.4564,183.3926
7,3.47777,-0.7986625,-1.102938,0.3925484,4.523622,3.25151,-1.803064,-0.9085949,0.4029076,0,0,10.36168,13.47019,-0.2990895,-0.08455712,0.6351187,-0.07411364,2.418837,1.638729,-0.1101495,-0.00800553,-0.141212,-1.013879,1.831875,0.1290445,0.1150591,1.588449,0.9551476,291.1184,181.6939,183.7665
7,3.488881,-0.7923934,-1.086082,0.3742196,4.53407,3.257766,-1.793301,-0.9041981,0.396806,0,0,10.1173,13.10851,-0.3460598,-0.1931162,0.6514815,-0.080828,2.32893,1.733635,-0.1209233,-0.0005425587,-0.1538904,-1.01597,1.832495,0.1304062,0.1143726,1.589453,0.9570098,289.8972,181.9718,183.9843
7,3.499992,-0.7851077,-1.069258,0.3506015,4.544036,3.26368,-1.783578,-0.9042646,-0.01076071,0,0,9.902249,12.7566,-0.3833954,-0.2377672,0.6560724,-0.0860755,2.251155,1.816308,-0.1208944,-0.009059884,-0.1496167,-1.017436,1.832214,0.1318257,0.1133382,1.590469,0.9590342,288.476,182.352,183.8549
7,3.511103,-0.794918,-1.037704,0.3183093,4.553667,3.2682,-1.773826,-0.9022768,0.1808283,0,0,9.706745,12.42424,-0.4333066,-0.2504392,0.6767672,-0.09151208,2.173798,1.899838,-0.1494484,0.00167416,-0.1322789,-1.018269,1.832664,0.1340971,0.1118051,1.593317,0.9629964,289.937,180.7363,184.7811
7,3.522214,-0.8206951,-1.007259,0.2871734,4.563165,3.272523,-1.763224,-0.9001948,0.1875705,0,0,9.560118,12.09189,-0.448143,-0.2152564,0.6769117,-0.09508124,2.103483,1.975147,-0.1821413,0.03266963,-0.1074678,-1.018539,1.834388,0.1362412,0.108638,1.597157,0.9674012,290.8212,174.8602,188.1088
7,3.533325,-0.824029,-0.9818335,0.2751719,4.572478,3.277048,-1.75336,-0.8981484,0.1844874,0,0,9.452591,11.74976,-0.4535919,-0.1438555,0.6450316,-0.09674465,2.042538,2.041083,-0.1831156,0.04333313,-0.101079,-1.0193,1.835533,0.137694,0.1011721,1.601429,0.9721882,292.2443,168.0492,191.4084
7,3.544436,-0.8124164,-0.9530694,0.2726783,4.581552,3.28168,-1.74427,-0.895767,0.2154401,0,0,9.384165,11.40763,-0.4505742,-0.1033758,0.6130635,-0.09949144,1.991572,2.096424,-0.1754498,0.06677306,-0.0862783,-1.019518,1.837463,0.1382798,0.08568535,1.603032,0.9750406,294.7563,138.0068,212.1774
7,3.555547,-0.7721549,-0.8857863,0.2749512,4.588158,3.28602,-1.736667,-0.8952189,0.04765651,0,0,9.364614,11.21212,-0.4368958,-0.06398082,0.5841902,-0.1017226,1.941885,2.150236,-0.1786726,0.1189608,-0.09909859,-1.020872,1.84133,0.1382625,0.06702907,1.602562,0.9765186,293.8267,133.056,210.4452
7,3.566658,-0.7277811,-0.7812604,0.2725283,4.592614,3.289876,-1.729709,-0.8950197,0.01729893,0,0,9.384165,11.1828,-0.3563417,-0.07695204,0.5408327,-0.1054788,1.913611,2.17914,-0.1870026,0.1456288,-0.08626118,-1.021143,1.84448,0.13909,0.04846403,1.602137,0.9762738,290.4419,132.5714,205.5258
7,3.577769,-0.707972,-0.6898597,0.2469299,4.596659,3.292694,-1.721864,-0.8955204,-0.04653569,0,0,9.433041,11.32942,-0.2975368,-0.1495039,0.4667529,-0.1105265,1.917117,2.176799,-0.1880382,0.1381782,-0.08197674,-1.021646,1.845946,0.1404245,0.03234344,1.602525,0.9748162,287.6969,133.7639,199.8515
7,3.58888,-0.6827212,-0.6250992,0.2194373,4.601199,3.294666,-1.714994,-0.8952301,0.02625209,0,0,9.481916,11.66178,-0.3012238,-0.1334992,0.4081944,-0.1129329,1.903225,2.193962,-0.1867653,0.1499134,-0.06496326,-1.021619,1.848161,0.1413039,0.02023383,1.604197,0.9728526,286.0728,136.1665,193.8726
7,3.599991,-0.6658561,-0.577246,0.2081594,4.605803,3.297229,-1.708103,-0.893319,0.1738402,0,0,9.540568,12.16031,-0.3034214,-0.1324281,0.4007597,-0.1165996,1.879708,2.220877,-0.1751589,0.1477476,-0.07467132,-1.022468,1.850264,0.1418978,0.01287462,1.607228,0.9708177,285.6181,138.8654,188.9365
7,3.611102,-0.661846,-0.5198874,0.1914351,4.609472,3.298555,-1.700854,-0.8932546,0.0039431,0,0,9.628544,12.81525,-0.2775305,-0.2113491,0.4548265,-0.124915,1.859378,2.243203,-0.1647701,0.1349143,-0.09713555,-1.02417,1.851799,0.142497,0.01036213,1.61147,0.969059,286.1426,141.1573,185.9329
7,3.622213,-0.6671652,-0.5434444,0.1810848,4.616206,3.301316,-1.692462,-0.8926692,0.05320118,0,0,9.726295,13.61681,-0.2125611,-0.1955343,0.4489009,-0.1293977,1.838218,2.264385,-0.1628956,0.138074,-0.121663,-1.026187,1.854099,0.1430565,0.01198224,1.616606,0.9678096,287.4132,142.8052,185.0203
7,3.633324,-0.6606894,-0.5894618,0.1613529,4.62425,3.303383,-1.685169,-0.8915368,0.1026274,0,0,9.843597,14.51613,-0.2000546,-0.1518692,0.4072573,-0.131566,1.821144,2.283105,-0.1881217,0.1371055,-0.08942837,-1.025622,1.855965,0.1451676,0.01647549,1.622174,0.9671013,289.0984,143.6451,185.9059
7,3.644435,-0.6563877,-0.6032839,0.1614859,4.630996,3.305862,-1.677843,-0.8899837,0.1408738,0,0,9.970675,15.3568,-0.22327,-0.09002736,0.4149546,-0.1338483,1.788233,2.319165,-0.1877519,0.1350217,-0.05427113,-1.024675,1.857474,0.1465133,0.02244106,1.627741,0.96683,290.8443,144.1163,187.6531
7,3.655546,-0.653309,-0.5810394,0.149498,4.636531,3.307683,-1.670528,-0.890519,-0.05032086,0,0,10.08798,16.16813,-0.2369741,-0.06656212,0.4246789,-0.1372886,1.760566,2.349715,-0.1842765,0.1158729,-0.02445329,-1.023904,1.857987,0.1481146,0.02832532,1.63293,0.9668108,292.4371,144.711,189.4375
7,3.666657,-0.6313694,-0.4886982,0.1131919,4.63873,3.307908,-1.664265,-0.8902985,0.02055352,0,0,10.21505,16.95015,-0.2677543,-0.0771538,0.4398577,-0.1421329,1.740762,2.373339,-0.1851189,0.08608142,0.002228228,-1.022962,1.857732,0.1503482,0.03284146,1.637521,0.9669155,293.6809,145.4492,190.7253
7,3.677768,-0.6158806,-0.4019231,0.05779733,4.640488,3.306822,-1.657935,-0.8899246,0.03370322,0,0,10.32258,17.72239,-0.3252606,-0.06103778,0.4382635,-0.1458283,1.718728,2.400854,-0.1978026,0.05629818,0.01731276,-1.022582,1.85705,0.1533203,0.0351807,1.641534,0.9671363,294.4472,145.9579,191.4969
7,3.688879,-0.614032,-0.3651597,0.0115537,4.643512,3.305686,-1.651227,-0.8905408,-0.05679427,0,0,10.42033,18.47507,-0.3870173,-0.04280698,0.434564,-0.1492579,1.698087,2.427404,-0.2128255,0.05312151,0.007889761,-1.022716,1.857651,0.1559124,0.03514271,1.644982,0.9673376,294.7359,146.3617,191.4753
7,3.69999,-0.6164551,-0.3574727,-0.06097303,4.647686,3.303025,-1.644286,-0.8901696,0.03424523,0,0,10.57674,19.07136,-0.4306288,-0.06508124,0.4466593,-0.1542567,1.683986,2.447411,-0.2226638,0.05950163,-0.01651603,-1.023724,1.859025,0.1580991,0.03309994,1.648036,0.9676014,294.6865,146.8435,190.52
7,3.711101,-0.5047209,-0.3876524,-0.1238749,4.653246,3.299928,-1.642508,-0.889482,0.06233699,0,0,10.83089,19.50147,-0.3758021,-0.06097388,0.4994252,-0.1602573,1.657303,2.476213,-0.2368719,0.1489496,-0.06761641,-1.025575,1.865038,0.158122,0.02979866,1.650762,0.9679118,294.4034,147.6686,188.6604
7,3.722212,-0.360585,-0.5444389,-0.1811626,4.665202,3.297089,-1.643845,-0.8888881,0.05365846,0,0,11.16325,19.74585,-0.2967013,-0.03455794,0.5210768,-0.1651266,1.630963,2.502598,-0.2486937,0.1926288,-0.08565354,-1.026471,1.869627,0.1589452,0.02601514,1.653273,0.9682318,293.9991,148.893,186.2393
7,3.733323,-0.3657966,-0.6334745,-0.2323164,4.675818,3.293161,-1.639982,-0.8936951,-0.4400712,0,0,11.59335,19.83382,-0.2211753,0.03553331,0.6067101,-0.1714602,1.582886,2.549705,-0.2601345,0.2917345,-0.07926434,-1.026082,1.877355,0.1582538,0.02248673,1.655825,0.9686733,293.5486,150.4694,183.532
7,3.744434,-0.3957077,-0.6359711,-0.2556241,4.682696,3.290169,-1.634122,-0.8967524,-0.276195,0,0,12.10166,19.74585,-0.1713536,0.1249024,0.556221,-0.1725547,1.548349,2.584146,-0.2491836,0.2970726,-0.05275197,-1.025135,1.881146,0.15862,0.01973477,1.658311,0.9693056,293.4401,152.5386,180.6834
7,3.755545,-0.4072719,-0.5076182,-0.2832572,4.686323,3.286726,-1.629053,-0.8910149,0.525829,0,0,12.60997,19.57967,-0.09903428,0.05904749,0.4991441,-0.176558,1.536998,2.594985,-0.2306872,0.2503174,-0.01759746,-1.02427,1.883228,0.1596203,0.01786951,1.660005,0.9699654,293.7625,155.0383,177.8562
7,3.766656,-0.4080283,-0.4958128,-0.2923527,4.689727,3.283058,-1.624931,-0.8879485,0.2753858,0,0,13.09873,19.38416,-0.06236511,0.02458085,0.3847216,-0.1775711,1.549067,2.581581,-0.2195946,0.2395991,0.03542991,-1.021502,1.884255,0.1608336,0.01693293,1.661175,0.9711052,293.8573,156.7683,175.9712
7,3.777767,-0.3923001,-0.4201706,-0.2987366,4.692475,3.278425,-1.621833,-0.8883592,-0.03950655,0,0,13.53861,19.19844,-0.07905535,0.02892311,0.3071112,-0.1779748,1.54364,2.588583,-0.2116042,0.2247369,0.0875653,-1.018608,1.885965,0.1619386,0.01695428,1.662246,0.9726974,293.6145,157.5255,175.2839
7,3.788878,-0.3523235,-0.3053723,-0.3332264,4.692224,3.273528,-1.619381,-0.8893285,-0.08804795,0,0,13.84164,19.15934,-0.108351,0.04286125,0.2445359,-0.1780664,1.536607,2.597692,-0.1835731,0.1831823,0.1267363,-1.015687,1.886134,0.1629026,0.01792584,1.663357,0.9744517,293.3557,157.8438,175.2846
7,3.799989,-0.3397974,-0.2748365,-0.3709096,4.694473,3.26815,-1.615678,-0.8902777,-0.08622237,0,0,14.00782,19.02248,-0.1247225,-0.01462191,0.2148222,-0.1805906,1.542333,2.593711,-0.151603,0.1341275,0.137112,-1.013913,1.885745,0.1637064,0.01963157,1.664763,0.9763571,293.2202,158.126,175.567
7,3.8111,-0.3187879,-0.2703614,-0.4509374,4.697685,3.260479,-1.612961,-0.8907523,-0.04291043,0,0,14.03715,18.74878,-0.1013567,-0.1105628,0.2316013,-0.1856127,1.553887,2.582775,-0.1564046,0.1393986,0.08602029,-1.014468,1.887971,0.1645155,0.02185439,1.666508,0.9783494,293.2994,158.477,175.8726
7,3.822211,-0.3145951,-0.3007378,-0.4985307,4.702571,3.2538,-1.609555,-0.8892673,0.1359603,0,0,13.95895,18.31867,-0.0149891,-0.1278466,0.2446415,-0.1894733,1.554716,2.579222,-0.2168889,0.2001331,-0.002897412,-1.016749,1.893563,0.1660223,0.02442593,1.668472,0.9804584,293.672,158.7405,176.2274
7,3.833322,-0.3070029,-0.4015078,-0.5549242,4.710995,3.245862,-1.606384,-0.8898255,-0.05255861,0,0,13.78299,17.73216,0.03211873,-0.04380095,0.2485232,-0.1907223,1.536187,2.595471,-0.2499194,0.2353493,-0.01004514,-1.016484,1.898196,0.1676106,0.0271598,1.670461,0.9826455,294.0918,159.3141,176.2535
7,3.844433,-0.2556274,-0.547847,-0.6045287,-1.561123,3.237953,-1.60462,-0.8890814,0.06848405,0,0,13.60704,16.89149,0.06792408,0.1126963,0.2781131,-0.1907654,1.494387,2.634583,-0.227849,0.2598944,0.05574341,-1.012648,1.90198,0.1672582,0.02991851,1.672512,0.9850966,294.449,160.2953,175.885
7,3.855544,-0.1838586,-0.69925,-0.6349859,-1.547817,3.230429,-1.604858,-0.8890969,-0.002226743,0,0,13.46041,15.94331,0.09182376,0.2021097,0.3067184,-0.1923868,1.459044,2.667603,-0.1706602,0.2406963,0.1265363,-1.008327,1.903622,0.1660769,0.0324955,1.674521,0.9877213,294.6847,161.4184,175.4429
7,3.866655,-0.1314802,-0.7921656,-0.6692554,-1.535591,3.222257,-1.604828,-0.8904151,-0.1206295,0,0,13.34311,14.90714,0.07674398,0.2106775,0.2844787,-0.1933285,1.442748,2.683044,-0.1628718,0.2002531,0.1659271,-1.004932,1.903952,0.1675187,0.03473638,1.676242,0.9902429,294.8271,163.0346,174.4959
7,3.877766,-0.1166146,-0.7933545,-0.6842088,-1.526464,3.214412,-1.603786,-0.8923358,-0.1748246,0,0,13.27468,13.89052,0.0745886,0.2000296,0.2844922,-0.1953716,1.427085,2.69766,-0.1689617,0.173679,0.1990573,-1.001392,1.90437,0.1694327,0.03649122,1.677469,0.9925203,294.9675,164.9875,173.1536
7,3.888877,-0.1084,-0.7501879,-0.7305423,-1.519879,3.204837,-1.60241,-0.8919177,0.03922335,0,0,13.24536,13.08895,0.06223615,0.07859848,0.2451206,-0.198324,1.442473,2.682011,-0.1773119,0.1683925,0.2161995,-0.9980388,1.905658,0.1709989,0.03757253,1.678219,0.9948155,295.1573,167.063,171.5801
7,3.899988,-0.09513977,-0.6357853,-0.7915765,-1.517085,3.193871,-1.601415,-0.8904668,0.1320324,0,0,13.25513,12.49267,0.0342325,0.05631381,0.2155314,-0.1995741,1.439676,2.685194,-0.1967974,0.1790527,0.1855007,-0.9969543,1.908566,0.1724463,0.03801852,1.678497,0.9973416,295.2419,168.9968,169.865
7,3.911099,-0.07862946,-0.515812,-0.8324413,-1.515642,3.183265,-1.600731,-0.8897887,0.06075402,0,0,13.28446,12.03324,0.02508685,0.1756377,0.2337991,-0.1998063,1.40382,2.720505,-0.2104844,0.2227675,0.1919864,-0.9939972,1.912971,0.1728719,0.03811603,1.67853,1.000251,295.0762,170.6774,168.097
7,3.92221,-0.07035655,-0.4304296,-0.8217354,-1.513525,3.174856,-1.599713,-0.8899783,-0.01782525,0,0,13.31378,11.67155,0.07648605,0.245822,0.2461672,-0.2007549,1.371439,2.749582,-0.2165777,0.2473184,0.214391,-0.9901713,1.91677,0.1732783,0.03833865,1.678566,1.003645,294.7917,172.3387,166.172
7,3.933321,-0.05121315,-0.4024743,-0.8050796,-1.509948,3.16673,-1.599393,-0.8900812,-0.009241069,0,0,13.35288,11.3783,0.1774204,0.3522452,0.1899176,-0.1979842,1.329056,2.785598,-0.2233096,0.3081294,0.2697907,-0.984127,1.92232,0.1728621,0.0392957,1.678697,1.007428,294.5119,173.8168,164.4086
7,3.944432,-0.04265082,-0.3893961,-0.7851016,-1.505339,3.157938,-1.598702,-0.8894106,0.06111061,0,0,13.34311,11.01662,0.1974089,0.4076048,0.1471352,-0.1960454,1.299976,2.811378,-0.219938,0.3209238,0.2835878,-0.9798456,1.926331,0.172918,0.04134542,1.678871,1.011363,294.2798,174.8616,163.3898
7,3.955544,-0.04156035,-0.3817444,-0.7681421,-1.50117,3.150194,-1.597665,-0.8898228,-0.03849874,0,0,13.30401,10.60606,0.2066931,0.4118609,0.1129612,-0.1944416,1.276366,2.831869,-0.1868169,0.2995641,0.2960494,-0.9756549,1.928603,0.1722839,0.04438004,1.679027,1.015178,294.0883,175.4963,163.3067
7,3.966655,-0.03514084,-0.378471,-0.7661495,-1.496521,3.140842,-1.596984,-0.8893829,0.04042994,0,0,13.23558,10.14663,0.1796848,0.3352323,0.08972968,-0.1945966,1.272247,2.834833,-0.1647254,0.268597,0.2756157,-0.9730711,1.930227,0.1723835,0.04804739,1.679098,1.018697,293.9551,176.1144,163.6143
7,3.977766,-0.005339831,-0.3547463,-0.7494746,-1.493185,3.133133,-1.597349,-0.8887842,0.05427333,0,0,13.11828,9.63832,0.1759776,0.2979772,0.04394008,-0.1929961,1.264179,2.840991,-0.1512164,0.2653322,0.244579,-0.9709827,1.933263,0.171874,0.05199242,1.679228,1.021924,293.8391,176.8815,163.8913
7,3.988877,0.04162666,-0.3285419,-0.7083775,-1.490435,3.126818,-1.599185,-0.8891006,-0.02945113,0,0,12.98143,9.110459,0.1713215,0.3065248,-0.002899259,-0.1901092,1.247826,2.855057,-0.1288357,0.2695502,0.2443293,-0.9677661,1.936701,0.1706431,0.05585388,1.67946,1.024922,293.8616,177.5611,164.208
7,3.999988,0.08439109,-0.3195177,-0.6734942,-1.485962,3.120312,-1.601032,-0.8899502,-0.07741023,0,0,12.84457,8.621701,0.1453622,0.3140631,-0.04632776,-0.1871275,1.230605,2.871411,-0.09663519,0.2439504,0.2717152,-0.9634827,1.938065,0.1697675,0.05945598,1.679809,1.027743,293.9622,178.3498,164.2371
7,4.011099,0.1483514,-0.3105394,-0.6525053,-1.482526,3.113945,-1.604547,-0.8911704,-0.1111386,0,0,12.66862,8.406648,0.09905647,0.2715694,-0.090668,-0.1840612,1.22808,2.874407,-0.04848358,0.1895584,0.3021603,-0.9589596,1.937265,0.1690021,0.06261021,1.680194,1.030525,294.2172,178.8603,164.422
7,4.02221,0.2037521,-0.3091516,-0.6356803,-1.477998,3.107153,-1.607228,-0.8910005,0.01618123,0,0,12.42424,8.543499,0.08741812,0.2524089,-0.0767372,-0.1830961,1.217742,2.88393,-0.02724785,0.1469044,0.3041157,-0.9555795,1.936732,0.1688873,0.06516421,1.680312,1.033358,294.6029,179.2161,164.6262
7,4.033321,0.2604975,-0.325436,-0.5845875,-1.4727,3.101932,-1.6118,-0.8922276,-0.1127941,0,0,12.14076,8.993157,0.1141201,0.2448851,-0.06739815,-0.1821022,1.20488,2.894357,-0.02414644,0.1277208,0.2987835,-0.9523128,1.937147,0.1688529,0.06703199,1.67995,1.036286,294.8084,179.8608,164.4068
7,4.044433,0.2776421,-0.3250732,-0.5516591,-1.467546,3.096524,-1.614309,-0.8911539,0.09889546,0,0,11.81818,9.736072,0.1353444,0.2171373,-0.06868263,-0.1807535,1.198998,2.897883,-0.0147945,0.1361972,0.2752466,-0.9495741,1.939132,0.1675736,0.0683101,1.678902,1.039152,294.764,180.7833,163.7041
7,4.055544,0.3075061,-0.2881933,-0.503172,-1.465476,3.092844,-1.618536,-0.8923246,-0.1083548,0,0,11.47605,10.69404,0.1435173,0.1926345,-0.100732,-0.178198,1.195466,2.899402,0.01045283,0.1371694,0.2451441,-0.9477562,1.94078,0.1655384,0.06920192,1.677201,1.041939,294.5021,181.9983,162.5349
7,4.066655,0.3361839,-0.2076455,-0.4520121,-1.465159,3.089139,-1.62293,-0.8900253,0.2109033,0,0,11.16325,11.67155,0.1025571,0.1427181,-0.1387091,-0.1757148,1.196895,2.898653,0.04111281,0.08915635,0.2331584,-0.9456448,1.939458,0.1648012,0.06980558,1.675042,1.044881,294.2579,183.1994,161.3801
7,4.077766,0.3499367,-0.1583422,-0.4302482,-1.465142,3.085227,-1.626956,-0.8909536,-0.08703285,0,0,10.87977,12.66862,0.07692824,0.1449153,-0.144859,-0.1736733,1.189469,2.906204,0.06646483,0.05712912,0.2201419,-0.9438051,1.938431,0.1638595,0.0701913,1.6727,1.048155,293.8492,184.2293,160.398
7,4.088878,0.3562899,-0.09484571,-0.3766556,-1.466232,3.082933,-1.630849,-0.8909286,0.003070629,0,0,10.63539,13.59726,0.06259568,0.1354077,-0.1947951,-0.1696402,1.185559,2.909856,0.07515482,0.04754836,0.2371105,-0.9404575,1.938197,0.1628177,0.07048967,1.670295,1.051561,293.2834,184.8303,159.8159
7,4.099989,0.3541292,-0.07982561,-0.3672233,-1.465675,3.079291,-1.634197,-0.8902234,0.06408348,0,0,10.47898,14.22287,0.05537869,0.04490909,-0.2618927,-0.1650377,1.210333,2.885178,0.07322757,0.05184222,0.2541656,-0.9370705,1.938524,0.161824,0.07079907,1.668039,1.055112,292.6874,185.2578,159.4116
7,4.1111,0.3562699,-0.08084992,-0.3650869,-1.464622,3.075428,-1.637783,-0.8895608,0.05983186,0,0,10.39101,14.56501,0.08716682,0.0118244,-0.2717943,-0.1621412,1.221997,2.871602,0.07116801,0.07954585,0.2552173,-0.9339562,1.940226,0.1601146,0.07131445,1.6659,1.05855,292.1554,185.7371,158.8926
7,4.122211,0.3690289,-0.08195138,-0.3725625,-1.463456,3.071193,-1.64183,-0.888895,0.06026476,0,0,10.37146,14.64321,0.1115154,0.09062606,-0.3071321,-0.1567079,1.204183,2.887168,0.07790536,0.1051421,0.2828137,-0.9295098,1.942096,0.1579827,0.07211512,1.663957,1.061794,291.706,186.0088,158.6412
7,4.133323,0.387098,-0.06801748,-0.3706502,-1.462871,3.067213,-1.646301,-0.8889546,-0.00603117,0,0,10.41056,14.46725,0.1437033,0.1608569,-0.2999379,-0.1526561,1.182468,2.905818,0.08599356,0.07431661,0.3477537,-0.9234495,1.940558,0.1576421,0.0732103,1.662327,1.064875,291.3524,186.4834,158.3311
7,4.144434,0.4040206,-0.01876539,-0.3542339,-1.464066,3.063595,-1.650921,-0.889345,-0.03569718,0,0,10.46921,14.24242,0.146467,0.1970531,-0.2392096,-0.1516702,1.160056,2.926387,0.08313916,0.06051536,0.3829587,-0.9181152,1.939577,0.1575012,0.0745896,1.660999,1.067763,291.1151,187.0471,158.0267
7,4.155545,0.4114328,0.01775804,-0.3301727,-1.465354,3.060671,-1.65548,-0.8896242,-0.02532852,0,0,10.51809,14.03715,0.150988,0.2672894,-0.1124391,-0.1541065,1.119343,2.964731,0.07126468,0.05946071,0.3692387,-0.914456,1.93975,0.1571294,0.07620183,1.659851,1.070402,290.8184,186.7509,158.5747
7,4.166656,0.3848273,0.04361871,-0.2973376,-1.466661,3.058719,-1.65864,-0.8895704,0.004997625,0,0,10.52786,13.71457,0.119974,0.3047155,-0.2495593,-0.145579,1.096955,2.986783,0.05063671,0.03709798,0.3375329,-0.9119591,1.938815,0.1578879,0.07792129,1.658687,1.072745,289.9777,185.9272,159.7116
7,4.177768,0.3507164,0.04782408,-0.2919509,-1.467109,3.055606,-1.660583,-0.8892359,0.03039206,0,0,10.49853,13.26491,0.103939,0.3015585,-0.2547401,-0.1420583,1.077914,3.005105,0.0528108,0.04455779,0.3406986,-0.9079489,1.938976,0.1571955,0.07960992,1.657273,1.074711,288.9952,184.4782,161.4606
7,4.188879,0.2942629,0.07891145,-0.2590907,-1.469206,3.053882,-1.661517,-0.8875837,0.1507096,0,0,10.43011,12.6784,0.06585704,0.2696643,-0.2160489,-0.1413515,1.066304,3.017279,0.05820304,0.0743779,0.340603,-0.9037288,1.940763,0.1551843,0.08113306,1.655909,1.076816,288.0732,183.6577,162.6178
7,4.19999,0.2526411,0.1528869,-0.2065341,-1.473503,3.052978,-1.662957,-0.88634,0.112491,0,0,10.33236,11.96481,0.0469349,0.2622362,-0.186045,-0.1400397,1.0481,3.035499,0.07493862,0.07004876,0.3127292,-0.9011024,1.941064,0.1536407,0.08250845,1.654834,1.079302,289.2896,186.8929,159.8952
7,4.211102,0.2280799,0.2172783,-0.1581845,-1.478149,3.052413,-1.664678,-0.8852614,0.09787058,0,0,10.2346,11.36852,0.05997648,0.2589853,-0.1574073,-0.1390671,1.029499,3.052739,0.0800153,0.060422,0.2913799,-0.8985708,1.941007,0.1525823,0.08374373,1.655107,1.083008,287.5344,185.8482,160.9403
7,4.222213,0.2109451,0.2546391,-0.1468237,-1.482081,3.050964,-1.66636,-0.88586,-0.05517487,0,0,10.14663,10.94819,0.06275166,0.1940119,-0.1873007,-0.1356236,1.0327,3.048697,0.07099783,0.04546705,0.2478212,-0.8973079,1.940626,0.1523424,0.08486459,1.654412,1.085342,286.5451,184.4319,162.4779
7,4.233324,0.1990316,0.3196754,-0.1390074,-1.487844,3.049133,-1.667981,-0.8864518,-0.05335535,0,0,10.0782,10.69404,0.04186674,0.1109332,-0.1210997,-0.1367501,1.044289,3.037491,0.07494468,0.09121583,0.2093666,-0.8959662,1.943832,0.1493874,0.08580133,1.653384,1.086916,285.8045,183.1646,163.907
7,4.244435,0.1955484,0.4491451,-0.08933309,-1.497379,3.049115,-1.669939,-0.8867506,-0.02675827,0,0,10.01955,10.62561,0.01833905,0.03321185,-0.1113363,-0.1361493,1.061752,3.020901,0.07340133,0.1113986,0.1614298,-0.895212,1.946324,0.1471421,0.08651021,1.652349,1.088221,285.1725,182.2006,165.0287
7,4.255547,0.1899539,0.5754101,-0.03962593,-1.508206,3.049369,-1.671894,-0.8868998,-0.01341889,0,0,10,10.86999,-0.006244063,-0.1031033,-0.08667745,-0.1370127,1.107982,2.976167,0.06560339,0.0836878,0.1359872,-0.8944876,1.946121,0.1469207,0.087051,1.651644,1.089844,284.7524,181.8716,165.4452
7,4.266658,0.1396338,0.7026546,0.01660865,-1.5201,3.050209,-1.67176,-0.8872268,-0.02967346,0,0,10.02933,11.29032,-0.00338614,-0.1574321,-0.1101744,-0.1355224,1.136024,2.948228,0.08156994,0.07619975,0.1358288,-0.8927422,1.946629,0.1451106,0.08758061,1.651001,1.091396,284.2903,180.1434,167.0949
7,4.277769,0.09154946,0.7742324,0.04791109,-1.531029,3.050725,-1.671192,-0.8873493,-0.01074374,0,0,10.08798,11.86706,-0.005127251,-0.1861571,-0.1762209,-0.1318883,1.164929,2.919781,0.08476556,0.06554263,0.1379389,-0.8910841,1.946764,0.1439545,0.08820084,1.650955,1.093401,284.2713,178.3012,168.8815
7,4.28888,0.0190025,0.8339803,0.07729372,-1.542672,3.05154,-1.668783,-0.8853849,0.1797115,0,0,10.16618,12.50244,0.009030282,-0.1361234,-0.1560896,-0.1306238,1.164396,2.919558,0.1344776,0.01653564,0.2131037,-0.8862957,1.94369,0.1425145,0.08896809,1.651222,1.095447,284.4035,176.5239,170.7003
7,4.299992,-0.03539282,0.9015055,0.1289047,-1.555127,3.053618,-1.66671,-0.8850238,0.03163869,0,0,10.2346,12.97165,0.02445133,-0.07118516,-0.1167824,-0.1304848,1.152224,2.930865,0.1669034,0.0452809,0.2510778,-0.8818243,1.945015,0.1387025,0.08989467,1.652054,1.097552,284.9023,174.902,172.4368
7,4.311103,-0.07389545,0.9978684,0.1822588,-1.569931,3.056214,-1.664607,-0.883566,0.1334418,0,0,10.28348,13.23558,0.01271485,-0.1318875,-0.1039229,-0.1305162,1.179174,2.904364,0.1731053,0.003706887,0.241479,-0.8797454,1.942981,0.1378862,0.09094664,1.652926,1.099058,285.3614,173.1945,174.3008
7,4.322214,-0.09006155,1.06941,0.200672,4.698861,3.057703,-1.663232,-0.8842036,-0.05901552,0,0,10.32258,13.28446,-0.03426929,-0.1871825,-0.1013996,-0.130293,1.212775,2.873211,0.1600837,-0.02398057,0.2256815,-0.877951,1.941005,0.1379507,0.09206435,1.654213,1.100187,286.123,171.7892,175.9121
7,4.333325,-0.1075151,1.222094,0.2351995,4.679712,3.059814,-1.661422,-0.8847666,-0.05045724,0,0,10.34213,13.14761,-0.09759897,-0.1827524,-0.1540823,-0.1273353,1.235032,2.854566,0.1183536,-0.007935062,0.2058714,-0.8761954,1.941358,0.1378127,0.0931384,1.65542,1.10044,286.7951,170.276,177.6355
7,4.344437,-0.115139,1.278642,0.2441698,4.663638,3.061451,-1.659978,-0.8859602,-0.1084863,0,0,10.35191,12.86413,-0.06769413,-0.1561844,-0.1522079,-0.1260037,1.24266,2.846529,0.102487,-0.01002118,0.2166949,-0.8735014,1.940607,0.1376364,0.09413577,1.656908,1.100357,287.7068,168.8787,179.1924
7,4.355548,-0.1216166,1.310687,0.2534136,4.647816,3.063206,-1.658245,-0.8859777,-0.0006283925,0,0,10.35191,12.522,-0.02061409,-0.1286002,-0.1366461,-0.1252352,1.248269,2.839497,0.1102361,-0.03129928,0.2486044,-0.8697501,1.938518,0.1375475,0.09512001,1.658322,1.100011,288.556,166.9989,181.0905
7,4.366659,-0.1065073,1.255333,0.2529369,4.635845,3.064957,-1.657591,-0.8865876,-0.05564473,0,0,10.33236,12.17986,0.02302177,-0.05623776,-0.158311,-0.1223169,1.239045,2.846854,0.1297818,-0.02704448,0.2824819,-0.8655828,1.937396,0.1361693,0.09623194,1.659794,1.099772,289.5744,164.6798,183.3285
7,4.37777,-0.09125888,1.13793,0.2297335,4.62696,3.066019,-1.657192,-0.8865972,-0.0002557442,0,0,10.29326,11.82796,0.00485076,-0.04554057,-0.1666553,-0.1203855,1.245389,2.841303,0.1352428,-0.01532172,0.2930654,-0.8619401,1.937129,0.1347317,0.09749908,1.661062,1.099636,290.4932,162.5079,185.4758
7,4.388882,-0.08779645,1.02351,0.1916175,4.619515,3.066204,-1.65633,-0.8878286,-0.1125112,0,0,10.2346,11.4956,-0.0007848889,-0.1062406,-0.1836746,-0.1191498,1.277459,2.810052,0.1170809,-0.01102182,0.2868638,-0.859008,1.936781,0.1342795,0.09889295,1.662235,1.099716,291.4362,160.7833,187.2598
7,4.399993,-0.08092231,0.8192568,0.1225669,4.617283,3.065133,-1.65587,-0.8882361,-0.03617994,0,0,10.16618,11.23167,0.007721305,-0.08921822,-0.1890881,-0.1169053,1.288491,2.798711,0.07185507,-0.008853659,0.2415358,-0.8579613,1.936512,0.1352404,0.1002666,1.662959,1.099766,292.089,159.3698,188.8333
7,4.411104,-0.06221229,0.5853013,0.06127131,4.618929,3.06381,-1.655922,-0.8877333,0.04613579,0,0,10.21505,10.97752,0.03178277,-0.01152946,-0.140264,-0.116198,1.266973,2.818879,0.0599115,0.01457693,0.2160705,-0.8562846,1.937559,0.1343312,0.1015443,1.663317,1.100053,292.5462,158.171,190.1925
7,4.422215,-0.03724593,0.424213,0.03534203,4.619368,3.063561,-1.656355,-0.8879682,-0.02192846,0,0,10.41056,10.70381,0.08999355,0.05434643,-0.08216701,-0.116614,1.240606,2.842007,0.06677915,0.01341953,0.1616755,-0.8561882,1.937579,0.1332427,0.1026838,1.663225,1.100552,292.7266,156.9276,191.5629
7,4.433327,0.006007716,0.2055849,0.002555941,4.625256,3.062865,-1.65807,-0.8884822,-0.04677537,0,0,10.74291,10.43011,0.08148326,0.06395371,-0.08314899,-0.1154262,1.234584,2.847317,0.07254115,-0.001578741,0.1062345,-0.857083,1.936955,0.1326632,0.1036648,1.662824,1.101347,292.6993,155.8686,192.7138
7,4.444438,0.04173564,0.004971802,-0.03678367,4.631628,3.062049,-1.660021,-0.8889632,-0.04364963,0,0,11.20235,10.12708,0.05925623,0.0267062,-0.05846551,-0.1156536,1.243396,2.838817,0.06911903,-0.01118398,0.08710705,-0.856904,1.936283,0.1324656,0.1044176,1.662153,1.102337,292.4692,155.1049,193.5668
7,4.455549,0.05173522,-0.1541637,-0.07440513,4.638852,3.060593,-1.660888,-0.890111,-0.1047225,0,0,11.80841,9.784947,0.0401005,-0.03930857,-0.04021253,-0.1166955,1.265619,2.81698,0.06044316,-0.0047924,0.07121337,-0.8565248,1.936509,0.1319314,0.1048735,1.661197,1.103318,292.085,154.1819,194.5745
7,4.46666,0.07236218,-0.2918757,-0.104836,4.646427,3.059327,-1.662599,-0.8902383,-0.01092029,0,0,12.39492,9.374389,0.02512012,-0.07017403,-0.04009129,-0.1169852,1.283056,2.799821,0.03701976,0.02082127,0.06717427,-0.8556151,1.938049,0.1312789,0.1049449,1.660058,1.104349,291.5171,153.775,195.0745
7,4.477772,0.08314627,-0.3388192,-0.1139197,4.652063,3.058235,-1.663991,-0.8888822,0.1238431,0,0,12.913,8.905182,0.04540582,-0.02334285,-0.04664553,-0.1158459,1.274461,2.807189,0.02316025,0.009138968,0.06946992,-0.8547932,1.937527,0.1319692,0.104672,1.658843,1.105569,290.8444,153.4611,195.363
7,4.488883,0.1336612,-0.4772398,-0.1231441,4.662449,3.057627,-1.667433,-0.8894244,-0.05076228,0,0,13.34311,8.406648,0.07131447,0.06713943,-0.03299078,-0.1146182,1.241492,2.83797,-9.417906E-05,0.011347,0.0856952,-0.85328,1.937582,0.1326321,0.1041582,1.657586,1.106855,290.1255,153.0377,195.6392
7,4.499994,0.1775209,-0.5335572,-0.1247619,4.669811,3.05717,-1.670656,-0.8890548,0.03421506,0,0,13.55816,7.917889,0.05125685,0.1268383,-0.02744775,-0.1135114,1.212242,2.867172,-0.02751384,0.02422188,0.1094089,-0.8511452,1.93821,0.1335567,0.1035228,1.656322,1.108162,289.4062,152.5582,195.918
