loc,t,aDotS,bDotS,gDotS,aS,bS,gS,qE,qDotE,tpad,enable,emgA,emgB,aDotSH,bDotSH,gDotSH,aSH,bSH,gSH,aDotUB,bDotUB,gDotUB,aUB,bUB,gUB,xHand,yHand,zHand,aHand,bHand,gHand
4,0,0.3570122,1.008886,0.7458844,-0.821615,3.72067,-2.828983,-1.000741,-1.003366,0,0,35.58162,8.84653,0.074513,0.1547543,-0.3574467,-0.1558136,2.988029,0.48682,-0.1382796,0.3044573,0.1031663,-1.011626,1.416534,0.0478064,0.2027471,1.207507,0.6924033,323.6746,289.2873,39.21289
4,0.01111111,0.4197491,1.064941,0.7899545,-0.8353548,3.707457,-2.826763,-1.00934,-0.7712594,0,0,34.0567,8.817204,0.1485037,0.1569993,-0.4283936,-0.1614861,3.017509,0.4535536,-0.144646,0.3225978,0.0936169,-1.010538,1.421595,0.04694327,0.2017212,1.207178,0.6919634,322.4976,289.9454,38.56096
4,0.02222222,0.4803701,1.114446,0.8202584,-0.8491665,3.694028,-2.825177,-1.01878,-0.850196,0,0,32.59042,8.787879,0.1905152,0.1539713,-0.4947952,-0.1674122,3.046939,0.4214932,-0.1564404,0.3162644,0.08838857,-1.009595,1.425457,0.04698482,0.2003166,1.206776,0.6913874,321.4533,290.4406,38.05578
4,0.03333334,0.5207468,1.151949,0.8304861,-0.8625643,3.680429,-2.8232,-1.030246,-1.03473,0,0,31.51515,8.778104,0.2154397,0.133934,-0.5675001,-0.174902,3.071699,0.3939614,-0.1650166,0.3109954,0.086345,-1.008388,1.42946,0.04704394,0.1986009,1.206348,0.6906868,320.555,290.8142,37.61969
4,0.04444445,0.5791366,1.219192,0.8265153,-0.8760804,3.664561,-2.821184,-1.040208,-0.8958567,0,0,30.75269,8.80743,0.1982776,0.1318817,-0.5833459,-0.1806955,3.093971,0.370348,-0.1724114,0.3142461,0.09278934,-1.006946,1.43368,0.04703888,0.196783,1.205942,0.6896904,319.5923,291.1253,37.18787
4,0.05555556,0.6364535,1.293992,0.8320449,-0.8903107,3.647584,-2.819367,-1.048789,-0.7711383,0,0,30.1564,8.817204,0.2050279,0.1296084,-0.5407969,-0.184573,3.109972,0.352181,-0.175455,0.3238608,0.1055688,-1.005309,1.438059,0.04671158,0.1950938,1.205483,0.6885026,318.5815,291.3714,36.70091
4,0.06666667,0.6704229,1.344259,0.8421323,-0.9047184,3.63166,-2.81796,-1.058774,-0.9006225,0,0,29.6872,8.797654,0.2288396,0.1358296,-0.499439,-0.1880431,3.125613,0.3333103,-0.1739976,0.3516038,0.136406,-1.002488,1.443744,0.04554165,0.1937782,1.204961,0.6873502,317.6222,291.6832,36.07912
4,0.07777778,0.7256674,1.396615,0.8415116,-0.919058,3.614555,-2.817442,-1.068192,-0.8477657,0,0,29.28642,8.758554,0.2673148,0.1421276,-0.4858959,-0.1920906,3.14267,0.3122631,-0.1705574,0.3665411,0.1576737,-0.9996607,1.449147,0.04444017,0.1930217,1.20442,0.6864341,316.6996,292.2174,35.40274
4,0.08888889,0.7448292,1.401892,0.8318558,-0.9325634,3.599693,-2.817369,-1.076218,-0.7210268,0,0,28.79766,8.719453,0.2746357,0.1528331,-0.5072451,-0.1979964,3.162853,0.2889261,-0.1758324,0.3740549,0.159849,-0.9974508,1.454618,0.04374002,0.1929606,1.203885,0.6858234,315.7898,292.9999,34.76017
4,0.1,0.76392,1.423024,0.8103017,-0.9456821,3.583485,-2.816927,-1.085866,-0.8702327,0,0,28.32845,8.709679,0.2752874,0.220126,-0.5666994,-0.204788,3.196108,0.2532786,-0.177989,0.3804502,0.1523955,-0.9958715,1.459884,0.04298795,0.1935679,1.20334,0.6855286,314.9472,294.0056,34.18122
4,0.1111111,0.7766535,1.434542,0.7877944,-0.9585286,3.567606,-2.816752,-1.093099,-0.6484959,0,0,27.91789,8.729228,0.2825407,0.2734817,-0.6017531,-0.2113618,3.226943,0.2194642,-0.1843321,0.3805211,0.1588526,-0.9934826,1.465225,0.042344,0.1948539,1.202806,0.6853308,314.1315,295.0819,33.71878
4,0.1222222,0.8042365,1.460875,0.752326,-0.9707376,3.550397,-2.816859,-1.10127,-0.736262,0,0,27.58554,8.787879,0.2974554,0.3405722,-0.6144786,-0.2176282,3.259075,0.1840974,-0.1831911,0.3858546,0.1652234,-0.9912435,1.470518,0.04151868,0.1966575,1.202232,0.6851616,313.4173,296.2761,33.29928
4,0.1333333,0.8317631,1.512881,0.7261696,-0.9836226,3.531734,-2.816608,-1.109101,-0.7044451,0,0,27.42913,8.856306,0.3283525,0.3170819,-0.6105517,-0.2237929,3.277271,0.161639,-0.181109,0.3815814,0.1620198,-0.9893824,1.475438,0.04075941,0.198805,1.201648,0.6849617,312.7693,297.5594,32.86498
4,0.1444445,0.8592497,1.584145,0.7083411,-0.9969964,3.511786,-2.816133,-1.117722,-0.7769808,0,0,27.33138,8.954058,0.3616249,0.241281,-0.5695208,-0.2286031,3.280603,0.153286,-0.1779174,0.3539023,0.1822786,-0.9865819,1.478846,0.04078471,0.2011278,1.201069,0.6846871,312.1463,298.9016,32.39986
4,0.1555556,0.8953313,1.62883,0.6928995,-1.010109,3.492408,-2.816889,-1.125674,-0.715486,0,0,27.14565,9.081134,0.3906592,0.102587,-0.5180109,-0.2332886,3.26751,0.160489,-0.1765679,0.3720495,0.2067346,-0.9833099,1.48447,0.03965074,0.2035315,1.200547,0.6843429,311.5374,300.2404,31.86179
4,0.1666667,0.9166278,1.631841,0.6704879,-1.022388,3.47465,-2.818547,-1.133291,-0.685436,0,0,26.86217,9.247313,0.3651536,0.07382888,-0.5083023,-0.2388275,3.272218,0.1526351,-0.1862042,0.3795522,0.1961308,-0.98145,1.489959,0.03913195,0.2060229,1.200122,0.6839982,310.8705,301.6129,31.18882
4,0.1777778,0.9529158,1.577982,0.6049727,-1.031489,3.458908,-2.822052,-1.141088,-0.7023583,0,0,26.47116,9.433041,0.301421,0.09621748,-0.4895847,-0.2433309,3.282736,0.1412535,-0.1821423,0.3741658,0.1758742,-0.9800262,1.494663,0.03853434,0.208627,1.19985,0.6837282,310.1818,303.094,30.41163
4,0.1888889,0.9646932,1.543461,0.5616487,-1.041045,3.443069,-2.824938,-1.14786,-0.6086143,0,0,25.84555,9.618768,0.2697097,0.1515912,-0.4699701,-0.2473619,3.299936,0.1225033,-0.1600314,0.3569711,0.1554791,-0.978995,1.498731,0.03733512,0.2113343,1.199715,0.6835545,309.4985,304.5046,29.7562
4,0.2,0.9615435,1.491483,0.4833724,-1.048101,3.42776,-2.827606,-1.15517,-0.6586658,0,0,25.07331,9.794722,0.2649871,0.2600883,-0.4152592,-0.2492335,3.328652,0.09191048,-0.138851,0.3387412,0.1532147,-0.9772384,1.502496,0.0361351,0.214165,1.199629,0.6833687,308.8434,305.7262,29.3109
4,0.2111111,0.9466908,1.456888,0.4400881,-1.056163,3.412484,-2.829968,-1.161104,-0.5327501,0,0,24.16422,9.960899,0.3126275,0.3300743,-0.3366197,-0.2499696,3.352208,0.06369136,-0.1271695,0.3206019,0.1616856,-0.9748901,1.506355,0.03504587,0.2171023,1.199508,0.6830434,308.319,306.7545,29.04113
4,0.2222222,0.9137483,1.400687,0.373609,-1.062118,3.398242,-2.831867,-1.166956,-0.5261542,0,0,23.1476,10.1173,0.3759092,0.3042464,-0.2818364,-0.2511947,3.361661,0.0481883,-0.1134898,0.2864426,0.1648298,-0.9729534,1.508686,0.03454386,0.2201227,1.199295,0.6826556,307.8612,307.8301,28.69686
4,0.2333333,0.8956891,1.384588,0.3674147,-1.070554,3.383386,-2.834088,-1.172859,-0.5311413,0,0,22.19942,10.25415,0.4208176,0.1648814,-0.2059883,-0.2522887,3.360184,0.04395627,-0.09757809,0.2671891,0.1711108,-0.9709555,1.511376,0.03366422,0.2232172,1.198986,0.6822487,307.5044,308.8814,28.33169
4,0.2444444,0.8744748,1.352494,0.360326,-1.078424,3.369544,-2.836506,-1.17806,-0.466672,0,0,21.3783,10.37146,0.4354057,0.03525424,-0.1350981,-0.2508421,3.333463,0.06393957,-0.08259495,0.2330755,0.2051371,-0.9674593,1.512974,0.03313585,0.2263496,1.19861,0.6819203,307.1766,310.026,27.90116
4,0.2555556,0.8533598,1.297008,0.3534544,-1.086088,3.356459,-2.839386,-1.184659,-0.5954372,0,0,20.69404,10.43988,0.4472157,-0.1289315,-0.1005523,-0.2512884,3.304868,0.08616072,-0.08383183,0.2085685,0.2009163,-0.9654811,1.514661,0.03318778,0.2294314,1.198232,0.6816635,306.9349,311.1921,27.47981
4,0.2666667,0.8322473,1.223337,0.3436126,-1.092604,3.345829,-2.84285,-1.1904,-0.5155938,0,0,20.13685,10.44966,0.4382783,-0.1170459,-0.1526494,-0.2551074,3.304685,0.08175372,-0.09348141,0.2086145,0.1935292,-0.9635892,1.51747,0.03303145,0.2324181,1.197935,0.6814264,306.6086,312.4657,26.95054
4,0.2777778,0.793186,1.088852,0.3269714,-1.097821,3.338537,-2.846914,-1.196287,-0.530065,0,0,19.68719,10.43011,0.3990934,-0.02076298,-0.2670795,-0.261671,3.318428,0.06533187,-0.07354325,0.200998,0.1592862,-0.9629948,1.520141,0.03169774,0.2352397,1.197723,0.6811319,306.2537,313.6774,26.45582
4,0.2888889,0.7487563,0.971276,0.2994772,-1.102173,3.331357,-2.850493,-1.20148,-0.4664336,0,0,19.28641,10.37146,0.3592395,0.06683886,-0.3346609,-0.2674016,3.333883,0.04762904,-0.0683162,0.1956337,0.1518014,-0.9614246,1.522591,0.03101358,0.2378823,1.197577,0.680797,305.8997,314.7021,26.04354
4,0.3,0.7116709,0.8899296,0.2737589,-1.106346,3.324283,-2.853977,-1.206087,-0.4136335,0,0,18.99316,10.31281,0.2779061,0.2130893,-0.4017112,-0.2738332,3.361286,0.02082938,-0.05158496,0.1763204,0.1250695,-0.9609277,1.524191,0.03007268,0.2402473,1.197416,0.6803932,305.5816,315.5475,25.80875
4,0.3111111,0.6894485,0.8268248,0.253121,-1.110511,3.316654,-2.857478,-1.210951,-0.4375989,0,0,18.81721,10.26393,0.2418214,0.2727777,-0.3969606,-0.2778774,3.378853,0.002135855,-0.05169434,0.1731103,0.113355,-0.9599944,1.526476,0.0293989,0.2421717,1.19718,0.6799173,305.3683,316.2446,25.67644
4,0.3222222,0.7002397,0.7690916,0.2302915,-1.114242,3.309808,-2.862634,-1.216135,-0.466726,0,0,18.74878,10.21505,0.212451,0.3110163,-0.3486587,-0.2801635,3.395663,-0.01554674,-0.04541597,0.1783745,0.09518321,-0.9595087,1.529197,0.02822418,0.2435742,1.196829,0.6794962,305.195,316.8038,25.52738
4,0.3333333,0.6981724,0.7379475,0.2061192,-1.117832,3.302183,-2.867113,-1.221617,-0.4937879,0,0,18.76833,10.17595,0.2227779,0.2958088,-0.2593058,-0.2800474,3.404908,-0.02748515,-0.0338296,0.1761659,0.08125919,-0.9588786,1.531725,0.02687209,0.2445402,1.196403,0.6790702,305.0208,317.3075,25.21991
4,0.3444445,0.6513062,0.7214622,0.1711926,-1.120595,3.294309,-2.869327,-1.227969,-0.5733552,0,0,18.8563,10.17595,0.2543606,0.2326294,-0.1670806,-0.2783541,3.405676,-0.03229935,-0.02740449,0.17296,0.08867182,-0.9575412,1.534139,0.02569897,0.2452138,1.195958,0.67865,304.8378,317.7751,24.82673
4,0.3555556,0.5766034,0.7616134,0.1580551,-1.124874,3.283788,-2.868688,-1.23257,-0.4126233,0,0,18.93451,10.20528,0.2776836,0.07169411,-0.1560709,-0.2798364,3.384847,-0.01662638,-0.03492516,0.1506483,0.09728796,-0.9561313,1.5353,0.02571362,0.2457937,1.195428,0.6781813,304.591,318.0759,24.51754
4,0.3666667,0.4986643,0.8243061,0.1638583,-1.129978,3.272417,-2.866931,-1.234951,-0.2115209,0,0,18.96383,10.24438,0.1897796,0.04111275,-0.2172231,-0.2847771,3.384568,-0.01535073,-0.04143043,0.1357605,0.09524191,-0.9550111,1.536487,0.02588273,0.2465044,1.194778,0.6777236,304.3771,318.3948,24.16948
4,0.3777778,0.4463932,0.8540804,0.1721205,-1.135083,3.261813,-2.865753,-1.237551,-0.2330158,0,0,18.93451,10.30303,0.1265953,0.09034806,-0.2644832,-0.2894355,3.393694,-0.02328615,-0.0511853,0.1262015,0.08041825,-0.9546101,1.537758,0.02608193,0.2474886,1.194079,0.6774492,304.296,318.9057,23.69877
4,0.3888889,0.3728521,0.8590685,0.1582972,-1.139149,3.251797,-2.863203,-1.241159,-0.3247923,0,0,18.78788,10.35191,0.1605571,0.1766794,-0.2932741,-0.2937136,3.410537,-0.04249979,-0.0492273,0.1219056,0.06229188,-0.9545659,1.539426,0.02568619,0.2488531,1.193597,0.6775923,304.3093,319.8117,22.95878
4,0.4,0.2866283,0.8188614,0.1076953,-1.140822,3.243468,-2.86003,-1.245798,-0.4182525,0,0,18.55327,10.39101,0.1968758,0.2234904,-0.2891732,-0.2969718,3.424028,-0.05884734,-0.04422227,0.1069116,0.03138212,-0.9552759,1.540343,0.02552613,0.2505949,1.19361,0.6782124,304.2938,320.9139,22.25776
4,0.4111111,0.1705929,0.759256,0.04348348,-1.141268,3.236067,-2.85496,-1.248569,-0.2468957,0,0,18.22092,10.43011,0.2205996,0.2702342,-0.2636692,-0.2992631,3.437791,-0.07544655,-0.02417259,0.08335701,0.02275314,-0.9551778,1.540669,0.02483771,0.2526098,1.194261,0.6791453,304.1478,321.8607,21.90653
4,0.4222222,0.05241293,0.7114497,-0.0112662,-1.141336,3.228762,-2.848586,-1.251389,-0.2531054,0,0,17.82014,10.47898,0.1962504,0.2638168,-0.2443089,-0.3014746,3.446329,-0.08490131,0.01912564,0.03517509,0.009723207,-0.9553995,1.539569,0.02395966,0.254752,1.195572,0.6804009,303.8939,322.4738,21.96266
4,0.4333333,-0.01793233,0.6981353,-0.04301478,-1.142282,3.220262,-2.842376,-1.253351,-0.1743173,0,0,17.3607,10.52786,0.1328789,0.1443265,-0.159982,-0.3001425,3.437179,-0.07523004,0.04427199,-0.01400256,-0.009562843,-0.9561904,1.537364,0.02387497,0.2568564,1.197463,0.6819813,303.5353,322.6169,22.47117
4,0.4444444,-0.117089,0.7156268,-0.07398494,-1.143151,3.210577,-2.833641,-1.256234,-0.259172,0,0,16.95015,10.58651,0.1192553,0.06006169,-0.1196442,-0.2999651,3.429542,-0.06885896,0.04846141,-0.02148579,-0.01277773,-0.9564221,1.5369,0.02361318,0.2587598,1.199886,0.6839309,303.1256,322.5164,23.15874
4,0.4555556,-0.2088779,0.7706708,-0.0830147,-1.145353,3.198898,-2.823417,-1.261214,-0.45002,0,0,16.51026,10.66471,0.1248444,-0.04129314,-0.0720659,-0.2990559,3.416488,-0.0580902,0.06315052,-0.0492591,-0.02242679,-0.9569728,1.535507,0.02317456,0.2603456,1.202844,0.6861226,302.6397,322.3304,23.85375
4,0.4666667,-0.2996791,0.8587949,-0.08705619,-1.14839,3.185726,-2.812262,-1.263503,-0.2027073,0,0,16.01173,10.74291,0.1400264,-0.1256143,-0.02664492,-0.2977244,3.402339,-0.04670678,0.08219872,-0.05894098,-0.03214327,-0.9576424,1.534914,0.02191995,0.2616103,1.206281,0.68841,301.9967,322.0282,24.55742
4,0.4777778,-0.3595455,0.9299694,-0.08988912,-1.151594,3.172052,-2.800581,-1.266668,-0.2852454,0,0,15.46432,10.84066,0.1433411,-0.186417,-0.002359631,-0.2968967,3.388653,-0.0352978,0.08635938,-0.05792273,-0.04602671,-0.9586368,1.534174,0.02120009,0.2626259,1.210085,0.6910006,301.2742,321.6677,25.23091
4,0.4888889,-0.4418459,1.021437,-0.08225037,-1.156126,3.156904,-2.786671,-1.270181,-0.3161429,0,0,14.86804,10.93842,0.125187,-0.2087583,-0.004410885,-0.2971321,3.37876,-0.02663587,0.07764773,-0.05682783,-0.07258571,-0.9602347,1.534006,0.02066826,0.2635049,1.214252,0.6938484,300.4855,321.3211,25.84954
4,0.5,-0.5069875,1.083151,-0.07218751,-1.160786,3.142229,-2.773012,-1.27353,-0.3010395,0,0,14.23265,11.01662,0.07402349,-0.2129451,-0.007192887,-0.2973185,3.370008,-0.01729963,0.08279403,-0.06115215,-0.09286014,-0.9619849,1.533038,0.02017691,0.2644271,1.218761,0.6967723,299.6133,320.9112,26.51289
4,0.5111111,-0.5464821,1.109747,-0.06603533,-1.165252,3.128697,-2.760362,-1.275407,-0.1668492,0,0,13.64614,11.09482,0.02931532,-0.2118339,-0.002565172,-0.2973318,3.362368,-0.00872638,0.08693389,-0.07394224,-0.100313,-0.9631279,1.532101,0.01949327,0.2655197,1.223549,0.6996593,298.6971,320.4737,27.27696
4,0.5222223,-0.6051149,1.13758,-0.03856784,-1.170972,3.115261,-2.74639,-1.278725,-0.2996509,0,0,13.09873,11.1828,0.0016471,-0.2299256,0.004003853,-0.2970644,3.351651,0.002472479,0.08468863,-0.08778292,-0.1045344,-0.9644265,1.530387,0.01970553,0.2668456,1.228603,0.70261,297.7823,320.1945,28.00756
4,0.5333334,-0.6275394,1.164405,-0.01539055,-1.176982,3.101817,-2.733782,-1.282582,-0.3477954,0,0,12.60997,11.27077,-0.0005403012,-0.2426986,-0.0002817996,-0.2973217,3.340751,0.01284656,0.0792373,-0.09944534,-0.1161792,-0.9659631,1.529508,0.01903255,0.2684008,1.23388,0.7056932,296.8595,319.838,28.90121
4,0.5444446,-0.6564347,1.228601,0.01698241,-1.184481,3.086724,-2.719998,-1.284168,-0.1404032,0,0,12.23851,11.35875,-0.01627422,-0.2321132,0.02758199,-0.2961781,3.332782,0.0211961,0.0516062,-0.08964372,-0.1170268,-0.9669842,1.529875,0.01890498,0.2701461,1.239258,0.7087525,295.8843,319.3213,30.01255
4,0.5555557,-0.6874973,1.301319,0.05032143,-1.19303,3.070881,-2.705504,-1.287877,-0.3365648,0,0,12.16031,11.46628,-0.02364115,-0.2193417,0.03620294,-0.2955352,3.326293,0.02788569,0.04984758,-0.05124696,-0.09683768,-0.9673469,1.530743,0.01793985,0.271969,1.244637,0.7118198,294.8895,318.9637,31.04899
4,0.5666668,-0.7142515,1.351506,0.06792837,-1.201227,3.055582,-2.691312,-1.289593,-0.1527034,0,0,12.41447,11.59335,-0.04586026,-0.1746013,0.04717799,-0.2945829,3.325824,0.02974991,0.05319461,-0.03629714,-0.09047819,-0.9678492,1.531597,0.01639229,0.2738211,1.249919,0.7147278,293.8865,318.576,32.06491
4,0.577778,-0.7260406,1.375961,0.06661162,-1.20886,3.040566,-2.677563,-1.290884,-0.1157638,0,0,12.97165,11.74976,-0.07754889,-0.1074989,0.06788329,-0.2931949,3.331122,0.0267187,0.05533253,-0.04375653,-0.0840892,-0.9685618,1.530728,0.01618563,0.2757525,1.255046,0.7176797,292.8802,318.3553,32.86327
4,0.5888891,-0.7484581,1.390786,0.06434897,-1.216558,3.025906,-2.663419,-1.292493,-0.1451,0,0,13.74389,11.93548,-0.08591484,-0.07984743,0.08188958,-0.2918388,3.329491,0.02935949,0.05322652,-0.05115566,-0.07552284,-0.9689368,1.530236,0.01598163,0.2777928,1.260023,0.7207154,291.8945,318.2742,33.54292
4,0.6000003,-0.7825837,1.410006,0.07696465,-1.225336,3.011276,-2.648656,-1.294192,-0.1533297,0,0,14.70186,12.14076,-0.1082557,-0.05211614,0.08109562,-0.2909056,3.330991,0.0299049,0.05864219,-0.04690973,-0.06704946,-0.969381,1.529803,0.01538348,0.2799304,1.264843,0.7237188,290.9756,318.0963,34.33275
4,0.6111114,-0.8391392,1.451551,0.09150255,-1.235031,2.995917,-2.632483,-1.294866,-0.05961465,0,0,15.65983,12.20919,-0.1265301,-0.05097246,0.06100655,-0.2911357,3.328337,0.03444133,0.06933784,-0.04479913,-0.06499223,-0.9698902,1.530025,0.01388625,0.2821634,1.269504,0.7266664,290.1246,317.7991,35.2309
4,0.6222225,-0.8700973,1.48263,0.1167714,-1.24551,2.980995,-2.617023,-1.295204,-0.0298372,0,0,16.56892,12.13099,-0.1459741,-0.07109968,0.03234446,-0.2918127,3.323226,0.04166196,0.06312308,-0.03620844,-0.04791769,-0.9698732,1.529917,0.01351554,0.2844766,1.274048,0.7296065,289.309,317.6022,36.03071
4,0.6333337,-0.8711498,1.483841,0.130609,-1.255523,2.967027,-2.602935,-1.294937,0.02547312,0,0,17.38025,11.88661,-0.1494236,-0.07633488,0.002525009,-0.2928934,3.319603,0.04682423,0.0526453,-0.01374663,-0.04360294,-0.9700996,1.531161,0.01253284,0.2868518,1.278579,0.7325063,288.4975,317.7003,36.52532
4,0.6444448,-0.8529792,1.472343,0.1456259,-1.265521,2.953872,-2.590246,-1.296276,-0.1220201,0,0,17.91789,11.47605,-0.1571954,-0.1039223,-0.03052136,-0.2945217,3.312484,0.05559402,0.04736959,0.003334403,-0.04892484,-0.9708501,1.532057,0.01135732,0.2892904,1.283311,0.7354297,287.7088,318.0989,36.71973
4,0.655556,-0.752621,1.390448,0.1314833,-1.273135,2.943006,-2.582029,-1.298178,-0.1721982,0,0,18.16227,10.96774,-0.1848737,-0.1102807,-0.02818213,-0.2948316,3.307804,0.062902,0.04320658,0.02361506,-0.05210641,-0.9713555,1.533638,0.01013173,0.2917696,1.288362,0.7384004,286.8336,318.2488,37.19772
4,0.6666671,-0.7141068,1.327405,0.1033471,-1.279914,2.931907,-2.572202,-1.299995,-0.1643259,0,0,18.11339,10.39101,-0.2346894,-0.09644631,-2.844632E-05,-0.2939597,3.305653,0.06926616,0.04347943,0.03538788,-0.02442013,-0.970482,1.53472,0.00915435,0.2942325,1.293666,0.741294,285.8471,317.742,38.34323
4,0.6777782,-0.7055066,1.29315,0.08559832,-1.287457,2.920431,-2.561316,-1.304162,-0.3794376,0,0,17.79081,9.736072,-0.2591117,-0.06233251,0.003473688,-0.2937872,3.307393,0.0712582,0.03514632,0.0610112,-0.0190715,-0.9704782,1.53658,0.007947405,0.2966438,1.299041,0.7441476,284.7805,316.4712,40.24743
4,0.6888894,-0.6968282,1.227779,0.0468761,-1.293243,2.909891,-2.550657,-1.303023,0.1072682,0,0,17.27273,9.07136,-0.2591092,0.003745884,-0.006981876,-0.294176,3.315159,0.06659874,0.0141464,0.09420379,-0.00403975,-0.9699526,1.539551,0.006754842,0.2989522,1.30406,0.74687,283.7303,313.995,43.29251
4,0.7000005,-0.6741596,1.107,0.004476577,-1.296703,2.902027,-2.541704,-1.301815,0.1090946,0,0,16.72532,8.52395,-0.2517039,0.0495843,-0.02075518,-0.2947656,3.322026,0.06259334,-0.01009987,0.1146137,0.01422147,-0.9692106,1.541887,0.006348976,0.3012182,1.308478,0.7494727,282.89,311.692,46.02026
4,0.7111117,-0.6418552,0.9853605,-0.0230163,-1.299843,2.89536,-2.533978,-1.301708,0.009086519,0,0,16.17791,8.123168,-0.254793,0.07513595,-0.01213184,-0.2945435,3.327574,0.06017306,-0.01746423,0.1232058,0.01959922,-0.9687355,1.544146,0.005404619,0.303551,1.31233,0.7519903,282.261,310.355,47.68566
4,0.7222228,-0.6021767,0.8906165,-0.02736047,-1.303643,2.889195,-2.526928,-1.302759,-0.09604795,0,0,15.64027,7.898339,-0.2790703,0.1166444,0.008440172,-0.2935746,3.335976,0.05606487,-0.02798588,0.1211821,0.03779377,-0.9677362,1.54588,0.00503151,0.3059868,1.315745,0.7544404,281.8579,309.6126,48.79381
4,0.7333339,-0.5765045,0.8555828,-0.02274899,-1.308335,2.882198,-2.519617,-1.303787,-0.09320489,0,0,15.11242,7.800587,-0.2970582,0.1347452,0.01930291,-0.2928503,3.342605,0.05350664,-0.02679811,0.1297143,0.04735792,-0.9668654,1.547986,0.004090616,0.3084086,1.318799,0.7568949,281.5855,308.8038,50.05629
4,0.7444451,-0.5476503,0.8237078,-0.02243665,-1.312817,2.875362,-2.512813,-1.304333,-0.04913641,0,0,14.64321,7.771261,-0.3054492,0.1709448,0.03012166,-0.2922345,3.353008,0.04733582,-0.03101588,0.1276237,0.05484904,-0.9660004,1.549661,0.003622165,0.3107041,1.321511,0.7592638,281.3102,307.9908,51.28186
4,0.7555562,-0.5315999,0.7916964,-0.03168851,-1.317149,2.868255,-2.505477,-1.304174,0.01474634,0,0,14.2522,7.898339,-0.2842169,0.176271,0.02037174,-0.2922361,3.360476,0.04263987,-0.03625125,0.1330031,0.0612759,-0.965072,1.551892,0.002784868,0.3128282,1.323929,0.7615713,280.9777,307.4352,52.18229
4,0.7666674,-0.4866908,0.7266529,-0.04914701,-1.319585,2.862841,-2.500288,-1.304424,-0.02313469,0,0,13.92962,8.191594,-0.2313322,0.1560725,-0.02062511,-0.2939304,3.363545,0.04064516,-0.03922002,0.1458488,0.0793958,-0.963545,1.554606,0.001555286,0.3148358,1.326167,0.7639868,280.6367,307.0875,52.8039
4,0.7777785,-0.4694586,0.6573579,-0.05800551,-1.321776,2.858292,-2.49456,-1.303813,0.05591503,0,0,13.66569,8.641251,-0.2008312,0.1380523,-0.06461428,-0.2961281,3.366836,0.03863741,-0.03254396,0.1554503,0.1091559,-0.9613058,1.557109,0.0002583266,0.3168145,1.328301,0.7665367,280.3407,306.4765,53.59458
4,0.7888896,-0.4191834,0.5805102,-0.08600429,-1.322706,2.853616,-2.490424,-1.305273,-0.1341104,0,0,13.46041,9.217987,-0.196855,0.1264261,-0.09665517,-0.2983736,3.370824,0.03701794,-0.04832392,0.1545355,0.1359169,-0.9588909,1.559411,5.77906E-05,0.3188565,1.330395,0.7691672,280.0948,305.6199,54.59398
4,0.8000008,-0.3795668,0.4972718,-0.1096448,-1.323047,2.849928,-2.486411,-1.30447,0.07445917,0,0,13.29423,9.882699,-0.2458637,0.1819112,-0.105663,-0.299735,3.38349,0.02931901,-0.05875681,0.1642192,0.1572879,-0.956363,1.562107,-0.0004628574,0.3209325,1.332387,0.7717078,279.8875,304.2494,56.16792
4,0.8111119,-0.3399969,0.4397622,-0.1176058,-1.323483,2.846377,-2.482859,-1.305729,-0.1160268,0,0,13.12806,10.47898,-0.2735201,0.2192429,-0.1063911,-0.3008882,3.396288,0.02107359,-0.06475197,0.1941454,0.1860596,-0.9531613,1.56639,-0.002051433,0.3229595,1.334275,0.7741434,279.7169,303.2618,57.43193
4,0.8222231,-0.2962282,0.4025635,-0.1215136,-1.324532,2.842516,-2.479809,-1.305471,0.02445333,0,0,12.97165,10.95797,-0.2841972,0.2842721,-0.1188904,-0.3026342,3.41354,0.008195345,-0.06463952,0.2005437,0.1956243,-0.9509035,1.569283,-0.00307675,0.3249219,1.336044,0.7764795,279.6208,301.9556,58.9882
4,0.8333342,-0.270606,0.3834727,-0.1202723,-1.32575,2.838716,-2.476673,-1.305534,-0.006278953,0,0,12.81525,11.3001,-0.2734028,0.3460289,-0.1124026,-0.303693,3.433604,-0.008349276,-0.06893202,0.2026989,0.1967212,-0.9486436,1.572023,-0.003815777,0.3267713,1.337604,0.7787645,279.492,300.3329,60.9209
4,0.8444453,-0.2226207,0.3720505,-0.1063559,-1.327591,2.835096,-2.47488,-1.3058,-0.02451875,0,0,12.64907,11.42717,-0.2328848,0.384314,-0.1126307,-0.3050587,3.451388,-0.02397218,-0.06995218,0.202717,0.1967277,-0.9464805,1.574914,-0.00465414,0.3283891,1.338878,0.7810354,279.351,298.882,62.6925
4,0.8555565,-0.1799821,0.3669627,-0.09569466,-1.329502,2.831494,-2.473452,-1.305397,0.03680751,0,0,12.46334,11.40763,-0.2020392,0.3864246,-0.1192787,-0.3068105,3.465254,-0.03612418,-0.07527665,0.1931693,0.2053139,-0.9438856,1.577139,-0.00479582,0.3299015,1.339916,0.783499,279.2607,297.9172,63.76697
4,0.8666676,-0.1564822,0.3457692,-0.09229884,-1.330751,2.828279,-2.471651,-1.306302,-0.08327222,0,0,12.27762,11.38807,-0.1756219,0.3949774,-0.1461092,-0.3096026,3.479372,-0.04850841,-0.105059,0.1710016,0.2258335,-0.9407185,1.578707,-0.003667439,0.3313857,1.340757,0.7861074,279.1934,297.5575,64.15472
4,0.8777788,-0.1532038,0.3170299,-0.09092452,-1.331563,2.825685,-2.469387,-1.306381,-0.006782711,0,0,12.08211,11.36852,-0.1692418,0.4621244,-0.1587467,-0.3122881,3.503412,-0.06975644,-0.1251562,0.148831,0.2622208,-0.9366156,1.579676,-0.0021015,0.3329057,1.341402,0.7887152,279.1103,297.322,64.41451
4,0.8888899,-0.1381195,0.2595968,-0.08606008,-1.331555,2.824329,-2.468013,-1.305516,0.07879298,0,0,11.88661,11.39785,-0.148935,0.543075,-0.1640014,-0.314954,3.53121,-0.09518351,-0.1090726,0.08918005,0.3197359,-0.9311839,1.578693,-0.0008333031,0.3344932,1.341808,0.7912245,279.0114,297.0238,64.80125
4,0.900001,-0.1315473,0.2033422,-0.06841296,-1.331592,2.824067,-2.466728,-1.304498,0.09217048,0,0,11.70088,11.6129,-0.1095993,0.5888798,-0.1812384,-0.3184629,3.556376,-0.1193155,-0.06858194,0.03361479,0.3610618,-0.9258975,1.576742,-0.0003789678,0.3361183,1.341967,0.7935627,278.9416,297.0227,64.96882
4,0.9111122,-0.09178469,0.09853656,-0.01831021,-1.331508,2.826873,-2.467564,-1.304759,-0.02479184,0,0,11.54448,11.95504,-0.005326629,0.6122392,-0.2012207,-0.322431,3.57892,-0.1443281,-0.006902527,-0.06036818,0.416143,-0.9194127,1.571943,0.0003414172,0.3377082,1.341986,0.7958171,278.9131,297.6405,64.58395
4,0.9222233,-0.06708945,0.03815589,0.006820351,-1.331312,2.82859,-2.467912,-1.304431,0.03017409,0,0,11.4174,12.37537,0.03526606,0.5790961,-0.1824837,-0.3244886,3.593962,-0.160224,0.02809939,-0.1340053,0.4500831,-0.9135399,1.566946,0.00199524,0.3391427,1.341949,0.7980365,278.9171,298.4222,64.0434
4,0.9333345,-0.04550322,-0.04774191,0.03862134,-1.33026,2.832433,-2.469005,-1.305558,-0.103515,0,0,11.30987,12.88368,0.04227376,0.5106543,-0.09752244,-0.3231517,3.605056,-0.1714024,0.02506258,-0.1243863,0.4639366,-0.9080032,1.56572,0.002677542,0.3402492,1.341918,0.8002082,278.8895,299.4693,63.23345
4,0.9444456,-0.06122509,-0.1306477,0.05978136,-1.328917,2.836519,-2.468671,-1.30519,0.03438041,0,0,11.2219,13.33333,0.009722441,0.4188685,-0.02614988,-0.3212768,3.610933,-0.1758914,0.02200476,-0.09452794,0.4596431,-0.9031733,1.565861,0.002568619,0.3407798,1.341867,0.8022886,278.8342,300.155,62.73495
4,0.9555568,-0.1279842,-0.2588045,0.04845905,-1.324735,2.842052,-2.466422,-1.305093,0.008322814,0,0,11.16325,13.72434,-0.02936341,0.3719104,0.02091398,-0.3200278,3.619991,-0.1828686,0.02627363,-0.0540565,0.4339806,-0.8992531,1.566934,0.001606419,0.3406824,1.34174,0.804291,278.8231,300.1709,62.72441
4,0.9666679,-0.2236286,-0.3236303,0.08868665,-1.322976,2.847935,-2.462277,-1.299911,0.4736959,0,0,11.12415,14.08602,-0.06448214,0.3825954,0.02336554,-0.320896,3.635149,-0.1955833,0.04331878,0.001061238,0.3900689,-0.8964365,1.569226,-0.001044492,0.339929,1.341473,0.8064639,278.8652,299.0129,63.7923
4,0.977779,-0.3467925,-0.4350424,0.1635422,-1.319281,2.861987,-2.454671,-1.298895,0.08902784,0,0,11.11437,14.41838,-0.05765507,0.4339733,-0.06069627,-0.3268785,3.666632,-0.2243724,0.07503298,0.03061152,0.3343862,-0.890478,1.571312,-0.005041364,0.3383726,1.341169,0.8094724,279.0745,298.2206,64.35528
4,0.9888902,-0.3744349,-0.4312868,0.2221285,-1.320059,2.868661,-2.451086,-1.300759,-0.1705662,0,0,11.12415,14.75073,-0.03552909,0.4286994,-0.08860059,-0.3299635,3.678988,-0.2364868,0.08017264,0.01884364,0.3183891,-0.8874702,1.571004,-0.005988384,0.3359269,1.340942,0.8123164,279.3432,298.7237,63.25886
4,1.000001,-0.3979685,-0.3490849,0.3416478,-1.326288,2.874533,-2.447227,-1.298461,0.211951,0,0,11.1437,15.13197,-0.03388248,0.3606506,-0.1356895,-0.3333644,3.679845,-0.2370309,0.08935971,-0.005775645,0.286412,-0.8853871,1.569342,-0.006250706,0.3328488,1.340953,0.8148018,279.597,298.5649,62.6062
4,1.011112,-0.4079534,-0.1679136,0.4483607,-1.336743,2.876272,-2.44258,-1.300369,-0.1762143,0,0,11.16325,15.58162,-0.08648399,0.2468193,-0.1643516,-0.335757,3.67238,-0.2268321,0.09754256,-0.02930266,0.2608209,-0.8834728,1.567767,-0.006577475,0.3293228,1.341434,0.8171762,279.7463,298.0616,62.27058
4,1.022224,-0.4093006,-0.0359914,0.528963,-1.346258,2.878407,-2.438503,-1.300929,-0.04926798,0,0,11.20235,16.08016,-0.1533988,0.1455807,-0.1236158,-0.3350235,3.666195,-0.2166522,0.09645819,-0.01759363,0.250157,-0.8810334,1.568201,-0.007818774,0.3256238,1.34252,0.8195068,279.6927,296.7954,62.63858
4,1.033335,-0.4126702,0.04438633,0.573908,-1.354591,2.881156,-2.434364,-1.301464,-0.04865528,0,0,11.2219,16.60802,-0.1744229,0.1146015,-0.08623987,-0.3345016,3.66702,-0.214976,0.07210381,0.02832193,0.2353606,-0.8789135,1.570925,-0.009378055,0.3220536,1.344301,0.8218662,279.269,295.3803,63.21798
4,1.044446,-0.4126908,0.04528981,0.5589855,-1.359161,2.884593,-2.430411,-1.302193,-0.06629469,0,0,11.24145,17.11633,-0.1773652,0.1550077,-0.06052306,-0.3349799,3.677114,-0.2222488,0.04861744,0.04116942,0.2184844,-0.8766961,1.572429,-0.01021029,0.3189679,1.346744,0.8242389,278.6276,293.0227,64.88868
4,1.055557,-0.3881378,0.01843369,0.5315481,-1.362233,2.888476,-2.427978,-1.302226,-0.002245356,0,0,11.24145,17.85924,-0.2027231,0.1997308,-0.04313435,-0.3357788,3.688434,-0.2298231,0.04841097,0.02946302,0.2014537,-0.8754876,1.571912,-0.01013786,0.3165128,1.349609,0.8264238,278.0169,289.1785,68.29179
4,1.066668,-0.2887037,-0.1364873,0.4649307,-1.35943,2.896063,-2.430037,-1.302375,-0.01347446,0,0,11.21212,18.91496,-0.2259158,0.2081946,-0.01308496,-0.3354321,3.696855,-0.2341499,0.04615349,0.02945055,0.1854919,-0.8739722,1.572349,-0.01083001,0.3146519,1.352668,0.8284988,277.5367,284.2176,73.104
4,1.077779,-0.2119192,-0.172698,0.444992,-1.360668,2.901316,-2.431589,-1.303866,-0.1361812,0,0,11.15347,20.26393,-0.2563371,0.1569214,0.05093877,-0.3324094,3.698635,-0.231903,0.03750829,0.02202323,0.1749245,-0.872328,1.572321,-0.01091923,0.3132196,1.355635,0.8304926,277.2933,278.6149,78.73092
4,1.08889,-0.1138844,-0.1885355,0.432266,-1.362302,2.906162,-2.435095,-1.307574,-0.337948,0,0,11.07527,21.88661,-0.2934226,0.05565214,0.09142406,-0.3292769,3.690767,-0.2198202,0.006389283,0.01789688,0.1485421,-0.8717352,1.572376,-0.009810819,0.3120008,1.358214,0.8324589,277.214,272.9908,84.50713
4,1.100002,-0.02980547,-0.1638622,0.4255109,-1.365258,2.909648,-2.438755,-1.307513,0.008128881,0,0,10.98729,23.75367,-0.3210071,-0.005101979,0.1149106,-0.3265914,3.68477,-0.2095096,-0.01710159,0.02333355,0.1380642,-0.8706316,1.572907,-0.008964999,0.3106533,1.359961,0.8344953,277.3377,267.9293,89.69511
4,1.111113,-0.007443994,-0.1594321,0.4350148,-1.368031,2.913974,-2.440185,-1.308889,-0.126831,0,0,10.86999,25.6696,-0.3706525,-0.01371327,0.1696435,-0.3225855,3.686758,-0.2051156,-0.05968825,0.04911959,0.1234392,-0.8698731,1.574998,-0.007940481,0.3091698,1.360708,0.8366978,277.2874,265.2502,92.23299
4,1.122224,-0.03511092,-0.1592017,0.4627274,-1.371384,2.919485,-2.439448,-1.308813,0.007564727,0,0,10.71359,27.57576,-0.4054778,0.05656379,0.1957158,-0.320194,3.699718,-0.2118047,-0.08722138,0.07591254,0.125745,-0.868337,1.577431,-0.00739187,0.3076424,1.360415,0.8391509,277.1116,264.8718,92.29855
4,1.133335,-0.0575477,-0.1336302,0.4688669,-1.375223,2.923421,-2.438657,-1.305769,0.2776694,0,0,10.53763,29.38417,-0.4055349,0.1429098,0.1768007,-0.3202222,3.716351,-0.2229412,-0.0878052,0.1143184,0.158709,-0.8652866,1.580967,-0.008809204,0.3061871,1.359148,0.8417439,276.8595,266.9445,89.89242
4,1.144446,-0.07702631,-0.0249683,0.4730176,-1.381789,2.923497,-2.436995,-1.302694,0.2785438,0,0,10.35191,30.83089,-0.3536817,0.2793869,0.1117946,-0.323696,3.741147,-0.2449216,-0.09502535,0.1473962,0.1651012,-0.8632338,1.584825,-0.009858756,0.3047344,1.357149,0.8443527,276.5581,271.9022,84.7231
4,1.155557,-0.06679365,0.1308056,0.4915517,-1.391457,2.921611,-2.436257,-1.302599,0.006488038,0,0,10.17595,31.89638,-0.3092425,0.3263385,0.0657521,-0.3262016,3.756433,-0.2580435,-0.1002941,0.1559442,0.1661973,-0.8614298,1.587405,-0.01024278,0.303151,1.354947,0.8469117,276.3048,279.9636,76.48177
4,1.166668,-0.0053913,0.2630654,0.4889534,-1.400381,2.918698,-2.437938,-1.302307,0.0265391,0,0,10.01955,32.42424,-0.2811394,0.3339967,-0.0143608,-0.330796,3.765484,-0.2648152,-0.09934051,0.149532,0.1566112,-0.8601451,1.589202,-0.0103336,0.3014557,1.353054,0.8493675,276.203,288.0081,68.18732
4,1.17778,0.02205187,0.3470554,0.46563,-1.408053,2.915924,-2.438882,-1.303099,-0.07325273,0,0,9.892473,32.42424,-0.3122873,0.2637911,-0.03348616,-0.3318442,3.764317,-0.2589059,-0.09344673,0.1195986,0.1150663,-0.8607102,1.589177,-0.009533584,0.2999149,1.3519,0.8517476,276.073,294.6165,61.20282
4,1.188891,0.03243554,0.4320492,0.4412524,-1.416194,2.91217,-2.438981,-1.304857,-0.1610494,0,0,9.804497,31.96481,-0.3387159,0.1198711,0.01317636,-0.3283992,3.751364,-0.2418153,-0.08535358,0.101367,0.07455366,-0.8617228,1.589441,-0.009064602,0.298884,1.351742,0.854016,275.7822,299.155,56.27223
4,1.200002,0.01426989,0.4521945,0.4367874,-1.423506,2.910761,-2.438169,-1.302903,0.1787748,0,0,9.755621,31.28055,-0.3514491,0.04739296,0.03224854,-0.3264274,3.744794,-0.2310503,-0.08228948,0.1045083,0.05535366,-0.8616753,1.591199,-0.009412676,0.2985422,1.352312,0.8558773,275.3144,299.3663,55.90529
4,1.211113,-0.02643925,0.5166212,0.3956512,-1.430985,2.906072,-2.435368,-1.300359,0.2294875,0,0,9.726295,30.47898,-0.3588511,0.03886002,0.03975124,-0.3257019,3.746341,-0.2283879,-0.09086812,0.1215712,0.03515624,-0.8621345,1.594004,-0.009963685,0.2989322,1.353302,0.8574367,274.7619,296.7948,58.57453
4,1.222224,-0.03086722,0.5837911,0.4013055,-1.440469,2.90192,-2.434448,-1.297032,0.30074,0,0,9.687196,29.60899,-0.3452632,0.08902624,0.00143353,-0.3281222,3.755344,-0.2335552,-0.09575043,0.1525524,0.06923112,-0.8600157,1.597976,-0.01128195,0.2999955,1.354399,0.8586272,274.1279,293.2039,62.50892
4,1.233335,-0.05824399,0.8566819,0.422865,-1.458538,2.889779,-2.431056,-1.293296,0.3376039,0,0,9.657869,28.69013,-0.3136673,0.1541201,-0.05297519,-0.3322304,3.766582,-0.2420896,-0.08914813,0.1451123,0.1011517,-0.8575485,1.599788,-0.0117765,0.3014199,1.355398,0.859668,273.4768,289.643,66.68353
4,1.244446,-0.01499057,1.034328,0.4837393,-1.47631,2.880831,-2.431976,-1.292655,0.05393923,0,0,9.589444,27.83969,-0.2942441,0.1881115,-0.02960613,-0.3326746,3.777313,-0.2498828,-0.09368388,0.1174342,0.08735846,-0.8572162,1.599847,-0.01037781,0.3030928,1.356237,0.8607443,272.8951,286.6544,70.2756
4,1.255558,0.001580715,1.212571,0.5094742,-1.495204,2.86917,-2.431632,-1.288727,0.3569788,0,0,9.491692,27.19453,-0.3038967,0.1561755,-0.03282124,-0.3331881,3.777944,-0.24678,-0.09502187,0.089711,0.07251792,-0.8570154,1.599756,-0.009301622,0.3049511,1.356803,0.8619053,272.1589,283.5688,73.8252
4,1.266669,0.03912771,1.512281,0.530667,-1.518589,2.85218,-2.432457,-1.289294,-0.05755305,0,0,9.39394,26.65689,-0.3509433,0.07103777,-0.04014163,-0.3331833,3.769211,-0.2327635,-0.1004048,0.09079166,0.06404158,-0.856659,1.601287,-0.009044628,0.3073769,1.357322,0.8634543,271.0732,290.3222,67.45473
4,1.27778,0.03568602,1.601821,0.5360855,-1.537387,2.839794,-2.432132,-1.285115,0.3806245,0,0,9.325513,26.20724,-0.3593167,0.05712944,-0.01986319,-0.3323838,3.769231,-0.228361,-0.1251013,0.1206726,0.01624109,-0.8584663,1.604539,-0.008963401,0.3102084,1.357596,0.8649338,270.2447,43.55988,314.8687
4,1.288891,-0.05449986,1.852996,0.5355845,-1.562831,2.81992,-2.427072,-1.282443,0.2376861,0,0,9.276637,25.80645,-0.3029892,0.009138316,-0.02793602,-0.3322538,3.762824,-0.2212168,-0.1465085,0.1271573,-0.001710832,-0.8592231,1.606732,-0.00797883,0.3134628,1.357553,0.8662518,271.3412,87.64616,271.4545
4,1.300002,-0.1312433,1.850164,0.4909576,4.704659,2.807619,-2.422602,-1.276896,0.5020156,0,0,9.286413,25.34702,-0.2517529,0.01047981,-0.1434174,-0.3383669,3.759518,-0.2174772,-0.1713759,0.1048703,-0.03129635,-0.8605254,1.606993,-0.005259743,0.3173096,1.357141,0.8671821,272.6035,92.5482,267.3008
4,1.311113,-0.1727533,1.832878,0.4794814,4.687771,2.796007,-2.419296,-1.267969,0.809082,0,0,9.39394,25.29814,-0.2384179,0.05328175,-0.2115785,-0.3440762,3.764266,-0.2200256,-0.1746139,0.08466408,-0.02165032,-0.8603497,1.607138,-0.003262106,0.3216711,1.356441,0.8679508,273.8603,92.58907,268.1362
4,1.322224,-0.1856343,1.872251,0.4769235,4.668643,2.782415,-2.417475,-1.263907,0.3614492,0,0,9.628544,25.81623,-0.2088504,0.1492556,-0.2584116,-0.3504565,3.777542,-0.2313365,-0.1503257,0.01851548,-0.001495337,-0.8595715,1.604078,-0.000721983,0.3267114,1.355892,0.8686349,275.2829,90.58257,271.1891
4,1.333336,-0.1878778,1.90057,0.4361212,4.651241,2.76767,-2.416038,-1.26125,0.2378393,0,0,9.951125,26.8524,-0.1548495,0.1958148,-0.1788292,-0.3501647,3.790296,-0.2438611,-0.1155169,-0.04986062,0.003668429,-0.8594666,1.599697,0.002021339,0.3318118,1.35566,0.8690309,276.4351,90.33892,272.8806
4,1.344447,-0.184752,1.913075,0.4093459,4.634053,2.753579,-2.415047,-1.258677,0.2305533,0,0,10.37146,28.40665,-0.08046237,0.1357144,-0.06457275,-0.3461438,3.791302,-0.2468774,-0.07735848,-0.1075747,0.02157502,-0.8585169,1.595241,0.004376905,0.3365242,1.355891,0.8690655,277.5251,91.37735,273.1703
4,1.355558,-0.1826208,1.89011,0.3542126,4.619059,2.739535,-2.414283,-1.254705,0.3579979,0,0,10.83089,30.49854,-0.05766188,0.06518595,-0.002118371,-0.3431339,3.787237,-0.2432965,-0.06898449,-0.1183096,0.00874393,-0.858895,1.592778,0.006269614,0.3408141,1.35659,0.8688619,278.6168,93.97205,271.5734
4,1.366669,-0.1568472,1.772913,0.2489303,4.609635,2.727142,-2.414528,-1.250556,0.372788,0,0,11.29032,32.49267,-0.04854527,-0.01817484,0.08172081,-0.3380627,3.779073,-0.2354429,-0.07533275,-0.092729,-0.004034593,-0.8594825,1.592764,0.007427822,0.3447693,1.357555,0.8684345,279.5588,97.3214,268.9803
4,1.37778,-0.1279399,1.699829,0.1825812,4.598774,2.714491,-2.415571,-1.246101,0.401175,0,0,11.75953,34.18378,-0.02447829,-0.082382,0.166558,-0.3322187,3.772361,-0.2297762,-0.07309201,-0.06825139,-0.008350791,-0.8596476,1.592918,0.008011853,0.3485085,1.358583,0.8679381,280.4102,100.7307,266.2336
4,1.388891,-0.1267065,1.599707,0.08672559,4.591584,2.702194,-2.415554,-1.242482,0.3241374,0,0,12.21896,35.42522,0.01370281,-0.09089334,0.1470324,-0.3314261,3.769657,-0.2288036,-0.03670113,-0.05459423,0.001994764,-0.8591901,1.592839,0.006946856,0.3521032,1.359446,0.8674655,281.0986,103.5341,264.1002
4,1.400002,-0.1370518,1.468996,0.02106571,4.585099,2.692012,-2.414919,-1.238467,0.3607873,0,0,12.60019,35.77713,0.04865974,-0.08553917,0.1222545,-0.3309516,3.768448,-0.2294806,-0.02497748,-0.0567891,0.004032696,-0.8591475,1.591761,0.00751837,0.3554872,1.359881,0.8669977,281.5276,105.6813,262.6003
4,1.411114,-0.1325494,1.368492,-0.01299939,4.578801,2.682653,-2.414807,-1.232577,0.5323491,0,0,12.88368,35.29815,0.110752,-0.1279836,0.03745114,-0.3329431,3.758255,-0.2233053,-0.01111211,-0.06857228,0.01353267,-0.8586228,1.590198,0.008075237,0.3588088,1.359694,0.8666602,281.9687,107.1979,261.6215
4,1.422225,-0.120433,1.204945,-0.06662327,4.575987,2.675447,-2.414851,-1.227173,0.4859691,0,0,13.04985,34.0567,0.1411859,-0.1310581,-0.01714494,-0.3347679,3.752013,-0.2200543,-0.009120688,-0.08457334,0.007151769,-0.858788,1.588255,0.009345831,0.3621719,1.358832,0.8665423,282.3309,107.4382,261.8897
4,1.433336,-0.1092792,1.002917,-0.131534,4.576491,2.670264,-2.414771,-1.222904,0.3831575,0,0,13.09873,32.11144,0.1679761,-0.07999718,-0.006558269,-0.3344323,3.755505,-0.2259905,-0.01522059,-0.06213151,0.0274052,-0.8577563,1.588422,0.009626528,0.3655358,1.357381,0.8665523,282.7034,106.4388,263.4201
4,1.444447,-0.1012003,0.7573646,-0.1810706,4.57982,2.668215,-2.414097,-1.218535,0.3931114,0,0,13.0694,29.70675,0.2099127,-0.0002627224,0.02635344,-0.3335577,3.764909,-0.2387668,-0.02654071,-0.04282914,0.06474841,-0.8556598,1.588734,0.01021322,0.3687527,1.355479,0.86653,283.0906,104.7951,265.6462
4,1.455558,-0.1012003,0.7573646,-0.1810706,4.57982,2.668215,-2.414097,-1.213804,0.4257333,0,0,12.97165,27.48778,0.2099127,-0.0002627224,0.02635344,-0.3335577,3.764909,-0.2387668,-0.02654071,-0.04282914,0.06474841,-0.8556598,1.588734,0.01021322,0.3716087,1.353232,0.866296,283.3083,102.8394,268.1449
4,1.466669,-0.08143979,0.5376442,-0.2106508,4.583358,2.667303,-2.414104,-1.20962,0.375484,0,0,12.81525,25.89443,0.2241259,0.0390189,0.06363997,-0.3319651,3.771592,-0.2480772,-0.02754827,-0.0534549,0.07862283,-0.8543719,1.587284,0.01134107,0.37395,1.350835,0.86592,283.4344,100.729,270.8095
4,1.47778,-0.05645654,0.3607788,-0.2183431,4.586735,2.667044,-2.414348,-1.203736,0.531397,0,0,12.60997,24.78983,0.1805553,0.06781282,0.07048517,-0.3313974,3.776654,-0.2533367,-0.0127153,-0.08760568,0.09347901,-0.8528273,1.584172,0.01303431,0.3754119,1.348463,0.8655961,283.6141,99.02763,273.1125
4,1.488891,-0.03382621,0.2736421,-0.2046258,4.58772,2.66575,-2.415015,-1.199449,0.3840495,0,0,12.37537,24.08602,0.05548489,0.1093261,0.1398405,-0.3281505,3.787942,-0.2600766,0.0009929538,-0.09304105,0.07953546,-0.8524267,1.582509,0.01361941,0.3760473,1.346259,0.8655253,283.5685,96.88902,275.449
4,1.500003,-0.001616422,0.1973703,-0.1729369,4.588529,2.665641,-2.416215,-1.194819,0.4168331,0,0,12.15054,23.72434,0.0374303,0.09866627,0.148488,-0.3263896,3.791152,-0.2630324,0.004122708,-0.08243462,0.06351735,-0.8522462,1.581864,0.01391369,0.3760486,1.344305,0.8656549,283.4214,94.61089,277.5293
4,1.511114,0.01875155,0.157073,-0.1618591,4.589018,2.664175,-2.417374,-1.190047,0.4292557,0,0,11.94526,23.68524,0.0585612,0.0581989,0.1343412,-0.3253211,3.789566,-0.2629994,0.006969497,-0.07294974,0.0123455,-0.8538893,1.581292,0.01411955,0.3756412,1.342594,0.8659669,283.3159,92.71071,279.059
4,1.522225,0.02841271,0.138111,-0.1446184,4.589196,2.662947,-2.41821,-1.185612,0.3985017,0,0,11.77908,25.09287,0.09331931,-0.0195065,0.09866347,-0.3246851,3.7809,-0.2571698,0.02063491,-0.06881148,-0.0144038,-0.8549764,1.580533,0.01382074,0.3751132,1.341077,0.86645,283.3161,91.36798,279.9927
4,1.533336,0.04447475,0.127923,-0.1072258,4.588022,2.662028,-2.41951,-1.180293,0.4794667,0,0,11.64223,28.24047,0.1174391,-0.05883811,0.0589232,-0.3249653,3.77418,-0.2530136,0.04383866,-0.06048475,-0.04869359,-0.8567123,1.580035,0.01296826,0.3745639,1.339583,0.8669527,283.313,90.57114,280.4421
4,1.544447,0.06902765,0.1174891,-0.09435192,4.587691,2.660717,-2.421409,-1.174801,0.4945002,0,0,11.55425,32.85435,0.1845413,-0.08199406,-0.06634923,-0.3293355,3.765608,-0.2492279,0.04261298,-0.08711544,-0.05076889,-0.8573269,1.577491,0.01411289,0.3741935,1.337962,0.8674552,283.2988,89.866,280.8438
4,1.555558,0.09154169,0.06095655,-0.1065424,4.589604,2.660528,-2.423216,-1.170126,0.4199102,0,0,11.50538,38.48485,0.2056897,-0.04253182,-0.09197812,-0.3314176,3.766387,-0.2530355,0.04788201,-0.1148175,-0.03797896,-0.8573195,1.574499,0.01539893,0.3740899,1.33613,0.8678298,283.3705,88.94583,281.5482
4,1.566669,0.1087054,0.01729307,-0.1103397,4.591275,2.660511,-2.42506,-1.165574,0.4092152,0,0,11.46628,44.09579,0.1994957,3.868341E-05,-0.0758215,-0.3318826,3.770477,-0.2589048,0.06090938,-0.1127096,-0.008258814,-0.8563799,1.572976,0.01529267,0.3742686,1.33405,0.8680033,283.565,87.93447,282.4894
4,1.577781,0.1396181,0.007722024,-0.1166639,4.592627,2.659742,-2.427853,-1.160488,0.4579655,0,0,11.44673,49.59922,0.1762586,0.01811269,-0.0542656,-0.3319337,3.772659,-0.2620612,0.06227764,-0.1424495,0.05144132,-0.8536571,1.569429,0.01684902,0.3747098,1.331713,0.8680148,283.7562,86.66013,283.8487
4,1.588892,0.1544981,0.01723129,-0.1284929,4.593376,2.657982,-2.430429,-1.155349,0.4625093,0,0,11.43695,55.00489,0.1343855,0.03069949,0.03241218,-0.3289883,3.77746,-0.2666559,0.03768108,-0.155097,0.04846111,-0.8533359,1.56654,0.01909487,0.3753662,1.329171,0.8680062,283.9034,84.88896,285.791
4,1.600003,0.1491491,0.02024695,-0.1444892,4.594621,2.656333,-2.432242,-1.151001,0.3901758,0,0,11.42717,59.94135,0.1146349,0.06358738,0.08594316,-0.3267454,3.784874,-0.2742997,0.02605812,-0.1284004,0.04105439,-0.8530962,1.56613,0.01942563,0.3761212,1.326516,0.8679849,284.1196,82.95557,287.9467
4,1.611114,0.1289323,-0.0003502145,-0.1719389,4.597206,2.655053,-2.43314,-1.145528,0.4935756,0,0,11.39785,63.28446,0.1242165,0.08382493,0.08272542,-0.3266479,3.79022,-0.2810056,-0.01143137,-0.1005659,-0.004503499,-0.8547373,1.566005,0.02096068,0.3768495,1.323777,0.867889,284.3861,81.22822,289.8926
4,1.622225,0.1119453,-0.02721222,-0.1886701,4.599974,2.654291,-2.433961,-1.139423,0.5503097,0,0,11.3392,65.03422,0.1202954,0.07411413,0.1253409,-0.3241408,3.793806,-0.2855913,-0.01774769,-0.07922788,-0.01088439,-0.8551186,1.565874,0.02138305,0.3776121,1.321012,0.8678287,284.6899,79.59352,291.6957
4,1.633336,0.1024674,-0.07431424,-0.2083839,4.603598,2.654106,-2.434895,-1.133138,0.5663796,0,0,11.27077,65.23949,0.09317382,0.06648626,0.1958526,-0.3198307,3.799218,-0.2907754,-0.01242115,-0.08031964,-0.009856973,-0.855117,1.564605,0.02217454,0.3783835,1.318295,0.8678627,284.9861,77.88858,293.5923
4,1.644447,0.0897186,-0.08495581,-0.2039922,4.606087,2.653746,-2.435474,-1.12757,0.500572,0,0,11.19257,64.4477,0.07200274,0.05367018,0.2141019,-0.317044,3.802088,-0.2935376,0.0002929829,-0.08572409,-0.01527847,-0.8555368,1.563171,0.02260971,0.3791242,1.315749,0.8679997,285.2437,75.90262,295.7495
4,1.655559,0.07055406,-0.08052094,-0.1827111,4.607468,2.65348,-2.435558,-1.122122,0.4899348,0,0,11.1046,63.66569,0.04974857,0.03446777,0.2312736,-0.314147,3.803358,-0.2945475,0.01280225,-0.1050064,-0.03558601,-0.8567117,1.560896,0.02357617,0.3797745,1.313457,0.8682235,285.4543,74.03104,297.7588
4,1.66667,0.03542961,-0.0824728,-0.158145,4.608623,2.653531,-2.434662,-1.115838,0.5662479,0,0,11.03617,62.77615,0.05510901,0.03977737,0.2344407,-0.3117582,3.807873,-0.2996421,0.02973311,-0.120027,-0.03995856,-0.8573275,1.55846,0.02420307,0.3803176,1.311433,0.8685518,285.6027,72.41042,299.4432
4,1.677781,0.004624456,-0.1111985,-0.1482118,4.610928,2.654155,-2.433524,-1.109122,0.6048591,0,0,11.00684,61.67156,0.1038039,0.01744029,0.2020096,-0.3106125,3.807678,-0.3023199,0.04038344,-0.1456238,-0.0229601,-0.8571874,1.555286,0.02537939,0.3807436,1.309645,0.8689364,285.7722,71.19931,300.6583
4,1.688892,-0.02720666,-0.1559851,-0.1434317,4.614179,2.655702,-2.431952,-1.101628,0.6754504,0,0,11.04594,60.33236,0.1109401,-0.0464028,0.1751323,-0.3087653,3.80054,-0.2968679,0.04670406,-0.1595098,-0.0219224,-0.8574468,1.552359,0.02658634,0.3810779,1.308047,0.8693931,285.9532,70.3726,301.4655
4,1.700003,-0.05478835,-0.1976053,-0.1440117,4.617614,2.657275,-2.430264,-1.094464,0.6443653,0,0,11.13392,58.79766,0.09267306,-0.09108687,0.1634328,-0.306671,3.794056,-0.29105,0.05314083,-0.1637921,-0.01450648,-0.8573775,1.549793,0.0273203,0.3813545,1.306573,0.8700001,286.0971,69.64512,302.1644
4,1.711114,-0.08014151,-0.2710777,-0.1336005,4.622168,2.660724,-2.428124,-1.086861,0.6846661,0,0,11.27077,57.21408,0.06419396,-0.1028722,0.2009309,-0.3028659,3.792454,-0.2890845,0.06199507,-0.133977,0.006681134,-0.8565818,1.549199,0.02682655,0.3815619,1.305164,0.8707572,286.1687,68.68597,303.0814
4,1.722225,-0.09288728,-0.2740484,-0.1101165,4.624466,2.662637,-2.42653,-1.078994,0.7079367,0,0,11.44673,55.49365,0.05812646,-0.08698886,0.2393785,-0.2991374,3.795362,-0.29212,0.05799757,-0.1136803,0.02478354,-0.8557615,1.548428,0.02677329,0.3816374,1.303747,0.8716057,286.2012,67.50893,304.1908
4,1.733337,-0.106779,-0.2504347,-0.09011313,4.625974,2.663851,-2.424804,-1.070437,0.7704284,0,0,11.63245,53.62659,0.0412925,-0.06998745,0.2619414,-0.2955139,3.798407,-0.294935,0.05374209,-0.1093971,0.02268059,-0.8556129,1.546944,0.0273472,0.3816001,1.302261,0.8725644,286.2415,66.21646,305.3768
4,1.744448,-0.1377564,-0.2097409,-0.06281373,4.626385,2.664686,-2.422153,-1.062031,0.7557834,0,0,11.83773,51.6129,0.01884438,-0.03582605,0.247316,-0.2937025,3.802887,-0.2986642,0.05269372,-0.09556269,0.01415036,-0.8556833,1.546022,0.02731418,0.3814061,1.300653,0.8736637,286.3146,64.83359,306.6324
4,1.755559,-0.1623721,-0.1562326,-0.03459364,4.625898,2.665045,-2.419612,-1.052523,0.8561823,0,0,12.05279,49.50147,-0.002853602,0.006972454,0.1943605,-0.2937951,3.808231,-0.3029466,0.06344681,-0.06900182,0.007626571,-0.8558617,1.546255,0.02608806,0.3811114,1.298856,0.8748559,286.4844,63.68639,307.5703
4,1.76667,-0.1763037,-0.1220483,-0.02216151,4.625978,2.665362,-2.417181,-1.041699,0.9754939,0,0,12.22874,47.41935,-0.009970658,-0.01620914,0.1112547,-0.2951667,3.803506,-0.2980402,0.0656509,-0.05623319,0.006518355,-0.8558409,1.545916,0.02537939,0.3807897,1.296791,0.8760213,286.7383,62.7051,308.3111
4,1.777781,-0.1923568,-0.08671333,-0.002276972,4.625177,2.665562,-2.414535,-1.031434,0.923061,0,0,12.36559,45.36657,-0.01691787,-0.06929034,0.05362153,-0.2957957,3.793476,-0.2880209,0.05384631,-0.04766885,-0.01045339,-0.8565989,1.54562,0.02535409,0.3805452,1.29445,0.8772007,287.1045,61.77815,309.0526
4,1.788892,-0.2019538,-0.07480332,0.01785009,4.624813,2.66652,-2.411889,-1.02097,0.9416432,0,0,12.48289,43.32356,-0.02348284,-0.08094797,0.03660764,-0.2952316,3.789673,-0.2837044,0.04315878,-0.02846334,-0.02851073,-0.8574979,1.546111,0.02491121,0.380424,1.291877,0.8783501,287.5605,60.7964,309.9073
4,1.800003,-0.2136849,-0.06513616,0.02734404,4.624592,2.667112,-2.409135,-1.009843,1.001753,0,0,12.57087,41.32942,-0.0173582,-0.1011262,0.007739626,-0.2953749,3.782524,-0.276891,0.03568442,-0.007139722,-0.04660168,-0.8586873,1.547096,0.02404621,0.3804466,1.28913,0.8794436,288.0695,59.69221,310.946
4,1.811115,-0.2168538,-0.07583,0.02426956,4.625241,2.668085,-2.406592,-0.9986822,1.004278,0,0,12.66862,39.44282,-0.02374556,-0.08406077,0.005714107,-0.2952732,3.781517,-0.2754289,0.03465802,-0.00605732,-0.04233442,-0.8589424,1.547088,0.02369814,0.3805996,1.286301,0.8804908,288.636,58.67773,311.9699
4,1.822226,-0.217879,-0.09293132,0.01912816,4.626275,2.669257,-2.40399,-0.9872274,1.031171,0,0,12.74682,37.68328,-0.04677071,-0.03728581,0.04653067,-0.293671,3.787145,-0.2796095,0.03270729,-0.003865449,-0.02102066,-0.8584897,1.547312,0.02329254,0.38081,1.283444,0.881474,289.172,57.76077,312.9325
4,1.833337,-0.2114013,-0.1271454,0.00563753,4.628256,2.670778,-2.401802,-0.9760331,1.007017,0,0,12.78592,35.84555,-0.04851949,0.01374051,0.08504899,-0.2920263,3.795516,-0.2868997,0.02337037,0.005821455,0.003539966,-0.8575176,1.547892,0.022994,0.3810337,1.280606,0.882405,289.6766,56.8711,313.868
4,1.844448,-0.2081519,-0.144134,0.01007886,4.629574,2.672637,-2.399418,-0.964508,1.037504,0,0,12.7957,33.92962,-0.03777576,0.02754592,0.09352203,-0.2910361,3.798965,-0.2902281,0.02355238,0.002667962,0.02804822,-0.8563405,1.547758,0.0227181,0.381247,1.27781,0.8833182,290.1295,55.93277,314.8323
4,1.855559,-0.2028406,-0.1355598,0.01424211,4.630061,2.673735,-2.397286,-0.9534644,0.9932763,0,0,12.77615,31.95503,-0.06938054,0.008280784,0.1395429,-0.28777,3.800111,-0.2894073,0.02046192,0.0005778512,0.04299055,-0.8554074,1.54752,0.02275165,0.3814211,1.275061,0.8842566,290.5484,54.98813,315.8003
4,1.86667,-0.2049871,-0.1324392,0.007818554,4.631137,2.674668,-2.39483,-0.9419073,1.04068,0,0,12.72727,29.9218,-0.1098391,-0.02578564,0.1483046,-0.2854099,3.796746,-0.2834789,0.004564414,0.007077269,0.04736742,-0.8547351,1.548137,0.0226659,0.3815042,1.272349,0.8852279,290.9358,54.03555,316.7671
4,1.877781,-0.2284733,-0.1242353,-0.01567373,4.632486,2.674796,-2.391532,-0.9308068,0.9986441,0,0,12.61975,28.33822,-0.1324761,-0.08747682,0.1259412,-0.2840453,3.786791,-0.2718179,-0.0106259,-0.005664408,0.02194242,-0.8554009,1.547493,0.02374288,0.3814669,1.269683,0.8862827,291.3736,53.20703,317.5945
4,1.888893,-0.2550284,-0.1629569,-0.04292379,4.635643,2.676124,-2.387679,-0.9193994,1.027254,0,0,12.46334,27.33138,-0.1260518,-0.104546,0.1332963,-0.2818168,3.782827,-0.2667361,-0.02461439,0.01246903,-0.0099356,-0.8566713,1.548458,0.02369548,0.3813424,1.267066,0.8874927,291.8266,52.49256,318.2674
4,1.900004,-0.2666685,-0.1982976,-0.05743821,4.638665,2.677852,-2.384203,-0.9076857,1.055318,0,0,12.25806,26.84262,-0.115709,-0.05754809,0.08753879,-0.2827414,3.786249,-0.2692206,-0.02406896,0.0732334,0.01445408,-0.855549,1.552464,0.02122619,0.3811779,1.264491,0.8888072,292.2505,51.65559,318.9576
4,1.911115,-0.301732,-0.2369007,-0.07083015,4.642351,2.679932,-2.379457,-0.8966901,0.9896248,0,0,12.04301,26.97947,-0.1169018,0.0341602,0.05798995,-0.2842637,3.798509,-0.2795792,-0.0219768,0.08172676,0.003771725,-0.8558041,1.553995,0.02042698,0.3813992,1.262422,0.8899195,292.5807,50.43352,320.0718
4,1.922226,-0.3548408,-0.302294,-0.09456073,4.647466,2.68271,-2.373503,-0.8869999,0.8712019,0,0,11.83773,27.35093,-0.1024873,0.08403372,0.1166051,-0.2817315,3.810513,-0.2905157,-0.009344745,0.06886001,-0.005904776,-0.8563954,1.554485,0.01981046,0.3819285,1.261647,0.8903801,293.0102,50.13516,320.2149
4,1.933337,-0.3654366,-0.3247534,-0.09963267,4.651471,2.685005,-2.368902,-0.8760857,0.9842438,0,0,11.652,27.79081,-0.07464084,0.05943328,0.1386685,-0.2794711,3.812138,-0.2922159,-0.0177705,0.07105491,0.00587454,-0.8559096,1.555542,0.01975906,0.3825394,1.261316,0.8913773,293.091,51.68127,318.4545
4,1.944448,-0.4408927,-0.4020535,-0.1349313,4.658402,2.688167,-2.36122,-0.8655385,0.9500582,0,0,11.4956,28.27957,-0.07264834,-0.003412187,0.1320791,-0.2775403,3.80427,-0.2839947,-0.03461678,0.07226301,0.02944688,-0.8546633,1.556828,0.01987171,0.3830286,1.261164,0.8928741,293.1338,52.00327,317.8523
4,1.955559,-0.4844736,-0.4439213,-0.1525328,4.66439,2.691115,-2.354221,-0.8578862,0.6860755,0,0,11.36852,28.63148,-0.1163332,-0.03425302,0.1355524,-0.2755584,3.80129,-0.2782756,-0.04293402,0.08405829,0.04760207,-0.8535314,1.558522,0.01961977,0.3834623,1.261181,0.8947721,293.1124,51.52222,317.9772
4,1.966671,-0.5355143,-0.482549,-0.1637748,4.67088,2.694382,-2.34621,-0.8466221,1.018869,0,0,11.28055,28.3871,-0.1321613,-0.03960949,0.1548479,-0.2730092,3.801911,-0.2768089,-0.03955516,0.08726981,0.06887414,-0.8520662,1.5599,0.01906424,0.3838025,1.261211,0.8968366,292.9774,50.89636,318.2395
4,1.977782,-0.5814127,-0.4528986,-0.168301,4.675138,2.695685,-2.338069,-0.8390284,0.6805047,0,0,11.20235,27.70284,-0.1110048,-0.02892411,0.1344679,-0.2721708,3.802948,-0.2774391,-0.05319395,0.1012205,0.08387661,-0.8505066,1.561963,0.01860751,0.3840876,1.261311,0.8991556,293.0301,50.21867,318.4687
4,1.988893,-0.6368748,-0.4328905,-0.1748431,4.679655,2.696958,-2.329053,-0.8305718,0.7628134,0,0,11.1046,26.63734,-0.0851403,0.06153528,0.1558285,-0.27095,3.819536,-0.2933392,-0.05850699,0.1118914,0.07963689,-0.849803,1.563917,0.01824825,0.3843597,1.261507,0.9016092,293.0822,49.28187,318.8941
4,2.000004,-0.6848111,-0.4373803,-0.183253,4.684805,2.698776,-2.319927,-0.8230116,0.6800807,0,0,10.97752,25.37634,-0.07500915,0.1178181,0.2113092,-0.2677542,3.835594,-0.3083083,-0.05397434,0.1321287,0.09768306,-0.848009,1.566606,0.0167377,0.3846656,1.261788,0.9042866,293.1924,48.26696,319.3755
4,2.011115,-0.7284691,-0.444979,-0.1841835,4.690049,2.700837,-2.31044,-0.8152676,0.6980156,0,0,10.81134,24.34018,-0.08206925,0.1294137,0.2572073,-0.2640343,3.847146,-0.3182978,-0.04107157,0.1278164,0.1146297,-0.8462232,1.5681,0.01566152,0.3850894,1.262123,0.9072675,293.3841,47.29567,319.7592
4,2.022226,-0.7657334,-0.453678,-0.190436,4.695496,2.702714,-2.300866,-0.8085719,0.6021842,0,0,10.59628,23.53861,-0.1408337,0.1380848,0.2353521,-0.2629893,3.855626,-0.3228377,-0.032723,0.1032594,0.1103434,-0.8451244,1.568501,0.01547669,0.3856912,1.262524,0.9104957,293.5409,46.19267,320.4606
4,2.033337,-0.8275008,-0.4624227,-0.1945281,4.701045,2.704553,-2.289533,-0.8019758,0.5940393,0,0,10.37146,23.22581,-0.1878808,0.1606001,0.2113108,-0.2623554,3.867036,-0.3300996,-0.02966831,0.0808588,0.1092959,-0.8439318,1.568591,0.0157273,0.3868589,1.263154,0.913665,293.3616,43.59647,322.94
4,2.044448,-0.8743474,-0.4667055,-0.1848382,4.706057,2.706628,-2.278342,-0.7958266,0.553288,0,0,10.1564,23.44086,-0.1857009,0.1701746,0.2155744,-0.260797,3.878374,-0.3391855,-0.02542499,0.06167844,0.1210135,-0.8421912,1.568588,0.01586125,0.3889861,1.264021,0.9167209,292.8641,40.2818,326.6855
4,2.055559,-0.8913419,-0.4794525,-0.1761583,4.711548,2.709086,-2.268066,-0.7882653,0.6829411,0,0,9.951125,24.11535,-0.1430604,0.109359,0.2288857,-0.2575426,3.8785,-0.3393794,-0.01046731,0.04245051,0.1400995,-0.8399887,1.568338,0.01561864,0.3920868,1.265264,0.9194279,292.4989,37.89126,329.8006
4,2.06667,-0.907233,-0.5071138,-0.1683834,-1.565576,2.712087,-2.257455,-0.782776,0.4926467,0,0,9.814272,25.09287,-0.1262805,0.03375679,0.2093467,-0.2552347,3.871484,-0.331848,0.006540185,0.02851401,0.1453141,-0.8381511,1.567987,0.01512303,0.3957002,1.267158,0.9219085,292.4583,37.44213,330.9681
4,2.077781,-0.9368713,-0.5732932,-0.1729676,-1.557693,2.715801,-2.246295,-0.7785192,0.3818388,0,0,9.736072,26.13881,-0.1474471,-0.04299361,0.2380569,-0.2508495,3.864445,-0.3225552,0.00130295,0.06154641,0.1335767,-0.8372313,1.570553,0.0137286,0.3994264,1.2698,0.9243707,292.3194,37.39954,331.7378
4,2.088892,-0.9663703,-0.6982748,-0.196088,-1.54641,2.72103,-2.234648,-0.773227,0.4774074,0,0,9.69697,27.19453,-0.1597047,-0.02184415,0.297877,-0.2458391,3.874189,-0.3297489,-0.01871365,0.1095858,0.1283274,-0.8359337,1.574402,0.01221059,0.4028648,1.273136,0.9268773,291.8996,37.27607,332.5012
4,2.100003,-0.9715168,-0.7665397,-0.2027984,-1.536634,2.725554,-2.223902,-0.7677137,0.4967815,0,0,9.706745,28.25025,-0.1384018,-0.01760355,0.2966464,-0.2428574,3.879063,-0.3337745,-0.02731293,0.1064221,0.1209404,-0.8349149,1.575702,0.01193469,0.4057654,1.27705,0.9295964,291.3067,36.8763,333.3311
4,2.111114,-0.9629572,-0.7803863,-0.2047902,-1.52786,2.729263,-2.213534,-0.7623895,0.4795203,0,0,9.736072,29.21799,-0.1523787,0.01229745,0.2766096,-0.2410065,3.885842,-0.3381906,-0.02206027,0.0914782,0.1230538,-0.8334544,1.576177,0.01171871,0.4079933,1.281378,0.9326221,290.5552,35.87889,334.4768
4,2.122225,-0.9565729,-0.773893,-0.1974063,-1.520136,2.732666,-2.203213,-0.7586259,0.3370545,0,0,9.755621,29.86315,-0.1841004,0.04529962,0.2993454,-0.2376163,3.898937,-0.3476826,0.003440969,0.07429004,0.1271418,-0.8318655,1.576318,0.01065557,0.4095075,1.285931,0.9359777,289.6997,34.19034,336.0295
4,2.133336,-0.9524112,-0.7441431,-0.2051953,-1.512623,2.734887,-2.192823,-0.7545657,0.3654669,0,0,9.755621,30.10753,-0.1956869,0.03035489,0.3175098,-0.2333994,3.904747,-0.3507133,0.006765649,0.06684589,0.149497,-0.8294516,1.576869,0.01024278,0.4103874,1.29051,0.9395555,288.8415,32.53393,337.3044
4,2.144447,-0.9366379,-0.680501,-0.2346625,-1.506112,2.735065,-2.183108,-0.7501315,0.3993099,0,0,9.745846,29.9609,-0.2032934,0.0122965,0.3036658,-0.2306585,3.906537,-0.3499085,-0.002581038,0.07333587,0.1751286,-0.8265839,1.578189,0.009713613,0.4108404,1.294911,0.9432483,288.0639,31.02687,338.255
4,2.155558,-0.9218535,-0.6411821,-0.2468225,-1.499434,2.735818,-2.173389,-0.7456393,0.4043496,0,0,9.726295,29.52102,-0.2287887,-0.02286485,0.3176274,-0.2262915,3.906533,-0.3465042,0.0008343495,0.09250981,0.1878536,-0.8240758,1.580453,0.00792903,0.411079,1.298979,0.9469502,287.3842,29.56637,339.1519
4,2.166669,-0.9133801,-0.6328537,-0.2671643,-1.491823,2.736522,-2.163608,-0.7419929,0.3270781,0,0,9.706745,28.99316,-0.2265891,-0.05059949,0.3303136,-0.2218701,3.906437,-0.3440125,-0.004310854,0.1213051,0.1899772,-0.8218344,1.583757,0.005889048,0.4113348,1.302616,0.9506153,286.8268,27.98002,340.2068
4,2.17778,-0.8983144,-0.69482,-0.2867581,-1.481282,2.739056,-2.154305,-0.7376242,0.3938353,0,0,9.67742,28.27957,-0.1986066,-0.06672642,0.3673162,-0.2163754,3.909392,-0.3457313,-0.05947166,0.1525232,0.1988887,-0.8193343,1.587321,0.006215286,0.4119782,1.305803,0.9542601,286.4277,26.33595,341.3123
4,2.188891,-0.8618686,-0.7812059,-0.3050481,-1.469229,2.742199,-2.146195,-0.7330378,0.4127628,0,0,9.657869,27.39003,-0.2081738,-0.05393142,0.3674297,-0.2125586,3.914901,-0.3484781,-0.07638362,0.1707335,0.2032533,-0.8169039,1.590604,0.005413407,0.4131378,1.308588,0.9577102,286.184,24.64347,342.6324
4,2.200002,-0.8351254,-0.8238466,-0.3142103,-1.458092,2.744912,-2.138002,-0.7287559,0.3848489,0,0,9.657869,26.35386,-0.2463778,-0.01130134,0.3774694,-0.2086017,3.928845,-0.3579984,-0.07716884,0.2005955,0.217056,-0.8140133,1.595206,0.003129747,0.4148377,1.311051,0.9609048,286.0244,22.69911,344.4587
4,2.211113,-0.7924345,-0.8503258,-0.3107848,-1.447583,2.747686,-2.130895,-0.7251926,0.3192318,0,0,9.67742,25.19062,-0.265277,0.05149883,0.403381,-0.2044732,3.950228,-0.375013,-0.06835179,0.2155026,0.2435927,-0.8103919,1.599063,0.0009257148,0.4168572,1.313236,0.9637399,285.8647,20.25503,347.0451
4,2.222224,-0.7465811,-0.8574325,-0.290522,-1.437881,2.750834,-2.124605,-0.7204149,0.430863,0,0,9.706745,24.00782,-0.2375134,0.1121875,0.4011979,-0.2016759,3.974252,-0.3969407,-0.07238362,0.2230232,0.2659758,-0.8067583,1.602875,-0.0008418252,0.4190331,1.315135,0.9663124,285.7107,17.65135,349.8833
4,2.233335,-0.6848534,-0.8239278,-0.2621897,-1.430061,2.75343,-2.119295,-0.7165203,0.3490432,0,0,9.736072,22.80547,-0.1633612,0.1388944,0.3474005,-0.2009653,3.990968,-0.4139911,-0.07322059,0.2060529,0.306497,-0.801874,1.605203,-0.001637844,0.4212381,1.316792,0.968797,285.6462,15.46908,352.3346
4,2.244446,-0.6348509,-0.7904975,-0.2381068,-1.422533,2.755918,-2.114272,-0.7123306,0.3766602,0,0,9.765396,21.5738,-0.1476158,0.1347079,0.3185036,-0.1989328,4.003291,-0.4248917,-0.07214539,0.1943462,0.3160956,-0.7979864,1.607607,-0.0025577,0.423329,1.318183,0.9713132,285.5607,13.54048,354.5168
4,2.255557,-0.6061711,-0.7583612,-0.2289042,-1.414874,2.757779,-2.108562,-0.7082655,0.364895,0,0,9.784947,20.37146,-0.1733357,0.1326653,0.3006009,-0.1969983,4.01574,-0.4342708,-0.06339519,0.2219953,0.3255734,-0.7940348,1.612235,-0.005276521,0.4251907,1.319243,0.9739892,285.4782,11.84865,356.4001
4,2.266668,-0.5871773,-0.6856177,-0.2062721,-1.409829,2.759015,-2.102906,-0.703392,0.4389392,0,0,9.814272,19.28641,-0.2517016,0.09887138,0.2350972,-0.1965913,4.015839,-0.4287708,-0.05053813,0.231512,0.3286513,-0.7902899,1.616293,-0.007953264,0.4267136,1.319923,0.9768143,285.4328,10.42249,357.939
4,2.277779,-0.5734762,-0.6181586,-0.1772,-1.405153,2.760454,-2.097151,-0.6975192,0.5295768,0,0,9.824047,18.26979,-0.3398153,0.06835434,0.1483865,-0.1976928,4.011686,-0.4179858,-0.03969887,0.2442675,0.3434547,-0.7860395,1.620762,-0.01097063,0.4278516,1.320162,0.97974,285.4517,8.945115,359.4165
4,2.28889,-0.5437916,-0.5450318,-0.1215556,-1.402313,2.762794,-2.092452,-0.6923521,0.4644496,0,0,9.833823,17.478,-0.3686632,0.07373717,0.1401132,-0.1967378,4.019292,-0.4201797,-0.03722122,0.2698602,0.3689595,-0.7810812,1.626305,-0.01450757,0.4286641,1.320021,0.9827554,285.6129,7.462262,0.7705732
4,2.300001,-0.500296,-0.4536117,-0.05334124,-1.401525,2.765262,-2.088791,-0.6870391,0.4784313,0,0,9.814272,16.9697,-0.3593467,0.1740071,0.09026536,-0.1995309,4.042213,-0.4391108,-0.05154333,0.2998517,0.4212279,-0.7746262,1.632541,-0.01793186,0.4292653,1.319598,0.9858933,285.8208,6.505376,1.561124
4,2.311112,-0.4407701,-0.3890393,-0.008292153,-1.400219,2.767648,-2.086189,-0.6828681,0.3740584,0,0,9.804497,16.72532,-0.3262675,0.3306264,0.07127891,-0.2032578,4.082384,-0.4758491,-0.06510141,0.307437,0.4532823,-0.7685526,1.637854,-0.02043657,0.4296893,1.31903,0.9892122,286.0788,5.880987,2.066888
4,2.322223,-0.365244,-0.3384885,0.01556569,-1.398648,2.769457,-2.084951,-0.6789857,0.3485522,0,0,9.794722,16.72532,-0.3069639,0.374266,0.07978049,-0.2044722,4.109336,-0.4993502,-0.07021357,0.3032644,0.4831531,-0.7622047,1.642752,-0.02305658,0.4298674,1.318386,0.9925647,286.2647,5.560919,2.270579
4,2.333334,-0.289695,-0.2975003,0.04273701,-1.397308,2.771719,-2.084265,-0.6751747,0.3421729,0,0,9.765396,16.79374,-0.3196725,0.4158189,0.08213612,-0.2065649,4.136558,-0.5219846,-0.07211943,0.3181998,0.5012637,-0.7560959,1.648607,-0.02642415,0.4297377,1.31768,0.9957846,286.3649,5.483423,2.195245
4,2.344445,-0.2503758,-0.2556242,0.06248069,-1.396727,2.773624,-2.083129,-0.6717259,0.3091049,0,0,9.716519,16.88172,-0.3496824,0.4489475,0.0569023,-0.2098784,4.160316,-0.5401178,-0.07735403,0.3405962,0.4970047,-0.7508591,1.655557,-0.03042209,0.4293574,1.316831,0.9988236,286.3871,5.104908,2.344224
4,2.355556,-0.2164,-0.2150419,0.06306187,-1.396,2.774726,-2.081928,-0.667303,0.3983687,0,0,9.63832,16.98925,-0.436775,0.3289229,-0.02049684,-0.2123072,4.152386,-0.5246009,-0.08519392,0.3245861,0.4598162,-0.7471493,1.659889,-0.03242745,0.428854,1.315689,1.001661,286.3459,4.50266,2.673424
4,2.366668,-0.1875484,-0.2535066,0.04533309,-1.392339,2.776746,-2.081094,-0.6620789,0.4710586,0,0,9.530792,17.06745,-0.4636318,0.2555031,-0.03539995,-0.2131509,4.152739,-0.5190493,-0.08939571,0.3342013,0.4608991,-0.7421889,1.666034,-0.03579661,0.4283766,1.314136,1.004457,286.3584,4.083396,2.833275
4,2.377779,-0.178934,-0.2854721,0.04246766,-1.388774,2.779258,-2.079824,-0.657469,0.4145335,0,0,9.384165,16.94037,-0.4629424,0.259904,-0.0822583,-0.2168783,4.159783,-0.520941,-0.1080438,0.3833601,0.4929265,-0.7357345,1.675045,-0.04062679,0.4280399,1.31216,1.007286,286.5137,3.993197,2.696881
4,2.38889,-0.09689121,-0.2796282,0.06894183,-1.38696,2.782197,-2.081919,-0.6532739,0.3773413,0,0,9.257087,16.62757,-0.4289309,0.3217041,-0.09940097,-0.2211393,4.180053,-0.5368291,-0.1226516,0.405851,0.5164431,-0.7294595,1.68326,-0.04481567,0.427924,1.309804,1.010163,286.7689,3.770064,2.741995
4,2.400001,-0.06072822,-0.2505304,0.08989204,-1.386255,2.784594,-2.082836,-0.6485633,0.4248281,0,0,9.139785,16.12903,-0.398536,0.3740678,-0.1698064,-0.2278457,4.192924,-0.5461816,-0.1286982,0.4240505,0.5473571,-0.722539,1.691799,-0.04953666,0.4280649,1.307083,1.013049,287.0849,3.057638,3.307301
4,2.411112,-0.01293349,-0.1915366,0.1147685,-1.387062,2.786587,-2.084527,-0.6476712,0.07532252,0,0,9.042033,15.52297,-0.3759044,0.4872971,-0.2868608,-0.2390858,4.208267,-0.5577202,-0.1126896,0.4164968,0.5568386,-0.7163696,1.698538,-0.05389332,0.428409,1.304115,1.015956,287.4862,2.650151,3.685837
4,2.422223,0.01359622,-0.1518816,0.1292304,-1.387756,2.788475,-2.085777,-0.6428466,0.437842,0,0,9.002934,14.96579,-0.3402216,0.5296954,-0.2305708,-0.2436121,4.232381,-0.5785694,-0.08584347,0.438746,0.5682969,-0.7100392,1.707677,-0.06076348,0.4287751,1.300889,1.018691,287.7815,2.741979,3.665861
4,2.433334,0.04428348,-0.07928474,0.1358685,-1.389928,2.789247,-2.087375,-0.6396327,0.2874081,0,0,8.983382,14.46725,-0.2932798,0.5317256,-0.2213733,-0.2484367,4.247443,-0.5913259,-0.08570027,0.4526274,0.5778425,-0.7036918,1.716685,-0.0665516,0.4290668,1.297467,1.021304,288.1688,3.349406,3.16381
4,2.444445,0.0686202,-0.02707051,0.1299534,-1.391883,2.789594,-2.088914,-0.6356161,0.3626297,0,0,8.983382,14.0176,-0.2696287,0.4985752,-0.1907784,-0.2519372,4.259143,-0.6004155,-0.1026545,0.4782991,0.5725917,-0.6979234,1.726895,-0.07254371,0.4292248,1.293918,1.023866,288.5686,4.043467,2.54486
4,2.455556,0.0791651,0.00916741,0.1284814,-1.393563,2.790174,-2.090192,-0.6326472,0.2661419,0,0,8.993157,13.61681,-0.2845732,0.4602406,-0.1886332,-0.2558211,4.267785,-0.6051536,-0.1387825,0.5219921,0.544186,-0.6933279,1.738979,-0.07933264,0.429246,1.290348,1.026452,289.007,4.664157,1.922984
4,2.466667,0.1014522,0.03035906,0.1122452,-1.394738,2.790353,-2.092043,-0.629436,0.2893704,0,0,9.002934,13.26491,-0.3158858,0.4039441,-0.229019,-0.2606425,4.267902,-0.6005788,-0.1582512,0.4998694,0.5335504,-0.688017,1.746996,-0.08287651,0.429193,1.286834,1.029121,289.3787,5.286486,1.225536
4,2.477778,0.1504129,0.03227811,0.07913908,-1.394964,2.790004,-2.095273,-0.6260138,0.308454,0,0,8.983382,12.9521,-0.3481758,0.3444391,-0.2608849,-0.265099,4.264894,-0.5928566,-0.1563007,0.4593332,0.5368455,-0.6823008,1.753451,-0.08636019,0.4291343,1.283416,1.031828,289.6894,5.816267,0.5842076
4,2.488889,0.1940956,0.009523932,0.03245469,-1.393773,2.789395,-2.09865,-0.6236548,0.2112109,0,0,8.954058,12.66862,-0.3178444,0.3378412,-0.2004173,-0.2673207,4.277133,-0.6023927,-0.1456561,0.4423062,0.5516514,-0.6761382,1.761161,-0.09107265,0.4290539,1.280139,1.034459,289.9796,6.234473,0.09242789
4,2.5,0.1974215,-0.04506049,0.008532804,-1.391574,2.79004,-2.100941,-0.6225368,0.09895107,0,0,8.934506,12.41447,-0.2893479,0.2970263,-0.09742941,-0.2665931,4.288466,-0.6109984,-0.1344963,0.4496581,0.6017307,-0.6682878,1.770897,-0.0978267,0.4289773,1.277014,1.036903,290.2216,6.432259,359.8067
4,2.511111,0.1826186,-0.0834638,0.007898985,-1.389743,2.791208,-2.102697,-0.6204771,0.1860957,0,0,8.914956,12.18964,-0.2744593,0.3332666,-0.1081021,-0.2708733,4.300189,-0.6198971,-0.1215725,0.4410839,0.6250877,-0.6611958,1.77951,-0.10365,0.429006,1.273956,1.039102,290.3796,6.362114,359.7525
4,2.522222,0.1571911,-0.1226992,0.03179163,-1.388201,2.793509,-2.103925,-0.6170656,0.3090096,0,0,8.934506,11.98436,-0.2302267,0.4939491,-0.06858203,-0.2770263,4.334035,-0.6514829,-0.04797399,0.4609539,0.6254889,-0.6550508,1.789955,-0.1137362,0.4292776,1.270877,1.041126,290.5592,6.134131,359.8838
4,2.533333,0.1455414,-0.1286855,0.07235077,-1.387948,2.796128,-2.105661,-0.6145436,0.227007,0,0,8.954058,11.81818,-0.1753353,0.571489,-0.01232709,-0.2810887,4.364793,-0.6807581,0.02226563,0.4605315,0.6185415,-0.6491264,1.799356,-0.1235547,0.429748,1.26848,1.043069,290.6458,6.881546,359.0714
4,2.544444,0.1433652,-0.08647205,0.134755,-1.390229,2.799047,-2.107674,-0.6123608,0.1970013,0,0,8.963832,11.72043,-0.1649441,0.5172151,-0.0360043,-0.2843463,4.372506,-0.6868005,0.03381269,0.459369,0.59821,-0.6438794,1.808851,-0.131757,0.430189,1.267511,1.043937,291.2454,7.629864,358.2789
4,2.555555,0.1379033,-0.01993845,0.1809194,-1.393796,2.801037,-2.109396,-0.6116275,0.06485674,0,0,8.973608,11.67155,-0.2529528,0.3204215,-0.07950974,-0.2843921,4.358551,-0.667329,0.0176979,0.4764496,0.5684907,-0.6393653,1.819635,-0.1399912,0.4305412,1.26705,1.045958,290.5708,9.541484,356.4999
4,2.566666,0.1335046,0.03344408,0.193137,-1.396705,2.802176,-2.110922,-0.6109648,0.0595818,0,0,8.973608,11.68133,-0.3029361,0.2693091,-0.06006571,-0.2853694,4.363503,-0.6671833,0.0103251,0.4903401,0.5695926,-0.6339149,1.830922,-0.1489104,0.4304695,1.266658,1.048823,289.8983,9.871683,356.3266
4,2.577777,0.1355311,0.07398432,0.1980247,-1.399672,2.803101,-2.112764,-0.610045,0.08307549,0,0,8.934506,11.73998,-0.3404088,0.2268001,-0.07585819,-0.2871623,4.364299,-0.6630914,0.02080372,0.4561982,0.5717002,-0.6281071,1.839259,-0.1562706,0.4301051,1.266249,1.051882,289.4131,9.368293,357.0201
4,2.588888,0.1300404,0.1249818,0.1868283,-1.40318,2.802943,-2.113975,-0.6092743,0.06932633,0,0,8.963832,11.84751,-0.3568882,0.1768875,-0.1248813,-0.2898217,4.358105,-0.6524507,0.01612692,0.4039981,0.5590405,-0.6228122,1.845309,-0.1610887,0.4297106,1.265838,1.054659,289.0061,8.780926,357.8252
4,2.599999,0.09697223,0.1277649,0.1570118,-1.40488,2.8029,-2.113964,-0.6090063,0.02357063,0,0,9.110459,12.03324,-0.3656228,0.1226316,-0.1430846,-0.2913653,4.351863,-0.642307,0.007164255,0.3571525,0.5389421,-0.618002,1.85089,-0.1652734,0.4294637,1.265432,1.057011,288.6429,8.560105,358.2549
4,2.61111,0.07360409,0.09442187,0.1339614,-1.405091,2.803537,-2.114051,-0.6080625,0.08583974,0,0,9.354838,12.25806,-0.3669788,0.06837413,-0.1688022,-0.2928162,4.343453,-0.6302285,0.005925685,0.351797,0.5229853,-0.6134868,1.858733,-0.1716189,0.4294277,1.265015,1.058985,288.2904,8.915611,358.0929
4,2.622221,0.04925129,0.04315256,0.1281466,-1.404525,2.805273,-2.114127,-0.6063597,0.1546946,0,0,9.726295,12.49267,-0.3622124,0.06216939,-0.2349112,-0.2970559,4.334917,-0.6181791,0.001482889,0.3517811,0.5006473,-0.6094357,1.866969,-0.1781926,0.4295788,1.264587,1.060648,287.9581,9.766725,357.4092
4,2.633332,0.05569941,0.02510437,0.1325944,-1.405118,2.806903,-2.115287,-0.6059517,0.03590806,0,0,10.13685,12.64907,-0.3194019,0.0780382,-0.2139066,-0.2992647,4.336059,-0.6171005,0.001001418,0.3346654,0.4527381,-0.6066979,1.873516,-0.1835291,0.4298923,1.264189,1.062284,287.7023,10.84245,356.4069
4,2.644443,0.07286748,-0.006636217,0.1488919,-1.405346,2.809334,-2.117276,-0.6056129,0.0306899,0,0,10.52786,12.73705,-0.2734053,0.1098806,-0.1971487,-0.3017894,4.339571,-0.619039,0.008255422,0.336708,0.4249826,-0.6036614,1.881372,-0.1904035,0.4302027,1.263819,1.064082,287.4355,11.79995,355.4775
4,2.655554,0.06111293,-0.004813276,0.1233174,-1.40557,2.809749,-2.11765,-0.6065595,-0.08685572,0,0,10.90909,12.76637,-0.2388144,0.1661661,-0.1471764,-0.3040707,4.350274,-0.6277316,-0.01278372,0.3762606,0.4304116,-0.5997044,1.892941,-0.1990428,0.4303765,1.263478,1.066088,287.1602,12.37527,354.9495
4,2.666665,0.04077642,0.01724133,0.09966767,-1.406552,2.809579,-2.11739,-0.6071853,-0.0565862,0,0,11.2219,12.73705,-0.2441339,0.1853587,-0.1492081,-0.3070316,4.354066,-0.6283385,-0.03296706,0.4008565,0.4198792,-0.5964842,1.903686,-0.2068837,0.4303766,1.263129,1.068156,286.8252,12.54673,354.8712
4,2.677776,0.01304481,0.01902605,0.07517938,-1.406793,2.809478,-2.116636,-0.6057562,0.1309125,0,0,11.38807,12.64907,-0.2485646,0.2547089,-0.1830575,-0.3127472,4.360825,-0.631909,-0.03707516,0.4189877,0.4252068,-0.5928207,1.914367,-0.2152612,0.4302632,1.262698,1.07012,286.4158,12.38519,355.1279
4,2.688887,-0.05284754,-0.05518045,0.02918238,-1.403489,2.810096,-2.113978,-0.6049365,0.07367454,0,0,11.4174,12.48289,-0.1847702,0.2983813,-0.2047556,-0.3181215,4.368828,-0.6394745,-0.03047845,0.4306976,0.4443139,-0.5884606,1.925669,-0.2244893,0.4302896,1.262238,1.071929,286.0486,12.39264,355.1247
4,2.699998,-0.08460864,-0.1311434,0.007663704,-1.399869,2.81162,-2.112338,-0.6043549,0.05265877,0,0,11.3392,12.25806,-0.1381513,0.2643033,-0.2308154,-0.3219272,4.366571,-0.6374694,-0.02834272,0.4179278,0.4549685,-0.5841324,1.93548,-0.2323664,0.4305494,1.261809,1.073647,285.7377,12.96289,354.4886
4,2.711109,-0.1100602,-0.178295,-0.01097305,-1.396406,2.812909,-2.11052,-0.6024007,0.1784129,0,0,11.17302,11.99413,-0.1395732,0.1951175,-0.2565799,-0.3247022,4.35851,-0.6276655,-0.01569586,0.4189012,0.4399633,-0.5807955,1.945823,-0.2410342,0.4309608,1.261433,1.075447,285.4651,13.84351,353.4731
4,2.72222,-0.1069395,-0.1482943,0.00361219,-1.396326,2.813584,-2.10954,-0.6032795,-0.08171088,0,0,11.03617,11.77908,-0.1602033,0.2183519,-0.1807057,-0.3260247,4.367656,-0.6338837,-0.01363327,0.44122,0.4154081,-0.5785419,1.957661,-0.2508471,0.4313505,1.261198,1.077394,285.3069,14.32332,352.7926
4,2.733331,-0.1306146,-0.04993202,0.04200325,-1.399873,2.813653,-2.107419,-0.6034926,-0.01849088,0,0,10.91887,11.5738,-0.1437457,0.293829,-0.1369425,-0.3297249,4.381536,-0.6460546,-0.03412937,0.4540535,0.3750773,-0.5771112,1.96884,-0.2589732,0.4315819,1.261051,1.07963,285.0952,14.24879,352.6633
4,2.744442,-0.1541973,0.002308114,0.05318497,-1.401442,2.813686,-2.104872,-0.6046068,-0.1016721,0,0,10.84066,11.3783,-0.1378925,0.2766007,-0.06990632,-0.3301499,4.391455,-0.6540023,-0.03330076,0.454001,0.3441737,-0.5757914,1.979155,-0.2672863,0.431677,1.260954,1.082119,284.8935,13.77722,352.9749
4,2.755553,-0.1692694,0.05775318,0.06113532,-1.404034,2.813282,-2.102396,-0.6038052,0.07420789,0,0,10.79179,11.20235,-0.2323021,0.1426763,-0.1259797,-0.3309931,4.378374,-0.6360766,-0.02167591,0.4379613,0.3462436,-0.573043,1.988886,-0.2754979,0.4317326,1.260872,1.084765,284.707,13.44473,353.243
4,2.766664,-0.1875907,0.1301643,0.06357644,-1.407626,2.812091,-2.099506,-0.6034164,0.03493252,0,0,10.76246,11.03617,-0.2786251,0.1350784,-0.05422647,-0.3304344,4.385674,-0.6378905,-0.04206005,0.4210244,0.3411065,-0.570626,1.998047,-0.2819744,0.431819,1.260806,1.08757,284.5649,13.55526,353.1802
4,2.777775,-0.207895,0.1448479,0.04746317,-1.409379,2.811009,-2.096344,-0.6037045,-0.02645173,0,0,10.72336,10.87977,-0.2448837,0.2019314,0.01812851,-0.3310586,4.402844,-0.6528867,-0.04853168,0.4082814,0.340115,-0.5681971,2.007548,-0.2891913,0.4318497,1.260747,1.090349,284.4229,13.53541,353.2695
4,2.788886,-0.2695858,0.1007206,0.02351122,-1.408522,2.810803,-2.091063,-0.6036263,0.007538866,0,0,10.69404,10.78201,-0.2278786,0.1752746,0.01790699,-0.3315327,4.405751,-0.6537102,-0.04116009,0.3954538,0.3379461,-0.5658062,2.016726,-0.2967877,0.4319153,1.260704,1.092961,284.314,13.489,353.3356
4,2.799997,-0.3194391,0.02380089,0.01694507,-1.406462,2.812006,-2.085959,-0.6034941,0.01211785,0,0,10.68426,10.74291,-0.255768,0.008031398,0.02402697,-0.3276807,4.390946,-0.6359024,-0.02634311,0.3847125,0.3346477,-0.563534,2.025708,-0.304455,0.4320854,1.260699,1.095415,284.2691,13.69372,353.1129
4,2.811108,-0.3267324,-0.02177082,0.04194919,-1.405534,2.814175,-2.082477,-0.6014675,0.1853561,0,0,10.67449,10.75269,-0.2815529,-0.0195716,0.002852432,-0.3276359,4.386884,-0.6280509,-0.02852063,0.3857842,0.3261372,-0.561698,2.035485,-0.312392,0.4323528,1.260718,1.097854,284.2435,13.99854,352.7014
4,2.822219,-0.2861697,-0.03627565,0.06868857,-1.405804,2.815927,-2.081137,-0.6015575,-0.00956226,0,0,10.67449,10.82111,-0.2995546,-0.01317778,0.01474663,-0.3273558,4.389243,-0.626404,-0.04169025,0.3570532,0.2985861,-0.5603781,2.042269,-0.3171817,0.4326288,1.260872,1.10042,284.344,13.97182,352.5491
4,2.83333,-0.2541979,-0.04153088,0.06657493,-1.405584,2.816846,-2.07958,-0.6034265,-0.170345,0,0,10.69404,10.92864,-0.279317,0.01555628,0.01146576,-0.3279667,4.392199,-0.626625,-0.05613136,0.301685,0.2615091,-0.5591999,2.046313,-0.3196076,0.4327275,1.261148,1.103109,284.442,13.30928,353.0453
4,2.844441,-0.1635363,-0.0851347,0.04882084,-1.403485,2.817915,-2.080929,-0.6060145,-0.2351222,0,0,10.71359,11.20235,-0.2328447,0.08061579,-0.04411756,-0.3311598,4.396019,-0.6290706,-0.0511421,0.2717918,0.2402125,-0.5580084,2.05099,-0.3231885,0.4325352,1.261427,1.105617,284.4807,11.95128,354.3452
4,2.855552,-0.1421995,-0.1000999,0.0383019,-1.402099,2.818772,-2.080247,-0.6061605,-0.01149975,0,0,10.73314,11.67155,-0.237249,0.1233017,-0.06953649,-0.3342459,4.399051,-0.6292075,-0.03039561,0.217293,0.2081737,-0.5571152,2.053026,-0.3253917,0.4321685,1.261562,1.10765,284.4285,10.27991,356.037
4,2.866663,-0.08347806,-0.1632839,-0.007973874,-1.397686,2.819162,-2.081334,-0.6088034,-0.2419151,0,0,10.74291,12.31672,-0.1980048,0.1708992,0.02935316,-0.3332478,4.414957,-0.6433592,-0.007176079,0.1947794,0.1952401,-0.5560142,2.056898,-0.3294802,0.43185,1.26158,1.109059,284.4007,8.774853,357.5583
4,2.877774,-0.05364434,-0.1654207,-0.01651283,-1.395828,2.819676,-2.081939,-0.6067853,0.1863218,0,0,10.74291,13.07918,-0.1220917,0.1205903,0.07011016,-0.3312285,4.417394,-0.6468776,-0.009322215,0.1809668,0.2037992,-0.5541421,2.061515,-0.3331369,0.4316721,1.261401,1.109757,284.4419,7.558332,358.7383
4,2.888885,-0.02597819,-0.1481377,-0.001816392,-1.395209,2.820642,-2.082704,-0.6080423,-0.1169548,0,0,10.73314,13.81232,-0.05148315,0.09374516,0.109929,-0.3293526,4.422232,-0.6531243,-0.01457228,0.1959092,0.2027484,-0.5529095,2.067657,-0.3379482,0.4317629,1.261185,1.110253,284.3915,7.327849,358.9068
4,2.899997,-0.01637584,-0.1447906,0.009853322,-1.394117,2.821836,-2.083117,-0.6073925,0.06037233,0,0,10.71359,14.45748,-0.03028923,0.1289203,0.0906828,-0.3306432,4.429374,-0.660162,-0.004926559,0.1862964,0.2176106,-0.5507055,2.07286,-0.342604,0.4319856,1.260914,1.110567,284.1827,7.458209,358.646
4,2.911108,0.02418561,-0.1767452,-0.0005056933,-1.391249,2.823083,-2.084894,-0.6070718,0.02845848,0,0,10.68426,15.02444,-0.08043114,0.1101937,-0.03892288,-0.3349037,4.421676,-0.6498656,0.01612209,0.1488935,0.2100475,-0.5488988,2.075211,-0.345661,0.4323043,1.260645,1.110874,283.9654,8.042295,357.9556
4,2.922219,0.07440245,-0.2408397,-0.03077083,-1.386493,2.824301,-2.087536,-0.606405,0.06060688,0,0,10.65494,15.48387,-0.1299395,0.09340691,-0.09714121,-0.3375679,4.417741,-0.6431169,-0.002473794,0.1478281,0.1494725,-0.5497164,2.077804,-0.3472482,0.432559,1.260404,1.111161,283.7217,8.661313,357.3124
4,2.93333,0.1139458,-0.2898833,-0.04520614,-1.381817,2.82589,-2.090425,-0.6074558,-0.09678713,0,0,10.63539,15.7087,-0.09025522,0.1380208,-0.07283881,-0.3393943,4.425289,-0.6506145,-0.0197989,0.151063,0.1123191,-0.5503321,2.081386,-0.3493748,0.4326499,1.26022,1.111464,283.4795,8.778075,357.2208
4,2.944441,0.1737001,-0.3195402,-0.04602417,-1.377801,2.827741,-2.094771,-0.6081547,-0.0631482,0,0,10.60606,15.72825,0.02062045,0.1943306,-0.07360598,-0.3426812,4.43421,-0.6634579,-0.01085049,0.09448053,0.07186148,-0.5506395,2.079361,-0.347804,0.4325367,1.260041,1.111535,283.0638,7.945687,358.0105
4,2.955552,0.2353925,-0.2841698,-0.04328956,-1.37592,2.828379,-2.099679,-0.6080274,0.01184446,0,0,10.56696,15.54252,0.08499891,0.1795408,-0.1434378,-0.3469486,4.430127,-0.662823,0.008451672,0.007984359,0.01433082,-0.5511923,2.07305,-0.3433451,0.4328187,1.259655,1.111118,282.354,9.258851,356.6785
4,2.966663,0.2736402,-0.2489162,-0.04478028,-1.374369,2.828729,-2.104022,-0.6089941,-0.08890944,0,0,10.52786,15.22972,0.0968888,0.1453594,-0.1180697,-0.3474653,4.430102,-0.664296,0.01332318,-0.01874307,-0.02508159,-0.5523449,2.070402,-0.3414716,0.4326033,1.259388,1.110706,281.9799,7.424157,358.2321
4,2.977774,0.3203993,-0.2071876,-0.04102403,-1.373541,2.828935,-2.109324,-0.609417,-0.03826142,0,0,10.46921,14.94624,0.1055302,0.08776278,-0.09487379,-0.3467574,4.428043,-0.6637516,0.005733521,-0.02298781,-0.03886238,-0.553007,2.069249,-0.340307,0.43237,1.259028,1.110057,281.4312,6.225433,359.3173
4,2.988885,0.3564992,-0.1687705,-0.04468041,-1.372676,2.828728,-2.114375,-0.6084396,0.08930945,0,0,10.41056,14.65298,0.09739651,0.02940047,-0.1652872,-0.3492491,4.416322,-0.6534556,0.0001815958,-0.04216004,-0.05370213,-0.5536616,2.066504,-0.3377855,0.4322952,1.2586,1.109246,280.8022,6.015052,359.462
4,2.999996,0.366004,-0.1497714,-0.0640755,-1.371122,2.827966,-2.11855,-0.6088396,-0.0377472,0,0,10.36168,14.34995,0.07138819,0.006143481,-0.214144,-0.3520662,4.407294,-0.6448951,-0.005368192,-0.05494231,-0.07281283,-0.554713,2.063829,-0.3352813,0.4323945,1.258145,1.108551,280.1639,6.767595,358.6637
4,3.011107,0.3499645,-0.1481267,-0.1045601,-1.368256,2.82648,-2.121473,-0.6082809,0.05115341,0,0,10.30303,14.06647,0.08302988,0.01041478,-0.2216767,-0.3543208,4.404093,-0.6429396,-0.005528014,-0.06774427,-0.08344321,-0.5555354,2.060891,-0.3326957,0.4324165,1.257666,1.107998,279.6244,5.292847,359.6956
4,3.022218,0.3244983,-0.1975653,-0.1380921,-1.363367,2.826124,-2.124061,-0.6070585,0.11105,0,0,10.24438,13.77322,0.1384591,0.02524516,-0.2210334,-0.356756,4.401677,-0.6442269,-0.005764972,-0.08694189,-0.09938627,-0.5565522,2.057045,-0.3292999,0.4323653,1.257207,1.107226,278.9587,4.734478,0.09452722
4,3.033329,0.3108117,-0.2628372,-0.160812,-1.357532,2.826728,-2.127188,-0.605573,0.1346836,0,0,10.20528,13.48974,0.1812055,0.03258687,-0.2043262,-0.3584301,4.399987,-0.6459191,0.00384089,-0.08699013,-0.09626856,-0.5571557,2.054764,-0.327621,0.4324784,1.256786,1.106415,278.2676,5.15464,359.5113
4,3.04444,0.3076933,-0.2992855,-0.1806642,-1.352225,2.826821,-2.130527,-0.6047671,0.07257512,0,0,10.16618,13.21603,0.2305763,0.06969249,-0.1662869,-0.3602011,4.403728,-0.6535485,0.0008412953,-0.06565014,-0.08669309,-0.5577581,2.054337,-0.3271704,0.432812,1.256474,1.105705,277.5568,7.97114,356.5432
4,3.055551,0.2959422,-0.2919552,-0.1892513,-1.348386,2.826407,-2.133349,-0.6050249,-0.02413283,0,0,10.13685,12.94233,0.2320455,0.1068521,-0.125703,-0.3616626,4.409144,-0.6613559,-0.01062384,-0.03999132,-0.07279743,-0.5582364,2.055085,-0.3272476,0.4333068,1.256229,1.105103,276.975,12.21372,352.1229
4,3.066662,0.2862507,-0.2611951,-0.1991583,-1.345441,2.825232,-2.135951,-0.6053738,-0.03165322,0,0,10.1173,12.68817,0.2430907,0.142936,-0.08520515,-0.3630213,4.416535,-0.6713669,-0.0106092,-0.04637215,-0.06639467,-0.558468,2.053481,-0.3257645,0.4338264,1.256004,1.104535,276.5595,17.15085,347.0708
4,3.077773,0.2829589,-0.2336123,-0.2090406,-1.342747,2.82386,-2.138666,-0.6049823,0.03605615,0,0,10.08798,12.48289,0.2765019,0.1160895,-0.03337515,-0.362142,4.419273,-0.6780419,0.008181587,-0.09869543,-0.07710668,-0.5587749,2.047527,-0.3214904,0.4342722,1.255708,1.103902,276.1301,22.56137,341.5191
4,3.088884,0.2678937,-0.1977498,-0.2381865,-1.339834,2.82116,-2.14039,-0.6048779,0.009187699,0,0,10.05865,12.29717,0.2574062,0.07025333,-0.01631196,-0.3613883,4.417513,-0.6784999,0.01437867,-0.1189933,-0.08670781,-0.5593379,2.043163,-0.3181127,0.4349737,1.255477,1.103284,275.9225,30.36091,333.6174
4,3.099995,0.2304797,-0.1661205,-0.2597928,-1.33734,2.818302,-2.140898,-0.6050377,-0.01462921,0,0,10.01955,12.13099,0.2097733,0.06701723,0.02030139,-0.3605494,4.421642,-0.6830156,0.01434343,-0.1253839,-0.08670004,-0.5598247,2.039793,-0.315416,0.4357287,1.255252,1.102609,275.7771,39.13282,324.5966
4,3.111106,0.1995342,-0.1546181,-0.2716009,-1.334328,2.81608,-2.141513,-0.6043927,0.05913978,0,0,9.980451,11.98436,0.1928644,0.06699614,0.03643445,-0.3603449,4.425443,-0.6882141,0.01120447,-0.1253558,-0.07921641,-0.5599472,2.037006,-0.3130279,0.4360674,1.255133,1.102162,275.7078,44.54023,319.0059
4,3.122217,0.1547605,-0.1484588,-0.2812034,-1.331246,2.81376,-2.141086,-0.6032363,0.105241,0,0,9.931575,11.85728,0.2185014,0.04774946,0.04787999,-0.3595427,4.426929,-0.6929119,-0.0004002601,-0.1210098,-0.06847781,-0.5599951,2.03459,-0.3106423,0.4362999,1.255082,1.101876,275.7115,48.29588,315.079
4,3.133328,0.1196069,-0.1485137,-0.2769039,-1.32823,2.81214,-2.140866,-0.6032608,-0.002952471,0,0,9.882699,11.73021,0.233352,0.04668227,0.04029091,-0.3597201,4.42811,-0.6971834,-0.00252229,-0.112488,-0.07379288,-0.5604921,2.032246,-0.3085906,0.436574,1.255123,1.101661,275.8156,51.75975,311.4372
4,3.144439,0.1015463,-0.1557631,-0.2523034,-1.325465,2.811545,-2.141233,-0.602504,0.06942666,0,0,9.853374,11.59335,0.2226195,0.06271365,0.02764769,-0.3607007,4.430688,-0.7017539,0.0006147325,-0.1157143,-0.07807177,-0.5610034,2.029057,-0.3059418,0.437342,1.255044,1.10116,276.4276,56.45311,306.2032
4,3.15555,0.1079251,-0.1492565,-0.243865,-1.32295,2.810126,-2.142249,-0.6027437,-0.02230252,0,0,9.853374,11.42717,0.1917166,0.02972186,0.03100166,-0.3598064,4.429574,-0.7019097,-0.0007023364,-0.1391664,-0.09293009,-0.5617214,2.024121,-0.3017114,0.4377221,1.25509,1.100634,276.7434,58.56639,303.5522
4,3.166661,0.1217441,-0.1374379,-0.2386853,-1.320621,2.808563,-2.143699,-0.6033892,-0.0585755,0,0,9.882699,11.23167,0.1652674,0.02010179,0.0546344,-0.3586239,4.431949,-0.7050911,0.004600503,-0.1370748,-0.09724019,-0.5625107,2.02081,-0.299126,0.4378386,1.255202,1.100095,276.7969,59.19554,302.472
4,3.177772,0.1121301,-0.1333044,-0.2483071,-1.317864,2.806594,-2.144147,-0.6044976,-0.100694,0,0,9.941349,11.01662,0.187929,0.07431892,0.07696749,-0.3591454,4.43995,-0.715749,0.008884355,-0.1349638,-0.09621041,-0.5630258,2.017786,-0.2968423,0.4377844,1.255355,1.099534,276.6964,58.77633,302.5228
4,3.188883,0.08768156,-0.154791,-0.2586961,-1.314098,2.805168,-2.143944,-0.6051661,-0.06021396,0,0,10.01955,10.78201,0.2146716,0.09022698,0.08744481,-0.3591827,4.445817,-0.7245854,0.02931248,-0.1286544,-0.07721055,-0.5628314,2.015513,-0.295947,0.4379472,1.255341,1.098248,277.178,53.51409,307.5166
4,3.199994,0.04945067,-0.1899433,-0.2476199,-1.309963,2.804942,-2.143122,-0.6043586,0.07424017,0,0,10.1173,10.53763,0.2101959,0.02955176,0.06918486,-0.3578346,4.441454,-0.723093,0.05708188,-0.1170989,-0.07532195,-0.5633012,2.013229,-0.2954559,0.4381458,1.255399,1.097344,277.0302,56.19065,304.5461
4,3.211105,0.02711573,-0.1950804,-0.2240953,-1.307232,2.804717,-2.142624,-0.6035581,0.07256672,0,0,10.21505,10.31281,0.1661569,-0.02248099,0.03531104,-0.3570175,4.435482,-0.7177557,0.06554744,-0.1118422,-0.08605586,-0.5642828,2.010476,-0.2941264,0.4382096,1.255508,1.096707,276.947,56.54597,303.8572
4,3.222216,0.0143128,-0.1821355,-0.205045,-1.304915,2.804133,-2.142164,-0.6023106,0.1136102,0,0,10.32258,10.09775,0.1457808,-0.03093161,0.01947296,-0.3568961,4.433316,-0.7167712,0.06237231,-0.1096916,-0.08496886,-0.5648117,2.007943,-0.2925701,0.4381984,1.255698,1.096144,276.884,55.95219,304.0399
4,3.233327,0.0163959,-0.1606348,-0.1871657,-1.300394,2.802645,-2.142125,-0.6036326,-0.1216378,0,0,10.39101,9.921799,0.1894891,-0.02249277,0.02019515,-0.3563288,4.433494,-0.7226503,0.06348678,-0.1352228,-0.06042875,-0.564294,2.000911,-0.2879953,0.4381854,1.25597,1.095593,276.8438,54.85194,304.7247
4,3.244438,0.02912283,-0.1425114,-0.1895037,-1.298441,2.801292,-2.14257,-0.6037578,-0.01014656,0,0,10.45943,9.784947,0.1927073,-0.02464588,0.02228107,-0.3558494,4.432686,-0.7242203,0.06664956,-0.1512049,-0.05297039,-0.5639654,1.996657,-0.2852216,0.438162,1.256186,1.095018,276.7748,53.31285,305.9584
4,3.255549,0.04818104,-0.1063166,-0.1973727,-1.297222,2.799036,-2.143217,-0.6044363,-0.06199068,0,0,10.52786,9.69697,0.1703606,-0.02675368,0.02565864,-0.3552977,4.432573,-0.7251849,0.06554576,-0.1512011,-0.05828766,-0.5643846,1.99341,-0.2832064,0.4380248,1.256357,1.093559,277.126,46.11235,312.9094
