loc,t,aDotS,bDotS,gDotS,aS,bS,gS,qE,qDotE,tpad,enable,emgA,emgB,aDotSH,bDotSH,gDotSH,aSH,bSH,gSH,aDotUB,bDotUB,gDotUB,aUB,bUB,gUB,xHand,yHand,zHand,aHand,bHand,gHand
4,0,0.5948749,-0.4793401,0.7969317,-1.389618,3.403765,-3.100214,-1.479495,0.6557806,0,0,15.31769,10.96774,-0.1356499,0.7102489,-0.1446394,-0.5713253,3.769678,-0.3512246,0.04169211,0.2892568,0.231901,-0.863987,1.783596,-0.09375153,0.2107102,1.144002,0.6822014,294.9978,336.769,358.1429
4,0.01111111,0.4802246,-0.6141849,0.7751375,-1.405199,3.422328,-3.110026,-1.491483,-1.101356,0,0,14.97556,10.90909,-0.04092142,0.5094064,-0.3814494,-0.5869442,3.769332,-0.3526427,0.06561477,0.2230532,0.2094313,-0.8604466,1.787823,-0.09862431,0.2068137,1.141044,0.6809214,295.9089,335.8727,357.6897
4,0.02222222,0.4365013,-0.6189499,0.739025,-1.411406,3.428992,-3.114003,-1.488546,0.2787938,0,0,14.67253,10.87977,-0.04498962,0.4276534,-0.4796464,-0.5958237,3.76641,-0.3495865,0.0795079,0.2048796,0.2253452,-0.8573786,1.790578,-0.1019948,0.2031132,1.137617,0.6785849,296.5757,335.5926,356.7802
4,0.03333334,0.3626724,-0.5411221,0.6700554,-1.41594,3.432006,-3.115772,-1.482467,0.5522729,0,0,14.45748,10.86999,-0.0702751,0.3362834,-0.5617366,-0.6047357,3.760896,-0.3430458,0.09894551,0.2016377,0.261418,-0.8532358,1.794221,-0.106234,0.199527,1.133711,0.6759978,297.3444,336.4358,355.1887
4,0.04444445,0.341254,-0.517034,0.6389145,-1.421629,3.437003,-3.119493,-1.485741,-0.3024229,0,0,14.26197,10.86022,-0.0648836,0.2637804,-0.5417389,-0.6094905,3.75846,-0.3405216,0.09454236,0.2005724,0.2444083,-0.851452,1.797391,-0.1091606,0.1956937,1.129838,0.6734458,298.5017,337.0575,354.0257
4,0.05555556,0.3198171,-0.48861,0.6141158,-1.427349,3.441627,-3.122855,-1.485695,0.007891101,0,0,14.0176,10.86022,-0.02558786,0.2463505,-0.4217153,-0.6101313,3.762311,-0.3451076,0.08555099,0.1909715,0.1869692,-0.8519095,1.800241,-0.1119518,0.1917557,1.126476,0.6713871,299.5937,337.0918,353.1275
4,0.06666667,0.3057863,-0.4420958,0.5859097,-1.432718,3.444886,-3.126133,-1.48826,-0.2341859,0,0,13.71457,10.89932,-0.003516592,0.229006,-0.3228626,-0.6104013,3.765556,-0.3486373,0.07989325,0.1877441,0.1476021,-0.8520795,1.802819,-0.1143109,0.1881649,1.124068,0.6700194,300.4618,337.0353,352.2247
4,0.07777778,0.3013684,-0.3975554,0.5694361,-1.438532,3.447838,-3.129909,-1.489055,-0.07009541,0,0,13.36266,10.91887,0.008144822,0.1796106,-0.1888651,-0.6075603,3.767276,-0.3506185,0.09034613,0.1876442,0.1230233,-0.8516443,1.805809,-0.1176585,0.1851317,1.122775,0.6690866,300.8013,337.2128,351.426
4,0.08888889,0.286153,-0.313761,0.540813,-1.443436,3.447949,-3.132463,-1.489862,-0.07288646,0,0,12.9521,10.92864,0.00541006,0.1229671,-0.1208148,-0.6061568,3.766516,-0.3498712,0.09760977,0.1673451,0.1134064,-0.850872,1.80747,-0.1201906,0.1826564,1.122487,0.6683825,300.7218,337.5964,350.7651
4,0.1,0.2580961,-0.2140721,0.5088286,-1.447936,3.446652,-3.134037,-1.491006,-0.1036782,0,0,12.47312,11.00684,0.00233685,0.09948172,-0.101678,-0.6067203,3.766591,-0.3498677,0.08586224,0.1461423,0.1252586,-0.8490083,1.80917,-0.1218005,0.1806848,1.122938,0.6678177,300.3662,338.0668,350.2147
4,0.1111111,0.2237236,-0.1324656,0.4813139,-1.452172,3.445041,-3.135064,-1.490709,0.02829387,0,0,11.91593,11.16325,0.00105634,0.09742431,-0.1283067,-0.6094272,3.766681,-0.3499042,0.0869628,0.1291236,0.1401968,-0.8468911,1.810806,-0.1240804,0.1791195,1.123765,0.6674033,299.8624,338.6079,349.672
4,0.1222222,0.2075861,-0.08690511,0.4637828,-1.456778,3.444376,-3.136792,-1.490269,0.04009469,0,0,11.31965,11.4174,0.005137533,0.1315738,-0.1623559,-0.6130384,3.768679,-0.3516212,0.09329129,0.1226888,0.136961,-0.8456666,1.81247,-0.1264834,0.1780164,1.12466,0.6670552,299.3568,339.1471,349.1212
4,0.1333333,0.1829126,-0.05773538,0.4112785,-1.459271,3.444051,-3.137668,-1.490164,0.00963422,0,0,10.73314,11.75953,0.01999902,0.1539588,-0.1687837,-0.6161319,3.772084,-0.3554114,0.09825963,0.1045094,0.1039272,-0.8459025,1.813373,-0.1285188,0.1773854,1.125383,0.6668989,298.9757,339.7157,348.5765
4,0.1444445,0.1785981,-0.05607331,0.370781,-1.46194,3.444617,-3.139572,-1.491183,-0.09288622,0,0,10.20528,12.03324,0.04145703,0.1837198,-0.1550249,-0.6184989,3.77659,-0.3603843,0.09576166,0.08529605,0.07201773,-0.8463116,1.813649,-0.1296674,0.177161,1.125825,0.6669623,298.7649,340.3345,348.1095
4,0.1555556,0.1742848,-0.05323112,0.3409282,-1.464801,3.445239,-3.141405,-1.490803,0.03584589,0,0,9.745846,12.28739,0.04368233,0.1826146,-0.1433302,-0.6202902,3.778917,-0.3628693,0.09649234,0.07033087,0.04007333,-0.8470791,1.813994,-0.1310978,0.1771983,1.125928,0.6671106,298.6781,340.9713,347.7683
4,0.1666667,0.1592687,-0.03780291,0.2960267,-1.466298,3.44506,3.140611,-1.492023,-0.1116294,0,0,9.354838,12.49267,0.04309823,0.1611391,-0.08052358,-0.6190071,3.781295,-0.3653609,0.0960989,0.05535555,0.001748497,-0.8485672,1.813769,-0.1320009,0.1773566,1.125778,0.6671032,298.779,341.406,347.6877
4,0.1777778,0.1431933,-0.02338482,0.2564617,-1.46764,3.444759,3.139738,-1.492366,-0.030197,0,0,9.042033,12.64907,0.0422057,0.1344335,-0.05395939,-0.6188989,3.782156,-0.3664627,0.09271359,0.04044919,-0.01204363,-0.8490509,1.813783,-0.1330161,0.177442,1.12543,0.6668485,298.9301,341.7807,347.652
4,0.1888889,0.1076789,0.02482196,0.1942402,-1.467851,3.443254,3.139916,-1.492036,0.03047309,0,0,8.817204,12.66862,0.0487893,0.07360807,-0.01901963,-0.6171833,3.78025,-0.3657106,0.09325339,-0.01392684,-0.03753095,-0.8501556,1.81055,-0.1318438,0.1773002,1.124923,0.6663407,299.1238,342.1438,347.5213
4,0.2,0.08003566,0.03828049,0.1684755,-1.468214,3.441741,3.140506,-1.491947,0.007999677,0,0,8.660803,12.55132,0.05523244,0.03307975,-0.005329251,-0.6163764,3.778555,-0.3652235,0.09933157,-0.04382432,-0.05350532,-0.8509998,1.808118,-0.131452,0.1769142,1.124339,0.6656356,299.3596,342.3057,347.404
4,0.2111111,0.06171591,0.0954797,0.144414,-1.468845,3.438441,3.140862,-1.491288,0.06036207,0,0,8.592375,12.31672,0.08271622,-0.07347524,-0.01329198,-0.6149756,3.769937,-0.3601561,0.1117746,-0.0833333,-0.06632653,-0.8519521,1.804696,-0.1308131,0.1763527,1.123778,0.6648241,299.6066,342.3181,347.2674
4,0.2222222,0.05307664,0.1261953,0.1302203,-1.469676,3.435753,3.140896,-1.491124,0.01477344,0,0,8.582601,12.01369,0.09435096,-0.1032988,-0.01879013,-0.6146693,3.766284,-0.3586785,0.1147369,-0.1057352,-0.07909495,-0.8529711,1.80213,-0.1305314,0.1757729,1.123379,0.6640429,299.8744,342.2244,347.1363
4,0.2333333,0.03048895,0.1920328,0.1177832,-1.470444,3.430966,-3.141334,-1.491857,-0.06685466,0,0,8.563051,11.74976,0.1123334,-0.1256694,-0.03071069,-0.6146331,3.762082,-0.3571368,0.114616,-0.1334243,-0.07265118,-0.8530904,1.798808,-0.1294347,0.1752916,1.123276,0.6634429,300.1098,342.1824,346.9775
4,0.2444444,0.02380764,0.2727793,0.09982757,-1.470749,3.424702,-3.140546,-1.49247,-0.05525981,0,0,8.563051,11.50538,0.1282553,-0.1416575,-0.03514215,-0.6144664,3.758389,-0.3561259,0.1239885,-0.1558684,-0.08334305,-0.8540757,1.795201,-0.128816,0.1750468,1.123539,0.6631092,300.2076,342.2881,346.7844
4,0.2555556,0.01728921,0.3044634,0.07710305,-1.470768,3.42032,-3.140042,-1.492042,0.03965201,0,0,8.592375,11.29032,0.1390123,-0.1363797,-0.02242976,-0.6137707,3.75647,-0.3564058,0.1268051,-0.1825553,-0.1110258,-0.8560662,1.791032,-0.1275809,0.1750748,1.124111,0.6630471,300.1313,342.5199,346.6118
4,0.2666667,0.01614267,0.314632,0.03437507,-1.469497,3.416451,-3.13975,-1.492513,-0.04329373,0,0,8.660803,11.11437,0.1562147,-0.1332627,-0.003381183,-0.6126122,3.754686,-0.3573105,0.135995,-0.2082283,-0.1419526,-0.8583896,1.786277,-0.1263167,0.1754717,1.124968,0.6632525,300.0027,342.8213,346.4416
4,0.2777778,0.0107848,0.3152939,0.0002865554,-1.468316,3.413024,-3.139497,-1.492856,-0.03086387,0,0,8.768329,10.96774,0.1798573,-0.1472262,0.02515787,-0.6105217,3.75188,-0.3579022,0.1366679,-0.2349067,-0.1706774,-0.860796,1.78125,-0.1244109,0.1763127,1.126034,0.6637083,299.7838,343.1624,346.3717
4,0.2888889,-0.0009987503,0.3123938,-0.06465487,-1.464982,3.409677,-3.138655,-1.493195,-0.03064483,0,0,8.905182,10.85044,0.2056135,-0.180366,0.05469395,-0.6077057,3.747598,-0.3576945,0.132251,-0.2455535,-0.1823434,-0.8628642,1.776752,-0.1227771,0.1774949,1.127196,0.6642803,299.5088,343.4905,346.5068
4,0.3,-0.02345934,0.3137318,-0.1285702,-1.461144,3.406151,-3.136919,-1.493334,-0.01241329,0,0,9.042033,10.75269,0.2141514,-0.2038388,0.06095597,-0.6058031,3.742804,-0.3563288,0.1363257,-0.2605008,-0.1951397,-0.8650773,1.77217,-0.1215778,0.1788849,1.128349,0.6647854,299.2263,343.6851,346.8427
4,0.3111111,-0.04378196,0.3204879,-0.1850886,-1.456987,3.402214,-3.135254,-1.492862,0.04340544,0,0,9.169111,10.65494,0.2097095,-0.2176278,0.04071327,-0.6050841,3.737682,-0.354291,0.1405031,-0.2775671,-0.1930147,-0.8666576,1.766898,-0.1199059,0.1803307,1.129366,0.6651791,298.973,343.808,347.2331
4,0.3222222,-0.04381335,0.313555,-0.23295,-1.452695,3.398975,-3.134434,-1.492091,0.07003906,0,0,9.276637,10.55719,0.199913,-0.2282047,0.0162629,-0.6048486,3.732343,-0.3517157,0.1228467,-0.3424879,-0.2215276,-0.8694091,1.758228,-0.115072,0.1817812,1.13022,0.6653515,298.8246,343.6632,347.777
4,0.3333333,-0.06729062,0.2976656,-0.3126481,-1.446028,3.396242,-3.132368,-1.492347,-0.02373906,0,0,9.354838,10.43011,0.2053139,-0.2356986,0.02685308,-0.6031799,3.727942,-0.3505918,0.119595,-0.3541819,-0.2193553,-0.8713171,1.752261,-0.1123614,0.1832142,1.130939,0.6654235,298.8112,343.3867,348.3282
4,0.3444445,-0.08859111,0.2679203,-0.3932529,-1.438607,3.394403,-3.1303,-1.493347,-0.09103145,0,0,9.384165,10.29326,0.2396912,-0.2059993,0.05755269,-0.6009614,3.727213,-0.3540231,0.1217207,-0.3563207,-0.2193688,-0.8732409,1.746824,-0.110453,0.1846084,1.131592,0.6655894,298.8795,343.0997,348.8605
4,0.3555556,-0.0992731,0.2511051,-0.4644299,-1.430625,3.392113,-3.128414,-1.492314,0.09533576,0,0,9.364614,10.1564,0.2685979,-0.1602533,0.06596651,-0.6000368,3.727917,-0.3588815,0.1258518,-0.37339,-0.2225638,-0.8752292,1.740354,-0.1077962,0.1859552,1.132215,0.6658258,298.9159,342.7334,349.4824
4,0.3666667,-0.1568854,0.2269431,-0.6068578,-1.418183,3.390273,-3.124018,-1.492264,0.003776124,0,0,9.315739,10.0391,0.3028147,-0.1358314,0.07747865,-0.5986823,3.72798,-0.363763,0.144844,-0.4086525,-0.2194624,-0.8769001,1.73234,-0.1050055,0.1872765,1.132897,0.666142,299.0103,342.0549,350.3408
4,0.3777778,-0.2038506,0.2367714,-0.6665801,-1.408758,3.386919,-3.119489,-1.492727,-0.04225152,0,0,9.237537,9.960899,0.294409,-0.1529135,0.09454477,-0.5962003,3.724722,-0.3639806,0.1540545,-0.458789,-0.2279741,-0.8789699,1.722981,-0.1009085,0.1886055,1.133737,0.6665838,299.0985,341.1945,351.3151
4,0.3888889,-0.2850202,0.2772872,-0.7351323,-1.397831,3.381776,-3.112139,-1.490476,0.2064141,0,0,9.159335,9.921799,0.2701112,-0.1646708,0.1224051,-0.5930652,3.722409,-0.36413,0.1485199,-0.4853996,-0.2342793,-0.8811952,1.714274,-0.09680644,0.1900155,1.13477,0.6671761,299.1022,340.179,352.4229
4,0.4,-0.3897127,0.3509207,-0.7891158,-1.387333,3.374445,-3.102634,-1.490692,-0.02129051,0,0,9.110459,10.00978,0.2512078,-0.191385,0.1619031,-0.5889298,3.719188,-0.3634855,0.1589341,-0.526997,-0.2332369,-0.8830739,1.704603,-0.09277068,0.191585,1.136053,0.6681421,299.1469,338.8297,353.8013
4,0.4111111,-0.4986996,0.4395612,-0.8336747,-1.376783,3.365545,-3.091554,-1.488745,0.1788702,0,0,9.081134,10.22483,0.2560852,-0.2821871,0.2553735,-0.5807795,3.712312,-0.3608708,0.165141,-0.5387725,-0.2471206,-0.8858137,1.695949,-0.08933441,0.193424,1.137723,0.6695281,299.1205,337.7677,354.9656
4,0.4222222,-0.6108512,0.5175859,-0.87385,-1.365962,3.355825,-3.078506,-1.487436,0.1185274,0,0,9.07136,10.56696,0.2736399,-0.3921614,0.3391016,-0.571297,3.702093,-0.3560218,0.154405,-0.5408592,-0.2555522,-0.8884374,1.687683,-0.08539107,0.1956327,1.139897,0.6715102,299.0642,336.8045,356.1199
4,0.4333333,-0.7144414,0.5882471,-0.9075644,-1.355386,3.345879,-3.065043,-1.4869,0.04885013,0,0,9.07136,11.00684,0.2695943,-0.4444417,0.3752245,-0.5640852,3.6944,-0.3524156,0.138356,-0.5492852,-0.258601,-0.8907523,1.679316,-0.08109432,0.1983052,1.142764,0.6741128,298.9165,335.9168,357.3704
4,0.4444444,-0.8009514,0.6484138,-0.9326507,-1.34502,3.335367,-3.050854,-1.486032,0.07968859,0,0,9.090909,11.51515,0.2503477,-0.529655,0.3815414,-0.5568877,3.681592,-0.3436924,0.1382625,-0.5450482,-0.2735211,-0.893865,1.671391,-0.07765006,0.2014861,1.146467,0.6772744,298.5994,335.0409,358.7929
4,0.4555556,-0.8532745,0.6831822,-0.9521665,-1.334526,3.325078,-3.037187,-1.486614,-0.05326446,0,0,9.120235,12.06256,0.2288379,-0.6030885,0.3687391,-0.5503619,3.66735,-0.333439,0.1307938,-0.5513817,-0.2702482,-0.8962032,1.663079,-0.07371949,0.2051321,1.151091,0.6809047,298.1128,334.1433,0.4179466
4,0.4666667,-0.9290771,0.723034,-0.9866255,-1.323332,3.313718,-3.02112,-1.487109,-0.04410235,0,0,9.139785,12.6393,0.190164,-0.6636761,0.3390554,-0.54474,3.651225,-0.3203881,0.1254296,-0.5577415,-0.2701962,-0.8987625,1.654507,-0.06957375,0.2091168,1.156623,0.6848108,297.4007,333.1688,2.280085
4,0.4777778,-0.9995241,0.7565628,-1.016757,-1.312225,3.30201,-3.004471,-1.488563,-0.13199,0,0,9.149561,13.20626,0.1452649,-0.6966025,0.3265384,-0.5389642,3.637046,-0.308202,0.1338401,-0.5695139,-0.2745117,-0.9015999,1.645504,-0.06571829,0.213287,1.162906,0.688802,296.4596,332.0645,4.36765
4,0.4888889,-1.056094,0.7838137,-1.040442,-1.301298,3.290074,-2.98756,-1.487444,0.1039156,0,0,9.149561,13.71457,0.1146268,-0.7264827,0.3639909,-0.5310135,3.622911,-0.2962636,0.1370642,-0.5695175,-0.2713378,-0.9040665,1.637298,-0.0623438,0.2174755,1.169664,0.6926972,295.36,330.6457,6.759424
4,0.5,-1.106315,0.8205999,-1.070633,-1.290167,3.277131,-2.96989,-1.487699,-0.02380444,0,0,9.139785,14.0958,0.1065056,-0.7266034,0.4151854,-0.5224802,3.611498,-0.2872581,0.1318223,-0.5567009,-0.2702513,-0.9066785,1.629811,-0.05903269,0.2215794,1.176641,0.6966506,294.3178,328.8992,9.335269
4,0.5111111,-1.154456,0.8777722,-1.088275,-1.279867,3.262851,-2.951625,-1.488435,-0.06637505,0,0,9.110459,14.34995,0.1168425,-0.6682516,0.4994231,-0.5126452,3.606467,-0.284461,0.1149814,-0.5150645,-0.2733729,-0.909494,1.624209,-0.05608218,0.2255675,1.183712,0.7006474,293.3891,326.9569,12.013
4,0.5222223,-1.193981,0.9128349,-1.085431,-1.27064,3.248921,-2.93318,-1.488857,-0.03752273,0,0,9.061584,14.46725,0.1633637,-0.5790334,0.572806,-0.5032128,3.60587,-0.2874688,0.09718126,-0.4670143,-0.2701122,-0.912106,1.619782,-0.05380224,0.2294282,1.190769,0.7046276,292.5557,324.8463,14.81427
4,0.5333334,-1.260205,0.9660771,-1.068905,-1.262527,3.233465,-2.912246,-1.489445,-0.05304941,0,0,9.002934,14.47703,0.1871015,-0.5216053,0.5994037,-0.4949645,3.603347,-0.2882438,0.09199528,-0.4477868,-0.2669147,-0.9147559,1.614318,-0.05141605,0.2332017,1.197738,0.7085838,291.8233,322.5779,17.72346
4,0.5444446,-1.345626,1.033116,-1.051457,-1.255214,3.216403,-2.889057,-1.489933,-0.04368087,0,0,8.954058,14.41838,0.2022497,-0.390622,0.60709,-0.4885255,3.608135,-0.2950591,0.09745507,-0.4424717,-0.2541829,-0.9168646,1.608311,-0.04903466,0.2369524,1.20461,0.7124472,291.1723,320.3508,20.59986
4,0.5555557,-1.404299,1.069407,-1.029426,-1.24843,3.200253,-2.866715,-1.488626,0.1202571,0,0,8.934506,14.24242,0.1469436,-0.3692584,0.6150377,-0.4808934,3.605311,-0.2922231,0.119735,-0.4670824,-0.2479341,-0.919075,1.600601,-0.04654646,0.2406859,1.211397,0.7161106,290.5941,318.2672,23.36806
4,0.5666668,-1.456596,1.105665,-1.010608,-1.242129,3.183486,-2.843598,-1.487491,0.1032551,0,0,8.924732,13.91984,0.09364134,-0.4086131,0.6185524,-0.4725247,3.596912,-0.2838711,0.1569095,-0.4726441,-0.2578102,-0.9220061,1.593611,-0.04534617,0.2443974,1.218239,0.719737,290.1352,316.3566,25.95319
4,0.577778,-1.506768,1.140652,-1.012018,-1.235628,3.165985,-2.819694,-1.488785,-0.1185126,0,0,8.934506,13.47996,0.01342621,-0.488332,0.5933977,-0.4649959,3.582374,-0.268285,0.1664563,-0.4663105,-0.2685452,-0.9250352,1.587602,-0.04392378,0.2480984,1.225359,0.7236155,289.7146,314.4177,28.58141
4,0.5888891,-1.592232,1.210512,-1.028689,-1.229462,3.14576,-2.792248,-1.489138,-0.03084839,0,0,8.944282,12.9912,-0.06692809,-0.5648006,0.5501529,-0.4582981,3.565441,-0.249645,0.1878072,-0.4579071,-0.2698026,-0.9279039,1.58168,-0.04327477,0.2517616,1.232858,0.7276351,289.2007,312.0719,31.6661
4,0.6000003,-1.692681,1.315811,-1.015924,-1.225889,3.123425,-2.762614,-1.489328,-0.01668789,0,0,8.993157,12.66862,-0.1354696,-0.5965458,0.5090631,-0.452405,3.551233,-0.2332876,0.2115327,-0.4611802,-0.231635,-0.9288435,1.575087,-0.0425155,0.2553954,1.240726,0.7317335,288.6031,309.1689,35.29537
4,0.6111114,-1.793033,1.425567,-0.990472,-1.223881,3.100312,-2.73232,-1.487456,0.1715672,0,0,9.081134,12.5611,-0.150893,-0.6112718,0.4484249,-0.4478436,3.53693,-0.2183004,0.2332612,-0.4420673,-0.1924245,-0.9293372,1.569827,-0.0426697,0.2590676,1.248909,0.7357927,288.0023,305.5344,39.60598
4,0.6222225,-1.91572,1.495985,-0.9463929,-1.223659,3.077912,-2.699499,-1.486638,0.0739542,0,0,9.198437,12.64907,-0.1312427,-0.6207103,0.3779283,-0.4444906,3.521279,-0.2034256,0.2788745,-0.3932005,-0.1204285,-0.9278682,1.566945,-0.04569905,0.2629302,1.257444,0.740094,287.4565,301.462,44.2926
4,0.6333337,-2.006303,1.548534,-0.8947316,-1.224496,3.056185,-2.667352,-1.487116,-0.04320552,0,0,9.315739,12.93255,-0.08237658,-0.6384921,0.2304764,-0.4455506,3.50272,-0.1875012,0.2854126,-0.370852,-0.1173196,-0.9290352,1.562832,-0.04640585,0.2671374,1.266478,0.7446331,286.9204,297.5328,48.91017
4,0.6444448,-2.03185,1.571819,-0.8065422,-1.22816,3.035988,-2.637034,-1.485355,0.1620566,0,0,9.452591,13.46041,-0.05336595,-0.6510466,0.1290059,-0.446324,3.484285,-0.171424,0.270687,-0.3260371,-0.126859,-0.9306789,1.560238,-0.04734328,0.2717271,1.276127,0.749175,286.3943,293.6221,53.69717
4,0.655556,-1.955012,1.567716,-0.7213599,-1.231996,3.017411,-2.612409,-1.486565,-0.1113888,0,0,9.579668,13.96872,-0.0573824,-0.6837993,0.02987649,-0.447876,3.463156,-0.1516308,0.2186556,-0.2692891,-0.14783,-0.9329591,1.558958,-0.04715313,0.2765546,1.286484,0.753399,285.8699,289.7134,58.7004
4,0.6666671,-1.869667,1.549493,-0.6605148,-1.236082,2.999476,-2.588876,-1.488874,-0.2093097,0,0,9.716519,14.38905,-0.1335521,-0.6519024,0.0912827,-0.4440981,3.4495,-0.1352153,0.1771527,-0.234982,-0.16673,-0.9354492,1.557095,-0.04645884,0.2813528,1.29758,0.7569265,285.3376,285.3851,64.26974
4,0.6777782,-1.703197,1.501035,-0.5663818,-1.241368,2.984257,-2.57118,-1.494734,-0.5334819,0,0,9.833823,14.63343,-0.1721476,-0.5871043,0.1833796,-0.4383627,3.441454,-0.1246772,0.118675,-0.1909721,-0.184429,-0.9379424,1.556541,-0.04530703,0.2858157,1.309324,0.7597815,284.7433,280.0121,70.93369
4,0.6888894,-1.632729,1.47193,-0.5235144,-1.246078,2.967951,-2.550131,-1.496226,-0.1319369,0,0,9.931575,14.53568,-0.2156507,-0.4990043,0.3245864,-0.4296334,3.437999,-0.1175591,0.0709852,-0.157658,-0.1766406,-0.939535,1.555547,-0.04382711,0.2897372,1.321148,0.7617189,284.3166,272.4812,79.64485
4,0.7000005,-1.539905,1.446291,-0.4604514,-1.252305,2.952981,-2.531535,-1.50082,-0.4196893,0,0,10,14.2522,-0.2424602,-0.4470316,0.4282934,-0.4209414,3.432591,-0.1089691,0.02864522,-0.1233031,-0.1678327,-0.9410748,1.555305,-0.042495,0.2930443,1.332484,0.7629961,284.2236,264.0229,89.07758
4,0.7111117,-1.449101,1.390891,-0.3917187,-1.258591,2.939901,-2.514303,-1.497665,0.291609,0,0,10.06843,13.84164,-0.2952537,-0.3355893,0.6037127,-0.4086205,3.435042,-0.1059954,-0.01475753,-0.09638891,-0.1547445,-0.9423755,1.555007,-0.04096581,0.2957418,1.342663,0.7636999,284.4898,255.6529,98.17564
4,0.7222228,-1.3379,1.281194,-0.3245438,-1.263952,2.929856,-2.499892,-1.498601,-0.08905966,0,0,10.12708,13.31378,-0.3129378,-0.2760219,0.6466272,-0.3997426,3.434671,-0.1014659,-0.04317526,-0.07699865,-0.1257833,-0.9427979,1.554741,-0.03931705,0.2980188,1.351502,0.7644537,284.9829,249.4698,104.8227
4,0.7333339,-1.210575,1.129972,-0.2611853,-1.26791,2.922846,-2.488468,-1.498896,-0.026149,0,0,10.18573,12.76637,-0.3344775,-0.1735898,0.5991355,-0.3952216,3.439657,-0.101602,-0.06001648,-0.07153761,-0.1054159,-0.943265,1.553888,-0.03781129,0.3000433,1.358967,0.7653201,285.4241,245.2329,109.3995
4,0.7444451,-1.119674,1.027234,-0.2324188,-1.271519,2.91513,-2.476681,-1.5001,-0.1103254,0,0,10.25415,12.44379,-0.336086,-0.07641408,0.5131186,-0.3927859,3.446659,-0.1042335,-0.0842777,-0.05538548,-0.08713607,-0.9435329,1.553857,-0.03595827,0.3019117,1.365111,0.7663231,285.7166,242.4286,112.5383
4,0.7555562,-1.010502,0.8822601,-0.1755029,-1.274563,2.910986,-2.467858,-1.501499,-0.127574,0,0,10.32258,12.31672,-0.3022453,0.02381676,0.461987,-0.3895907,3.456889,-0.1115233,-0.1032905,-0.03501573,-0.08168112,-0.9442504,1.554332,-0.03444612,0.303556,1.370018,0.7674687,285.8932,240.5552,114.8112
4,0.7666674,-0.9152373,0.7576021,-0.1081381,-1.278272,2.90801,-2.459813,-1.500606,0.08199539,0,0,10.40078,12.34604,-0.2495623,0.07935396,0.3786214,-0.3883752,3.464232,-0.1172614,-0.1105398,-0.01150376,-0.07314477,-0.9449396,1.555386,-0.03365623,0.3048699,1.373727,0.7686777,286.0235,239.3584,116.3455
4,0.7777785,-0.8264339,0.650958,-0.04629944,-1.281871,2.905958,-2.452788,-1.5015,-0.08322607,0,0,10.46921,12.48289,-0.2052614,0.1231381,0.3144692,-0.3871666,3.471379,-0.1229712,-0.1091916,0.01195414,-0.05508092,-0.9449236,1.556563,-0.03316088,0.3058956,1.376536,0.7700776,286.057,238.9642,116.9362
4,0.7888896,-0.7665119,0.5802792,-0.0008147582,-1.285762,2.903589,-2.445532,-1.50115,0.03220493,0,0,10.51809,12.57087,-0.1937658,0.1615644,0.2793247,-0.3855794,3.479995,-0.1291295,-0.1112701,0.02262031,-0.05614977,-0.9456645,1.557326,-0.03226846,0.3065567,1.378617,0.7714468,285.9646,238.858,117.1831
4,0.8000008,-0.6806871,0.4077198,0.07455446,-1.287598,2.906942,-2.441721,-1.500949,0.01737536,0,0,10.53763,12.51222,-0.1834405,0.1669918,0.2366442,-0.3844976,3.485663,-0.1325935,-0.1082781,0.01726194,-0.07747253,-0.947338,1.557558,-0.0312743,0.3068051,1.380195,0.7727187,285.7785,238.8202,117.2937
4,0.8111119,-0.6472789,0.2985488,0.1151759,-1.289575,2.908664,-2.435896,-1.499945,0.09109277,0,0,10.53763,12.27762,-0.1816631,0.1223447,0.2002876,-0.3835495,3.485332,-0.1303319,-0.1072971,0.01088014,-0.08279134,-0.9483107,1.557751,-0.03020877,0.3066514,1.381507,0.7738783,285.6196,238.7742,117.3067
4,0.8222231,-0.6147773,0.1470514,0.1818321,-1.290557,2.91461,-2.431885,-1.500864,-0.08538627,0,0,10.49853,11.87683,-0.198258,0.04370588,0.137352,-0.383843,3.478423,-0.1210947,-0.1178761,0.02053367,-0.08059034,-0.9491543,1.558397,-0.02891873,0.3061526,1.382791,0.7749675,285.4998,238.5203,117.4933
4,0.8333342,-0.5663731,0.01569239,0.2343977,-1.291325,2.920511,-2.428597,-1.498678,0.2001839,0,0,10.44966,11.32942,-0.2809367,-0.000716567,0.06332508,-0.385385,3.473824,-0.1107864,-0.1270504,0.04940161,-0.05071621,-0.9484827,1.560378,-0.02834988,0.3051209,1.38397,0.7758391,285.4592,237.7859,118.1628
4,0.8444453,-0.4773252,-0.1776483,0.2588542,-1.288761,2.929434,-2.428869,-1.498415,0.02180828,0,0,10.39101,10.69404,-0.3364448,0.06015256,0.03836223,-0.3861472,3.480986,-0.1117172,-0.1063524,0.08555122,-0.0200444,-0.9477764,1.563056,-0.02942766,0.3035592,1.385209,0.7767103,285.4684,237.0503,118.7226
4,0.8555565,-0.4407066,-0.294351,0.2920892,-1.287325,2.938161,-2.427777,-1.498593,-0.01665523,0,0,10.32258,10.13685,-0.2991527,0.1474948,0.02232814,-0.3867975,3.493393,-0.1214657,-0.09323608,0.1100198,0.002182382,-0.9471495,1.56569,-0.03057575,0.3013248,1.386399,0.7774478,285.5499,235.907,119.6315
4,0.8666676,-0.4062607,-0.3784575,0.3824902,-1.288209,2.948968,-2.427588,-1.500695,-0.192473,0,0,10.25415,9.726295,-0.2162053,0.1868638,-0.00379313,-0.3881073,3.502062,-0.1299646,-0.09418034,0.1238853,0.007494004,-0.9469817,1.567999,-0.03079466,0.2984261,1.387479,0.7782227,285.786,234.4995,120.6573
4,0.8777788,-0.3829802,-0.3039918,0.4604669,-1.293797,2.954313,-2.425321,-1.498906,0.1647915,0,0,10.1955,9.47214,-0.1973677,0.176291,-0.04445372,-0.3900508,3.50493,-0.1310968,-0.1030869,0.1057657,-0.02649305,-0.9484278,1.568375,-0.02947001,0.2948617,1.388126,0.7790726,286.2049,233.0567,121.5419
4,0.8888899,-0.3845307,-0.1296476,0.5213649,-1.302751,2.955507,-2.421051,-1.498341,0.04940831,0,0,10.14663,9.491692,-0.243095,0.1656678,-0.03240341,-0.39025,3.50855,-0.1302331,-0.1087517,0.09190045,-0.05838845,-0.9502505,1.568966,-0.02841486,0.2907851,1.388326,0.7801905,286.4471,232.071,121.7496
4,0.900001,-0.3476613,0.02455422,0.5813875,-1.312616,2.957114,-2.418702,-1.497244,0.09955198,0,0,10.10753,9.706745,-0.3332291,0.1176988,0.02890673,-0.3876923,3.508668,-0.123352,-0.1077552,0.09400187,-0.067987,-0.9513807,1.570183,-0.02791632,0.2863636,1.388208,0.7816015,286.3737,231.4713,121.4167
4,0.9111122,-0.3372802,0.1196751,0.604807,-1.320763,2.958836,-2.415632,-1.49587,0.1241183,0,0,10.08798,10.01955,-0.3874384,0.07297158,0.05158863,-0.386324,3.507482,-0.1163833,-0.1055247,0.09828012,-0.05735789,-0.9516279,1.571999,-0.0278018,0.2821154,1.388139,0.7832671,286.1008,231.396,120.4021
4,0.9222233,-0.3610867,0.2476841,0.6257631,-1.330942,2.958779,-2.410675,-1.497227,-0.1253682,0,0,10.0782,10.40078,-0.4151615,0.03464562,0.05596804,-0.3854345,3.505121,-0.1085579,-0.1213356,0.1111764,-0.04553171,-0.9517972,1.574017,-0.02705532,0.2786375,1.388557,0.7851457,285.7635,231.2454,119.5865
4,0.9333345,-0.3549933,0.3556862,0.6597012,-1.342367,2.95868,-2.406822,-1.496344,0.08187345,0,0,10.06843,10.81134,-0.4651219,0.05600506,0.06600533,-0.3845567,3.509208,-0.1055925,-0.1483811,0.1487081,0.007898748,-0.9499496,1.577714,-0.02667955,0.2761978,1.389489,0.786962,285.4854,230.1911,120.096
4,0.9444456,-0.2892663,0.4779478,0.7136619,-1.355918,2.958171,-2.405605,-1.494528,0.1651558,0,0,10.06843,11.04594,-0.484368,0.09548885,0.05028515,-0.384782,3.515463,-0.1053634,-0.1660367,0.1786972,0.04314717,-0.9483591,1.581409,-0.02636902,0.2747883,1.390815,0.7884995,285.2771,228.5359,121.6307
4,0.9555568,-0.2375863,0.6618635,0.7594911,-1.37193,2.955147,-2.404058,-1.49529,-0.07126471,0,0,10.04888,11.31965,-0.4995156,0.1520792,0.01113683,-0.386447,3.524546,-0.1076889,-0.1764997,0.192643,0.05599975,-0.9474728,1.584818,-0.02616902,0.2742948,1.392623,0.7899368,285.0327,226.1635,124.2315
4,0.9666679,-0.2125351,0.8358254,0.7798856,-1.389136,2.950098,-2.401483,-1.497906,-0.2384826,0,0,10.02933,11.68133,-0.480689,0.1926706,-0.040039,-0.388943,3.533093,-0.1108139,-0.1850613,0.1948158,0.04967189,-0.9472331,1.587629,-0.0254007,0.2744812,1.394807,0.791209,284.7647,222.9536,127.9201
4,0.977779,-0.1903721,1.263559,0.8198043,-1.415585,2.936229,-2.397479,-1.497971,-0.004221516,0,0,10.00978,12.15054,-0.4766484,0.2332408,-0.07511734,-0.3913963,3.542599,-0.1144185,-0.189615,0.1905431,0.01562829,-0.9482648,1.590231,-0.02475488,0.2751318,1.397069,0.7922236,284.5694,218.9051,132.5314
4,0.9888902,-0.173999,1.483105,0.8215818,-1.437842,2.925379,-2.394264,-1.496793,0.1070035,0,0,9.970675,12.80547,-0.4830028,0.2588171,-0.07499763,-0.3926783,3.552151,-0.1176417,-0.1897938,0.1990376,-0.0131431,-0.9493567,1.593549,-0.02464036,0.2761817,1.399216,0.7930835,284.4396,214.5691,137.4015
4,1.000001,-0.1226025,1.73989,0.8101241,-1.463021,2.910737,-2.392638,-1.496238,0.04938577,0,0,9.941349,13.69502,-0.4796854,0.2949945,-0.06533678,-0.3932956,3.562949,-0.1222508,-0.1971541,0.2139972,-0.0120407,-0.949549,1.597144,-0.0242622,0.2777492,1.401251,0.7939644,284.3184,210.4058,141.9428
4,1.011112,-0.08047605,1.900921,0.8125565,-1.487477,2.897988,-2.392102,-1.495903,0.02967228,0,0,9.921799,14.57478,-0.4585307,0.3078024,-0.08677573,-0.3954784,3.571819,-0.1260482,-0.1936803,0.2289084,0.01241796,-0.9484193,1.600528,-0.02411572,0.2803556,1.403308,0.7949179,284.166,205.7105,147.0086
4,1.022224,-0.01514268,2.142212,0.840677,-1.517012,2.881149,-2.393007,-1.497394,-0.1363858,0,0,9.902249,15.38612,-0.4632248,0.3288979,-0.01103839,-0.3935598,3.583614,-0.1316124,-0.1975886,0.2704833,0.02623468,-0.9478734,1.605499,-0.02463983,0.2840213,1.405307,0.7958744,284.111,200.9359,152.5326
4,1.033335,0.01108766,2.286405,0.8656764,-1.545045,2.866362,-2.393415,-1.497712,-0.0282688,0,0,9.882699,16.05083,-0.4410251,0.3268002,-0.03252684,-0.3951481,3.592447,-0.135662,-0.1898155,0.2875378,0.05278371,-0.9465055,1.610361,-0.02566195,0.2887376,1.407149,0.7968112,284.1802,196.02,158.4569
4,1.044446,0.001933575,2.505104,0.8951883,4.706037,2.84793,-2.392749,-1.49865,-0.08563061,0,0,9.882699,16.39296,-0.4166016,0.2802543,-0.1681422,-0.4016606,3.594271,-0.1336699,-0.1705966,0.2746561,0.06756177,-0.9453306,1.613418,-0.02620817,0.2943977,1.408807,0.797842,284.2943,190.6585,165.0069
4,1.055557,-0.02296352,2.649246,0.9298288,4.674385,2.831008,-2.392127,-1.497173,0.1351022,0,0,9.902249,16.63734,-0.4329998,0.2505816,-0.2149654,-0.4057278,3.59753,-0.1311844,-0.1376339,0.2574358,0.07158931,-0.9444783,1.61645,-0.02758875,0.3007945,1.41,0.7986347,284.5562,184.5718,172.5761
4,1.066668,-0.1330647,2.7734,0.9157498,4.643289,2.81217,-2.387861,-1.495152,0.1833708,0,0,9.951125,16.85239,-0.5336453,0.2125253,-0.2707289,-0.4107468,3.598475,-0.122352,-0.1131091,0.2615309,0.07138639,-0.9437529,1.619892,-0.02913605,0.3075716,1.4107,0.7992441,284.9199,178.4229,180.4077
4,1.077779,-0.2397432,2.81207,0.8781484,4.614648,2.794624,-2.383336,-1.494231,0.0822102,0,0,10.02933,17.03812,-0.48814,0.1816574,-0.3031362,-0.4151495,3.599951,-0.1196739,-0.1046157,0.2710601,0.06065021,-0.9435415,1.62426,-0.03082689,0.3145466,1.411119,0.7997208,285.3472,172.3042,188.1931
4,1.08889,-0.2843401,2.766718,0.8360856,4.589107,2.77914,-2.381078,-1.489976,0.3886855,0,0,10.10753,17.2434,-0.4283834,0.1751395,-0.289779,-0.4180801,3.603365,-0.1202518,-0.1282621,0.2679518,0.03634214,-0.944023,1.627496,-0.03051343,0.3215067,1.411432,0.7999834,285.9153,166.6326,195.4512
4,1.100002,-0.2936358,2.642102,0.7469542,4.567609,2.764462,-2.379353,-1.48915,0.07193193,0,0,10.20528,17.71261,-0.357649,0.145052,-0.2307646,-0.4186297,3.604941,-0.1201094,-0.1231645,0.2625493,0.01181143,-0.9446808,1.630741,-0.03126871,0.3283283,1.412022,0.7999653,286.5017,161.685,201.8989
4,1.111113,-0.2568288,2.408532,0.6184888,4.552114,2.752098,-2.379683,-1.491631,-0.2266564,0,0,10.26393,18.24047,-0.3369334,0.1086273,-0.1649661,-0.4181807,3.605254,-0.1171631,-0.1298113,0.2497697,-0.01048626,-0.94559,1.633608,-0.03129347,0.334852,1.41319,0.7995115,287.2574,157.9263,207.0883
4,1.122224,-0.1897619,2.029863,0.4639243,4.544075,2.744168,-2.380953,-1.49255,-0.08155184,0,0,10.26393,18.7781,-0.3226839,0.07116079,-0.1076526,-0.4174713,3.604387,-0.1131079,-0.1256294,0.2231162,-0.000888133,-0.9452763,1.635532,-0.03110892,0.3407679,1.414869,0.798477,288.2958,155.7525,210.6396
4,1.133335,-0.1250459,1.738264,0.3797811,4.536085,2.73785,-2.382657,-1.494887,-0.2132294,0,0,10.21505,19.25709,-0.2938666,0.02314442,-0.09416376,-0.4180476,3.601018,-0.1079187,-0.1086964,0.1910719,0.008611199,-0.9448869,1.636901,-0.03124074,0.3459303,1.416948,0.7970212,289.4016,155.1204,212.4866
4,1.144446,-0.06350863,1.432754,0.2905015,4.531178,2.733495,-2.384568,-1.496577,-0.1530062,0,0,10.09775,19.47214,-0.2087447,-0.1090986,-0.08454625,-0.4182329,3.587475,-0.09612094,-0.09825983,0.1505193,0.01071399,-0.9447649,1.637134,-0.0307201,0.3501686,1.419114,0.7954249,290.4881,155.9024,212.7633
4,1.155557,0.0776912,1.213834,0.2054529,4.526882,2.728028,-2.390872,-1.497109,-0.04766194,0,0,9.951125,19.37439,-0.1458998,-0.1518176,-0.07770811,-0.4187011,3.580001,-0.08945584,-0.109044,0.1250242,0.01403897,-0.9444943,1.63802,-0.02951555,0.3532285,1.420974,0.7940053,291.429,157.2446,212.2521
4,1.166668,0.1324522,1.057711,0.1389738,4.522382,2.722297,-2.395392,-1.497299,-0.01731162,0,0,9.784947,18.95406,-0.1083593,-0.1167909,-0.05340723,-0.4185216,3.579823,-0.08928274,-0.1166253,0.1079992,0.01093023,-0.9444773,1.638546,-0.0282873,0.355027,1.422212,0.7929381,292.1396,158.0991,211.8442
4,1.17778,0.1427897,0.7555632,-0.01639441,4.527762,2.719953,-2.397551,-1.500961,-0.3350388,0,0,9.608994,18.23069,-0.09194566,-0.06793132,-0.00760325,-0.4172076,3.582713,-0.09141034,-0.1071041,0.09514426,0.01086844,-0.9444379,1.6391,-0.02788543,0.3558069,1.422763,0.7924314,292.4315,158.4867,211.447
4,1.188891,0.1397583,0.690098,-0.05826369,4.525069,2.714304,-2.399987,-1.498839,0.196329,0,0,9.433041,17.2825,-0.05850681,0.02034102,0.02859175,-0.4159325,3.591188,-0.09955056,-0.09322637,0.08549134,0.02142555,-0.9438243,1.639848,-0.02781565,0.3559384,1.422385,0.7924634,292.4748,158.8068,210.8064
4,1.200002,0.09964135,0.5112779,-0.2234554,4.530704,2.70894,-2.400728,-1.496245,0.2347984,0,0,9.305963,16.29521,0.004654437,0.1107427,0.0496436,-0.415247,3.601737,-0.1114661,-0.08149762,0.07159553,0.03307346,-0.9429907,1.640305,-0.02760553,0.3558959,1.421054,0.7930905,292.2419,158.7799,210.4758
4,1.211113,0.1072886,0.4286699,-0.2768815,4.532917,2.704126,-2.402907,-1.495052,0.1063408,0,0,9.227761,15.30792,0.06442475,0.1319382,0.05988021,-0.4144917,3.607386,-0.1194156,-0.0656822,0.03634707,0.0372623,-0.9424501,1.639193,-0.0268697,0.3557721,1.418915,0.7941399,291.5395,158.5773,210.3444
4,1.222224,0.1056625,0.2338889,-0.3556601,4.540384,2.70288,-2.404402,-1.492742,0.2102802,0,0,9.178885,14.3304,0.1357795,0.1254464,0.05823054,-0.4140608,3.610501,-0.1264453,-0.04590929,-0.01495296,0.01587438,-0.9429369,1.636535,-0.02553838,0.3560905,1.416398,0.7954738,290.725,157.5791,210.9664
4,1.233335,0.07412148,0.08201741,-0.399743,4.547806,2.702177,-2.404077,-1.493339,-0.05725029,0,0,9.139785,13.40176,0.1621836,0.0711242,0.03976378,-0.4141663,3.606955,-0.1257875,-0.02173586,-0.04494932,-0.003451301,-0.9436283,1.634799,-0.02512666,0.3569421,1.413703,0.7966003,289.714,156.6358,211.6958
4,1.244446,0.1164305,-0.1869505,-0.45751,4.560376,2.705651,-2.406213,-1.492537,0.07331546,0,0,9.090909,12.58065,0.1747507,-0.01941818,0.02876833,-0.4138877,3.59793,-0.1197682,-0.01231103,-0.07271797,-0.003484666,-0.9435713,1.63246,-0.02387284,0.3583932,1.411177,0.7973608,288.9125,155.647,212.7712
4,1.255558,0.1604715,-0.3094461,-0.4679076,4.56937,2.70752,-2.409256,-1.489705,0.2571159,0,0,9.090909,11.85728,0.1910881,-0.02701758,0.07549587,-0.4112762,3.597804,-0.1222785,-0.009083848,-0.07485741,0.002883211,-0.9433135,1.631397,-0.02311278,0.3600653,1.408913,0.7976482,288.3164,155.1482,213.6576
4,1.266669,0.1800973,-0.448695,-0.4461318,4.578743,2.711972,-2.411367,-1.491418,-0.1596914,0,0,9.120235,11.44673,0.2606211,0.03460512,0.1006768,-0.4095777,3.604627,-0.1337788,-0.0196109,-0.06307633,0.009342794,-0.9429817,1.630942,-0.02234419,0.3615987,1.407102,0.7975378,287.8319,155.0067,214.3205
4,1.27778,0.1941264,-0.4863518,-0.3871301,4.584813,2.715463,-2.413417,-1.490921,0.04577874,0,0,9.169111,11.38807,0.2595465,0.1092173,0.08597212,-0.4096272,3.614115,-0.1453407,-0.02370503,-0.05236956,0.0232124,-0.9422045,1.630876,-0.02177427,0.362467,1.40564,0.797065,287.4382,155.8392,213.9257
4,1.288891,0.2185974,-0.4492233,-0.3129952,4.587786,2.717382,-2.416502,-1.488702,0.2011358,0,0,9.247313,11.652,0.2402838,0.2009366,0.05760743,-0.4108304,3.627415,-0.1594791,-0.0003627166,-0.07169491,0.02518499,-0.9418114,1.628766,-0.02143019,0.3625931,1.40443,0.7965066,287.2224,156.8663,213.0534
4,1.300002,0.2270972,-0.418613,-0.246213,4.590318,2.71962,-2.419081,-1.486891,0.1628433,0,0,9.354838,12.17009,0.2229847,0.1722737,0.03103033,-0.4115852,3.629551,-0.1632949,0.04395908,-0.1390814,0.02066524,-0.9417598,1.623784,-0.02070608,0.3618914,1.403376,0.7960542,287.0461,157.6178,212.216
4,1.311113,0.2270413,-0.3906332,-0.2209543,4.593751,2.721214,-2.421482,-1.486387,0.04399044,0,0,9.481916,12.92278,0.1684111,0.07117012,0.01947337,-0.4112246,3.622425,-0.1568482,0.07123185,-0.1904007,0.006673126,-0.9420933,1.618941,-0.019395,0.3605666,1.402527,0.7959247,286.8314,157.9473,211.5306
4,1.322224,0.2256028,-0.2471112,-0.1532868,4.591968,2.7199,-2.424114,-1.484867,0.1380282,0,0,9.63832,13.87097,0.1233385,-0.02777246,-0.003873154,-0.4114637,3.612978,-0.1480217,0.09246166,-0.1894851,-0.004158049,-0.9425465,1.616295,-0.01961471,0.3589208,1.40182,0.7961324,286.6293,158.1036,210.8468
4,1.333336,0.2104189,-0.1400771,-0.1043886,4.590413,2.718754,-2.426107,-1.483575,0.1163497,0,0,9.784947,15.01466,0.07499627,-0.1714533,-0.02837596,-0.4115969,3.595906,-0.1316313,0.09568389,-0.1714012,-0.01380112,-0.943012,1.614895,-0.01993083,0.3571846,1.401126,0.7966112,286.4183,158.3229,210.0815
4,1.344447,0.1674008,0.01378993,-0.05171441,4.586155,2.715645,-2.427006,-1.482625,0.08552344,0,0,9.872923,16.26588,0.06529994,-0.2150949,-0.03481415,-0.4117769,3.586565,-0.123645,0.07457282,-0.1201727,-0.0275527,-0.9437385,1.615194,-0.02029009,0.3555506,1.40032,0.7972161,286.1573,158.6172,209.2366
4,1.355558,0.1191643,0.1269395,-0.01880596,4.58188,2.712448,-2.427325,-1.481346,0.1159726,0,0,9.951125,17.41936,0.07143024,-0.2086203,-0.06893603,-0.4135985,3.580622,-0.1192476,0.06206192,-0.0913069,-0.01471183,-0.9434562,1.615274,-0.02060701,0.3543901,1.39936,0.7977795,285.9766,158.2815,209.0543
4,1.366669,0.1051307,0.1963547,-0.0003916509,4.578693,2.709452,-2.428484,-1.479473,0.1699429,0,0,9.990225,18.32845,0.04550926,-0.1594344,-0.1218679,-0.4170393,3.580281,-0.1184995,0.04754736,-0.06348779,0.01412467,-0.9423047,1.615413,-0.0207929,0.353867,1.398242,0.7981246,285.8217,157.4283,209.6074
4,1.37778,0.1432286,0.2981731,0.04318601,4.572535,2.705535,-2.432162,-1.47846,0.09115268,0,0,10,18.93451,-0.02513139,-0.03131868,-0.1859439,-0.4215363,3.589071,-0.1237803,0.04465044,-0.05489127,0.04610025,-0.940662,1.615129,-0.02090262,0.3541422,1.397112,0.7981667,285.6899,156.115,210.8436
4,1.388891,0.2111802,0.3860928,0.07410441,4.566503,2.701365,-2.437573,-1.479109,-0.06009334,0,0,9.980451,19.28641,-0.0613507,0.04227445,-0.1993042,-0.424265,3.594598,-0.1271223,0.04803536,-0.05807699,0.07164305,-0.9390317,1.613984,-0.02093298,0.3552649,1.396193,0.7979383,285.6307,154.7476,212.4308
4,1.400002,0.2206487,0.4376233,0.1065549,4.560546,2.697881,-2.44085,-1.481381,-0.2072505,0,0,9.951125,19.40372,-0.1015648,0.1371007,-0.1827483,-0.42637,3.605831,-0.1348113,0.06735523,-0.05603819,0.0874637,-0.9375728,1.613249,-0.02195483,0.3569483,1.395481,0.797335,285.7279,153.6865,214.0093
4,1.411114,0.2012842,0.5158013,0.1483204,4.553029,2.693569,-2.443122,-1.482909,-0.1382205,0,0,9.902249,19.27664,-0.1088182,0.176486,-0.1655375,-0.4280137,3.613153,-0.1403102,0.07362387,-0.05077478,0.06929818,-0.9372905,1.612812,-0.02259373,0.3590877,1.394998,0.7966042,286.091,152.8278,215.5211
4,1.422225,0.1755709,0.5768523,0.1838899,4.545211,2.689103,-2.445013,-1.480515,0.2195796,0,0,9.843597,18.92473,-0.1013037,0.1434133,-0.1518353,-0.429244,3.613229,-0.1395422,0.06383835,-0.02948332,0.02885802,-0.938392,1.613061,-0.0231434,0.361366,1.394458,0.7958325,286.6441,152.3667,216.7645
4,1.433336,0.1328058,0.6399845,0.2205181,4.536435,2.684414,-2.445796,-1.478739,0.1601086,0,0,9.775171,18.348,-0.07064964,0.02514292,-0.1598559,-0.4307455,3.603826,-0.1311468,0.04116126,0.008903712,-0.03706623,-0.941037,1.614854,-0.02386831,0.3635119,1.393758,0.7952347,287.1563,151.7267,218.157
4,1.444447,0.116802,0.649603,0.2268154,4.529768,2.680287,-2.447374,-1.478003,0.06597378,0,0,9.706745,17.62463,-0.05804361,-0.05794718,-0.1676389,-0.4324436,3.59556,-0.1234346,0.03139517,0.02488056,-0.07110511,-0.9428794,1.615607,-0.02439589,0.365464,1.393009,0.7949557,287.5249,150.6018,219.8471
4,1.455558,0.1041977,0.5822308,0.2073279,4.525881,2.677928,-2.448578,-1.476771,0.1122826,0,0,9.63832,16.92082,-0.05616018,-0.159121,-0.1807046,-0.4341949,3.583321,-0.1117446,0.03230105,0.009950129,-0.07961065,-0.9439383,1.615077,-0.02447339,0.3671393,1.392278,0.7948945,287.7838,149.2049,221.6412
4,1.466669,0.1001153,0.5126449,0.1782796,4.522984,2.675945,-2.449921,-1.477584,-0.0751818,0,0,9.579668,16.17791,-0.05725066,-0.1878881,-0.1786429,-0.435773,3.57551,-0.1039837,0.03453198,-0.01772438,-0.04762794,-0.943354,1.613369,-0.02400893,0.368549,1.391679,0.794913,287.9831,147.7349,223.376
4,1.47778,0.08552754,0.3842022,0.1275228,4.523008,2.675514,-2.450415,-1.477693,-0.009223607,0,0,9.501467,15.38612,-0.03801963,-0.1836699,-0.1723968,-0.4373001,3.570924,-0.1000664,0.03479344,-0.04107658,0.002478299,-0.9415126,1.612013,-0.02353569,0.3696082,1.391214,0.7948499,288.1369,146.8036,224.5556
4,1.488891,0.09117761,0.2655854,0.09368588,4.523831,2.676305,-2.45148,-1.477929,-0.02151705,0,0,9.433041,14.55523,-0.008867577,-0.1198892,-0.1351697,-0.4377028,3.573292,-0.1031413,0.02953096,-0.05487113,0.0206488,-0.9407787,1.610662,-0.02287895,0.370219,1.390874,0.7946712,288.2248,146.3817,225.1743
4,1.500003,0.09461668,0.1757335,0.0605937,4.524498,2.676618,-2.452749,-1.47743,0.04581732,0,0,9.345064,13.70479,0.008812837,-0.06576842,-0.06591544,-0.4362055,3.576242,-0.1066005,0.03272784,-0.05702239,0.02167967,-0.9407403,1.609792,-0.02293408,0.3704121,1.390652,0.7944295,288.269,146.3511,225.2748
4,1.511114,0.07993636,0.07923564,0.010545,4.527247,2.677469,-2.452888,-1.477954,-0.0486625,0,0,9.276637,12.9521,0.001959043,-0.03185463,0.00454084,-0.4339802,3.578605,-0.1084194,0.02609461,-0.04212571,-0.01876971,-0.9423106,1.609895,-0.02304939,0.3702588,1.390557,0.794252,288.2314,146.5581,225.0152
4,1.522225,0.05872102,0.03395984,-0.0315413,4.529071,2.677043,-2.452918,-1.477664,0.02640938,0,0,9.208211,12.31672,-0.009347126,-0.01278877,0.05262255,-0.4320015,3.580132,-0.1093792,0.01217463,-0.02930205,-0.03678488,-0.9432315,1.609734,-0.0226161,0.3698154,1.390542,0.7941942,288.1722,146.8931,224.523
4,1.533336,0.0641669,-0.02523335,-0.08628484,4.532721,2.677014,-2.453778,-1.475932,0.1575053,0,0,9.169111,11.79863,-0.003900476,0.006350398,0.06541677,-0.4309959,3.582242,-0.1113052,0.01435835,-0.006952981,-0.04642449,-0.9440703,1.610656,-0.02338522,0.3692083,1.390484,0.7943134,288.1302,147.3719,223.8418
4,1.544447,0.07607488,-0.104522,-0.1312237,4.537142,2.677869,-2.454892,-1.474639,0.1161489,0,0,9.13001,11.39785,0.04936111,0.009478942,0.06287176,-0.4305149,3.583005,-0.1145423,0.01657085,-0.001638548,-0.0400537,-0.9441774,1.610661,-0.02365739,0.3684808,1.390272,0.794578,287.9927,147.8648,223.124
4,1.555558,0.05495736,-0.179572,-0.16765,4.542272,2.679409,-2.454542,-1.474794,-0.01542449,0,0,9.120235,11.16325,0.1077329,0.009472258,0.03577127,-0.4310971,3.583218,-0.1178246,0.02084321,-0.009104304,-0.03368342,-0.9442983,1.610294,-0.02385633,0.3679084,1.389961,0.7950788,287.7717,148.1946,222.5017
4,1.566669,0.03052294,-0.2075164,-0.1832919,4.546056,2.680162,-2.453862,-1.474649,0.01302449,0,0,9.139785,11.08504,0.1213718,0.01805684,0.006922869,-0.4320633,3.584298,-0.1206191,0.02415906,-0.03251057,-0.001714535,-0.9431537,1.608854,-0.02338575,0.3675371,1.389456,0.795664,287.4886,148.5632,221.8851
4,1.577781,0.02093571,-0.2075025,-0.1800899,4.548769,2.68057,-2.453721,-1.472757,0.1724444,0,0,9.198437,11.16325,0.1115749,0.02666521,-0.02067067,-0.4331903,3.585261,-0.1222098,0.02535643,-0.04313388,0.02279748,-0.9420202,1.607814,-0.02303421,0.3672989,1.388658,0.796172,287.1882,148.7991,221.4916
4,1.588892,0.02199033,-0.1977218,-0.1631537,4.55091,2.681189,-2.453901,-1.471704,0.09448803,0,0,9.266863,11.35875,0.1062665,0.03306178,-0.01954596,-0.4334465,3.586601,-0.1244016,0.01372002,-0.03772886,0.02927548,-0.9415222,1.607569,-0.02260917,0.3671361,1.38768,0.7965661,286.8327,148.5516,221.6631
4,1.600003,0.02733386,-0.1964281,-0.1439958,4.552964,2.682284,-2.454218,-1.471838,-0.01302188,0,0,9.345064,11.55425,0.09477381,0.03832547,0.008261923,-0.4323413,3.588227,-0.1265239,0.005171781,-0.0355524,0.02401522,-0.9414487,1.607271,-0.02225657,0.3670768,1.386733,0.7968364,286.4857,147.9199,222.2578
4,1.611114,0.05394506,-0.1800794,-0.1186392,4.554279,2.683117,-2.45556,-1.471989,-0.01377547,0,0,9.384165,12.05279,0.05765961,0.02660064,0.03303095,-0.431136,3.588538,-0.1261441,0.00387289,-0.04091361,-0.0004698866,-0.9422328,1.606404,-0.02168372,0.367074,1.385933,0.7968699,286.2229,147.2386,222.9469
4,1.622225,0.05496876,-0.1607756,-0.1082036,4.555629,2.683318,-2.456254,-1.471973,0.001340086,0,0,9.442816,12.70772,0.04276879,0.01915373,0.0373904,-0.4305628,3.588573,-0.1261127,0.004773922,-0.04840871,-0.01538048,-0.9428554,1.605279,-0.021121,0.3671346,1.385401,0.7967575,286.0674,146.8159,223.4167
4,1.633336,0.03675993,-0.1255771,-0.09898715,4.556386,2.683045,-2.456076,-1.472682,-0.06504302,0,0,9.521016,13.46041,-0.008394726,-0.02979055,0.04299771,-0.4296233,3.583685,-0.1197424,0.009943813,-0.05910689,-0.02605809,-0.943435,1.604056,-0.02057505,0.3672024,1.385168,0.7966,286.0152,146.7537,223.5621
4,1.644447,-0.01344579,-0.08205849,-0.1004873,4.55693,2.681774,-2.454402,-1.471735,0.08696291,0,0,9.63832,14.27175,-0.01040514,-0.04154855,0.05896297,-0.428329,3.582199,-0.1184374,0.02053907,-0.05385603,-0.0368163,-0.9443218,1.603614,-0.02082619,0.3672211,1.385158,0.7964752,286.0485,147.0845,223.3069
4,1.655559,-0.04769112,-0.02661248,-0.08615354,4.556444,2.680388,-2.452985,-1.470468,0.114945,0,0,9.775171,15.15152,0.05026636,-0.06826708,0.05840943,-0.4275396,3.578726,-0.1177477,0.02585426,-0.05495124,-0.03685362,-0.9446563,1.602877,-0.02077585,0.3671978,1.385252,0.7964225,286.082,147.5978,222.793
4,1.66667,-0.05952056,0.02163493,-0.05578389,4.55499,2.679265,-2.452276,-1.468645,0.1656462,0,0,9.882699,16.09971,0.06295365,-0.08743396,0.04866653,-0.4272168,3.574998,-0.1156254,0.02821926,-0.04854509,-0.01238754,-0.9440507,1.602292,-0.02082086,0.3672279,1.385429,0.7964904,286.0843,148.0132,222.3129
4,1.677781,-0.06288495,0.08805037,-0.02242654,4.552232,2.677377,-2.451767,-1.468795,-0.01494571,0,0,9.941349,17.1261,0.03610626,-0.07347272,0.02015627,-0.4278507,3.574023,-0.1139505,0.03491028,-0.03787695,0.01737484,-0.9427819,1.602405,-0.02142353,0.367425,1.385743,0.7966568,286.0333,148.1609,222.0831
4,1.688892,-0.07147058,0.1137308,-0.009915024,4.550706,2.676015,-2.450977,-1.469707,-0.08296173,0,0,9.980451,18.12317,0.01582726,-0.04252104,0.009747637,-0.4281868,3.575433,-0.114676,0.03597165,-0.04853269,0.02484316,-0.9422072,1.601144,-0.02109197,0.3678193,1.386218,0.7967755,286.0215,148.1044,222.0975
4,1.700003,-0.09607372,0.143394,-0.01767404,4.549609,2.673941,-2.449486,-1.469941,-0.02062917,0,0,10.00978,18.86608,0.01587865,-0.02654887,0.01405374,-0.4278507,3.576306,-0.1155887,0.0401757,-0.05068935,0.01842363,-0.9422653,1.60046,-0.02136574,0.368372,1.386809,0.7967252,286.1208,148.0244,222.2121
4,1.711114,-0.1175387,0.1944652,-0.01715752,4.547345,2.670932,-2.447942,-1.469777,0.01511231,0,0,9.970675,19.58944,0.02094559,-0.0232728,-0.01792555,-0.4288904,3.575417,-0.1151079,0.0446267,-0.0294033,0.02581235,-0.941706,1.60096,-0.0223828,0.3691143,1.387505,0.7965818,286.3237,148.1,222.2755
4,1.722225,-0.135919,0.2905342,0.004160658,4.542626,2.666367,-2.446629,-1.468986,0.07216977,0,0,9.892473,20.22483,0.02181682,-0.01681706,-0.04348292,-0.4302225,3.575106,-0.1150659,0.04460713,-0.02834285,0.02261499,-0.9415643,1.600622,-0.02267788,0.3699154,1.388197,0.796329,286.532,148.5125,222.0935
4,1.733337,-0.1394551,0.4156075,0.04325087,4.535687,2.660783,-2.445951,-1.468796,0.01688142,0,0,9.775171,20.77224,0.04955962,-0.06270447,-0.02891368,-0.4297575,3.569752,-0.1116378,0.04980458,-0.04756016,0.02046368,-0.9415238,1.598885,-0.02238227,0.3707721,1.388883,0.7960333,286.6763,148.9462,221.8545
4,1.744448,-0.1343296,0.4828667,0.05421156,4.530118,2.655458,-2.445533,-1.468886,-0.008218497,0,0,9.63832,21.2219,0.05074631,-0.1480186,0.002799615,-0.4283471,3.559576,-0.1028172,0.06228862,-0.08280687,0.008701382,-0.9417209,1.596266,-0.02202008,0.3717836,1.38961,0.7957175,286.8249,149.1014,221.825
4,1.755559,-0.1228408,0.557489,0.05549349,4.523967,2.649052,-2.445743,-1.469454,-0.05176115,0,0,9.521016,21.56403,0.0252571,-0.226923,0.03463694,-0.4269495,3.550018,-0.09396698,0.05912248,-0.08383363,0.01299515,-0.9413294,1.59536,-0.02205204,0.3731142,1.390439,0.7953798,287.0624,148.8557,222.1943
4,1.76667,-0.1112055,0.5775903,0.03928049,4.519485,2.643476,-2.44591,-1.469865,-0.0369956,0,0,9.41349,21.73021,0.01678791,-0.2503338,0.03794899,-0.4256743,3.53945,-0.08389916,0.05915792,-0.08170354,0.01619149,-0.9409332,1.59429,-0.02202248,0.3748453,1.39138,0.7949835,287.4131,148.5563,222.7558
4,1.777781,-0.1047184,0.5379292,0.01627256,4.517096,2.639483,-2.445632,-1.470314,-0.0408756,0,0,9.296188,21.71066,-0.01195666,-0.268413,0.04452291,-0.4246053,3.530716,-0.07459967,0.05602176,-0.06782974,0.01300555,-0.9408197,1.59424,-0.02254845,0.3768881,1.392317,0.7945086,287.7911,148.6826,223.0322
4,1.788892,-0.0737412,0.5103161,0.01548611,4.513963,2.635965,-2.446578,-1.470415,-0.008977922,0,0,9.169111,21.51515,-0.007797927,-0.2609292,0.03066139,-0.4245952,3.524472,-0.06898519,0.06143901,-0.05827308,0.01720738,-0.9404826,1.593755,-0.0231442,0.3792121,1.393155,0.7939727,288.1761,149.0226,223.1556
4,1.800003,-0.03527224,0.484201,0.05195798,4.50969,2.633802,-2.448076,-1.469974,0.03992311,0,0,9.042033,21.17302,0.006907523,-0.2182531,-0.003433831,-0.425856,3.521801,-0.06719795,0.05195606,-0.04967877,0.02366475,-0.9399436,1.593572,-0.02332077,0.3815711,1.393703,0.7933139,288.5471,149.4868,223.2699
4,1.811115,-0.05243906,0.541131,0.098214,4.502645,2.629162,-2.447492,-1.470693,-0.06658428,0,0,8.885631,20.75269,-0.01775242,-0.153147,-0.03502876,-0.4274757,3.52294,-0.06714122,0.03409024,-0.02824465,0.03869064,-0.9390311,1.594059,-0.02336445,0.3837291,1.393928,0.7926427,288.8329,149.7797,223.5844
4,1.822226,-0.004561901,0.5714771,0.1308538,4.496035,2.62499,-2.450002,-1.470776,-0.007716666,0,0,8.787879,20.28348,-0.03486117,-0.0848919,-0.05601032,-0.4288275,3.525987,-0.06898732,0.01503086,-0.01002031,0.03988208,-0.9385544,1.594754,-0.02326271,0.3854819,1.393782,0.7920085,289.1176,149.7311,224.1579
4,1.833337,0.03366286,0.6252711,0.1674981,4.48821,2.620173,-2.452685,-1.4672,0.3260176,0,0,8.778104,19.77517,-0.03483108,0.04086911,-0.07485196,-0.4307892,3.537712,-0.07919229,-0.001927989,0.01456966,0.03252259,-0.9385102,1.59603,-0.02343315,0.3867332,1.393248,0.7915043,289.4311,149.2727,224.9791
4,1.844448,0.03250974,0.6562241,0.1724835,4.481308,2.614873,-2.454134,-1.468758,-0.1464038,0,0,8.86608,19.24731,-0.02735818,0.07815488,-0.08013901,-0.4320239,3.541993,-0.08311326,0.002298044,0.02198576,0.02288608,-0.9386753,1.596577,-0.02392531,0.3877805,1.392576,0.7913763,289.6737,148.2559,226.1755
4,1.855559,0.001424909,0.7223338,0.1866908,4.472978,2.608504,-2.454534,-1.467482,0.1169326,0,0,9.051809,18.78788,-0.02344481,0.06121773,-0.1207024,-0.4348431,3.541711,-0.0826813,0.01921122,0.02505738,0.003569456,-0.9392772,1.597113,-0.02516288,0.3886699,1.391731,0.7914806,289.8823,147.3845,227.1479
4,1.86667,-0.01041877,0.7661022,0.1979311,4.464795,2.602341,-2.455531,-1.464196,0.297725,0,0,9.286413,18.40665,-0.02923872,0.01341797,-0.1708542,-0.4383776,3.536729,-0.07762316,0.03389477,0.003634898,-0.009299474,-0.9398104,1.596039,-0.02537646,0.3895279,1.390662,0.7917638,290.0905,146.4628,228.1318
4,1.877781,0.02546144,0.8925014,0.2486835,4.452378,2.593887,-2.459099,-1.460734,0.3124948,0,0,9.560118,18.10362,-0.05193533,-0.07276762,-0.1964772,-0.441142,3.527571,-0.06799743,0.0341699,0.007946836,0.02265444,-0.9384346,1.596375,-0.02583746,0.3905106,1.389448,0.7921624,290.2162,145.2876,229.3607
4,1.888893,0.08472407,1.037042,0.296009,4.438435,2.583934,-2.46463,-1.4592,0.136232,0,0,9.863148,17.87879,-0.08260354,-0.1548644,-0.1527802,-0.4412389,3.517368,-0.05684411,0.03542577,0.01543215,0.03967433,-0.9374966,1.597142,-0.02683215,0.3917584,1.388251,0.7925079,290.3446,143.7707,230.9878
4,1.900004,0.1165322,1.091603,0.3070946,4.426764,2.575029,-2.469474,-1.459056,0.01065649,0,0,10.16618,17.72239,-0.1128981,-0.2211044,-0.06536089,-0.4387579,3.506922,-0.0451523,0.04513503,0.01859097,0.05237507,-0.9364393,1.59756,-0.02792191,0.3933499,1.387216,0.7926837,290.5772,142.2869,232.6763
4,1.911115,0.1314352,1.092631,0.2996095,4.416733,2.566936,-2.473817,-1.458286,0.06855752,0,0,10.39101,17.60508,-0.1359039,-0.2798362,0.0007101893,-0.4362471,3.495031,-0.03196432,0.04517529,0.03456488,0.04595862,-0.936255,1.59876,-0.02911714,0.3954119,1.386307,0.7925856,291.0909,141.0993,234.1651
4,1.922226,0.1176404,1.075531,0.2987474,4.407231,2.55988,-2.476692,-1.455222,0.277507,0,0,10.54741,17.35093,-0.1649182,-0.2541305,-0.03521141,-0.4380288,3.490476,-0.02502785,0.04731615,0.07498018,0.01712001,-0.9369565,1.601276,-0.0312775,0.3979564,1.38533,0.7921988,291.8108,140.4391,235.3578
4,1.933337,0.05712557,1.010443,0.3069982,4.398668,2.554801,-2.476853,-1.452006,0.2895977,0,0,10.62561,16.92082,-0.1602023,-0.1324214,-0.1339967,-0.4429492,3.496469,-0.02872832,0.05685114,0.09726363,-0.005362012,-0.9378471,1.603574,-0.0335561,0.4007016,1.384047,0.791541,292.5171,140.1985,236.3926
4,1.944448,0.01366317,0.9401436,0.3195516,4.390339,2.550474,-2.47684,-1.447971,0.3645047,0,0,10.66471,16.31476,-0.05965415,-0.01617326,-0.2388839,-0.4491043,3.504057,-0.03837216,0.05052302,0.07602882,0.01815305,-0.9368889,1.603642,-0.03398779,0.4033657,1.382358,0.7907462,293.1288,139.9898,237.4671
4,1.955559,0.01173997,0.8752075,0.3245418,4.38274,2.546607,-2.478284,-1.443042,0.4459234,0,0,10.70381,15.52297,-0.0141574,0.03928845,-0.2891709,-0.4540045,3.508253,-0.04360047,-0.008964833,0.06258549,0.04955153,-0.9351014,1.604012,-0.03195367,0.4058208,1.38039,0.7900044,293.6617,139.2848,238.949
4,1.966671,0.05570942,0.784825,0.3276308,4.376444,2.544257,-2.481416,-1.44035,0.2407113,0,0,10.72336,15.00489,-0.02253552,0.07335289,-0.2772951,-0.4565345,3.511935,-0.04613927,-0.02524787,0.07857552,0.0006556301,-0.9368292,1.605644,-0.03199096,0.4079088,1.378464,0.7894254,294.1082,137.9703,240.9434
4,1.977782,0.1134783,0.6984774,0.307229,4.37134,2.541895,-2.485438,-1.439448,0.07895803,0,0,10.72336,15.14174,-0.05517341,0.02530699,-0.2196384,-0.4568019,3.508644,-0.0414063,0.02726274,0.04939011,-0.07110193,-0.9400682,1.605033,-0.03370017,0.4095629,1.376918,0.7890707,294.4835,136.5721,242.8634
4,1.988893,0.1168157,0.6427271,0.2748239,4.366509,2.538526,-2.487855,-1.439087,0.03050864,0,0,10.69404,15.88465,-0.1252605,-0.09972821,-0.03405791,-0.4508108,3.496916,-0.0270737,0.04821042,0.03429302,-0.1042731,-0.942261,1.604579,-0.03468528,0.4106802,1.375842,0.7889052,294.835,135.6439,244.1653
4,2.000004,0.09250867,0.5643891,0.2309811,4.363774,2.536391,-2.488718,-1.437349,0.1566969,0,0,10.63539,17.2434,-0.1194158,-0.1606656,0.04243454,-0.4475954,3.488194,-0.01807221,0.02152813,0.03873597,-0.1189536,-0.9441471,1.604907,-0.03471537,0.4111187,1.375109,0.7889276,295.1563,135.3328,244.7064
4,2.011115,0.07053393,0.427623,0.2016391,4.362381,2.536908,-2.488715,-1.432636,0.4275066,0,0,10.55719,19.37439,-0.0903922,-0.2087559,0.08362524,-0.4454776,3.479536,-0.01045104,0.01652331,0.05581596,-0.08593567,-0.9438062,1.606736,-0.03524694,0.4108683,1.374441,0.7891152,295.3783,135.3909,244.6307
4,2.022226,0.02193055,0.2864031,0.1617168,4.362488,2.538026,-2.487182,-1.428629,0.3609045,0,0,10.44966,21.70088,-0.04501852,-0.1436541,0.01526718,-0.4475501,3.481122,-0.01302286,0.01798992,0.06439164,-0.04228542,-0.9429183,1.607886,-0.03618304,0.4102798,1.373737,0.7895761,295.4774,135.2687,244.5011
4,2.033337,0.002009571,0.1764148,0.144857,4.362456,2.539935,-2.4859,-1.426147,0.2225235,0,0,10.31281,24.06647,0.02242285,-0.06463054,-0.09265459,-0.4521941,3.485318,-0.01926957,0.02145754,0.04314844,0.006727321,-0.9412703,1.607818,-0.03652765,0.4095599,1.372961,0.7902087,295.4346,134.8527,244.5609
4,2.044448,-0.004969627,0.01525492,0.1200315,4.364957,2.544285,-2.484268,-1.422605,0.3206447,0,0,10.16618,26.34409,0.05721496,0.008985758,-0.1523954,-0.4559002,3.490529,-0.02571868,0.02130938,0.005877899,0.01530279,-0.9409092,1.60639,-0.03594415,0.4087792,1.372115,0.7909064,295.334,134.3108,244.7541
4,2.055559,0.003755659,-0.05628579,0.1037764,4.366183,2.547096,-2.483683,-1.420873,0.1542967,0,0,10.01955,27.90811,0.05098465,0.01213904,-0.1331612,-0.4565393,3.490829,-0.02629472,0.04656529,-0.04434861,0.01303994,-0.9408906,1.603688,-0.03576332,0.408021,1.371306,0.7915999,295.2002,133.5506,245.2178
4,2.06667,0.005046444,-0.1375238,0.07912194,4.368593,2.550733,-2.482623,-1.419337,0.1378774,0,0,9.882699,28.7781,0.02807756,-0.02424929,-0.05956779,-0.4545409,3.487153,-0.02248454,0.06201003,-0.06795372,-0.03605416,-0.9428719,1.601625,-0.03580593,0.4072624,1.370676,0.7922264,295.0992,132.7696,245.8484
4,2.077781,-0.03644335,-0.1700691,0.03798384,4.37093,2.552449,-2.480271,-1.417786,0.1391889,0,0,9.755621,28.90518,-0.003158111,-0.05535575,0.03753883,-0.4508652,3.483506,-0.01810763,0.05752959,-0.05945195,-0.06798908,-0.9447207,1.601234,-0.03586399,0.4064131,1.370316,0.7928535,294.9571,132.2644,246.2458
4,2.088892,-0.1003574,-0.18123,0.01047814,4.373031,2.553984,-2.476512,-1.415482,0.2080132,0,0,9.608994,28.22092,-0.004802816,-0.06511451,0.1003789,-0.4476316,3.481183,-0.0159518,0.03832955,-0.03169008,-0.09131474,-0.9466009,1.601791,-0.03591805,0.4054753,1.370162,0.7934554,294.8312,132.0785,246.2262
4,2.100003,-0.1228753,-0.133351,0.01103569,4.372776,2.554012,-2.474473,-1.411296,0.3793181,0,0,9.462366,26.94037,0.02331857,-0.07596052,0.1544528,-0.4442914,3.47817,-0.01469745,0.0170528,-0.01346649,-0.1007566,-0.9479628,1.602328,-0.03572844,0.4045292,1.370131,0.7940921,294.6702,132.1142,245.8848
4,2.111114,-0.08770272,-0.1330629,0.02697618,4.373011,2.555849,-2.474205,-1.407457,0.3463097,0,0,9.305963,25.5914,0.03069079,-0.06954459,0.1426877,-0.4432981,3.477203,-0.01434725,0.01390025,-0.02301052,-0.08899645,-0.9484704,1.601704,-0.03551432,0.4037746,1.370178,0.7947339,294.4578,132.0664,245.5472
4,2.122225,-0.0418144,-0.1420816,0.064311,4.372631,2.558577,-2.474607,-1.406392,0.09314123,0,0,9.169111,24.2913,0.01328765,-0.07792885,0.09912335,-0.4437034,3.474269,-0.01127343,0.02989698,-0.06460833,-0.05710183,-0.9479452,1.59897,-0.03484693,0.4033467,1.370357,0.795275,294.2814,131.7663,245.5064
4,2.133336,-0.03752842,-0.1330149,0.1121473,4.371163,2.561462,-2.473268,-1.4066,-0.02122565,0,0,9.051809,23.0694,-0.02939628,-0.103418,0.09513026,-0.4427489,3.469758,-0.005386509,0.04594878,-0.08490054,-0.03376063,-0.9474595,1.597135,-0.03486584,0.4033228,1.370694,0.7955908,294.2496,131.4785,245.6188
4,2.144447,-0.03014702,-0.08983217,0.1606684,4.368196,2.56322,-2.472625,-1.405208,0.1254666,0,0,8.963832,21.93548,-0.04975381,-0.1225305,0.08352144,-0.4421732,3.465206,-0.0001414139,0.05866225,-0.1201037,-0.01677283,-0.9471149,1.594033,-0.03414572,0.4034234,1.37104,0.7956467,294.373,131.6113,245.6193
4,2.155558,-0.02602544,-0.02198649,0.2248935,4.363526,2.564603,-2.471977,-1.400814,0.3985284,0,0,8.895406,20.75269,-0.09126347,-0.1501902,0.09335937,-0.4408911,3.459302,0.00758122,0.05872442,-0.1158288,-0.01251672,-0.9471031,1.592841,-0.03409512,0.4033758,1.371282,0.7956473,294.609,131.9535,245.5705
4,2.166669,-0.03669885,-0.000341177,0.2566171,4.360212,2.56633,-2.470754,-1.398007,0.2510813,0,0,8.86608,19.78495,-0.1230636,-0.1725864,0.1169909,-0.4387521,3.452818,0.01572996,0.05664174,-0.0849497,-0.02852069,-0.9478819,1.592922,-0.03462056,0.4030984,1.371406,0.7958573,294.875,132.1237,245.5929
4,2.17778,-0.05384311,0.0370558,0.2711324,4.35646,2.567346,-2.469187,-1.394876,0.2820349,0,0,8.875856,18.96383,-0.1283212,-0.1832605,0.1276569,-0.4369938,3.447003,0.02260411,0.03748689,-0.04652093,-0.05399073,-0.9493179,1.593806,-0.03496438,0.4026153,1.371362,0.7963681,295.1417,132.0792,245.6214
4,2.188891,-0.05722418,0.09991497,0.2725694,4.352205,2.566818,-2.468797,-1.391263,0.325801,0,0,8.905182,18.24047,-0.103157,-0.1565153,0.07213321,-0.4380085,3.445117,0.0246393,0.01741207,0.0004566759,-0.06774583,-0.9504912,1.595659,-0.03563096,0.4020112,1.371127,0.7971957,295.4034,131.7137,245.8297
4,2.200002,-0.05625957,0.1296612,0.2647781,4.348561,2.566521,-2.468315,-1.38741,0.3473133,0,0,8.963832,17.56598,-0.08563359,-0.1360897,-0.005719449,-0.4407217,3.44335,0.02657409,0.008116195,0.03674015,-0.05814361,-0.9509573,1.597354,-0.03644136,0.4012871,1.370683,0.7982409,295.5515,131.143,246.1844
4,2.211113,-0.04135448,0.1196444,0.2222592,4.347211,2.566296,-2.46862,-1.384696,0.2429542,0,0,9.012708,16.84262,-0.06596492,-0.06771536,-0.08985285,-0.4444645,3.446969,0.02350426,0.009372666,0.04848095,-0.04218978,-0.9509125,1.598455,-0.03716921,0.4004982,1.370048,0.7993492,295.6481,130.397,246.659
4,2.222224,-0.04868017,0.05606652,0.160125,4.348448,2.567523,-2.467388,-1.381357,0.3008584,0,0,9.042033,16.08016,-0.03508965,-0.02299746,-0.1006226,-0.4457322,3.449594,0.02049462,0.01057303,0.03785471,-0.01768016,-0.9502947,1.598513,-0.03736015,0.399832,1.369265,0.8004127,295.7382,129.5455,247.213
4,2.233335,-0.02720116,-0.02233403,0.0981217,4.350899,2.569231,-2.467241,-1.378639,0.2435418,0,0,9.07136,15.26882,-0.007946745,-0.01255116,-0.03795673,-0.444064,3.449805,0.01955266,0.005209845,0.01979691,-0.009084367,-0.9500992,1.598118,-0.03700755,0.3993957,1.368382,0.8013511,295.7994,128.6937,247.8482
4,2.244446,-0.003573909,-0.1039218,0.03615159,4.354447,2.571342,-2.467292,-1.374087,0.4116352,0,0,9.081134,14.42815,-0.00420671,0.006439786,0.0259851,-0.4417375,3.450978,0.01831935,-0.006630689,0.008130548,-0.01536146,-0.9504929,1.597577,-0.03616413,0.3991989,1.367404,0.802164,295.7561,128.1234,248.3486
4,2.255557,0.00823985,-0.1479668,0.0004080962,4.357227,2.573141,-2.467108,-1.371535,0.2272235,0,0,9.090909,13.57771,-0.0007788204,0.02660994,0.05157654,-0.4404964,3.453285,0.01617737,-0.007674621,0.01027503,-0.01535323,-0.9506489,1.597987,-0.03644616,0.3991277,1.366353,0.8028674,295.6229,127.6792,248.8167
4,2.266668,0.0360865,-0.2025158,-0.0267069,4.360446,2.575745,-2.467655,-1.368348,0.2871801,0,0,9.13001,12.92278,0.0003659427,0.03830087,0.05906131,-0.4395632,3.455057,0.01445883,-0.009826328,-0.006750182,-0.005726454,-0.9504247,1.597124,-0.03579768,0.3989992,1.365201,0.8033996,295.4513,127.358,249.1892
4,2.277779,0.0360865,-0.2025158,-0.0267069,4.360446,2.575745,-2.467655,-1.36581,0.2272172,0,0,9.237537,13.00098,0.0003659427,0.03830087,0.05906131,-0.4395632,3.455057,0.01445883,-0.009826328,-0.006750182,-0.005726454,-0.9504247,1.597124,-0.03579768,0.3986724,1.36393,0.8038356,295.2542,127.0765,249.5491
4,2.28889,0.1171513,-0.2178664,0.007473812,4.364645,2.583026,-2.471496,-1.360414,0.4889649,0,0,9.403714,13.77322,-0.07301714,0.03624201,0.07455058,-0.4369587,3.458156,0.01586791,0.01867905,-0.06442752,0.004783643,-0.9499618,1.59263,-0.03434226,0.3980108,1.362513,0.8042656,295.0218,126.732,249.8611
4,2.300001,0.1171513,-0.2178664,0.007473812,4.364645,2.583026,-2.471496,-1.360668,-0.02977106,0,0,9.63832,15.18084,-0.07301714,0.03624201,0.07455058,-0.4369587,3.458156,0.01586791,0.01867905,-0.06442752,0.004783643,-0.9499618,1.59263,-0.03434226,0.3973164,1.361107,0.8049018,294.9842,125.929,250.5644
4,2.311112,0.1096159,-0.181406,0.03052101,4.363965,2.584383,-2.472089,-1.353489,0.6544721,0,0,9.931575,17.18475,-0.08685947,0.01174581,0.07885186,-0.4360021,3.456097,0.01909673,0.01986133,-0.05803381,0.01434852,-0.9494553,1.592108,-0.0343151,0.3963046,1.359628,0.8056825,294.8788,125.3454,251.0894
4,2.322223,0.06684131,-0.1205475,0.05438714,4.362267,2.584497,-2.471102,-1.351824,0.1440069,0,0,10.27371,19.74585,-0.07640472,-0.02018342,0.06057301,-0.436025,3.452618,0.02278627,0.003016883,-0.02916415,0.0187023,-0.9491272,1.59316,-0.0341878,0.3952712,1.358154,0.8067083,294.8238,124.37,251.8084
4,2.333334,0.05605299,-0.06813704,0.07619308,4.360078,2.58462,-2.471296,-1.347629,0.3806792,0,0,10.60606,22.6784,-0.0541847,-0.0350876,0.04437592,-0.4362045,3.450317,0.02463238,-0.005296653,0.0124283,0.01551223,-0.949108,1.595392,-0.03496145,0.3941416,1.356686,0.807815,294.8365,123.4949,252.4594
4,2.344445,0.05804061,-0.01461222,0.09903207,4.357265,2.58436,-2.472167,-1.342496,0.464029,0,0,10.87977,25.9433,-0.03408001,-0.05211863,0.03031931,-0.436474,3.447656,0.02660365,0.004510604,0.03369519,0.02711919,-0.9483751,1.596984,-0.0363423,0.3930403,1.355253,0.8090214,294.8539,122.6192,253.0636
4,2.355556,0.06214312,0.0463603,0.1196645,4.35339,2.583233,-2.473586,-1.340733,0.15566,0,0,11.05572,29.00294,-0.02489259,-0.04666581,-0.02193236,-0.43871,3.446955,0.02712456,-0.007061737,0.05186962,0.0314416,-0.9479671,1.59837,-0.03665601,0.392153,1.353957,0.8102099,294.891,121.54,253.8182
4,2.366668,0.04715349,0.06094056,0.09395415,4.352705,2.582228,-2.47383,-1.338807,0.1733273,0,0,11.11437,31.67155,-0.02818295,-0.01146342,-0.03992008,-0.4397822,3.449846,0.02501347,-0.01761892,0.06471947,0.03363544,-0.9475634,1.599849,-0.03693005,0.3915485,1.352877,0.8112035,294.9708,120.5699,254.545
4,2.377779,0.04723563,0.02772157,0.07727887,4.35328,2.58337,-2.473953,-1.336517,0.206128,0,0,11.07527,34.07625,-0.01967079,0.04395569,-0.0515556,-0.4407036,3.456472,0.01888235,-0.02090202,0.07962594,0.01233332,-0.9483831,1.601736,-0.03762221,0.3912093,1.351977,0.8118791,295.1273,119.927,255.0655
4,2.38889,0.05911218,-0.02443887,0.07678218,4.353965,2.585833,-2.474221,-1.33288,0.3290869,0,0,10.97752,36.08994,0.002548506,0.07380688,-0.07508911,-0.4424821,3.460919,0.01404897,-0.01661345,0.07959753,0.01549605,-0.9480566,1.602671,-0.03820491,0.3911717,1.351213,0.8122594,295.3036,119.6423,255.343
4,2.400001,0.04647739,-0.07459757,0.07309371,4.355183,2.588684,-2.473198,-1.330968,0.1703643,0,0,10.84066,37.62463,-0.01552332,0.06316637,-0.06858416,-0.4430073,3.461585,0.01432168,-0.005096417,0.04970336,0.01225333,-0.947998,1.60195,-0.03820944,0.3914338,1.350535,0.8124672,295.337,119.6218,255.4629
4,2.411112,0.0360334,-0.1472687,0.05473768,4.357977,2.592222,-2.471889,-1.329155,0.162761,0,0,10.67449,38.74878,-0.03996018,0.006691594,-0.05043288,-0.4428357,3.456535,0.02025867,0.0001321016,0.02623951,0.01649913,-0.9477929,1.601153,-0.03803527,0.3917387,1.349887,0.8125029,295.3408,119.747,255.548
4,2.422223,0.04881471,-0.1505458,0.04410632,4.359019,2.593694,-2.472504,-1.325483,0.3324589,0,0,10.56696,39.64809,-0.06221641,-0.01569732,-0.03221305,-0.4426227,3.454179,0.02382517,-0.009341701,0.01993017,0.03470482,-0.9465668,1.601254,-0.03765257,0.3918495,1.349229,0.8125027,295.3969,119.889,255.6545
4,2.433334,0.04860836,-0.09654886,0.01367958,4.358982,2.591918,-2.473609,-1.322699,0.2498807,0,0,10.50831,40.32258,-0.07783491,-0.01472521,0.01372794,-0.4405358,3.454129,0.02543718,-0.02942467,0.02327122,0.05190757,-0.9452965,1.6018,-0.03683525,0.3916845,1.34862,0.8127501,295.4172,119.9093,255.8502
4,2.444445,0.04847015,-0.06825747,-0.02818605,4.360301,2.590279,-2.474534,-1.321131,0.1394067,0,0,10.50831,40.81134,-0.06692704,0.01713762,0.04035982,-0.4390386,3.457418,0.02271676,-0.04415306,0.03723539,0.0647903,-0.944114,1.603262,-0.03659609,0.3911294,1.348038,0.8133538,295.3244,119.8676,255.9379
4,2.455556,0.06018145,-0.07599229,-0.05687331,4.362403,2.590075,-2.475834,-1.317649,0.3151159,0,0,10.55719,41.1046,-0.03276803,0.08315168,0.03707445,-0.4386801,3.466083,0.01385563,-0.06007209,0.06712539,0.04995657,-0.9443164,1.605572,-0.03668291,0.390231,1.347348,0.8141397,295.2106,119.5874,255.9418
4,2.466667,0.05812496,-0.1083251,-0.08953896,4.3659,2.590818,-2.476281,-1.314309,0.3003697,0,0,10.63539,41.1046,-0.01708966,0.1236945,0.0008015521,-0.4394642,3.47089,0.009324259,-0.06873553,0.08417996,0.0201752,-0.9453673,1.607604,-0.03677772,0.3893914,1.346463,0.8150688,295.0723,118.998,256.0498
4,2.477778,0.03381974,-0.1844499,-0.1259521,4.371364,2.593305,-2.474885,-1.31178,0.2262507,0,0,10.71359,41.11437,-0.004332773,0.1503711,-0.0162349,-0.440841,3.479177,0.001281247,-0.06342809,0.08521469,0.01693605,-0.945305,1.608906,-0.03707466,0.3888264,1.345308,0.8159889,294.8705,118.2982,256.3352
4,2.488889,0.01358518,-0.1910086,-0.1354426,4.374181,2.593986,-2.473937,-1.307709,0.3677584,0,0,10.77224,40.99707,0.02775597,0.1662657,-0.003665838,-0.4404996,3.485037,-0.005735916,-0.06231264,0.07563289,0.02973099,-0.9443537,1.609348,-0.03672126,0.3885031,1.343823,0.8167701,294.6743,117.6314,256.8038
4,2.5,-0.03843507,-0.2530811,-0.1453499,4.379022,2.597047,-2.470369,-1.30247,0.4728877,0,0,10.81134,40.72336,0.03646159,0.1512778,0.02179489,-0.4390956,3.487506,-0.008736233,-0.0547139,0.06497471,0.05525248,-0.9426765,1.60978,-0.03666773,0.3883688,1.342072,0.81746,294.461,116.8198,257.5965
4,2.511111,-0.02246767,-0.2444125,-0.1369443,4.381398,2.598104,-2.470555,-1.298054,0.3968298,0,0,10.83089,40.30303,0.01530624,0.110752,0.0484848,-0.4374125,3.486224,-0.006814497,-0.052643,0.04579454,0.06165775,-0.9417263,1.609428,-0.03597505,0.3883005,1.340189,0.8180751,294.2245,115.8093,258.644
4,2.522222,0.03513062,-0.2555525,-0.1006619,4.383083,2.601171,-2.472483,-1.29183,0.5625558,0,0,10.82111,39.73607,-0.01983074,0.05431232,0.06139318,-0.4362998,3.482434,-0.001714543,-0.03587421,0.02117419,0.04558233,-0.9418557,1.608585,-0.03574095,0.3883286,1.33835,0.8187022,294.1115,114.7624,259.7769
4,2.533333,0.0669986,-0.2156781,-0.0691801,4.383071,2.602061,-2.474231,-1.290022,0.1571391,0,0,10.80156,39.01271,-0.05584772,0.008464679,0.09564392,-0.4338215,3.478084,0.004331898,-0.01907756,0.0008027097,0.02949394,-0.9421976,1.607471,-0.03558995,0.3882758,1.336752,0.819344,294.0081,113.6424,261.0194
4,2.544444,0.05089343,-0.1697448,-0.0536926,4.383062,2.602039,-2.474056,-1.287557,0.2205273,0,0,10.77224,38.13295,-0.07713764,-0.009629816,0.1010903,-0.4325149,3.476358,0.007491739,-0.02333429,0.009338738,0.02526069,-0.9419526,1.608006,-0.03526318,0.3880458,1.335396,0.8199639,293.9615,112.9884,261.7564
4,2.555555,0.01981325,-0.1014527,-0.03524568,4.381765,2.60083,-2.473473,-1.281224,0.5728394,0,0,10.74291,37.09678,-0.06141856,0.004294276,0.06584446,-0.4332185,3.477909,0.006142847,-0.02965888,0.02641977,0.02102688,-0.9418733,1.609321,-0.03546558,0.3873365,1.334026,0.8204885,294.0063,112.877,261.9242
4,2.566666,-0.01647822,-0.07035254,-0.00678208,4.380689,2.601243,-2.471642,-1.272864,0.7549911,0,0,10.71359,35.97263,-0.03818065,0.0235131,0.03695676,-0.4338252,3.480351,0.003386742,-0.03700737,0.04562936,0.0199897,-0.9417651,1.610781,-0.03568769,0.3863504,1.332501,0.8212528,294.0724,112.6668,262.0081
4,2.577777,-0.02392676,-0.06588949,0.01341816,4.380301,2.602291,-2.470714,-1.265687,0.6455659,0,0,10.69404,34.88758,-0.01288892,0.0459529,-0.001535968,-0.4353603,3.483691,-0.0004593953,-0.03277346,0.04666891,0.01569443,-0.9417396,1.611557,-0.03596279,0.385332,1.330771,0.8223308,294.0949,111.9192,262.4351
4,2.588888,-0.001510751,-0.07525145,0.02735497,4.380527,2.603988,-2.471174,-1.258664,0.6324731,0,0,10.67449,33.77322,-0.01620459,0.04812688,-0.01747839,-0.4360639,3.484921,-0.001279116,-0.02537275,0.03383946,0.01778302,-0.941493,1.611295,-0.03586506,0.3845352,1.328877,0.8236078,294.1524,110.6835,263.2694
4,2.599999,-0.003635876,-0.0785013,0.02313204,4.381067,2.604865,-2.470775,-1.253307,0.480125,0,0,10.64516,32.60997,-0.0321276,0.05239586,-0.01095167,-0.4359381,3.486733,-0.001882589,-0.02750261,0.02747151,0.02207191,-0.941045,1.611456,-0.03560859,0.3840036,1.326959,0.8249218,294.2707,109.194,264.5016
4,2.61111,-0.006876869,-0.06357169,0.02509729,4.380915,2.605102,-2.470433,-1.248339,0.4455732,0,0,10.60606,31.4174,-0.02438086,0.02883261,0.02940905,-0.4339078,3.485284,-0.000586428,-0.02012864,0.03378976,0.007084854,-0.9415915,1.612074,-0.03602751,0.3835742,1.325083,0.8261066,294.371,107.9562,265.6832
4,2.622221,-0.009100228,-0.03263936,0.02901644,4.379937,2.604634,-2.470389,-1.240401,0.717149,0,0,10.54741,30.20528,-0.01155367,0.008547718,0.03884054,-0.4331855,3.483669,0.0005169195,-0.01907296,0.04229754,-0.0003946422,-0.9419281,1.613135,-0.03649223,0.3830827,1.323179,0.827117,294.4242,107.1678,266.4858
4,2.633332,-0.01133915,0.003644002,0.03500384,4.378489,2.60369,-2.470456,-1.232976,0.6676762,0,0,10.48876,29.09091,-0.01379717,0.001128139,0.02604955,-0.4335237,3.483048,0.001343298,-0.02649795,0.03489403,0.009263398,-0.9414578,1.613203,-0.03587038,0.3825241,1.321204,0.8280226,294.4859,106.414,267.2129
4,2.644443,-0.01143794,0.04114776,0.05376413,4.376204,2.602982,-2.470513,-1.225803,0.6453537,0,0,10.41056,28.00587,-0.03190079,-0.006308328,0.02830322,-0.4331259,3.482139,0.00327409,-0.02229999,0.009325657,0.01991814,-0.9408096,1.612166,-0.03520299,0.3819786,1.319177,0.8289022,294.6016,105.5376,268.0144
4,2.655554,0.03976559,0.02554934,0.07412466,4.375215,2.604475,-2.472545,-1.218572,0.6508875,0,0,10.30303,26.90127,-0.05315071,-0.0009679645,0.03381436,-0.4324617,3.482538,0.004331365,-0.01176903,-0.009913789,0.01879678,-0.9406013,1.611003,-0.03482296,0.3814884,1.317095,0.8297145,294.7763,104.6023,268.8644
4,2.666665,0.06010067,-0.0009106547,0.08398604,4.374854,2.606261,-2.473456,-1.211464,0.6396396,0,0,10.16618,25.80645,-0.04996508,-0.02974316,0.03797469,-0.4318444,3.479295,0.007646202,-0.009770073,-0.01739633,0.008135614,-0.9409773,1.610537,-0.03447702,0.3811175,1.314979,0.8305292,295.0056,103.707,269.733
4,2.677776,0.06327617,0.00549718,0.08390513,4.374013,2.606644,-2.473873,-1.206938,0.4035657,0,0,10.02933,24.78006,-0.05002235,-0.0489048,0.03366254,-0.43165,3.476254,0.01090298,-0.00981258,-0.01208031,-0.001458537,-0.941372,1.610704,-0.03450445,0.3808391,1.312872,0.831392,295.2838,102.8557,270.6419
4,2.688887,0.06120344,-0.007155523,0.09576923,4.373059,2.60804,-2.474117,-1.198873,0.729108,0,0,9.912024,23.75367,-0.03419697,-0.05100621,0.0143566,-0.4322289,3.474756,0.01202471,-0.009819774,0.00281142,-0.01319764,-0.9419441,1.61137,-0.03479074,0.3803422,1.310669,0.8322028,295.4753,102.2857,271.3445
4,2.699998,0.04309139,-0.02367998,0.05229226,4.374586,2.608076,-2.473736,-1.190467,0.7572722,0,0,9.833823,22.70772,-0.004701667,-0.02215419,-0.03267626,-0.4344148,3.477028,0.008914932,-0.01277908,0.01671214,0.005982308,-0.9411579,1.612375,-0.03511111,0.3795089,1.308294,0.833048,295.6172,101.6223,272.0342
4,2.711109,0.03350498,-0.04240061,0.0003083218,4.37695,2.607775,-2.473831,-1.183437,0.6318253,0,0,9.765396,21.59335,0.01213627,0.03118149,-0.06888475,-0.4365432,3.482552,0.003115099,-0.02747691,0.0306672,0.0220609,-0.9402876,1.61336,-0.03490259,0.3784676,1.305759,0.8339879,295.7819,100.628,272.8566
4,2.72222,0.0006121248,-0.1015943,-0.04374226,4.380721,2.609258,-2.471969,-1.175522,0.7138749,0,0,9.706745,20.34213,0.02070452,0.1046944,-0.07620472,-0.4374844,3.491432,-0.0053431,-0.04115425,0.04248187,0.03600327,-0.9394503,1.614378,-0.03440271,0.3772852,1.303107,0.8349729,295.9351,99.44157,273.8011
4,2.733331,0.001846999,-0.1614453,-0.06118787,4.384414,2.611835,-2.471168,-1.169095,0.5773098,0,0,9.687196,19.18866,0.01768739,0.1440769,-0.06115304,-0.4375211,3.498654,-0.01198955,-0.05199584,0.03613262,0.01799387,-0.9398961,1.614654,-0.03352867,0.3761301,1.30039,0.8359655,295.9512,97.97845,274.944
4,2.744442,0.01259412,-0.1912375,-0.06085768,4.38659,2.614142,-2.471034,-1.161258,0.7074615,0,0,9.67742,18.36755,0.0001345426,0.1801517,0.001943819,-0.4351653,3.50669,-0.01868154,-0.04910649,0.02327949,-0.01077614,-0.9411457,1.614157,-0.03284051,0.3751546,1.297679,0.8368143,295.9067,96.40644,276.1938
4,2.755553,-0.005464047,-0.2116646,-0.07232971,4.389543,2.615972,-2.469746,-1.15624,0.4486611,0,0,9.667644,17.91789,-0.001703173,0.1661999,0.04133691,-0.4333549,3.509933,-0.02159451,-0.03873958,0.008268408,-0.03427081,-0.942318,1.613533,-0.03232865,0.374416,1.295151,0.8375326,295.9013,94.80491,277.621
4,2.766664,-0.02361277,-0.2043899,-0.083041,4.391675,2.616783,-2.468472,-1.150833,0.4867147,0,0,9.657869,17.85924,0.002800599,0.09896518,0.08373353,-0.4308366,3.506639,-0.01890312,-0.03673631,-0.01305621,-0.03425371,-0.9426323,1.612258,-0.03119494,0.3738188,1.292936,0.838109,295.9311,93.53355,278.8625
4,2.777775,-0.03536306,-0.1970347,-0.08843853,4.393818,2.617646,-2.467386,-1.143558,0.6570325,0,0,9.599218,18.23069,0.01125132,0.01265244,0.08983051,-0.4295913,3.500004,-0.01339091,-0.03234669,-0.01411585,-0.01723808,-0.9421348,1.612144,-0.03085751,0.3732858,1.291044,0.8386238,295.994,92.71053,279.7067
4,2.788886,-0.07380664,-0.1739447,-0.1088927,4.395926,2.617328,-2.46541,-1.137392,0.554484,0,0,9.550343,18.78788,0.01399237,-0.06073198,0.04593207,-0.4306246,3.492426,-0.006767092,-0.03101561,-0.01407718,0.01578034,-0.9407175,1.611951,-0.03040717,0.3728003,1.289452,0.8391066,295.9881,92.01213,280.3411
4,2.799997,-0.1068708,-0.1689525,-0.1291544,4.398726,2.617426,-2.463042,-1.132164,0.4700256,0,0,9.511242,19.45259,-0.001055727,-0.08837169,0.03319151,-0.4306928,3.488002,-0.002320412,-0.03200892,-0.01512688,0.02644823,-0.940016,1.611582,-0.02966548,0.372416,1.288106,0.8395208,295.9472,91.46231,280.7537
4,2.811108,-0.1675962,-0.1834851,-0.1736759,4.402998,2.617106,-2.459172,-1.125783,0.5761508,0,0,9.481916,20.17595,-0.0009409338,-0.07348946,0.04494973,-0.4297708,3.487322,-0.001699097,-0.03417001,-0.01299189,0.02113579,-0.9399494,1.611502,-0.02917253,0.3721653,1.28694,0.839873,295.8924,91.0309,281.0557
4,2.822219,-0.170669,-0.2317181,-0.1997692,4.407972,2.618397,-2.456791,-1.120484,0.4765105,0,0,9.481916,20.79179,0.02612709,-0.0001295656,0.08542161,-0.4273404,3.493801,-0.008959939,-0.04194943,-0.01087216,-0.02034717,-0.9416948,1.611555,-0.0284652,0.3721925,1.285938,0.8402453,295.843,90.50658,281.4552
4,2.83333,-0.1631242,-0.2615739,-0.2037065,4.412236,2.620089,-2.454819,-1.114184,0.5690969,0,0,9.530792,21.08505,0.0371297,0.02638057,0.1248195,-0.4247912,3.496563,-0.01224708,-0.02844131,-0.01633034,-0.05773235,-0.9435303,1.611186,-0.02831047,0.3725178,1.285118,0.8406275,295.7419,89.9472,281.971
4,2.844441,-0.1619881,-0.2795872,-0.1960553,4.41598,2.621627,-2.452698,-1.111623,0.2266155,0,0,9.63832,21.261,0.03306405,0.01778492,0.1514645,-0.4222319,3.495962,-0.01186252,-0.02111751,-0.03342939,-0.06203523,-0.9443856,1.609932,-0.02759408,0.3732156,1.284561,0.841099,295.5836,89.2468,282.6797
4,2.855552,-0.1693956,-0.293421,-0.1926994,4.419843,2.623198,-2.45013,-1.108138,0.3140913,0,0,9.814272,21.32943,0.0310625,-0.0142258,0.1737669,-0.4195539,3.493155,-0.009566873,-0.01377559,-0.0622219,-0.05459153,-0.9446158,1.607905,-0.02639672,0.3740718,1.284272,0.8414735,295.3623,88.80732,283.2261
4,2.866663,-0.2321561,-0.3289578,-0.2082171,4.425125,2.625262,-2.444996,-1.103838,0.3876664,0,0,10.02933,21.35875,0.01517139,-0.08245257,0.1982102,-0.4166169,3.485185,-0.001892442,0.001228776,-0.07825422,-0.03125344,-0.9441774,1.60623,-0.02584545,0.3748798,1.284164,0.8417335,295.1647,88.74007,283.4563
4,2.877774,-0.2992514,-0.3410718,-0.2250567,4.430043,2.626413,-2.439178,-1.09936,0.4034754,0,0,10.24438,21.56403,0.001465462,-0.112328,0.2216715,-0.4134659,3.479733,0.003514574,0.0110109,-0.08252852,-0.004692159,-0.9432943,1.60503,-0.02564358,0.3755589,1.284147,0.8420045,294.9884,88.80386,283.5221
4,2.888885,-0.3779871,-0.3765996,-0.2352323,4.435752,2.62868,-2.431833,-1.093117,0.5650712,0,0,10.46921,21.91594,-0.01020615,-0.1389664,0.2323431,-0.4106083,3.473818,0.009404954,0.01006502,-0.07824277,0.007026429,-0.9428778,1.604173,-0.02516181,0.3761029,1.284163,0.8424473,294.7833,88.71664,283.6639
4,2.899997,-0.4204903,-0.4130237,-0.2411734,4.441741,2.631289,-2.424993,-1.088449,0.4197463,0,0,10.69404,22.40469,-0.01769134,-0.1485395,0.2302407,-0.4082514,3.468845,0.01436722,0.01013383,-0.06439982,0.005944613,-0.9427888,1.60381,-0.0249927,0.3765855,1.284299,0.8431543,294.5456,88.11729,284.1796
4,2.911108,-0.4449126,-0.4386511,-0.2387316,4.447524,2.634076,-2.418487,-1.083961,0.4049925,0,0,10.91887,23.02053,-0.03162446,-0.1442235,0.21864,-0.4062738,3.465192,0.01848979,0.01637881,-0.0559458,-0.01861805,-0.9437487,1.603426,-0.0251975,0.3771369,1.284695,0.8440853,294.3039,87.29498,284.826
4,2.922219,-0.4660245,-0.4983054,-0.2327175,4.454247,2.638235,-2.411495,-1.081409,0.2279822,0,0,11.12415,23.62659,-0.05511809,-0.09941591,0.2040338,-0.4044276,3.465665,0.01954307,0.01845786,-0.03681735,-0.04103152,-0.9447207,1.603203,-0.02523105,0.3778043,1.285513,0.8451748,294.0333,86.48644,285.4713
4,2.93333,-0.4989915,-0.5165023,-0.2303492,4.460491,2.641433,-2.403845,-1.078866,0.2286634,0,0,11.27077,24.03715,-0.05719063,-0.07598031,0.2073102,-0.4019754,3.465543,0.02035987,0.02492239,-0.03151185,-0.03257378,-0.9449748,1.603454,-0.02583186,0.3785853,1.286825,0.8463876,293.6797,86.0348,285.8118
4,2.944441,-0.6728745,-0.4534242,-0.2574975,4.465289,2.640783,-2.390383,-1.075748,0.2811163,0,0,11.34897,24.24243,-0.06122375,-0.06646392,0.2339981,-0.3984238,3.463873,0.02263527,0.03569163,-0.02836761,-0.02094545,-0.9447223,1.603042,-0.02641403,0.3794739,1.288605,0.8478311,293.2575,86.02922,285.7681
4,2.955552,-0.7421486,-0.4374941,-0.2426895,4.470088,2.642552,-2.379484,-1.071809,0.3556315,0,0,11.36852,24.26198,-0.08207348,-0.01968971,0.2832999,-0.393497,3.467196,0.02125229,0.04217157,-0.02731681,-0.01034387,-0.9444821,1.602803,-0.02689287,0.380317,1.290753,0.849435,292.749,86.25994,285.472
4,2.966663,-0.8687856,-0.473923,-0.2240344,4.476043,2.646084,-2.364477,-1.062208,0.8730522,0,0,11.3392,24.11535,-0.08943462,0.004806906,0.2908866,-0.3899038,3.469348,0.02051113,0.05725328,-0.032693,0.01404162,-0.9435478,1.602194,-0.02767131,0.3811684,1.293192,0.8511761,292.2531,86.40532,285.0992
4,2.977774,-1.016429,-0.6063759,-0.2128121,4.48526,2.652634,-2.346724,-1.062234,-0.0112248,0,0,11.27077,23.84164,-0.101065,-0.0207915,0.3058268,-0.3860779,3.465904,0.02521268,0.07745326,-0.05198357,0.02242372,-0.9430871,1.600532,-0.02828623,0.3825631,1.296216,0.8532773,291.9438,85.85303,285.278
4,2.988885,-1.039729,-0.6490185,-0.2080507,4.492857,2.65713,-2.333696,-1.056673,0.507551,0,0,11.1828,23.43109,-0.08391556,-0.08053859,0.3310941,-0.3816475,3.45826,0.03264077,0.08280721,-0.04987426,0.02450928,-0.9427398,1.600108,-0.02905642,0.3843598,1.299899,0.8552797,291.4917,85.95738,284.9969
4,2.999996,-1.128667,-0.8195472,-0.1900684,4.504413,2.666486,-2.316126,-1.052088,0.4131418,0,0,11.08504,22.88368,-0.07621354,-0.1520478,0.3755846,-0.3763393,3.447015,0.04367477,0.07543434,-0.04875065,0.03415536,-0.9420016,1.599513,-0.02926281,0.3865468,1.304375,0.8574711,290.938,86.45948,284.5359
4,3.011107,-1.162525,-0.8975578,-0.2008799,4.515376,2.673065,-2.300914,-1.054008,-0.1802173,0,0,10.99707,22.24829,-0.08227661,-0.1670718,0.4203341,-0.3704207,3.440302,0.05110926,0.07002603,-0.0732095,0.04275608,-0.9412293,1.597521,-0.02855761,0.3888595,1.309816,0.8598915,290.1829,87.21013,283.9148
4,3.022218,-1.199598,-0.9670096,-0.2085848,4.526768,2.679948,-2.28513,-1.048715,0.4842024,0,0,10.94819,21.66178,-0.1010274,-0.2204767,0.482128,-0.3633457,3.427792,0.06433319,0.06458807,-0.09022515,0.04176191,-0.9407776,1.595532,-0.02789235,0.3908162,1.315946,0.8620092,289.2618,89.09704,282.1161
4,3.033329,-1.227248,-0.9852817,-0.2147403,4.537098,2.685488,-2.269666,-1.047675,0.0888361,0,0,10.92864,21.08505,-0.1294528,-0.2546567,0.5312624,-0.3562271,3.415075,0.07861704,0.05617948,-0.07738214,0.0471362,-0.9400852,1.595135,-0.0279022,0.3923526,1.3227,0.8643215,288.2629,91.06706,280.1159
4,3.04444,-1.258229,-0.964308,-0.2351842,4.546868,2.689258,-2.254258,-1.0449,0.2517196,0,0,10.92864,20.51808,-0.1963313,-0.2226662,0.5553209,-0.3493572,3.409162,0.08858047,0.04789614,-0.06771358,0.06955913,-0.9385347,1.594699,-0.02789422,0.3933351,1.329793,0.8666711,287.1628,93.52146,277.3977
4,3.055551,-1.300904,-0.954087,-0.2618851,4.557247,2.692672,-2.237876,-1.042352,0.2289008,0,0,10.93842,19.9609,-0.2226755,-0.2056683,0.5886048,-0.3420356,3.402368,0.09824242,0.03841421,-0.06869508,0.08348777,-0.9370759,1.593825,-0.02749474,0.3939458,1.337017,0.8692048,286.1181,96.06851,274.3603
4,3.066662,-1.370119,-0.9802917,-0.2998675,4.569309,2.696288,-2.219912,-1.039518,0.2555254,0,0,10.94819,19.41349,-0.2049679,-0.1920791,0.6705352,-0.3320424,3.393747,0.1081235,0.0237401,-0.02919009,0.08460592,-0.9362924,1.595082,-0.02805054,0.3943995,1.344168,0.8719305,285.1565,98.785,271.04
4,3.077773,-1.401888,-1.053276,-0.3395016,4.58364,2.700771,-2.20274,-1.035875,0.3291826,0,0,10.92864,18.90518,-0.1560605,-0.1846525,0.6573814,-0.3255304,3.38602,0.1154368,0.004794332,-0.007752103,0.09751108,-0.9347807,1.595957,-0.02796692,0.3949676,1.35105,0.8747907,284.2492,101.6354,267.5439
4,3.088884,-1.364354,-1.146298,-0.378989,4.599656,2.70576,-2.188262,-1.031689,0.3781932,0,0,10.90909,18.41642,-0.09795085,-0.1483433,0.5899043,-0.3216454,3.383302,0.1169865,-0.02263605,0.01267898,0.1147412,-0.933047,1.597009,-0.02754002,0.3958301,1.357563,0.8776175,283.3495,104.3277,264.2734
4,3.099995,-1.313096,-1.19436,-0.4051542,4.614732,2.709864,-2.175083,-1.029956,0.1536502,0,0,10.86999,17.92766,-0.09071088,-0.120575,0.5590231,-0.3167031,3.380129,0.1210646,-0.02771145,0.02658305,0.1360697,-0.9307886,1.597879,-0.02755599,0.3970858,1.36376,0.8803498,282.4155,106.7947,261.4155
4,3.111106,-1.217152,-1.225274,-0.4326119,4.6301,2.713581,-2.164481,-1.030188,-0.02421593,0,0,10.83089,17.43891,-0.1273148,-0.0905448,0.5050627,-0.3132069,3.379106,0.1247848,-0.05272631,0.05343878,0.185238,-0.9270607,1.599896,-0.02729687,0.3986413,1.369714,0.8829616,281.4346,109.6592,258.4277
4,3.122217,-1.134029,-1.241187,-0.450627,4.644953,2.716964,-2.15443,-1.028773,0.1276113,0,0,10.79179,16.95992,-0.1857418,-0.05107561,0.5194809,-0.3067583,3.379016,0.1291873,-0.07048102,0.07595716,0.213044,-0.9238756,1.601976,-0.02715865,0.4002194,1.375299,0.8853428,280.4994,113.7004,254.4395
4,3.133328,-1.055197,-1.246427,-0.4645038,4.659658,2.720034,-2.14507,-1.028224,0.04675657,0,0,10.77224,16.48094,-0.1927884,0.01381582,0.5591374,-0.2987912,3.384038,0.1267345,-0.1008592,0.1166733,0.2473219,-0.9200684,1.605564,-0.02715732,0.4017219,1.380433,0.8876452,279.724,118.2621,249.9344
4,3.144439,-1.019042,-1.233641,-0.4753261,4.673686,2.722404,-2.1348,-1.025574,0.2394928,0,0,10.76246,16.02151,-0.1832417,0.05110782,0.548508,-0.2930148,3.387732,0.1249377,-0.1186406,0.1349252,0.2751322,-0.9162169,1.608166,-0.02679326,0.4030419,1.38495,0.8899168,279.0341,123.1986,245.0047
4,3.15555,-0.9391682,-1.234725,-0.499902,4.688665,2.724363,-2.127092,-1.022721,0.2562515,0,0,10.77224,15.58162,-0.1866804,0.06079391,0.515536,-0.2885524,3.389283,0.1255944,-0.1238394,0.1349839,0.2911544,-0.9125183,1.610145,-0.02646916,0.4041891,1.388805,0.8923687,278.3868,127.7741,240.3793
4,3.166661,-0.8848557,-1.236931,-0.5222999,4.703818,2.726103,-2.119242,-1.018288,0.400745,0,0,10.80156,15.17107,-0.2455016,0.03536922,0.4914359,-0.2839409,3.384407,0.1350947,-0.1362454,0.1446968,0.3306558,-0.9075297,1.612555,-0.02604891,0.4051451,1.391959,0.8950194,277.731,131.9946,236.0356
4,3.177772,-0.7868457,-1.24981,-0.5574188,-1.563049,2.727377,-2.114004,-1.017197,0.09399074,0,0,10.83089,14.79961,-0.3340063,0.1218613,0.4646752,-0.2791632,3.397727,0.1291689,-0.1529316,0.168276,0.3573922,-0.9026204,1.616289,-0.02609365,0.406027,1.394569,0.8979876,277.0151,135.4277,232.4052
4,3.188883,-0.6867303,-1.238817,-0.5555238,-1.548495,2.729208,-2.110084,-1.013884,0.300052,0,0,10.86022,14.46725,-0.3370442,0.309407,0.4502955,-0.2735983,3.432282,0.09981741,-0.1799912,0.2175018,0.4012136,-0.8967955,1.621776,-0.02648221,0.4068289,1.396637,0.901082,276.2444,139.6712,227.9451
4,3.199994,-0.5504818,-1.188896,-0.511471,-1.536423,2.73174,-2.108345,-1.013045,0.07178137,0,0,10.89932,14.1349,-0.262179,0.4701303,0.4576059,-0.267417,3.470395,0.06352358,-0.1851837,0.2271251,0.4108262,-0.8920578,1.625402,-0.02651976,0.4076367,1.398267,0.9043136,275.4444,144.6116,222.788
4,3.211105,-0.501565,-1.151149,-0.4831781,-1.523954,2.733903,-2.104197,-1.011195,0.1663793,0,0,10.93842,13.79277,-0.2109456,0.6597466,0.4342856,-0.262837,3.520479,0.01597071,-0.1626849,0.2323377,0.4234206,-0.8870127,1.629091,-0.02767743,0.408455,1.399395,0.9075346,274.7303,151.9687,215.2405
4,3.222216,-0.4612482,-1.088904,-0.4540873,-1.51327,2.735534,-2.100561,-1.009968,0.1083308,0,0,10.97752,13.44086,-0.1948881,0.7406912,0.4311796,-0.2582435,3.562778,-0.02295991,-0.1252967,0.2204314,0.4444408,-0.8814365,1.631975,-0.02934644,0.4092515,1.399953,0.910625,274.2125,159.397,207.6626
4,3.233327,-0.4613448,-1.057989,-0.4523009,-1.501427,2.736647,-2.095463,-1.004577,0.4899398,0,0,11.01662,13.0694,-0.1640898,0.7204286,0.4223604,-0.2540549,3.591705,-0.05016996,-0.1177347,0.2299813,0.4507566,-0.8762966,1.635874,-0.03067802,0.4099591,1.399885,0.9135528,273.8177,165.7509,201.2171
4,3.244438,-0.4112912,-1.052499,-0.4513493,-1.488577,2.738118,-2.092252,-1.002094,0.2212475,0,0,11.04594,12.7566,-0.1709799,0.5586002,0.3900099,-0.2507648,3.594401,-0.05067516,-0.139593,0.2802074,0.4774916,-0.8703461,1.642324,-0.032465,0.4106205,1.399428,0.9165075,273.2299,171.549,195.3214
4,3.255549,-0.3271426,-1.045742,-0.4419268,-1.476138,2.74,-2.091564,-0.9984627,0.3291075,0,0,11.09482,12.53177,-0.2391075,0.382128,0.2952443,-0.2504948,3.5877,-0.03910479,-0.1637947,0.2931703,0.5053632,-0.8639252,1.647292,-0.03304157,0.4112425,1.398815,0.9194019,272.6113,179.9664,186.7863
4,3.26666,-0.04462981,-1.094461,-0.4001357,-1.462684,2.744632,-2.101089,-0.9982615,0.01458965,0,0,11.13392,12.39492,-0.2886999,0.293956,0.2367926,-0.2497789,3.591232,-0.03772714,-0.1627584,0.2846428,0.5085649,-0.8582335,1.651296,-0.03385703,0.4118828,1.398331,0.9223035,272.0927,195.3979,171.2496
4,3.277771,0.06282353,-1.063446,-0.4208441,-1.450608,2.745324,-2.105161,-0.9991845,-0.08540593,0,0,11.17302,12.35582,-0.3113653,0.1821719,0.2217414,-0.2477363,3.583599,-0.025985,-0.1529332,0.306965,0.5212394,-0.8521503,1.656929,-0.03618037,0.4125076,1.398086,0.925189,272.0109,217.4835,149.0972
4,3.288882,0.0999217,-0.9958952,-0.3918101,-1.441047,2.747078,-2.107447,-1.007325,-0.7449005,0,0,11.21212,12.35582,-0.3049599,0.1430915,0.0948097,-0.2508,3.584335,-0.02364594,-0.1490923,0.3570804,0.5658762,-0.844564,1.664772,-0.03968589,0.4130056,1.39793,0.9279709,272.4026,232.6259,133.955
4,3.299993,0.1092681,-0.9178878,-0.3735123,-1.432694,2.74789,-2.108968,-1.000982,0.5845848,0,0,11.23167,12.37537,-0.3065973,0.2136301,0.009790245,-0.2535681,3.602812,-0.03792235,-0.1540861,0.3720627,0.595722,-0.8371477,1.671393,-0.04221057,0.4131386,1.397002,0.9304386,273.3185,235.6582,130.9272
4,3.311104,0.1078069,-0.7778286,-0.3281977,-1.428064,2.748104,-2.110158,-0.9963408,0.4175186,0,0,11.24145,12.42424,-0.272616,0.4086716,-0.041075,-0.2563532,3.64688,-0.07863436,-0.1442232,0.3571468,0.6414784,-0.8285925,1.676518,-0.0442865,0.4132317,1.395037,0.9331264,273.9346,239.5474,126.8347
4,3.322215,0.1161583,-0.7168144,-0.3043754,-1.421505,2.749076,-2.111802,-0.9938774,0.2211165,0,0,11.2219,12.46334,-0.1956221,0.6216131,-0.04321976,-0.2581317,3.700012,-0.1302629,-0.1225564,0.3539,0.6881657,-0.8196986,1.682099,-0.04751399,0.4134435,1.392164,0.93612,274.0818,247.0297,119.0839
4,3.333326,0.1404824,-0.6459512,-0.2615136,-1.416425,2.750409,-2.114382,-0.9923838,0.1342588,0,0,11.1828,12.42424,-0.1241714,0.724872,-0.05414574,-0.2608444,3.743801,-0.1736887,-0.1158253,0.3645517,0.7232544,-0.8106918,1.688778,-0.05095533,0.4138928,1.388716,0.9393683,274.0238,258.2854,107.5957
4,3.344437,0.1882716,-0.5814364,-0.2218042,-1.411813,2.751829,-2.118286,-0.9917591,0.05559409,0,0,11.1437,12.34604,-0.04453707,0.7973274,-0.1025142,-0.265752,3.783129,-0.2138367,-0.1306302,0.3752837,0.7297531,-0.8026421,1.695551,-0.05358386,0.4145833,1.385018,0.9427051,273.9372,270.7743,95.0144
4,3.355548,0.2286305,-0.5308719,-0.1893908,-1.407757,2.753227,-2.12248,-0.9918395,-0.008264559,0,0,11.1046,12.24829,-0.07489306,0.7954146,-0.1672606,-0.2716419,3.811484,-0.2390909,-0.1295539,0.3763522,0.7308034,-0.7946692,1.702103,-0.05673092,0.4154237,1.381415,0.9460539,274.0872,283.4775,82.34145
4,3.366659,0.3072349,-0.4417173,-0.1468046,-1.405818,2.754091,-2.128663,-0.9924163,-0.05319155,0,0,11.05572,12.17009,-0.1795363,0.7743443,-0.1941883,-0.276353,3.837501,-0.2585762,-0.1219454,0.3848418,0.7445794,-0.7861193,1.709147,-0.06055522,0.4162198,1.378011,0.9491367,274.3407,292.1653,73.7557
4,3.37777,0.347566,-0.3925635,-0.1452659,-1.402651,2.754311,-2.133873,-0.992002,0.03778219,0,0,11.01662,12.16031,-0.2039503,0.7626155,-0.1801639,-0.2797875,3.864125,-0.2811009,-0.1250539,0.3795281,0.7573963,-0.7776724,1.71539,-0.06363597,0.4168709,1.374843,0.951924,274.5762,297.1638,68.85059
4,3.388881,0.4038125,-0.324142,-0.1397034,-1.400746,2.753923,-2.140092,-0.9932216,-0.1123965,0,0,10.97752,12.19941,-0.1720319,0.7391376,-0.1815536,-0.2839745,3.887489,-0.3029295,-0.1324367,0.3753383,0.7702401,-0.7690495,1.721916,-0.06656971,0.4173641,1.371875,0.9544978,274.7457,299.5617,66.50023
4,3.399992,0.4197196,-0.3061833,-0.1580383,-1.397024,2.753438,-2.145295,-0.9916893,0.1405092,0,0,10.93842,12.30694,-0.1358167,0.7433329,-0.1807536,-0.2884225,3.912887,-0.3269805,-0.111932,0.3837571,0.7956416,-0.7596576,1.7293,-0.07141399,0.4177386,1.368902,0.9569259,274.8116,299.4218,66.63647
4,3.411103,0.3909131,-0.2967795,-0.165568,-1.393165,2.753401,-2.14854,-0.9918485,-0.01639726,0,0,10.88954,12.46334,-0.1293715,0.7646227,-0.1786193,-0.2933243,3.941252,-0.3529341,-0.07507246,0.394311,0.8666999,-0.7480218,1.737592,-0.07796777,0.4181701,1.36583,0.9594641,274.9485,299.6722,66.29566
4,3.422215,0.3695524,-0.2775861,-0.158305,-1.39032,2.75341,-2.151916,-0.9902187,0.1487874,0,0,10.83089,12.66862,-0.1625777,0.7242121,-0.1923143,-0.2979987,3.958857,-0.3667485,-0.06059987,0.4273264,0.9208621,-0.7365435,1.747502,-0.08505125,0.4188112,1.362559,0.9622144,275.113,300.2223,65.65123
4,3.433326,0.3545088,-0.2294214,-0.1332582,-1.389126,2.753473,-2.155331,-0.9875054,0.2464219,0,0,10.74291,12.86413,-0.1808305,0.7136118,-0.2071009,-0.3031689,3.978449,-0.3827713,-0.07209595,0.4604116,0.9241086,-0.7268667,1.758095,-0.09164523,0.4197417,1.359023,0.9652578,275.3619,301.8895,63.96427
4,3.444437,0.3416006,-0.1845182,-0.1156361,-1.388366,2.753157,-2.158651,-0.9870783,0.03686361,0,0,10.66471,12.96188,-0.1817833,0.7231678,-0.1942824,-0.3079839,4.002104,-0.4033584,-0.07322375,0.456154,0.9198602,-0.7174023,1.766802,-0.09729593,0.4209045,1.35536,0.9685706,275.6739,306.0677,59.85981
4,3.455548,0.3128043,-0.1772286,-0.1220781,-1.385908,2.752794,-2.161064,-0.9869456,0.01188823,0,0,10.59628,12.94233,-0.1623136,0.7507255,-0.1591826,-0.312017,4.028943,-0.4278411,-0.06904525,0.4358777,0.9241254,-0.7073878,1.774344,-0.1024422,0.4221824,1.351756,0.9720023,275.9778,311.1439,54.91914
4,3.466659,0.2479364,-0.2203034,-0.1449677,-1.381109,2.752857,-2.161551,-0.9867907,0.01404281,0,0,10.53763,12.80547,-0.1588513,0.7943324,-0.1345734,-0.3169625,4.058496,-0.4543976,-0.06696096,0.4326681,0.9209154,-0.6978409,1.783199,-0.1085433,0.423449,1.348326,0.975442,276.193,315.6194,50.61425
4,3.47777,0.2054111,-0.2579422,-0.1636711,-1.376214,2.753224,-2.162372,-0.9858032,0.0900999,0,0,10.51809,12.57087,-0.1715273,0.8326859,-0.1300953,-0.3228582,4.086766,-0.478973,-0.05004607,0.4165745,0.9154792,-0.6883616,1.791249,-0.1148355,0.4246548,1.345135,0.9788734,276.3788,318.5749,47.80316
4,3.488881,0.212845,-0.2449689,-0.1489082,-1.373765,2.753528,-2.165159,-0.9837488,0.1871041,0,0,10.52786,12.22874,-0.1860958,0.7942215,-0.08107629,-0.3257738,4.108657,-0.4972572,-0.03191309,0.3973225,0.9334695,-0.677864,1.799184,-0.1212678,0.4257478,1.342188,0.9822578,276.6457,319.6698,46.80932
4,3.499992,0.2265032,-0.174344,-0.1252204,-1.373735,2.752709,-2.168082,-0.9840066,-0.02497355,0,0,10.53763,11.84751,-0.1676126,0.7929904,-0.03327924,-0.3289004,4.134155,-0.5202243,-0.03616424,0.3962815,0.9367021,-0.6680412,1.808169,-0.1276544,0.4267723,1.339622,0.9858006,277.0361,319.9636,46.55842
4,3.511103,0.2029311,-0.1339796,-0.1288399,-1.372684,2.751492,-2.169272,-0.9862218,-0.201985,0,0,10.52786,11.44673,-0.1480731,0.8141525,0.008179963,-0.332632,4.162351,-0.5460348,-0.05425051,0.4070286,0.9336405,-0.6586013,1.818202,-0.1341938,0.4276713,1.337512,0.9894306,277.3718,320.0435,46.49782
4,3.522214,0.1656051,-0.126796,-0.142727,-1.370525,2.750427,-2.169597,-0.9868476,-0.05552064,0,0,10.50831,11.06549,-0.1489395,0.8172841,0.0326919,-0.3365873,4.187731,-0.5683205,-0.04667643,0.4016865,0.9516942,-0.648239,1.827548,-0.1414226,0.4284188,1.335743,0.9929065,277.4658,319.7855,46.70126
4,3.533325,0.1090696,-0.112349,-0.1683896,-1.368343,2.748595,-2.16852,-0.9852077,0.1502611,0,0,10.43988,10.77224,-0.1819332,0.7640337,0.04557881,-0.3393442,4.20571,-0.582159,-0.01573454,0.3855491,0.9695793,-0.6375554,1.836327,-0.1494268,0.4291444,1.334162,0.9962413,277.3693,319.0691,47.33678
4,3.544436,0.05042201,-0.1054214,-0.1992988,-1.365802,2.746362,-2.166783,-0.9841989,0.09087398,0,0,10.35191,10.59628,-0.2279858,0.6949201,0.02764639,-0.3424671,4.21815,-0.5896694,0.003405035,0.3630572,0.9790521,-0.6271931,1.844252,-0.1566767,0.4299929,1.332685,0.9996762,277.3325,317.8898,48.48244
4,3.555547,0.00260219,-0.140666,-0.1935235,-1.362393,2.746456,-2.165235,-0.9830852,0.1013208,0,0,10.25415,10.52786,-0.2531207,0.5871684,0.1010503,-0.3410966,4.231647,-0.5988097,0.001553819,0.3631191,1.014224,-0.6155455,1.854529,-0.164928,0.4310488,1.331293,1.003302,277.4328,316.5718,49.77872
4,3.566658,-0.04949021,-0.1792825,-0.201555,-1.358163,2.746229,-2.162952,-0.9827325,0.03172641,0,0,10.1564,10.56696,-0.2425385,0.5456094,0.09978423,-0.3427856,4.244734,-0.6088409,-0.04913935,0.3943435,1.046553,-0.6037573,1.867658,-0.1732189,0.4324039,1.330039,1.007204,277.5876,315.743,50.60534
4,3.577769,-0.1336286,-0.1793235,-0.1812133,-1.355829,2.746169,-2.158495,-0.9828162,-0.007541568,0,0,10.05865,10.67449,-0.2404679,0.5701554,0.08705303,-0.3468895,4.263065,-0.6235174,-0.1025931,0.4223014,1.006462,-0.595274,1.880489,-0.1806159,0.4340354,1.329002,1.011288,277.7576,315.4915,50.95616
4,3.58888,-0.1730182,-0.1814039,-0.1651624,-1.353438,2.74626,-2.155402,-0.9825637,0.02342459,0,0,10,10.80156,-0.2379695,0.7000647,0.1087024,-0.3526829,4.295651,-0.6516321,-0.09707561,0.3859278,0.9244395,-0.5885751,1.888124,-0.1861198,0.4356667,1.328153,1.015345,277.9079,315.155,51.55482
4,3.599991,-0.1803971,-0.2091917,-0.1712356,-1.34953,2.746266,-2.153164,-0.9808038,0.1610637,0,0,9.970675,10.92864,-0.211835,0.7509856,0.1725602,-0.3557456,4.325721,-0.6783242,-0.06584825,0.3366776,0.8699122,-0.5814101,1.894318,-0.1916871,0.4371348,1.327533,1.019372,278.075,314.713,52.23911
4,3.611102,-0.03421432,-0.293163,-0.1960391,-1.34293,2.747141,-2.158059,-0.9824731,-0.1535935,0,0,9.951125,11.05572,-0.2137627,0.7391952,0.2002459,-0.3582149,4.348409,-0.6972129,-0.07444598,0.360129,0.8443816,-0.5738676,1.906092,-0.2003621,0.4383295,1.327321,1.02339,278.1935,314.9094,52.20966
4,3.622213,-0.01505631,-0.2909823,-0.1971489,-1.339144,2.746909,-2.158367,-0.9839997,-0.1377752,0,0,9.951125,11.16325,-0.2598814,0.7063307,0.1674935,-0.3619827,4.364222,-0.7074717,-0.09015714,0.4102804,0.8401799,-0.5660394,1.920993,-0.2113322,0.4391302,1.327511,1.027225,278.2673,313.7804,53.42627
4,3.633324,-0.04292741,-0.2400043,-0.2030117,-1.337158,2.745222,-2.156293,-0.9911593,-0.6534824,0,0,9.931575,11.25122,-0.33906,0.6937904,0.1244082,-0.3668808,4.379135,-0.7148774,-0.08687837,0.4283723,0.8347994,-0.5582588,1.934595,-0.2220938,0.4395427,1.327948,1.03092,278.3738,310.7313,56.50339
4,3.644435,-0.04721448,-0.2227329,-0.1818981,-1.334927,2.745018,-2.155622,-0.9873286,0.3555377,0,0,9.921799,11.32942,-0.3552979,0.7318814,0.2226549,-0.3688174,4.410179,-0.7392607,-0.06585884,0.4271393,0.8005403,-0.5517537,1.946635,-0.2323235,0.4396165,1.328047,1.034369,278.5014,304.8378,62.29498
4,3.655546,-0.08328998,-0.2675468,-0.177095,-1.329977,2.746114,-2.153629,-0.9845648,0.2488927,0,0,9.902249,11.38807,-0.3168508,0.6582622,0.2477024,-0.3696446,4.427371,-0.7532725,-0.05010067,0.408945,0.7876564,-0.5443491,1.958014,-0.2418763,0.4396993,1.327603,1.038005,278.5807,301.0629,65.81215
4,3.666657,-0.1099409,-0.2655309,-0.1802874,-1.326476,2.745579,-2.151252,-0.9854292,-0.08077066,0,0,9.892473,11.4174,-0.3289592,0.5031971,0.09075603,-0.3731813,4.420655,-0.7429013,-0.05778725,0.4195882,0.7514818,-0.5386728,1.970897,-0.251987,0.4400415,1.326777,1.041967,278.688,300.4243,66.17233
4,3.677768,-0.1631145,-0.2890459,-0.1714478,-1.322074,2.746435,-2.147917,-0.9840668,0.1255266,0,0,9.882699,11.43695,-0.325788,0.4627029,0.0959391,-0.3749805,4.43135,-0.7492175,-0.08779925,0.4804015,0.6823857,-0.5354764,1.987807,-0.2644298,0.4406323,1.325611,1.046015,278.8854,300.6637,65.79807
4,3.688879,-0.1779434,-0.3090985,-0.1499014,-1.318055,2.74786,-2.145852,-0.9840971,-0.003769066,0,0,9.892473,11.4565,-0.2597169,0.4689929,0.09756908,-0.37742,4.446411,-0.7626305,-0.08384311,0.4739384,0.6493348,-0.5307973,2.00084,-0.2747991,0.4413215,1.324184,1.050006,279.219,301.5253,64.93431
4,3.69999,-0.1874611,-0.3239133,-0.1380088,-1.313937,2.749206,-2.143847,-0.9830968,0.09184968,0,0,9.912024,11.44673,-0.2693923,0.4267895,-0.04096249,-0.383541,4.444136,-0.7570651,-0.07684647,0.4440294,0.6163015,-0.5260404,2.011741,-0.2835422,0.4421289,1.322747,1.05393,279.563,302.6606,63.77339
4,3.711101,-0.1789138,-0.3257971,-0.1177584,-1.310348,2.750727,-2.142406,-0.9843906,-0.1188806,0,0,9.941349,11.39785,-0.2446851,0.3637945,-0.002982423,-0.3840885,4.449833,-0.760341,-0.08133434,0.4397607,0.5886399,-0.5220547,2.024104,-0.2933131,0.4429069,1.321445,1.057607,279.8538,303.6547,62.8238
4,3.722212,-0.1619369,-0.3011214,-0.1074032,-1.307722,2.751338,-2.141311,-0.9848514,-0.04088869,0,0,9.970675,11.31965,-0.2265765,0.3349962,0.003204703,-0.385467,4.457497,-0.7655385,-0.07274379,0.4397362,0.5970922,-0.5168034,2.038063,-0.3048361,0.4434741,1.320356,1.060919,280.0803,304.0032,62.566
4,3.733323,-0.1448774,-0.3019839,-0.09356522,-1.304488,2.752701,-2.140538,-0.9855368,-0.06231346,0,0,10.00978,11.19257,-0.2110603,0.3052985,-0.05026537,-0.3890378,4.457381,-0.7636018,-0.05150858,0.4278923,0.5969365,-0.5118271,2.050478,-0.3157921,0.4437489,1.3195,1.063873,280.269,303.6399,62.98498
4,3.744434,-0.1299769,-0.2877408,-0.0628456,-1.302394,2.754512,-2.140005,-0.9862447,-0.06419487,0,0,10.0391,11.07527,-0.2230272,0.2233355,-0.06638128,-0.3899033,4.454697,-0.7581812,-0.02825856,0.4149806,0.5860973,-0.5074168,2.062765,-0.3269044,0.4436778,1.318796,1.066401,280.4037,302.5211,64.07186
4,3.755545,-0.1183385,-0.2587939,-0.04933288,-1.30068,2.755492,-2.139254,-0.9864274,-0.016203,0,0,10.06843,10.91887,-0.2699397,0.1349546,-0.05454584,-0.3888354,4.451442,-0.7504511,-0.01033589,0.3999411,0.57319,-0.5031627,2.074317,-0.3375432,0.4434592,1.318243,1.068864,280.5014,300.8328,65.61911
4,3.766656,-0.1152464,-0.2257051,-0.04544286,-1.299394,2.755887,-2.138161,-0.9865089,-0.007414789,0,0,10.0782,10.70381,-0.3245173,0.1052868,-0.07976407,-0.3902218,4.448521,-0.7419873,0.02271192,0.3614369,0.6049549,-0.4965229,2.085053,-0.3483263,0.4431609,1.317707,1.071375,280.5861,298.9012,67.40961
4,3.777767,-0.1205348,-0.2352614,-0.04107156,-1.296714,2.757222,-2.137034,-0.9864578,0.004689579,0,0,10.0782,10.43988,-0.2693459,0.1944452,0.01061972,-0.391653,4.465292,-0.7565684,0.02691489,0.3592784,0.5995989,-0.4918161,2.097847,-0.359955,0.4427908,1.317069,1.073921,280.6358,297.3038,68.87524
4,3.788878,-0.108769,-0.239177,-0.0133402,-1.294794,2.759527,-2.13685,-0.9862133,0.02227638,0,0,10.05865,10.14663,-0.1766803,0.2550714,-0.002719,-0.3953431,4.474731,-0.7666698,0.0223732,0.3220039,0.5922365,-0.4867491,2.10741,-0.3684246,0.4424109,1.316253,1.076469,280.7054,296.1138,69.89734
4,3.799989,-0.08523917,-0.2688654,-0.007708538,-1.291573,2.761816,-2.137202,-0.9858751,0.03070096,0,0,10.04888,9.804497,-0.1603096,0.2563687,-0.08912487,-0.4002928,4.472095,-0.762859,0.02096939,0.2953562,0.5709733,-0.4824114,2.116751,-0.3768072,0.4421006,1.315223,1.078912,280.8145,295.2926,70.52737
4,3.8111,-0.03822541,-0.3134695,-0.008334182,-1.287266,2.764454,-2.138981,-0.9865004,-0.05741706,0,0,10.0391,9.41349,-0.1700972,0.2582029,0.02068657,-0.3994971,4.484754,-0.7722765,0.00898701,0.276223,0.5519218,-0.4782622,2.126053,-0.3847863,0.4418711,1.313996,1.081273,280.9657,294.9529,70.73638
4,3.822211,0.01718861,-0.321884,-0.01470234,-1.283854,2.766293,-2.141456,-0.987049,-0.04970262,0,0,10.02933,8.963832,-0.2666495,0.2404935,-0.06061348,-0.403095,4.484008,-0.7653579,-0.01681744,0.2603695,0.5361666,-0.4742264,2.135259,-0.391755,0.4416182,1.312583,1.083472,281.087,295.0629,70.58475
4,3.833322,0.04484752,-0.3166716,-0.03290719,-1.280607,2.767277,-2.143098,-0.9882746,-0.1117486,0,0,10.02933,8.426197,-0.2747071,0.3149481,-0.01559211,-0.4063142,4.497151,-0.7741021,-0.04498981,0.2231976,0.5034227,-0.4706615,2.141108,-0.3954597,0.4412681,1.310993,1.085554,281.2729,295.2818,70.36914
4,3.844433,0.08311886,-0.3040922,-0.06186622,-1.277124,2.767392,-2.145226,-0.9890506,-0.0702685,0,0,10.0391,7.888563,-0.2026467,0.4520892,0.04602891,-0.4114573,4.519856,-0.7953698,-0.04471276,0.2477249,0.5204309,-0.4661283,2.15406,-0.4065893,0.4407534,1.309155,1.087421,281.527,295.374,70.21969
4,3.855544,0.104349,-0.2816892,-0.06533953,-1.274706,2.767976,-2.147223,-0.9882016,0.07791994,0,0,10.05865,7.399805,-0.1408428,0.4306769,0.05188739,-0.4136225,4.527642,-0.8031197,-0.03582719,0.2807314,0.5416152,-0.461684,2.168925,-0.4198031,0.4401893,1.307075,1.089144,281.765,295.5247,69.89151
4,3.866655,0.1010841,-0.26699,-0.08361398,-1.271865,2.768063,-2.148177,-0.9885206,-0.03008756,0,0,10.06843,6.969697,-0.08216314,0.3676704,0.07468049,-0.4137391,4.533256,-0.8095996,-0.04964063,0.3297642,0.5107552,-0.4596376,2.184092,-0.4323892,0.4397603,1.304836,1.090942,282.003,295.9566,69.23675
4,3.877766,0.09473968,-0.2851994,-0.09086667,-1.267985,2.76906,-2.149279,-0.9880115,0.04664595,0,0,10.0782,6.598241,-0.1306901,0.3718393,0.1347592,-0.4143708,4.547902,-0.8196054,-0.05940206,0.3468153,0.4788462,-0.4576413,2.196844,-0.4426949,0.4396108,1.302503,1.092782,282.2636,296.6321,68.33909
4,3.888877,0.0937278,-0.297868,-0.08007224,-1.26453,2.770762,-2.150798,-0.9868231,0.1080753,0,0,10.06843,6.314761,-0.1722417,0.3879075,0.1319509,-0.4170382,4.559429,-0.826626,-0.07419174,0.3403331,0.3649792,-0.4588957,2.20453,-0.448348,0.4397984,1.300168,1.094703,282.4652,297.657,67.19706
4,3.899988,0.09587809,-0.2987579,-0.06516231,-1.261608,2.772336,-2.152434,-0.9864434,0.03371381,0,0,10.05865,6.129032,-0.1651871,0.3891107,0.08077456,-0.4209036,4.564892,-0.8301497,-0.08014145,0.3136407,0.3064757,-0.4585495,2.211319,-0.4533947,0.4403138,1.297948,1.096704,282.6928,298.8473,66.00011
4,3.911099,0.1043553,-0.27501,-0.03987054,-1.260049,2.773927,-2.15438,-0.9865462,-0.009639527,0,0,10.04888,6.031281,-0.08935606,0.3957127,-0.03060353,-0.4274656,4.564172,-0.8310099,-0.06692401,0.2400157,0.2809148,-0.4566464,2.213964,-0.455478,0.4409765,1.295845,1.098542,282.9338,299.8235,65.13976
4,3.92221,0.1021844,-0.2567194,-0.02302852,-1.258357,2.77547,-2.155883,-0.9866421,-0.00871116,0,0,10.0391,6.031281,-0.04240286,0.4062589,-0.01922168,-0.4307455,4.572842,-0.8397645,-0.05104607,0.1899008,0.3053592,-0.4530266,2.219402,-0.4602773,0.4415407,1.293829,1.099957,283.1131,300.6487,64.50018
4,3.933321,0.1011091,-0.2436558,0.002396382,-1.25694,2.77755,-2.157575,-0.9868701,-0.02084842,0,0,10.02933,6.099706,-0.02850814,0.4115711,-0.01397882,-0.4343786,4.581404,-0.8474831,-0.04531512,0.188896,0.3564489,-0.4490095,2.230144,-0.4695731,0.4418728,1.291889,1.100922,283.22,301.241,64.06812
4,3.944432,0.1107152,-0.2412466,0.02472723,-1.255272,2.779923,-2.15986,-0.9863789,0.04501002,0,0,10.04888,6.187684,-0.07287163,0.3628601,-0.09154068,-0.4386083,4.578587,-0.8425922,-0.03950587,0.1836403,0.4203304,-0.4436619,2.241335,-0.4794436,0.4419202,1.29001,1.101546,283.2538,301.5613,63.84311
4,3.955544,0.1299376,-0.2528178,0.03229118,-1.252945,2.782328,-2.162723,-0.986282,0.008419935,0,0,10.06843,6.324536,-0.09147561,0.3669415,-0.01999132,-0.4402418,4.589225,-0.8505551,-0.03734967,0.1825738,0.4235088,-0.4403915,2.250766,-0.4876634,0.4417128,1.288207,1.102061,283.3025,301.6698,63.74054
4,3.966655,0.1768609,-0.2653469,0.04195624,-1.250503,2.784961,-2.16715,-0.9867235,-0.0404151,0,0,10.10753,6.529815,-0.09134106,0.3839466,-0.00609152,-0.4435846,4.597853,-0.8574321,-0.02899252,0.1910079,0.3967954,-0.4387691,2.259599,-0.4955986,0.4412831,1.286481,1.102677,283.3601,301.6733,63.68361
4,3.977766,0.2226425,-0.2544673,0.04923511,-1.248894,2.78704,-2.171761,-0.9872466,-0.04754191,0,0,10.1564,6.783968,-0.1022698,0.359528,-0.03164844,-0.4467857,4.600202,-0.8577099,-0.01150266,0.1790824,0.3295487,-0.4384399,2.26415,-0.500079,0.4406241,1.284793,1.103402,283.4603,301.6481,63.6053
4,3.988877,0.2608724,-0.2159823,0.0498271,-1.248348,2.788177,-2.176262,-0.9886048,-0.12391,0,0,10.1955,7.067449,-0.09833777,0.3170199,-0.06482331,-0.4495949,4.600551,-0.8569893,-0.001208298,0.1425541,0.1782456,-0.4412645,2.261542,-0.4980452,0.4397583,1.283057,1.10412,283.6191,301.6343,63.44482
4,3.999988,0.2671711,-0.1839347,0.05586094,-1.248063,2.789507,-2.179863,-0.988821,-0.0189582,0,0,10.21505,7.350929,-0.04445051,0.2414315,-0.1070068,-0.451328,4.596678,-0.8547722,0.001678482,0.1318415,0.1484035,-0.4411686,2.264867,-0.5010272,0.4387147,1.281173,1.104632,283.7924,301.722,63.13225
4,4.011099,0.2330175,-0.1747738,0.02703683,-1.246362,2.790046,-2.181483,-0.9886767,0.01299166,0,0,10.22483,7.663734,0.01792857,0.1583847,-0.1514234,-0.4527257,4.589767,-0.8508312,0.01368745,0.0879888,0.08339374,-0.4420842,2.262311,-0.4993536,0.4376529,1.279095,1.104972,283.933,301.9225,62.63751
4,4.02221,0.2201717,-0.1633219,0.006684238,-1.244755,2.790456,-2.18362,-0.9874011,0.1162965,0,0,10.22483,8.01564,0.008262172,0.05823952,-0.1420567,-0.4516849,4.58402,-0.8452719,0.01675373,0.07092011,0.07914822,-0.4412671,2.264181,-0.5013688,0.436812,1.276798,1.105213,284.0244,302.0832,62.13012
4,4.033321,0.2285707,-0.1282361,-0.002250457,-1.244275,2.790241,-2.186478,-0.985376,0.1840074,0,0,10.2346,8.387097,-0.08138706,-0.068397,-0.1385238,-0.4487016,4.573825,-0.8317896,0.01286901,0.08060159,0.1185802,-0.4395638,2.269955,-0.5066307,0.4363856,1.274313,1.105556,284.1145,302.5205,61.41578
4,4.044433,0.2561864,-0.1025824,-0.002568344,-1.244011,2.790396,-2.190329,-0.9857211,-0.03301673,0,0,10.2346,8.758554,-0.1163946,-0.01937165,-0.1295701,-0.4506031,4.574727,-0.8300261,-0.0120233,0.1074939,0.1847887,-0.436702,2.279771,-0.5143887,0.4364273,1.27182,1.106053,284.3381,303.7719,60.0301
4,4.055544,0.2678735,-0.09734809,-0.0143665,-1.242832,2.790456,-2.193753,-0.9867172,-0.09060085,0,0,10.22483,9.090909,-0.09168483,0.05725506,-0.1167489,-0.4539331,4.578655,-0.8336253,-0.03102842,0.1246724,0.1944968,-0.4356761,2.286718,-0.5196035,0.4368621,1.269502,1.106527,284.5972,305.4937,58.32299
4,4.066655,0.2411007,-0.06032938,-0.03072842,-1.242676,2.789305,-2.195152,-0.9876119,-0.0811261,0,0,10.1955,9.39394,-0.06151915,0.1029168,-0.0827605,-0.4557766,4.583147,-0.8379865,-0.0355567,0.1257052,0.1604398,-0.4358172,2.290376,-0.522387,0.4375533,1.267462,1.1067,284.7668,307.2688,56.68979
4,4.077766,0.2144019,-0.04451627,-0.03833452,-1.242288,2.788635,-2.196381,-0.9871497,0.04279768,0,0,10.1564,9.67742,-0.02516401,0.1678202,-0.0753964,-0.4588445,4.587616,-0.8425424,-0.04032924,0.1192425,0.1029591,-0.4369566,2.291719,-0.5228595,0.4383713,1.265691,1.10652,284.8391,308.503,55.70597
4,4.088878,0.1739279,-0.04677693,-0.03826034,-1.241541,2.788699,-2.196949,-0.985352,0.1638397,0,0,10.10753,9.960899,0.01124804,0.2263242,-0.06165763,-0.4623413,4.593834,-0.8493401,-0.04706666,0.1149555,0.06253571,-0.4381326,2.293346,-0.5236155,0.4392152,1.264125,1.10612,284.8761,309.1774,55.32922
4,4.099989,0.1387995,-0.05110396,-0.03391377,-1.240768,2.788929,-2.197541,-0.9848684,0.04286674,0,0,10.04888,10.20528,0.07184787,0.24227,-0.0802011,-0.465789,4.596288,-0.8544078,-0.03888776,0.09354958,0.03481672,-0.4385369,2.293432,-0.5235889,0.4400579,1.262815,1.105728,284.8906,309.7893,54.97694
4,4.1111,0.1228518,-0.064018,-0.04121023,-1.239423,2.789017,-2.198427,-0.984087,0.07132581,0,0,9.980451,10.39101,0.09727383,0.1825996,-0.08696745,-0.4664851,4.594247,-0.8544683,-0.01788216,0.08591296,0.002697701,-0.4397284,2.293377,-0.5240592,0.4408667,1.261783,1.105502,284.899,310.1754,54.79175
4,4.122211,0.1282825,-0.1069141,-0.06844959,-1.236349,2.789069,-2.200139,-0.9841813,-0.009079495,0,0,9.902249,10.52786,0.047123,0.02815053,-0.06892231,-0.4624398,4.586327,-0.8461566,-0.01562485,0.09231219,0.01439058,-0.4398471,2.296805,-0.5270164,0.4415477,1.261046,1.105501,284.9312,310.5751,54.56086
4,4.133323,0.1346959,-0.1176655,-0.07899415,-1.234336,2.789033,-2.201816,-0.9847507,-0.05176541,0,0,9.833823,10.61584,-0.04335363,-0.03250075,-0.04814705,-0.4603551,4.582174,-0.8386427,-0.01120868,0.08273649,0.04100356,-0.4389321,2.299462,-0.5294061,0.4420011,1.260614,1.105649,284.9896,310.8356,54.42603
4,4.144434,0.1367556,-0.0996678,-0.08984948,-1.23312,2.788193,-2.203114,-0.985792,-0.09461579,0,0,9.775171,10.69404,-0.06203846,0.01104299,0.005393971,-0.4602667,4.587624,-0.8421043,0.001691896,0.05396116,0.07717355,-0.4367952,2.301321,-0.5314266,0.4421594,1.260402,1.105753,285.0814,310.6737,54.64687
4,4.155545,0.1291929,-0.06770937,-0.08807126,-1.232865,2.787119,-2.203874,-0.9859523,-0.01385853,0,0,9.736072,10.73314,-0.04388015,0.02698657,0.008493742,-0.4607727,4.589261,-0.8437051,0.01451,0.04112052,0.09093971,-0.435495,2.302891,-0.5334597,0.4420536,1.260308,1.105688,285.2385,310.0605,55.20296
4,4.166656,0.09817651,-0.03165054,-0.0937606,-1.23279,2.785633,-2.203504,-0.9858596,0.008519954,0,0,9.716519,10.74291,0.006266454,0.03754498,0.0166483,-0.461545,4.592215,-0.848105,0.02494171,0.02186644,0.07809892,-0.4351254,2.302604,-0.5336839,0.4419386,1.260344,1.105138,285.1504,309.1878,55.9245
4,4.177768,0.08751969,-0.03278678,-0.09693005,-1.231709,2.784925,-2.20383,-0.9854175,0.04033701,0,0,9.716519,10.72336,0.01475633,0.0386107,0.01232281,-0.4619024,4.592878,-0.8491566,0.02694233,0.01864082,0.06424329,-0.4349816,2.303389,-0.5347151,0.4418739,1.260162,1.105052,285.3476,308.7421,56.32817
4,4.188879,0.06950641,-0.07254037,-0.1220362,-1.228576,2.78445,-2.203804,-0.9844636,0.08697376,0,0,9.726295,10.66471,0.0329713,0.03106874,0.02813867,-0.4613623,4.594564,-0.8517979,0.0266386,0.01006703,0.03229765,-0.4355568,2.302139,-0.5338794,0.4419076,1.25992,1.104939,285.3219,308.6103,56.36375
4,4.19999,0.07488418,-0.09727354,-0.1441465,-1.225539,2.783624,-2.204586,-0.984944,-0.04452596,0,0,9.755621,10.60606,0.03719769,0.02468041,0.02489008,-0.4612888,4.594885,-0.8526531,0.02105909,-0.0005849432,0.008927161,-0.4359722,2.300899,-0.5327166,0.4421239,1.259688,1.10492,285.3376,308.7626,56.16126
4,4.211102,0.08554363,-0.1081194,-0.1642828,-1.22291,2.782434,-2.205472,-0.9847336,0.0197769,0,0,9.775171,10.51809,0.06281148,-0.02333965,0.03945613,-0.4591205,4.593287,-0.8528987,0.01648694,-0.009131022,-0.02404827,-0.4370636,2.298451,-0.5305499,0.4426739,1.259392,1.104668,285.3703,308.8852,56.07132
4,4.222213,0.06533778,-0.1276055,-0.1864158,-1.21949,2.781356,-2.205141,-0.9857472,-0.09282976,0,0,9.804497,10.40078,0.04330121,-0.1084558,0.01272316,-0.4564647,4.585929,-0.8461446,0.01306255,-0.01341671,-0.04958052,-0.4381587,2.296184,-0.5285538,0.4436029,1.259117,1.104335,285.5347,309.3358,55.81622
4,4.233324,0.05246153,-0.1076066,-0.2047359,-1.217466,2.779132,-2.204436,-0.9861488,-0.03581353,0,0,9.833823,10.27371,0.01963451,-0.1392456,-0.0106185,-0.4551305,4.580211,-0.8403815,-0.005283667,-0.01761735,-0.07606169,-0.4396117,2.293121,-0.5250918,0.4446757,1.258918,1.104046,285.8061,309.5693,55.80927
4,4.244435,0.03630932,-0.06318903,-0.229711,-1.216112,2.775619,-2.203016,-0.9849632,0.1086329,0,0,9.863148,10.13685,0.02189408,-0.1403659,0.00640329,-0.4534506,4.578829,-0.8392236,-0.02308439,-0.002551594,-0.04824521,-0.4394855,2.294733,-0.5256785,0.4457081,1.258851,1.103802,285.9637,309.5375,55.9933
4,4.255547,0.03095256,-0.05578639,-0.2329852,-1.214135,2.773679,-2.202537,-0.9849387,0.001339655,0,0,9.872923,10.0391,0.06583957,-0.09469762,0.03175941,-0.453017,4.581824,-0.8441994,-0.0206878,0.0006807689,-0.01737999,-0.4387963,2.295903,-0.5266577,0.4466949,1.258839,1.103502,286.116,309.3956,56.26598
4,4.266658,0.01502445,-0.07510571,-0.2412754,-1.211118,2.772052,-2.201577,-0.9848231,0.01078171,0,0,9.853374,9.970675,0.1000651,-0.02977975,0.0370089,-0.4540769,4.585695,-0.8500065,-0.004626438,-0.02493075,0.01129779,-0.4371653,2.294855,-0.5262387,0.4476966,1.258919,1.103151,286.2659,309.427,56.33825
4,4.277769,0.006578416,-0.09858548,-0.2431409,-1.207936,2.770797,-2.200986,-0.9853334,-0.04664624,0,0,9.824047,9.921799,0.1227653,0.008440338,0.07103251,-0.4540232,4.591516,-0.8573933,0.01469183,-0.02501561,0.02924405,-0.4363802,2.294977,-0.5271717,0.4487789,1.259171,1.102754,286.3747,309.5398,56.31322
4,4.28888,-0.001847774,-0.1284299,-0.2417368,-1.204294,2.770103,-2.200409,-0.9849169,0.0385265,0,0,9.765396,9.892473,0.1237177,0.02127471,0.05508636,-0.4547443,4.593245,-0.86031,0.01259407,-0.03563204,0.04099924,-0.4353198,2.294699,-0.5269746,0.4498825,1.25956,1.102304,286.4538,309.3861,56.65703
4,4.299992,0.00774771,-0.1337647,-0.2448874,-1.201259,2.768667,-2.200267,-0.9852178,-0.02783003,0,0,9.69697,9.892473,0.07763083,0.01717381,0.02242082,-0.4553563,4.591876,-0.8581166,0.01148437,-0.04308236,0.0410169,-0.4345858,2.293617,-0.5260521,0.4509866,1.260011,1.101885,286.5612,308.9349,57.32576
4,4.311103,0.03651571,-0.1358257,-0.2470287,-1.198386,2.767198,-2.201147,-0.9851843,0.003464949,0,0,9.63832,9.931575,0.06936878,0.03307601,0.05236344,-0.4549558,4.596216,-0.86247,0.01041627,-0.03882202,0.0378241,-0.4341682,2.293376,-0.5258757,0.4524787,1.25998,1.101429,286.8233,309.0352,57.61704
4,4.322214,0.06526664,-0.1303436,-0.2407361,-1.195828,2.765913,-2.202377,-0.9859555,-0.07052827,0,0,9.579668,10.01955,0.05353599,0.06395514,0.06536594,-0.4555273,4.601122,-0.8668182,0.006077141,-0.04093713,0.03040181,-0.4339227,2.292505,-0.5249255,0.4537472,1.259866,1.101015,287.0389,308.9647,57.92967
4,4.333325,0.07589042,-0.1206853,-0.237658,-1.193529,2.764329,-2.202864,-0.9870772,-0.1019421,0,0,9.530792,10.1173,0.06437812,0.08944933,0.08453238,-0.455938,4.606724,-0.8729408,0.004971825,-0.0419976,0.02615167,-0.4335706,2.291736,-0.5242787,0.4544524,1.259972,1.100863,287.2392,308.8542,58.14824
4,4.344437,0.08440928,-0.1163031,-0.2291937,-1.191228,2.763079,-2.203642,-0.9873739,-0.0263719,0,0,9.511242,10.20528,0.0783454,0.1181619,0.09409404,-0.4566863,4.612403,-0.8793718,0.005126305,-0.03451745,0.03998726,-0.4327163,2.292567,-0.5250864,0.454718,1.260104,1.100763,287.4018,308.2885,58.61264
4,4.355548,0.083341,-0.1140932,-0.2217534,-1.18899,2.761989,-2.204022,-0.9866282,0.0681953,0,0,9.511242,10.31281,0.07510651,0.1448324,0.08354972,-0.4582118,4.617194,-0.8844286,0.01794284,-0.03245442,0.04095646,-0.4320776,2.292953,-0.5262281,0.4547233,1.260149,1.100605,287.4875,307.5289,59.1605
4,4.366659,0.08338416,-0.1246631,-0.2141791,-1.186317,2.761293,-2.204681,-0.9866096,0.001043081,0,0,9.530792,10.42033,0.07929092,0.1619095,0.07078389,-0.4598864,4.621251,-0.8891062,0.02439522,-0.03673485,0.05156508,-0.4309826,2.292915,-0.526687,0.4547075,1.260012,1.100327,287.5912,306.7884,59.65778
4,4.37777,0.09190111,-0.1268508,-0.2216238,-1.183492,2.759846,-2.205398,-0.9861031,0.04632385,0,0,9.560118,10.52786,0.09224932,0.1185267,-0.03385417,-0.4625655,4.613562,-0.883742,0.01383607,-0.03132678,0.06016304,-0.4301074,2.293734,-0.5270993,0.4548022,1.25968,1.099944,287.684,306.2609,59.99694
4,4.388882,0.1014806,-0.1247015,-0.2227244,-1.180966,2.758505,-2.206354,-0.9861478,-0.0045322,0,0,9.589444,10.62561,0.1104267,0.05452217,-0.01394933,-0.4610342,4.612088,-0.8843229,0.01423072,0.002803158,0.08460535,-0.4291759,2.298596,-0.5316799,0.4550198,1.259276,1.099478,287.7313,306.0209,60.10513
4,4.399993,0.1152845,-0.1075124,-0.2133384,-1.179296,2.757195,-2.207606,-0.9864737,-0.02972773,0,0,9.608994,10.72336,0.09633866,0.04183555,-0.04050668,-0.4617953,4.609482,-0.8824259,0.04975178,0.05161781,0.09489605,-0.4290374,2.305396,-0.5396739,0.455315,1.258848,1.098856,287.8186,305.8414,60.20067
4,4.411104,0.11842,-0.08499428,-0.2007994,-1.178083,2.755855,-2.208427,-0.9866586,-0.01667401,0,0,9.628544,10.77224,0.1016904,0.04287389,-0.03735053,-0.4621751,4.609258,-0.883468,0.05493295,0.05155457,0.07780793,-0.4290768,2.306373,-0.5411887,0.4555019,1.258594,1.098268,287.6296,305.7701,60.12595
4,4.422215,0.1247435,-0.05708957,-0.1840697,-1.177486,2.754342,-2.209456,-0.986878,-0.02001357,0,0,9.648094,10.79179,0.1389776,0.05454588,-0.03973665,-0.4631674,4.61064,-0.8875837,0.06715468,0.01518742,0.0340921,-0.4295221,2.303043,-0.5393351,0.4557481,1.258478,1.097654,287.3934,305.5805,60.14071
4,4.433327,0.1268248,-0.03993425,-0.1746707,-1.176588,2.752914,-2.210286,-0.9863986,0.04392307,0,0,9.667644,10.77224,0.1728262,0.07590537,-0.07403205,-0.4657784,4.609303,-0.8895783,0.07415855,-0.0243233,0.005343253,-0.4293143,2.298839,-0.5366312,0.4560768,1.25837,1.096964,287.4323,304.9369,60.66306
4,4.444438,0.1384791,-0.01416651,-0.1600546,-1.176499,2.751367,-2.211642,-0.9865456,-0.01390905,0,0,9.687196,10.71359,0.2002321,0.09729299,-0.1146692,-0.4690551,4.607166,-0.8908703,0.08215848,-0.09364102,-0.009519103,-0.428134,2.291025,-0.5306897,0.4564375,1.258289,1.09619,287.4311,304.4842,61.02744
4,4.455549,0.1543859,0.01153497,-0.1529039,-1.176384,2.74941,-2.213149,-0.9862841,0.02406104,0,0,9.716519,10.64516,0.2129008,0.120765,-0.1328155,-0.4721667,4.606491,-0.8930101,0.08630875,-0.1224186,-0.003110278,-0.4267439,2.286855,-0.5280082,0.4569101,1.258202,1.095268,287.2471,304.2846,61.21558
