loc,t,aDotS,bDotS,gDotS,aS,bS,gS,qE,qDotE,tpad,enable,emgA,emgB,aDotSH,bDotSH,gDotSH,aSH,bSH,gSH,aDotUB,bDotUB,gDotUB,aUB,bUB,gUB,xHand,yHand,zHand,aHand,bHand,gHand
3,0,-0.0218153,-0.6493899,0.1516337,-0.8213221,4.042521,-3.100349,-1.201947,-0.3432589,0,0,10.20528,12.60997,-0.702853,1.059928,0.02072376,-0.5661039,-1.331561,-1.057099,-0.4012435,0.6056707,0.7081009,-0.5805361,1.979055,0.05879514,0.1009648,1.174957,0.87442,323.5038,277.1278,38.92043
3,0.01111111,-0.0218153,-0.6493899,0.1516337,-0.8213221,4.042521,-3.100349,-1.201679,0.02786625,0,0,10.21505,12.43402,-0.702853,1.059928,0.02072376,-0.5661039,-1.331561,-1.057099,-0.4012435,0.6056707,0.7081009,-0.5805361,1.979055,0.05879514,0.09798443,1.172446,0.8774424,323.1481,277.0796,38.89128
3,0.02222222,-0.0218153,-0.6493899,0.1516337,-0.8213221,4.042521,-3.100349,-1.202477,-0.07343091,0,0,10.20528,12.28739,-0.702853,1.059928,0.02072376,-0.5661039,-1.331561,-1.057099,-0.4012435,0.6056707,0.7081009,-0.5805361,1.979055,0.05879514,0.09360648,1.168379,0.8804241,323.2064,277.0307,38.39477
3,0.03333334,-0.006957173,-0.5942799,0.2138028,-0.8284807,4.057737,-3.111067,-1.202539,-0.005015027,0,0,10.1955,12.18964,-0.6143916,0.8757182,-0.0468688,-0.5779566,-1.327767,-1.050487,-0.3507678,0.5074551,0.6683921,-0.5669124,1.990872,0.05466671,0.09065167,1.164965,0.8801708,323.5673,276.8255,37.23001
3,0.04444445,-0.0144504,-0.55528,0.2687472,-0.8367482,4.072429,-3.120048,-1.202496,0.00383656,0,0,10.17595,12.17009,-0.5295199,0.8490382,-0.08281064,-0.5950881,-1.316601,-1.051765,-0.3006661,0.4828213,0.685058,-0.5501979,2.008193,0.04471421,0.08837628,1.16198,0.8787572,323.8936,276.7087,36.11172
3,0.05555556,-0.0144504,-0.55528,0.2687472,-0.8367482,4.072429,-3.120048,-1.202792,-0.0272024,0,0,10.16618,12.23851,-0.5295199,0.8490382,-0.08281064,-0.5950881,-1.316601,-1.051765,-0.3006661,0.4828213,0.685058,-0.5501979,2.008193,0.04471421,0.08420385,1.157459,0.8794951,324.0402,276.6513,35.67894
3,0.06666667,0.01118675,-0.5718725,0.3019587,-0.8447371,4.090768,-3.133632,-1.202351,0.04027352,0,0,10.1564,12.35582,-0.4118437,0.7381195,-0.1205134,-0.6069722,-1.313746,-1.050202,-0.266728,0.4315755,0.689127,-0.5340053,2.021301,0.0382382,0.07936816,1.152138,0.8804498,324.2026,276.4978,35.0344
3,0.07777778,0.01118675,-0.5718725,0.3019587,-0.8447371,4.090768,-3.133632,-1.201365,0.08976617,0,0,10.1564,12.48289,-0.4118437,0.7381195,-0.1205134,-0.6069722,-1.313746,-1.050202,-0.266728,0.4315755,0.689127,-0.5340053,2.021301,0.0382382,0.07583185,1.147706,0.8798818,324.4349,276.2673,33.96974
3,0.08888889,0.04213846,-0.596207,0.3118154,-0.8520187,4.110377,3.134354,-1.202189,-0.0760274,0,0,10.16618,12.60997,-0.3701362,0.7240578,-0.09532076,-0.6212739,-1.301088,-1.054017,-0.2298865,0.4196626,0.6440881,-0.5212195,2.038359,0.02707157,0.07255054,1.143359,0.8793893,324.5454,276.1564,33.06888
3,0.1,0.04213846,-0.596207,0.3118154,-0.8520187,4.110377,3.134354,-1.203607,-0.128856,0,0,10.18573,12.73705,-0.3701362,0.7240578,-0.09532076,-0.6212739,-1.301088,-1.054017,-0.2298865,0.4196626,0.6440881,-0.5212195,2.038359,0.02707157,0.07045536,1.140073,0.8781729,324.7892,276.1323,32.28089
3,0.1111111,0.09327036,-0.5807487,0.3488664,-0.8615401,4.12644,3.119814,-1.202289,0.1214081,0,0,10.21505,12.86413,-0.3767932,0.5620853,-0.07896221,-0.6263584,-1.297616,-1.04822,-0.2148451,0.3949547,0.5449362,-0.5132284,2.0535,0.01811456,0.06826746,1.136694,0.8774846,324.9291,276.111,31.99676
3,0.1222222,0.09327036,-0.5807487,0.3488664,-0.8615401,4.12644,3.119814,-1.20422,-0.1777682,0,0,10.24438,12.96188,-0.3767932,0.5620853,-0.07896221,-0.6263584,-1.297616,-1.04822,-0.2148451,0.3949547,0.5449362,-0.5132284,2.0535,0.01811456,0.06683613,1.134036,0.8765032,325.1368,276.1223,31.60272
3,0.1333333,0.1645953,-0.5472906,0.3728831,-0.8710294,4.140247,3.104099,-1.202075,0.1975936,0,0,10.29326,12.97165,-0.3700019,0.4536603,-0.1274343,-0.6336188,-1.300107,-1.038116,-0.1853392,0.355208,0.3998604,-0.5106537,2.065744,0.01031309,0.06527701,1.13116,0.8758585,325.2296,276.0449,31.51795
3,0.1444445,0.1645953,-0.5472906,0.3728831,-0.8710294,4.140247,3.104099,-1.205629,-0.3269149,0,0,10.33236,12.88368,-0.3700019,0.4536603,-0.1274343,-0.6336188,-1.300107,-1.038116,-0.1853392,0.355208,0.3998604,-0.5106537,2.065744,0.01031309,0.064189,1.128703,0.8750847,325.3724,276.1177,31.11873
3,0.1555556,0.1888289,-0.3953383,0.424282,-0.8829492,4.14249,3.097569,-1.201832,0.3499665,0,0,10.38123,12.72727,-0.2478617,0.4653063,-0.1763296,-0.6462278,-1.299875,-1.037928,-0.164597,0.2943701,0.3582211,-0.5044341,2.073936,0.006053632,0.06291947,1.125832,0.8745727,325.2935,276.1761,30.96077
3,0.1666667,0.1888289,-0.3953383,0.424282,-0.8829492,4.14249,3.097569,-1.207831,-0.5519168,0,0,10.42033,12.522,-0.2478617,0.4653063,-0.1763296,-0.6462278,-1.299875,-1.037928,-0.164597,0.2943701,0.3582211,-0.5044341,2.073936,0.006053632,0.06206432,1.123173,0.8738079,325.4288,276.3503,30.57864
3,0.1777778,0.1811231,-0.279121,0.4345874,-0.8930485,4.143733,3.093483,-1.201466,0.5868249,0,0,10.43988,12.21896,-0.1162067,0.4865315,-0.2348405,-0.6604213,-1.300939,-1.040532,-0.1098835,0.2548753,0.4185357,-0.4925261,2.082165,-0.001212005,0.06157963,1.121647,0.8731852,325.8071,275.8075,31.40513
3,0.1888889,0.1811231,-0.279121,0.4345874,-0.8930485,4.143733,3.093483,-1.20548,-0.3728177,0,0,10.45943,11.83773,-0.1162067,0.4865315,-0.2348405,-0.6604213,-1.300939,-1.040532,-0.1098835,0.2548753,0.4185357,-0.4925261,2.082165,-0.001212005,0.06151515,1.121217,0.8727998,325.7433,275.7233,31.75861
3,0.2,0.1980825,-0.2429941,0.4234793,-0.9020915,4.147679,3.085991,-1.200787,0.4328929,0,0,10.44966,11.36852,-0.08797882,0.3917999,-0.2696007,-0.667574,-1.308121,-1.034092,-0.08761817,0.206874,0.4226786,-0.4831166,2.087145,-0.004813131,0.06159323,1.120932,0.8723055,325.4576,275.7386,32.14568
3,0.2111111,0.1980825,-0.2429941,0.4234793,-0.9020915,4.147679,3.085991,-1.203411,-0.243999,0,0,10.43988,10.85044,-0.08797882,0.3917999,-0.2696007,-0.667574,-1.308121,-1.034092,-0.08761817,0.206874,0.4226786,-0.4831166,2.087145,-0.004813131,0.06159977,1.120756,0.8719673,325.3263,275.7064,32.42675
3,0.2222222,0.2320059,-0.1739959,0.3980938,-0.9097193,4.148277,3.078778,-1.200474,0.2710273,0,0,10.42033,10.38123,-0.06393594,0.2629004,-0.2853155,-0.670904,-1.317968,-1.025825,-0.05357388,0.1607593,0.3116671,-0.4816263,2.089828,-0.007634484,0.06146267,1.120479,0.8715466,325.2902,275.6162,32.83437
3,0.2333333,0.2320059,-0.1739959,0.3980938,-0.9097193,4.148277,3.078778,-1.205084,-0.4239946,0,0,10.39101,9.990225,-0.06393594,0.2629004,-0.2853155,-0.670904,-1.317968,-1.025825,-0.05357388,0.1607593,0.3116671,-0.4816263,2.089828,-0.007634484,0.06132635,1.120247,0.8711773,325.326,275.4551,33.22192
3,0.2444444,0.2239565,-0.06489079,0.3469053,-0.915566,4.145009,3.076147,-1.200523,0.4207004,0,0,10.36168,9.667644,-0.01908641,0.2115129,-0.2561007,-0.6751379,-1.322103,-1.02419,-0.02788749,0.1253632,0.2156185,-0.4815704,2.092254,-0.01031629,0.06135844,1.11992,0.8705242,325.1952,275.1264,33.8969
3,0.2555556,0.2239565,-0.06489079,0.3469053,-0.915566,4.145009,3.076147,-1.206629,-0.5623655,0,0,10.34213,9.423265,-0.01908641,0.2115129,-0.2561007,-0.6751379,-1.322103,-1.02419,-0.02788749,0.1253632,0.2156185,-0.4815704,2.092254,-0.01031629,0.06138314,1.119727,0.8701514,325.005,274.8325,34.51275
3,0.2666667,0.2027319,0.0196212,0.2945456,-0.9189573,4.138327,3.076905,-1.200364,0.5779018,0,0,10.32258,9.266863,0.01725847,0.1601397,-0.224679,-0.6780941,-1.326006,-1.023006,0.004050389,0.06542799,0.1110403,-0.4840199,2.089256,-0.009224391,0.06172539,1.119519,0.8694495,324.5981,274.5251,35.17314
3,0.2777778,0.2027319,0.0196212,0.2945456,-0.9189573,4.138327,3.076905,-1.204082,-0.3454523,0,0,10.31281,9.208211,0.01725847,0.1601397,-0.224679,-0.6780941,-1.326006,-1.023006,0.004050389,0.06542799,0.1110403,-0.4840199,2.089256,-0.009224391,0.06195581,1.119411,0.8690881,324.3436,274.3627,35.50913
3,0.2888889,0.1449893,0.09538855,0.2276178,-0.9206985,4.131228,3.080559,-1.199954,0.3809126,0,0,10.31281,9.208211,0.1270731,0.0659427,-0.1866064,-0.677179,-1.331223,-1.02705,0.02608825,0.03122408,0.08748766,-0.4828412,2.087676,-0.009182845,0.06229988,1.119322,0.8686869,323.961,274.2209,35.85676
3,0.3,0.1449893,0.09538855,0.2276178,-0.9206985,4.131228,3.080559,-1.202765,-0.2605496,0,0,10.30303,9.237537,0.1270731,0.0659427,-0.1866064,-0.677179,-1.331223,-1.02705,0.02608825,0.03122408,0.08748766,-0.4828412,2.087676,-0.009182845,0.06255582,1.119332,0.8684845,323.7089,274.1428,36.01636
3,0.3111111,0.0990309,0.1305722,0.150516,-0.9201983,4.125595,3.083951,-1.199924,0.2624001,0,0,10.29326,9.247313,0.1311792,-0.03959236,-0.1732878,-0.6740077,-1.340602,-1.022863,0.06919414,-0.0243922,0.04139999,-0.483963,2.080941,-0.006779077,0.06303477,1.119417,0.8681806,323.2398,274.054,36.22474
3,0.3222222,0.0990309,0.1305722,0.150516,-0.9201983,4.125595,3.083951,-1.200362,-0.04235268,0,0,10.27371,9.227761,0.1311792,-0.03959236,-0.1732878,-0.6740077,-1.340602,-1.022863,0.06919414,-0.0243922,0.04139999,-0.483963,2.080941,-0.006779077,0.06340724,1.119589,0.8682097,322.7516,274.2929,36.20991
3,0.3333333,0.05087771,0.1812502,0.0348741,-0.9152267,4.118187,3.08952,-1.20003,0.03105044,0,0,10.25415,9.198437,0.1131274,-0.1441359,-0.1342112,-0.6675293,-1.3494,-1.01746,0.08837143,-0.08528067,-0.06839082,-0.4890885,2.0718,-0.001201618,0.06393248,1.119835,0.8681962,322.265,274.5075,36.08606
3,0.3444445,0.05087771,0.1812502,0.0348741,-0.9152267,4.118187,3.08952,-1.200229,-0.01831494,0,0,10.2346,9.169111,0.1131274,-0.1441359,-0.1342112,-0.6675293,-1.3494,-1.01746,0.08837143,-0.08528067,-0.06839082,-0.4890885,2.0718,-0.001201618,0.06424205,1.120019,0.8682341,322.0008,274.6309,35.97155
3,0.3555556,-0.03348972,0.2220616,-0.09765305,-0.9068969,4.110317,3.098817,-1.200458,-0.0205931,0,0,10.2346,9.149561,0.2036514,-0.1918954,0.005439319,-0.6583771,-1.345408,-1.029363,0.1333405,-0.1420767,-0.1357994,-0.4961022,2.059576,0.004454936,0.06458892,1.120231,0.868195,321.7575,274.6306,35.93806
3,0.3666667,-0.03348972,0.2220616,-0.09765305,-0.9068969,4.110317,3.098817,-1.199637,0.0754203,0,0,10.22483,9.13001,0.2036514,-0.1918954,0.005439319,-0.6583771,-1.345408,-1.029363,0.1333405,-0.1420767,-0.1357994,-0.4961022,2.059576,0.004454936,0.06485566,1.120437,0.868187,321.6167,274.5668,35.90789
3,0.3777778,-0.1177962,0.2461326,-0.2054767,-0.8972738,4.102727,3.109875,-1.20084,-0.1104674,0,0,10.2346,9.051809,0.1740263,-0.273012,0.05537802,-0.6485628,-1.348668,-1.029149,0.1588116,-0.1966921,-0.2509778,-0.5067815,2.045461,0.01206039,0.0653073,1.120798,0.8682564,321.3817,274.5204,35.76791
3,0.3888889,-0.1177962,0.2461326,-0.2054767,-0.8972738,4.102727,3.109875,-1.196824,0.3684438,0,0,10.25415,8.885631,0.1740263,-0.273012,0.05537802,-0.6485628,-1.348668,-1.029149,0.1588116,-0.1966921,-0.2509778,-0.5067815,2.045461,0.01206039,0.0657344,1.121122,0.8684407,321.1384,274.5898,35.51031
3,0.4,-0.2063326,0.2607708,-0.2993314,-0.8898085,4.098899,3.118481,-1.201201,-0.4031248,0,0,10.28348,8.641251,0.1548671,-0.3849874,0.09229989,-0.6389546,-1.353032,-1.02623,0.1505822,-0.2085286,-0.336107,-0.514136,2.04015,0.01552437,0.06648175,1.121706,0.86792,320.8123,276.1517,33.41658
3,0.4111111,-0.2063326,0.2607708,-0.2993314,-0.8898085,4.098899,3.118481,-1.195808,0.4971149,0,0,10.31281,8.308896,0.1548671,-0.3849874,0.09229989,-0.6389546,-1.353032,-1.02623,0.1505822,-0.2085286,-0.336107,-0.514136,2.04015,0.01552437,0.06733601,1.121935,0.8672907,321.1674,276.8745,32.05013
3,0.4222222,-0.237269,0.2732629,-0.3186336,-0.8854744,4.094315,3.1252,-1.201892,-0.560542,0,0,10.33236,7.878789,0.1795712,-0.3830329,0.1155364,-0.634308,-1.353549,-1.028887,0.1555541,-0.2405623,-0.365931,-0.5195817,2.03221,0.02039795,0.06903777,1.122156,0.8661987,322.0356,276.8506,31.68464
3,0.4333333,-0.2778174,0.2854337,-0.3603042,-0.8796006,4.09001,3.132738,-1.196817,0.4695325,0,0,10.35191,7.46823,0.2353857,-0.3823379,0.1651453,-0.6287169,-1.351497,-1.035587,0.1670658,-0.2629905,-0.3808962,-0.524247,2.024949,0.02444995,0.07073848,1.122219,0.8654364,323.1731,277.6763,30.60183
3,0.4444444,-0.3087525,0.2968039,-0.3838569,-0.8743035,4.085069,3.140544,-1.198955,-0.1997035,0,0,10.38123,7.1261,0.2589348,-0.3899288,0.1808946,-0.6232889,-1.351541,-1.039491,0.1689887,-0.2758154,-0.4000649,-0.5295552,2.018083,0.02841486,0.07264559,1.122385,0.8649017,323.9803,278.1304,30.06638
3,0.4555556,-0.3685028,0.3216729,-0.4299198,-0.8676866,4.079278,-3.132381,-1.198747,0.02156028,0,0,10.41056,6.871946,0.233439,-0.4624484,0.2116645,-0.6145601,-1.353529,-1.039286,0.1874854,-0.3132619,-0.4640718,-0.537151,2.009244,0.03329884,0.07478598,1.122883,0.8644624,325.1461,278.9252,29.07129
3,0.4666667,-0.4133259,0.3478359,-0.4610956,-0.8614314,4.07261,-3.121792,-1.199227,-0.04397946,0,0,10.44966,6.783968,0.2024517,-0.534859,0.2222427,-0.605353,-1.357195,-1.037274,0.1914342,-0.3165314,-0.4992563,-0.5442372,2.002602,0.03668025,0.07664375,1.124263,0.8645416,325.8586,279.2979,28.82171
3,0.4777778,-0.4432056,0.3678723,-0.4730411,-0.8558254,4.06597,-3.111535,-1.19781,0.1301983,0,0,10.47898,6.82307,0.1640922,-0.6329075,0.2519436,-0.5935579,-1.36087,-1.034339,0.1910966,-0.3229866,-0.5354649,-0.5516339,1.995891,0.04040814,0.07802434,1.126823,0.8651699,326.178,279.4031,28.9957
3,0.4888889,-0.4933802,0.4047393,-0.4979531,-0.8494844,4.058026,-3.098761,-1.192632,0.4727242,0,0,10.50831,6.979472,0.1395966,-0.6627169,0.2615996,-0.5846427,-1.363629,-1.032661,0.1855234,-0.3315352,-0.5609707,-0.5591013,1.988848,0.04455522,0.07912919,1.13095,0.865996,326.3159,279.2336,29.36963
3,0.5,-0.523279,0.4321796,-0.5142424,-0.8434828,4.049784,-3.086441,-1.204848,-1.12042,0,0,10.52786,7.233627,0.1473173,-0.6895509,0.3008365,-0.5747368,-1.363724,-1.034701,0.19662,-0.3402154,-0.6302977,-0.5689929,1.982059,0.04755474,0.07974256,1.136954,0.8673236,326.2338,278.998,30.05676
3,0.5111111,-0.5724119,0.4860729,-0.5414958,-0.8368318,4.039173,-3.071229,-1.198981,0.5467032,0,0,10.53763,7.536658,0.1633426,-0.6917486,0.3070858,-0.566195,-1.36518,-1.035915,0.2007247,-0.3402479,-0.6473745,-0.5768471,1.976067,0.05025944,0.07932666,1.143421,0.8693305,325.026,278.2054,31.85618
3,0.5222223,-0.6055165,0.5155656,-0.5641941,-0.8302506,4.029048,-3.056379,-1.199032,-0.01028961,0,0,10.53763,7.781037,0.1698031,-0.6907399,0.3144871,-0.5577416,-1.366508,-1.03699,0.1995027,-0.3370779,-0.6676108,-0.5852541,1.970373,0.05276894,0.07862348,1.150109,0.8710321,323.9039,277.2944,33.54126
3,0.5333334,-0.6461053,0.5632884,-0.5753982,-0.8241403,4.017011,-3.039438,-1.198246,0.07277627,0,0,10.52786,7.956989,0.170807,-0.7387167,0.3217236,-0.5469776,-1.369776,-1.03614,0.2012511,-0.3467416,-0.7080917,-0.5948671,1.963656,0.05605448,0.07783682,1.156768,0.8723431,323.0476,276.2863,34.92124
3,0.5444446,-0.6728481,0.6142957,-0.582381,-0.8185161,4.003842,-3.02198,-1.198666,-0.03868333,0,0,10.50831,8.054741,0.171815,-0.8037669,0.3341876,-0.5350685,-1.374217,-1.034371,0.1933507,-0.3563854,-0.7559431,-0.6052657,1.957061,0.05967398,0.07718144,1.163333,0.8732882,322.414,275.368,35.97544
3,0.5555557,-0.7006238,0.6492692,-0.5923746,-0.8126823,3.990934,-3.004342,-1.198409,0.02418122,0,0,10.49853,8.093843,0.1687199,-0.8539557,0.3616894,-0.5227279,-1.376828,-1.033858,0.1855483,-0.3660131,-0.7920843,-0.6157862,1.95036,0.06339655,0.07674553,1.169712,0.8740275,321.8888,274.5384,36.89416
3,0.5666668,-0.7262155,0.6533276,-0.6041195,-0.8067461,3.979495,-2.98737,-1.199097,-0.06285857,0,0,10.48876,8.113392,0.151794,-0.9318566,0.3998199,-0.5080214,-1.380454,-1.031751,0.1724187,-0.3756266,-0.8281747,-0.6267739,1.943608,0.06752232,0.07650647,1.175902,0.8747085,321.4657,273.9278,37.69145
3,0.577778,-0.7262155,0.6533276,-0.6041195,-0.8067461,3.979495,-2.98737,-1.199255,-0.01354942,0,0,10.48876,8.103617,0.151794,-0.9318566,0.3998199,-0.5080214,-1.380454,-1.031751,0.1724187,-0.3756266,-0.8281747,-0.6267739,1.943608,0.06752232,0.07650044,1.182009,0.8753583,321.1198,273.4649,38.42265
3,0.5888891,-0.7933686,0.6614923,-0.622272,-0.7950969,3.955259,-2.950525,-1.208112,-0.8097301,0,0,10.49853,8.152493,0.08029285,-1.00842,0.4085855,-0.481565,-1.391228,-1.021564,0.1569268,-0.3852576,-0.89087,-0.6489927,1.931428,0.07437277,0.07635395,1.187827,0.8762915,320.6825,273.0145,39.4897
3,0.6000003,-0.8168343,0.6730956,-0.6277202,-0.7896459,3.94233,-2.93146,-1.19086,1.584245,0,0,10.49853,8.27957,0.06978226,-1.004207,0.4268174,-0.4695313,-1.393162,-1.020116,0.1406759,-0.3703561,-0.9291127,-0.6610866,1.927193,0.0766575,0.07632478,1.192739,0.8769293,320.0701,272.2018,40.73237
3,0.6111114,-0.8520557,0.694212,-0.6364712,-0.7844778,3.928479,-2.910986,-1.197041,-0.5790651,0,0,10.50831,8.484849,0.1148838,-0.9895872,0.4659358,-0.4573574,-1.392182,-1.023981,0.1342207,-0.3650326,-0.9386538,-0.6718847,1.922262,0.07929376,0.07697015,1.198187,0.876871,320.5187,272.3067,40.51385
3,0.6222225,-0.8883408,0.7184534,-0.651651,-0.7790534,3.9136,-2.889247,-1.199435,-0.2117635,0,0,10.50831,8.778104,0.1842667,-0.9994575,0.4866114,-0.4444741,-1.393724,-1.027253,0.1340687,-0.3735819,-0.9546186,-0.6833208,1.916533,0.08219208,0.07748529,1.204442,0.8769986,320.7588,272.2016,40.7466
3,0.6333337,-0.920393,0.7523059,-0.6648274,-0.7739471,3.897286,-2.866165,-1.199304,0.01348261,0,0,10.49853,9.159335,0.2024556,-1.069965,0.5181069,-0.4282347,-1.397709,-1.02658,0.1393093,-0.3789279,-0.9599771,-0.694374,1.911088,0.08475909,0.07767637,1.211404,0.8773977,320.4917,271.7727,41.64336
3,0.6444448,-0.9449476,0.7713406,-0.6724911,-0.7692274,3.881444,-2.843421,-1.199121,0.01670857,0,0,10.47898,9.589444,0.1715652,-1.107244,0.5341861,-0.413142,-1.401596,-1.023308,0.1473929,-0.4120477,-0.9994111,-0.7075364,1.903687,0.08838978,0.07755766,1.218919,0.877883,319.9499,271.0588,42.95378
3,0.655556,-0.9801518,0.7805834,-0.6938789,-0.7639709,3.865517,-2.819725,-1.199188,-0.006040398,0,0,10.45943,10.04888,0.1043631,-1.125158,0.5304074,-0.3991242,-1.406791,-1.01688,0.149384,-0.4259281,-1.011123,-0.7194839,1.897248,0.09151607,0.07710829,1.226833,0.8784483,319.3623,270.1573,44.3839
3,0.6666671,-1.016377,0.7802289,-0.7172971,-0.7584667,3.849473,-2.795769,-1.199594,-0.03676114,0,0,10.43988,10.50831,0.04904592,-1.146379,0.5478451,-0.3843549,-1.40983,-1.012506,0.1546528,-0.4398019,-1.014342,-0.7312177,1.890672,0.09446792,0.07648406,1.235073,0.8789247,318.7743,269.1266,45.83019
3,0.6777782,-1.035575,0.7886585,-0.7216434,-0.7540789,3.833004,-2.771676,-1.19913,0.04294092,0,0,10.42033,10.88954,0.04160812,-1.176242,0.5594882,-0.3687572,-1.415079,-1.007781,0.1610382,-0.4270366,-1.019758,-0.7430715,1.886203,0.09572066,0.0757976,1.243482,0.8793101,318.171,267.9479,47.33503
3,0.6888894,-1.075062,0.8194972,-0.7198541,-0.7506492,3.8144,-2.744585,-1.199292,-0.01502654,0,0,10.42033,11.25122,0.06398666,-1.155007,0.5593799,-0.3554116,-1.4189,-1.005672,0.1525481,-0.4174223,-1.019698,-0.7547596,1.881608,0.09772336,0.07505611,1.251908,0.8796267,317.6431,266.7835,48.88669
3,0.7000005,-1.075062,0.8194972,-0.7198541,-0.7506492,3.8144,-2.744585,-1.199865,-0.05199949,0,0,10.42033,11.62268,0.06398666,-1.155007,0.5593799,-0.3554116,-1.4189,-1.005672,0.1525481,-0.4174223,-1.019698,-0.7547596,1.881608,0.09772336,0.07431615,1.260264,0.8797477,317.2068,265.6445,50.44361
3,0.7111117,-1.075062,0.8194972,-0.7198541,-0.7506492,3.8144,-2.744585,-1.211939,-1.103453,0,0,10.43011,11.98436,0.06398666,-1.155007,0.5593799,-0.3554116,-1.4189,-1.005672,0.1525481,-0.4174223,-1.019698,-0.7547596,1.881608,0.09772336,0.0733422,1.268238,0.8799313,316.5721,264.3522,52.32674
3,0.7222228,-1.110271,0.8593217,-0.6808931,-0.7435024,3.761134,-2.667775,-1.212441,-0.03708356,0,0,10.44966,12.37537,0.07267646,-1.060169,0.5544441,-0.3189636,-1.423229,-1.004332,0.1526846,-0.4716989,-0.9855196,-0.7883079,1.861757,0.1068876,0.07210603,1.274425,0.880081,315.4015,262.2381,55.15712
3,0.7333339,-1.104921,0.8562945,-0.668092,-0.7416638,3.744227,-2.643484,-1.173609,3.548712,0,0,10.46921,12.81525,0.08264719,-1.037983,0.5896262,-0.3058236,-1.419521,-1.009309,0.1549811,-0.4684815,-0.9684979,-0.7987427,1.856297,0.1088402,0.07160696,1.278371,0.8794762,314.9582,260.9593,56.10343
3,0.7444451,-1.11555,0.8555313,-0.6414395,-0.7410523,3.727618,-2.618436,-1.196929,-2.161896,0,0,10.48876,13.22581,0.1233284,-1.0126,0.6075251,-0.293197,-1.415962,-1.01556,0.1542117,-0.4567024,-0.9408187,-0.808566,1.851474,0.1103912,0.07165523,1.283638,0.8788494,316.3736,263.2364,53.01284
3,0.7555562,-1.161379,0.8706723,-0.6149418,-0.7414235,3.709907,-2.590611,-1.201949,-0.4356753,0,0,10.50831,13.58749,0.1724091,-0.9999549,0.6093066,-0.2805278,-1.414984,-1.020548,0.1522615,-0.4417661,-0.9248436,-0.818611,1.846992,0.1119042,0.07133289,1.291201,0.8786671,317.0395,263.8762,52.47496
3,0.7666674,-1.212543,0.8825932,-0.5873471,-0.7423365,3.692451,-2.562145,-1.201408,0.051189,0,0,10.50831,13.88074,0.1924764,-0.9689631,0.5784141,-0.2694086,-1.416408,-1.022018,0.1663744,-0.4300574,-0.9015484,-0.8283038,1.842442,0.1124094,0.07076596,1.300408,0.8783748,316.5068,262.8995,54.30819
3,0.7777785,-1.237045,0.8869307,-0.5767259,-0.7430134,3.674945,-2.534375,-1.199474,0.1761398,0,0,10.50831,14.0567,0.1731197,-0.9357642,0.5510346,-0.2588119,-1.418248,-1.021157,0.1814256,-0.4471122,-0.8792763,-0.8378736,1.836069,0.1140499,0.06986517,1.310421,0.8778715,315.453,260.9966,57.17736
3,0.7888896,-1.263637,0.8755298,-0.5446134,-0.7444723,3.659748,-2.508185,-1.198705,0.06901596,0,0,10.49853,14.15445,0.1421935,-0.9164594,0.539657,-0.2478897,-1.419087,-1.020736,0.2166991,-0.4738244,-0.8560905,-0.846988,1.828715,0.1150699,0.06861307,1.320638,0.8770918,314.4385,258.9028,60.03876
3,0.8000008,-1.251831,0.8537451,-0.498546,-0.7467791,3.646253,-2.484805,-1.199716,-0.09255694,0,0,10.48876,14.18377,0.1260648,-0.922736,0.5237823,-0.23624,-1.423853,-1.016841,0.255399,-0.4919833,-0.8095122,-0.8548481,1.821573,0.1154467,0.0670023,1.330667,0.8760232,313.662,256.8796,62.57222
3,0.8111119,-1.16213,0.7614586,-0.4804851,-0.7459173,3.63648,-2.468529,-1.200011,-0.02595256,0,0,10.46921,14.15445,0.1057742,-0.9205133,0.5175804,-0.224806,-1.426857,-1.014262,0.2715092,-0.495212,-0.7947251,-0.8636493,1.815437,0.1158382,0.06514038,1.340242,0.8746732,313.0899,254.8882,64.83743
3,0.8222231,-1.165208,0.7225075,-0.4416527,-0.7473645,3.62596,-2.447917,-1.201773,-0.1607234,0,0,10.45943,14.08602,0.119637,-0.921611,0.5185277,-0.2131802,-1.428602,-1.014489,0.2887241,-0.4824597,-0.7799782,-0.8721932,1.810371,0.1152656,0.06304955,1.349106,0.8730735,312.5858,253.0084,66.91911
3,0.8333342,-1.177964,0.7164463,-0.4117616,-0.7499456,3.613438,-2.425001,-1.206278,-0.4105468,0,0,10.43011,14.03715,0.1426678,-0.9587765,0.4776696,-0.2010543,-1.445316,-1.000936,0.3007045,-0.4664916,-0.7556044,-0.8800954,1.805486,0.1146278,0.06079386,1.357003,0.8712363,312.167,251.1693,68.88586
3,0.8444453,-1.177964,0.7164463,-0.4117616,-0.7499456,3.613438,-2.425001,-1.202701,0.3301137,0,0,10.40078,14.0176,0.1426678,-0.9587765,0.4776696,-0.2010543,-1.445316,-1.000936,0.3007045,-0.4664916,-0.7556044,-0.8800954,1.805486,0.1146278,0.05871918,1.363555,0.8690208,311.9717,249.2685,70.69224
3,0.8555565,-1.214138,0.7501307,-0.2640902,-0.764438,3.580687,-2.359667,-1.214554,-1.087289,0,0,10.37146,14.0176,0.05448306,-0.9133484,0.3709965,-0.1712082,-1.497304,-0.9490451,0.2872165,-0.3618475,-0.6267704,-0.898232,1.796283,0.1112232,0.05661844,1.368753,0.866929,311.8109,247.7704,72.02273
3,0.8666676,-1.214138,0.7501307,-0.2640902,-0.764438,3.580687,-2.359667,-1.174849,3.639496,0,0,10.32258,14.0176,0.05448306,-0.9133484,0.3709965,-0.1712082,-1.497304,-0.9490451,0.2872165,-0.3618475,-0.6267704,-0.898232,1.796283,0.1112232,0.05510946,1.372257,0.8647998,311.6274,246.5372,72.64183
3,0.8777788,-1.233282,0.7518729,-0.2054981,-0.7706426,3.571625,-2.338498,-1.21228,-3.454272,0,0,10.27371,14.00782,0.03205273,-0.8535423,0.3458648,-0.1633125,-1.510523,-0.9356846,0.2875569,-0.3362443,-0.5969871,-0.904254,1.793234,0.1098117,0.05292427,1.376735,0.8633589,311.5958,248.9897,70.21787
3,0.8888899,-1.242829,0.754328,-0.1799724,-0.7760425,3.56177,-2.317507,-1.203167,0.8665535,0,0,10.20528,13.9785,0.01078302,-0.8257456,0.3365764,-0.1547606,-1.524314,-0.9216306,0.2877423,-0.3181083,-0.5821055,-0.9103771,1.790507,0.1082809,0.05068805,1.381769,0.8615634,311.7032,248.0562,71.07451
3,0.900001,-1.255558,0.7375046,-0.1595138,-0.7811275,3.553466,-2.296975,-1.200706,0.2140424,0,0,10.14663,13.84164,-0.0457388,-0.7636911,0.3096165,-0.1483343,-1.538142,-0.9052585,0.2698121,-0.290345,-0.5713482,-0.9167186,1.788468,0.1072213,0.04856114,1.387078,0.8596246,311.368,246.6615,72.35345
3,0.9111122,-1.271417,0.6852782,-0.160978,-0.7843148,3.545931,-2.276967,-1.201352,-0.06004541,0,0,10.08798,13.58749,-0.0892546,-0.6377581,0.2871249,-0.1452456,-1.534848,-0.9059368,0.2520472,-0.2593537,-0.5424953,-0.9218532,1.786942,0.1060561,0.04639433,1.39272,0.8576414,310.9167,245.316,73.65201
3,0.9222233,-1.282962,0.6052959,-0.1653155,-0.7858371,3.540587,-2.258438,-1.200874,0.04441635,0,0,10.04888,13.23558,-0.09878618,-0.5769138,0.2790226,-0.1404956,-1.532922,-0.9060511,0.2395089,-0.2358432,-0.5243182,-0.9271561,1.785488,0.1045813,0.04422159,1.398727,0.8556004,310.6059,244.0055,74.9279
3,0.9333345,-1.272181,0.5490568,-0.1486499,-0.7884586,3.535769,-2.24122,-1.200891,-0.001886477,0,0,10.02933,12.7957,-0.09564416,-0.5459444,0.2588806,-0.1353845,-1.543854,-0.8945896,0.2267408,-0.2326126,-0.5231557,-0.9333282,1.783075,0.1040348,0.04189231,1.40506,0.853648,310.3714,242.607,76.37384
3,0.9444456,-1.223006,0.4702742,-0.1530512,-0.7888454,3.532064,-2.226981,-1.20095,-0.005335001,0,0,10.00978,12.33627,-0.1200346,-0.555545,0.2707391,-0.1278834,-1.557484,-0.8791223,0.2034129,-0.2005777,-0.5230077,-0.9391925,1.782586,0.1029107,0.03943008,1.411544,0.8516255,310.2508,241.0922,77.99048
3,0.9555568,-1.183577,0.4728169,-0.126478,-0.7931139,3.526772,-2.211653,-1.201988,-0.09479649,0,0,10,11.87683,-0.1680927,-0.6182962,0.2761804,-0.1185634,4.696352,-0.846216,0.1928258,-0.1835068,-0.5229498,-0.9452166,1.781534,0.1016734,0.03675105,1.418,0.8494918,310.2027,239.5446,79.59652
3,0.9666679,-1.15907,0.4762627,-0.1105596,-0.7972301,3.521547,-2.19601,-1.204258,-0.2066849,0,0,10,11.43695,-0.2138907,-0.653385,0.2859777,-0.1097478,4.666445,-0.8124396,0.1599645,-0.151429,-0.5173996,-0.9508369,1.781713,0.1009474,0.03391673,1.424256,0.8471285,310.1514,237.9535,81.15593
3,0.977779,-1.143048,0.4593174,-0.1061,-0.800526,3.516523,-2.180201,-1.204313,-0.00349759,0,0,9.990225,10.99707,-0.2881328,-0.6309817,0.3229206,-0.101876,4.661916,-0.8014594,0.1336522,-0.09913148,-0.5012866,-0.955751,1.783267,0.09943018,0.03098445,1.430059,0.8446181,310.1774,236.2325,82.69531
3,0.9888902,-1.143048,0.4593174,-0.1061,-0.800526,3.516523,-2.180201,-1.203654,0.0599785,0,0,9.970675,10.65494,-0.2881328,-0.6309817,0.3229206,-0.101876,4.661916,-0.8014594,0.1336522,-0.09913148,-0.5012866,-0.955751,1.783267,0.09943018,0.02806855,1.435396,0.8421272,310.1131,234.6678,83.92113
3,1.000001,-1.139769,0.4230646,-0.1109855,-0.806157,3.506956,-2.148223,-1.214972,-1.035763,0,0,9.941349,10.39101,-0.3556493,-0.5137976,0.3687991,-0.08978315,4.683082,-0.8121123,0.1138863,-0.04042273,-0.4703244,-0.9651636,1.785673,0.09593612,0.0252964,1.440209,0.8397595,310.1153,233.0757,85.17419
3,1.011112,-1.135417,0.3759739,-0.1306602,-0.8101155,3.497687,-2.11672,-1.190766,2.221667,0,0,9.902249,10.21505,-0.3873894,-0.4935179,0.3883778,-0.07600236,4.681849,-0.8010546,0.1119087,-0.02973857,-0.4564815,-0.9748917,1.786388,0.09309772,0.02335089,1.443775,0.8374738,310.2772,231.0739,86.61527
3,1.022224,-1.135417,0.3759739,-0.1306602,-0.8101155,3.497687,-2.11672,-1.200601,-0.9190767,0,0,9.843597,10.0782,-0.3873894,-0.4935179,0.3883778,-0.07600236,4.681849,-0.8010546,0.1119087,-0.02973857,-0.4564815,-0.9748917,1.786388,0.09309772,0.02076131,1.447637,0.8364199,310.0875,231.6134,85.99277
3,1.033335,-1.123683,0.3695816,-0.1337867,-0.8127712,3.492965,-2.101518,-1.214669,-1.276176,0,0,9.794722,9.931575,-0.4206142,-0.5029259,0.365171,-0.06951756,4.652086,-0.7655515,0.1099041,-0.004155815,-0.4511917,-0.979704,1.788205,0.0909094,0.0181693,1.45186,0.8353087,310.2257,231.5938,86.09177
3,1.044446,-1.106722,0.4123971,-0.1204744,-0.8177263,3.487731,-2.08666,-1.190672,2.203828,0,0,9.745846,9.69697,-0.4582483,-0.5122348,0.3324228,-0.06394409,4.60993,-0.7166321,0.1037045,0.01187126,-0.4351947,-0.9837605,1.789536,0.08925159,0.01647696,1.455529,0.8336908,310.4658,230.1332,87.29086
3,1.055557,-1.071626,0.4512072,-0.09114915,-0.8237663,3.48332,-2.073405,-1.201233,-0.9854817,0,0,9.69697,9.39394,-0.4646272,-0.5250241,0.3366724,-0.05699538,4.571482,-0.673029,0.0888699,0.0310908,-0.4319076,-0.9882245,1.791314,0.08796821,0.01422389,1.460048,0.8327089,310.36,230.3648,87.04099
3,1.066668,-1.057832,0.4834286,-0.0723778,-0.8296306,3.478927,-2.05933,-1.203773,-0.2213788,0,0,9.657869,9.032258,-0.4454607,-0.5037079,0.3281133,-0.05160673,4.544759,-0.6422791,0.08046478,0.05456431,-0.4265506,-0.9925676,1.793666,0.08613063,0.01191034,1.465388,0.8314129,310.4231,229.8613,87.6029
3,1.077779,-1.018497,0.5296021,-0.05060282,-0.8366278,3.474217,-2.046386,-1.20476,-0.08931982,0,0,9.628544,8.621701,-0.4371262,-0.4940184,0.3067837,-0.04668947,4.492418,-0.5851727,0.08064491,0.07163313,-0.4116716,-0.9964601,1.795819,0.0840238,0.009738203,1.471264,0.8297213,310.3748,228.4742,88.99347
3,1.08889,-0.9760195,0.6057583,-0.01747683,-0.8459968,3.469335,-2.033952,-1.203724,0.09509077,0,0,9.608994,8.172044,-0.4586761,-0.5343696,0.2876025,-0.04076501,4.36616,-0.453253,0.06370297,0.091941,-0.4083709,-1.00075,1.798502,0.08240034,0.007886718,1.477291,0.8276656,310.2713,226.5442,90.87217
3,1.100002,-0.9260615,0.665892,0.01264644,-0.8554547,3.464965,-2.022705,-1.204641,-0.08502686,0,0,9.599218,7.820137,-0.4608935,-0.5503004,0.285455,-0.03516651,4.239222,-0.3208816,0.03175667,0.1133346,-0.4155919,-1.005521,1.801476,0.08171217,0.006137146,1.483286,0.8255498,310.1744,224.6791,92.77372
3,1.111113,-0.8994325,0.6789411,0.02845484,-0.8631198,3.461445,-2.011404,-1.205044,-0.0362132,0,0,9.628544,7.614858,-0.4639217,-0.5429152,0.2983017,-0.02990996,4.093884,-0.1707182,0.01398778,0.1411383,-0.3856705,-1.008536,1.804945,0.08039977,0.004438178,1.489093,0.8235292,310.0959,222.9927,94.47199
3,1.122224,-0.8685715,0.6884127,0.0133996,-0.8703269,3.456412,-1.999661,-1.205512,-0.04280616,0,0,9.67742,7.556208,-0.4970911,-0.5363299,0.2826746,-0.02670298,3.904393,0.02598446,0.01111877,0.1646365,-0.356923,-1.011134,1.808439,0.07837284,0.002849995,1.494649,0.8217623,309.9445,221.4526,95.94389
3,1.133335,-0.8675246,0.6924542,-0.004746109,-0.8771409,3.451291,-1.986624,-1.204534,0.08942521,0,0,9.745846,7.693059,-0.5632603,-0.5062232,0.2546004,-0.02566648,3.723435,0.2156311,0.015526,0.1816936,-0.346343,-1.014496,1.811999,0.07608784,0.001439712,1.499849,0.8203123,309.7968,220.0718,97.28214
3,1.144446,-0.8526635,0.7136866,-0.01354057,-0.8850185,3.446083,-1.974428,-1.204587,-0.005915945,0,0,9.833823,8.01564,-0.579452,-0.4985957,0.2270816,-0.02598286,3.51447,0.4315983,0.001894653,0.2073303,-0.3313575,-1.017325,1.81617,0.07432669,0.0002355566,1.504609,0.8191925,309.7333,218.9164,98.45707
3,1.155557,-0.8293576,0.7680587,-0.01637137,-0.8949676,3.440086,-1.962196,-1.203067,0.1388948,0,0,9.921799,8.475073,-0.5551387,-0.5039031,0.2034057,-0.02800793,3.300625,0.6501176,-0.02039142,0.2169998,-0.3247937,-1.020402,1.819782,0.07362522,-0.000888369,1.508989,0.8185257,309.7132,217.988,99.48071
3,1.166668,-0.8091828,0.8034239,-0.002969503,-0.9047845,3.435653,-1.951356,-1.203563,-0.04670384,0,0,10.01955,9.042033,-0.5113286,-0.4955533,0.215865,-0.0293507,3.097135,0.8572543,-0.03939028,0.2362537,-0.3118853,-1.023121,1.823891,0.07259963,-0.002003078,1.513159,0.8182568,309.6296,217.4113,100.1975
3,1.17778,-0.7794957,0.8698157,0.01744422,-0.9168385,3.430534,-1.940659,-1.203876,-0.02816631,0,0,10.10753,9.67742,-0.4896626,-0.419003,0.2319891,-0.02867692,2.974565,0.984102,-0.03812374,0.2586521,-0.2970208,-1.025544,1.828585,0.07040332,-0.002929986,1.517223,0.8181911,309.5202,216.8974,100.7048
3,1.188891,-0.7381143,0.9532716,0.03874063,-0.9303322,3.425504,-1.931196,-1.204047,-0.01558841,0,0,10.18573,10.2346,-0.4862015,-0.3316606,0.2366331,-0.02725053,2.885922,1.0782,-0.03869167,0.2960189,-0.2523395,-1.026126,1.834328,0.06782325,-0.0033847,1.521368,0.8181973,309.3116,216.3383,101.1859
3,1.200002,-0.6881291,0.9983664,0.05839777,-0.9429731,3.421468,-1.923401,-1.204335,-0.02637994,0,0,10.22483,10.65494,-0.4853956,-0.2485509,0.2138733,-0.02718075,2.817951,1.151459,-0.0425262,0.3237992,-0.2118741,-1.026481,1.839815,0.06561816,-0.003410138,1.525738,0.8182327,309.0543,215.7489,101.776
3,1.211113,-0.6890867,0.9490476,0.03239214,-0.9503634,3.417439,-1.913258,-1.205182,-0.07743888,0,0,10.24438,10.94819,-0.4913626,-0.2133307,0.2190978,-0.02624812,2.736149,1.238914,-0.03502646,0.3280419,-0.2087517,-1.028491,1.844378,0.0633084,-0.002542067,1.530453,0.8181308,308.8185,215.0866,102.2064
3,1.222224,-0.6689869,1.011848,0.02415341,-0.9633479,3.411642,-1.90329,-1.205911,-0.06623985,0,0,10.2346,11.1046,-0.4925042,-0.2314122,0.2158434,-0.02881966,2.620064,1.360532,-0.02750562,0.3237735,-0.2002845,-1.030223,1.848457,0.06113686,-0.00103346,1.535834,0.8182449,308.4295,214.0562,103.4014
3,1.233335,-0.6499602,1.052511,0.03312159,-0.9762744,3.406372,-1.893358,-1.203225,0.2458113,0,0,10.18573,11.21212,-0.4863843,-0.3027612,0.2048191,-0.03476384,2.53244,1.453032,-0.02647828,0.314175,-0.2013454,-1.032308,1.852105,0.05953523,0.0004528044,1.541653,0.8187472,308.0406,212.5755,105.8632
3,1.244446,-0.6499602,1.052511,0.03312159,-0.9762744,3.406372,-1.893358,-1.203805,-0.05557086,0,0,10.12708,11.30987,-0.4863843,-0.3027612,0.2048191,-0.03476384,2.53244,1.453032,-0.02647828,0.314175,-0.2013454,-1.032308,1.852105,0.05953523,0.00151225,1.547368,0.8194245,307.8308,211.2422,108.3482
3,1.255558,-0.6499602,1.052511,0.03312159,-0.9762744,3.406372,-1.893358,-1.210131,-0.5778036,0,0,10.04888,11.40763,-0.4863843,-0.3027612,0.2048191,-0.03476384,2.53244,1.453032,-0.02647828,0.314175,-0.2013454,-1.032308,1.852105,0.05953523,0.002288911,1.552533,0.8197753,307.6567,210.0476,110.4157
3,1.266669,-0.4879084,1.044448,0.1247079,-1.012264,3.399922,-1.877868,-1.210035,0.01312861,0,0,9.951125,11.4956,-0.4839099,-0.3701431,0.2620332,-0.04979419,2.30258,1.698633,-0.04648589,0.2834067,-0.1627765,-1.036479,1.861926,0.05689178,0.003287369,1.555695,0.8190446,307.9672,208.7037,112.3436
3,1.27778,-0.4600163,1.008457,0.1367632,-1.021684,3.398194,-1.873073,-1.193986,1.465902,0,0,9.843597,11.59335,-0.4707177,-0.341589,0.2993328,-0.05333193,2.219114,1.786596,-0.03571129,0.2748836,-0.1458071,-1.037335,1.865205,0.0551269,0.003785338,1.557652,0.8185489,308.0955,208.0062,112.3344
3,1.288891,-0.4470823,0.9447087,0.1492843,-1.030089,3.398094,-1.868712,-1.204327,-0.9581399,0,0,9.736072,11.73998,-0.4597553,-0.2852405,0.3175888,-0.05515993,2.14962,1.860622,-0.03025308,0.2674411,-0.1277292,-1.037904,1.868353,0.05362621,0.003552544,1.561927,0.8200331,306.8323,208.1037,110.8787
3,1.300002,-0.4445781,0.7659271,0.1653288,-1.031933,3.400578,-1.865172,-1.205299,-0.0785381,0,0,9.628544,11.94526,-0.4200471,-0.2481205,0.3398222,-0.05766436,2.073044,1.940241,-0.03338677,0.257885,-0.1170352,-1.038715,1.871326,0.05260915,0.00348399,1.567084,0.8216763,306.0092,207.2693,112.5656
3,1.311113,-0.4451227,0.5166262,0.1641333,-1.028323,3.404092,-1.862173,-1.20448,0.07437355,0,0,9.530792,12.19941,-0.3740671,-0.2355308,0.3554551,-0.06134485,2.017973,1.997404,-0.03769855,0.2493747,-0.1191211,-1.040107,1.874257,0.05179316,0.00230003,1.572084,0.8230463,305.6669,205.9199,116.0251
3,1.322224,-0.3934553,0.269189,0.2204131,-1.022263,3.412343,-1.864418,-1.203573,0.08190133,0,0,9.452591,12.43402,-0.3123842,-0.2143057,0.3347736,-0.06392173,1.988948,2.027027,-0.05597357,0.2302327,-0.1317167,-1.042008,1.87633,0.05212019,0.0006387644,1.575834,0.8233125,305.7607,204.7774,117.9031
3,1.333336,-0.3217546,0.1227514,0.2551995,-1.019502,3.418571,-1.867451,-1.203276,0.02647173,0,0,9.384165,12.65885,-0.3200351,-0.2024466,0.3071906,-0.06645812,1.971704,2.048059,-0.07536829,0.1855295,-0.1410595,-1.043951,1.876583,0.0536603,-0.001541592,1.578178,0.8225122,306.047,204.0035,118.4942
3,1.344447,-0.230925,-0.01426598,0.2728149,-1.015169,3.424778,-1.872226,-1.205782,-0.2293815,0,0,9.325513,12.86413,-0.3914086,-0.2150842,0.313056,-0.07086885,1.945708,2.081561,-0.06283591,0.122619,-0.1485136,-1.045951,1.875239,0.05434846,-0.004419508,1.579289,0.8209842,306.4477,203.6557,118.3
3,1.355558,-0.2062915,-0.1027726,0.2578724,-1.011635,3.428001,-1.872226,-1.207432,-0.1493666,0,0,9.286413,12.98143,-0.4435413,-0.2619208,0.3356594,-0.07746763,1.924567,2.109764,-0.0491743,0.09166288,-0.1592267,-1.048175,1.874972,0.05443341,-0.008303787,1.579386,0.8190981,306.7537,203.4321,117.8612
3,1.366669,-0.1849996,-0.09256513,0.2172099,-1.011104,3.428263,-1.871588,-1.208658,-0.111642,0,0,9.266863,12.98143,-0.4380634,-0.282252,0.3589961,-0.08325148,1.894412,2.144327,-0.033424,0.07559153,-0.1806376,-1.05108,1.875406,0.05392954,-0.01301054,1.578668,0.8171973,306.9974,203.3589,116.9633
3,1.37778,-0.2172986,0.07411242,0.1746823,-1.018634,3.42555,-1.86641,-1.204901,0.3439698,0,0,9.257087,12.8739,-0.4220982,-0.3153545,0.3672369,-0.0897432,1.881895,2.160757,-0.03143862,0.1011036,-0.2073339,-1.054396,1.87817,0.05281395,-0.01803867,1.577276,0.8155473,307.3433,203.5136,115.5567
3,1.388891,-0.2172986,0.07411242,0.1746823,-1.018634,3.42555,-1.86641,-1.204907,-0.003909751,0,0,9.247313,12.64907,-0.4220982,-0.3153545,0.3672369,-0.0897432,1.881895,2.160757,-0.03143862,0.1011036,-0.2073339,-1.054396,1.87817,0.05281395,-0.02281581,1.575596,0.8143483,307.6086,204.1475,113.5792
3,1.400002,-0.1251743,0.9700908,0.3319359,-1.078427,3.423192,-1.863072,-1.205355,-0.04086968,0,0,9.237537,12.85435,-0.291551,-0.1554026,0.2581959,-0.09410226,1.840796,2.208105,-0.02919773,0.1224216,-0.2020636,-1.060966,1.884485,0.05070286,-0.02669201,1.574279,0.8137028,307.791,205.0246,111.4134
3,1.411114,-0.1251743,0.9700908,0.3319359,-1.078427,3.423192,-1.863072,-1.198107,0.6626989,0,0,9.208211,13.61681,-0.291551,-0.1554026,0.2581959,-0.09410226,1.840796,2.208105,-0.02919773,0.1224216,-0.2020636,-1.060966,1.884485,0.05070286,-0.02902772,1.573876,0.8138296,307.5483,205.4087,109.7673
3,1.422225,-0.05320376,1.228695,0.384113,-1.102812,3.422153,-1.864613,-1.204451,-0.5855983,0,0,9.169111,14.90714,-0.2126538,-0.1113691,0.1266792,-0.09147532,1.872557,2.175507,-0.009834349,0.1096248,-0.1745041,-1.061804,1.885417,0.0496328,-0.03010781,1.576567,0.8157031,306.0705,204.9458,109.7664
3,1.433336,-0.01498061,1.308785,0.3926192,-1.120464,3.42088,-1.865561,-1.206318,-0.1650585,0,0,9.120235,16.72532,-0.1953934,-0.1504528,0.03900932,-0.09266203,1.921168,2.128649,-0.003323808,0.07663363,-0.1478688,-1.062443,1.884955,0.04969032,-0.02871323,1.579951,0.817208,305.5491,204.2964,111.1913
3,1.444447,0.1019658,1.435337,0.3536767,-1.141577,3.415724,-1.868962,-1.206761,-0.04015099,0,0,9.051809,19.12024,-0.2032039,-0.2067885,0.01326455,-0.09637021,1.952101,2.100388,-0.03222398,0.04794493,-0.1528943,-1.064404,1.884305,0.051656,-0.0252005,1.584053,0.8186003,304.6783,202.3305,114.0718
3,1.455558,0.1127828,1.333263,0.2824924,-1.15135,3.412439,-1.869227,-1.205732,0.09357428,0,0,9.002934,21.98436,-0.1938003,-0.1971284,-0.01127385,-0.09751111,1.97016,2.084147,-0.07175127,0.07252972,-0.1749762,-1.06713,1.886495,0.05302354,-0.0202936,1.588584,0.8200745,303.6676,199.7106,118.0972
3,1.466669,0.090931,1.033642,0.1796756,-1.149002,3.410311,-1.868292,-1.20909,-0.3083649,0,0,8.983382,25.26882,-0.1843257,-0.2195023,-0.01999198,-0.1001892,1.991961,2.06385,-0.08776789,0.1034461,-0.1898055,-1.069559,1.889439,0.05319291,-0.01486655,1.593163,0.8216869,303.0493,197.5164,121.9718
3,1.47778,0.100041,0.7112426,0.1261674,-1.143425,3.411632,-1.870322,-1.204867,0.3881571,0,0,8.993157,28.76833,-0.1695469,-0.2344149,-0.03190538,-0.1028705,2.015232,2.041939,-0.1059619,0.1226472,-0.2067314,-1.07245,1.892165,0.05387308,-0.009154872,1.596976,0.8233948,302.9,195.2283,125.7879
3,1.488891,0.1302639,0.4936385,0.1000842,-1.139911,3.41277,-1.87352,-1.202258,0.2346373,0,0,9.032258,31.95503,-0.1491293,-0.1812257,-0.02868155,-0.1026068,2.018948,2.038861,-0.1143739,0.1269624,-0.1917523,-1.073865,1.894077,0.05483235,-0.004174273,1.599726,0.8253688,302.8665,193.795,128.9047
3,1.500003,0.1603022,0.3901814,0.08423088,-1.140917,3.411856,-1.87611,-1.203418,-0.1078569,0,0,9.110459,34.79961,-0.1023718,-0.01010744,0.03026138,-0.09782643,1.963427,2.093243,-0.09899497,0.1419168,-0.1429043,-1.073349,1.896513,0.05413514,-0.000837191,1.60104,0.827299,302.9077,193.6873,130.5889
3,1.511114,0.1965518,0.380603,0.08009921,-1.145567,3.411372,-1.879653,-1.204634,-0.1103575,0,0,9.169111,37.15543,-0.06685267,0.03868207,0.05787593,-0.09684585,1.935772,2.120055,-0.07106233,0.05246057,-0.08225238,-1.072044,1.893401,0.05532185,0.000375268,1.600725,0.8288341,302.7891,194.2057,130.9521
3,1.522225,0.1965518,0.380603,0.08009921,-1.145567,3.411372,-1.879653,-1.204465,0.01570525,0,0,9.217987,39.07136,-0.06685267,0.03868207,0.05787593,-0.09684585,1.935772,2.120055,-0.07106233,0.05246057,-0.08225238,-1.072044,1.893401,0.05532185,-0.0002510026,1.598813,0.8297104,302.4514,195.1587,129.8295
3,1.533336,0.1965518,0.380603,0.08009921,-1.145567,3.411372,-1.879653,-1.200768,0.3371323,0,0,9.257087,40.58651,-0.06685267,0.03868207,0.05787593,-0.09684585,1.935772,2.120055,-0.07106233,0.05246057,-0.08225238,-1.072044,1.893401,0.05532185,-0.001991801,1.595886,0.8300421,302.0352,196.4399,127.5695
3,1.544447,0.3350431,0.3774315,-0.02327473,-1.156349,3.402663,-1.891652,-1.199546,0.1078981,0,0,9.247313,41.79863,-0.003889777,0.07473484,0.05643098,-0.09394354,1.889373,2.164322,-0.03282406,-0.02859029,-0.06751238,-1.073562,1.889272,0.05731016,-0.004517867,1.592828,0.8302263,301.6742,197.8655,125.0539
3,1.555558,0.3404753,0.3257357,-0.06842043,-1.157253,3.399703,-1.894579,-1.213094,-1.240496,0,0,9.198437,42.93255,0.009572197,0.0002277745,0.03041557,-0.09619551,1.913873,2.139006,-0.03515338,0.02673166,-0.1112737,-1.076538,1.892389,0.05634423,-0.007138051,1.590238,0.8303659,301.477,199.2892,122.2923
3,1.566669,0.3320221,0.2839384,-0.08707441,-1.158081,3.397374,-1.897012,-1.201505,1.068331,0,0,9.120235,44.06647,0.02805772,-0.09866609,-0.02131527,-0.09945682,1.962675,2.089338,-0.0322029,0.06818794,-0.1561099,-1.079603,1.89531,0.05515327,-0.008215248,1.587892,0.8308645,301.7061,199.2836,120.7204
3,1.577781,0.2799746,0.2098932,-0.122373,-1.15657,3.394455,-1.897034,-1.197469,0.3564757,0,0,9.002934,45.19062,0.05420068,-0.1539425,-0.06546673,-0.1016885,2.00229,2.04795,-0.0598684,0.08744206,-0.1601725,-1.081469,1.897274,0.05587339,-0.007793942,1.585982,0.832399,301.6308,199.2535,120.2058
3,1.588892,0.2502362,0.1714371,-0.1261814,-1.157714,3.389918,-1.899693,-1.194088,0.3047896,0,0,8.895406,46.48094,0.08519524,-0.1039413,-0.06870079,-0.1012981,2.017024,2.030116,-0.07903217,0.09389167,-0.161087,-1.084953,1.90018,0.05706834,-0.00606973,1.584448,0.8349012,301.3926,199.6513,120.1687
3,1.600003,0.2096943,0.2089,-0.1096435,-1.163213,3.384815,-1.900101,-1.18911,0.4507382,0,0,8.787879,47.73216,0.07332692,0.0438825,-0.00615309,-0.09583012,1.957479,2.087901,-0.07322299,0.05884623,-0.09182976,-1.083954,1.899789,0.05855972,-0.003324323,1.583176,0.8379574,300.8676,200.4674,120.2291
3,1.611114,0.2096943,0.2089,-0.1096435,-1.163213,3.384815,-1.900101,-1.189071,-0.002609466,0,0,8.670577,48.86609,0.07332692,0.0438825,-0.00615309,-0.09583012,1.957479,2.087901,-0.07322299,0.05884623,-0.09182976,-1.083954,1.899789,0.05855972,0.0002231421,1.582161,0.8411385,300.2805,201.6774,119.9498
3,1.622225,0.2148455,0.330419,-0.1047995,-1.174602,3.377739,-1.902628,-1.181507,0.6892849,0,0,8.533725,49.90225,0.05437172,0.1227397,-0.004583716,-0.09079302,1.925403,2.119258,-0.03460746,-0.05087854,-0.0216528,-1.081576,1.892335,0.06090996,0.004344819,1.58137,0.8442315,299.7245,202.3784,120.2684
3,1.633336,0.2148455,0.330419,-0.1047995,-1.174602,3.377739,-1.902628,-1.179595,0.1657917,0,0,8.396872,50.77224,0.05437172,0.1227397,-0.004583716,-0.09079302,1.925403,2.119258,-0.03460746,-0.05087854,-0.0216528,-1.081576,1.892335,0.06090996,0.008407811,1.580756,0.8470075,299.0755,202.7933,120.8959
3,1.644447,0.2243159,0.4121993,-0.1260563,-1.185756,3.369512,-1.905118,-1.173098,0.5895061,0,0,8.29912,51.34898,0.03140663,-0.01875707,-0.03485228,-0.09533797,1.982732,2.062352,-0.01449013,-0.03713246,-0.04208616,-1.083293,1.892134,0.06034643,0.01265173,1.580086,0.8492071,298.623,202.82,121.54
3,1.655559,0.2243159,0.4121993,-0.1260563,-1.185756,3.369512,-1.905118,-1.173203,-0.018454,0,0,8.269795,51.68133,0.03140663,-0.01875707,-0.03485228,-0.09533797,1.982732,2.062352,-0.01449013,-0.03713246,-0.04208616,-1.083293,1.892134,0.06034643,0.01617776,1.579724,0.8513076,298.1882,202.7918,122.2935
3,1.66667,0.2234155,0.3380004,-0.1720544,-1.186317,3.36227,-1.907735,-1.163062,0.9236676,0,0,8.29912,51.77908,0.07692998,-0.06352089,-0.0567603,-0.09728474,2.021219,2.020124,-0.0295701,0.02568704,-0.08468433,-1.086938,1.896241,0.05978876,0.0194642,1.579416,0.8533866,297.93,202.1965,123.2103
3,1.677781,0.2234155,0.3380004,-0.1720544,-1.186317,3.36227,-1.907735,-1.162101,0.07510222,0,0,8.387097,51.73998,0.07692998,-0.06352089,-0.0567603,-0.09728474,2.021219,2.020124,-0.0295701,0.02568704,-0.08468433,-1.086938,1.896241,0.05978876,0.02204032,1.579003,0.8555683,297.6641,201.9056,124.0306
3,1.688892,0.2023155,0.1967334,-0.2214314,-1.181925,3.355092,-1.908055,-1.150706,1.037062,0,0,8.553275,51.80841,0.1069236,-0.0007568747,-0.05567439,-0.09464395,2.021687,2.016005,-0.04202392,0.0502828,-0.05479723,-1.086683,1.898855,0.06012832,0.02440405,1.578183,0.8579293,297.522,201.4134,124.7487
3,1.700003,0.2023155,0.1967334,-0.2214314,-1.181925,3.355092,-1.908055,-1.14849,0.1884008,0,0,8.797654,51.97459,0.1069236,-0.0007568747,-0.05567439,-0.09464395,2.021687,2.016005,-0.04202392,0.0502828,-0.05479723,-1.086683,1.898855,0.06012832,0.0257028,1.576913,0.8606135,297.0498,200.9733,126.618
3,1.711114,0.1959605,0.1883742,-0.2064488,-1.183965,3.349265,-1.909964,-1.136445,1.09498,0,0,9.061584,51.93549,0.1573522,0.0917242,-0.04079314,-0.0889549,1.99582,2.035908,-0.0329329,0.03547752,0.01866253,-1.082981,1.898886,0.06053232,0.02482708,1.574606,0.8635285,296.8114,200.9251,128.4716
3,1.722225,0.1959605,0.1883742,-0.2064488,-1.183965,3.349265,-1.909964,-1.131226,0.4621043,0,0,9.305963,51.5738,0.1573522,0.0917242,-0.04079314,-0.0889549,1.99582,2.035908,-0.0329329,0.03547752,0.01866253,-1.082981,1.898886,0.06053232,0.02291769,1.57081,0.8657175,296.5219,202.7373,126.3341
3,1.733337,0.1959605,0.1883742,-0.2064488,-1.183965,3.349265,-1.909964,-1.120542,0.9676864,0,0,9.47214,50.83089,0.1573522,0.0917242,-0.04079314,-0.0889549,1.99582,2.035908,-0.0329329,0.03547752,0.01866253,-1.082981,1.898886,0.06053232,0.02113584,1.565954,0.8673838,296.4923,205.3689,122.2031
3,1.744448,0.2076225,0.229109,-0.1877702,-1.189484,3.343648,-1.913259,-1.111886,0.777205,0,0,9.569892,49.73607,0.1576274,0.09583212,-0.01095982,-0.08753278,1.977794,2.050229,-0.04028694,0.004650926,0.04222079,-1.080996,1.89729,0.06251318,0.01978367,1.561154,0.8691417,295.9158,207.8647,118.4862
3,1.755559,0.1949123,0.1992193,-0.1906104,-1.190879,3.337645,-1.914955,-1.107291,0.407649,0,0,9.608994,48.31867,0.07998694,0.04688454,0.01823459,-0.08932243,1.969529,2.060272,-0.04471437,0.0269842,0.01451302,-1.081992,1.899229,0.06280613,0.01909478,1.556952,0.8710625,295.2546,210.2489,115.4601
3,1.76667,0.1949123,0.1992193,-0.1906104,-1.190879,3.337645,-1.914955,-1.099724,0.6819186,0,0,9.589444,46.60802,0.07998694,0.04688454,0.01823459,-0.08932243,1.969529,2.060272,-0.04471437,0.0269842,0.01451302,-1.081992,1.899229,0.06280613,0.01974709,1.55344,0.8731445,294.9832,211.9988,113.2629
3,1.777781,0.1727015,0.09361424,-0.1999709,-1.186687,3.332641,-1.915366,-1.084814,1.350625,0,0,9.511242,44.61388,0.1114089,-0.0446515,-0.01974544,-0.09288573,2.015659,2.010209,-0.04540378,0.04386981,-0.07181323,-1.087775,1.901697,0.06281039,0.02192882,1.550552,0.8757908,294.6455,212.4,112.9133
3,1.788892,0.1727015,0.09361424,-0.1999709,-1.186687,3.332641,-1.915366,-1.078398,0.5682681,0,0,9.41349,42.45357,0.1114089,-0.0446515,-0.01974544,-0.09288573,2.015659,2.010209,-0.04540378,0.04386981,-0.07181323,-1.087775,1.901697,0.06281039,0.02506262,1.548206,0.8789362,293.9964,213.1688,112.9255
3,1.800003,0.127988,0.06569609,-0.2134813,-1.185367,3.326641,-1.913584,-1.065115,1.203545,0,0,9.335289,40.45944,0.07911079,-0.127592,-0.03687866,-0.09840913,2.060657,1.965154,-0.0656077,0.06948742,-0.07702087,-1.089718,1.904831,0.06373264,0.0290425,1.546132,0.8822967,293.4901,214.1798,112.9174
3,1.811115,0.127988,0.06569609,-0.2134813,-1.185367,3.326641,-1.913584,-1.057031,0.7218298,0,0,9.296188,38.61193,0.07911079,-0.127592,-0.03687866,-0.09840913,2.060657,1.965154,-0.0656077,0.06948742,-0.07702087,-1.089718,1.904831,0.06373264,0.03323153,1.544133,0.8856472,292.9124,215.2176,113.1589
3,1.822226,0.06197241,0.03484249,-0.2035585,-1.18361,3.3216,-1.909489,-1.045016,1.086035,0,0,9.296188,36.92082,0.0842336,0.02021181,0.02126529,-0.09340345,2.001017,2.022531,-0.07362636,0.07494137,-0.02050016,-1.087446,1.906972,0.06464531,0.0373967,1.541857,0.8887807,292.6185,216.2897,113.1776
3,1.833337,0.06197241,0.03484249,-0.2035585,-1.18361,3.3216,-1.909489,-1.035157,0.8851784,0,0,9.325513,35.3568,0.0842336,0.02021181,0.02126529,-0.09340345,2.001017,2.022531,-0.07362636,0.07494137,-0.02050016,-1.087446,1.906972,0.06464531,0.0409866,1.539399,0.8917481,292.0844,217.4362,112.9936
3,1.844448,0.03969537,-0.01182342,-0.1837649,-1.180303,3.319478,-1.909029,-1.024604,0.9506198,0,0,9.374389,33.92962,0.08644509,0.04895483,0.02135983,-0.09158292,1.987746,2.033446,-0.05873886,0.06850015,-0.02168535,-1.088035,1.908261,0.06460483,0.04401108,1.536699,0.8945065,291.6909,218.8143,112.2363
3,1.855559,0.03969537,-0.01182342,-0.1837649,-1.180303,3.319478,-1.909029,-1.0122,1.119174,0,0,9.433041,32.88367,0.08644509,0.04895483,0.02135983,-0.09158292,1.987746,2.033446,-0.05873886,0.06850015,-0.02168535,-1.088035,1.908261,0.06460483,0.04625561,1.533892,0.8969999,291.2078,220.6172,110.8532
3,1.86667,0.05564591,0.01324354,-0.1414541,-1.181078,3.317999,-1.91067,-1.004092,0.7251913,0,0,9.511242,32.19941,0.06901311,0.0001281649,-0.009603722,-0.09271635,2.013712,2.006841,-0.05055938,0.05243525,-0.05474445,-1.090449,1.90911,0.06520057,0.04784052,1.531317,0.8991431,290.9959,222.8217,108.6868
3,1.877781,0.05564591,0.01324354,-0.1414541,-1.181078,3.317999,-1.91067,-0.9945884,0.8562065,0,0,9.599218,31.85728,0.06901311,0.0001281649,-0.009603722,-0.09271635,2.013712,2.006841,-0.05055938,0.05243525,-0.05474445,-1.090449,1.90911,0.06520057,0.04818792,1.530152,0.9002286,290.9354,223.2443,108.1246
3,1.888893,0.03106411,0.06878903,-0.1272425,-1.1844,3.314533,-1.909219,-0.9841094,0.943912,0,0,9.667644,31.79863,-0.03106235,-0.0935324,0.02385067,-0.09956547,2.025247,2.000331,-0.03924835,0.02356236,-0.09207497,-1.094176,1.908472,0.06593614,0.04848498,1.52919,0.9009295,291.5869,221.726,109.5592
3,1.900004,0.03106411,0.06878903,-0.1272425,-1.1844,3.314533,-1.909219,-0.9760389,0.722986,0,0,9.736072,32.03324,-0.03106235,-0.0935324,0.02385067,-0.09956547,2.025247,2.000331,-0.03924835,0.02356236,-0.09207497,-1.094176,1.908472,0.06593614,0.04870467,1.528597,0.9013067,291.8878,220.5119,110.6604
3,1.911115,-0.03818683,0.08178656,-0.1029649,-1.185987,3.311595,-1.904203,-0.9639407,1.093444,0,0,9.784947,32.20919,-0.04473028,-0.08293419,0.04212397,-0.1014393,2.01389,2.013225,-0.03917149,0.04487377,-0.0899848,-1.096009,1.910805,0.0658645,0.04896211,1.527914,0.9016557,292.1895,219.185,111.8312
3,1.922226,-0.03818683,0.08178656,-0.1029649,-1.185987,3.311595,-1.904203,-0.9536146,0.9280847,0,0,9.824047,32.26784,-0.04473028,-0.08293419,0.04212397,-0.1014393,2.01389,2.013225,-0.03917149,0.04487377,-0.0899848,-1.096009,1.910805,0.0658645,0.04922623,1.52731,0.9020382,292.2794,217.3763,113.4303
3,1.933337,-0.09469179,0.1227622,-0.05880092,-1.190327,3.310087,-1.899277,-0.9441434,0.8520561,0,0,9.833823,32.01369,-0.03105215,-0.07968866,0.0217765,-0.1031197,2.027121,2.000085,-0.03757279,0.07372523,-0.03678752,-1.094254,1.913912,0.06524372,0.0496107,1.526879,0.90247,292.4335,216.1143,114.4028
3,1.944448,-0.09469179,0.1227622,-0.05880092,-1.190327,3.310087,-1.899277,-0.9310192,1.186772,0,0,9.843597,31.35875,-0.03105215,-0.07968866,0.0217765,-0.1031197,2.027121,2.000085,-0.03757279,0.07372523,-0.03678752,-1.094254,1.913912,0.06524372,0.05000447,1.526487,0.9028634,292.6576,215.1828,115.0489
3,1.955559,-0.1480446,0.1805324,-0.03507447,-1.196924,3.307798,-1.892799,-0.9255662,0.4826607,0,0,9.843597,30.52786,-0.04348397,-0.003044479,0.04034023,-0.1008299,1.998457,2.030034,-0.02237187,0.02583675,0.01537886,-1.091514,1.91204,0.0660954,0.05049397,1.526456,0.9032293,292.6642,214.6975,115.142
3,1.966671,-0.1480446,0.1805324,-0.03507447,-1.196924,3.307798,-1.892799,-0.9129204,1.146783,0,0,9.833823,29.58945,-0.04348397,-0.003044479,0.04034023,-0.1008299,1.998457,2.030034,-0.02237187,0.02583675,0.01537886,-1.091514,1.91204,0.0660954,0.05089608,1.526282,0.9035566,292.7504,214.0701,115.4562
3,1.977782,-0.2056558,0.2329146,-0.01445846,-1.20441,3.305862,-1.884758,-0.9082966,0.4071646,0,0,9.814272,28.55328,-0.07122479,0.002388477,0.03314324,-0.1006441,1.992964,2.038209,-0.008679718,0.0161744,-0.0007021886,-1.092325,1.911957,0.06556144,0.05129397,1.526292,0.9039066,292.6234,213.395,115.7897
3,1.988893,-0.2056558,0.2329146,-0.01445846,-1.20441,3.305862,-1.884758,-0.8949286,1.213829,0,0,9.784947,27.52688,-0.07122479,0.002388477,0.03314324,-0.1006441,1.992964,2.038209,-0.008679718,0.0161744,-0.0007021886,-1.092325,1.911957,0.06556144,0.05164994,1.526092,0.9042777,292.7187,212.7246,116.1877
3,2.000004,-0.2365054,0.2040933,-0.01516069,-1.207147,3.304409,-1.877808,-0.8919086,0.2602701,0,0,9.784947,26.88172,-0.08388454,-0.1405803,0.08799637,-0.111228,1.999234,2.034427,-0.01017252,0.01076256,-0.04968324,-1.09566,1.91217,0.06570578,0.05217253,1.526255,0.9047415,292.2102,211.1697,117.1977
3,2.011115,-0.2365054,0.2040933,-0.01516069,-1.207147,3.304409,-1.877808,-0.8774136,1.318454,0,0,9.794722,26.60802,-0.08388454,-0.1405803,0.08799637,-0.111228,1.999234,2.034427,-0.01017252,0.01076256,-0.04968324,-1.09566,1.91217,0.06570578,0.05249868,1.526191,0.9050984,292.1324,210.4134,117.6777
3,2.022226,-0.3609855,0.1521519,-0.05610402,-1.205592,3.301152,-1.86401,-0.8764111,0.07513865,0,0,9.833823,26.68622,-0.09739432,-0.1940612,0.1411483,-0.1198039,1.981284,2.054815,-0.0270666,0.06088585,-0.05069723,-1.096862,1.916597,0.06503652,0.05254547,1.52649,0.9054027,291.7283,209.9956,118.0186
3,2.033337,-0.3609855,0.1521519,-0.05610402,-1.205592,3.301152,-1.86401,-0.8635172,1.174208,0,0,9.892473,27.02835,-0.09739432,-0.1940612,0.1411483,-0.1198039,1.981284,2.054815,-0.0270666,0.06088585,-0.05069723,-1.096862,1.916597,0.06503652,0.05258293,1.526489,0.9056283,291.7392,209.9481,118.0582
3,2.044448,-0.4685984,0.1733502,-0.05213791,-1.210108,3.299029,-1.848462,-0.8620669,0.1174285,0,0,9.970675,27.42913,-0.07325268,-0.1070231,0.1988646,-0.1220804,1.92559,2.110867,-0.01295376,0.05984006,-0.01992062,-1.095915,1.918012,0.06399736,0.05262531,1.526801,0.9059001,291.4571,209.9849,117.9768
3,2.055559,-0.4685984,0.1733502,-0.05213791,-1.210108,3.299029,-1.848462,-0.843364,1.705117,0,0,10.05865,27.89834,-0.07325268,-0.1070231,0.1988646,-0.1220804,1.92559,2.110867,-0.01295376,0.05984006,-0.01992062,-1.095915,1.918012,0.06399736,0.05251152,1.526698,0.9061905,291.5287,209.8114,118.2798
3,2.06667,-0.5942593,0.1464614,-0.05713081,-1.211648,3.297254,-1.829067,-0.8480921,-0.4515959,0,0,10.1564,28.40665,-0.07075723,0.01117614,0.2068319,-0.119911,1.864567,2.172448,0.02259639,0.01403843,0.04271455,-1.092177,1.915631,0.0629273,0.05174836,1.527037,0.9064706,291.1693,210.1006,118.6256
3,2.077781,-0.5942593,0.1464614,-0.05713081,-1.211648,3.297254,-1.829067,-0.8284807,1.793924,0,0,10.25415,28.92473,-0.07075723,0.01117614,0.2068319,-0.119911,1.864567,2.172448,0.02259639,0.01403843,0.04271455,-1.092177,1.915631,0.0629273,0.05157995,1.52715,0.9067385,291.1264,210.4223,118.4789
3,2.088892,-0.6806921,0.2361807,-0.02955374,-1.220766,3.295322,-1.80947,-0.8354363,-0.6563366,0,0,10.34213,29.36461,-0.1162373,-0.1542245,0.2917113,-0.1351102,1.847672,2.194014,0.0380267,0.02984389,-0.02776069,-1.09601,1.917603,0.06046121,0.05172492,1.528086,0.9071241,290.3164,210.8056,117.9202
3,2.100003,-0.6806921,0.2361807,-0.02955374,-1.220766,3.295322,-1.80947,-0.8125054,2.099626,0,0,10.42033,29.57967,-0.1162373,-0.1542245,0.2917113,-0.1351102,1.847672,2.194014,0.0380267,0.02984389,-0.02776069,-1.09601,1.917603,0.06046121,0.0520399,1.528651,0.9074259,289.9302,211.5315,116.933
3,2.111114,-0.8065546,0.3334073,0.006437391,-1.232979,3.294247,-1.785279,-0.8235421,-1.031769,0,0,10.49853,29.59922,-0.1569134,-0.2036545,0.4079501,-0.149439,1.799132,2.247432,0.03351341,0.0244924,-0.05327296,-1.098377,1.918208,0.06001087,0.05201387,1.530135,0.9078379,289.0803,212.9823,115.7712
3,2.122225,-0.8065546,0.3334073,0.006437391,-1.232979,3.294247,-1.785279,-0.8013073,2.039731,0,0,10.57674,29.43304,-0.1569134,-0.2036545,0.4079501,-0.149439,1.799132,2.247432,0.03351341,0.0244924,-0.05327296,-1.098377,1.918208,0.06001087,0.05184464,1.531227,0.9075153,288.8694,213.9981,114.581
3,2.133336,-0.9622095,0.4017071,0.0332385,-1.245381,3.293948,-1.757039,-0.8126827,-1.062565,0,0,10.65494,29.09091,-0.2102748,-0.2802832,0.417648,-0.1629849,1.791686,2.261636,0.05518742,0.01918178,-0.008702543,-1.096263,1.918244,0.05762042,0.05146781,1.532928,0.9078333,287.3758,215.1059,113.7084
3,2.144447,-0.9622095,0.4017071,0.0332385,-1.245381,3.293948,-1.757039,-0.7858461,2.460841,0,0,10.74291,28.5826,-0.2102748,-0.2802832,0.417648,-0.1629849,1.791686,2.261636,0.05518742,0.01918178,-0.008702543,-1.096263,1.918244,0.05762042,0.05118947,1.534469,0.9071903,287.3043,217.3144,111.3455
3,2.155558,-1.038969,0.3926253,0.07485646,-1.255137,3.295654,-1.730153,-0.8019763,-1.50065,0,0,10.79179,27.88856,-0.2204558,-0.2794478,0.4710183,-0.1760967,1.755512,2.302533,0.08176889,-0.009649046,-0.003547238,-1.096321,1.916549,0.05547098,0.05059703,1.537023,0.9068801,286.1544,220.8152,107.8947
3,2.166669,-1.038969,0.3926253,0.07485646,-1.255137,3.295654,-1.730153,-0.7717713,2.773243,0,0,10.82111,27.0088,-0.2204558,-0.2794478,0.4710183,-0.1760967,1.755512,2.302533,0.08176889,-0.009649046,-0.003547238,-1.096321,1.916549,0.05547098,0.05012008,1.538723,0.9065314,286.0648,223.7273,105.0156
3,2.17778,-1.114672,0.4025033,0.1023791,-1.26562,3.297572,-1.701941,-0.7920358,-1.881533,0,0,10.79179,26.07038,-0.2332138,-0.3722261,0.4994685,-0.193762,1.752772,2.310876,0.09299443,-0.03213996,-0.05153054,-1.099491,1.914762,0.05390318,0.04945215,1.541648,0.9064285,284.7271,228.8851,99.94719
3,2.188891,-1.114672,0.4025033,0.1023791,-1.26562,3.297572,-1.701941,-0.7631496,2.656294,0,0,10.72336,25.14174,-0.2332138,-0.3722261,0.4994685,-0.193762,1.752772,2.310876,0.09299443,-0.03213996,-0.05153054,-1.099491,1.914762,0.05390318,0.04882042,1.543409,0.9064731,284.789,232.8044,96.1858
3,2.200002,-1.114672,0.4025033,0.1023791,-1.26562,3.297572,-1.701941,-0.7826838,-1.814231,0,0,10.60606,24.20333,-0.2332138,-0.3722261,0.4994685,-0.193762,1.752772,2.310876,0.09299443,-0.03213996,-0.05153054,-1.099491,1.914762,0.05390318,0.04810621,1.546307,0.9065795,283.8445,239.2599,89.83734
3,2.211113,-1.154996,0.3191732,0.08963525,-1.268979,3.299159,-1.675425,-0.7801715,0.2436502,0,0,10.45943,23.24536,-0.2300598,-0.4212741,0.5066732,-0.2100052,1.74841,2.319802,0.1011308,-0.02266216,-0.09955171,-1.103755,1.915107,0.05119554,0.04660703,1.548882,0.9075534,285.7388,239.8028,89.47436
3,2.222224,-1.126109,0.2189924,0.07921666,-1.269696,3.300485,-1.651812,-0.7457234,3.141625,0,0,10.32258,22.32649,-0.2770089,-0.495785,0.51634,-0.2293685,1.75397,2.322589,0.09467688,-0.01520985,-0.110163,-1.106665,1.915224,0.04928073,0.04569062,1.550024,0.9089348,285.7885,238.5574,90.7944
3,2.233335,-1.126109,0.2189924,0.07921666,-1.269696,3.300485,-1.651812,-0.740272,0.4686398,0,0,10.21505,21.47605,-0.2770089,-0.495785,0.51634,-0.2293685,1.75397,2.322589,0.09467688,-0.01520985,-0.110163,-1.106665,1.915224,0.04928073,0.04487715,1.553705,0.9104654,283.8267,245.8303,83.43954
3,2.244446,-1.11535,0.1580652,0.06299087,-1.270884,3.301506,-1.62835,-0.7637179,-2.147572,0,0,10.18573,20.73314,-0.270063,-0.4971607,0.5812696,-0.2484298,1.738839,2.342954,0.05407643,-0.05237105,-0.1108118,-1.109177,1.912131,0.05126452,0.04281173,1.559125,0.9105093,284.8543,259.1466,70.95955
3,2.255557,-1.11535,0.1580652,0.06299087,-1.270884,3.301506,-1.62835,-0.7380418,2.362891,0,0,10.21505,20.09775,-0.270063,-0.4971607,0.5812696,-0.2484298,1.738839,2.342954,0.05407643,-0.05237105,-0.1108118,-1.109177,1.912131,0.05126452,0.04160838,1.562654,0.9104486,285.4311,267.6342,62.91572
3,2.266668,-1.093885,0.06591046,0.01949614,-1.268277,3.300486,-1.605113,-0.7541241,-1.496559,0,0,10.26393,19.56989,-0.2782764,-0.4226362,0.5976372,-0.2618462,1.716316,2.371217,0.03931929,-0.06187161,-0.08829717,-1.110068,1.910305,0.051909,0.04081657,1.565365,0.9106602,285.7086,274.907,55.91612
3,2.277779,-1.093885,0.06591046,0.01949614,-1.268277,3.300486,-1.605113,-0.7280166,2.398446,0,0,10.34213,19.15934,-0.2782764,-0.4226362,0.5976372,-0.2618462,1.716316,2.371217,0.03931929,-0.06187161,-0.08829717,-1.110068,1.910305,0.051909,0.04000802,1.566691,0.9106859,286.984,275.9636,54.85787
3,2.28889,-1.070271,-0.04004031,-0.01849031,-1.262584,3.299087,-1.582426,-0.7441117,-1.497208,0,0,10.42033,18.84653,-0.2013468,-0.3717539,0.6057419,-0.2764457,1.696271,2.390851,0.02203075,-0.05335894,-0.1190537,-1.114163,1.909558,0.05264324,0.03936552,1.568749,0.9110434,287.4685,281.0665,50.08094
3,2.300001,-1.070271,-0.04004031,-0.01849031,-1.262584,3.299087,-1.582426,-0.7190498,2.303043,0,0,10.48876,18.64125,-0.2013468,-0.3717539,0.6057419,-0.2764457,1.696271,2.390851,0.02203075,-0.05335894,-0.1190537,-1.114163,1.909558,0.05264324,0.03907656,1.56998,0.9112991,287.7491,284.0264,47.22445
3,2.311112,-1.05096,-0.1183442,-0.06112698,-1.256327,3.29588,-1.559237,-0.7346037,-1.446754,0,0,10.52786,18.33822,-0.1468486,-0.2941011,0.6034976,-0.288154,1.670534,2.416716,0.02021882,0.0009888643,-0.1084857,-1.115826,1.912451,0.05012415,0.03814137,1.572261,0.9117865,289.0726,287.0006,44.22157
3,2.322223,-1.05096,-0.1183442,-0.06112698,-1.256327,3.29588,-1.559237,-0.710281,2.234992,0,0,10.53763,17.88856,-0.1468486,-0.2941011,0.6034976,-0.288154,1.670534,2.416716,0.02021882,0.0009888643,-0.1084857,-1.115826,1.912451,0.05012415,0.03767909,1.573688,0.9120606,289.7798,289.2958,42.17606
3,2.333334,-0.992304,-0.1587872,-0.06265669,-1.251125,3.295,-1.539611,-0.7253929,-1.405613,0,0,10.52786,17.31183,-0.1815726,-0.3192774,0.5344465,-0.3005814,1.67286,2.419693,0.008917838,-0.004205989,-0.05830978,-1.114859,1.91205,0.05054387,0.03706535,1.575709,0.9126466,290.3482,293.4714,38.10994
3,2.344445,-0.992304,-0.1587872,-0.06265669,-1.251125,3.295,-1.539611,-0.701327,2.21143,0,0,10.50831,16.60802,-0.1815726,-0.3192774,0.5344465,-0.3005814,1.67286,2.419693,0.008917838,-0.004205989,-0.05830978,-1.114859,1.91205,0.05054387,0.03591063,1.576741,0.9130018,292.0283,293.3364,37.9127
3,2.355556,-0.9059427,-0.1930639,-0.0834225,-1.245458,3.292802,-1.523077,-0.7167802,-1.43624,0,0,10.48876,16.05083,-0.2652301,-0.3390704,0.474347,-0.3123888,1.676726,2.425619,-0.03473742,-0.02643432,-0.05044457,-1.115648,1.910144,0.05373567,0.03503019,1.57912,0.913362,292.929,295.9679,35.58
3,2.366668,-0.9059427,-0.1930639,-0.0834225,-1.245458,3.292802,-1.523077,-0.6958366,1.926319,0,0,10.46921,15.72825,-0.2652301,-0.3390704,0.474347,-0.3123888,1.676726,2.425619,-0.03473742,-0.02643432,-0.05044457,-1.115648,1.910144,0.05373567,0.03475276,1.580524,0.9137484,293.3636,298.1274,33.45082
3,2.377779,-0.8430594,-0.210446,-0.1161881,-1.240195,3.2885,-1.506069,-0.7089021,-1.215377,0,0,10.44966,15.6305,-0.3365489,-0.2461566,0.4551313,-0.3200566,1.661278,2.450978,-0.05666044,-0.03396308,-0.1226895,-1.121614,1.909323,0.05600495,0.03439017,1.582219,0.9143271,293.9128,301.2884,30.36497
3,2.38889,-0.8430594,-0.210446,-0.1161881,-1.240195,3.2885,-1.506069,-0.6912176,1.626235,0,0,10.42033,15.7869,-0.3365489,-0.2461566,0.4551313,-0.3200566,1.661278,2.450978,-0.05666044,-0.03396308,-0.1226895,-1.121614,1.909323,0.05600495,0.03336056,1.583386,0.9146572,295.3227,299.893,31.75223
3,2.400001,-0.730027,-0.2392617,-0.1296783,-1.233289,3.284381,-1.494642,-0.7012018,-0.9308779,0,0,10.36168,16.30499,-0.2326643,-0.2498916,0.5202763,-0.3351061,1.646816,2.465419,-0.07225822,-0.02768336,-0.2078049,-1.130285,1.909564,0.0577906,0.03250028,1.584779,0.9148957,296.2685,301.0624,30.9824
3,2.411112,-0.730027,-0.2392617,-0.1296783,-1.233289,3.284381,-1.494642,-0.6835786,1.618142,0,0,10.28348,17.17498,-0.2326643,-0.2498916,0.5202763,-0.3351061,1.646816,2.465419,-0.07225822,-0.02768336,-0.2078049,-1.130285,1.909564,0.0577906,0.03215604,1.585637,0.9151547,296.7213,301.9624,30.15744
3,2.422223,-0.6830068,-0.3287482,-0.1338294,-1.221863,3.280316,-1.480251,-0.6938419,-0.9556844,0,0,10.18573,18.20137,-0.1179946,-0.1571623,0.4483438,-0.3401304,1.631581,2.477014,-0.1100972,0.06729113,-0.1820931,-1.132995,1.916262,0.05914774,0.03185927,1.58695,0.9157649,297.2164,303.7469,28.3175
3,2.433334,-0.6830068,-0.3287482,-0.1338294,-1.221863,3.280316,-1.480251,-0.6820287,1.087378,0,0,10.09775,19.23754,-0.1179946,-0.1571623,0.4483438,-0.3401304,1.631581,2.477014,-0.1100972,0.06729113,-0.1820931,-1.132995,1.916262,0.05914774,0.03179101,1.587786,0.9161993,297.581,304.8128,27.16335
3,2.444445,-0.629722,-0.3377587,-0.09426382,-1.214014,3.279457,-1.468341,-0.687445,-0.5079234,0,0,10.02933,20,-0.04911169,-0.1166264,0.3946733,-0.3459201,1.622777,2.483423,-0.08134392,0.04827577,-0.05126883,-1.12833,1.916569,0.05943723,0.03046697,1.588355,0.9162784,299.3851,302.73,28.6997
3,2.455556,-0.629722,-0.3377587,-0.09426382,-1.214014,3.279457,-1.468341,-0.6723118,1.386677,0,0,9.970675,20.49854,-0.04911169,-0.1166264,0.3946733,-0.3459201,1.622777,2.483423,-0.08134392,0.04827577,-0.05126883,-1.12833,1.916569,0.05943723,0.02962445,1.589246,0.9160555,299.9801,301.9752,29.80149
3,2.466667,-0.5828976,-0.3040048,-0.04475167,-1.208353,3.278577,-1.457263,-0.6808659,-0.7965919,0,0,9.941349,20.81134,0.006053582,-0.006772421,0.3393016,-0.3465625,1.601703,2.500658,-0.0640317,-0.03368859,0.01052514,-1.125606,1.911138,0.06260613,0.0291551,1.590149,0.9162121,300.5075,302.3328,29.56408
3,2.477778,-0.5828976,-0.3040048,-0.04475167,-1.208353,3.278577,-1.457263,-0.6678862,1.192875,0,0,9.931575,20.95797,0.006053582,-0.006772421,0.3393016,-0.3465625,1.601703,2.500658,-0.0640317,-0.03368859,0.01052514,-1.125606,1.911138,0.06260613,0.02909455,1.59071,0.9164733,300.7039,302.9792,28.87649
3,2.488889,-0.535076,-0.206315,0.00827162,-1.207488,3.280645,-1.44899,-0.6753899,-0.6990436,0,0,9.951125,20.93842,-0.029744,-0.1322155,0.2985459,-0.3555917,1.613497,2.49183,-0.04452711,-0.02114269,-0.08128122,-1.131441,1.911813,0.06222662,0.0288508,1.591365,0.9167874,300.973,304.0132,27.92419
3,2.5,-0.535076,-0.206315,0.00827162,-1.207488,3.280645,-1.44899,-0.6632379,1.116245,0,0,9.980451,20.84067,-0.029744,-0.1322155,0.2985459,-0.3555917,1.613497,2.49183,-0.04452711,-0.02114269,-0.08128122,-1.131441,1.911813,0.06222662,0.02856169,1.59175,0.9169105,301.2228,304.402,27.64814
3,2.511111,-0.5277273,-0.1383303,0.0745438,-1.207095,3.285947,-1.43957,-0.6701307,-0.642374,0,0,10.0391,20.80156,0.06289089,-0.07267158,0.2756514,-0.3592088,1.600606,2.498151,-0.0254435,-0.00762035,-0.2220904,-1.142968,1.913067,0.06146203,0.0280603,1.592293,0.9169758,301.5541,304.9678,27.33475
3,2.522222,-0.5277273,-0.1383303,0.0745438,-1.207095,3.285947,-1.43957,-0.6597379,0.9548911,0,0,10.10753,20.84067,0.06289089,-0.07267158,0.2756514,-0.3592088,1.600606,2.498151,-0.0254435,-0.00762035,-0.2220904,-1.142968,1.913067,0.06146203,0.02758974,1.592879,0.9171691,301.9724,305.4475,27.02748
3,2.533333,-0.477799,-0.08402106,0.1452374,-1.207323,3.292521,-1.432939,-0.6651234,-0.5030207,0,0,10.18573,20.93842,-0.03139373,-0.1847231,0.3686323,-0.3738961,1.601103,2.502468,-0.003161974,-0.05561514,-0.2157972,-1.147519,1.909692,0.06184126,0.02698555,1.593841,0.9175802,302.4982,306.8376,25.86702
3,2.544444,-0.477799,-0.08402106,0.1452374,-1.207323,3.292521,-1.432939,-0.6523919,1.167467,0,0,10.28348,21.08505,-0.03139373,-0.1847231,0.3686323,-0.3738961,1.601103,2.502468,-0.003161974,-0.05561514,-0.2157972,-1.147519,1.909692,0.06184126,0.02326549,1.594568,0.9180158,303.3846,303.5468,27.29178
3,2.555555,-0.4714875,-0.02326995,0.231758,-1.207902,3.302087,-1.426871,-0.6600943,-0.7164062,0,0,10.38123,21.2219,-0.0358377,-0.1307802,0.4573343,-0.3859943,1.580449,2.522885,-0.02961208,-0.132147,-0.1674854,-1.149589,1.90272,0.06651644,0.01784103,1.595521,0.9189419,303.8782,302.3333,27.41746
3,2.566666,-0.4714875,-0.02326995,0.231758,-1.207902,3.302087,-1.426871,-0.6501053,0.9188854,0,0,10.47898,21.30987,-0.0358377,-0.1307802,0.4573343,-0.3859943,1.580449,2.522885,-0.02961208,-0.132147,-0.1674854,-1.149589,1.90272,0.06651644,0.009134088,1.59779,0.9197473,300.3202,299.0004,25.92882
3,2.577777,-0.5407144,-0.03381941,0.248949,-1.2057,3.308851,-1.41397,-0.6555712,-0.5102122,0,0,10.56696,21.32943,-0.09714377,-0.1015151,0.3802162,-0.3900913,1.574971,2.532798,0.02079684,-0.1460683,-0.1231459,-1.150469,1.898511,0.06544612,-0.002550409,1.60233,0.9216705,296.0703,291.2546,30.22506
3,2.588888,-0.5407144,-0.03381941,0.248949,-1.2057,3.308851,-1.41397,-0.6445734,1.008841,0,0,10.65494,21.28055,-0.09714377,-0.1015151,0.3802162,-0.3900913,1.574971,2.532798,0.02079684,-0.1460683,-0.1231459,-1.150469,1.898511,0.06544612,-0.01256469,1.619773,0.9253098,291.9746,257.2135,67.52906
3,2.599999,-0.5365311,0.007397115,0.3059737,-1.206175,3.319283,-1.406096,-0.6503535,-0.5396211,0,0,10.73314,21.16325,-0.05174645,-0.2155311,0.3654696,-0.4023584,1.585721,2.522672,-0.002373688,-0.08868869,-0.2370474,-1.160919,1.899989,0.0658653,-0.01648333,1.640569,0.921044,292.5164,238.3174,86.52149
3,2.61111,-0.5365311,0.007397115,0.3059737,-1.206175,3.319283,-1.406096,-0.6336576,1.530207,0,0,10.79179,20.99707,-0.05174645,-0.2155311,0.3654696,-0.4023584,1.585721,2.522672,-0.002373688,-0.08868869,-0.2370474,-1.160919,1.899989,0.0658653,-0.01616383,1.660298,0.9129381,294.1846,220.1365,105.2688
3,2.622221,-0.5260593,0.1136845,0.3685396,-1.211696,3.332438,-1.399649,-0.644877,-1.041249,0,0,10.83089,20.71359,-0.198842,-0.2369989,0.2377111,-0.4052468,1.599822,2.519916,-0.05165463,-0.1205352,-0.2578759,-1.167781,1.896075,0.07086539,-0.01371034,1.677797,0.9036615,296.4895,207.8781,118.8122
3,2.633332,-0.5260593,0.1136845,0.3685396,-1.211696,3.332438,-1.399649,-0.6325465,1.13583,0,0,10.84066,20.30303,-0.198842,-0.2369989,0.2377111,-0.4052468,1.599822,2.519916,-0.05165463,-0.1205352,-0.2578759,-1.167781,1.896075,0.07086539,-0.01006513,1.691175,0.8946053,299.7008,199.0625,128.9173
3,2.644443,-0.5186446,0.1334356,0.4119668,-1.213819,3.344993,-1.39291,-0.6401328,-0.7063268,0,0,10.82111,19.8045,-0.4262332,-0.289044,0.3214197,-0.4189536,1.602699,2.536917,-0.06335348,-0.1428518,-0.2481443,-1.173117,1.891959,0.07420819,-0.007633627,1.700693,0.888141,301.6974,193.9275,135.5326
3,2.655554,-0.5186446,0.1334356,0.4119668,-1.213819,3.344993,-1.39291,-0.6275659,1.15399,0,0,10.78201,19.24731,-0.4262332,-0.289044,0.3214197,-0.4189536,1.602699,2.536917,-0.06335348,-0.1428518,-0.2481443,-1.173117,1.891959,0.07420819,-0.006648194,1.705608,0.88444,302.9904,191.0671,139.194
3,2.666665,-0.540931,0.07068163,0.5054836,-1.209686,3.361065,-1.38562,-0.6345695,-0.6529625,0,0,10.74291,18.64125,-0.1940673,-0.0735915,0.3779616,-0.4242469,1.5681,2.561866,-0.07832339,-0.09491876,-0.2715398,-1.180291,1.892511,0.07645217,-0.008341566,1.706919,0.8837616,302.213,190.4619,140.3872
3,2.677776,-0.540931,0.07068163,0.5054836,-1.209686,3.361065,-1.38562,-0.6218407,1.168332,0,0,10.69404,17.96676,-0.1940673,-0.0735915,0.3779616,-0.4242469,1.5681,2.561866,-0.07832339,-0.09491876,-0.2715398,-1.180291,1.892511,0.07645217,-0.01170654,1.704444,0.8847991,301.0373,191.5983,138.8448
3,2.688887,-0.5513925,-0.0312869,0.5323578,-1.201914,3.373694,-1.377704,-0.6288182,-0.6507986,0,0,10.66471,17.2434,-0.3545781,-0.1629276,0.1946068,-0.4252685,1.58964,2.557751,-0.04123469,-0.02777099,-0.1931466,-1.180495,1.89494,0.07471951,-0.01702338,1.699954,0.886916,298.7072,194.5245,135.3677
3,2.699998,-0.5513925,-0.0312869,0.5323578,-1.201914,3.373694,-1.377704,-0.614322,1.329905,0,0,10.63539,16.47116,-0.3545781,-0.1629276,0.1946068,-0.4252685,1.58964,2.557751,-0.04123469,-0.02777099,-0.1931466,-1.180495,1.89494,0.07471951,-0.02290885,1.69406,0.8889006,296.9489,198.2802,130.4017
3,2.711109,-0.4938975,-0.01302785,0.5363972,-1.200005,3.386632,-1.373944,-0.6229677,-0.8047916,0,0,10.61584,15.75758,-0.4997123,-0.3645548,0.1043693,-0.4329528,1.626385,2.542661,-0.05554406,0.004348375,-0.1334313,-1.180814,1.896701,0.07592539,-0.02975629,1.688605,0.8902913,294.9612,202.9729,124.8083
3,2.72222,-0.4938975,-0.01302785,0.5363972,-1.200005,3.386632,-1.373944,-0.6092066,1.264184,0,0,10.61584,15.10264,-0.4997123,-0.3645548,0.1043693,-0.4329528,1.626385,2.542661,-0.05554406,0.004348375,-0.1334313,-1.180814,1.896701,0.07592539,-0.03621252,1.684,0.8903993,294.2668,206.8226,119.5919
3,2.733331,-0.4343868,0.06474549,0.6120664,-1.202156,3.397994,-1.376127,-0.617333,-0.7569039,0,0,10.61584,14.50635,-0.4625657,-0.3197608,0.07655452,-0.4336404,1.628232,2.54427,-0.06086458,0.02991149,-0.1408941,-1.182832,1.898403,0.07637201,-0.04250464,1.681291,0.8891402,293.7422,210.0733,115.3479
3,2.744442,-0.4343868,0.06474549,0.6120664,-1.202156,3.397994,-1.376127,-0.607296,0.9231412,0,0,10.62561,13.95895,-0.4625657,-0.3197608,0.07655452,-0.4336404,1.628232,2.54427,-0.06086458,0.02991149,-0.1408941,-1.182832,1.898403,0.07637201,-0.04764798,1.680345,0.8866587,294.1995,210.315,113.8896
3,2.755553,-0.404599,0.08828533,0.6160315,-1.202714,3.405783,-1.37561,-0.6117425,-0.4171946,0,0,10.61584,13.48974,-0.5743749,-0.3157523,-0.04392831,-0.4309943,1.642605,2.542219,-0.05765488,0.007548839,-0.1312909,-1.183967,1.897615,0.07717202,-0.05203447,1.680984,0.8832099,294.4339,208.7255,114.8043
3,2.766664,-0.3748221,0.1011221,0.613683,-1.203159,3.412353,-1.374821,-0.6076439,0.3769397,0,0,10.59628,13.09873,-0.6127102,-0.2473954,-0.05821074,-0.4299903,1.644023,2.549856,-0.06300512,0.008614041,-0.1355075,-1.185611,1.897716,0.07793315,-0.05508333,1.682584,0.8794311,295.4944,206.0655,116.5119
3,2.777775,-0.3034711,0.1161126,0.6103159,-1.203836,3.419768,-1.377112,-0.6029168,0.4264327,0,0,10.58651,12.913,-0.5803332,-0.1708965,-0.03043889,-0.4299072,1.64035,2.558346,-0.0703714,0.02356092,-0.1301465,-1.186791,1.898757,0.07861651,-0.05695625,1.684246,0.8756782,296.1647,202.3236,119.7917
3,2.788886,-0.2331538,0.1019797,0.5764065,-1.203836,3.424812,-1.378916,-0.6000688,0.2551619,0,0,10.59628,12.98143,-0.5341847,-0.1029184,-0.01134589,-0.4296776,1.636117,2.565813,-0.09483173,0.03642046,-0.1299573,-1.188074,1.899966,0.08018219,-0.05841184,1.685684,0.8726318,296.6304,199.4902,122.6855
3,2.799997,-0.1712853,0.06088817,0.5215657,-1.202268,3.428516,-1.38064,-0.6003537,-0.0294681,0,0,10.62561,13.23558,-0.4948487,-0.06351772,-0.03390814,-0.4281793,1.63788,2.568058,-0.1235706,0.06738563,-0.1382941,-1.189817,1.902288,0.08181604,-0.05968393,1.686543,0.8703567,296.9272,197.9106,124.4023
3,2.811108,-0.130708,0.01140282,0.4796068,-1.199687,3.431902,-1.382141,-0.5986855,0.1514447,0,0,10.68426,13.67546,-0.4810921,-0.06030115,-0.04572892,-0.4276318,1.640293,2.570651,-0.1394145,0.09727633,-0.1328916,-1.190908,1.904954,0.08298729,-0.06099816,1.686542,0.8689134,297.1034,196.8744,125.47
3,2.822219,-0.06021503,-0.08360779,0.3732707,-1.195215,3.431069,-1.383743,-0.5969396,0.1569493,0,0,10.73314,14.11535,-0.3727159,-0.08066216,-0.07550068,-0.42686,1.646476,2.56461,-0.1552413,0.1441972,-0.1307184,-1.192005,1.908806,0.08395669,-0.06237869,1.685636,0.8684864,297.1389,196.5351,125.607
3,2.83333,-0.06021503,-0.08360779,0.3732707,-1.195215,3.431069,-1.383743,-0.5949241,0.1818467,0,0,10.78201,14.4868,-0.3727159,-0.08066216,-0.07550068,-0.42686,1.646476,2.56461,-0.1552413,0.1441972,-0.1307184,-1.192005,1.908806,0.08395669,-0.06380912,1.683914,0.8689868,296.9371,197.0553,124.9527
3,2.844441,-0.06021503,-0.08360779,0.3732707,-1.195215,3.431069,-1.383743,-0.5929507,0.1779199,0,0,10.82111,14.80938,-0.3727159,-0.08066216,-0.07550068,-0.42686,1.646476,2.56461,-0.1552413,0.1441972,-0.1307184,-1.192005,1.908806,0.08395669,-0.0651452,1.681486,0.8700203,296.4975,198.3679,123.5334
3,2.855552,0.04765201,-0.212147,0.1395221,-1.185673,3.427125,-1.386687,-0.5914944,0.1308277,0,0,10.85044,15.03421,-0.3111705,-0.1329549,-0.09012961,-0.4267939,1.665812,2.555153,-0.2456893,0.1828151,-0.1310834,-1.19599,1.917734,0.09166308,-0.06608212,1.678868,0.8714042,295.9005,200.257,121.3706
3,2.866663,0.08819863,-0.2452168,0.04728361,-1.182814,3.423305,-1.387448,-0.5945379,-0.2800277,0,0,10.85044,15.00489,-0.246348,-0.04721896,-0.004010201,-0.4280776,1.655623,2.56496,-0.2562372,0.1924494,-0.1214193,-1.196711,1.920367,0.09389534,-0.06641643,1.676444,0.8728975,295.4713,202.2664,119.2342
3,2.877774,0.1159687,-0.2748728,-0.02476775,-1.179279,3.419352,-1.388287,-0.5912111,0.3057406,0,0,10.81134,14.78983,-0.164844,0.07819347,0.02645599,-0.4269143,1.6447,2.574324,-0.2528575,0.205256,-0.1044274,-1.196906,1.923412,0.0954421,-0.06613105,1.674079,0.874397,295.6653,203.9532,117.6642
3,2.888885,0.1351441,-0.2785657,-0.06624014,-1.176851,3.416815,-1.389217,-0.5899839,0.1087701,0,0,10.74291,14.38905,-0.1551451,0.1111287,0.03217436,-0.4252371,1.636169,2.583188,-0.2430334,0.202078,-0.07573793,-1.196321,1.92549,0.09687408,-0.06530532,1.672111,0.8761498,295.6844,205.2369,116.4448
3,2.899997,0.1543196,-0.2675089,-0.1196413,-1.175039,3.412915,-1.390152,-0.5891429,0.07558417,0,0,10.66471,13.90029,-0.1252696,0.1035599,0.03719775,-0.4253792,1.634613,2.584649,-0.2267581,0.1861223,-0.03643283,-1.195116,1.926793,0.09814707,-0.06381786,1.670697,0.8781038,295.5654,206.2565,115.5476
3,2.911108,0.1510953,-0.2424192,-0.1561911,-1.173946,3.409168,-1.390293,-0.5878657,0.1156131,0,0,10.57674,13.47996,-0.08823213,0.114271,0.004967034,-0.4233915,1.632926,2.585773,-0.2190134,0.1850984,-0.002401829,-1.193503,1.928798,0.09952606,-0.06184366,1.669852,0.8801923,295.4325,207.0261,115.2354
3,2.922219,0.1425068,-0.2011706,-0.1780338,-1.173647,3.406257,-1.390259,-0.587626,0.02054425,0,0,10.50831,13.12806,-0.04361826,0.1441046,-0.01976595,-0.4208753,1.628484,2.588316,-0.2015575,0.1861944,0.04431965,-1.190975,1.93072,0.1002235,-0.05963871,1.669507,0.8822882,295.297,207.4818,115.4251
3,2.93333,0.1467091,-0.1619033,-0.1902612,-1.173869,3.403418,-1.390968,-0.5862268,0.127454,0,0,10.45943,12.85435,0.004079185,0.14839,-0.04997854,-0.4182409,1.62685,2.587786,-0.1842166,0.1670475,0.08575673,-1.188098,1.931548,0.1012145,-0.05741051,1.669533,0.884376,295.277,207.5966,115.9315
3,2.944441,0.1593865,-0.09794569,-0.1889469,-1.175625,3.4018,-1.392648,-0.585162,0.09599503,0,0,10.43011,12.64907,0.02537386,0.1024771,-0.03970895,-0.4189989,1.628691,2.584885,-0.1519717,0.1116468,0.1367159,-1.184669,1.929699,0.1019168,-0.05525136,1.66976,0.8863447,295.2467,207.56,116.5095
3,2.955552,0.1742045,-0.03721896,-0.1907955,-1.178023,3.399858,-1.394443,-0.5854608,-0.0282545,0,0,10.43011,12.50244,0.02454932,0.1204816,-0.01618155,-0.4185839,1.62341,2.589478,-0.1349222,0.08924062,0.1451364,-1.182676,1.929431,0.1027272,-0.05330655,1.670062,0.8880695,295.1602,207.4789,117.0939
3,2.966663,0.1793179,-0.01635015,-0.1975964,-1.1801,3.393326,-1.395926,-0.5881586,-0.246577,0,0,10.43011,12.40469,0.02922279,0.142721,-0.004537113,-0.4144773,1.613298,2.598433,-0.1192084,0.07633658,0.140632,-1.180786,1.928763,0.1039767,-0.05162989,1.670327,0.8895391,295.1342,207.2377,117.662
3,2.977774,0.1793179,-0.01635015,-0.1975964,-1.1801,3.393326,-1.395926,-0.5832222,0.4531865,0,0,10.42033,12.37537,0.02922279,0.142721,-0.004537113,-0.4144773,1.613298,2.598433,-0.1192084,0.07633658,0.140632,-1.180786,1.928763,0.1039767,-0.05013393,1.670352,0.8909343,295.1192,206.5129,118.5475
3,2.988885,0.1901511,-0.01923236,-0.2858204,-1.18048,3.387719,-1.396081,-0.5824658,0.06488707,0,0,10.41056,12.40469,-0.006248713,0.1599383,-0.01253768,-0.4145929,1.609676,2.6034,-0.06093243,0.02502421,0.1020159,-1.180604,1.928331,0.1035757,-0.04901259,1.670018,0.8919572,294.831,206.5794,118.8875
3,2.999996,0.2157335,-0.02382565,-0.3145187,-1.180845,3.382575,-1.397623,-0.5863354,-0.3539914,0,0,10.40078,12.49267,0.04098731,0.1425672,0.03492731,-0.4162222,1.604651,2.605467,-0.05148925,0.02709845,0.08595921,-1.180156,1.928778,0.1038324,-0.04855052,1.669615,0.892746,294.7133,207.1516,118.5416
3,3.011107,0.2487816,-0.03788632,-0.3356391,-1.180856,3.37738,-1.399709,-0.5848525,0.1385326,0,0,10.38123,12.62952,0.07396559,0.1350476,0.03141909,-0.4157828,1.60185,2.605768,-0.05598836,0.01854153,0.06151441,-1.180465,1.928729,0.1047616,-0.04827197,1.66934,0.8938296,295.0529,207.5611,117.6075
3,3.022218,0.2733251,-0.06047803,-0.3555704,-1.180136,3.3722,-1.40174,-0.5855402,-0.064657,0,0,10.33236,12.80547,0.101484,0.1287091,0.01093258,-0.4144821,1.599501,2.605735,-0.06990253,-0.004847492,0.0648828,-1.179554,1.927478,0.1069608,-0.04735561,1.66912,0.8950675,295.3044,208.0778,116.4181
3,3.033329,0.2776114,-0.07246518,-0.3767212,-1.179688,3.366501,-1.402864,-0.5859013,-0.0325603,0,0,10.28348,12.97165,0.1078774,0.1521598,0.004594527,-0.4129503,1.594034,2.609284,-0.0676491,0.003696185,0.07763703,-1.178036,1.927776,0.1076775,-0.04567216,1.668977,0.8966354,295.4612,208.2931,116.0115
3,3.04444,0.2744045,-0.0652957,-0.4002735,-1.180663,3.360203,-1.403167,-0.5855349,0.03351202,0,0,10.2346,13.09873,0.1280819,0.1467909,0.002271302,-0.4122882,1.591164,2.609717,-0.05982109,0.01121953,0.1191072,-1.174953,1.928034,0.1080141,-0.0432002,1.668794,0.8986293,295.548,208.3521,116.1815
3,3.055551,0.2711794,-0.04116058,-0.4282881,-1.182167,3.353993,-1.403731,-0.5844887,0.09510393,0,0,10.22483,13.15738,0.1290038,0.1394,-0.0126853,-0.4109865,1.58941,2.609809,-0.06816356,0.01022112,0.1404874,-1.172481,1.927818,0.1092136,-0.04023558,1.668557,0.9012014,295.5127,208.5281,116.6129
3,3.066662,0.2636707,-0.02019811,-0.4551847,-1.184021,3.347934,-1.403792,-0.5835929,0.08099438,0,0,10.24438,13.15738,0.129197,0.1574246,0.004435651,-0.4103825,1.583494,2.613766,-0.09459141,0.02419399,0.1620043,-1.169692,1.928404,0.1114205,-0.03686792,1.668186,0.9041779,295.3828,209.0834,116.6604
3,3.077773,0.2647274,-0.01386046,-0.4595283,-1.185002,3.342358,-1.404666,-0.5836205,-0.003171359,0,0,10.26393,13.16716,0.1335186,0.1979149,0.0003240407,-0.4082908,1.575239,2.619681,-0.1030917,0.03487027,0.1609904,-1.167898,1.929083,0.1126182,-0.03300916,1.667759,0.9073781,295.1244,209.8497,116.3843
3,3.088884,0.2807122,-0.01709908,-0.4637384,-1.185318,3.336872,-1.406306,-0.5830054,0.05629488,0,0,10.27371,13.23558,0.1475555,0.2596606,0.003683552,-0.4056447,1.562884,2.628639,-0.1030587,0.04446373,0.1620371,-1.165992,1.929845,0.1134768,-0.02888406,1.667458,0.910758,294.7511,210.6602,116.2047
3,3.099995,0.3009422,-0.01935053,-0.4764768,-1.186199,3.330989,-1.408073,-0.5835215,-0.04770581,0,0,10.28348,13.34311,0.1722651,0.3042707,0.01539779,-0.4039073,1.551528,2.636114,-0.0956088,0.05615062,0.157691,-1.164291,1.930824,0.1138869,-0.0245911,1.667399,0.9141196,294.3494,211.4881,116.0922
3,3.111106,0.3009422,-0.01935053,-0.4764768,-1.186199,3.330989,-1.408073,-0.5842427,-0.06555397,0,0,10.27371,13.50929,0.1722651,0.3042707,0.01539779,-0.4039073,1.551528,2.636114,-0.0956088,0.05615062,0.157691,-1.164291,1.930824,0.1138869,-0.02052395,1.66752,0.9173551,294.0465,211.7926,116.8131
3,3.122217,0.3446216,-0.01039892,-0.5319917,-1.188787,3.316428,-1.411453,-0.5806011,0.3334214,0,0,10.24438,13.77322,0.1672965,0.2033488,-0.04255783,-0.4006129,1.55318,2.630762,-0.08529183,0.06029652,0.1160479,-1.163156,1.932223,0.1146488,-0.01708544,1.667516,0.9201979,293.7394,211.7546,118.0252
3,3.133328,0.3648694,-0.01266384,-0.5447408,-1.18957,3.309401,-1.413714,-0.5883818,-0.7142974,0,0,10.1955,14.0567,0.1330835,0.1661635,-0.04670192,-0.39988,1.553657,2.630323,-0.08514717,0.07523331,0.1277364,-1.161115,1.933555,0.1150752,-0.01464542,1.667339,0.9223158,293.5032,212.2459,118.2497
3,3.144439,0.3936581,-0.007521689,-0.5618576,-1.190586,3.301696,-1.41652,-0.5852515,0.2923915,0,0,10.13685,14.32063,0.1332381,0.1490246,-0.02441628,-0.3998624,1.550062,2.631969,-0.08184803,0.0784366,0.1372878,-1.159098,1.934367,0.1153599,-0.01240515,1.667122,0.9245827,294.1475,212.3201,117.5613
3,3.15555,0.4032411,-0.005320966,-0.5576215,-1.191548,3.295248,-1.419023,-0.5847801,0.03967075,0,0,10.08798,14.54545,0.2079868,0.2020846,-0.01840965,-0.3977942,1.539963,2.635819,-0.08815326,0.07847542,0.1469289,-1.156989,1.935096,0.1162789,-0.009621162,1.666739,0.9270492,294.4714,212.3298,116.9275
3,3.166661,0.4053909,-0.01273757,-0.5532656,-1.191803,3.288711,-1.421202,-0.5853096,-0.04869129,0,0,10.05865,14.65298,0.2461036,0.2544006,-0.06110564,-0.3930506,1.531296,2.639527,-0.08487226,0.06252284,0.1618434,-1.154598,1.934918,0.1171,-0.006342236,1.666257,0.9299198,294.4798,212.5343,116.8131
3,3.177772,0.4182224,-0.04362267,-0.5539255,-1.190966,3.281813,-1.423826,-0.5843577,0.08732721,0,0,10.05865,14.66276,0.2617464,0.2716135,-0.1059028,-0.3886005,1.526476,2.640415,-0.05162957,0.06353654,0.187124,-1.151437,1.935301,0.1161639,-0.00257246,1.665599,0.9331701,294.3686,212.9879,116.8627
3,3.188883,0.4417972,-0.09575689,-0.5511341,-1.188309,3.274105,-1.427245,-0.5837671,0.05308522,0,0,10.05865,14.60411,0.2670619,0.3142871,-0.1196014,-0.3844965,1.517252,2.645997,-0.00853622,0.06351751,0.2421542,-1.146439,1.935539,0.1142717,0.001451047,1.664688,0.9366618,294.0721,213.5016,117.2527
3,3.199994,0.4599537,-0.1265501,-0.5454001,-1.186423,3.267427,-1.430652,-0.5841644,-0.03682063,0,0,10.04888,14.46725,0.2724532,0.3302391,-0.1163772,-0.3814041,1.50845,2.650881,0.01501268,0.05495489,0.2579478,-1.142927,1.935381,0.1131772,0.005305317,1.663493,0.9402795,293.7513,214.25,117.5631
3,3.211105,0.4993336,-0.1585833,-0.5385784,-1.182276,3.261497,-1.435271,-0.5851599,-0.0907973,0,0,10.02933,14.2913,0.2945253,0.2908799,-0.1412585,-0.37831,1.507949,2.64707,0.04245978,-0.00479506,0.2493058,-1.140854,1.932464,0.112799,0.009121448,1.66185,0.9436345,293.6429,215.4749,116.8669
3,3.222216,0.5237915,-0.1264594,-0.5283263,-1.182832,3.255628,-1.439826,-0.584664,0.04591451,0,0,9.990225,14.12512,0.29741,0.2569059,-0.1691433,-0.374874,1.508678,2.642937,0.04759122,-0.03785738,0.2365472,-1.138885,1.930365,0.1128733,0.01318202,1.659849,0.9467067,293.6612,216.8407,115.6589
3,3.233327,0.5237915,-0.1264594,-0.5283263,-1.182832,3.255628,-1.439826,-0.5853042,-0.05913439,0,0,9.931575,13.93939,0.29741,0.2569059,-0.1691433,-0.374874,1.508678,2.642937,0.04759122,-0.03785738,0.2365472,-1.138885,1.930365,0.1128733,0.0162753,1.657764,0.9500824,292.9207,216.436,118.639
3,3.244438,0.5853009,0.03225595,-0.4579584,-1.190594,3.241801,-1.455634,-0.5784828,0.6241117,0,0,9.863148,13.75367,0.3388416,0.3059428,-0.1959121,-0.3634443,1.489093,2.649201,0.0760706,-0.1071959,0.2268465,-1.132471,1.923212,0.1124213,0.01524621,1.654672,0.953402,292.0094,215.9167,123.4544
3,3.255549,0.5853009,0.03225595,-0.4579584,-1.190594,3.241801,-1.455634,-0.5980565,-1.795169,0,0,9.784947,13.53861,0.3388416,0.3059428,-0.1959121,-0.3634443,1.489093,2.649201,0.0760706,-0.1071959,0.2268465,-1.132471,1.923212,0.1124213,0.01147339,1.650478,0.9554167,291.9762,218.4333,120.4327
3,3.26666,0.5958898,0.06440014,-0.4445485,-1.193193,3.236862,-1.460626,-0.5790847,1.749873,0,0,9.706745,13.28446,0.3364327,0.3412978,-0.2372791,-0.3571171,1.482054,2.652368,0.083841,-0.08478352,0.2555069,-1.128349,1.922841,0.1113553,0.007995859,1.645224,0.9572453,293.2091,218.7472,116.3781
3,3.277771,0.6022696,0.07193512,-0.439318,-1.194797,3.231956,-1.465825,-0.5835524,-0.4253416,0,0,9.63832,13.00098,0.3289588,0.3605248,-0.2445849,-0.3521865,1.473872,2.656675,0.08528462,-0.03999011,0.2841707,-1.123799,1.92389,0.1099065,0.00585582,1.640021,0.9591362,293.002,221.2108,111.2713
3,3.288882,0.6150586,0.07339096,-0.4105461,-1.195751,3.228586,-1.472102,-0.5840573,-0.04093097,0,0,9.589444,12.70772,0.3469201,0.3552364,-0.2628671,-0.347412,1.469286,2.656206,0.08216211,-0.01547298,0.2841427,-1.120687,1.924492,0.1088615,0.005498706,1.635597,0.9613521,292.7217,223.6059,107.7712
3,3.299993,0.6352987,0.06653583,-0.3667592,-1.196411,3.22633,-1.479211,-0.5841069,-0.00466114,0,0,9.560118,12.42424,0.3926151,0.356277,-0.2738824,-0.3425725,1.462019,2.657065,0.0713779,-0.01759893,0.269324,-1.118406,1.923856,0.1087499,0.007061049,1.632141,0.9639752,292.4467,225.2783,106.0981
3,3.311104,0.6427814,0.04242164,-0.3376771,-1.196134,3.223502,-1.485656,-0.5844712,-0.03347296,0,0,9.550343,12.19941,0.3995746,0.3319987,-0.326255,-0.3361841,1.462805,2.651567,0.07854913,-0.05814338,0.2501628,-1.116709,1.921054,0.1088237,0.01034583,1.629567,0.9669058,292.1287,226.2097,105.8675
3,3.322215,0.656641,0.02986914,-0.3236442,-1.196557,3.22035,-1.492334,-0.5847561,-0.02587455,0,0,9.540568,12.02346,0.3364351,0.284289,-0.3472657,-0.3314517,1.466676,2.646708,0.1006784,-0.09446271,0.2329948,-1.115057,1.918123,0.1079571,0.01483244,1.627627,0.9700184,291.6913,226.5704,106.6977
3,3.333326,0.661965,0.02899182,-0.3097813,-1.197035,3.217327,-1.498696,-0.5841383,0.05654062,0,0,9.550343,11.83773,0.2938299,0.2865195,-0.3468965,-0.326584,1.463372,2.648369,0.1102433,-0.105142,0.233999,-1.112637,1.916066,0.1072673,0.01991255,1.62582,0.9729577,291.217,226.5314,108.2224
3,3.344437,0.6661885,0.05065387,-0.2834178,-1.198697,3.215476,-1.505495,-0.5842518,-0.01098054,0,0,9.579668,11.652,0.2725088,0.306853,-0.3540879,-0.3208465,1.456984,2.652173,0.1176737,-0.1179458,0.2350245,-1.110191,1.913845,0.1067294,0.02494903,1.623824,0.9756792,290.8131,226.5723,109.6115
3,3.355548,0.6576125,0.08288068,-0.2635803,-1.201179,3.213696,-1.51174,-0.5837734,0.04381058,0,0,9.63832,11.44673,0.2810398,0.3068282,-0.3530946,-0.3158754,1.453251,2.65227,0.1272099,-0.1126651,0.2274748,-1.108108,1.912398,0.10563,0.02950625,1.62154,0.978292,290.446,226.8867,110.4086
3,3.366659,0.6490765,0.09692258,-0.2467779,-1.202718,3.210442,-1.517412,-0.5836147,0.01401445,0,0,9.687196,11.28055,0.3140633,0.2992956,-0.3533955,-0.3113683,1.450807,2.649505,0.1292953,-0.08073878,0.211416,-1.106334,1.912688,0.1040691,0.03326537,1.618886,0.980812,290.0479,227.4534,110.7026
3,3.37777,0.6490765,0.09692258,-0.2467779,-1.202718,3.210442,-1.517412,-0.5829611,0.05965126,0,0,9.736072,11.15347,0.3140633,0.2992956,-0.3533955,-0.3113683,1.450807,2.649505,0.1292953,-0.08073878,0.211416,-1.106334,1.912688,0.1040691,0.03604944,1.615849,0.983211,289.6132,228.277,110.4123
3,3.388881,0.632071,0.07869887,-0.1709116,-1.205223,3.206303,-1.536839,-0.5761983,0.6179237,0,0,9.765396,11.06549,0.29968,0.3166924,-0.4256367,-0.2918526,1.444782,2.645255,0.1494853,-0.06377213,0.2005656,-1.100114,1.91047,0.09986082,0.03788685,1.612538,0.9853534,289.1096,229.8356,109.0806
3,3.399992,0.632071,0.07869887,-0.1709116,-1.205223,3.206303,-1.536839,-0.5962226,-1.836027,0,0,9.775171,11.00684,0.29968,0.3166924,-0.4256367,-0.2918526,1.444782,2.645255,0.1494853,-0.06377213,0.2005656,-1.100114,1.91047,0.09986082,0.03871182,1.609426,0.9870788,288.8077,231.9769,106.9501
3,3.411103,0.6214605,0.04484421,-0.1502237,-1.204199,3.205471,-1.542965,-0.577385,1.738391,0,0,9.784947,10.99707,0.2676663,0.2858646,-0.4233796,-0.2868182,1.446391,2.642037,0.1718968,-0.07766861,0.2099887,-1.097574,1.908609,0.09791112,0.039573,1.605482,0.9885374,289.2491,230.0327,108.1768
3,3.422215,0.6171441,0.05369002,-0.1258504,-1.205459,3.204918,-1.548997,-0.5818858,-0.428198,0,0,9.765396,11.07527,0.2162209,0.2104097,-0.4382124,-0.2825145,1.457721,2.630776,0.1709185,-0.08721796,0.2228017,-1.094704,1.90693,0.09682029,0.04028758,1.601422,0.9902179,288.8077,231.9938,105.9315
3,3.433326,0.6139048,0.08157352,-0.1102324,-1.207317,3.204374,-1.555513,-0.5823939,-0.0409555,0,0,9.745846,11.19257,0.184261,0.1998204,-0.436922,-0.2774641,1.46057,2.627071,0.161486,-0.09354125,0.2431366,-1.091297,1.905061,0.09625942,0.04094699,1.599786,0.9905649,287.986,231.4864,106.3282
3,3.444437,0.5999832,0.116909,-0.09579912,-1.210302,3.203751,-1.561144,-0.5822762,0.01079861,0,0,9.716519,11.30987,0.2028351,0.2240599,-0.3879752,-0.2735839,1.453205,2.631071,0.1476884,-0.09881248,0.2507213,-1.088412,1.903331,0.09594864,0.04126509,1.598744,0.9909211,288.2742,228.715,109.1527
3,3.455548,0.5903785,0.1339613,-0.09067076,-1.21123,3.202604,-1.566982,-0.582812,-0.0490796,0,0,9.716519,11.36852,0.2178873,0.2367514,-0.3763189,-0.2687928,1.449783,2.631122,0.1444307,-0.1083997,0.2465054,-1.085991,1.901216,0.09537685,0.0414441,1.597761,0.9913174,288.6432,226.4085,111.396
3,3.466659,0.5744032,0.1349446,-0.09493482,-1.212733,3.201482,-1.572373,-0.5820807,0.0673155,0,0,9.736072,11.35875,0.2275825,0.2654683,-0.3709394,-0.2633089,1.443293,2.634462,0.1455071,-0.1041425,0.2464847,-1.083393,1.899804,0.09436832,0.04172159,1.59678,0.9917789,288.8914,224.1595,113.5931
3,3.47777,0.5573805,0.1113158,-0.1021674,-1.212028,3.198559,-1.576504,-0.5824589,-0.03512754,0,0,9.765396,11.29032,0.2137541,0.2740106,-0.3697409,-0.2578771,1.440126,2.635855,0.1474218,-0.08077784,0.2133972,-1.082316,1.899785,0.0926599,0.0421994,1.596054,0.9919915,288.6807,222.4711,115.2296
3,3.488881,0.5478342,0.08356465,-0.1050032,-1.211739,3.197155,-1.581715,-0.5821446,0.02914959,0,0,9.833823,11.23167,0.1923191,0.2421315,-0.3760996,-0.2532911,1.443859,2.631008,0.1450791,-0.06484318,0.1835671,-1.081385,1.899726,0.09120101,0.0424964,1.596123,0.9920295,288.2683,221.794,115.5036
3,3.499992,0.5350931,0.06659287,-0.09516007,-1.210862,3.196431,-1.587093,-0.5815896,0.05055816,0,0,9.951125,11.19257,0.1859186,0.216545,-0.3697822,-0.2491392,1.447267,2.625884,0.1331829,-0.04142901,0.1548591,-1.080812,1.900292,0.08998555,0.04270412,1.596285,0.9918373,288.2271,220.745,116.45
3,3.511103,0.5009863,0.07314369,-0.07928199,-1.211917,3.196194,-1.59122,-0.5822144,-0.05744232,0,0,10.09775,11.1828,0.2096294,0.2078061,-0.3348652,-0.2462055,1.445399,2.6244,0.1203583,-0.03714295,0.1485697,-1.079417,1.899891,0.08933867,0.04294631,1.596544,0.9912975,288.5048,218.8052,118.3741
3,3.522214,0.4722628,0.07629892,-0.07403509,-1.211564,3.194406,-1.595188,-0.5823353,-0.01043662,0,0,10.27371,11.261,0.2225372,0.2173158,-0.3232073,-0.2420313,1.441179,2.625402,0.1140238,-0.04881661,0.1593102,-1.077089,1.898496,0.08894426,0.04324738,1.596829,0.9906914,288.8182,216.6321,120.525
3,3.533325,0.4328374,0.08673677,-0.08591439,-1.212934,3.192835,-1.597757,-0.5810453,0.1180437,0,0,10.43011,11.35875,0.2226258,0.2055338,-0.3094129,-0.2387023,1.440525,2.623528,0.1110016,-0.07963915,0.1902921,-1.07389,1.895724,0.08915411,0.0436195,1.59708,0.9902067,288.9965,214.5715,122.5554
3,3.544436,0.4126319,0.07904892,-0.1007206,-1.213312,3.191125,-1.601168,-0.581473,-0.03997947,0,0,10.56696,11.47605,0.2077148,0.1927732,-0.306153,-0.2349505,1.441901,2.620558,0.107847,-0.1009078,0.2020812,-1.071357,1.893236,0.08921003,0.04406282,1.59731,0.989847,289.0312,212.5981,124.5125
3,3.555547,0.3839576,0.03283443,-0.1267564,-1.21138,3.188423,-1.603275,-0.5803017,0.1077042,0,0,10.66471,11.6129,0.1879401,0.2171034,-0.2579259,-0.2325994,1.431046,2.62985,0.1046992,-0.1094037,0.2106479,-1.068795,1.891105,0.08919858,0.04395729,1.597875,0.9889443,289.8397,211.7339,125.5737
3,3.566658,0.3786536,-0.003526956,-0.1380316,-1.210144,3.185944,-1.605927,-0.581318,-0.09366894,0,0,10.73314,11.73998,0.1934941,0.2287054,-0.2344819,-0.229622,1.42288,2.635315,0.1099873,-0.09559101,0.2009843,-1.067093,1.890495,0.08800656,0.043797,1.598028,0.9884312,290.3199,211.2168,125.9793
3,3.577769,0.3776737,-0.04948848,-0.1491196,-1.207654,3.184089,-1.609552,-0.5807523,0.05283187,0,0,10.75269,11.79863,0.2108449,0.2135733,-0.1963324,-0.2282883,1.417843,2.636887,0.1141642,-0.08284771,0.186007,-1.065691,1.889872,0.08680946,0.04364898,1.598149,0.9880239,290.7258,210.9139,126.2138
3,3.58888,0.3734578,-0.07622361,-0.156227,-1.205575,3.181969,-1.612793,-0.5813851,-0.05827244,0,0,10.73314,11.80841,0.2099063,0.1879054,-0.1740711,-0.2269333,1.416015,2.636349,0.1087209,-0.06050336,0.1647023,-1.064651,1.890023,0.08572716,0.04361906,1.598273,0.9876947,290.9639,210.3715,126.6348
3,3.599991,0.3564002,-0.06350657,-0.1595759,-1.205442,3.180321,-1.615507,-0.5824115,-0.09310637,0,0,10.69404,11.75953,0.1948798,0.1720056,-0.1814728,-0.2241625,1.415388,2.63559,0.1064803,-0.05732521,0.1508729,-1.063429,1.889309,0.08500118,0.04368511,1.59841,0.9873283,291.164,209.502,127.3544
3,3.611102,0.3222635,-0.03369242,-0.156794,-1.206171,3.178562,-1.617139,-0.5823407,0.007268062,0,0,10.64516,11.68133,0.1875423,0.1580911,-0.1633635,-0.2226083,1.412893,2.636237,0.1083689,-0.07122727,0.1274472,-1.063042,1.887763,0.0844784,0.04377217,1.598563,0.987019,291.3321,208.7357,128.0407
3,3.622213,0.2977442,-0.01991576,-0.1601702,-1.206518,3.176789,-1.618824,-0.5817276,0.05601797,0,0,10.58651,11.5738,0.1971571,0.1335186,-0.1518367,-0.2213635,1.413179,2.63354,0.1060316,-0.08935328,0.1104557,-1.062592,1.88593,0.08439504,0.04386427,1.598687,0.9867242,291.5241,208.105,128.5614
3,3.633324,0.2977442,-0.01991576,-0.1601702,-1.206518,3.176789,-1.618824,-0.5807869,0.08563804,0,0,10.52786,11.4565,0.1971571,0.1335186,-0.1518367,-0.2213635,1.413179,2.63354,0.1060316,-0.08935328,0.1104557,-1.062592,1.88593,0.08439504,0.0439547,1.598813,0.986491,291.6364,207.4873,129.121
3,3.644435,0.2977442,-0.01991576,-0.1601702,-1.206518,3.176789,-1.618824,-0.5787379,0.1868947,0,0,10.44966,11.3001,0.1971571,0.1335186,-0.1518367,-0.2213635,1.413179,2.63354,0.1060316,-0.08935328,0.1104557,-1.062592,1.88593,0.08439504,0.04407543,1.598911,0.9863657,291.6429,206.9533,129.6112
3,3.655546,0.2222174,-0.07140566,-0.1776575,-1.202392,3.169849,-1.621494,-0.5789717,-0.02259138,0,0,10.37146,11.13392,0.1814718,0.1077921,-0.10921,-0.2180506,1.409514,2.63152,0.0964094,-0.1021066,0.1105648,-1.059355,1.881295,0.08378305,0.04416898,1.598898,0.9864413,291.5303,206.8425,129.7436
3,3.666657,0.2094558,-0.08105473,-0.181795,-1.201229,3.167686,-1.622573,-0.5850827,-0.5581012,0,0,10.27371,10.93842,0.1848722,0.1193965,-0.0878706,-0.2172538,1.402666,2.636064,0.09434733,-0.1074051,0.1201786,-1.057791,1.879558,0.0836632,0.04419389,1.598908,0.9865525,291.357,206.8969,129.63
3,3.677768,0.1881862,-0.1024719,-0.1879201,-1.199159,3.165278,-1.622946,-0.5817936,0.3055628,0,0,10.14663,10.73314,0.1989555,0.1427026,-0.06763162,-0.2161523,1.392287,2.643266,0.09328273,-0.1031442,0.1191142,-1.056611,1.878288,0.0833106,0.04439383,1.599089,0.9862809,291.3103,205.7139,130.5023
3,3.688879,0.1732868,-0.1131414,-0.1877835,-1.197422,3.163234,-1.623526,-0.58153,0.02093019,0,0,10.00978,10.55719,0.2150021,0.1330361,-0.05609978,-0.2153432,1.387847,2.644641,0.09537636,-0.09889287,0.1137573,-1.055728,1.877271,0.08270793,0.04475639,1.599288,0.98603,291.2215,204.1588,131.8216
3,3.69999,0.16369,-0.1077377,-0.18147,-1.196545,3.161454,-1.62448,-0.5811214,0.03759423,0,0,9.872923,10.43988,0.2236213,0.1425545,-0.04760633,-0.2142359,1.380991,2.648542,0.09101937,-0.1095541,0.1063512,-1.055101,1.875197,0.08294309,0.04510529,1.599436,0.9858428,291.1466,202.8092,133.0243
3,3.711101,0.1647329,-0.09489736,-0.1773772,-1.195914,3.159543,-1.625677,-0.5813659,-0.02249781,0,0,9.755621,10.39101,0.2278809,0.1457453,-0.04869252,-0.2128409,1.374846,2.651791,0.09301271,-0.1500457,0.104285,-1.054312,1.871363,0.08374976,0.04534944,1.599526,0.9857558,291.0535,201.9097,133.8116
3,3.722212,0.1583351,-0.09493212,-0.1794927,-1.1948,3.157692,-1.626438,-0.5818735,-0.04602462,0,0,9.667644,10.41056,0.225796,0.124398,-0.0370458,-0.2127035,1.372095,2.652148,0.09820358,-0.1671299,0.09468273,-1.053894,1.86841,0.0839479,0.0454766,1.599597,0.9856681,291.0021,201.2807,134.2904
3,3.733323,0.1519634,-0.1015441,-0.1953904,-1.193266,3.15476,-1.626775,-0.5823603,-0.04405411,0,0,9.608994,10.49853,0.2065048,0.08610682,-0.04025836,-0.2125,1.375928,2.646916,0.1033884,-0.1842118,0.08401925,-1.053636,1.865216,0.08415988,0.04565898,1.599541,0.985545,290.9975,201.0275,134.4347
3,3.744434,0.1509101,-0.1111785,-0.1995129,-1.191652,3.152538,-1.627541,-0.5820584,0.02804728,0,0,9.569892,10.64516,0.1937305,0.06585974,-0.03278614,-0.2124633,1.376426,2.644915,0.09697244,-0.1831411,0.0808738,-1.053047,1.862893,0.08452687,0.04577848,1.599597,0.9854237,291.013,200.428,134.9191
3,3.755545,0.1445298,-0.1165846,-0.2047726,-1.189996,3.149937,-1.627878,-0.582101,-0.004144624,0,0,9.540568,10.83089,0.1842419,0.05089341,-0.01679631,-0.2129661,1.37579,2.643929,0.08729541,-0.1639718,0.06387278,-1.053135,1.861748,0.08454977,0.04590079,1.599635,0.9853344,291.0056,199.8818,135.3633
3,3.766656,0.1349234,-0.1080288,-0.2016784,-1.189171,3.148074,-1.628265,-0.5823849,-0.02579393,0,0,9.521016,11.01662,0.185542,0.05823322,0.008807048,-0.2135924,1.368306,2.648998,0.08403598,-0.1501444,0.05109166,-1.053156,1.860434,0.08430956,0.04603526,1.599696,0.9852499,290.954,199.2248,135.854
3,3.777767,0.1349234,-0.1080288,-0.2016784,-1.189171,3.148074,-1.628265,-0.5822219,0.01517275,0,0,9.511242,11.16325,0.185542,0.05823322,0.008807048,-0.2135924,1.368306,2.648998,0.08403598,-0.1501444,0.05109166,-1.053156,1.860434,0.08430956,0.04617719,1.599767,0.9851509,290.9051,198.5132,136.3838
3,3.788878,0.07419017,-0.1084697,-0.2315259,-1.186104,3.139282,-1.625411,-0.5810282,0.1090634,0,0,9.491692,11.24145,0.1877749,0.08482796,0.01425778,-0.2129506,1.353943,2.656642,0.05337703,-0.1201949,0.06727276,-1.050835,1.856557,0.08508746,0.04616576,1.59811,0.9880587,291.934,195.0936,136.2706
3,3.799989,0.07419017,-0.1084697,-0.2315259,-1.186104,3.139282,-1.625411,-0.5827231,-0.1557826,0,0,9.491692,11.25122,0.1877749,0.08482796,0.01425778,-0.2129506,1.353943,2.656642,0.05337703,-0.1201949,0.06727276,-1.050835,1.856557,0.08508746,0.04480412,1.600327,0.9880114,291.9292,198.8298,130.5283
3,3.8111,0.07422979,-0.1361088,-0.2268998,-1.18343,3.136948,-1.62533,-0.5813861,0.123799,0,0,9.501467,11.19257,0.1932074,0.1167571,0.01756193,-0.2121144,1.342987,2.664958,0.03415719,-0.1265459,0.06425256,-1.050348,1.854458,0.08651625,0.04393973,1.600386,0.9878714,292.2496,201.21,127.7222
3,3.822211,0.07851452,-0.1583225,-0.2159369,-1.180847,3.135214,-1.625717,-0.5812088,0.01510882,0,0,9.521016,11.06549,0.1933085,0.1295006,0.02614541,-0.2118358,1.333673,2.671908,0.02869074,-0.1297605,0.04939364,-1.050517,1.852579,0.08730188,0.04365083,1.600119,0.9879643,292.6457,202.1403,125.8727
3,3.833322,0.08918451,-0.1761898,-0.1986485,-1.178059,3.133739,-1.626572,-0.5823518,-0.1044192,0,0,9.540568,10.88954,0.1849478,0.1262297,0.0464414,-0.2124483,1.325217,2.678435,0.02856257,-0.1329842,0.03555178,-1.050835,1.850743,0.08789896,0.04332245,1.600243,0.9873707,292.4649,202.3224,124.9088
3,3.844433,0.09663198,-0.174892,-0.1837377,-1.176487,3.132393,-1.627489,-0.5828296,-0.04266469,0,0,9.560118,10.65494,0.1572311,0.1038983,0.04976357,-0.2129655,1.32374,2.679221,0.02861407,-0.1350964,0.04300833,-1.050173,1.848891,0.08857434,0.0431568,1.600198,0.987246,292.7694,202.6241,124.6547
3,3.855544,0.0986832,-0.1299008,-0.1662191,-1.176885,3.131058,-1.628201,-0.5832664,-0.03968907,0,0,9.569892,10.36168,0.1105231,0.07831518,0.07560793,-0.2148127,1.320668,2.682756,0.01588669,-0.1254645,0.04629407,-1.049582,1.847631,0.08956636,0.04302568,1.599771,0.9873526,293.0118,203.1279,124.3286
3,3.866655,0.09007488,-0.08821855,-0.1561139,-1.177681,3.129635,-1.628135,-0.5833068,-0.003377304,0,0,9.569892,10.00978,0.1062189,0.05808584,0.07661214,-0.2155733,1.318859,2.683473,-0.003450606,-0.1052247,0.01978035,-1.050582,1.847292,0.09047983,0.04300801,1.599619,0.9873103,293.4326,203.2916,123.4662
3,3.877766,0.0750827,-0.03711472,-0.1567968,-1.179188,3.127595,-1.627574,-0.5830687,0.02175415,0,0,9.540568,9.648094,0.09973,0.02402297,0.07331795,-0.2167824,1.32215,2.679248,0.001817707,-0.0860915,0.005846579,-1.051119,1.847141,0.09026837,0.04282114,1.599916,0.9869666,293.485,203.39,123.0059
3,3.888877,0.05802147,-0.02128018,-0.1665864,-1.179487,3.125405,-1.626758,-0.5823071,0.06943634,0,0,9.491692,9.257087,0.09630386,0.007100299,0.04982634,-0.2165518,1.324994,2.675447,0.01120545,-0.08510558,-0.01767695,-1.052319,1.846109,0.09025027,0.04291928,1.599911,0.9872492,294.0632,203.6638,122.5666
3,3.899988,0.04523547,-0.02556993,-0.1686631,-1.179129,3.123415,-1.62593,-0.5820317,0.02466838,0,0,9.452591,8.914956,0.09289546,-0.02797319,0.03265348,-0.2171563,1.332448,2.667078,0.01103442,-0.08514474,-0.03791694,-1.053613,1.845109,0.09061885,0.04304125,1.600205,0.9873974,294.3827,203.7853,122.061
3,3.911099,0.03457994,-0.02965076,-0.1537004,-1.178574,3.122231,-1.625424,-0.5819247,0.009696907,0,0,9.423265,8.641251,0.08528443,-0.03320277,0.01564682,-0.2170109,1.335943,2.663015,-0.0006666631,-0.0670087,-0.04211418,-1.05432,1.845124,0.09108756,0.04318095,1.600536,0.987825,294.7198,204.1962,121.5585
3,3.92221,0.03457994,-0.02965076,-0.1537004,-1.178574,3.122231,-1.625424,-0.5819556,-0.002787344,0,0,9.41349,8.445747,0.08528443,-0.03320277,0.01564682,-0.2170109,1.335943,2.663015,-0.0006666631,-0.0670087,-0.04211418,-1.05432,1.845124,0.09108756,0.04342144,1.601021,0.9882132,294.7672,204.3562,121.1555
3,3.933321,0.01537834,-0.02700219,-0.1132569,-1.178214,3.121084,-1.624742,-0.5821537,-0.01800472,0,0,9.433041,8.367547,0.09406571,0.04341616,0.02658817,-0.2163962,1.320099,2.676204,-0.01935663,-0.060454,0.01236171,-1.052401,1.843717,0.09281623,0.04366726,1.601429,0.9885817,294.9164,204.5247,120.8585
3,3.944432,0.01216111,-0.01720352,-0.09739867,-1.178481,3.120679,-1.624652,-0.5821676,-0.001018381,0,0,9.462366,8.367547,0.0911572,0.1008488,0.04605804,-0.2161464,1.303792,2.691331,-0.02334851,-0.07741034,0.04971235,-1.050617,1.841702,0.09423276,0.04385542,1.601861,0.9886903,295.0903,204.5787,120.5432
3,3.955544,0.01322219,-0.01814096,-0.08779719,-1.178214,3.120072,-1.624605,-0.5822107,-0.003908616,0,0,9.501467,8.455523,0.07751064,0.1189008,0.06543221,-0.21663,1.291905,2.702636,-0.02218967,-0.08910181,0.06464057,-1.04942,1.839851,0.09535714,0.04396265,1.602137,0.9888508,295.4792,204.8977,120.1751
3,3.966655,0.03343878,-0.01474707,-0.0761155,-1.17834,3.119557,-1.625469,-0.5825473,-0.03066441,0,0,9.540568,8.631476,0.05652915,0.1390288,0.09872752,-0.2180389,1.278394,2.716006,-0.03174192,-0.07842153,0.06576542,-1.048799,1.83922,0.09645623,0.04414651,1.602221,0.9890411,295.7901,205.08,120.0016
3,3.977766,0.04515686,-0.01684497,-0.07501208,-1.178025,3.118747,-1.626055,-0.5827657,-0.01967774,0,0,9.589444,8.84653,0.04158096,0.1145463,0.1019421,-0.2190802,1.274677,2.719738,-0.03703279,-0.06562243,0.06578572,-1.048102,1.838907,0.0972669,0.04422686,1.602786,0.9887916,295.8435,205.0526,119.5437
3,3.988877,0.05369452,-0.02643271,-0.07594626,-1.177276,3.117838,-1.62667,-0.5836695,-0.08246635,0,0,9.599218,9.042033,0.03196023,0.09645351,0.1030027,-0.2200059,1.270925,2.723418,-0.03285214,-0.0518151,0.05187028,-1.048137,1.838835,0.09751404,0.04416126,1.602788,0.9891853,296.6793,206.0122,119.1086
3,3.999988,0.05479195,-0.03825493,-0.08430582,-1.176423,3.116638,-1.626938,-0.583554,0.01126101,0,0,9.599218,9.198437,0.0230083,0.05617889,0.06241772,-0.2197236,1.276329,2.718207,-0.02663917,-0.04017022,0.02728844,-1.048816,1.838797,0.09760246,0.04431813,1.602783,0.9892076,296.7373,206.1161,118.8217
3,4.011099,0.03988865,-0.04778069,-0.07779721,-1.17552,3.116042,-1.626566,-0.5835268,0.002196729,0,0,9.579668,9.305963,0.01951293,0.03182158,0.03356172,-0.2191467,1.280483,2.714166,-0.0311095,-0.0306253,-0.0003910661,-1.049884,1.838969,0.09801498,0.04441814,1.603392,0.9890109,296.856,206.1247,118.545
3,4.02221,0.02711397,-0.06251874,-0.06269177,-1.174273,3.11607,-1.626338,-0.5832323,0.02686656,0,0,9.550343,9.374389,0.02464299,0.01912367,0.01215638,-0.2187851,1.282133,2.711882,-0.03434155,-0.02955881,-0.004626926,-1.050052,1.838597,0.09876386,0.04452023,1.603494,0.9892429,297.4421,206.5797,118.4917
3,4.033321,0.02287853,-0.08059172,-0.05926051,-1.172652,3.115602,-1.626249,-0.5823209,0.08309104,0,0,9.530792,9.403714,0.02464484,0.03512288,0.007969948,-0.2182961,1.278053,2.715593,-0.03002001,-0.03381559,0.003867219,-1.04973,1.837946,0.09926507,0.04479599,1.603529,0.9892896,297.3981,206.5003,118.4609
3,4.044433,0.009103343,-0.1284275,-0.05011074,-1.16824,3.114996,-1.625805,-0.5821835,0.01193072,0,0,9.511242,9.41349,0.009886006,0.03613954,0.02515358,-0.2192133,1.272023,2.721557,-0.02558555,-0.02420751,0.02192502,-1.048429,1.837413,0.09997693,0.0450303,1.60356,0.9894763,297.4688,206.6412,118.3954
3,4.055544,0.009103343,-0.1284275,-0.05011074,-1.16824,3.114996,-1.625805,-0.5825931,-0.03741752,0,0,9.511242,9.39394,0.009886006,0.03613954,0.02515358,-0.2192133,1.272023,2.721557,-0.02558555,-0.02420751,0.02192502,-1.048429,1.837413,0.09997693,0.0467978,1.604239,0.9906824,298.8094,212.9966,119.1272
3,4.066655,0.01226357,-0.1111227,-0.0311548,-1.167792,3.115522,-1.626315,-0.5826117,-0.00129738,0,0,9.511242,9.354838,0.001516934,0.03500882,0.04438768,-0.2200783,1.268193,2.725654,-0.03311204,-0.01463043,0.01025039,-1.048831,1.837561,0.1005463,0.05021974,1.605415,0.990145,296.668,206.3031,124.9765
3,4.077766,0.01329104,-0.08764544,-0.02826547,-1.167745,3.115307,-1.626417,-0.5824541,0.01437956,0,0,9.521016,9.286413,-0.01341702,0.01585483,0.0465554,-0.2209412,1.269657,2.724866,-0.04397883,-0.0189064,-0.01308485,-1.049953,1.83725,0.1016467,0.05320958,1.606185,0.9908953,296.1342,206.6561,128.6967
3,4.088878,0.003670525,-0.06327947,-0.03816486,-1.168131,3.114618,-1.625769,-0.5829936,-0.04941442,0,0,9.540568,9.227761,-0.02385996,0.02108658,0.07223013,-0.2222695,1.264773,2.730536,-0.0452125,-0.02958329,-0.0290312,-1.050951,1.836529,0.102544,0.05516788,1.606731,0.991183,295.2342,203.9722,132.2085
3,4.099989,-0.004865222,-0.05284266,-0.05427974,-1.167925,3.113438,-1.624856,-0.5829596,0.003554342,0,0,9.550343,9.188662,-0.02156327,0.01778689,0.09243757,-0.2239708,1.261222,2.734045,-0.05158894,-0.0306275,-0.02685185,-1.051249,1.836133,0.1035498,0.05590685,1.606882,0.9913941,294.6976,202.5325,133.6258
3,4.1111,-0.01016882,-0.06467997,-0.06265055,-1.166703,3.112407,-1.624128,-0.5824067,0.05051659,0,0,9.560118,9.149561,-0.03441652,-0.03975186,0.100783,-0.2261386,1.270367,2.726068,-0.07938736,-0.01247152,-0.0447605,-1.052367,1.836894,0.1051624,0.05577377,1.606813,0.9915208,294.5444,202.6002,133.3121
3,4.122211,-0.01121091,-0.07970913,-0.07202934,-1.165334,3.111477,-1.623572,-0.58233,0.00661847,0,0,9.560118,9.120235,-0.03752555,-0.04726016,0.112496,-0.2280651,1.270932,2.725965,-0.08157625,0.004553661,-0.05649384,-1.053356,1.837781,0.1057922,0.05522962,1.60662,0.9916458,294.593,203.6188,132.0739
3,4.133323,-0.02499893,-0.1129894,-0.08971211,-1.162653,3.109768,-1.622063,-0.5825303,-0.01825902,0,0,9.550343,9.110459,-0.04181956,-0.05470289,0.1114366,-0.2295783,1.271836,2.725852,-0.07839975,0.02583084,-0.06615157,-1.054344,1.839237,0.1058034,0.05464858,1.606406,0.9917861,294.6931,204.8626,130.7001
3,4.144434,-0.04947622,-0.1291154,-0.09802774,-1.16059,3.108575,-1.620014,-0.5827433,-0.01928859,0,0,9.530792,9.110459,-0.04927608,-0.0557504,0.1114807,-0.2307267,1.272692,2.725778,-0.08057805,0.02901284,-0.07253105,-1.055329,1.839658,0.1065882,0.05422139,1.606231,0.991942,294.7524,205.9125,129.6149
3,4.155545,-0.08039661,-0.1121065,-0.09720274,-1.159972,3.107464,-1.617491,-0.5821798,0.05171929,0,0,9.521016,9.139785,-0.05010795,-0.01641238,0.1287175,-0.2321083,1.26344,2.735379,-0.09537575,0.03121322,-0.05962453,-1.055424,1.840197,0.1080146,0.05400147,1.606135,0.9920946,294.7405,206.6197,128.9516
3,4.166656,-0.09537955,-0.07476798,-0.09236406,-1.160627,3.106664,-1.615433,-0.5814788,0.06370635,0,0,9.511242,9.198437,-0.04262463,0.0454185,0.1150918,-0.2315853,1.249844,2.748833,-0.1004391,0.03980479,-0.03190508,-1.054601,1.840976,0.1089603,0.05400752,1.606086,0.9923097,294.571,206.9681,128.6812
3,4.177768,-0.09537955,-0.07476798,-0.09236406,-1.160627,3.106664,-1.615433,-0.5810799,0.03611086,0,0,9.511242,9.305963,-0.04262463,0.0454185,0.1150918,-0.2315853,1.249844,2.748833,-0.1004391,0.03980479,-0.03190508,-1.054601,1.840976,0.1089603,0.05416892,1.606061,0.9926242,294.2419,207.1118,128.6352
3,4.188879,-0.09233879,0.033823,-0.09909871,-1.16496,3.104087,-1.612597,-0.583277,-0.2010187,0,0,9.521016,9.423265,-0.06052944,-0.0410566,0.1638458,-0.2376552,1.25766,2.743046,-0.1364578,0.03570031,-0.006023698,-1.053966,1.841454,0.11311,0.05439199,1.60606,0.9929907,293.8304,207.1471,128.6878
3,4.19999,-0.0912872,0.04956693,-0.1174149,-1.166054,3.10183,-1.610739,-0.5810442,0.2059396,0,0,9.530792,9.540568,-0.07090889,-0.0006635934,0.1864863,-0.2396856,1.246434,2.75529,-0.1459434,0.05810784,-0.001725638,-1.053651,1.843255,0.1142459,0.05460053,1.606056,0.9932749,293.4892,207.0975,128.8028
3,4.211102,-0.07951247,0.0194149,-0.1436366,-1.164973,3.099198,-1.609213,-0.5825244,-0.1372109,0,0,9.540568,9.648094,-0.04724126,0.07595307,0.1930406,-0.2404707,1.226488,2.774307,-0.1535877,0.06979631,-0.02725141,-1.05486,1.844954,0.1155077,0.05562736,1.605949,0.9939609,292.5698,207.4046,129.2775
3,4.222213,-0.07519486,-0.0117842,-0.1677162,-1.163558,3.096453,-1.607413,-0.5828078,-0.02447642,0,0,9.540568,9.736072,-0.03348443,0.06315996,0.1854087,-0.2420323,1.224675,2.775838,-0.1315127,0.04304535,-0.05189057,-1.056545,1.844301,0.1164209,0.05680615,1.606061,0.9947698,291.4012,206.2063,130.8865
3,4.233324,-0.07613724,-0.08248179,-0.1966203,-1.159738,3.092951,-1.605112,-0.583317,-0.04648377,0,0,9.530792,9.794722,-0.02380122,0.07694815,0.1917857,-0.2438417,1.216317,2.783719,-0.1071451,0.02271418,-0.06058189,-1.057612,1.843768,0.1168907,0.05788483,1.606152,0.9955025,290.2544,204.6844,132.6014
3,4.244435,-0.07611227,-0.09747303,-0.2028078,-1.158137,3.090471,-1.603261,-0.5831295,0.01748987,0,0,9.511242,9.814272,-0.002531603,0.07798631,0.1862771,-0.2451307,1.210355,2.788602,-0.1028291,0.02271118,-0.05422116,-1.057787,1.844117,0.1177248,0.05904105,1.606056,0.9960179,289.2694,203.8275,133.8799
3,4.255547,-0.07285268,-0.1349373,-0.2161641,-1.154866,3.087335,-1.601319,-0.5828956,0.02119875,0,0,9.481916,9.833823,0.03138094,0.04707474,0.1730707,-0.2466982,1.211508,2.785652,-0.1261753,0.01428635,-0.04122071,-1.057718,1.843939,0.1201794,0.05986237,1.606122,0.996516,288.461,202.3887,135.4673
3,4.266658,-0.06004336,-0.1509583,-0.2212616,-1.1526,3.084701,-1.600121,-0.5829244,-0.002830159,0,0,9.442816,9.863148,0.05265974,0.041698,0.1728711,-0.2484884,1.207989,2.787777,-0.1398644,-0.01544377,-0.01227917,-1.056809,1.842183,0.1231603,0.06038203,1.606094,0.9970528,287.7081,201.5438,136.3297
3,4.277769,-0.04618014,-0.1594829,-0.223271,-1.150476,3.081976,-1.59908,-0.5831146,-0.01729568,0,0,9.41349,9.912024,0.04318191,0.07472633,0.1763063,-0.249788,1.196426,2.798846,-0.1398223,-0.04311128,0.001624752,-1.05641,1.84024,0.1255779,0.06059184,1.605088,0.9972946,286.2089,200.4105,135.063
3,4.28888,-0.04083361,-0.1680633,-0.2284685,-1.148206,3.079227,-1.597769,-0.5836579,-0.04953197,0,0,9.39394,10.01955,0.04015432,0.1162395,0.1861032,-0.250964,1.181483,2.813163,-0.133521,-0.07402676,0.001633331,-1.056713,1.83772,0.1279958,0.05995776,1.604305,0.9974801,285.6358,202.6304,131.1255
3,4.299992,-0.02377119,-0.1787139,-0.2304468,-1.145698,3.07643,-1.597079,-0.5838469,-0.01695602,0,0,9.39394,10.16618,0.05419682,0.1737001,0.1937153,-0.2519777,1.161354,2.831478,-0.1335189,-0.1017058,0.0112762,-1.056493,1.835086,0.1307553,0.05891563,1.603704,0.9977376,286.0647,206.715,126.1896
3,4.311103,0.001802266,-0.1871548,-0.2271166,-1.143196,3.074058,-1.597164,-0.5835193,0.02999543,0,0,9.41349,10.36168,0.07023275,0.1992323,0.1937047,-0.2530488,1.146273,2.844609,-0.139952,-0.1219231,0.01350239,-1.056535,1.832484,0.1338915,0.05802593,1.603453,0.9980463,286.7798,210.1557,122.3264
3,4.322214,0.03163441,-0.1944585,-0.2195349,-1.140833,3.072001,-1.597816,-0.5840344,-0.04740401,0,0,9.433041,10.59628,0.07778922,0.2236946,0.1990871,-0.2544214,1.13027,2.858949,-0.1335746,-0.1187486,0.01130854,-1.056705,1.831284,0.1357405,0.05892306,1.60412,0.9982147,288.0001,216.4386,120.2657
3,4.333325,0.06252658,-0.1954071,-0.214178,-1.138569,3.069706,-1.598829,-0.5845734,-0.04894418,0,0,9.47214,10.85044,0.1076679,0.2438519,0.2021264,-0.2557583,1.114058,2.87247,-0.1377331,-0.1304223,0.02734755,-1.055987,1.828992,0.1385331,0.06032122,1.603748,0.999377,287.3233,210.4858,124.7218
3,4.344437,0.09447806,-0.1899023,-0.2046299,-1.136728,3.067938,-1.600442,-0.5848813,-0.02793355,0,0,9.501467,11.09482,0.108431,0.2568035,0.1638237,-0.2549742,1.101886,2.883229,-0.1409138,-0.1485144,0.03486549,-1.055683,1.826074,0.141616,0.06169894,1.604898,0.9995032,287.2593,214.19,124.0729
3,4.355548,0.1253836,-0.1993846,-0.2002226,-1.134115,3.065832,-1.602096,-0.5851434,-0.02391631,0,0,9.540568,11.23167,0.08816083,0.297402,0.1482088,-0.2547873,1.082106,2.902247,-0.1238663,-0.1783718,0.04543236,-1.055189,1.822256,0.1441393,0.06298708,1.604772,1.000215,286.558,207.7927,128.5206
3,4.366659,0.145631,-0.2056879,-0.195856,-1.13156,3.063949,-1.603668,-0.5852898,-0.01338709,0,0,9.589444,11.2219,0.1041997,0.3218772,0.1492505,-0.2553332,1.06206,2.919879,-0.08549634,-0.1955128,0.05365795,-1.054702,1.818909,0.1450989,0.06403594,1.605714,1.000133,286.6912,211.6263,127.2967
3,4.37777,0.1658693,-0.2076622,-0.1862302,-1.129083,3.06222,-1.605648,-0.5852137,0.006848363,0,0,9.648094,11.1046,0.1610656,0.2762171,0.08462635,-0.2531494,1.06065,2.917343,-0.07253815,-0.1859292,0.07057265,-1.053526,1.816827,0.1463876,0.06490463,1.605452,0.9999831,285.8678,207.6884,129.4098
3,4.388882,0.1946219,-0.2095245,-0.1691337,-1.126689,3.061238,-1.608478,-0.5847679,0.04046727,0,0,9.716519,10.86022,0.1672008,0.2571473,0.05891778,-0.2522589,1.053048,2.922579,-0.07123461,-0.1752358,0.09505014,-1.051639,1.814729,0.1483029,0.06553645,1.605946,0.999789,286.5052,211.6957,127.7503
3,4.399993,0.2148884,-0.2317531,-0.1603039,-1.123148,3.059835,-1.610967,-0.5848291,-0.006082883,0,0,9.794722,10.54741,0.1542385,0.2604649,0.03985064,-0.251225,1.040831,2.933739,-0.05732423,-0.1763271,0.1023904,-1.050526,1.812195,0.1496505,0.06604204,1.605338,0.9997616,285.8947,209.1373,128.5428
3,4.411104,0.2170264,-0.2370016,-0.1548944,-1.120281,3.058501,-1.612906,-0.5851402,-0.02851319,0,0,9.863148,10.29326,0.1497403,0.2382085,0.01741134,-0.2501273,1.03472,2.938188,-0.0264778,-0.2062374,0.1075149,-1.049685,1.807901,0.15083,0.06636251,1.605781,0.9995783,286.6727,213.7246,126.1907
3,4.422215,0.2170264,-0.2370016,-0.1548944,-1.120281,3.058501,-1.612906,-0.5847726,0.03362893,0,0,9.931575,10.09775,0.1497403,0.2382085,0.01741134,-0.2501273,1.03472,2.938188,-0.0264778,-0.2062374,0.1075149,-1.049685,1.807901,0.15083,0.06676336,1.605178,0.9993574,286.19,211.7661,126.53
3,4.433327,0.2223019,-0.2100243,-0.1296582,-1.113832,3.054995,-1.619037,-0.5815066,0.2982397,0,0,9.990225,9.970675,0.1784949,0.2508881,0.01827675,-0.2487392,1.002091,2.963638,0.03522533,-0.271385,0.1198962,-1.047211,1.794144,0.1546396,0.06698629,1.605679,0.9989752,287.2016,215.5565,124.8444
3,4.444438,0.2223019,-0.2100243,-0.1296582,-1.113832,3.054995,-1.619037,-0.5888244,-0.6717181,0,0,10.02933,10.01955,0.1784949,0.2508881,0.01827675,-0.2487392,1.002091,2.963638,0.03522533,-0.271385,0.1198962,-1.047211,1.794144,0.1546396,0.06743926,1.604997,0.9990473,286.8325,213.3364,125.5211
3,4.455549,0.229735,-0.2002217,-0.1137994,-1.111863,3.054391,-1.621623,-0.5815992,0.666424,0,0,10.05865,10.18573,0.1773217,0.2530868,0.003390238,-0.2477331,0.9911247,2.972176,0.03963247,-0.2713636,0.1369037,-1.045417,1.790269,0.155931,0.06724486,1.605153,0.9985347,286.8181,212.74,124.5884
3,4.46666,0.2392979,-0.1861715,-0.09905625,-1.110241,3.054026,-1.624573,-0.5829287,-0.1279538,0,0,10.0782,10.44966,0.1612203,0.2553362,-0.008188717,-0.2466114,0.9782555,2.983981,0.04505681,-0.2756115,0.1507189,-1.043639,1.786219,0.1573989,0.06674035,1.60502,0.9986998,287.6914,214.0321,122.9248
3,4.477772,0.2541654,-0.1604065,-0.08553333,-1.109471,3.053657,-1.627803,-0.5837101,-0.06973428,0,0,10.0782,10.81134,0.129301,0.2703356,-0.005722091,-0.2461176,0.9623085,2.999563,0.0408399,-0.2766524,0.1560844,-1.042206,1.782347,0.159077,0.06613952,1.605292,0.9985054,288.5205,215.0554,121.3578
3,4.488883,0.262654,-0.1315768,-0.08163608,-1.109137,3.052933,-1.630851,-0.583962,-0.02259479,0,0,10.08798,11.13392,0.1250391,0.266079,-0.004641503,-0.2457176,0.9508545,3.009454,0.04511246,-0.2787896,0.1581791,-1.040942,1.778429,0.1604091,0.06549332,1.605511,0.9985827,289.8297,216.3852,120.1455
