ref,t,emg1,emg2,emg1raw,emg2raw,aDotS,bDotS,gDotS,aS,bS,gS,aDotSH,bDotSH,gDotSH,aSH,bSH,gSH
90,0,634,139,479,500,-1.946452,0.2159805,0.7432056,-1.509038,2.992386,-0.2293727,-1.055236,0.06673276,1.358295,-0.3365346,-2.979581,2.090374
90,0.01111111,634,139,479,500,-1.874678,0.1375024,0.726922,-1.510859,2.999833,-0.2102374,-1.033789,0.02205956,1.280178,-0.3273052,-3.000846,2.121119
90,0.02222222,634,139,479,500,-1.78241,-0.01888567,0.7046713,-1.50811,3.007958,-0.1933982,-1.029295,-0.03968024,1.221358,-0.3185647,-3.027004,2.157176
90,0.03333334,634,139,479,500,-1.716721,-0.164677,0.6674775,-1.504404,3.015377,-0.1764706,-1.031299,-0.03328156,1.235182,-0.3073021,-3.052402,2.192736
90,0.04444445,634,139,479,500,-1.609455,-0.3188213,0.6197689,-1.498987,3.022225,-0.162023,-0.9876267,0.01342273,1.225183,-0.2959603,-3.075387,2.224566
90,0.05555556,758,150,554,498,-1.520453,-0.4476457,0.5792396,-1.49169,3.029115,-0.1476105,-0.9263501,0.04213321,1.163895,-0.286228,-3.096329,2.253413
90,0.06666667,758,150,554,498,-1.413496,-0.5326468,0.539637,-1.4852,3.035182,-0.1350228,-0.8825814,0.07195508,1.163456,-0.2757453,-3.119746,2.284462
90,0.07777778,758,150,554,498,-1.285291,-0.5900565,0.4828215,-1.478033,3.040341,-0.1240229,-0.7554183,0.1077073,1.192057,-0.2638963,3.133958,2.318301
90,0.08888889,758,150,554,498,-1.180683,-0.6217207,0.4525948,-1.471906,3.045906,-0.1136898,-0.7569299,0.1078012,1.150502,-0.2547655,3.105959,2.353898
90,0.1,812,175,479,494,-1.034553,-0.6437896,0.4116042,-1.464681,3.050319,-0.1063123,-0.7993094,0.08041883,1.070993,-0.2482183,3.078578,2.390517
90,0.1111111,812,175,479,494,-0.9716143,-0.6426522,0.3798572,-1.458096,3.054466,-0.09742962,-0.7136104,0.09734595,1.007253,-0.2406885,3.055388,2.418588
90,0.1222222,812,175,479,494,-0.8906171,-0.6212833,0.3384273,-1.452039,3.057648,-0.0900223,-0.6651755,0.09731948,0.9471252,-0.2339566,3.029735,2.449445
90,0.1333333,812,175,479,494,-0.8332199,-0.5880185,0.3352301,-1.446978,3.061769,-0.08260912,-0.6212304,0.0909338,0.8688736,-0.2287144,3.006892,2.477364
90,0.1444445,812,175,479,494,-0.7450082,-0.5301549,0.3404615,-1.443073,3.066104,-0.07740638,-0.5788101,0.05904543,0.7554497,-0.2255745,2.987311,2.501816
90,0.1555556,987,193,531,504,-0.634611,-0.4062186,0.3326283,-1.442351,3.069914,-0.07344306,-0.5403529,0.01215571,0.6792815,-0.2234232,2.96341,2.530302
90,0.1666667,987,193,531,504,-0.6145047,-0.3688253,0.3303603,-1.439669,3.073711,-0.06730021,-0.5088981,0.01216006,0.6278363,-0.2200682,2.942535,2.555421
90,0.1777778,987,193,531,504,-0.553192,-0.2099889,0.3146506,-1.442152,3.076583,-0.06332624,-0.4682714,-0.005934179,0.5410742,-0.2184889,2.927842,2.57376
90,0.1888889,987,193,531,504,-0.5246165,-0.1417346,0.3015617,-1.442746,3.079605,-0.05837223,-0.4548755,-0.02298325,0.5025517,-0.2167739,2.906535,2.599462
90,0.2,986,196,500,504,-0.4429332,-0.01378787,0.2765011,-1.44613,3.081858,-0.05588004,-0.4217217,-0.05062026,0.4180003,-0.2169049,2.894846,2.614554
90,0.2111111,986,196,500,504,-0.3951191,0.04495791,0.26454,-1.448607,3.08411,-0.05329252,-0.3768835,-0.07191849,0.328021,-0.2175249,2.886037,2.626128
90,0.2222222,986,196,500,504,-0.3325046,0.1334817,0.2492472,-1.452645,3.086244,-0.05153856,-0.3293458,-0.05490768,0.2796169,-0.2166535,2.879885,2.634296
90,0.2333333,986,196,500,504,-0.2857734,0.2005857,0.2233905,-1.45654,3.087888,-0.04960936,-0.2977861,-0.0549275,0.2398805,-0.2164671,2.872474,2.643914
90,0.2444444,986,196,500,504,-0.2560204,0.2389246,0.2061883,-1.460319,3.089528,-0.0477345,-0.2408439,-0.04965091,0.1785692,-0.2168117,2.871241,2.646114
90,0.2555556,987,208,589,501,-0.2028623,0.294428,0.1857263,-1.465624,3.090469,-0.04674061,-0.2009577,-0.05712064,0.1216882,-0.2175845,2.869716,2.648829
90,0.2666667,987,208,589,501,-0.1826772,0.3168908,0.1813209,-1.469939,3.0914,-0.04487,-0.1916826,-0.0560133,0.08856601,-0.217984,2.86829,2.652024
90,0.2777778,987,208,589,501,-0.1581763,0.3338953,0.1631718,-1.474242,3.092554,-0.04389795,-0.1725541,-0.02941506,0.07564189,-0.2174418,2.867283,2.654425
90,0.2888889,987,208,589,501,-0.1485035,0.3370427,0.1439893,-1.478448,3.093322,-0.04280658,-0.1534754,-0.04010378,0.06900796,-0.217886,2.864595,2.658217
90,0.3,987,208,589,501,-0.1409305,0.3177503,0.1217586,-1.481513,3.094003,-0.04146648,-0.1354577,-0.06572533,0.06770973,-0.2188692,2.858348,2.665277
90,0.3111111,986,227,445,500,-0.1333526,0.2900079,0.108092,-1.484204,3.094574,-0.04010667,-0.1079399,-0.06896837,0.05035617,-0.2196991,2.857925,2.66616
90,0.3222222,986,227,445,500,-0.1107675,0.2334867,0.08826763,-1.485329,3.09504,-0.03949468,-0.08015189,-0.06587814,0.05860555,-0.2198823,2.852787,2.671374
90,0.3333333,986,227,445,500,-0.08280133,0.1557429,0.07389356,-1.485427,3.095144,-0.03923422,-0.08228484,-0.05627804,0.05546091,-0.2199137,2.849108,2.675991
90,0.3444445,986,227,445,500,-0.06127373,0.08438016,0.06694016,-1.484408,3.095753,-0.03921451,-0.0801097,-0.0307138,0.05230655,-0.2193358,2.847157,2.678828
90,0.3555556,876,219,454,503,-0.02570002,-0.0582784,0.06577938,-1.480011,3.096395,-0.0401626,-0.06515491,0.009737588,0.04371364,-0.2181417,2.848477,2.677896
90,0.3666667,876,219,454,503,-0.01591087,-0.127477,0.0672977,-1.477315,3.097193,-0.04039962,-0.05657794,0.0352771,0.04155646,-0.2170977,2.848034,2.678804
90,0.3777778,876,219,454,503,-0.008198589,-0.2095489,0.05717923,-1.472696,3.097729,-0.04058498,-0.03645413,0.03950059,0.02857745,-0.2165842,2.849442,2.677279
90,0.3888889,876,219,454,503,-0.0006471574,-0.2362139,0.04563347,-1.469801,3.097713,-0.04070695,-0.02262655,0.02347292,0.03266409,-0.2165874,2.84709,2.679684
90,0.4,876,219,454,503,0.005704939,-0.2096439,0.03270521,-1.468233,3.097893,-0.04089763,-0.01948172,0.0106816,0.0315414,-0.2166599,2.845231,2.681634
90,0.4111111,882,238,475,504,0.006671429,-0.1649543,0.02388744,-1.467572,3.0977,-0.04098339,-0.01854713,0.007531086,0.01869778,-0.2166865,2.849433,2.677677
90,0.4222222,882,238,475,504,0.005393796,-0.07766292,0.01375107,-1.469126,3.097535,-0.04092959,-0.02805631,0.005413748,0.02731247,-0.2164905,2.847198,2.680463
90,0.4333333,882,238,475,504,0.001953199,0.008627725,0.01533192,-1.471411,3.0977,-0.04079483,-0.04508155,0.01399937,0.02536962,-0.2159174,2.847273,2.681194
90,0.4444444,882,238,475,504,0.005040191,0.05123273,0.01294323,-1.473114,3.097729,-0.04097486,-0.04293635,0.004398726,0.02959056,-0.2159035,2.845071,2.683735
90,0.4555556,791,243,460,499,-0.0003962666,0.089572,0.01374633,-1.474925,3.09774,-0.04079217,-0.02473435,-0.002058424,0.04005001,-0.2156063,2.842395,2.686123
90,0.4666667,791,243,460,499,-0.006806016,0.09276164,0.01584063,-1.475867,3.097963,-0.04049869,-0.01714224,-0.002108108,0.05276523,-0.2151563,2.838002,2.690329
90,0.4777778,791,243,460,499,-0.02601873,0.1065579,0.01569992,-1.477439,3.098083,-0.0396795,0.01802197,-0.005419128,0.05453406,-0.2148697,2.834512,2.692442
90,0.4888889,791,243,460,499,-0.03775349,0.125681,0.00913755,-1.479588,3.097686,-0.03916764,-0.007061098,-0.03294595,0.005736957,-0.2164218,2.837097,2.690728
90,0.5,791,243,460,499,-0.04201944,0.1352106,0.001608501,-1.481318,3.097468,-0.03856044,-0.02316106,-0.0371356,-0.004761843,-0.2170577,2.83747,2.691067
90,0.5111111,838,227,482,498,-0.04520293,0.1298786,0.000555533,-1.482674,3.097231,-0.03787761,-0.02721455,-0.01903227,0.01020958,-0.2164372,2.837026,2.691936
90,0.5222223,838,227,482,498,-0.04302124,0.1107098,0.0006826869,-1.48333,3.097219,-0.03745257,-0.02285655,-0.01906456,0.01975358,-0.2164095,2.834487,2.694526
90,0.5333334,838,227,482,498,-0.03442521,0.07989068,0.006241738,-1.483579,3.097671,-0.03746801,-0.006796649,-0.01593247,0.02599217,-0.2162716,2.832271,2.696162
90,0.5444446,838,227,482,498,-0.03645828,0.04472423,0.005391769,-1.483013,3.097727,-0.0370222,-0.005670507,-0.01595168,0.03237195,-0.2162689,2.829635,2.698814
90,0.5555557,943,225,506,500,-0.04382614,0.01590379,-0.0008562531,-1.482446,3.097304,-0.03616786,-0.00450068,-0.00531044,0.03877089,-0.21574,2.827831,2.700575
90,0.5666668,943,225,506,500,-0.04480521,-0.006531262,-0.007125437,-1.481471,3.096906,-0.03575294,-0.003564464,-0.01487393,0.02808759,-0.2160889,2.827445,2.700855
90,0.577778,943,225,506,500,-0.04366997,-0.02574425,-0.01339374,-1.480678,3.096616,-0.03528209,0.005974803,-0.02981857,0.02796187,-0.2166215,2.824725,2.703189
90,0.5888891,943,225,506,500,-0.04681842,-0.03537164,-0.01974658,-1.480163,3.096089,-0.03469353,0.004896596,-0.03727127,0.03010606,-0.2168117,2.821002,2.70698
90,0.6000003,943,225,506,500,-0.04680577,-0.03752209,-0.02292598,-1.479696,3.0958,-0.03412202,0.004943816,-0.03941208,0.03542823,-0.2170572,2.81764,2.710191
90,0.6111114,774,220,500,502,-0.05321511,-0.02586327,-0.03046947,-1.47983,3.095305,-0.03319897,-0.002363573,-0.02234714,0.04403733,-0.2164905,2.816815,2.711164
90,0.6222225,774,220,500,502,-0.05540037,-0.004557755,-0.02954652,-1.480325,3.094972,-0.03258751,-0.005532395,-0.007419555,0.0419665,-0.2160175,2.815857,2.712229
90,0.6333337,774,220,500,502,-0.05439244,0.01357485,-0.02646181,-1.480952,3.094746,-0.03200907,0.00299604,-0.01169094,0.04399384,-0.2160127,2.814053,2.713991
90,0.6444448,774,220,500,502,-0.05547356,0.02209328,-0.02651623,-1.481369,3.094466,-0.03144128,0.01046385,-0.01172616,0.04498065,-0.2159051,2.811601,2.715857
90,0.655556,622,203,509,498,-0.0512995,0.04030085,-0.01276894,-1.482286,3.094701,-0.03101304,0.0222732,-0.02350133,0.05761431,-0.216033,2.806856,2.719939
90,0.6666671,622,203,509,498,-0.05132873,0.04991107,-0.009620568,-1.483133,3.094822,-0.03053474,0.02311007,-0.0341178,0.0394848,-0.2165555,2.805458,2.721215
90,0.6777782,622,203,509,498,-0.04498678,0.05850993,-6.810762E-05,-1.483993,3.095053,-0.03022901,0.02398324,-0.03622011,0.02135876,-0.2171249,2.805626,2.720794
90,0.6888894,622,203,509,498,-0.04074357,0.06065276,0.0009876266,-1.484598,3.094934,-0.02972141,0.01401037,-0.05530666,-0.009465763,-0.2185038,2.806832,2.719849
90,0.7000005,622,203,509,498,-0.03860611,0.05746182,0.001016128,-1.485125,3.094955,-0.02931714,0.009713549,-0.04995287,-0.01473734,-0.2189561,2.807287,2.71941
90,0.7111117,752,220,470,496,-0.03326294,0.05107772,-3.177905E-06,-1.4855,3.094783,-0.02901887,-0.00806991,-0.03608537,0.01208601,-0.2185646,2.804749,2.722354
90,0.7222228,752,220,470,496,-0.0353566,0.03510894,0.003289106,-1.485414,3.094953,-0.02861407,-0.01103824,-0.01266929,0.02707421,-0.2178168,2.8026,2.724661
90,0.7333339,752,220,470,496,-0.03641427,0.02661746,0.008666194,-1.485486,3.09519,-0.0282066,-0.01654291,-0.02007006,0.01218385,-0.2183142,2.804416,2.723229
90,0.7444451,752,220,470,496,-0.03427197,0.01706136,0.01299555,-1.485417,3.095475,-0.02788756,-0.01444076,-0.02220187,0.01002732,-0.2186008,2.803701,2.724029
90,0.7555562,752,220,470,496,-0.0235964,0.004312357,0.01522968,-1.485012,3.095617,-0.02784495,-0.008235568,-0.02538474,-0.00709006,-0.21911,2.80559,2.722118
90,0.7666674,637,187,524,501,-0.0001457012,0.003325937,0.01741789,-1.485083,3.095666,-0.02877599,-0.004088748,-0.04029201,-0.01142372,-0.2198557,2.80556,2.722428
90,0.7777785,637,187,524,501,0.006234679,0.007604169,0.01740904,-1.485294,3.095857,-0.02904976,-0.008241488,-0.02431058,-0.006026696,-0.219666,2.805407,2.722712
90,0.7888896,637,187,524,501,0.005138315,0.01717803,0.01628623,-1.485698,3.096085,-0.02887879,-0.02957273,-0.008238446,-0.0132416,-0.2194509,2.808324,2.720808
90,0.8000008,637,187,524,501,0.008345628,0.01398405,0.01525011,-1.485767,3.096238,-0.02908172,-0.02832503,0.007712394,-0.0004408032,-0.2188437,2.80779,2.721596
90,0.8111119,598,165,535,502,0.01047678,0.007635314,0.02062595,-1.485709,3.096677,-0.02925429,-0.02391484,0.01726978,0.0112396,-0.218237,2.80754,2.721961
90,0.8222231,598,165,535,502,0.009461606,-0.0009222161,0.01959478,-1.48508,3.096654,-0.02968945,-0.031453,0.0002538748,0.009173815,-0.2185907,2.805523,2.724597
90,0.8333342,598,165,535,502,0.01055799,-0.01369592,0.02074355,-1.484583,3.096935,-0.0298567,-0.02192978,-0.009358788,0.00586235,-0.2189007,2.804978,2.72511
90,0.8444453,598,165,535,502,0.006327752,-0.02226351,0.0186424,-1.483836,3.096964,-0.02984232,-0.02201272,-0.01467477,-0.0005401168,-0.2192762,2.805235,2.725094
90,0.8555565,598,165,535,502,-0.002169045,-0.02446461,0.01117808,-1.483464,3.096966,-0.029576,-0.01888563,-0.02425368,-0.002720438,-0.2196,2.805175,2.725514
90,0.8666676,605,169,519,495,-0.006429702,-0.02338775,0.01009631,-1.483672,3.09707,-0.02941035,-0.01996478,-0.008246153,-0.009071854,-0.2192133,2.807598,2.723441
90,0.8777788,605,169,519,495,-0.005373815,-0.02230595,0.01222348,-1.483455,3.097287,-0.02938745,-0.0283366,0.01094015,-0.0004284492,-0.2185251,2.807959,2.723623
90,0.8888899,605,169,519,495,0.004212219,-0.01801144,0.01222857,-1.48348,3.097486,-0.02985457,-0.0345064,0.02477228,0.01672831,-0.2176681,2.80481,2.727185
90,0.900001,605,169,519,495,0.008440142,-0.01157827,0.0175311,-1.483506,3.097889,-0.03008733,-0.02905452,0.03005929,0.02733454,-0.2170482,2.803355,2.728804
90,0.9111122,591,167,508,502,0.004194266,-0.009475542,0.01747674,-1.483192,3.097709,-0.03027641,-0.02269382,0.02151783,0.02832136,-0.2168852,2.802012,2.730401
90,0.9222233,591,167,508,502,-0.004366094,0.001180764,0.02269991,-1.483391,3.09792,-0.03010118,-0.02397607,0.01836318,0.00808628,-0.2169422,2.804233,2.728512
90,0.9333345,591,167,508,502,-0.007605511,0.01185837,0.02795024,-1.483819,3.098356,-0.02996749,-0.03050753,0.002432398,-0.0004164141,-0.2173651,2.806144,2.727229
90,0.9444456,591,167,508,502,-0.01298575,0.02786054,0.03315083,-1.484562,3.098659,-0.02978959,-0.0304889,0.003502559,0.001724315,-0.217021,2.805589,2.728203
90,0.9555568,591,167,508,502,-0.01407114,0.03425599,0.03417287,-1.485132,3.099053,-0.02963566,-0.03259452,0.007768661,0.002819181,-0.2168117,2.805679,2.728531
90,0.9666679,637,176,490,499,-0.01943726,0.0417468,0.04051169,-1.485908,3.099772,-0.0292969,-0.04208125,0.01204825,0.01251403,-0.216335,2.804512,2.730575
90,0.977779,637,176,490,499,-0.023703,0.04280018,0.0404966,-1.486405,3.10026,-0.02895442,-0.04522447,0.01418105,0.01681039,-0.216058,2.803693,2.731918
90,0.9888902,637,176,490,499,-0.02368337,0.03110945,0.04483198,-1.486449,3.100867,-0.02878025,-0.05060615,0.01422575,0.01152721,-0.2157427,2.805362,2.730987
90,1.000001,637,176,490,499,-0.02576865,0.01405939,0.04493337,-1.486173,3.101374,-0.02848996,-0.05172677,0.01104176,0.005151243,-0.2157682,2.805046,2.731575
90,1.011112,561,210,482,499,-0.02357451,-0.003006402,0.04504171,-1.485316,3.101825,-0.02860981,-0.04969805,0.009987429,-0.004459713,-0.2157943,2.806385,2.730799
90,1.022224,561,210,482,499,-0.02250257,-0.01683111,0.0472657,-1.484943,3.102473,-0.02808996,-0.04868487,0.01105885,-0.009794913,-0.2157496,2.807737,2.730002
90,1.033335,561,210,482,499,-0.01607731,-0.02959618,0.04736453,-1.484299,3.103007,-0.02812564,-0.04767648,0.007870793,-0.01301434,-0.2158045,2.809369,2.729137
90,1.044446,561,210,482,499,-0.01608509,-0.02856844,0.0452306,-1.483735,3.103518,-0.0278279,-0.04545646,0.01317815,-0.007699555,-0.2155291,2.809558,2.729148
90,1.055557,561,210,482,499,-0.01183857,-0.02640642,0.0484249,-1.483511,3.104189,-0.02787797,-0.0454241,0.01637007,-0.005563283,-0.2153038,2.810134,2.729094
90,1.066668,653,208,479,502,-0.009715818,-0.0242191,0.05481289,-1.483474,3.105052,-0.02811872,-0.04006244,-0.008174822,0.006069283,-0.2158396,2.806161,2.733328
90,1.077779,653,208,479,502,-0.007584358,-0.02315524,0.05374614,-1.483254,3.105606,-0.02815973,-0.0368005,-0.01779393,0.01560413,-0.2161773,2.803471,2.736282
90,1.08889,653,208,479,502,-0.008628644,-0.02532687,0.04949361,-1.482752,3.106036,-0.02813257,-0.03026141,0.0002896115,0.02517754,-0.2152702,2.801383,2.738658
90,1.100002,653,208,479,502,-0.005422691,-0.0285176,0.04952443,-1.482337,3.106627,-0.0282391,-0.02380138,0.005580816,0.03044631,-0.2149522,2.799707,2.740431
90,1.111113,653,208,479,502,-0.003287256,-0.025335,0.04418627,-1.482368,3.106997,-0.02826573,-0.02710837,0.0141441,0.0155771,-0.214703,2.801928,2.738457
90,1.122224,719,200,523,498,-0.0001085382,-0.01790906,0.03989176,-1.482196,3.107399,-0.02824229,-0.03144296,0.01950342,0.007112819,-0.2143919,2.802926,2.738021
90,1.133335,719,200,523,498,0.0009661131,-0.01580922,0.03455497,-1.482092,3.107631,-0.02831047,-0.03156993,0.01419672,-0.003549261,-0.2144681,2.804396,2.736947
90,1.144446,719,200,523,498,0.007339948,-0.00621322,0.0313097,-1.482451,3.107823,-0.02857732,-0.03169879,0.004628453,-0.01207684,-0.2146795,2.804858,2.736987
90,1.155557,719,200,523,498,0.01479697,-0.006193282,0.03133061,-1.482393,3.108179,-0.02898052,-0.0360355,-0.001739558,-0.01737075,-0.2150364,2.805932,2.736474
90,1.166668,608,201,494,498,0.01696508,-0.007303061,0.02388,-1.482234,3.108163,-0.02940236,-0.02743457,-0.01136754,-0.004693104,-0.2150657,2.804233,2.738501
90,1.17778,608,201,494,498,0.01913016,-0.009495921,0.01324841,-1.482053,3.108041,-0.02963992,-0.03063606,-0.01029075,-0.005725122,-0.2151919,2.804618,2.738528
90,1.188891,608,201,494,498,0.01808721,-0.01061154,0.005803994,-1.481906,3.108064,-0.02978373,-0.02734911,-0.001788145,-0.001510979,-0.2151509,2.806494,2.736646
90,1.200002,608,201,494,498,0.01700175,-0.004215268,0.00682626,-1.482073,3.108178,-0.02994991,-0.01986537,0.006706893,-0.001573936,-0.2148878,2.807086,2.736094
90,1.211113,608,201,494,498,0.02014406,0.008583874,0.007823126,-1.482537,3.108351,-0.03005803,-0.01892084,0.006737373,-0.01330286,-0.2148367,2.809737,2.733697
90,1.222224,601,202,474,495,0.008358641,0.02772187,0.005540603,-1.48347,3.108344,-0.02952221,-0.0254112,-0.007064218,-0.01752383,-0.2151504,2.810789,2.733292
90,1.233335,601,202,474,495,-0.02685201,0.04893414,0.005308656,-1.484604,3.108386,-0.02829449,-0.02639546,-0.009206854,-0.008994732,-0.2152377,2.809927,2.734451
90,1.244446,601,202,474,495,-0.03109792,0.05098783,-0.003250444,-1.484965,3.107934,-0.02780127,-0.0325995,0.0003841631,0.007065432,-0.2146215,2.808585,2.736454
90,1.255558,601,202,474,495,0.004042875,0.05960004,-0.00640686,-1.485974,3.107649,-0.0288154,-0.01949644,0.01734035,0.03252951,-0.2135317,2.805144,2.739678
90,1.266669,579,163,490,500,0.01254174,0.06496795,-0.005334547,-1.487032,3.107845,-0.02906894,-0.009961773,0.006665323,0.03027268,-0.2136377,2.80426,2.740342
90,1.27778,579,163,490,500,0.006164335,0.06598209,-0.008552625,-1.487642,3.107715,-0.02903272,-0.005913332,-0.005035653,0.01316293,-0.2140984,2.805028,2.73952
90,1.288891,579,163,490,500,-0.01090536,0.07445014,-0.0107887,-1.488751,3.107447,-0.02825294,-0.007141372,-0.01246273,-0.0006918861,-0.2145448,2.806436,2.738213
90,1.300002,579,163,490,500,-0.02687845,0.07757033,-0.01617952,-1.489703,3.107085,-0.02745186,-0.01246038,-0.01031669,-0.0006347131,-0.2146311,2.806512,2.738458
90,1.311113,579,163,490,500,-0.02363937,0.06367733,-0.02353217,-1.489925,3.10673,-0.02707955,-0.004735265,0.001339299,0.02062681,-0.2138944,2.802661,2.74193
90,1.322224,624,173,497,500,-0.00975392,0.04771442,-0.02658293,-1.490063,3.106447,-0.02714986,-0.003542911,0.002388032,0.03341532,-0.2134023,2.799214,2.745449
90,1.333336,624,173,497,500,-0.005459573,0.03282533,-0.02434624,-1.490018,3.106235,-0.02718661,0.005099282,0.008734399,0.0429256,-0.212867,2.796544,2.747771
90,1.344447,624,173,497,500,-0.00971048,0.03174169,-0.02754861,-1.490576,3.105813,-0.02686916,0.004979825,0.002366599,0.03333473,-0.2128436,2.795641,2.748614
90,1.355558,624,173,497,500,-0.02571017,0.0391528,-0.0276367,-1.491153,3.10553,-0.02614905,0.0004371007,-0.006097373,0.008863255,-0.213381,2.797751,2.746679
90,1.366669,624,173,497,500,-0.02997302,0.03809446,-0.02443602,-1.491538,3.105481,-0.02577461,0.002518056,-0.01036385,0.004596064,-0.2135109,2.795915,2.748271
90,1.37778,595,193,475,497,-0.02784195,0.03703275,-0.02441858,-1.491885,3.105279,-0.02547473,-0.002803697,-0.01887741,0.007829921,-0.2139131,2.794352,2.749955
90,1.388891,595,193,475,497,-0.02143734,0.02959428,-0.02647558,-1.492219,3.105027,-0.02523398,0.001526182,-0.01995703,0.01523055,-0.2138715,2.793273,2.750944
90,1.400002,595,193,475,497,-0.008611893,0.01576576,-0.02848306,-1.491982,3.104651,-0.02549444,0.01347053,-0.005113581,0.03217761,-0.2132425,2.790349,2.753329
90,1.411114,595,193,475,497,-0.008558266,-0.00552826,-0.02834718,-1.491549,3.104313,-0.0253256,0.01553225,-0.002971457,0.0247179,-0.2130433,2.789259,2.754129
90,1.422225,589,168,493,502,-0.004292169,-0.006568167,-0.02832301,-1.491705,3.104093,-0.02538205,0.01861689,0.00343136,0.01191153,-0.2129687,2.790811,2.752322
90,1.433336,589,168,493,502,-0.005371619,-0.00336162,-0.02621567,-1.491734,3.103848,-0.02525316,0.008963003,-0.008248182,0.008800944,-0.2133325,2.789767,2.753435
90,1.444447,589,168,493,502,-0.009648589,-0.003347574,-0.02197505,-1.491684,3.103581,-0.02495062,0.01331704,-0.00720683,0.01835473,-0.2130342,2.787132,2.755888
90,1.455558,589,168,493,502,-0.01712787,0.004096638,-0.02097762,-1.491938,3.103344,-0.02454422,0.00379016,-0.01571288,0.02696118,-0.2132185,2.783943,2.759234
90,1.466669,589,168,493,502,-0.02143041,0.008338353,-0.02206255,-1.492157,3.103315,-0.02375646,0.0005839071,-0.01569928,0.02594408,-0.213169,2.78187,2.761326
90,1.47778,606,170,514,501,-0.02036292,0.008329262,-0.02312094,-1.492186,3.103063,-0.02353116,0.002695343,-0.01464192,0.02379016,-0.2133117,2.780769,2.762321
90,1.488891,606,170,514,501,-0.02145338,0.008336876,-0.0220408,-1.492343,3.103104,-0.02296284,0.005889645,-0.01038065,0.02376543,-0.2130566,2.779844,2.763299
90,1.500003,606,170,514,501,-0.02254946,0.01475757,-0.01675748,-1.492656,3.103055,-0.02266137,0.003604957,-0.0167449,0.01099136,-0.2134902,2.780288,2.76288
90,1.511114,606,170,514,501,-0.02365141,0.02754212,-0.01791545,-1.493421,3.102682,-0.02222248,0.003498504,-0.01885664,0.0003442671,-0.2138151,2.780442,2.762551
90,1.522225,585,188,508,499,-0.02792111,0.03501117,-0.01479265,-1.494024,3.102392,-0.02206109,-0.00186537,-0.02629204,0.001433559,-0.2142332,2.780573,2.762909
90,1.533336,585,188,508,499,-0.02687267,0.03823002,-0.01161428,-1.494544,3.102336,-0.02178732,0.001537465,-0.02740384,0.02163794,-0.2142774,2.776707,2.766601
90,1.544447,585,188,508,499,-0.02362899,0.02968626,-0.01473804,-1.494489,3.102213,-0.02184857,0.004832351,-0.02531073,0.03013006,-0.2144351,2.773659,2.769377
90,1.555558,585,188,508,499,-0.01936594,0.02544965,-0.01256425,-1.494685,3.102199,-0.02169251,0.009120272,-0.01894287,0.03115911,-0.2144734,2.772033,2.770831
90,1.566669,585,188,508,499,-0.01618093,0.02546039,-0.01149582,-1.494914,3.102029,-0.02146668,0.007837134,-0.01355614,0.009852741,-0.2145038,2.775684,2.767405
90,1.577781,651,171,492,501,-0.008746596,0.02870927,-0.006169591,-1.495312,3.102112,-0.0215716,0.004426281,-0.009255756,-0.0114142,-0.2149011,2.778769,2.764542
90,1.588892,651,171,492,501,-0.009819154,0.03081578,-0.004036741,-1.495231,3.102418,-0.02149917,2.476946E-05,-0.01880916,-0.0220353,-0.2155073,2.780174,2.763242
90,1.600003,651,171,492,501,-0.009810967,0.02761997,-0.004016403,-1.495446,3.102357,-0.0213756,-0.001960898,-0.02202442,-0.007105311,-0.2156793,2.778012,2.765432
90,1.611114,651,171,492,501,-0.006615801,0.02444552,-0.002930912,-1.495711,3.102226,-0.0212989,0.001370125,-0.01991865,0.006694654,-0.2156111,2.776928,2.766623
90,1.622225,549,157,484,498,-0.0002237577,0.02129056,-0.001832261,-1.496111,3.102154,-0.02139264,0.004561368,-0.01460016,0.004538538,-0.2156548,2.777243,2.766165
90,1.633336,549,157,484,498,0.0104145,0.01921425,0.003537034,-1.496173,3.102353,-0.02171328,-0.003032555,-0.003897432,-0.01133159,-0.2156202,2.77941,2.764427
90,1.644447,549,157,484,498,0.01682485,0.01921779,0.001415581,-1.496398,3.102189,-0.02222727,0.001199679,0.005685667,-0.01880182,-0.2154551,2.780765,2.762746
90,1.655559,549,157,484,498,0.02109095,0.01392282,0.004656953,-1.496377,3.102318,-0.02260651,0.001197519,-0.004972896,-0.01562463,-0.215829,2.780573,2.762912
90,1.66667,549,157,484,498,0.02220352,0.006430759,-0.0006251778,-1.496192,3.102085,-0.0230438,-0.01148446,-0.001738681,-0.004835283,-0.2155254,2.780187,2.764072
90,1.677781,489,150,512,502,0.02648108,-0.001010649,0.0005008128,-1.495968,3.10215,-0.02347576,-0.0208004,0.01422731,0.01659446,-0.2148777,2.777998,2.76673
90,1.688892,489,150,512,502,0.02650145,-0.00420405,0.003706807,-1.495573,3.10215,-0.02406539,-0.01855398,0.02912779,0.02298401,-0.2140233,2.777918,2.766938
90,1.700003,489,150,512,502,0.02011711,-0.01376759,0.01014172,-1.49515,3.102448,-0.02414582,-0.01444006,0.0312608,0.009098078,-0.213854,2.779577,2.765482
90,1.711114,489,150,512,502,0.003045944,-0.01378672,0.0111637,-1.495275,3.102652,-0.02339214,-0.0211671,0.007887768,-0.01537968,-0.2147195,2.782529,2.763047
90,1.722225,489,150,512,502,-0.01291948,-0.01598878,0.01007761,-1.494733,3.102883,-0.02290798,-0.02344104,-0.001674276,-0.02708934,-0.2151099,2.784356,2.761425
90,1.733337,480,171,482,499,-0.003323894,-0.02021838,0.01119621,-1.494396,3.103036,-0.02315352,-0.0265705,0.001522781,-0.02172425,-0.2150795,2.785003,2.761163
90,1.744448,480,171,482,499,0.02219296,-0.009457728,0.01760024,-1.494659,3.103554,-0.02416765,-0.03186108,0.008999608,-0.02164094,-0.2147717,2.785629,2.760888
90,1.755559,480,171,482,499,0.02428836,0.003334787,0.01859078,-1.495017,3.103763,-0.02452558,-0.02852984,0.01962495,-0.0120687,-0.214255,2.785975,2.760787
90,1.76667,480,171,482,499,0.02212796,0.01077892,0.01747284,-1.495312,3.103942,-0.02451386,-0.02852699,0.01855848,-0.0109919,-0.2140766,2.785881,2.761254
90,1.777781,627,201,489,492,0.0145839,0.03743208,0.02367707,-1.49644,3.104407,-0.02449895,-0.03281679,0.01324804,-0.01202186,-0.2141352,2.786578,2.761041
90,1.788892,627,201,489,492,0.004963771,0.04808853,0.02783785,-1.497273,3.104711,-0.02441,-0.03705911,0.01220354,-0.009841074,-0.2138907,2.786887,2.761279
90,1.800003,627,201,489,492,-0.002514023,0.05341396,0.03097973,-1.497971,3.10512,-0.02422198,-0.04236222,0.009016577,-0.006597804,-0.2139147,2.786932,2.761827
90,1.811115,627,201,489,492,-0.0003936887,0.05343493,0.03311543,-1.498596,3.105508,-0.02424861,-0.03805554,0.007923353,-0.001298149,-0.213765,2.785102,2.764021
90,1.822226,627,201,489,492,0.006042026,0.04278,0.03000013,-1.498811,3.10568,-0.02463477,-0.03815718,0.000476446,-0.0087706,-0.2140873,2.786208,2.763333
90,1.833337,592,189,490,497,0.01035518,0.02678455,0.02585272,-1.498698,3.105864,-0.02485954,-0.03189377,-0.002712369,-0.02055722,-0.2142944,2.788532,2.761184
90,1.844448,592,189,490,497,0.006167781,0.009691462,0.01955749,-1.498498,3.105923,-0.02498365,-0.03406826,0.0005008746,-0.02477783,-0.2142044,2.789657,2.760678
90,1.855559,592,189,490,497,0.008330122,-0.005205017,0.02179125,-1.498071,3.106259,-0.02512799,-0.03725685,0.002642054,-0.02474075,-0.2141996,2.791025,2.759817
90,1.86667,592,189,490,497,0.01154305,-0.01265457,0.01970659,-1.497984,3.10628,-0.02522653,-0.03818914,0.009016063,-0.01408323,-0.2140462,2.791789,2.759516
90,1.877781,660,178,496,497,0.01582189,-0.01691975,0.01761541,-1.497668,3.106431,-0.0255493,-0.03486837,0.01644561,-0.004516643,-0.2135674,2.791541,2.760046
90,1.888893,660,178,496,497,0.01687562,-0.01478075,0.01652778,-1.497811,3.106423,-0.0256292,-0.04233062,0.01754863,-0.005504035,-0.2132766,2.792811,2.759436
90,1.900004,660,178,496,497,0.01476158,-0.0180044,0.01334987,-1.497498,3.106533,-0.02573306,-0.04118016,0.0122002,0.004070593,-0.2131567,2.790966,2.761627
90,1.911115,660,178,496,497,0.01151465,-0.01052675,0.01757754,-1.497626,3.107158,-0.02550669,-0.04013721,0.01220043,0.00192898,-0.2130209,2.79142,2.761614
90,1.922226,660,178,496,497,0.01144645,0.001231924,0.02284934,-1.498088,3.107833,-0.02535968,-0.03708481,0.004749198,-0.009825421,-0.2133075,2.7925,2.760834
90,1.933337,542,162,487,498,0.008194302,0.02147772,0.0248414,-1.498834,3.108156,-0.02540922,-0.03605778,-0.013368,-0.007737285,-0.2139456,2.791537,2.762167
90,1.944448,542,162,487,498,0.002814479,0.03429235,0.03007623,-1.499695,3.108646,-0.02522333,-0.04139101,-0.01548953,-0.007675037,-0.2141704,2.790731,2.763543
90,1.955559,542,162,487,498,-0.02282849,0.0587633,0.03517793,-1.500991,3.109165,-0.02431999,-0.05110034,-0.02290002,-0.01717808,-0.2148473,2.792031,2.763058
90,1.966671,542,162,487,498,-0.02601697,0.06512575,0.0298069,-1.502048,3.1094,-0.0241341,-0.05531675,-0.03034757,-0.01180773,-0.2151541,2.790525,2.765035
90,1.977782,560,189,477,497,-0.01749434,0.07043903,0.0244704,-1.502952,3.109534,-0.02416765,-0.05952293,-0.0239473,-0.008556399,-0.2152505,2.790463,2.765874
90,1.988893,560,189,477,497,-0.005770467,0.06728166,0.025584,-1.503659,3.109788,-0.02445368,-0.05311037,-0.02289561,-0.006493133,-0.2153171,2.790592,2.76617
90,2.000004,560,189,477,497,-0.00256281,0.06090481,0.02670088,-1.504153,3.110141,-0.02448617,-0.04996579,-0.007978566,-0.01714495,-0.2152287,2.79256,2.764564
90,2.011115,560,189,477,497,-0.008980714,0.0641403,0.03198953,-1.505237,3.1106,-0.02415594,-0.04580617,-0.00158041,-0.02889619,-0.2152979,2.795653,2.761944
90,2.022226,560,189,477,497,-0.0100486,0.06839077,0.02875325,-1.506283,3.11066,-0.02401745,-0.04583092,-0.003715888,-0.03210832,-0.2158034,2.797695,2.760247
90,2.033337,570,203,514,496,-0.0121839,0.07369128,0.02551753,-1.507257,3.11084,-0.02382837,-0.04888841,-0.02397804,-0.0129375,-0.216417,2.795096,2.763319
90,2.044448,570,203,514,496,-0.01323242,0.06940269,0.0234191,-1.507745,3.11115,-0.02367923,-0.0455636,-0.02400713,-0.0001810752,-0.2164468,2.793069,2.765791
90,2.055559,570,203,514,496,-0.001469743,0.05555651,0.01928009,-1.508022,3.111281,-0.02398549,-0.04649915,-0.01550003,0.009430055,-0.216319,2.791748,2.767602
90,2.06667,570,203,514,496,0.0006913655,0.04277797,0.01936222,-1.508179,3.111435,-0.02403023,-0.04319146,-0.001661357,0.01580239,-0.2157693,2.791891,2.767884
90,2.077781,570,203,514,496,0.001810892,0.0278258,0.0130693,-1.508077,3.111415,-0.02409042,-0.04214438,0.008996565,0.01048189,-0.2154726,2.792733,2.767479
90,2.088892,598,214,515,503,0.003960941,0.01929277,0.008862038,-1.508258,3.111333,-0.02398709,-0.03158624,0.01750396,-0.001340595,-0.2151733,2.795474,2.764901
90,2.100003,598,214,515,503,0.001847656,0.01288881,0.007834584,-1.508248,3.111444,-0.02392744,-0.02947135,0.008971294,-0.0003181337,-0.2153517,2.795342,2.765302
90,2.111114,598,214,515,503,0.001844586,0.01080639,0.01316235,-1.508548,3.111584,-0.02403556,-0.03158568,0.0004486516,0.003950625,-0.2154966,2.794399,2.766637
90,2.122225,598,214,515,503,0.0007907581,0.00440595,0.01318343,-1.508357,3.111484,-0.02397271,-0.03044473,0.003649253,0.01032613,-0.2150353,2.794544,2.766839
90,2.133336,566,207,532,504,0.007193682,0.003336125,0.01001144,-1.508379,3.111502,-0.0242369,-0.03028038,0.02600547,0.01888626,-0.214009,2.794133,2.767552
90,2.144447,566,207,532,504,0.009357017,-0.004158542,0.0068676,-1.507831,3.111491,-0.02446273,-0.02801904,0.03237681,0.02844796,-0.2133938,2.793611,2.768191
90,2.155558,566,207,532,504,0.009346455,0.0001029302,0.00684026,-1.507981,3.111567,-0.02459323,-0.01529044,0.02914207,0.02404401,-0.2131631,2.793446,2.768147
90,2.166669,566,207,532,504,0.006128978,0.005427856,0.01000578,-1.507995,3.111929,-0.02461826,-0.01875969,0.01214906,0.003793631,-0.2136351,2.796232,2.765783
90,2.17778,566,207,532,504,-0.001343977,0.01497516,0.006730396,-1.508407,3.111926,-0.02439456,-0.02295012,0.011071,0.01023588,-0.2136159,2.794226,2.768013
90,2.188891,549,216,502,500,-0.01412117,0.02127441,-0.002928555,-1.508812,3.111664,-0.02381718,-0.02716057,0.008950211,0.01558738,-0.2134438,2.794003,2.768614
90,2.200002,549,216,502,500,-0.01516914,0.02228909,-0.01039514,-1.509069,3.111336,-0.02358016,-0.03027953,0.00575491,0.02518939,-0.2132574,2.792809,2.770369
90,2.211113,549,216,502,500,-0.01092492,0.02336825,-0.01253127,-1.50957,3.111022,-0.02330639,-0.02696278,0.01851475,0.03263431,-0.2125698,2.791242,2.772146
90,2.222224,549,216,502,500,-0.005608693,0.02551921,-0.01146777,-1.509914,3.110896,-0.02333994,-0.02602095,0.01746351,0.02089841,-0.2125032,2.792287,2.771361
90,2.233335,542,208,482,496,-0.004532423,0.02337762,-0.01358177,-1.51012,3.110674,-0.02328775,-0.0186676,-0.003863659,0.01758583,-0.2129943,2.79089,2.772717
90,2.244446,542,208,482,496,-0.003474455,0.02975137,-0.0168159,-1.510612,3.110371,-0.02325792,-0.02081233,-0.0038519,0.01654197,-0.2129368,2.790261,2.77368
90,2.255557,542,208,482,496,0.00827905,0.02223785,-0.03165322,-1.510804,3.109573,-0.02328881,-0.02492312,0.001470674,0.02831018,-0.212516,2.788016,2.776148
90,2.266668,542,208,482,496,0.0104184,0.02328873,-0.03377645,-1.511011,3.109284,-0.02351625,-0.02156502,0.01742389,0.03789606,-0.2117053,2.785876,2.778278
90,2.277779,542,208,482,496,0.008295346,0.01797077,-0.03161727,-1.511073,3.108993,-0.02353808,-0.008692198,0.02269956,0.04523809,-0.2110102,2.783005,2.780958
90,2.28889,560,195,479,498,0.004049773,0.01369002,-0.03265421,-1.511099,3.108789,-0.02345499,0.0008008443,0.02055362,0.03659935,-0.2108249,2.783329,2.780358
90,2.300001,560,195,479,498,0.006161263,0.01797699,-0.02948017,-1.511407,3.108539,-0.02355726,0.002661807,0.006740259,0.01311629,-0.2112622,2.785086,2.778259
90,2.311112,560,195,479,498,0.001896683,0.02222512,-0.03164497,-1.511942,3.108165,-0.02346351,0.00252072,0.001434153,0.001389629,-0.2114955,2.786275,2.777097
90,2.322223,560,195,479,498,0.001924265,0.01577795,-0.04011999,-1.511932,3.107592,-0.02330053,0.008892535,-0.006031374,0.000237879,-0.2115748,2.786437,2.776439
90,2.333334,455,198,494,492,0.0136752,0.008316074,-0.0453672,-1.511782,3.106949,-0.02370959,0.006950997,-0.003917427,0.01623821,-0.2113549,2.784055,2.778574
90,2.344445,455,198,494,492,0.01585921,0.001884859,-0.05061779,-1.511502,3.106707,-0.02426246,0.01238192,0.006702326,0.02365388,-0.2109165,2.782873,2.779601
90,2.355556,455,198,494,492,0.01157941,0.008272819,-0.049605,-1.511743,3.106194,-0.02424329,0.01866814,0.007760793,0.01293207,-0.210916,2.783819,2.778241
90,2.366668,455,198,494,492,0.009443966,0.01361288,-0.04857348,-1.512193,3.105768,-0.02442385,0.02061843,0.007785365,-0.004129124,-0.2109815,2.786021,2.775827
90,2.377779,455,198,494,492,0.005141895,0.02004452,-0.04116391,-1.5126,3.105591,-0.02427258,0.02584432,-0.001802541,-0.01166127,-0.2113234,2.787282,2.774037
90,2.38889,430,187,497,496,0.005113306,0.02753405,-0.0358832,-1.513061,3.105357,-0.02439189,0.02995929,-0.02098205,-0.02025132,-0.2122188,2.787244,2.773508
90,2.400001,430,187,497,496,0.004049677,0.02646348,-0.0348109,-1.513189,3.105027,-0.02442438,0.03432263,-0.02527213,-0.008591337,-0.2123685,2.786098,2.774224
90,2.411112,430,187,497,496,0.009397018,0.02219648,-0.03798383,-1.513281,3.104219,-0.02466194,0.03335445,-0.02315262,-5.462207E-05,-0.2124979,2.784729,2.775219
90,2.422223,430,187,497,496,0.01367167,0.01687537,-0.0379377,-1.51324,3.103806,-0.02489576,0.03133604,-0.008237686,0.005316982,-0.2121069,2.784749,2.774835
90,2.433334,430,187,497,496,0.01047275,0.0158158,-0.03580879,-1.513379,3.103443,-0.0248899,0.0154267,-0.006061138,0.01081365,-0.2120196,2.783783,2.775944
90,2.444445,547,176,505,501,-0.005506113,0.01793286,-0.03053307,-1.513535,3.103305,-0.02471413,0.01431111,-0.01350899,0.00975104,-0.2122422,2.78273,2.777022
90,2.455556,547,176,505,501,-0.02257972,0.02007129,-0.0220663,-1.513767,3.103307,-0.0240313,0.01525348,-0.02628409,0.002261708,-0.2129208,2.7824,2.777142
90,2.466667,547,176,505,501,-0.02473385,0.02113465,-0.02101011,-1.513975,3.103143,-0.02346618,0.008682981,-0.0411558,-0.008350695,-0.2138023,2.782867,2.776993
90,2.477778,547,176,505,501,-0.01622082,0.021175,-0.01778974,-1.514199,3.103045,-0.02351145,-0.01041785,-0.03364613,-0.003862469,-0.2139328,2.781616,2.778788
90,2.488889,616,186,496,503,-0.007663205,0.01797784,-0.01881758,-1.51406,3.102712,-0.02400946,-0.01445902,-0.02194279,0.01324601,-0.2136862,2.779123,2.781484
90,2.5,616,186,496,503,-0.004459271,0.01160742,-0.01663416,-1.513999,3.102644,-0.02399615,-0.01962999,-0.005965527,0.02290621,-0.213292,2.778139,2.78276
90,2.511111,616,186,496,503,-0.005529445,0.01587838,-0.01559781,-1.514378,3.102531,-0.02399934,-0.02811242,0.008979142,0.02195605,-0.2127754,2.777962,2.783475
90,2.522222,616,186,496,503,-0.002358915,0.02125294,-0.00816503,-1.514647,3.102659,-0.02417884,-0.0260318,0.006838266,0.01660614,-0.2129586,2.777455,2.783993
90,2.533333,616,186,496,503,-0.0002399292,0.02022726,-0.002826153,-1.514828,3.102765,-0.02425501,-0.02621613,-0.002732677,0.002740867,-0.2134667,2.778139,2.783683
90,2.544444,545,181,519,495,0.008291153,0.01497264,0.002550098,-1.515058,3.102827,-0.02471041,-0.02520367,-0.01232853,-0.0004821345,-0.2139818,2.777636,2.784239
90,2.555555,545,181,519,495,0.01681783,0.01498151,0.0004436476,-1.515259,3.102809,-0.02510083,-0.02187516,-0.007042896,0.01120982,-0.2139291,2.775493,2.786634
90,2.566666,545,181,519,495,0.01360927,0.02453509,-0.001764001,-1.515602,3.102624,-0.02522653,-0.02284955,0.005735643,0.01552068,-0.2133453,2.773743,2.788594
90,2.577777,545,181,519,495,0.01037104,0.03412783,0.003494701,-1.5159,3.10287,-0.02522227,-0.02410495,-0.0006414261,0.0006045364,-0.2138731,2.775174,2.787655
90,2.588888,634,231,488,491,0.006092809,0.03415827,0.009875015,-1.516271,3.103158,-0.0251951,-0.02526277,-0.002765095,-0.007909754,-0.2142502,2.776102,2.786985
90,2.599999,634,231,488,491,0.003925573,0.03846382,0.01836698,-1.516745,3.103611,-0.02518072,-0.02105169,-0.002792848,-0.01114886,-0.2145538,2.776244,2.787188
90,2.61111,634,231,488,491,0.00283524,0.04169805,0.0247352,-1.517311,3.104056,-0.02519244,-0.02220495,-0.01876317,-0.01435983,-0.2152345,2.776357,2.787359
90,2.622221,634,231,488,491,-0.0003493614,0.0427528,0.02366326,-1.517862,3.104363,-0.02530003,-0.01998583,-0.01238762,-0.005853751,-0.2150513,2.776083,2.788127
90,2.633332,634,231,488,491,-0.001403254,0.04272275,0.01939935,-1.518367,3.104444,-0.02525209,-0.0210411,-0.002792805,-0.007957016,-0.2148489,2.777104,2.787392
90,2.644443,597,214,511,508,-0.004594889,0.03740947,0.02048289,-1.518857,3.104604,-0.0250433,-0.02532434,0.00256229,-0.00897372,-0.2146417,2.778704,2.786651
90,2.655554,597,214,511,508,-0.001381712,0.02361005,0.02697219,-1.518748,3.105093,-0.02514131,-0.01784917,0.004665833,-0.007984103,-0.2145554,2.779151,2.786202
90,2.666665,597,214,511,508,0.0007769996,0.01192681,0.0313181,-1.518614,3.105619,-0.02538738,-0.01469733,0.0004018908,-0.01016299,-0.2147435,2.780372,2.78517
90,2.677776,597,214,511,508,-0.002403205,0.004468773,0.03242289,-1.518452,3.106019,-0.02527926,-0.01987492,-0.006003207,0.005857774,-0.2148612,2.777843,2.787985
90,2.688887,527,191,511,498,-0.007709539,-0.001964048,0.02819945,-1.518291,3.106375,-0.02495595,-0.0218278,0.009976359,0.01868146,-0.2140143,2.777122,2.789183
90,2.699998,527,191,511,498,-0.009857528,-0.00089252,0.02819716,-1.518525,3.106839,-0.02461294,-0.02395376,0.01424282,0.0176424,-0.2137581,2.777033,2.789568
90,2.711109,527,191,511,498,-0.01624398,-0.00303903,0.02819393,-1.518442,3.107146,-0.02427738,-0.03043547,0.01215957,0.01131769,-0.2135445,2.777829,2.789533
90,2.72222,527,191,511,498,-0.01732606,-0.003048554,0.02711775,-1.518425,3.107332,-0.02379428,-0.02515705,0.01214294,0.006997561,-0.2135307,2.77825,2.789271
90,2.733331,527,191,511,498,-0.01521495,-0.0008784421,0.03243604,-1.518493,3.107862,-0.02368722,-0.01994816,-0.004899221,0.002647334,-0.2139003,2.778427,2.789405
90,2.744442,516,188,505,502,-0.01414986,-0.001934197,0.03351099,-1.51845,3.108263,-0.02358282,-0.01784919,-0.005970724,0.0004920457,-0.2140393,2.778507,2.789549
90,2.755553,516,188,505,502,-0.01413342,-0.005150566,0.03033574,-1.51832,3.108508,-0.02344754,-0.01775498,-0.004919795,0.009015686,-0.2139498,2.776931,2.791292
90,2.766664,516,188,505,502,-0.01624546,-0.004147323,0.02499595,-1.517991,3.108619,-0.02332823,-0.02298965,0.0004118793,0.01546939,-0.213699,2.775673,2.792877
90,2.777775,516,188,505,502,-0.0172913,-0.006314795,0.01968049,-1.517864,3.108687,-0.02312849,-0.0292007,0.0142567,0.02834154,-0.2130177,2.773613,2.795435
90,2.788886,516,188,505,502,-0.01516654,-0.004222153,0.01754538,-1.517503,3.108909,-0.02294793,-0.02826742,0.01641473,0.01555577,-0.212695,2.774672,2.794727
90,2.799997,546,192,482,495,-0.01626126,-0.004182536,0.02286868,-1.517574,3.109318,-0.02254313,-0.0251301,0.02067024,0.009136506,-0.2124899,2.775552,2.794117
90,2.811108,546,192,482,495,-0.01518824,-0.008434106,0.02396422,-1.517372,3.109614,-0.02242115,-0.02311438,-0.003821626,0.006936737,-0.2130523,2.775026,2.79496
90,2.822219,546,192,482,495,-0.01518899,-0.0116395,0.02292654,-1.517145,3.109945,-0.02209092,-0.01791243,-0.02088021,-0.0005913991,-0.2138225,2.773665,2.796144
90,2.83333,546,192,482,495,-0.0141223,-0.004227921,0.01542445,-1.517284,3.109929,-0.02194871,-0.02330202,-0.02618142,-0.004804473,-0.2142939,2.773728,2.796504
90,2.844441,689,211,430,500,-0.01413162,0.003215807,0.01218785,-1.517641,3.11008,-0.02178626,-0.02432182,-0.01659154,-0.00476875,-0.2141432,2.773424,2.796922
90,2.855552,689,211,430,500,-0.01520973,0.01065634,0.01000645,-1.517968,3.11013,-0.02158918,-0.02315739,0.004706537,-0.002616952,-0.2135072,2.774594,2.795944
90,2.866663,689,211,430,500,-0.01525206,0.02133326,0.01633375,-1.518237,3.110569,-0.02146934,-0.01890216,0.008958571,-0.003734689,-0.2133373,2.776201,2.794615
90,2.877774,689,211,430,500,-0.00994226,0.02350453,0.02059523,-1.518573,3.11091,-0.02152633,-0.01904263,-0.002746053,-0.01334393,-0.2138822,2.777657,2.793375
90,2.888885,689,211,430,500,-0.01098662,0.02239112,0.01421577,-1.518696,3.111008,-0.02138945,-0.01485341,-0.01339503,-0.01555149,-0.2142332,2.779367,2.791937
90,2.899997,570,192,517,497,-0.01092473,0.01596818,0.005734398,-1.51905,3.110858,-0.02158918,-0.01275774,-0.02086048,-0.01665378,-0.2147552,2.779679,2.79168
90,2.911108,570,192,517,497,-0.004533597,0.01280888,0.008967749,-1.519107,3.111047,-0.02171542,-0.01055421,-0.01661403,-0.01239476,-0.2147158,2.778721,2.792495
90,2.922219,570,192,517,497,-0.003472704,0.01601292,0.007892361,-1.519565,3.111217,-0.02173193,-0.01064709,-0.00700119,-0.02409352,-0.2146625,2.781564,2.789868
90,2.93333,570,192,517,497,-0.005608557,0.01813815,0.007872988,-1.519825,3.111295,-0.02162593,-0.01275533,-0.003799893,-0.02300033,-0.2146902,2.782634,2.789031
90,2.944441,544,196,513,497,-0.004541218,0.02027122,0.007859522,-1.520105,3.111341,-0.02170583,-0.02224294,-0.0059133,-0.01330927,-0.2146833,2.78155,2.790531
90,2.955552,544,196,513,497,-0.00664466,0.01384684,0.003634015,-1.520087,3.111245,-0.0215716,-0.01581535,-0.002741505,-0.01124219,-0.2146588,2.782,2.79005
90,2.966663,544,196,513,497,-0.005572625,0.009611083,0.005802506,-1.520214,3.111471,-0.02156894,-0.008515786,-0.01020217,-0.02304766,-0.2150769,2.784006,2.788059
90,2.977774,544,196,513,497,-0.004487001,0.001078309,0.001581914,-1.520194,3.111143,-0.02136548,-0.01292074,-0.01337101,-0.03685057,-0.2157075,2.786447,2.785766
90,2.988885,544,196,513,497,-0.006575553,-0.008546449,-0.003683045,-1.519886,3.111031,-0.02128505,-0.01197492,-0.02187473,-0.04434275,-0.2162801,2.789603,2.782961
90,2.999996,471,207,490,495,-0.009706443,-0.02244289,-0.009989653,-1.519338,3.110833,-0.02128398,-0.007422947,-0.01021599,-0.02200003,-0.2160665,2.788291,2.784003
90,3.011107,471,207,490,495,-0.007567976,-0.02563341,-0.009963414,-1.518975,3.110739,-0.02126321,-0.006105406,-0.002798412,-0.0006944027,-0.215748,2.786323,2.78596
90,3.022218,471,207,490,495,-0.004376583,-0.02775613,-0.007811564,-1.518467,3.110725,-0.02127227,-0.004804933,0.00569136,0.01954132,-0.2152319,2.784316,2.788084
90,3.033329,471,207,490,495,-0.008644179,-0.03198658,-0.001403656,-1.518022,3.110895,-0.02107413,-0.007978352,0.008896302,0.02064587,-0.2149698,2.78343,2.789114
90,3.04444,492,207,496,497,-0.01397271,-0.0309703,-0.003556766,-1.517398,3.110787,-0.02069809,-0.01224862,0.00356937,0.02069444,-0.2151424,2.781542,2.791085
90,3.055551,492,207,496,497,-0.02141545,-0.02996476,-0.009974889,-1.517092,3.1105,-0.02023843,-0.01228137,-0.006018234,0.02067869,-0.2153677,2.780015,2.792705
90,3.066662,492,207,496,497,-0.02353712,-0.03105036,-0.01210559,-1.516704,3.11026,-0.01991938,-0.007928947,-0.006043483,0.03127842,-0.2151648,2.777555,2.795388
90,3.077773,492,207,496,497,-0.02675423,-0.02360709,-0.01109517,-1.516459,3.110217,-0.01954494,0.00465743,-0.01458128,0.01514357,-0.2156244,2.77858,2.793953
90,3.088884,492,207,496,497,-0.02784709,-0.01508727,-0.0111489,-1.516518,3.110139,-0.01910285,0.01518476,-0.01459792,0.003312305,-0.2158913,2.779615,2.792509
90,3.099995,447,213,506,492,-0.02363415,-0.001193808,-0.005900772,-1.516863,3.110171,-0.01894626,0.01403685,-0.01989839,-0.002014458,-0.2160932,2.780058,2.7921
90,3.111106,447,213,506,492,-0.01939129,0.009468422,-0.009161202,-1.517488,3.109866,-0.0188147,0.01202281,-0.01244838,0.006542379,-0.2159344,2.778796,2.793256
90,3.122217,447,213,506,492,-0.01940053,0.01373195,-0.01026979,-1.517844,3.109484,-0.01855424,0.01110774,-0.009257446,0.01933061,-0.2156639,2.777238,2.794654
90,3.133328,447,213,506,492,-0.01833017,0.01054565,-0.009181082,-1.517875,3.109376,-0.01836835,0.01450661,0.0002925098,0.03529076,-0.2151429,2.77402,2.797523
90,3.144439,447,213,506,492,-0.0161554,0.002004386,-0.01230752,-1.517579,3.109284,-0.01845251,0.01235783,0.009896821,0.03106984,-0.2147051,2.773669,2.797891
90,3.15555,443,186,514,503,-0.01398752,-0.009728936,-0.01542207,-1.517129,3.10901,-0.01834811,0.01537397,-0.002872434,0.01824128,-0.2150018,2.77312,2.798159
90,3.166661,443,186,514,503,-0.006508166,-0.01824257,-0.01748183,-1.516754,3.108705,-0.01839179,0.01421961,-0.009249242,0.01185309,-0.2152527,2.772718,2.798405
90,3.177772,443,186,514,503,-0.007560031,-0.02251215,-0.01744846,-1.51635,3.108672,-0.01830604,0.01514492,-0.01881304,0.002240164,-0.215552,2.773202,2.797824
90,3.188883,443,186,514,503,-0.007567124,-0.01508275,-0.02175772,-1.516358,3.108344,-0.01820803,0.01621141,-0.02840961,0.005408813,-0.2160548,2.771715,2.799064
90,3.199994,506,188,470,496,-0.002280141,-0.006546272,-0.01965445,-1.51631,3.10838,-0.01813666,0.01306767,-0.02094627,0.008650747,-0.2159685,2.770886,2.799924
90,3.211105,506,188,470,496,0.00195301,0.00941582,-0.02400766,-1.516786,3.107979,-0.01824692,0.01106071,-0.008167984,0.01615104,-0.2156132,2.769613,2.801077
90,3.222216,506,188,470,496,0.0008591227,0.02008081,-0.02301282,-1.517363,3.107758,-0.01821123,0.01538481,0.004594148,0.01930416,-0.2152761,2.770083,2.800545
90,3.233327,506,188,470,496,0.003988083,0.03931177,-0.01567145,-1.518313,3.107772,-0.01833853,0.01970184,0.010966,0.02246471,-0.2148511,2.768976,2.801286
90,3.244438,506,188,470,496,0.0007498153,0.05529091,-0.01471425,-1.519312,3.107684,-0.01824904,0.02060642,-0.0007323027,0.01178884,-0.2151472,2.768723,2.801381
90,3.255549,508,197,488,498,0.002869923,0.05955727,-0.0147362,-1.520079,3.107508,-0.01831509,0.01823268,-0.01666553,-0.006313663,-0.2156713,2.769625,2.800276
90,3.26666,508,197,488,498,-0.00036164,0.0595761,-0.01048541,-1.520687,3.107476,-0.01786076,0.01170899,-0.02834796,-0.014792,-0.2164426,2.770688,2.799281
90,3.277771,508,197,488,498,0.001804288,0.0499701,-0.01361671,-1.520934,3.107164,-0.01797953,0.006592089,-0.01343782,0.001275946,-0.2159222,2.768641,2.801509
90,3.288882,508,197,488,498,0.0007868372,0.03502613,-0.01778411,-1.520931,3.106853,-0.01794651,0.004720706,0.008912113,0.01837898,-0.215046,2.766908,2.803198
90,3.299993,576,181,392,501,0.0008270983,0.02331492,-0.01877791,-1.521138,3.106572,-0.01807754,0.007907205,0.009987427,0.01940304,-0.2146311,2.767187,2.803086
90,3.311104,576,181,392,501,0.000834154,0.01588557,-0.01446856,-1.521134,3.106506,-0.0180834,0.00881693,0.00787629,0.005540114,-0.214671,2.768526,2.801653
90,3.322215,576,181,392,501,-0.002360076,0.01055268,-0.01337699,-1.521056,3.106382,-0.01783998,0.005579176,0.004685203,0.001316694,-0.2149033,2.768147,2.80185
90,3.333326,576,181,392,501,-0.0001994519,-0.002222359,-0.01328946,-1.520742,3.106222,-0.01787088,0.004362102,0.003646633,-0.01252169,-0.2151302,2.770787,2.799238
90,3.344437,576,181,392,501,-0.0001639063,-0.011798,-0.01215627,-1.520447,3.10622,-0.0181079,0.00875272,0.008928143,-0.002966624,-0.2149533,2.769346,2.800305
90,3.355548,585,170,456,497,0.002004124,-0.02141464,-0.01741501,-1.519924,3.105893,-0.01818833,0.01424168,0.01314801,0.01083136,-0.214523,2.767416,2.80189
90,3.366659,585,170,456,497,0.00735846,-0.02672756,-0.01842933,-1.519609,3.105711,-0.01856596,0.01748116,0.006734863,0.01825065,-0.2144319,2.764995,2.804196
90,3.37777,585,170,456,497,0.009478968,-0.02668955,-0.01415749,-1.519419,3.105771,-0.01871137,0.02067746,0.01205441,0.01822256,-0.2140462,2.76492,2.804224
90,3.388881,585,170,456,497,0.01265921,-0.02029004,-0.01419051,-1.519371,3.105624,-0.01892442,0.01304966,0.0121065,0.002323978,-0.2140415,2.766869,2.802381
90,3.399992,585,170,456,497,0.01158954,-0.01708965,-0.01420108,-1.519345,3.105643,-0.01907569,0.01409253,0.01104411,0.001251196,-0.2138811,2.766841,2.802339
90,3.411103,534,156,536,501,0.0126474,-0.01177444,-0.01636332,-1.519372,3.105392,-0.01923282,0.01406195,0.01211471,-0.001942776,-0.2137858,2.767537,2.801512
90,3.422215,534,156,536,501,0.01478069,-0.0128356,-0.01527569,-1.519064,3.10541,-0.01947729,0.009811832,0.01317675,-0.002952067,-0.213846,2.767015,2.801764
90,3.433326,534,156,536,501,0.01372099,-0.012852,-0.01740901,-1.518924,3.10515,-0.01958009,0.01098264,0.02061774,0.004505259,-0.2133634,2.766476,2.802146
90,3.444437,534,156,536,501,0.01582248,-0.005348428,-0.01318546,-1.519259,3.10518,-0.01981392,0.007713349,0.01743454,-0.002908583,-0.21343,2.766574,2.80181
90,3.455548,580,166,459,491,0.01685795,2.187816E-05,-0.006825523,-1.519418,3.105269,-0.02004029,0.009753694,0.007848463,-0.008273151,-0.2136883,2.767436,2.800814
90,3.466659,580,166,459,491,0.01684792,0.004313814,-0.003655174,-1.519742,3.105338,-0.02034975,0.008587277,-0.002794931,-0.01467598,-0.2142465,2.768718,2.799437
90,3.47777,580,166,459,491,0.01895727,0.01072447,-0.001560447,-1.520055,3.105378,-0.02061393,0.009675718,-0.005999763,-0.01149688,-0.2144196,2.768701,2.799326
90,3.488881,580,166,459,491,0.02004768,0.007508632,-0.006884206,-1.520198,3.104794,-0.02095961,0.003326531,0.004696702,-0.007158822,-0.2136521,2.770236,2.798548
90,3.499992,580,166,459,491,0.02112007,0.001112355,-0.006835099,-1.519878,3.104822,-0.02102672,0.002494559,0.0174573,0.010989,-0.2128137,2.767947,2.800872
90,3.511103,615,170,516,499,0.02218536,0.001114985,-0.006832322,-1.519906,3.104741,-0.02128611,0.004644193,0.01638118,0.01309488,-0.2126092,2.767243,2.801449
90,3.522214,615,170,516,499,0.02111742,6.557698E-05,-0.003628399,-1.519864,3.104857,-0.02154337,0.01192918,0.007853332,-0.000852691,-0.2129863,2.769147,2.79917
90,3.533325,615,170,516,499,0.02004114,0.001148872,-0.0004422523,-1.519924,3.104948,-0.02175749,0.003207058,-0.003810914,-0.01569354,-0.2135184,2.770986,2.797553
90,3.544436,615,170,516,499,0.01682155,-0.000986662,0.0006405904,-1.519832,3.105169,-0.0214491,-0.002161803,-0.0005874233,-0.01990522,-0.2135589,2.77341,2.79548
90,3.555547,465,165,529,496,0.01468875,0.002190134,-0.001516194,-1.519933,3.105089,-0.02154391,-0.007438165,-0.002708576,-0.01452535,-0.2136148,2.773251,2.795867
90,3.566658,465,165,529,496,0.01042469,0.005323512,-0.002619212,-1.519401,3.10493,-0.02156947,-0.01151712,0.01541586,-0.000610102,-0.2125687,2.773511,2.796258
90,3.577769,465,165,529,496,0.008294301,0.006376654,-0.003696941,-1.519507,3.104862,-0.02160569,-0.00713543,0.02390948,0.007879823,-0.2119786,2.772836,2.79688
90,3.58888,465,165,529,496,0.008234586,0.01818377,0.009018173,-1.520113,3.105421,-0.02178359,-0.0008525243,0.01005725,0.002466241,-0.212043,2.772872,2.79666
90,3.599991,465,165,529,496,0.008215929,0.02248238,0.01323959,-1.520619,3.10548,-0.02192794,-0.001058399,-0.00376143,-0.01247477,-0.2126065,2.77515,2.794472
90,3.611102,492,177,499,495,0.006087756,0.02035349,0.0143131,-1.520842,3.105656,-0.02193699,-0.009656607,-0.002654596,-0.01983816,-0.212761,2.777117,2.792917
90,3.622213,492,177,499,495,0.00290587,0.01924611,0.008980559,-1.521003,3.10553,-0.02184644,-0.008524853,-0.01439229,-0.009231869,-0.2131301,2.776353,2.793796
90,3.633324,492,177,499,495,0.004012668,0.007491115,0.004790888,-1.520556,3.105367,-0.02194977,-0.01257417,0.0005117934,0.005751227,-0.2126129,2.775046,2.795326
90,3.644435,492,177,499,495,0.002938053,0.004295629,0.005878939,-1.520472,3.105537,-0.02175909,-0.01566562,0.01543397,0.01114109,-0.2118449,2.77467,2.796012
90,3.655546,495,159,498,498,0.007217607,-0.002092423,0.004866176,-1.520297,3.105566,-0.02198386,-0.01778589,0.0250324,0.009048962,-0.2113,2.775349,2.795613
90,3.666657,495,159,498,498,0.002941999,-0.007395723,0.01024387,-1.520105,3.106258,-0.02175536,-0.01362206,0.0175557,0.001534116,-0.2116617,2.775824,2.795037
90,3.677768,495,159,498,498,0.0008120453,-0.01060589,0.01345054,-1.519462,3.106438,-0.02171808,-0.01692354,0.01012195,-0.005900218,-0.2118491,2.776886,2.794283
90,3.688879,495,159,498,498,-0.0002271887,-0.0191268,0.01350543,-1.519083,3.106631,-0.02177933,-0.01065955,-0.002674422,-0.01556632,-0.2124025,2.777671,2.7932
90,3.69999,495,159,498,498,0.002964582,-0.02123705,0.01459685,-1.518907,3.106884,-0.02183419,-0.01056452,0.004779847,-0.009158937,-0.211977,2.777543,2.793442
90,3.711101,453,150,502,502,0.005103752,-0.02019414,0.01033442,-1.518694,3.106872,-0.02193752,-0.01686933,0.0133153,-0.00375036,-0.2115892,2.777737,2.793605
90,3.722212,453,150,502,502,0.007248633,-0.01485501,0.01029914,-1.518771,3.106887,-0.02247548,-0.0166071,0.02926222,0.01439375,-0.2106624,2.775504,2.795807
90,3.733323,453,150,502,502,0.01042812,-0.01268903,0.01455476,-1.518675,3.107168,-0.02270238,-0.01465924,0.02608541,-0.001612807,-0.2105825,2.777737,2.793741
90,3.744434,453,150,502,502,0.01147219,-0.01052585,0.01986571,-1.518538,3.107462,-0.02283021,-0.01375045,0.01864127,-0.01442251,-0.2108808,2.780276,2.791298
90,3.755545,453,150,502,502,0.01360856,-0.009476018,0.01666855,-1.518475,3.10756,-0.02304167,-0.01281309,0.004801168,-0.02191295,-0.2113687,2.781823,2.789875
90,3.766656,461,213,483,498,0.01469629,-0.01056888,0.0102753,-1.51846,3.107323,-0.02326591,-0.01066145,0.003732284,-0.01981035,-0.2113181,2.782725,2.789035
90,3.777767,461,213,483,498,0.01790877,-0.01166074,0.004964191,-1.518291,3.107236,-0.02355886,-0.005309796,0.0005086409,-0.01773074,-0.21143,2.78222,2.789253
90,3.788878,461,213,483,498,0.03387452,-0.006290644,0.007113758,-1.51826,3.10755,-0.02442012,-0.006387237,0.00690931,-0.0209047,-0.2113176,2.784046,2.787566
90,3.799989,461,213,483,498,0.0349208,-0.002041347,0.008165896,-1.518053,3.107846,-0.02475355,-0.006373978,0.02925941,-0.02512285,-0.2109202,2.786422,2.785607
90,3.8111,464,191,491,498,0.04129655,0.002249242,0.01028552,-1.518194,3.108016,-0.02539644,-0.003124768,0.02817435,-0.01983275,-0.2106614,2.787237,2.784765
90,3.822211,464,191,491,498,0.0465898,0.005482962,0.01667917,-1.518095,3.10849,-0.02592321,0.003237853,0.01962551,-0.01884748,-0.2108137,2.787573,2.784381
90,3.833322,464,191,491,498,0.04871778,0.006553465,0.01667783,-1.518209,3.10866,-0.02652508,-0.0002035275,0.001554675,-0.03588606,-0.2114933,2.790542,2.781551
90,3.844433,464,191,491,498,0.05404264,0.005473198,0.01458367,-1.518063,3.108968,-0.02711204,-0.003491368,-0.001603242,-0.04650627,-0.211708,2.794076,2.777775
90,3.855544,464,191,491,498,0.05191506,0.006519441,0.01244066,-1.518176,3.109043,-0.02763722,-0.007760445,0.002676087,-0.04858407,-0.2118023,2.797009,2.775121
90,3.866655,502,225,496,501,0.06154409,-0.003090476,0.007205836,-1.517708,3.109058,-0.02864283,-0.01091091,0.01229047,-0.0495906,-0.2113405,2.799882,2.772141
90,3.877766,502,225,496,501,0.06261416,-0.007335151,0.009366789,-1.517518,3.109213,-0.02937626,-0.004390689,0.02716733,-0.04322917,-0.2107892,2.80156,2.770256
90,3.888877,502,225,496,501,0.06474844,-0.009442586,0.01259629,-1.51733,3.109648,-0.03025085,0.005218571,0.03460631,-0.04439283,-0.2102885,2.805521,2.765944
90,3.899988,502,225,496,501,0.07006404,-0.006198123,0.01792421,-1.517378,3.1101,-0.03132943,0.007274526,0.03462822,-0.0529305,-0.2100435,2.809862,2.76135
90,3.911099,418,187,512,495,0.07327111,-0.006217879,0.01367149,-1.517318,3.110152,-0.03221466,0.006993605,0.02294699,-0.07531936,-0.2106145,2.816161,2.755124
90,3.92221,418,187,512,495,0.07536639,0.0001875889,0.01150588,-1.517791,3.110222,-0.03271747,0.006955966,0.01868267,-0.07852292,-0.2109746,2.820349,2.75079
90,3.933321,418,187,512,495,0.0849596,0.0001973417,0.009400446,-1.517804,3.110266,-0.03391269,0.009117067,0.01760475,-0.07535185,-0.2111093,2.823944,2.747114
90,3.944432,418,187,512,495,0.08816936,0.002300874,0.005134802,-1.517758,3.110229,-0.03508448,0.01459189,0.03142121,-0.06580158,-0.2105852,2.827351,2.743499
90,3.955544,418,187,512,495,0.09351919,-0.007273499,0.005210905,-1.517402,3.110284,-0.03628717,0.0147226,0.04312692,-0.05832578,-0.2100179,2.830842,2.739804
90,3.966655,462,169,502,498,0.09782548,-0.01157539,-0.001154364,-1.516995,3.109954,-0.03771356,0.01786099,0.04312462,-0.06368633,-0.2098933,2.835454,2.73501
90,3.977766,462,169,502,498,0.09996676,-0.01794182,0.001026329,-1.516751,3.110101,-0.03890985,0.012468,0.0420875,-0.07001394,-0.2098933,2.839926,2.730573
90,3.988877,462,169,502,498,0.1010471,-0.02223324,-0.003207786,-1.516328,3.109928,-0.03994688,0.01346182,0.0314362,-0.07323828,-0.2101671,2.844024,2.726395
90,3.999988,462,169,502,498,0.1031779,-0.01479349,-0.008562739,-1.516544,3.10989,-0.04119378,0.01768995,0.02395787,-0.07435805,-0.2105303,2.847398,2.722721
90,4.011099,462,169,502,498,0.1010313,-0.01052386,-0.006465416,-1.516528,3.109864,-0.04227289,0.01972507,0.02289927,-0.08290458,-0.2107924,2.852845,2.717127
89.66666,4.02221,444,176,487,500,0.1042316,-0.005174481,-0.006507377,-1.516808,3.109576,-0.04374721,0.02291461,0.02608944,-0.08506878,-0.2108297,2.85826,2.711459
89.33333,4.033321,444,176,487,500,0.1041936,0.006571406,-0.002318552,-1.517188,3.109669,-0.04494031,0.02825017,0.03352605,-0.08723137,-0.2107423,2.862836,2.706447
88.99999,4.044433,444,176,487,500,0.1073573,0.0225336,-0.006664694,-1.51787,3.109586,-0.04615791,0.02937328,0.03244,-0.0819262,-0.2109042,2.867077,2.701896
88.66666,4.055544,444,176,487,500,0.1062854,0.02996518,-0.01099063,-1.518406,3.109137,-0.04728442,0.03170241,0.04199228,-0.0680945,-0.2105506,2.870555,2.697862
88.33332,4.066655,487,159,507,501,0.09135595,0.03737853,-0.01214321,-1.519002,3.108938,-0.04788524,0.03171045,0.03772763,-0.06597088,-0.2105729,2.874157,2.693989
87.99998,4.077766,487,159,507,501,0.08176968,0.03949021,-0.0132548,-1.519608,3.108646,-0.04858138,0.03600705,0.03451014,-0.06175043,-0.2105186,2.876708,2.690959
87.66665,4.088878,487,159,507,501,0.09349343,0.03950524,-0.01535476,-1.52002,3.108404,-0.04989113,0.04245196,0.03341435,-0.0565048,-0.2104696,2.879991,2.687114
87.33331,4.099989,487,159,507,501,0.1041366,0.03635307,-0.01105619,-1.520191,3.108235,-0.05125946,0.04769786,0.02594518,-0.0629662,-0.2108361,2.883957,2.682382
86.99998,4.1111,487,159,507,501,0.1041498,0.03208508,-0.01209384,-1.520429,3.108063,-0.05242699,0.05076879,0.0131629,-0.07047778,-0.211463,2.887789,2.677978
86.66664,4.122211,492,159,491,495,0.1020265,0.02994907,-0.01530894,-1.520958,3.107387,-0.05332235,0.0465505,0.01315169,-0.06723186,-0.2118518,2.889982,2.675356
86.33331,4.133323,492,159,491,495,0.09354934,0.01711031,-0.02057456,-1.520739,3.107018,-0.05406643,0.03803611,0.01531188,-0.06713677,-0.2119716,2.893662,2.671591
85.99997,4.144434,492,159,491,495,0.08401492,-0.002138309,-0.02473864,-1.519855,3.106654,-0.05463368,0.03276904,0.0217106,-0.06387448,-0.2119296,2.897073,2.668008
85.66663,4.155545,492,159,491,495,0.08620252,-0.02345948,-0.02886513,-1.519095,3.106141,-0.05553969,0.02659266,0.04088575,-0.04992879,-0.211113,2.900067,2.665009
85.3333,4.166656,501,153,459,494,0.09370349,-0.0415631,-0.03085281,-1.518148,3.105907,-0.05668911,0.02985238,0.04298017,-0.04463773,-0.2110374,2.902433,2.662271
84.99996,4.177768,501,153,459,494,0.1011721,-0.05428683,-0.0265027,-1.517389,3.105616,-0.05785984,0.04249812,0.03441713,-0.05437734,-0.2115104,2.9061,2.657907
84.66663,4.188879,501,153,459,494,0.1011823,-0.06491138,-0.02216823,-1.516405,3.105613,-0.05890593,0.04236468,0.03230579,-0.06609836,-0.2117256,2.911116,2.652535
84.33329,4.19999,501,153,459,494,0.1075863,-0.07023008,-0.02105766,-1.515276,3.105383,-0.06028385,0.0368626,0.03021359,-0.08202878,-0.2122273,2.917471,2.646031
83.99995,4.211102,501,153,459,494,0.1150593,-0.07448666,-0.0231412,-1.514322,3.105112,-0.06175551,0.0410433,0.03021106,-0.08953129,-0.2125203,2.923229,2.639833
83.66662,4.222213,432,156,489,497,0.1214605,-0.07979606,-0.02308441,-1.513309,3.105,-0.063208,0.03783622,0.03660557,-0.09161844,-0.2126566,2.928443,2.63454
83.33328,4.233324,432,156,489,497,0.1406458,-0.09566205,-0.01121093,-1.511726,3.10534,-0.06532201,0.04003677,0.06003629,-0.09266908,-0.2120153,2.936007,2.626625
82.99995,4.244435,432,156,489,497,0.1609121,-0.1073234,-0.01001698,-1.510221,3.105359,-0.06766666,0.04463568,0.08447033,-0.06922708,-0.2107775,2.939179,2.622921
82.66661,4.255547,432,156,489,497,0.2077992,-0.1188363,0.002968142,-1.5087,3.105875,-0.07137804,0.09563071,0.1129208,0.008044578,-0.2081548,2.934244,2.625448
82.33327,4.266658,425,161,511,499,0.2449355,-0.0770816,0.02090517,-1.508838,3.106541,-0.07502764,0.1400535,0.1138806,-0.02226134,-0.2074752,2.941404,2.615624
81.99994,4.277769,425,161,511,499,0.2853113,-0.04607153,0.02614253,-1.508937,3.106996,-0.07887112,0.1354119,0.1437829,-0.067976,-0.2067758,2.95574,2.600275
81.6666,4.28888,425,161,511,499,0.3235709,-0.00869297,0.02600014,-1.50982,3.107208,-0.08350501,0.1221201,0.1886705,-0.1295504,-0.2055737,2.977975,2.577544
81.33327,4.299992,425,161,511,499,0.3203237,0.008343291,0.02375985,-1.51042,3.107477,-0.08658469,0.1106249,0.1600424,-0.1987144,-0.2070054,2.995193,2.559771
80.99993,4.311103,425,161,511,499,0.3171506,0.01039686,0.01308495,-1.510641,3.107318,-0.08997756,0.09240138,0.1219136,-0.2955249,-0.2099317,3.018859,2.536132
80.6666,4.322214,453,188,502,498,0.3619534,0.0008140141,-0.003789874,-1.510332,3.106668,-0.09503011,0.08745124,0.09111081,-0.3487916,-0.2127732,3.039731,2.514986
80.33326,4.333325,453,188,502,498,0.4344878,-0.02150165,-0.02050118,-1.509333,3.106173,-0.1015676,0.0863888,0.07831416,-0.3445303,-0.2143429,3.053648,2.500434
79.99992,4.344437,453,188,502,498,0.4963808,-0.05020234,-0.03400204,-1.508007,3.105587,-0.1086501,0.09309353,0.1059567,-0.3243154,-0.2146646,3.070666,2.482569
79.66659,4.355548,453,188,502,498,0.5177531,-0.07571049,-0.03377216,-1.506628,3.105516,-0.1147444,0.1063452,0.1580582,-0.2988065,-0.214018,3.089084,2.4629
79.33325,4.366659,453,188,502,498,0.5219824,-0.09679798,-0.001664437,-1.505055,3.106561,-0.1207174,0.1528446,0.1632822,-0.3355199,-0.2154156,3.111788,2.437832
78.99992,4.37777,534,177,508,495,0.5294097,-0.09240453,0.01427512,-1.50441,3.106903,-0.1270717,0.1859522,0.1345277,-0.4179625,-0.2194956,3.137488,2.409888
78.66658,4.388882,534,177,508,495,0.5569957,-0.044413,0.01190501,-1.505215,3.106889,-0.13399,0.1883879,0.1101171,-0.4808845,-0.2238185,-3.120411,2.383075
78.33324,4.399993,534,177,508,495,0.586709,0.00357436,0.006324299,-1.506532,3.106378,-0.1410474,0.1784195,0.08462125,-0.5085206,-0.2280699,-3.099755,2.361275
77.99991,4.411104,534,177,508,495,0.6015658,0.03768572,0.004025906,-1.507779,3.106359,-0.1483541,0.1732481,0.07716295,-0.4914393,-0.2310042,-3.081868,2.342093
77.66657,4.422215,482,164,505,498,0.6121287,0.07608593,0.003803961,-1.509791,3.106093,-0.1554114,0.1637347,0.06865799,-0.4817628,-0.2343512,-3.064907,2.323977
77.33324,4.433327,482,164,505,498,0.6025127,0.08143288,0.01013921,-1.51085,3.10626,-0.1618659,0.1562939,0.08039996,-0.4848527,-0.237596,-3.045577,2.303537
76.9999,4.444438,482,164,505,498,0.5919154,0.06432822,0.004896905,-1.511076,3.106157,-0.1681254,0.1628359,0.1059414,-0.4795596,-0.2403231,-3.024635,2.281185
76.66656,4.455549,482,164,505,498,0.5919597,0.04940007,0.002866827,-1.511224,3.106134,-0.1747699,0.1702576,0.09739619,-0.4807112,-0.2438566,-3.007917,2.262779
76.33323,4.46666,482,164,505,498,0.6069898,0.02910555,-0.01296144,-1.510973,3.105384,-0.1822108,0.1955027,0.1005546,-0.5118725,-0.2481374,-2.98748,2.240125
75.99989,4.477772,424,165,500,498,0.6283199,0.01322143,-0.007479209,-1.51083,3.105483,-0.1897646,0.2079759,0.1026799,-0.5418332,-0.2528469,-2.96727,2.21795
75.66656,4.488883,424,165,500,498,0.6624647,-0.006947871,-0.009390339,-1.510146,3.105419,-0.1981125,0.2184426,0.09521061,-0.5568728,-0.257631,-2.949044,2.19762
75.33322,4.499994,424,165,500,498,0.6635445,-0.01335725,-0.008276224,-1.50956,3.105475,-0.2055188,0.2153092,0.1047987,-0.5546888,-0.2617632,-2.931479,2.178374
74.99989,4.511106,424,165,500,498,0.6518511,-0.02937742,-0.01029972,-1.508932,3.105797,-0.212116,0.2145176,0.08664259,-0.5238065,-0.2655523,-2.919379,2.164309
74.66655,4.522217,282,127,543,501,0.6401447,-0.03477274,-0.0124274,-1.508117,3.105716,-0.2187872,0.2062843,0.1036822,-0.5023845,-0.2688621,-2.903786,2.147179
74.33321,4.533328,282,127,543,501,0.6178907,-0.07643966,-0.02180722,-1.50606,3.105574,-0.2249295,0.1841963,0.1410198,-0.4850378,-0.2715758,-2.885524,2.128398
73.99988,4.544439,282,127,543,501,0.6190934,-0.1191309,-0.03431087,-1.5036,3.105412,-0.2318559,0.1654499,0.1623371,-0.4517756,-0.273838,-2.86979,2.111928
73.66654,4.555551,282,127,543,501,0.6319875,-0.1607217,-0.04360372,-1.500634,3.105292,-0.238974,0.1817832,0.170764,-0.4221015,-0.2761634,-2.855709,2.095881
73.33321,4.566662,282,127,543,501,0.6448604,-0.1905594,-0.04976852,-1.497715,3.105278,-0.2464281,0.1880137,0.1473179,-0.4296644,-0.2799233,-2.843271,2.081681
72.99987,4.577773,463,166,510,500,0.6448665,-0.2076145,-0.04325283,-1.494647,3.10582,-0.2533715,0.1920106,0.1089707,-0.4414895,-0.2844522,-2.833574,2.070289
72.66653,4.588884,463,166,510,500,0.6501781,-0.2118004,-0.03362381,-1.492204,3.10631,-0.2607831,0.2098554,0.08869803,-0.4598256,-0.2891447,-2.82282,2.057188
72.3332,4.599996,463,166,510,500,0.6448076,-0.2022136,-0.03050211,-1.49023,3.106543,-0.267636,0.2081975,0.0706771,-0.5099186,-0.2952934,-2.809914,2.042456
71.99986,4.611107,463,166,510,500,0.6404834,-0.1713587,-0.03497502,-1.489084,3.106327,-0.2746582,0.1963742,0.06327257,-0.5172615,-0.3003881,-2.799298,2.030452
71.66653,4.622218,398,200,491,502,0.6308355,-0.1394896,-0.04048304,-1.488053,3.10641,-0.2814796,0.1867312,0.05798924,-0.520362,-0.3052435,-2.789022,2.018917
71.33319,4.633329,398,200,491,502,0.6222664,-0.1150326,-0.04383767,-1.487205,3.106219,-0.2882116,0.1848977,0.06008551,-0.4936967,-0.3090939,-2.780407,2.008669
70.99986,4.644441,398,200,491,502,0.6104554,-0.09153453,-0.03017294,-1.486787,3.106339,-0.2947682,0.2022357,0.08022872,-0.4725469,-0.3128868,-2.769845,1.9959
70.66652,4.655552,398,200,491,502,0.599783,-0.08724283,-0.02381854,-1.486028,3.10666,-0.3012547,0.2002034,0.08981854,-0.4661171,-0.3169614,-2.759468,1.98389
70.33318,4.666663,398,200,491,502,0.5955139,-0.08511557,-0.02277863,-1.485135,3.106715,-0.3077565,0.1810215,0.0898762,-0.4669903,-0.3215341,-2.750033,1.973459
69.99985,4.677774,438,206,567,502,0.6104944,-0.1095911,-0.02470396,-1.483306,3.106922,-0.3149939,0.1660715,0.08460867,-0.4679083,-0.3261158,-2.741269,1.96374
69.66651,4.688886,438,206,567,502,0.6521893,-0.1575119,-0.03706351,-1.480223,3.10716,-0.3233567,0.1374916,0.07082282,-0.4463168,-0.3300115,-2.734969,1.957074
69.33318,4.699997,438,206,567,502,0.6778482,-0.1905868,-0.04634039,-1.476738,3.107741,-0.3314933,0.1282103,0.0739949,-0.4163944,-0.3333426,-2.728022,1.949492
68.99984,4.711108,438,206,567,502,0.7055838,-0.2054417,-0.04723386,-1.474001,3.108086,-0.340181,0.1649549,0.1302817,-0.3857962,-0.3355764,-2.716119,1.935465
68.6665,4.722219,438,206,567,502,0.6926972,-0.1925626,-0.02603018,-1.472515,3.109032,-0.3473465,0.2256612,0.2153359,-0.414009,-0.3389048,-2.697924,1.914233
68.33317,4.733331,454,204,504,497,0.6435592,-0.1627052,0.000310421,-1.471605,3.110374,-0.3534153,0.2270786,0.2047868,-0.4758404,-0.3449092,-2.68539,1.900033
67.99983,4.744442,454,204,504,497,0.5976473,-0.1403167,0.01921451,-1.470924,3.111408,-0.3590026,0.2254597,0.1590266,-0.5121224,-0.3511815,-2.678357,1.89115
67.6665,4.755553,454,204,504,497,0.5880267,-0.1254598,0.02018017,-1.469607,3.112165,-0.3657026,0.2217905,0.08449829,-0.5313869,-0.3574612,-2.675348,1.886117
67.33316,4.766665,454,204,504,497,0.5965447,-0.1095375,0.008380976,-1.468787,3.112235,-0.3725342,0.2129968,0.02807873,-0.5388411,-0.3637249,-2.673329,1.882129
66.99982,4.777776,469,159,483,493,0.6306303,-0.09252967,-0.003333859,-1.46781,3.11236,-0.3805492,0.1873626,-0.02725655,-0.5269345,-0.3694273,-2.673334,1.880859
66.66649,4.788887,469,159,483,493,0.6636556,-0.08398046,-0.01075541,-1.467044,3.112314,-0.3888535,0.16719,-0.03465921,-0.518206,-0.3748511,-2.670326,1.87678
66.33315,4.799998,469,159,483,493,0.6550442,-0.04667958,-0.004603174,-1.467494,3.112532,-0.3961655,0.173793,0.01217875,-0.5128894,-0.3799393,-2.66195,1.866818
65.99982,4.81111,469,159,483,493,0.6230544,-0.04350121,0.003809433,-1.467235,3.11293,-0.4023014,0.1870571,0.09733182,-0.494786,-0.3838291,-2.649514,1.85285
65.66648,4.822221,469,159,483,493,0.6123958,-0.04245427,0.004875623,-1.466853,3.113585,-0.4088229,0.1936004,0.1143391,-0.4852435,-0.3883949,-2.64165,1.843324
65.33315,4.833332,455,178,535,500,0.6113119,-0.0275738,0.001622535,-1.466908,3.113927,-0.4157929,0.1734878,0.08880621,-0.4658818,-0.3928088,-2.638015,1.83853
64.99981,4.844443,455,178,535,500,0.6006379,-0.01695237,0.0004574656,-1.467005,3.113874,-0.4221856,0.154548,0.06538856,-0.4369477,-0.3966752,-2.635119,1.834662
64.66647,4.855555,455,178,535,500,0.5984944,-0.00421495,-0.001744986,-1.466964,3.113924,-0.42895,0.1375166,0.06436747,-0.4356692,-0.4008702,-2.630757,1.829502
64.33314,4.866666,455,178,535,500,0.6037701,0.003345359,0.005693354,-1.467725,3.11415,-0.4356095,0.1362031,0.06227657,-0.458031,-0.4061449,-2.625466,1.823201
63.99981,4.877777,491,174,491,493,0.6113982,-0.02966607,0.002630752,-1.466488,3.113526,-0.4438557,0.1613962,0.04307598,-0.4871004,-0.4120986,-2.621436,1.817031
63.66647,4.888888,491,174,491,493,0.6104187,-0.06589475,0.001799822,-1.465054,3.114215,-0.4507048,0.1804232,0.03344128,-0.4979747,-0.4177168,-2.617664,1.811081
63.33314,4.9,491,174,491,493,0.6052722,-0.1084602,-0.005424265,-1.463717,3.114504,-0.4580371,0.198425,-0.003897637,-0.4929373,-0.4233563,-2.616238,1.807457
62.99981,4.911111,491,174,491,493,0.5926877,-0.1767586,-0.01886114,-1.459915,3.115735,-0.4644356,0.1921875,-0.02520627,-0.4705487,-0.4282155,-2.614978,1.804479
62.66648,4.922222,491,174,491,493,0.5864331,-0.2076449,-0.02838112,-1.457419,3.115275,-0.4711393,0.1872394,-0.01565295,-0.4385188,-0.4320846,-2.612563,1.800342
62.33315,4.933333,484,156,495,491,0.649327,-0.2107319,-0.0366934,-1.455217,3.115993,-0.4802558,0.1895456,-0.006085277,-0.4246839,-0.4362705,-2.609478,1.795385
61.99981,4.944445,484,156,495,491,0.6992787,-0.1700448,-0.0251123,-1.45457,3.116313,-0.4895886,0.166932,0.01853919,-0.4552894,-0.4418792,-2.604643,1.789675
61.66648,4.955556,484,156,495,491,0.6864501,-0.162495,-0.01133946,-1.453546,3.117336,-0.496916,0.1700865,0.04305694,-0.4669968,-0.4469178,-2.599359,1.782876
61.33315,4.966667,484,156,495,491,0.6289498,-0.1870542,0.001449849,-1.451349,3.118975,-0.5024778,0.1911721,0.04301909,-0.4874669,-0.4526266,-2.595435,1.77665
60.99982,4.977778,465,191,495,492,0.5938684,-0.215906,-0.001674023,-1.4485,3.120187,-0.5080401,0.2068735,0.01210511,-0.5047244,-0.4586288,-2.59443,1.772916
60.66648,4.98889,465,191,495,492,0.5759443,-0.2661719,-0.02483045,-1.444085,3.121613,-0.5140274,0.2017519,0.001433969,-0.482311,-0.4632851,-2.592875,1.769462
60.33315,5.000001,465,191,495,492,0.6027104,-0.2693288,-0.03437237,-1.441352,3.121979,-0.5230337,0.1893877,0.009934247,-0.4459342,-0.4670013,-2.590444,1.765565
59.99982,5.011112,465,191,495,492,0.6708657,-0.2563955,-0.03747108,-1.438956,3.122803,-0.5325129,0.1769383,0.02697945,-0.4202029,-0.470718,-2.587107,1.760965
59.66649,5.022223,465,191,495,492,0.675074,-0.243582,-0.03114052,-1.43673,3.124089,-0.5402387,0.159104,0.03444192,-0.3965693,-0.474514,-2.5845,1.757406
59.33316,5.033335,442,197,498,497,0.6399366,-0.2574764,-0.02475174,-1.433878,3.125706,-0.5466117,0.1539187,0.02484599,-0.3805485,-0.4782222,-2.583007,1.754529
58.99982,5.044446,442,197,498,497,0.576031,-0.267222,-0.02486004,-1.430964,3.127139,-0.5509478,0.1719912,0.03333482,-0.3871233,-0.4825877,-2.579792,1.749122
58.66649,5.055557,442,197,498,497,0.5547486,-0.2779366,-0.0216368,-1.42777,3.129043,-0.5569927,0.1752208,0.03119621,-0.3828983,-0.486584,-2.577387,1.745001
58.33316,5.066669,442,197,498,497,0.5546807,-0.2385551,-0.02829722,-1.426228,3.129295,-0.5634338,0.1732881,0.02689171,-0.3637154,-0.4901266,-2.576231,1.742121
57.99983,5.07778,442,197,498,497,0.5641278,-0.1937896,-0.02536456,-1.425165,3.129742,-0.569754,0.1701258,0.02690393,-0.3615511,-0.4940196,-2.574011,1.738246
57.6665,5.088891,418,191,521,503,0.600202,-0.1329869,-0.02672978,-1.425112,3.12939,-0.5773147,0.178652,0.02474329,-0.3605815,-0.4979227,-2.572191,1.734434
57.33316,5.100002,418,191,521,503,0.6086365,-0.1042419,-0.02581017,-1.424206,3.129792,-0.5841143,0.2010727,-0.005181253,-0.3480896,-0.5016043,-2.572856,1.732083
56.99983,5.111114,418,191,521,503,0.5648865,-0.07769565,-0.02290532,-1.424064,3.129694,-0.5891461,0.2053162,-0.04143104,-0.3386067,-0.5052943,-2.57468,1.731302
56.6665,5.122225,418,191,521,503,0.5339919,-0.08417952,-0.02187353,-1.422711,3.130372,-0.5940223,0.2138274,-0.07129052,-0.3291663,-0.5089642,-2.576402,1.730414
56.33317,5.133336,491,194,483,496,0.5202256,-0.1161851,-0.02383251,-1.420599,3.131375,-0.5995234,0.2212397,-0.07770351,-0.3313878,-0.5128236,-2.577307,1.728525
55.99984,5.144447,491,194,483,496,0.5181013,-0.1151434,-0.0238252,-1.419317,3.1321,-0.6055719,0.2125709,-0.07873401,-0.3440838,-0.5172312,-2.577829,1.72697
55.6665,5.155559,491,194,483,496,0.5138294,-0.119364,-0.01528184,-1.418164,3.133037,-0.6113436,0.1836434,-0.05195966,-0.367153,-0.521692,-2.575877,1.724125
55.33317,5.16667,491,194,483,496,0.5095321,-0.1076434,-0.01324168,-1.417393,3.133455,-0.6169053,0.1825389,-0.03062561,-0.3788231,-0.526141,-2.573787,1.720114
54.99984,5.177781,491,194,483,496,0.5105743,-0.09598484,-0.01649648,-1.416345,3.133899,-0.6226321,0.1953312,-0.01681116,-0.3831961,-0.530417,-2.572116,1.715991
54.66651,5.188892,460,200,491,494,0.5095177,-0.09600821,-0.01969521,-1.415308,3.134258,-0.6283111,0.2040679,-0.03179365,-0.3588117,-0.5338594,-2.572605,1.713916
54.33318,5.200004,460,200,491,494,0.5042084,-0.1162961,-0.02065405,-1.413359,3.13519,-0.6334153,0.2128564,-0.04676303,-0.3312232,-0.5367575,-2.57335,1.711777
53.99984,5.211115,460,200,491,494,0.4989351,-0.1365628,-0.02266674,-1.411521,3.13618,-0.6389472,0.2237955,-0.07455361,-0.29623,-0.5392236,-2.575878,1.711138
53.66651,5.222226,460,200,491,494,0.4903891,-0.1344839,-0.02375489,-1.410076,3.137039,-0.6439928,0.2281044,-0.08949,-0.2867102,-0.5423192,-2.577533,1.709975
53.33318,5.233337,460,200,491,494,0.4998847,-0.1024765,-0.01647908,-1.409734,3.137313,-0.649872,0.2076219,-0.06486753,-0.3162831,-0.5466266,-2.576371,1.707254
52.99985,5.244449,415,203,504,498,0.5424727,-0.09701466,-0.008978166,-1.408709,3.137702,-0.6573225,0.1935778,-0.04776597,-0.339543,-0.5511476,-2.57578,1.705038
52.66652,5.25556,415,203,504,498,0.5904031,-0.09476565,-0.007797241,-1.407899,3.138273,-0.6654728,0.1956404,-0.02005029,-0.3544272,-0.5552755,-2.573595,1.700928
52.33318,5.266671,415,203,504,498,0.5584449,-0.1118652,-0.002425566,-1.406613,3.13973,-0.6707193,0.1924088,-0.02003801,-0.358646,-0.5592851,-2.573236,1.698457
51.99985,5.277782,415,203,504,498,0.5095235,-0.1514425,-0.003380008,-1.403865,3.141457,-0.6750383,0.2022563,-0.04462206,-0.3289521,-0.562123,-2.575022,1.697272
51.66652,5.288894,416,193,516,499,0.4659956,-0.2006351,-0.01702727,-1.400523,-3.139821,-0.6791551,0.2185628,-0.01488137,-0.3077717,-0.5648559,-2.573317,1.692965
51.33319,5.300005,416,193,516,499,0.4702923,-0.2261833,-0.01360638,-1.397837,-3.137511,-0.6847243,0.2155871,0.0170691,-0.2970234,-0.5676986,-2.570692,1.688477
50.99986,5.311116,416,193,516,499,0.4894524,-0.2324995,-0.006091326,-1.395788,-3.135614,-0.6910861,0.2146902,0.02983689,-0.285274,-0.5704347,-2.568821,1.684544
50.66652,5.322227,416,193,516,499,0.5703885,-0.2387284,-0.001549229,-1.393387,-3.133314,-0.6996838,0.2147138,0.03408581,-0.2852704,-0.5736289,-2.567656,1.681123
50.33319,5.333339,416,193,516,499,0.6044443,-0.2353935,0.008110471,-1.391685,-3.13136,-0.7078118,0.2016704,0.02457458,-0.3064528,-0.5776407,-2.566839,1.678557
49.99986,5.34445,418,186,516,498,0.5713853,-0.230112,0.014384,-1.390115,-3.129457,-0.7133107,0.1714761,-0.02004117,-0.3264425,-0.5820669,-2.568865,1.679359
49.66653,5.355561,418,186,516,498,0.4978657,-0.2431197,0.004725739,-1.387934,-3.127247,-0.7160867,0.1863907,-0.05953208,-0.3149293,-0.5850896,-2.5718,1.679281
49.33319,5.366673,418,186,516,498,0.4797827,-0.2580599,0.006903917,-1.385532,-3.124969,-0.7212644,0.199212,-0.0745064,-0.307619,-0.58823,-2.573337,1.677902
48.99986,5.377784,418,186,516,498,0.4818279,-0.2271578,0.01095641,-1.38416,-3.123637,-0.7270504,0.2024111,-0.07985073,-0.3076414,-0.5915616,-2.574883,1.676703
48.66653,5.388895,458,161,494,499,0.4870288,-0.2046713,0.02364717,-1.383805,-3.12185,-0.7323853,0.1854271,-0.0350512,-0.3148397,-0.5950993,-2.572792,1.673435
48.3332,5.400006,458,161,494,499,0.5188627,-0.1874944,0.03216406,-1.38322,-3.120186,-0.7384275,0.1821612,-0.006253898,-0.3318128,-0.5992821,-2.570914,1.66974
47.99987,5.411118,458,161,494,499,0.5976737,-0.1819735,0.0355433,-1.382164,-3.118518,-0.747609,0.1809828,-0.009431064,-0.3413934,-0.6033317,-2.570519,1.667455
47.66653,5.422229,458,161,494,499,0.620038,-0.1839825,0.04200318,-1.38132,-3.11682,-0.7554567,0.1863825,-0.04038835,-0.3255301,-0.6068417,-2.572847,1.667094
47.3332,5.43334,458,161,494,499,0.5955411,-0.1808688,0.03765345,-1.38012,-3.115262,-0.7617413,0.2047501,-0.04047593,-0.3012247,-0.60954,-2.573037,1.664496
46.99987,5.444451,409,149,511,496,0.5263306,-0.192732,0.04071707,-1.378434,-3.113193,-0.7661558,0.2132632,-0.03623411,-0.3055643,-0.6130331,-2.572883,1.661518
46.66654,5.455563,409,149,511,496,0.5028279,-0.1650775,0.04260164,-1.377991,-3.112001,-0.7714837,0.2174131,-0.01811057,-0.3215582,-0.6170853,-2.571659,1.657967
46.33321,5.466674,409,149,511,496,0.5017136,-0.1532144,0.05850237,-1.378195,-3.110501,-0.7775578,0.2120565,0.00852266,-0.3321289,-0.6212659,-2.570291,1.654738
45.99987,5.477785,409,149,511,496,0.5037413,-0.1393445,0.06267461,-1.377783,-3.109001,-0.7827526,0.2281783,0.003142864,-0.311072,-0.6248437,-2.569422,1.651746
45.66654,5.488896,381,175,489,497,0.5133301,-0.1478036,0.06914843,-1.377124,-3.106914,-0.7891964,0.2272041,0.02018589,-0.3078381,-0.6280895,-2.567774,1.647869
45.33321,5.500008,381,175,489,497,0.5304467,-0.1786677,0.06727339,-1.375757,-3.104454,-0.7959475,0.2046061,-0.002067506,-0.3214809,-0.6321519,-2.568009,1.646586
44.99988,5.511119,381,175,489,497,0.6008644,-0.2201002,0.06134712,-1.373651,-3.101512,-0.8050576,0.203462,-0.05001426,-0.3140888,-0.6355677,-2.57093,1.646746
44.66655,5.52223,381,175,489,497,0.6765032,-0.2477325,0.05640678,-1.371121,-3.098257,-0.8145193,0.1990532,-0.04251564,-0.3289741,-0.6399368,-2.570598,1.644402
44.33321,5.533341,381,175,489,497,0.6722355,-0.2487862,0.05959781,-1.369718,-3.095628,-0.8225002,0.2075785,-0.02762279,-0.3333034,-0.6437393,-2.569934,1.641326
43.99988,5.544453,378,174,518,496,0.5742661,-0.2746437,0.05416411,-1.367224,-3.092364,-0.8260593,0.2182254,-0.0254977,-0.3334336,-0.6475726,-2.569276,1.63814
43.66655,5.555564,378,174,518,496,0.5242317,-0.285431,0.0498352,-1.365143,-3.089464,-0.8309212,0.2064107,-0.02658683,-0.3450618,-0.6524622,-2.57079,1.637105
43.33322,5.566675,378,174,518,496,0.5390353,-0.2673059,0.05406975,-1.364074,-3.086534,-0.8373953,0.2044085,-0.04046759,-0.3301303,-0.6556036,-2.572071,1.635822
42.99989,5.577786,378,174,518,496,0.5581479,-0.2501319,0.0699527,-1.363198,-3.084165,-0.8450194,0.221861,-0.06196281,-0.2888065,-0.6580112,-2.575203,1.635109
42.66655,5.588898,386,168,502,496,0.5783611,-0.2373,0.07314043,-1.362336,-3.081529,-0.852594,0.2559881,-0.07914564,-0.2796031,-0.6608543,-2.577256,1.633112
42.33322,5.600009,386,168,502,496,0.629464,-0.2425015,0.07547233,-1.361265,-3.078573,-0.8609872,0.2601575,-0.07489708,-0.2892098,-0.6642382,-2.578205,1.630991
41.99989,5.61112,386,168,502,496,0.7264239,-0.2487086,0.07365699,-1.35998,-3.075701,-0.872458,0.2481998,-0.06096968,-0.3156945,-0.6685328,-2.578229,1.628567
41.66656,5.622231,386,168,502,496,0.6987535,-0.2540417,0.07680946,-1.359054,-3.072991,-0.8802653,0.2331884,-0.04388338,-0.3304056,-0.67243,-2.578421,1.626629
41.33323,5.633343,386,168,502,496,0.6359752,-0.2861713,0.07471591,-1.356843,-3.069063,-0.8863479,0.226742,-0.02253935,-0.3420241,-0.6765292,-2.577488,1.623563
40.99989,5.644454,418,177,504,497,0.5893795,-0.3758649,0.05385283,-1.352697,-3.064001,-0.8929291,0.2236908,-0.004432231,-0.331295,-0.6795647,-2.576451,1.620733
40.66656,5.655565,418,177,504,497,0.6033363,-0.4151542,0.05843002,-1.350491,-3.059449,-0.901488,0.2369902,0.02424034,-0.2908905,-0.6812819,-2.574525,1.616411
40.33323,5.666677,418,177,504,497,0.6065798,-0.4279797,0.05106615,-1.347633,-3.055203,-0.9092501,0.2511841,0.02840999,-0.2601413,-0.6832761,-2.573678,1.612558
39.9999,5.677788,418,177,504,497,0.6726823,-0.4321767,0.03956145,-1.344878,-3.051172,-0.9193898,0.2553501,0.02309534,-0.2676341,-0.6862929,-2.573147,1.609209
39.66656,5.688899,418,177,504,497,0.7642341,-0.4053545,0.04498677,-1.342955,-3.04722,-0.9314811,0.2795629,0.02944916,-0.2966492,-0.6903089,-2.572187,1.604713
39.33323,5.70001,418,177,504,497,0.7470589,-0.3520265,0.05416244,-1.342475,-3.045074,-0.9396597,0.2684542,0.04019904,-0.3401816,-0.6949934,-2.570778,1.601269
38.9999,5.711122,418,177,504,497,0.6607298,-0.3500025,0.06561881,-1.341017,-3.041333,-0.945305,0.2457763,0.03711766,-0.3676419,-0.699924,-2.569957,1.598581
38.66657,5.722233,418,177,504,497,0.6181379,-0.3373019,0.06009676,-1.339672,-3.03844,-0.9518968,0.2790891,0.01887703,-0.3371145,-0.7024695,-2.570127,1.594503
38.33324,5.733344,418,177,504,497,0.6233773,-0.2733164,0.06183031,-1.339819,-3.036967,-0.9602336,0.2941644,0.002822101,-0.317049,-0.7054383,-2.57043,1.591094
37.9999,5.744455,397,184,503,497,0.6274578,-0.2167071,0.0827741,-1.340464,-3.035234,-0.9676979,0.2868468,-0.01742247,-0.2978242,-0.70824,-2.571479,1.5889
37.66657,5.755567,397,184,503,497,0.6252072,-0.1740139,0.09314135,-1.34114,-3.033803,-0.9748629,0.2729622,-0.01416242,-0.3029886,-0.7117255,-2.571256,1.585969
37.33324,5.766678,397,184,503,497,0.6250376,-0.1132019,0.106588,-1.3427,-3.033278,-0.9819102,0.2463163,-0.003389359,-0.3069506,-0.7152894,-2.570303,1.583213
36.99991,5.777789,397,184,503,497,0.6280929,-0.06086972,0.1200981,-1.344583,-3.033072,-0.9891374,0.238885,-0.01297534,-0.3026181,-0.7185299,-2.57114,1.581232
36.66658,5.7889,397,184,503,497,0.6387113,-0.040627,0.1189406,-1.345686,-3.032185,-0.9968356,0.2507545,-0.0599198,-0.2740569,-0.7209305,-2.573802,1.580157
36.33324,5.800012,421,181,502,497,0.6397941,-0.03954139,0.1157334,-1.346671,-3.031469,-1.004285,0.2592133,-0.0844709,-0.2720427,-0.7238349,-2.576431,1.579108
35.99991,5.811123,421,181,502,497,0.634523,-0.05451987,0.1105066,-1.347031,-3.029732,-1.011709,0.2762083,-0.09515572,-0.2733052,-0.7269045,-2.578017,1.576776
35.66658,5.822234,421,181,502,497,0.6303339,-0.07480521,0.1010363,-1.347165,-3.028296,-1.018911,0.2921798,-0.06325465,-0.284069,-0.730235,-2.578115,1.573202
35.33325,5.833345,421,181,502,497,0.6292963,-0.0812128,0.0978801,-1.347592,-3.026914,-1.026256,0.2836374,-0.04934537,-0.2924616,-0.7334687,-2.578192,1.570047
34.99992,5.844457,386,157,491,500,0.6336076,-0.1025158,0.09696797,-1.347625,-3.024887,-1.033828,0.2550071,-0.03008631,-0.2857351,-0.7364876,-2.577941,1.567757
34.66658,5.855568,386,157,491,500,0.6368732,-0.125929,0.09499943,-1.347632,-3.022821,-1.041559,0.239095,-0.02258742,-0.2812918,-0.7394911,-2.578226,1.56576
34.33325,5.866679,386,157,491,500,0.6423426,-0.1781791,0.08577413,-1.346497,-3.019435,-1.049644,0.2338276,-0.02897286,-0.2737875,-0.742346,-2.578974,1.563865
33.99992,5.87779,386,157,491,500,0.6456463,-0.2144633,0.07323069,-1.345328,-3.016486,-1.057424,0.2436829,-0.0428811,-0.2451461,-0.7443082,-2.580098,1.561596
33.66659,5.888902,386,157,491,500,0.6491097,-0.3115063,0.05684967,-1.342542,-3.010905,-1.066025,0.259901,-0.01737258,-0.2303736,-0.7465565,-2.579219,1.557657
33.33326,5.900013,368,153,497,494,0.6631494,-0.3712228,0.04022131,-1.339827,-3.006031,-1.074896,0.2609406,0.003929377,-0.2388776,-0.7495376,-2.578555,1.55434
32.99992,5.911124,368,153,497,494,0.9202909,-0.5411217,0.0356741,-1.335259,-2.995845,-1.094717,0.2673981,0.04120156,-0.2442111,-0.7524059,-2.576539,1.549777
32.66659,5.922235,368,153,497,494,0.9183688,-0.5828754,0.0007911175,-1.330934,-2.990023,-1.106481,0.2494481,0.1200961,-0.2534792,-0.7553779,-2.57176,1.543937
32.33326,5.933347,368,153,497,494,0.8331198,-0.5882936,0.01658848,-1.328668,-2.983652,-1.114513,0.2120642,0.1213218,-0.2626532,-0.7584129,-2.569504,1.541008
31.99993,5.944458,454,173,490,497,0.7213901,-0.6333276,0.009116203,-1.32497,-2.976325,-1.120994,0.1739338,0.0937019,-0.2356445,-0.7602206,-2.569579,1.53996
31.66659,5.955569,454,173,490,497,0.7116734,-0.5800519,0.01191184,-1.323038,-2.971879,-1.130093,0.1892439,0.09467673,-0.2006457,-0.7615666,-2.567957,1.535884
31.33326,5.966681,454,173,490,497,0.7328379,-0.5446998,0.03410597,-1.321824,-2.966633,-1.140035,0.231139,0.09449272,-0.1680653,-0.7625317,-2.566469,1.531059
30.99992,5.977792,454,173,490,497,0.7785522,-0.5220629,0.05641915,-1.320608,-2.96133,-1.151552,0.2319506,0.04873918,-0.1693226,-0.7642574,-2.566674,1.528393
30.66659,5.988903,454,173,490,497,0.8188835,-0.4792308,0.07541949,-1.320313,-2.956925,-1.162965,0.2222474,0.02956444,-0.1840347,-0.7668183,-2.567965,1.527246
30.33326,6.000014,431,154,484,499,0.7878298,-0.4312512,0.09205586,-1.320216,-2.953032,-1.171517,0.2133349,0.03605291,-0.2243995,-0.770338,-2.567076,1.524309
29.99992,6.011126,431,154,484,499,0.7238371,-0.3930928,0.08737372,-1.319703,-2.9494,-1.178727,0.2079319,0.05848098,-0.2381569,-0.7733788,-2.565166,1.520775
29.66659,6.022237,431,154,484,499,0.6630549,-0.3549027,0.08054401,-1.319147,-2.946497,-1.185259,0.206957,0.08191383,-0.2370456,-0.7760164,-2.563272,1.517103
29.33325,6.033348,431,154,484,499,0.642764,-0.3346978,0.08034751,-1.318829,-2.943227,-1.192649,0.2115187,0.08508201,-0.2093883,-0.7775903,-2.561515,1.51337
28.99992,6.044459,431,154,484,499,0.6320043,-0.2974415,0.08113149,-1.31873,-2.940578,-1.199936,0.2128496,0.06265791,-0.1785301,-0.7785826,-2.561532,1.51089
28.66659,6.055571,420,161,468,493,0.6256058,-0.2857393,0.0788869,-1.318393,-2.937625,-1.207666,0.2107211,0.05308473,-0.1753272,-0.7805209,-2.561063,1.508294
28.33325,6.066682,420,161,468,493,0.6212885,-0.2676043,0.08408171,-1.318536,-2.93481,-1.215182,0.1965423,-0.02355888,-0.1838172,-0.7827073,-2.564706,1.509016
27.99992,6.077793,420,161,468,493,0.6201565,-0.2398567,0.08814372,-1.318846,-2.932699,-1.222608,0.1930284,-0.08211643,-0.19772,-0.7851675,-2.568262,1.509306
27.66658,6.088904,420,161,468,493,0.6190391,-0.2333757,0.1019469,-1.319458,-2.929837,-1.230149,0.1971132,-0.09489369,-0.2105672,-0.7877758,-2.57049,1.508583
27.33325,6.100016,393,159,493,496,0.6146899,-0.1833423,0.09520286,-1.320096,-2.929148,-1.237164,0.2106819,-0.1151364,-0.2320466,-0.7908251,-2.572986,1.507421
26.99992,6.111127,393,159,493,496,0.6103074,-0.1364528,0.1012803,-1.321252,-2.928305,-1.24409,0.2189413,-0.1332313,-0.2513405,-0.7939996,-2.575831,1.506802
26.66658,6.122238,393,159,493,496,0.6091422,-0.1066004,0.1064037,-1.322331,-2.927428,-1.250837,0.2103611,-0.1385362,-0.2555179,-0.7967874,-2.578603,1.506595
26.33325,6.133349,393,159,493,496,0.6091014,-0.08212177,0.1020064,-1.323458,-2.926786,-1.25782,0.1933064,-0.1491201,-0.2532218,-0.7993531,-2.581266,1.506794
25.99991,6.144461,393,159,493,496,0.6133518,-0.08099769,0.1094498,-1.32443,-2.925568,-1.265187,0.1804408,-0.1480085,-0.2626787,-0.802509,-2.583914,1.506794
25.66658,6.155572,296,134,524,500,0.6165638,-0.07254387,0.09663638,-1.325131,-2.924742,-1.272332,0.1538846,-0.1287481,-0.2613166,-0.8054938,-2.585404,1.506773
25.33325,6.166683,296,134,524,500,0.6176063,-0.07468475,0.1030365,-1.325866,-2.922933,-1.279518,0.1489683,-0.1096079,-0.2282085,-0.8071072,-2.586557,1.506083
24.99991,6.177794,296,134,524,500,0.6164901,-0.07571756,0.1094766,-1.327213,-2.921396,-1.28616,0.186786,-0.08635369,-0.1859626,-0.8081139,-2.587245,1.503309
24.66658,6.188906,296,134,524,500,0.6047526,-0.05980805,0.1029472,-1.328089,-2.920815,-1.292752,0.2049482,-0.07682729,-0.1840081,-0.8100691,-2.588274,1.501226
24.33324,6.200017,319,157,503,499,0.5801793,-0.03534792,0.1058937,-1.328987,-2.92058,-1.298477,0.2143481,-0.0619047,-0.2064702,-0.8132532,-2.588931,1.499084
23.99991,6.211128,319,157,503,499,0.5716096,-0.01194028,0.1025264,-1.330263,-2.920824,-1.304535,0.2162792,-0.04375905,-0.2309628,-0.8164772,-2.589209,1.496812
23.66658,6.222239,319,157,503,499,0.5577238,0.01572431,0.09803352,-1.331442,-2.921707,-1.310371,0.2099358,-0.02990186,-0.2308819,-0.8190984,-2.589705,1.495008
23.33324,6.233351,319,157,503,499,0.5555669,0.03379397,0.09258366,-1.332602,-2.922208,-1.316448,0.196212,-0.02240413,-0.2211384,-0.821305,-2.589833,1.49325
22.99991,6.244462,319,157,503,499,0.5556126,0.02316362,0.09156962,-1.333492,-2.922202,-1.322819,0.1941625,-0.03199804,-0.2126253,-0.8235559,-2.591036,1.491655
22.66657,6.255573,310,153,496,499,0.5535349,0.007147696,0.08741608,-1.334302,-2.921533,-1.329177,0.1887299,-0.07246578,-0.2115697,-0.8258287,-2.593923,1.49153
22.33324,6.266685,310,153,496,499,0.5599977,-0.00781741,0.07579327,-1.334476,-2.921133,-1.335675,0.1800973,-0.1246464,-0.2062354,-0.8277574,-2.597898,1.492462
21.99991,6.277796,310,153,496,499,0.561108,-0.01844349,0.07585425,-1.335247,-2.920744,-1.342335,0.1651853,-0.1586785,-0.1976408,-0.8298703,-2.60136,1.493072
21.66657,6.288907,310,153,496,499,0.562172,-0.01631588,0.07371467,-1.336021,-2.920506,-1.348617,0.1589222,-0.1853236,-0.1773767,-0.8309968,-2.6054,1.494238
21.33324,6.300018,310,153,496,499,0.5642985,-0.0194833,0.07585391,-1.336651,-2.9202,-1.3549,0.170735,-0.1885851,-0.1668429,-0.8323369,-2.608464,1.494127
20.9999,6.31113,307,175,521,502,0.5664602,-0.03649249,0.0802446,-1.337555,-2.919089,-1.36157,0.179253,-0.1651602,-0.1743554,-0.8344253,-2.610249,1.493101
20.66657,6.322241,307,175,521,502,0.5664371,-0.03644854,0.08661866,-1.338391,-2.91864,-1.367812,0.1761149,-0.1363924,-0.1785509,-0.8366289,-2.611703,1.492066
20.33324,6.333352,307,175,521,502,0.5706934,-0.04596929,0.09522253,-1.339545,-2.917487,-1.374436,0.1750666,-0.1246677,-0.1817119,-0.8385516,-2.613544,1.491246
19.9999,6.344463,307,175,521,502,0.5749909,-0.06299256,0.0953477,-1.340382,-2.916316,-1.381129,0.176334,-0.1268355,-0.1636428,-0.8400819,-2.615823,1.490504
19.66657,6.355575,306,172,510,497,0.5824873,-0.07568315,0.09759802,-1.341554,-2.914723,-1.388151,0.1786076,-0.1407148,-0.1487979,-0.8415035,-2.618649,1.489935
19.33323,6.366686,306,172,510,497,0.5921041,-0.0906032,0.09983885,-1.342246,-2.913367,-1.395463,0.1955181,-0.1332872,-0.1638786,-0.8436005,-2.62059,1.488607
18.9999,6.377797,306,172,510,497,0.5995343,-0.07674021,0.09760806,-1.342985,-2.912967,-1.40243,0.2028757,-0.1375318,-0.1724998,-0.845837,-2.62262,1.487441
18.66657,6.388908,306,172,510,497,0.6122723,-0.07765521,0.1157585,-1.344602,-2.911771,-1.409839,0.2122488,-0.1236727,-0.1970787,-0.8486312,-2.624258,1.48591
18.33323,6.40002,306,172,510,497,0.6569103,-0.03910764,0.1283797,-1.346253,-2.912276,-1.418556,0.2057387,-0.1097808,-0.2129602,-0.851248,-2.625766,1.484769
17.9999,6.411131,229,159,498,500,0.6483706,-0.03273032,0.1304496,-1.34768,-2.911779,-1.425815,0.1908283,-0.0916191,-0.2180918,-0.8535942,-2.626844,1.483771
17.66656,6.422242,229,159,498,500,0.6440829,-0.02947159,0.1389232,-1.349327,-2.911447,-1.432849,0.1812869,-0.08307889,-0.2094297,-0.8552278,-2.627827,1.483603
17.33323,6.433353,229,159,498,500,0.6642389,-0.02073979,0.1655534,-1.351855,-2.910914,-1.440937,0.186783,-0.07884929,-0.1935222,-0.857059,-2.62896,1.482247
16.9999,6.444465,229,159,498,500,0.6727294,-0.00577606,0.1665161,-1.353588,-2.911365,-1.448641,0.1782663,-0.08416539,-0.1913116,-0.859041,-2.630816,1.4817
16.66656,6.455576,289,184,475,501,0.6791165,0.0006012875,0.1654266,-1.355326,-2.911114,-1.456578,0.1824625,-0.09057376,-0.1881451,-0.8606144,-2.63241,1.481682
16.33323,6.466687,289,184,475,501,0.6791209,-0.009936472,0.1782742,-1.357642,-2.910724,-1.464335,0.199552,-0.07997751,-0.1872424,-0.8626373,-2.633455,1.479664
15.9999,6.477798,289,184,475,501,0.6332962,0.01332221,0.1651973,-1.359094,-2.911741,-1.470087,0.2006016,-0.1002573,-0.1744814,-0.8637505,-2.635729,1.480025
15.66656,6.48891,289,184,475,501,0.4659831,0.05224739,0.1538655,-1.360793,-2.912981,-1.470736,0.1927383,-0.1385373,-0.2010957,-0.8663982,-2.639367,1.480465
15.33323,6.500021,289,184,475,501,0.445735,0.04163685,0.1645218,-1.362785,-2.913159,-1.475132,0.1936197,-0.1374556,-0.2128023,-0.8686358,-2.641487,1.480503
14.9999,6.511132,266,175,498,504,0.5084382,0.0993408,0.1696254,-1.364983,-2.915493,-1.482225,0.2041744,-0.1193529,-0.2277956,-0.871414,-2.642789,1.478756
14.66656,6.522243,266,175,498,504,0.5477648,0.1271551,0.1716659,-1.367022,-2.917522,-1.488668,0.2094181,-0.1204527,-0.2235585,-0.8731179,-2.644728,1.479189
14.33323,6.533355,266,175,498,504,0.5861391,0.1187192,0.176089,-1.369157,-2.918029,-1.496265,0.2073025,-0.130035,-0.2203523,-0.8752756,-2.647143,1.478343
13.9999,6.544466,266,175,498,504,0.5786738,0.1271659,0.1685513,-1.370889,-2.919515,-1.502,0.2009659,-0.140681,-0.2117802,-0.877233,-2.649801,1.477975
13.66656,6.555577,228,193,496,496,0.5691278,0.1111577,0.1675834,-1.372921,-2.920182,-1.507921,0.1817824,-0.1555687,-0.2040542,-0.8780485,-2.652776,1.478915
13.33323,6.566689,228,193,496,496,0.5584911,0.1185662,0.1610958,-1.374478,-2.921906,-1.513693,0.1679492,-0.1779072,-0.1954211,-0.8797598,-2.656283,1.479678
12.9999,6.5778,228,193,496,496,0.5691384,0.1186325,0.1664332,-1.376418,-2.923207,-1.52019,0.1647854,-0.178966,-0.1900743,-0.8816544,-2.65905,1.479894
12.66657,6.588911,228,193,496,496,0.5659238,0.1260846,0.1674486,-1.378449,-2.924716,-1.526201,0.1604616,-0.1704176,-0.1985351,-0.8839111,-2.66147,1.47972
12.33323,6.600022,228,193,496,496,0.5595765,0.1005954,0.179304,-1.380624,-2.925299,-1.532297,0.1519869,-0.1704082,-0.2016307,-0.8860838,-2.664551,1.47919
11.9999,6.611134,213,179,497,499,0.5457463,0.114277,0.1600183,-1.382112,-2.926953,-1.537734,0.1424869,-0.134142,-0.2078953,-0.8889254,-2.665548,1.478045
11.66657,6.622245,213,179,497,499,0.5414582,0.1227952,0.1610113,-1.383879,-2.928552,-1.54327,0.143657,-0.1128448,-0.2046777,-0.8910266,-2.666622,1.477079
11.33323,6.633356,213,179,497,499,0.5339926,0.1344465,0.1555966,-1.385604,-2.930106,-1.548848,0.142698,-0.1011317,-0.1982571,-0.8929425,-2.667963,1.476365
10.9999,6.644467,213,179,497,499,0.5254272,0.1504088,0.1554467,-1.387237,-2.932196,-1.553995,0.1409159,-0.08835459,-0.1737797,-0.8950208,-2.668896,1.474725
10.66657,6.655579,213,179,497,499,0.5190514,0.1450553,0.1533347,-1.388889,-2.9337,-1.559334,0.1335454,-0.1000941,-0.1640863,-0.8959162,-2.671361,1.474702
10.33323,6.66669,241,187,494,497,0.504128,0.1419,0.163957,-1.390899,-2.935242,-1.564331,0.1304115,-0.1256728,-0.1502447,-0.8969745,-2.67417,1.475099
9.999902,6.677801,241,187,494,497,0.4828327,0.1545582,0.1521062,-1.392358,-2.937284,-1.569013,0.1345783,-0.1490718,-0.1546116,-0.8988755,-2.676614,1.474681
9.666569,6.688912,241,187,494,497,0.4732474,0.151353,0.1542335,-1.394117,-2.938887,-1.573737,0.133397,-0.1639718,-0.1610161,-0.900614,-2.679674,1.475132
9.333236,6.700024,241,187,494,497,0.456194,0.1608485,0.1466616,-1.395463,-2.940971,-1.577929,0.1280483,-0.1703196,-0.1599154,-0.9022608,-2.681989,1.475464
8.999903,6.711135,183,172,498,499,0.447686,0.1523235,0.1498959,-1.397228,-2.942477,-1.582459,0.1325108,-0.1842172,-0.1365489,-0.9029027,-2.685069,1.475772
8.66657,6.722246,183,172,498,499,0.4380825,0.165022,0.1412563,-1.398471,-2.944704,-1.586626,0.131687,-0.1970291,-0.1110177,-0.9036329,-2.68807,1.475937
8.333237,6.733357,183,172,498,499,0.4178815,0.1542825,0.1359545,-1.399876,-2.946046,-1.59057,0.1213557,-0.2193165,-0.0917603,-0.903699,-2.692076,1.476602
7.999903,6.744469,183,172,498,499,0.3922982,0.1489557,0.145509,-1.40168,-2.947705,-1.593889,0.1407081,-0.2141689,-0.063216,-0.9039658,-2.69457,1.476159
7.66657,6.75558,183,172,498,499,0.3879937,0.1659921,0.1453898,-1.403307,-2.950093,-1.597706,0.142891,-0.1886175,-0.0663651,-0.9044324,-2.696606,1.475679
7.333236,6.766691,180,181,506,498,0.389053,0.1670574,0.1453816,-1.404826,-2.951992,-1.601747,0.1142098,-0.1746833,-0.06282812,-0.9047238,-2.698764,1.476533
6.999903,6.777802,180,181,506,498,0.3944002,0.169186,0.1432519,-1.406298,-2.954,-1.606292,0.1060038,-0.1470108,-0.04457833,-0.9045181,-2.700393,1.476063
6.666569,6.788914,180,181,506,498,0.3965498,0.1617321,0.1433068,-1.407836,-2.95562,-1.610512,0.09785539,-0.101198,-0.02309449,-0.9040207,-2.700005,1.474936
6.333236,6.800025,180,181,506,498,0.3912537,0.1542465,0.1401425,-1.409225,-2.957233,-1.61449,0.09906083,-0.08633173,-0.01455057,-0.9038204,-2.701418,1.474622
5.999902,6.811136,160,185,497,493,0.3657277,0.148786,0.1305221,-1.410265,-2.958763,-1.617689,0.1056711,-0.06719933,0.0003301026,-0.9033581,-2.701664,1.473427
5.666569,6.822248,160,185,497,493,0.3497466,0.148748,0.1304687,-1.411505,-2.960529,-1.620873,0.1133167,-0.06087661,0.01519246,-0.9025762,-2.702695,1.472431
5.333235,6.833359,160,185,497,493,0.3369964,0.1232252,0.1433929,-1.413369,-2.961337,-1.6242,0.1071396,-0.08220473,0.04186961,-0.9012179,-2.704458,1.472474
4.999902,6.84447,160,185,497,493,0.3285702,0.1028722,0.1275095,-1.414224,-2.962186,-1.62764,0.09756713,-0.1056241,0.05045608,-0.9002811,-2.706632,1.472991
4.666568,6.855581,160,185,497,493,0.3223066,0.07076677,0.1095936,-1.414879,-2.962048,-1.631169,0.0953126,-0.09920946,0.03557504,-0.9002272,-2.70788,1.472561
4.333235,6.866693,122,187,498,501,0.3149405,0.03873847,0.1023214,-1.415726,-2.961704,-1.634405,0.08215153,-0.08101527,-0.003639335,-0.9007562,-2.708749,1.472878
3.999902,6.877804,122,187,498,501,0.3246074,0.01953527,0.09395095,-1.416602,-2.961607,-1.63849,0.09371512,-0.06826149,-0.02292626,-0.9015381,-2.709846,1.472118
3.666568,6.888915,122,187,498,501,0.3204188,0.004517637,0.08019884,-1.417238,-2.961308,-1.64203,0.09815998,-0.06721407,-0.005915454,-0.9009596,-2.710369,1.471185
3.333235,6.900026,122,187,498,501,0.3118746,0.007679481,0.07908456,-1.418009,-2.961466,-1.644983,0.1014039,-0.07791838,0.003642425,-0.9002321,-2.712222,1.47141
2.999902,6.911138,117,237,501,498,0.304399,0.02256772,0.07683004,-1.41871,-2.962307,-1.648224,0.1111352,-0.08862725,0.02056727,-0.8994651,-2.713712,1.470862
2.666569,6.922249,117,237,501,498,0.3011278,0.04604532,0.08412319,-1.419754,-2.96357,-1.651302,0.09845409,-0.07261021,0.02497848,-0.8991844,-2.714111,1.47027
2.333235,6.93336,117,237,501,498,0.3000034,0.06630158,0.08825024,-1.420762,-2.964781,-1.654468,0.09965007,-0.04918557,0.03032947,-0.8987061,-2.713951,1.469036
1.999902,6.944471,117,237,501,498,0.2957186,0.07164592,0.09246524,-1.421799,-2.965828,-1.657468,0.102774,-0.03960307,0.02071385,-0.8988504,-2.714345,1.468075
1.666569,6.955583,117,237,501,498,0.2936309,0.05885248,0.09147576,-1.422701,-2.966246,-1.660792,0.1069497,-0.0364117,0.007871777,-0.8993463,-2.71514,1.466717
1.333235,6.966694,117,222,499,498,0.2925966,0.04818302,0.08941325,-1.423594,-2.966587,-1.66394,0.1101099,-0.03745338,0.004651453,-0.8991913,-2.715208,1.465446
0.9999018,6.977805,117,222,499,498,0.2852179,0.02787758,0.08313359,-1.424319,-2.966438,-1.667098,0.1100753,-0.0406545,-0.0006972402,-0.8995141,-2.716197,1.464396
0.6665685,6.988916,117,222,499,498,0.2714371,0.008595773,0.07257183,-1.424869,-2.966117,-1.669746,0.109079,-0.0406356,0.005722623,-0.8990065,-2.716319,1.463262
0.3332352,7.000028,117,222,499,498,0.2704161,-0.003166979,0.06625533,-1.425481,-2.96581,-1.67277,0.109176,-0.02786575,0.00892395,-0.8989841,-2.716454,1.461806
-9.816699E-05,7.011139,117,222,499,498,0.2619297,-0.01598532,0.06419498,-1.426255,-2.965349,-1.675502,0.1039191,-0.009709284,0.01008136,-0.8988099,-2.715451,1.460144
-9.816699E-05,7.02225,113,262,501,504,0.256631,-0.02029808,0.05781347,-1.426704,-2.965167,-1.678279,0.08890832,0.008447133,-0.003565101,-0.8990022,-2.715143,1.459495
-9.816699E-05,7.033361,113,262,501,504,0.2396044,-0.02038515,0.04924856,-1.427048,-2.965129,-1.680476,0.08782838,0.007406242,-0.004620966,-0.899105,-2.714758,1.458298
-9.816699E-05,7.044473,113,262,501,504,0.2076433,-0.01728075,0.04701675,-1.427526,-2.965073,-1.681985,0.0878709,-0.009662375,0.003860489,-0.8989138,-2.715708,1.457752
-9.816699E-05,7.055584,113,262,501,504,0.1895413,-0.01627528,0.04271067,-1.428009,-2.965139,-1.683639,0.08664884,-0.03095451,-0.004655384,-0.898738,-2.716931,1.457592
-9.816699E-05,7.066695,113,262,501,504,0.1842023,-0.008845383,0.04051728,-1.428375,-2.965299,-1.685509,0.09191055,-0.04799575,-0.005802628,-0.8987764,-2.717864,1.457016
-9.816699E-05,7.077806,113,262,501,504,0.2033616,-0.001337272,0.04051784,-1.428834,-2.965586,-1.688335,0.09832571,-0.04802303,-0.003747321,-0.898771,-2.718565,1.456182
-9.816699E-05,7.088918,113,262,501,504,0.2129306,0.008288123,0.0436764,-1.429394,-2.965904,-1.691074,0.09615605,-0.01815057,-0.01645031,-0.8991977,-2.717576,1.454574
-9.816699E-05,7.100029,113,262,501,504,0.2065257,0.01254056,0.04469962,-1.429937,-2.966211,-1.693166,0.08770091,-0.003238402,-0.01314177,-0.8992637,-2.717581,1.454004
-9.816699E-05,7.11114,113,262,501,504,0.200149,0.009310443,0.04256858,-1.430291,-2.966203,-1.69525,0.08559602,0.01915011,-0.01734307,-0.8995966,-2.716532,1.452438
-9.816699E-05,7.122252,113,262,501,504,0.1831271,-0.0003273406,0.04045104,-1.430601,-2.966061,-1.69672,0.08571074,0.02871796,-0.009889502,-0.8997916,-2.716039,1.451055
-9.816699E-05,7.133363,113,262,501,504,0.1725083,-0.006776606,0.03620164,-1.43086,-2.965786,-1.698514,0.09005933,0.03613726,-0.002454983,-0.8995327,-2.715518,1.449808
-9.816699E-05,7.144474,113,262,501,504,0.160826,-0.01640724,0.03303257,-1.431076,-2.96543,-1.700086,0.08485656,0.03293849,0.0103787,-0.8991103,-2.715096,1.448754
-9.816699E-05,7.155585,113,262,501,504,0.1597688,-0.01854134,0.03303778,-1.431393,-2.965244,-1.701953,0.08275732,0.02336749,0.01572158,-0.8986869,-2.714705,1.447573
-9.816699E-05,7.166697,154,335,503,503,0.1597738,-0.01749374,0.03090133,-1.431736,-2.965078,-1.703779,0.08485624,0.01270619,0.01567454,-0.8986422,-2.714917,1.446681
-9.816699E-05,7.177808,154,335,503,503,0.1533827,-0.01327197,0.02659108,-1.431826,-2.965128,-1.705318,0.08262499,0.01273358,0.005037766,-0.8989447,-2.714724,1.445513
-9.816699E-05,7.188919,154,335,503,503,0.1469905,-0.007983578,0.02440572,-1.43201,-2.965068,-1.706897,0.08367953,0.01274545,0.00396258,-0.8989804,-2.714291,1.444301
-9.816699E-05,7.20003,154,335,503,503,0.1491247,-0.009039942,0.02441232,-1.432213,-2.965022,-1.708631,0.0880208,0.01165295,0.01241966,-0.898884,-2.714193,1.443216
-9.816699E-05,7.211142,154,335,503,503,0.1416685,-0.01013059,0.02333444,-1.432441,-2.964889,-1.709944,0.08273315,0.00954289,0.01673561,-0.8985404,-2.713875,1.442223
-9.816699E-05,7.222253,165,345,502,505,0.1331099,0.002648471,0.02535825,-1.432735,-2.965364,-1.711108,0.07938389,-0.001085036,0.005021332,-0.8989841,-2.71436,1.441728
-9.816699E-05,7.233364,165,345,502,505,0.1415976,0.01122363,0.03064548,-1.433111,-2.965736,-1.712854,0.06858464,-0.005282454,-0.007649697,-0.8993495,-2.714417,1.441287
-9.816699E-05,7.244475,165,345,502,505,0.1543516,0.01871966,0.03276045,-1.433502,-2.966097,-1.714749,0.07057975,-0.006335527,-0.02151608,-0.8998182,-2.714673,1.440428
-9.816699E-05,7.255587,165,345,502,505,0.1564613,0.02407431,0.03591921,-1.433841,-2.96661,-1.716464,0.07701384,0.004300177,-0.02050926,-0.9001746,-2.714183,1.439109
-9.816699E-05,7.266698,165,345,502,505,0.1521835,0.02940336,0.03693622,-1.434176,-2.967197,-1.717962,0.07586949,0.007512413,-0.0290099,-0.9006299,-2.714057,1.438208
-9.816699E-05,7.277809,165,345,502,505,0.1436588,0.0346822,0.03261706,-1.434333,-2.967777,-1.719286,0.07991394,0.01712216,-0.05249372,-0.902092,-2.713788,1.437081
-9.816699E-05,7.28892,165,345,502,505,0.1361803,0.04211367,0.031487,-1.43459,-2.968449,-1.720409,0.0798393,0.01819832,-0.05994795,-0.902941,-2.713662,1.436138
-9.816699E-05,7.300032,165,345,502,505,0.1276146,0.05808898,0.03348641,-1.434793,-2.96962,-1.721437,0.08939421,0.01710319,-0.06326047,-0.9039067,-2.713763,1.434906
-9.816699E-05,7.311143,165,345,502,505,0.1222447,0.07940315,0.036531,-1.435079,-2.971162,-1.72268,0.09269841,0.005350292,-0.04944802,-0.9038652,-2.714156,1.434039
-9.816699E-05,7.322254,149,436,502,492,0.1115081,0.1092,0.03524465,-1.435154,-2.973175,-1.723157,0.09170417,-0.007468604,-0.03453908,-0.9037277,-2.714927,1.434178
-9.816699E-05,7.333365,149,436,502,492,0.103985,0.1326461,0.03933171,-1.435375,-2.975398,-1.723792,0.08953115,-0.02450654,-0.03348292,-0.9040292,-2.715893,1.43384
-9.816699E-05,7.344477,149,436,502,492,0.0879354,0.1592635,0.04230677,-1.43546,-2.978035,-1.723992,0.08952929,-0.03623037,-0.02923688,-0.9041592,-2.716774,1.433559
-9.816699E-05,7.355588,149,436,502,492,0.07193127,0.181546,0.04320077,-1.435398,-2.979797,-1.724687,0.08638608,-0.04049656,-0.02281225,-0.9040489,-2.717575,1.433189
-9.816699E-05,7.366699,149,436,502,492,0.06660023,0.1815449,0.04209879,-1.435578,-2.9821,-1.724723,0.0832672,-0.04155923,-0.01424287,-0.9037187,-2.718019,1.432753
-9.816699E-05,7.37781,149,436,502,492,0.06023159,0.175114,0.03892855,-1.435628,-2.983867,-1.725042,0.08108471,-0.03940572,-0.01955111,-0.9041719,-2.718426,1.432207
-9.816699E-05,7.388922,149,436,502,492,0.05178396,0.1430718,0.03059265,-1.435596,-2.98454,-1.725045,0.07997161,-0.03300961,-0.02591721,-0.9045379,-2.718905,1.431665
-9.816699E-05,7.400033,149,436,502,492,0.05295409,0.1089331,0.02229671,-1.435555,-2.984966,-1.725655,0.07473889,-0.0138185,-0.02158,-0.9048218,-2.718418,1.430822
-9.816699E-05,7.411144,149,436,502,492,0.04555552,0.08334801,0.02245298,-1.435842,-2.985334,-1.725881,0.0749526,0.007478088,-0.007695137,-0.9045767,-2.717382,1.429296
-9.816699E-05,7.422256,149,436,502,492,0.03605756,0.0502763,0.01838527,-1.435956,-2.985079,-1.726062,0.07307677,0.02557817,0.01257613,-0.9043067,-2.716169,1.427965
-9.816699E-05,7.433367,149,436,502,492,0.03075416,0.03533974,0.01740402,-1.436106,-2.985111,-1.726046,0.06462269,0.03411595,0.01694413,-0.9040324,-2.715493,1.427104
-9.816699E-05,7.444478,149,436,502,492,0.02333441,0.01932941,0.01430313,-1.436281,-2.985077,-1.725991,0.04758513,0.028824,0.02138331,-0.9036121,-2.715451,1.427307
-9.816699E-05,7.455589,149,436,502,492,0.01273675,0.009636723,0.001559888,-1.435999,-2.984956,-1.725904,0.04434676,0.007524982,0.02457808,-0.9032233,-2.715935,1.427365
-9.816699E-05,7.466701,149,436,502,492,0.01061228,0.01065213,-0.004842676,-1.435799,-2.985049,-1.725874,0.04856024,-0.006334346,0.02449039,-0.9032366,-2.716446,1.427059
-9.816699E-05,7.477812,149,436,502,492,-0.002140431,0.003133509,-0.01014634,-1.435634,-2.984913,-1.725549,0.04109869,-0.01269277,0.02669096,-0.9028366,-2.71651,1.426922
-9.816699E-05,7.488923,149,436,502,492,-0.006385268,0.002043044,-0.01440074,-1.435501,-2.985064,-1.725408,0.02506621,0.005499471,0.01517048,-0.9030523,-2.715531,1.42631
-9.816699E-05,7.500034,149,436,502,492,-0.01168374,-0.005444952,-0.01756527,-1.435189,-2.984807,-1.725237,0.01778382,0.03000709,0.02486841,-0.9027051,-2.714268,1.425546
-9.816699E-05,7.511146,149,436,502,492,-0.01592582,-0.007624551,-0.02288097,-1.434948,-2.98456,-1.724998,0.01691347,0.04597218,0.03874932,-0.9020846,-2.712938,1.424511
-9.816699E-05,7.522257,150,426,502,486,-0.03082559,-0.01513076,-0.02712663,-1.434623,-2.984356,-1.724095,0.01057598,0.04917081,0.04306006,-0.9018726,-2.712276,1.424147
-9.816699E-05,7.533368,150,426,502,486,-0.03719513,-0.0194425,-0.03244036,-1.434169,-2.983948,-1.723557,0.008369282,0.03640526,0.04094292,-0.9013831,-2.711992,1.424135
-9.816699E-05,7.544479,150,426,502,486,-0.04146327,-0.01732121,-0.0324609,-1.433885,-2.983785,-1.722986,0.00936133,0.01723491,0.03876307,-0.9011365,-2.712265,1.424021
-9.816699E-05,7.555591,150,426,502,486,-0.04997647,-0.01312172,-0.03890048,-1.433302,-2.983677,-1.722294,0.01041806,0.000180597,0.04298798,-0.9004765,-2.712756,1.424174
-9.816699E-05,7.566702,150,426,502,486,-0.05104158,-0.01101045,-0.03997858,-1.432934,-2.9834,-1.721792,0.002930501,-0.01150896,0.04409165,-0.9002198,-2.713144,1.424678
-9.816699E-05,7.577813,149,434,501,486,-0.05315818,-0.00998898,-0.04638166,-1.432244,-2.983265,-1.72121,-0.0002118368,-0.01043364,0.0483847,-0.8996264,-2.712965,1.424578
-9.816699E-05,7.588924,149,434,501,486,-0.05316207,-0.001513692,-0.05388926,-1.431514,-2.983371,-1.720588,-0.007509913,0.007673699,0.06021978,-0.8985308,-2.712186,1.424634
-9.816699E-05,7.600036,149,434,501,486,-0.0605958,-0.00370394,-0.06028872,-1.430659,-2.983129,-1.719802,-0.01799241,0.02899435,0.06993866,-0.8977873,-2.71099,1.424322
-9.816699E-05,7.611147,149,434,501,486,-0.06271881,-0.004791391,-0.06241823,-1.42994,-2.982874,-1.719096,-0.02210888,0.04923003,0.07853787,-0.8968158,-2.709553,1.423877
-9.816699E-05,7.622258,146,403,502,502,-0.06803769,-0.00269072,-0.06564742,-1.429034,-2.982844,-1.71829,-0.0210523,0.05136832,0.07744549,-0.8963801,-2.708487,1.423451
-9.816699E-05,7.633369,146,403,502,502,-0.07337523,0.001561929,-0.06569173,-1.428218,-2.982886,-1.717337,-0.01579657,0.02898041,0.07842899,-0.8953542,-2.708695,1.423773
-9.816699E-05,7.644481,146,403,502,502,-0.073378,0.006838521,-0.0721142,-1.427277,-2.982822,-1.71647,-0.01702522,0.006608471,0.069895,-0.894575,-2.70956,1.42461
-9.816699E-05,7.655592,146,403,502,502,-0.07660682,0.02067332,-0.07327406,-1.426419,-2.983271,-1.71542,-0.00889965,-0.03492627,0.04417988,-0.8946309,-2.71169,1.425809
-9.816699E-05,7.666703,146,403,502,502,-0.08089699,0.03661551,-0.07553385,-1.425707,-2.983716,-1.714179,-0.005820144,-0.05197261,0.03880784,-0.8939933,-2.712846,1.426605
-9.816699E-05,7.677814,146,359,501,492,-0.0862647,0.04834136,-0.07454035,-1.42462,-2.984636,-1.713006,-0.01114698,-0.04235929,0.03568325,-0.8936232,-2.712976,1.426916
-9.816699E-05,7.688926,146,359,501,492,-0.08947897,0.06214641,-0.07996243,-1.423508,-2.985522,-1.711845,-0.02062017,-0.003965151,0.03478075,-0.8933734,-2.711466,1.426352
-9.816699E-05,7.700037,146,359,501,492,-0.08948065,0.0653301,-0.0821152,-1.422398,-2.986182,-1.710782,-0.01415934,0.008795738,0.03791419,-0.8931316,-2.710916,1.426045
-9.816699E-05,7.711148,146,359,501,492,-0.09798061,0.06207757,-0.08850262,-1.421211,-2.986679,-1.709386,-0.007678993,0.004503276,0.04742958,-0.8923182,-2.710881,1.425881
-9.816699E-05,7.72226,146,359,501,492,-0.1011594,0.05567237,-0.0895342,-1.420124,-2.98699,-1.708132,0.005064785,-0.01471737,0.04939321,-0.8916721,-2.711776,1.426052
-9.816699E-05,7.733371,141,357,500,490,-0.1054428,0.05782991,-0.08422432,-1.419361,-2.98765,-1.706693,0.01131722,-0.02962985,0.03973151,-0.8912594,-2.712556,1.426131
-9.816699E-05,7.744482,141,357,500,490,-0.1097387,0.06530839,-0.08002093,-1.418475,-2.988542,-1.70513,0.01436194,-0.04027933,0.02904487,-0.8909195,-2.713493,1.426568
-9.816699E-05,7.755593,141,357,500,490,-0.1098034,0.08241632,-0.070547,-1.417744,-2.98986,-1.703702,0.008845057,-0.04449871,0.01205036,-0.8911938,-2.714353,1.427184
-9.816699E-05,7.766705,141,357,500,490,-0.1002649,0.09528219,-0.06102259,-1.417111,-2.991136,-1.702718,0.007611455,-0.04659072,-0.002859361,-0.8916759,-2.715029,1.427581
-9.816699E-05,7.777816,133,361,501,496,-0.09389862,0.09642467,-0.05142902,-1.416621,-2.992199,-1.70168,0.002332805,-0.04338277,0.0003946889,-0.8914942,-2.715364,1.427936
-9.816699E-05,7.788927,133,361,501,496,-0.08538028,0.08480366,-0.0396108,-1.416433,-2.992825,-1.700811,-0.004880683,-0.05192074,0.02601231,-0.8904727,-2.716286,1.42874
-9.816699E-05,7.800038,133,361,501,496,-0.08003592,0.07419239,-0.0352717,-1.416012,-2.993354,-1.700029,-0.002828844,-0.04551409,0.01640673,-0.8906367,-2.716588,1.428877
-9.816699E-05,7.81115,133,361,501,496,-0.06829295,0.0572036,-0.02980054,-1.415866,-2.99343,-1.699547,0.003339853,-0.02952781,-0.0102472,-0.8911773,-2.716803,1.428735
-9.816699E-05,7.822261,133,361,501,496,-0.05972888,0.03488706,-0.02431256,-1.41567,-2.993155,-1.699176,0.004380174,-0.01992754,-0.01557441,-0.8915374,-2.716715,1.428608
-9.816699E-05,7.833372,132,342,501,510,-0.05441757,0.03388051,-0.01896777,-1.415507,-2.993711,-1.698523,0.008763057,-0.005059978,-0.007056423,-0.8910851,-2.716583,1.428509
-9.816699E-05,7.844483,132,342,501,510,-0.04058437,0.03183877,-0.01039832,-1.41561,-2.993988,-1.698429,0.01736398,-0.01148081,0.002425378,-0.8908854,-2.716771,1.428207
-9.816699E-05,7.855595,132,342,501,510,-0.02676021,0.03511501,-0.002926911,-1.41574,-2.994514,-1.698417,0.01093278,-0.02424451,0.002473576,-0.8907656,-2.717547,1.428754
-9.816699E-05,7.866706,132,342,501,510,-0.010804,0.04368616,-0.000809113,-1.415775,-2.995207,-1.698621,-0.0008918103,-0.03378598,-0.004873196,-0.8909371,-2.718386,1.429633
-9.816699E-05,7.877817,128,333,500,495,0.001970677,0.04481129,0.003465692,-1.41572,-2.995737,-1.69895,0.0001214407,-0.03804038,-0.008097833,-0.8912013,-2.719011,1.43006
-9.816699E-05,7.888928,128,333,500,495,0.0104904,0.04166976,0.008840588,-1.415992,-2.996156,-1.699233,0.008757727,-0.0125016,-0.003864453,-0.8908652,-2.71814,1.429303
-9.816699E-05,7.90004,128,333,500,495,0.01902392,0.03743008,0.008887904,-1.416043,-2.996483,-1.699619,0.007801707,0.009873641,0.0004231129,-0.8910878,-2.7171,1.428663
-9.816699E-05,7.911151,128,333,500,495,0.02865674,0.02145259,0.005820414,-1.416063,-2.996283,-1.700237,0.0004787594,0.03545231,0.004795767,-0.8910878,-2.715759,1.427908
-9.816699E-05,7.922262,128,333,500,495,0.03932805,0.01508038,0.00482263,-1.416076,-2.996317,-1.700923,-0.008034853,0.05359981,0.0006262213,-0.8917041,-2.714359,1.427407
-9.816699E-05,7.933373,124,354,501,506,0.04145581,0.009754509,0.004866596,-1.4162,-2.996269,-1.701208,-0.01034089,0.06428503,-0.01848931,-0.8923209,-2.713187,1.426994
-9.816699E-05,7.944485,124,354,501,506,0.04788139,-0.004071921,0.006034676,-1.416278,-2.995827,-1.702011,-0.009333983,0.06430525,-0.023828,-0.8928796,-2.712181,1.426444
-9.816699E-05,7.955596,124,354,501,506,0.04789903,-0.01470751,0.008234009,-1.416451,-2.995493,-1.702567,-0.01137683,0.06429642,-0.01528799,-0.8929515,-2.711303,1.426106
-9.816699E-05,7.966707,124,354,501,506,0.04685637,-0.02854936,0.00939509,-1.416768,-2.99488,-1.703052,-0.009215601,0.0546907,-0.01000794,-0.8931497,-2.710907,1.42582
-9.816699E-05,7.977818,124,354,501,506,0.04793016,-0.03809891,0.01478594,-1.417134,-2.994273,-1.703685,-0.002879648,0.04615592,-0.01329532,-0.8936088,-2.710548,1.425393
-9.816699E-05,7.98893,120,317,501,508,0.04474532,-0.04768805,0.01696764,-1.417415,-2.993415,-1.704135,0.003394676,0.0333638,-0.02083699,-0.8940583,-2.710589,1.425214
-9.816699E-05,8.000041,120,317,501,508,0.04262114,-0.05087703,0.01804653,-1.417686,-2.992895,-1.704646,0.004463535,0.02909836,-0.0197999,-0.8944328,-2.710347,1.424924
-9.816699E-05,8.011152,120,317,501,508,0.04156151,-0.05620293,0.01914654,-1.418058,-2.992098,-1.705158,0.002274603,0.03550629,-0.02721644,-0.894886,-2.709689,1.424588
-9.816699E-05,8.022264,120,317,501,508,0.03837126,-0.05727874,0.01807822,-1.418282,-2.99153,-1.705603,-0.002000764,0.04190377,-0.03037455,-0.8956125,-2.709203,1.424462
