ref,t,emg1,emg2,emg1raw,emg2raw,aDotS,bDotS,gDotS,aS,bS,gS,aDotSH,bDotSH,gDotSH,aSH,bSH,gSH
0,0,149,130,498,499,0.2166388,-0.06271358,-0.7112377,-1.440038,-2.915684,-1.680443,0.1157513,-0.003823146,-0.05632401,-1.102899,-2.535303,1.444343
0,0.01111111,149,130,498,499,0.1786253,-0.06818295,-0.6361017,-1.441042,-2.913572,-1.685261,0.1436437,-0.02637774,-0.1314986,-1.104347,-2.538972,1.447877
0,0.02222222,117,108,498,497,0.1328577,-0.05025151,-0.5383804,-1.441438,-2.912697,-1.688679,0.1720103,-0.07278082,-0.1999965,-1.105597,-2.544189,1.452075
0,0.03333334,117,108,498,497,0.09326234,-0.006884061,-0.4337335,-1.441487,-2.913142,-1.691066,0.2234633,-0.1481333,-0.2536625,-1.107053,-2.550977,1.455943
0,0.04444445,117,108,498,497,0.07664116,0.05253462,-0.3077904,-1.441636,-2.915216,-1.691458,0.2850674,-0.2305178,-0.2834409,-1.109005,-2.559162,1.459723
0,0.05555556,117,108,498,497,0.06741999,0.09475535,-0.2015284,-1.442019,-2.917321,-1.691616,0.315801,-0.2993185,-0.3097673,-1.110119,-2.567335,1.463559
0,0.06666667,101,115,498,496,0.05790239,0.1974504,-0.04959024,-1.44165,-2.923224,-1.688412,0.3670729,-0.3849446,-0.3291628,-1.111875,-2.577716,1.467567
0,0.07777778,101,115,498,496,0.07304467,0.3325039,0.03674022,-1.441908,-2.930977,-1.687036,0.3581028,-0.4604549,-0.3048977,-1.111965,-2.586645,1.46974
0,0.08888889,101,115,498,496,0.1202111,0.4853065,0.06037814,-1.443304,-2.940854,-1.686768,0.3218806,-0.5027387,-0.2856649,-1.111188,-2.595034,1.471997
0,0.1,101,115,498,496,0.1514095,0.618311,0.04655681,-1.444515,-2.950765,-1.688016,0.2444644,-0.5444372,-0.2800091,-1.108298,-2.602764,1.47443
0,0.1111111,101,115,498,496,0.183284,0.6756126,0.04152682,-1.446505,-2.959927,-1.688669,0.188233,-0.5449479,-0.2945327,-1.106037,-2.610479,1.477956
0,0.1222222,108,195,496,496,0.2291515,0.7161363,0.04277736,-1.449149,-2.969088,-1.689302,0.1484552,-0.4810455,-0.297336,-1.104669,-2.615907,1.481395
0,0.1333333,108,195,496,496,0.2737135,0.7164173,0.00575424,-1.452588,-2.977036,-1.691087,0.1476404,-0.327154,-0.2575085,-1.106241,-2.617818,1.483573
0,0.1444445,108,195,496,496,0.3059601,0.7154523,-0.05368862,-1.455923,-2.984607,-1.694278,0.1458053,-0.1125012,-0.1476926,-1.10946,-2.614667,1.482915
0,0.1555556,108,195,496,496,0.3172255,0.7109921,-0.08997609,-1.458896,-2.99226,-1.697217,0.1594457,0.01657605,-0.05253537,-1.112795,-2.612413,1.481481
0,0.1666667,108,195,496,496,0.2974484,0.5195623,-0.07638653,-1.461699,-2.993005,-1.698109,0.1891047,0.1570297,0.08780202,-1.117986,-2.606286,1.476818
0,0.1777778,113,154,497,498,0.2831768,0.4066404,-0.06638422,-1.464269,-2.995071,-1.698345,0.1863727,0.1998436,0.1476647,-1.12091,-2.603383,1.474092
0,0.1888889,113,154,497,498,0.245081,0.2529561,-0.06647369,-1.466198,-2.994055,-1.699024,0.1534385,0.1745688,0.1640797,-1.122247,-2.601259,1.471623
0,0.2,113,154,497,498,0.2151938,0.1436658,-0.06000261,-1.467855,-2.993135,-1.699368,0.1271216,0.1053335,0.1364794,-1.122243,-2.602428,1.471208
0,0.2111111,113,154,497,498,0.2045887,0.09370591,-0.07421504,-1.470097,-2.993182,-1.700568,0.1131678,0.0489073,0.120704,-1.122594,-2.603192,1.4701
0,0.2222222,120,125,495,498,0.221011,0.03792417,-0.07863538,-1.473069,-2.992113,-1.701484,0.07906414,-0.08185402,0.04641487,-1.120608,-2.607745,1.471162
0,0.2333333,120,125,495,498,0.2348676,0.03042023,-0.06517453,-1.476035,-2.992676,-1.701884,-0.02055512,-0.1669421,-0.008516673,-1.116505,-2.610433,1.4722
0,0.2444444,120,125,495,498,0.2545448,0.03336857,-0.03404943,-1.47934,-2.993492,-1.701502,-0.0922069,-0.230672,-0.03658646,-1.111997,-2.613361,1.472995
0,0.2555556,120,125,495,498,0.2581672,0.04305363,-0.02007226,-1.482175,-2.994499,-1.701543,-0.1531131,-0.2971002,-0.07849586,-1.106774,-2.617029,1.474263
0,0.2666667,120,125,495,498,0.2548361,0.0417075,-0.01188439,-1.48489,-2.995186,-1.701465,-0.1650693,-0.3050049,-0.1085979,-1.103087,-2.620245,1.476148
0,0.2777778,127,123,494,502,0.2347813,0.01410286,-0.01705346,-1.487095,-2.994675,-1.701845,-0.1631214,-0.2966493,-0.1278151,-1.100345,-2.622854,1.477837
0,0.2888889,127,123,494,502,0.196395,-0.03164102,-0.01515019,-1.488357,-2.993206,-1.701762,-0.1362965,-0.2817998,-0.143159,-1.098365,-2.625953,1.479819
0,0.3,127,123,494,502,0.1584745,-0.08255028,-0.01971051,-1.489517,-2.991127,-1.701946,-0.1048208,-0.2672876,-0.1648301,-1.096781,-2.629364,1.482136
0,0.3111111,127,123,494,502,0.141406,-0.1023213,-0.0173708,-1.490757,-2.989528,-1.701868,-0.04388756,-0.2516322,-0.1732121,-1.096417,-2.633107,1.484243
0,0.3222222,141,162,496,511,0.1340831,-0.1226229,-0.01501012,-1.49249,-2.987864,-1.701747,0.01664655,-0.2352597,-0.1783937,-1.096887,-2.637133,1.486524
0,0.3333333,141,162,496,511,0.1478474,-0.1334743,-0.02034378,-1.49465,-2.986371,-1.701913,0.1084517,-0.219739,-0.1764541,-1.098999,-2.641493,1.488596
0,0.3444445,141,162,496,511,0.1624656,-0.1448837,-0.06293634,-1.497087,-2.984287,-1.703504,0.1275429,-0.2122199,-0.1798255,-1.099754,-2.645427,1.490757
0,0.3555556,141,162,496,511,0.1705653,-0.1506486,-0.1077091,-1.499362,-2.982168,-1.70564,0.05895144,-0.1906135,-0.1745326,-1.097409,-2.647205,1.492727
0,0.3666667,141,162,496,511,0.1747038,-0.1363805,-0.169202,-1.501541,-2.980523,-1.709058,-0.01288411,-0.1463661,-0.132183,-1.095345,-2.646935,1.493139
0,0.3777778,152,172,495,498,0.1754575,-0.1125399,-0.2046698,-1.503502,-2.979477,-1.712064,-0.03056286,-0.08886258,-0.08705469,-1.0949,-2.646314,1.492955
0,0.3888889,152,172,495,498,0.1676459,-0.0707288,-0.2101049,-1.505129,-2.979362,-1.714592,-0.01015703,0.03647756,-0.02124565,-1.097124,-2.642263,1.491481
0,0.4,152,172,495,498,0.1614224,-0.0416206,-0.2072631,-1.506762,-2.979279,-1.716779,0.02953628,0.1566218,0.02674256,-1.100718,-2.638141,1.490362
0,0.4111111,152,172,495,498,0.1570185,0.01200977,-0.195864,-1.508232,-2.980548,-1.718884,0.07452999,0.2163128,0.04980274,-1.103976,-2.635519,1.489573
0,0.4222222,151,129,496,500,0.1578345,0.08640482,-0.1821278,-1.509891,-2.983184,-1.721012,0.08276027,0.2312421,0.05595299,-1.10635,-2.633024,1.488949
0,0.4333333,151,129,496,500,0.1410058,0.1335547,-0.1425963,-1.510834,-2.985792,-1.721977,0.09468222,0.1834123,0.03530521,-1.10776,-2.633018,1.489211
0,0.4444444,151,129,496,500,0.1155598,0.1591682,-0.1141632,-1.511321,-2.98802,-1.72268,0.08806105,0.1079109,0.0252608,-1.108165,-2.63399,1.489125
0,0.4555556,151,129,496,500,0.09028241,0.1859338,-0.1103391,-1.511601,-2.990165,-1.724499,0.06626146,-0.0367136,-0.005541161,-1.106399,-2.638012,1.489531
0,0.4666667,151,129,496,500,0.0780547,0.1999919,-0.1179281,-1.51201,-2.992409,-1.726411,0.05109096,-0.1653739,-0.06765636,-1.104121,-2.643842,1.491693
0,0.4777778,151,139,495,495,0.06468969,0.2217496,-0.1021003,-1.512327,-2.995119,-1.727579,0.052723,-0.2095101,-0.09819043,-1.103448,-2.647757,1.493565
0,0.4888889,151,139,495,495,0.04492175,0.252772,-0.07223041,-1.512242,-2.99859,-1.728154,0.05946495,-0.2109867,-0.1102558,-1.103037,-2.651148,1.495153
0,0.5,151,139,495,495,0.03998307,0.2552283,-0.06494941,-1.512439,-3.001276,-1.729154,0.05713335,-0.1862149,-0.1022026,-1.10306,-2.65284,1.495768
0,0.5111111,151,139,495,495,0.01796938,0.257573,-0.04559746,-1.511858,-3.004153,-1.729666,0.03910146,-0.1110718,-0.0470215,-1.10333,-2.651633,1.494616
0,0.5222223,151,139,495,495,0.01075663,0.2523969,-0.0399565,-1.51163,-3.006657,-1.730393,0.03021423,-0.0709084,-0.01921277,-1.103571,-2.651089,1.494021
0,0.5333334,142,162,496,498,-0.006074674,0.2376633,-0.03527226,-1.510952,-3.008735,-1.73108,0.02543779,-0.03201089,0.01315278,-1.104032,-2.65022,1.493028
0,0.5444446,142,162,496,498,-0.01872519,0.2254466,-0.03984161,-1.510295,-3.01071,-1.732008,0.02095446,-0.00198127,0.03443644,-1.104548,-2.649006,1.492011
0,0.5555557,142,162,496,498,-0.02604666,0.2121157,-0.03711585,-1.509695,-3.012689,-1.732767,0.01279044,0.01752928,0.04467353,-1.104774,-2.648148,1.491246
0,0.5666668,142,162,496,498,-0.02683035,0.2105319,-0.04916841,-1.509271,-3.01475,-1.733967,-0.001530893,0.02966937,0.04990018,-1.104738,-2.647025,1.49053
0,0.577778,142,226,496,497,-0.01659565,0.2069804,-0.07584882,-1.5093,-3.016699,-1.735951,-0.01004513,0.03893507,0.05088274,-1.104755,-2.646059,1.490046
0,0.5888891,142,226,496,497,-0.007939465,0.1846998,-0.08406407,-1.509403,-3.017813,-1.737352,-0.02988736,0.06126489,0.04942218,-1.104564,-2.644259,1.489592
0,0.6000003,142,226,496,497,0.002075538,0.08899583,-0.09313042,-1.509732,-3.015999,-1.738289,-0.0440139,0.07291309,0.04943811,-1.104384,-2.642541,1.488923
0,0.6111114,142,226,496,497,-0.001402892,0.00523949,-0.1170326,-1.509803,-3.013866,-1.739766,-0.08929719,0.0874685,0.06645662,-1.103073,-2.639747,1.487606
0,0.6222225,142,226,496,497,-0.007777251,-0.05059742,-0.134628,-1.509668,-3.011436,-1.74134,-0.1087946,0.1144458,0.06651518,-1.102464,-2.636996,1.487007
0,0.6333337,132,213,496,497,-0.022747,-0.1348566,-0.1526307,-1.509221,-3.007506,-1.742736,-0.09257156,0.1509944,0.07668862,-1.103156,-2.633914,1.485965
0,0.6444448,132,213,496,497,-0.03099032,-0.1935796,-0.1593128,-1.508885,-3.003395,-1.744016,-0.08683047,0.1771995,0.09383458,-1.103652,-2.630456,1.484569
0,0.655556,132,213,496,497,-0.03110465,-0.2379168,-0.1626484,-1.50878,-2.999507,-1.745254,-0.08340434,0.2063609,0.1069963,-1.104282,-2.626822,1.483212
0,0.6666671,132,213,496,497,-0.03071097,-0.2569857,-0.1654589,-1.508701,-2.995832,-1.746541,-0.1044291,0.2217496,0.1136811,-1.104308,-2.623001,1.482005
0,0.6777782,120,191,496,496,-0.02294445,-0.2760489,-0.1604548,-1.508999,-2.992188,-1.747568,-0.1205029,0.2272435,0.1098859,-1.103748,-2.61915,1.480957
0,0.6888894,120,191,496,496,-0.01924023,-0.2775804,-0.1567845,-1.50912,-2.988867,-1.748756,-0.1256852,0.2312967,0.09866023,-1.103576,-2.615717,1.480379
0,0.7000005,120,191,496,496,-0.0189795,-0.268564,-0.1527312,-1.509087,-2.985785,-1.749854,-0.1088572,0.213387,0.09329686,-1.103819,-2.613324,1.479595
0,0.7111117,120,191,496,496,-0.01768125,-0.2602457,-0.1454542,-1.509182,-2.982693,-1.750803,-0.09686086,0.1984607,0.08451377,-1.10398,-2.611092,1.478996
0,0.7222228,120,191,496,496,-0.01510454,-0.2533436,-0.1407184,-1.509246,-2.979793,-1.751761,-0.09926555,0.1927083,0.06942384,-1.103846,-2.608653,1.478737
0,0.7333339,125,227,497,497,-0.01249281,-0.25713,-0.1330473,-1.509368,-2.976588,-1.752473,-0.1006321,0.1930495,0.06001898,-1.10378,-2.606022,1.478456
0,0.7444451,125,227,497,497,-0.002958879,-0.2565039,-0.1219772,-1.509756,-2.973533,-1.753047,-0.09157024,0.1829921,0.06852838,-1.103909,-2.60361,1.477586
0,0.7555562,125,227,497,497,0.003960162,-0.2462901,-0.1018138,-1.510122,-2.970952,-1.753173,-0.08512407,0.1708425,0.07653631,-1.103951,-2.6013,1.476568
0,0.7666674,125,227,497,497,0.01380672,-0.2164604,-0.07894117,-1.51061,-2.969293,-1.753178,-0.07278764,0.1527938,0.08472773,-1.104117,-2.599375,1.475422
0,0.7777785,126,167,496,497,0.0143612,-0.1879894,-0.06414932,-1.510974,-2.967965,-1.753256,-0.06483044,0.1503947,0.07895619,-1.104385,-2.597346,1.474818
0,0.7888896,126,167,496,497,0.01788289,-0.1427261,-0.03970353,-1.51129,-2.967673,-1.752996,-0.05158373,0.1491935,0.07249194,-1.104965,-2.595518,1.474294
0,0.8000008,126,167,496,497,0.02023059,-0.1182125,-0.03475329,-1.511612,-2.966943,-1.753246,-0.0388816,0.1378841,0.0666732,-1.105398,-2.593937,1.47384
0,0.8111119,126,167,496,497,0.01920154,-0.08677924,-0.01928151,-1.511805,-2.966961,-1.753011,-0.0346494,0.116038,0.05947337,-1.105484,-2.592978,1.4734
0,0.8222231,126,167,496,497,0.023729,-0.05750113,-0.001071182,-1.512169,-2.967281,-1.752642,-0.02595624,0.07662516,0.03477012,-1.105282,-2.593486,1.473785
0,0.8333342,129,157,494,495,0.02679624,-0.03283833,0.01268128,-1.512533,-2.967654,-1.752185,-0.005571267,0.03709977,0.01718655,-1.105306,-2.594288,1.474046
0,0.8444453,129,157,494,495,0.03554837,-0.008808628,0.01854897,-1.513193,-2.968256,-1.751934,0.004458129,0.009852061,0.0255137,-1.105334,-2.594708,1.47344
0,0.8555565,129,157,494,495,0.03753393,0.001092754,0.01986065,-1.513619,-2.968556,-1.751674,0.001633865,0.00261123,0.02457383,-1.105247,-2.594426,1.473128
0,0.8666676,129,157,494,495,0.03831549,0.005059235,0.01314386,-1.514065,-2.968723,-1.751725,-0.004729279,0.00123856,0.02284615,-1.105052,-2.594205,1.472887
0,0.8777788,129,157,494,495,0.03843973,0.004297036,0.0118493,-1.514421,-2.968621,-1.751798,-0.008930183,0.008792393,0.02318319,-1.105046,-2.593756,1.472786
0,0.8888899,139,148,495,498,0.03276016,-0.007941997,0.000123715,-1.514661,-2.968159,-1.75204,-0.009186529,0.02391531,0.03067632,-1.105257,-2.592795,1.472244
0,0.900001,139,148,495,498,0.03291018,-0.01705566,-0.003173801,-1.515063,-2.967672,-1.752064,-0.008959848,0.0263201,0.03325578,-1.105375,-2.592213,1.471923
0,0.9111122,139,148,495,498,0.02391636,-0.01273113,-0.007599238,-1.515068,-2.96758,-1.752277,-3.403053E-05,0.02419318,0.03361621,-1.105722,-2.591928,1.471528
0,0.9222233,139,148,495,498,0.02096923,0.00378877,-0.01346353,-1.515172,-2.96806,-1.752648,0.01525474,0.01744806,0.02849821,-1.106212,-2.592117,1.471398
0,0.9333345,146,142,495,494,0.01696507,0.0181694,-0.01107377,-1.515206,-2.968678,-1.752857,0.02362424,0.00510192,0.02564573,-1.106499,-2.592381,1.471137
0,0.9444456,146,142,495,494,0.01712953,0.05026257,-0.006579817,-1.515342,-2.970054,-1.753072,0.02165689,-0.007379156,0.01895976,-1.10649,-2.592787,1.471065
0,0.9555568,146,142,495,494,0.0131823,0.08080111,-0.002435395,-1.515305,-2.971586,-1.753429,0.03330581,-0.01914351,0.0231736,-1.106845,-2.59331,1.470676
0,0.9666679,146,142,495,494,0.009752262,0.1155706,0.002763061,-1.515206,-2.97371,-1.753649,0.04954317,-0.03103742,0.02621351,-1.107427,-2.594059,1.470189
0,0.977779,146,142,495,494,0.00845591,0.1336613,0.004997053,-1.515292,-2.975522,-1.753964,0.05095255,-0.02903921,0.02201695,-1.107839,-2.59446,1.470015
0,0.9888902,145,140,496,499,0.0112825,0.1517954,0.01378405,-1.515372,-2.977761,-1.75398,0.05215229,-0.02080471,0.01643944,-1.108389,-2.594702,1.469961
0,1.000001,145,140,496,499,0.008997957,0.1687388,0.02013408,-1.515201,-2.98003,-1.753962,0.04873926,-0.0181701,0.01251485,-1.108635,-2.594972,1.469917
0,1.011112,145,140,496,499,0.005191326,0.1724625,0.02544996,-1.515045,-2.982109,-1.753906,0.05379067,-0.01352217,0.01650058,-1.109322,-2.595111,1.469564
0,1.022224,145,140,496,499,0.0005140845,0.1742806,0.03356537,-1.514854,-2.984171,-1.753658,0.07107247,-0.02835272,0.01642601,-1.110131,-2.596295,1.469268
0,1.033335,142,160,495,498,0.0008459929,0.170742,0.03921548,-1.514936,-2.986249,-1.753327,0.07131512,-0.04979126,0.0003536157,-1.110286,-2.59792,1.469633
0,1.044446,142,160,495,498,0.001682321,0.1643316,0.03874246,-1.514887,-2.987962,-1.753224,0.04753936,-0.07961506,-0.01105805,-1.109519,-2.599485,1.469909
0,1.055557,142,160,495,498,-0.0007770583,0.1588021,0.03741692,-1.514722,-2.989627,-1.753164,0.0421756,-0.08065914,-0.01663535,-1.109327,-2.600498,1.470138
0,1.066668,142,160,495,498,-0.003368979,0.1464549,0.0322518,-1.514554,-2.990962,-1.753173,0.03893367,-0.084299,-0.02918605,-1.109143,-2.601898,1.47073
0,1.077779,142,160,495,498,-0.00926099,0.1428344,0.03033136,-1.514223,-2.99249,-1.753183,0.04083921,-0.08346127,-0.03536865,-1.109298,-2.603198,1.4712
0,1.08889,138,161,497,506,-0.0169665,0.1283092,0.02685716,-1.513764,-2.993528,-1.753154,0.04926214,-0.08761449,-0.04842262,-1.109477,-2.60498,1.472089
0,1.100002,138,161,497,506,-0.01622131,0.1211597,0.03386973,-1.513525,-2.9947,-1.75284,0.05991185,-0.08837356,-0.04506194,-1.109915,-2.606474,1.472362
0,1.111113,138,161,497,506,-0.01945866,0.1218004,0.03405657,-1.513187,-2.996119,-1.752688,0.05265269,-0.08985234,-0.03290358,-1.109838,-2.607552,1.472398
0,1.122224,138,161,497,506,-0.01449749,0.1240283,0.04114302,-1.513066,-2.997707,-1.752299,0.03268402,-0.07393128,-0.02407429,-1.109547,-2.607875,1.472385
0,1.133335,130,148,496,499,-0.007326331,0.1178959,0.04288493,-1.513099,-2.998948,-1.752004,0.01293723,-0.05867925,-0.01816891,-1.109114,-2.607963,1.472365
0,1.144446,130,148,496,499,-0.003568344,0.1038354,0.04816796,-1.513104,-2.99993,-1.751508,-0.0002116039,-0.04582705,-0.01894955,-1.108692,-2.608071,1.472594
0,1.155557,130,148,496,499,-0.002073955,0.1006429,0.04846576,-1.51296,-3.001137,-1.751221,0.004071396,-0.04494271,-0.0157228,-1.108672,-2.608566,1.472636
0,1.166668,130,148,496,499,-0.006019484,0.08114464,0.0448174,-1.512755,-3.001552,-1.750903,0.02142177,-0.0624346,-0.01359307,-1.108812,-2.609942,1.472606
0,1.17778,130,148,496,499,-0.007947296,0.06979958,0.04968615,-1.512789,-3.00227,-1.750226,0.03275026,-0.08795563,-0.01710615,-1.108651,-2.611743,1.472572
0,1.188891,122,125,496,498,-0.005795516,0.07007062,0.04972227,-1.512721,-3.003143,-1.749827,0.02028894,-0.1112731,-0.02992779,-1.10769,-2.613672,1.47312
0,1.200002,122,125,496,498,-0.003734868,0.07946434,0.05305449,-1.512626,-3.004403,-1.749363,-9.666383E-05,-0.1145332,-0.03315384,-1.106667,-2.614766,1.47345
0,1.211113,122,125,496,498,-0.004164718,0.09243876,0.05397321,-1.512466,-3.005905,-1.748988,-0.006388098,-0.1072476,-0.03374266,-1.105998,-2.615708,1.473781
0,1.222224,122,125,496,498,-0.000801973,0.1006808,0.05369397,-1.512759,-3.007551,-1.748629,-0.006768376,-0.09178024,-0.02484437,-1.105701,-2.616086,1.473691
0,1.233335,122,125,496,498,-0.001673169,0.09929731,0.05442196,-1.512654,-3.008718,-1.748202,-0.009819049,-0.0895982,-0.01787522,-1.105135,-2.616847,1.473507
0,1.244446,120,111,495,499,-0.01325956,0.08932739,0.05316354,-1.511973,-3.00941,-1.74788,-0.0007908866,-0.0863176,-0.0194612,-1.104944,-2.617833,1.473713
0,1.255558,120,111,495,499,-0.01677482,0.08297665,0.05489836,-1.511732,-3.010263,-1.747287,0.0009157285,-0.08759262,-0.02062003,-1.104525,-2.618877,1.473914
0,1.266669,120,111,495,499,-0.02008673,0.07629254,0.04891772,-1.511418,-3.010974,-1.747026,-0.005532511,-0.08292364,-0.0213975,-1.103954,-2.619574,1.474102
0,1.27778,120,111,495,499,-0.01309553,0.07239863,0.04574183,-1.511646,-3.011769,-1.746707,-0.0132474,-0.06963903,-0.0256865,-1.103448,-2.619906,1.474483
0,1.288891,110,124,498,497,-0.01326468,0.06631915,0.03881129,-1.511459,-3.012367,-1.746575,-0.02056798,-0.05701577,-0.01666776,-1.102935,-2.619917,1.474378
0,1.300002,110,124,498,497,-0.01305658,0.05641298,0.03423594,-1.511413,-3.012699,-1.746276,-0.02695396,-0.05243561,-0.01121993,-1.102371,-2.619996,1.474198
0,1.311113,110,124,498,497,-0.02014411,0.04561495,0.02510873,-1.510956,-3.012878,-1.74629,-0.04059728,-0.05565227,-0.01469814,-1.101267,-2.620365,1.47438
0,1.322224,110,124,498,497,-0.03075726,0.03509142,0.02698627,-1.510273,-3.013069,-1.745968,-0.04851604,-0.04787812,-0.02706637,-1.100469,-2.620687,1.475158
0,1.333336,110,124,498,497,-0.03448092,0.03052486,0.02590576,-1.50965,-3.013391,-1.745654,-0.04189527,-0.04714052,-0.02828208,-1.099985,-2.62118,1.475493
0,1.344447,102,129,497,499,-0.03577504,0.04136906,0.03071411,-1.509155,-3.014199,-1.745322,-0.01060468,-0.05570309,-0.02092735,-1.100283,-2.622279,1.475395
0,1.355558,102,129,497,499,-0.03917458,0.05297217,0.03133572,-1.508661,-3.015145,-1.745131,-0.001319218,-0.06703094,-0.02472685,-1.099927,-2.623529,1.475694
0,1.366669,102,129,497,499,-0.03715046,0.06362842,0.03391527,-1.508215,-3.01614,-1.744898,-0.00148074,-0.07506335,-0.03305724,-1.099391,-2.624768,1.476236
0,1.37778,102,129,497,499,-0.03618233,0.07440662,0.03544172,-1.507735,-3.017249,-1.744829,-0.0133738,-0.07417047,-0.03960702,-1.098517,-2.625474,1.476814
0,1.388891,97,138,497,497,-0.03072698,0.08334681,0.03759965,-1.507458,-3.018489,-1.744544,-0.01607586,-0.05917575,-0.0353369,-1.098143,-2.62573,1.477083
0,1.400002,97,138,497,497,-0.0284324,0.08207151,0.03947176,-1.507229,-3.019469,-1.744193,-0.01781348,-0.0437765,-0.03107388,-1.097937,-2.625887,1.477399
0,1.411114,97,138,497,497,-0.02601589,0.07926538,0.04316127,-1.506942,-3.020373,-1.743747,-0.01362016,-0.03702038,-0.02448103,-1.0978,-2.626127,1.477482
0,1.422225,97,138,497,497,-0.02501326,0.08042744,0.04344462,-1.50656,-3.021374,-1.743383,-0.00185491,-0.03737564,-0.01885159,-1.097831,-2.626761,1.477463
0,1.433336,97,138,497,497,-0.02470902,0.07714784,0.04811352,-1.506237,-3.022256,-1.742862,0.003958603,-0.04291005,-0.0172114,-1.09766,-2.627551,1.477594
0,1.444447,87,143,498,496,-0.02103656,0.07313311,0.04822076,-1.50607,-3.023124,-1.742586,-0.0009906925,-0.0476801,-0.02121297,-1.097237,-2.628229,1.477887
0,1.455558,87,143,498,496,-0.02251663,0.06779326,0.04693208,-1.505668,-3.023903,-1.742038,-0.005966045,-0.04954457,-0.02353448,-1.096801,-2.628945,1.478398
0,1.466669,87,143,498,496,-0.01923821,0.05822964,0.04242371,-1.505523,-3.024344,-1.741747,-0.00425335,-0.04540544,-0.02660855,-1.096606,-2.629503,1.478791
0,1.47778,87,143,498,496,-0.01508022,0.04067129,0.03490582,-1.505298,-3.024437,-1.741513,-0.01215674,-0.02657649,-0.02510742,-1.096413,-2.629373,1.479079
0,1.488891,87,143,498,496,-0.01378091,0.02043094,0.02345648,-1.505203,-3.0241,-1.741503,-0.01008918,-0.001208665,-0.02114274,-1.096642,-2.628865,1.479297
0,1.500003,82,138,497,497,-0.01187772,0.001939527,0.02337965,-1.505024,-3.023837,-1.74117,-0.007766761,0.009946891,-0.01409328,-1.096818,-2.628327,1.479305
0,1.511114,82,138,497,497,-0.01003738,-0.004907354,0.02063446,-1.504969,-3.023638,-1.740986,-0.007442278,0.003713442,-0.0127145,-1.096567,-2.628438,1.479345
0,1.522225,82,138,497,497,-0.009375283,-0.009585036,0.0129322,-1.504812,-3.023535,-1.741008,-0.00763245,-0.009604389,-0.01526598,-1.096261,-2.628928,1.479562
0,1.533336,82,138,497,497,-0.008316381,-0.008230287,0.007778815,-1.504757,-3.02347,-1.741066,-0.00763783,-0.02052081,-0.01523377,-1.095935,-2.629428,1.479684
0,1.544447,82,125,498,496,-0.0001794184,-0.004518932,0.00976672,-1.504868,-3.023691,-1.740924,-0.01178215,-0.0216749,-0.01609392,-1.095489,-2.629717,1.479917
0,1.555558,82,125,498,496,-0.0002980679,-0.003493462,0.01002027,-1.504749,-3.023622,-1.740693,-0.01345147,-0.01503459,-0.01688939,-1.095217,-2.629748,1.480198
0,1.566669,82,125,498,496,-0.002527384,-0.004664316,0.01850445,-1.504674,-3.023649,-1.740232,-0.01777685,0.003116137,-0.02423997,-1.095166,-2.62942,1.480793
0,1.577781,82,125,498,496,-0.001578521,-0.004017624,0.02085191,-1.504651,-3.023684,-1.73992,-0.01103252,0.01174216,-0.02480098,-1.095385,-2.629239,1.481158
0,1.588892,82,125,498,496,-7.971749E-05,-0.008273344,0.0209274,-1.504731,-3.02352,-1.739643,0.008298376,0.001906176,-0.01649657,-1.095848,-2.629693,1.481086
0,1.600003,79,158,497,495,0.004378477,-0.009655369,0.01950078,-1.504897,-3.023385,-1.739473,0.005762502,-0.01388128,-0.01482701,-1.095478,-2.630175,1.481111
0,1.611114,79,158,497,495,0.002879813,-0.00514211,0.01838993,-1.504885,-3.023488,-1.739325,-0.004205389,-0.03420117,-0.02515542,-1.09473,-2.631178,1.481644
0,1.622225,79,158,497,495,0.002731897,0.007046168,0.01801662,-1.50483,-3.023956,-1.739232,-0.01354674,-0.03686526,-0.03306673,-1.09411,-2.631769,1.482269
0,1.633336,79,158,497,495,0.00273341,0.007542793,0.01594417,-1.50486,-3.024053,-1.739123,-0.006227853,-0.01594872,-0.02925442,-1.094422,-2.631665,1.482468
0,1.644447,83,131,498,498,0.002843559,0.006761307,0.01466084,-1.504877,-3.024135,-1.739004,0.006957285,0.0131134,-0.01979971,-1.095246,-2.631101,1.482515
0,1.655559,83,131,498,498,0.0007252004,0.007040294,0.01253525,-1.504825,-3.024164,-1.73897,0.00519578,0.02280044,-0.01509551,-1.095434,-2.630696,1.482695
0,1.66667,83,131,498,498,-0.002126668,0.004371188,0.008613333,-1.504723,-3.024131,-1.738981,0.004956405,0.02882816,-0.01411821,-1.095729,-2.630374,1.482893
0,1.677781,83,131,498,498,-0.001805608,0.002265517,0.003726708,-1.504628,-3.024047,-1.739118,-0.001168919,0.02683615,-0.0149569,-1.095549,-2.630206,1.483184
0,1.688892,83,131,498,498,-0.002538366,-0.0009323711,0.002962111,-1.504586,-3.023953,-1.739098,-0.02138575,0.03046137,-0.02280444,-1.094968,-2.629756,1.483777
0,1.700003,88,139,497,498,-0.003782084,-0.00889293,-0.001131501,-1.5046,-3.023634,-1.73914,-0.01968273,0.03206255,-0.01605635,-1.094939,-2.629322,1.483854
0,1.711114,88,139,497,498,-0.00514152,-0.01706184,0.000201467,-1.504522,-3.023235,-1.739028,-0.01287927,0.03252179,-0.01251858,-1.095137,-2.629061,1.483957
0,1.722225,88,139,497,498,-0.008109899,-0.01968429,0.0006692363,-1.504333,-3.023033,-1.738934,-0.01041611,0.02668269,-0.01648013,-1.095337,-2.629138,1.484358
0,1.733337,88,139,497,498,-0.008330671,-0.01811661,0.003235736,-1.504244,-3.022896,-1.738796,-0.01787153,0.03034276,-0.02254567,-1.09516,-2.628848,1.484873
0,1.744448,90,117,498,502,-0.0121522,-0.02439342,0.009405005,-1.503989,-3.022429,-1.738461,-0.04451567,0.04371161,-0.0206889,-1.094472,-2.627781,1.485213
0,1.755559,90,117,498,502,-0.01692427,-0.0305641,0.01012703,-1.503763,-3.021868,-1.738181,-0.04758644,0.04274419,-0.01918032,-1.094182,-2.627317,1.48539
0,1.76667,90,117,498,502,-0.02182198,-0.03618118,0.01316305,-1.503392,-3.021415,-1.737849,-0.04032454,0.04205769,-0.01766833,-1.09415,-2.626892,1.485588
0,1.777781,90,117,498,502,-0.02482111,-0.04026099,0.01986399,-1.503075,-3.020977,-1.737321,-0.0231592,0.02089955,-0.02402082,-1.094227,-2.627506,1.486001
0,1.788892,90,117,498,502,-0.02993174,-0.03338532,0.02588497,-1.502619,-3.02085,-1.736857,-0.01124083,-0.01239295,-0.03587173,-1.093926,-2.628866,1.486708
0,1.800003,91,111,498,500,-0.02675404,-0.02290551,0.02948575,-1.502326,-3.020792,-1.736459,-0.02639974,-0.0230708,-0.04177488,-1.093106,-2.629352,1.487356
0,1.811115,91,111,498,500,-0.03245114,-0.009091137,0.03387522,-1.501804,-3.021126,-1.736025,-0.04078379,-0.0221321,-0.0462971,-1.092243,-2.629542,1.488052
0,1.822226,91,111,498,500,-0.02649938,-0.005322207,0.03915592,-1.50165,-3.021285,-1.735465,-0.05841197,-0.02418602,-0.04037819,-1.091149,-2.629293,1.48828
0,1.833337,91,111,498,500,-0.02968035,-0.006082893,0.04116174,-1.501217,-3.021293,-1.734954,-0.05967325,-0.02635423,-0.02996646,-1.09036,-2.629296,1.488296
0,1.844448,91,111,498,500,-0.03584601,-0.009441768,0.04363628,-1.500675,-3.021091,-1.734445,-0.03904843,-0.03875563,-0.02477657,-1.090231,-2.63002,1.488286
0,1.855559,82,127,497,496,-0.03324246,-0.01438074,0.0424554,-1.500237,-3.020827,-1.733999,-0.02966166,-0.04944554,-0.02323324,-1.08984,-2.630633,1.488513
0,1.86667,82,127,497,496,-0.03305282,-0.01665641,0.04300753,-1.499883,-3.02067,-1.733486,-0.02092423,-0.05340029,-0.0239749,-1.089506,-2.631389,1.488772
0,1.877781,82,127,497,496,-0.02958072,-0.01797095,0.0361286,-1.499636,-3.020436,-1.73318,-0.026543,-0.04577672,-0.02070051,-1.088932,-2.63145,1.48898
0,1.888893,82,127,497,496,-0.02379994,-0.01045354,0.03463705,-1.499527,-3.020588,-1.73286,-0.03323858,-0.0303486,-0.01145431,-1.088458,-2.631059,1.488878
0,1.900004,77,114,498,500,-0.0221589,-0.003618904,0.02969337,-1.4993,-3.02075,-1.7327,-0.02974304,-0.0115187,0.003349676,-1.08842,-2.630427,1.48846
0,1.911115,77,114,498,500,-0.01916432,0.0002099373,0.02403607,-1.499158,-3.020887,-1.732601,-0.02762984,-0.002948314,0.01019195,-1.088213,-2.630103,1.488193
0,1.922226,77,114,498,500,-0.01915964,0.001692736,0.01781845,-1.498915,-3.02096,-1.732593,-0.02513922,0.004568584,0.008791052,-1.088161,-2.629739,1.488141
0,1.933337,77,114,498,500,-0.01443119,-0.001614699,0.01046311,-1.49891,-3.020857,-1.732656,-0.01970995,0.0001683347,0.008635691,-1.087983,-2.629843,1.488114
0,1.944448,77,114,498,500,-0.01008959,-0.0124861,0.002398822,-1.498948,-3.020406,-1.732758,-0.02108667,-0.004528095,0.0126181,-1.087667,-2.629714,1.487823
0,1.955559,75,115,498,505,-0.009220858,-0.02005238,-0.007071637,-1.498822,-3.019821,-1.732911,-0.02025845,-0.006286378,0.0177035,-1.087369,-2.629505,1.487361
0,1.966671,75,115,498,505,-0.01095219,-0.02337453,-0.01225607,-1.498691,-3.019425,-1.733129,-0.0251014,-0.005961261,0.0141421,-1.086969,-2.62931,1.487286
0,1.977782,75,115,498,505,-0.004479451,-0.02311033,-0.01547048,-1.49884,-3.019075,-1.733269,-0.02406671,0.002268884,0.01479924,-1.086926,-2.628923,1.487127
0,1.988893,75,115,498,505,-0.004948106,-0.01670987,-0.01942704,-1.498839,-3.01896,-1.733603,-0.02287375,0.01560627,0.02212129,-1.087002,-2.628089,1.486661
0,2.000004,72,122,498,498,-0.001188016,-0.01117094,-0.01809818,-1.498896,-3.018973,-1.733749,-0.02333903,0.032451,0.01928847,-1.087157,-2.627104,1.48656
0,2.011115,72,122,498,498,-0.003695547,-0.006729864,-0.01923157,-1.498767,-3.01894,-1.734004,-0.03124291,0.03179844,0.01724802,-1.086753,-2.626552,1.486466
0,2.022226,72,122,498,498,-0.005915732,-0.006380027,-0.01696104,-1.498643,-3.018829,-1.73414,-0.02766174,0.02363052,0.01541443,-1.086592,-2.626338,1.486328
0,2.033337,72,122,498,498,-0.007937115,-0.007840343,-0.01621681,-1.498553,-3.018748,-1.734213,-0.01809332,0.004532062,0.0132802,-1.086448,-2.626627,1.486175
0,2.044448,72,122,498,498,-0.007950455,0.00260674,-0.009323445,-1.498426,-3.019046,-1.734176,-0.01196442,-0.004217559,0.007902462,-1.086338,-2.626872,1.486182
0,2.055559,79,151,499,498,-0.009868991,0.000357186,-0.009858758,-1.498399,-3.018992,-1.734208,-0.008760816,0.001345706,-0.006134176,-1.086349,-2.626768,1.486596
0,2.06667,79,151,499,498,-0.01054887,0.007580098,-0.008121112,-1.498245,-3.019266,-1.734279,-0.007464068,-0.004250918,-0.007164169,-1.086214,-2.626973,1.486701
0,2.077781,79,151,499,498,-0.01132513,0.01508628,-0.003025974,-1.498069,-3.01965,-1.734228,-0.01051497,-0.005128282,-0.001814173,-1.085945,-2.62673,1.486379
0,2.088892,79,151,499,498,-0.004771872,0.01309381,-0.001310265,-1.49812,-3.019812,-1.734222,-0.006260546,-0.00413086,0.001416076,-1.085989,-2.626695,1.486201
0,2.100003,81,145,499,498,-0.001108947,0.007473592,0.0006267502,-1.498162,-3.019808,-1.734131,-0.01133345,-0.0005701166,0.001025149,-1.085801,-2.626503,1.486196
0,2.111114,81,145,499,498,-4.607672E-05,0.006819641,0.003755989,-1.498235,-3.019903,-1.734027,-0.01117507,0.004215655,-0.003830942,-1.085757,-2.626435,1.486413
0,2.122225,81,145,499,498,0.002850596,-0.001243893,0.00181918,-1.498341,-3.019689,-1.734007,-0.009090098,0.007469932,-0.001256025,-1.085789,-2.626252,1.486382
0,2.133336,81,145,499,498,0.004395747,-0.006555861,0.001640153,-1.498448,-3.019486,-1.733959,-0.006271282,0.01167498,0.0004011926,-1.085897,-2.625991,1.486401
0,2.144447,81,145,499,498,0.002562786,-0.01009742,0.001879521,-1.498398,-3.019135,-1.733952,-0.009038053,0.01537466,0.003259624,-1.085909,-2.625663,1.486291
0,2.155558,84,127,499,500,-0.002453537,-0.01391024,0.002053887,-1.49825,-3.018911,-1.733889,-0.01171814,0.01606297,0.0005836979,-1.085663,-2.625306,1.486396
0,2.166669,84,127,499,500,-0.002740625,-0.01006892,-0.0003111045,-1.498227,-3.018884,-1.733969,-0.005667455,0.01272786,-0.006721301,-1.085765,-2.625495,1.486737
0,2.17778,84,127,499,500,0.001893623,-0.01307378,-0.004320971,-1.498361,-3.018574,-1.734138,-0.002758061,0.01142091,-0.006996389,-1.08591,-2.625621,1.487024
0,2.188891,84,127,499,500,0.003443823,-0.01814113,-0.005535357,-1.498496,-3.018177,-1.734162,0.001791758,0.01970522,-0.00219709,-1.08627,-2.625235,1.486939
0,2.200002,84,127,499,500,0.004022636,-0.02433046,-0.007026812,-1.498486,-3.017695,-1.734235,-0.003644831,0.02430474,0.005655203,-1.086258,-2.62459,1.486714
0,2.211113,81,132,498,499,0.007607435,-0.02742365,-0.01105338,-1.498697,-3.017271,-1.734391,-0.01194783,0.03520461,0.006535398,-1.08625,-2.623727,1.486706
0,2.222224,81,132,498,499,0.01099059,-0.02895784,-0.01251852,-1.49886,-3.016771,-1.734543,-0.01242039,0.03634292,0.008575408,-1.086315,-2.623202,1.486574
0,2.233335,81,132,498,499,0.01079667,-0.02739284,-0.009947597,-1.498988,-3.016515,-1.734544,-0.00641488,0.02801196,0.008502039,-1.086358,-2.623179,1.486585
0,2.244446,81,132,498,499,0.01022133,-0.02046596,-0.01156037,-1.49918,-3.016347,-1.734612,8.177501E-05,0.002635174,0.003578255,-1.086185,-2.62393,1.486642
0,2.255557,85,112,500,498,0.009523151,-0.01398947,-0.006714894,-1.499166,-3.016454,-1.734523,0.005690332,-0.0129734,-0.008112533,-1.086034,-2.62464,1.48708
0,2.266668,85,112,500,498,0.006497258,0.007541031,-0.005929839,-1.49912,-3.017091,-1.734699,0.01274604,-0.01047555,-0.007283404,-1.08629,-2.624883,1.487147
0,2.277779,85,112,500,498,0.008119368,0.01338865,-0.006714148,-1.499149,-3.017331,-1.734847,0.01360522,0.008871295,0.001060796,-1.08682,-2.624146,1.486769
0,2.28889,85,112,500,498,0.006835005,0.02704623,-0.004524979,-1.499142,-3.017985,-1.73494,0.01060302,0.01308894,0.003009508,-1.086988,-2.623882,1.486685
0,2.300001,85,112,500,498,0.005773445,0.02645207,-0.002474561,-1.499184,-3.018251,-1.734889,0.006461695,0.01209425,0.009842728,-1.086931,-2.623474,1.486216
0,2.311112,86,124,499,498,0.003946703,0.02217019,0.0008760547,-1.499192,-3.018414,-1.734832,0.007872937,0.006186741,0.007344739,-1.086987,-2.623611,1.486196
0,2.322223,86,124,499,498,0.005006917,0.02301247,-0.002210301,-1.499346,-3.018608,-1.735049,0.01570815,-0.001093551,0.004894265,-1.087268,-2.623999,1.486144
0,2.333334,86,124,499,498,0.00298366,0.0217892,-0.002503044,-1.49931,-3.018797,-1.735136,0.02224125,-0.01878734,-0.003174379,-1.087317,-2.624802,1.486227
0,2.344445,86,124,499,498,0.009140808,0.02568754,-0.007038808,-1.499562,-3.019281,-1.735397,0.0260586,-0.02757596,-0.007943459,-1.087413,-2.625565,1.486407
0,2.355556,86,130,498,498,0.006815041,0.02755608,-0.006585914,-1.499485,-3.019576,-1.735538,0.02068754,-0.03399295,-0.013973,-1.087237,-2.626271,1.486716
0,2.366668,86,130,498,498,0.009988675,0.0278493,-0.006515207,-1.499669,-3.019883,-1.735664,0.01717564,-0.03112558,-0.006379152,-1.087204,-2.626451,1.486531
0,2.377779,86,130,498,498,0.008426839,0.03266047,-0.004256372,-1.49964,-3.020428,-1.735655,0.01324395,-0.01932851,0.003925493,-1.087284,-2.626096,1.486069
0,2.38889,86,130,498,498,0.01371468,0.0339009,-0.007243637,-1.49992,-3.020808,-1.735899,0.01546224,-0.0002808738,0.01552054,-1.087785,-2.625429,1.48555
0,2.400001,86,130,498,498,0.01223919,0.03843097,-0.008339373,-1.499909,-3.021291,-1.736157,0.01649199,0.005232126,0.01212651,-1.088019,-2.625366,1.485418
0,2.411112,87,116,499,496,0.01233575,0.03690127,-0.006514057,-1.499995,-3.021673,-1.736136,0.01715876,-0.001631665,0.01054579,-1.08814,-2.625675,1.485256
0,2.422223,87,116,499,496,0.01030942,0.03567701,-0.006805579,-1.500023,-3.022012,-1.736295,0.02072852,-0.02041228,0.01017423,-1.088118,-2.626343,1.485059
0,2.433334,87,116,499,496,0.009796125,0.04108423,-0.00659434,-1.500072,-3.02261,-1.736456,0.02485403,-0.03253298,0.008438574,-1.088229,-2.627127,1.484996
0,2.444445,87,116,499,496,0.0113576,0.03652994,-0.009880489,-1.500327,-3.022866,-1.736601,0.02419833,-0.03629055,0.01148429,-1.088208,-2.627589,1.484701
0,2.455556,91,128,499,497,0.0123045,0.03816516,-0.01167394,-1.500493,-3.023313,-1.736831,0.01821476,-0.02784961,0.01538526,-1.088316,-2.627572,1.484322
0,2.466667,91,128,499,497,0.01276833,0.02336159,-0.0185266,-1.500666,-3.023109,-1.737179,0.00614318,-0.01063441,0.0246636,-1.088276,-2.626875,1.483771
0,2.477778,91,128,499,497,0.01125588,0.0174891,-0.02213345,-1.500679,-3.023055,-1.737554,0.003755115,0.002945225,0.02932737,-1.088413,-2.626337,1.483305
0,2.488889,91,128,499,497,0.007398568,0.002065995,-0.02367054,-1.500687,-3.022533,-1.73779,0.00506489,0.01884994,0.03688986,-1.088825,-2.625435,1.482675
0,2.5,91,128,499,497,0.006727021,-0.01205386,-0.02928246,-1.50071,-3.021837,-1.73815,0.009067122,0.02583736,0.04114072,-1.089213,-2.624825,1.482091
0,2.511111,93,119,499,499,0.005032433,-0.0158626,-0.03240597,-1.500754,-3.02145,-1.738535,0.01015431,0.03154119,0.0454254,-1.089544,-2.624173,1.481502
0,2.522222,93,119,499,499,0.001647549,-0.01434611,-0.03095065,-1.500689,-3.021259,-1.738807,-0.002254616,0.02809181,0.0467249,-1.089352,-2.623493,1.480898
0,2.533333,93,119,499,499,6.849319E-05,-0.009028254,-0.03077042,-1.500626,-3.021282,-1.739234,-0.008033093,0.02261757,0.04510816,-1.089108,-2.623109,1.480451
0,2.544444,93,119,499,499,-0.002365023,-0.006637366,-0.02800079,-1.500547,-3.021216,-1.739465,-0.01279835,0.01206797,0.04154434,-1.088801,-2.622925,1.480033
0,2.555555,93,119,499,499,-0.006398385,-0.01036096,-0.0234314,-1.500382,-3.020942,-1.739554,-0.02057628,0.01116453,0.03804575,-1.088472,-2.622498,1.479655
0,2.566666,94,122,500,496,-0.01255141,-0.01352574,-0.02202247,-1.500102,-3.020649,-1.739722,-0.03044226,0.01531556,0.04183534,-1.088101,-2.621649,1.479065
0,2.577777,94,122,500,496,-0.01511808,-0.02100077,-0.01946974,-1.499808,-3.020343,-1.739754,-0.0287365,0.02217776,0.04288077,-1.088056,-2.620759,1.478469
0,2.588888,94,122,500,496,-0.01767324,-0.02772811,-0.02003455,-1.499586,-3.019801,-1.739912,-0.03217715,0.0249217,0.04670184,-1.087836,-2.619885,1.477811
0,2.599999,94,122,500,496,-0.01810233,-0.03527243,-0.01639111,-1.499578,-3.019314,-1.739825,-0.02381632,0.03779927,0.04314535,-1.088183,-2.618993,1.477477
0,2.61111,90,117,499,493,-0.0224487,-0.03387357,-0.01936396,-1.499247,-3.018904,-1.740057,-0.02268643,0.03240283,0.03973152,-1.088065,-2.618538,1.477078
0,2.622221,90,117,499,493,-0.02373694,-0.03317397,-0.01370883,-1.498956,-3.01857,-1.739914,-0.02023702,0.02661157,0.03571837,-1.088018,-2.618181,1.47678
0,2.633332,90,117,499,493,-0.02469955,-0.03429473,-0.01399966,-1.498686,-3.018109,-1.740006,-0.0207886,0.02245667,0.03345235,-1.087906,-2.617768,1.476466
0,2.644443,90,117,499,493,-0.02544189,-0.02834968,-0.007055973,-1.498384,-3.017979,-1.739856,-0.01745196,0.01991052,0.02729007,-1.087841,-2.617474,1.476339
0,2.655554,90,117,499,493,-0.02001698,-0.01848705,-0.004606809,-1.498274,-3.017947,-1.739682,-0.01079124,0.01795647,0.0281955,-1.087973,-2.61719,1.475939
0,2.666665,85,124,500,496,-0.01533607,-0.01231875,-0.0008887195,-1.498219,-3.017996,-1.739585,4.332699E-05,0.006163303,0.02602436,-1.088124,-2.617375,1.475643
0,2.677776,85,124,500,496,-0.009868899,0.007430131,0.006167677,-1.498139,-3.018557,-1.739529,0.00121411,-0.002116445,0.02086342,-1.088077,-2.617579,1.475542
0,2.688887,85,124,500,496,-0.003917159,0.01239414,0.006303235,-1.498195,-3.018705,-1.739416,-0.001344259,-0.01520084,0.01640098,-1.087743,-2.617964,1.475417
0,2.699998,85,124,500,496,-0.001657016,0.02195966,0.008657977,-1.498202,-3.019233,-1.739339,-0.007133447,-0.01261118,0.01312623,-1.087486,-2.61788,1.475271
0,2.711109,85,123,499,497,0.004589564,0.02408399,0.00699744,-1.498122,-3.019392,-1.739303,-0.003363441,-0.01077803,0.006868056,-1.087538,-2.618041,1.475376
0,2.72222,85,123,499,497,0.003325758,0.02629861,0.006445032,-1.498106,-3.019778,-1.739305,0.003123336,-0.01503135,0.008986827,-1.087588,-2.618255,1.475161
0,2.733331,85,123,499,497,0.005845299,0.02136324,0.009609785,-1.498092,-3.019925,-1.739275,0.0134436,-0.02035321,0.003135329,-1.087811,-2.61887,1.475281
0,2.744442,85,123,499,497,0.007964819,0.02181824,0.008622172,-1.498223,-3.020197,-1.739236,0.02066594,-0.02366729,0.004351575,-1.088021,-2.619304,1.475165
0,2.755553,85,123,499,497,0.01199052,0.02504605,0.00611961,-1.498366,-3.020613,-1.739431,0.0324046,-0.02421613,-0.001582045,-1.088482,-2.619991,1.475365
0,2.766664,84,127,499,498,0.01738695,0.02477608,0.00495159,-1.498688,-3.020898,-1.739455,0.03580086,-0.005099878,-0.00137796,-1.089138,-2.619885,1.475436
0,2.777775,84,127,499,498,0.01885216,0.02305765,-0.005339717,-1.498927,-3.021035,-1.739854,0.0308417,0.02012365,0.0007755961,-1.089631,-2.619106,1.475435
0,2.788886,84,127,499,498,0.02042439,0.01903889,-0.01071581,-1.499205,-3.021097,-1.740131,0.02242801,0.03461676,0.006405149,-1.090012,-2.618331,1.475264
0,2.799997,84,127,499,498,0.02358365,0.009461117,-0.0152558,-1.499499,-3.020963,-1.740225,0.01900886,0.04296683,0.01598794,-1.090307,-2.617543,1.474902
0,2.811108,88,126,500,501,0.02325888,0.002152443,-0.01704215,-1.499788,-3.020764,-1.740301,0.01729822,0.03855012,0.007508937,-1.090497,-2.617334,1.4751
0,2.822219,88,126,500,501,0.02336592,0.001642533,-0.01936194,-1.500049,-3.020718,-1.740557,0.02096828,0.02965409,-0.001189382,-1.090782,-2.617615,1.475407
0,2.83333,88,126,500,501,0.02158278,-0.00239727,-0.01707558,-1.500525,-3.020608,-1.740828,0.02511229,0.01429225,-0.006182928,-1.090928,-2.618056,1.475585
0,2.844441,88,126,500,501,0.02422965,0.00281495,-0.01470053,-1.500854,-3.020765,-1.740973,0.02642646,0.008287405,-0.01255148,-1.091179,-2.618447,1.475921
0,2.855552,88,126,500,501,0.02295653,0.006050323,-0.01939177,-1.50108,-3.020818,-1.741333,0.02111855,0.01534558,-0.01210889,-1.091443,-2.618166,1.476079
0,2.866663,93,129,500,498,0.02230773,0.01197946,-0.01684251,-1.501268,-3.021107,-1.741477,0.0154133,0.02613668,-0.009395057,-1.091725,-2.617719,1.476183
0,2.877774,93,129,500,498,0.013826,0.009872232,-0.01187461,-1.501135,-3.02112,-1.741479,0.01403144,0.02945166,-0.007107165,-1.091918,-2.617357,1.4762
0,2.888885,93,129,500,498,0.01138974,0.01224419,-0.009097835,-1.501338,-3.021329,-1.741508,0.01272712,0.02995154,-0.002687377,-1.0922,-2.617043,1.476123
0,2.899997,93,129,500,498,0.005982644,0.01224268,-0.006904937,-1.501256,-3.021443,-1.741542,0.01700204,0.02527124,-0.00525779,-1.092589,-2.617235,1.476307
0,2.911108,93,129,500,498,0.003773355,0.0117991,-0.001535435,-1.501578,-3.021672,-1.741442,0.02390628,0.008754526,-0.01284742,-1.092818,-2.617968,1.476663
0,2.922219,95,136,499,495,0.003537246,0.02324407,0.00565003,-1.501555,-3.022271,-1.741309,0.02868934,-0.02728381,-0.02111372,-1.092579,-2.619478,1.477091
0,2.93333,95,136,499,495,-0.002724703,0.03173291,0.008814459,-1.501538,-3.022836,-1.741411,0.02910928,-0.03643074,-0.02145828,-1.092808,-2.620196,1.477316
0,2.944441,95,136,499,495,0.0004357081,0.04219563,0.01246562,-1.501589,-3.023631,-1.741296,0.02024206,-0.03716359,-0.01581746,-1.092589,-2.620574,1.477295
0,2.955552,95,136,499,495,-0.003590135,0.04911622,0.0185352,-1.501481,-3.024525,-1.741149,0.01258555,-0.03249607,-0.007358042,-1.092585,-2.620564,1.477213
0,2.966663,93,134,499,499,-0.006230077,0.05405486,0.01974684,-1.501274,-3.02529,-1.741024,0.01011202,-0.02368156,0.002171378,-1.092613,-2.620463,1.47692
0,2.977774,93,134,499,499,-0.01414508,0.04782985,0.01932339,-1.501048,-3.025741,-1.740896,0.008851821,-0.02056822,0.00682422,-1.092764,-2.620523,1.476749
0,2.988885,93,134,499,499,-0.01518033,0.03783492,0.01468166,-1.501057,-3.025916,-1.740893,0.008556199,-0.02273994,0.00185547,-1.092701,-2.620886,1.476845
0,2.999996,93,134,499,499,-0.02035056,0.02589171,0.01176417,-1.500699,-3.025893,-1.74083,0.006310778,-0.02564628,0.0007469289,-1.092595,-2.621234,1.476873
0,3.011107,93,134,499,499,-0.02161253,0.01821152,0.006596759,-1.50044,-3.025871,-1.740897,0.002099625,-0.02397692,-0.002243915,-1.092395,-2.621436,1.47697
0,3.022218,94,136,500,494,-0.01916796,0.00544019,0.0012707,-1.500347,-3.025531,-1.740964,-0.01338743,-0.02266261,0.006312108,-1.091865,-2.621259,1.476667
0,3.033329,94,136,500,494,-0.01651015,0.000246036,0.00109478,-1.500345,-3.025461,-1.740897,-0.01677919,-0.02278305,0.008384948,-1.091504,-2.621251,1.476468
0,3.04444,94,136,500,494,-0.01937075,-0.002638662,-0.001810534,-1.500054,-3.025313,-1.740963,-0.01930048,-0.02217681,0.01192166,-1.091263,-2.621144,1.476094
0,3.055551,94,136,500,494,-0.02392785,0.0005557697,-0.003223011,-1.499659,-3.025357,-1.741036,-0.01549,-0.03129997,0.005616773,-1.091028,-2.621681,1.476151
0,3.066662,96,122,499,496,-0.02413705,0.003384708,-0.005817784,-1.499379,-3.025411,-1.741177,-0.01420963,-0.0343153,0.004785931,-1.090709,-2.621999,1.476069
0,3.077773,96,122,499,496,-0.02456382,0.007765826,-0.005835024,-1.498975,-3.025566,-1.741276,-0.01420059,-0.03432043,0.004776065,-1.090396,-2.622212,1.47597
0,3.088884,96,122,499,496,-0.02604161,0.01204456,-0.005871691,-1.498638,-3.025774,-1.741384,-0.0113645,-0.03835416,0.0004191557,-1.090112,-2.622852,1.476133
0,3.099995,96,122,499,496,-0.02433386,0.01661597,-0.005821377,-1.498462,-3.025918,-1.741306,-0.02618943,-0.0002198014,0.02150451,-1.090207,-2.62042,1.475085
0,3.111106,96,122,499,496,-0.02413612,0.014307,-0.005299031,-1.497976,-3.025841,-1.741503,-0.02419884,0.01171033,0.02921935,-1.090385,-2.619835,1.474786
0,3.122217,98,134,500,497,-0.02720782,0.01298678,-0.005625573,-1.497546,-3.025871,-1.741594,-0.02134844,0.01020195,0.02124945,-1.090421,-2.619841,1.475129
0,3.133328,98,134,500,497,-0.02753889,0.005435882,-0.006409478,-1.497246,-3.025683,-1.741661,-0.0195823,-0.007943638,0.008930537,-1.089865,-2.620342,1.475069
0,3.144439,98,134,500,497,-0.02691682,-0.0009871232,-0.006915837,-1.497001,-3.025467,-1.741723,-0.01369144,-0.02193947,0.002993692,-1.089592,-2.620905,1.475139
0,3.15555,98,134,500,497,-0.02744109,0.002872877,-0.0004656976,-1.496629,-3.025548,-1.741657,-0.01069849,-0.04261077,-0.001039368,-1.089006,-2.621948,1.475182
0,3.166661,98,134,500,497,-0.02497768,0.01141002,-0.002716219,-1.496398,-3.02586,-1.741817,-0.01101843,-0.04728478,-0.002435765,-1.088592,-2.622476,1.47518
0,3.177772,103,136,500,495,-0.0213514,0.01875882,-0.004155842,-1.496249,-3.026248,-1.741912,-0.009864965,-0.04449156,0.0001444528,-1.088257,-2.622514,1.47475
0,3.188883,103,136,500,495,-0.01827657,0.01931546,-0.000721359,-1.496042,-3.026518,-1.741957,-0.0212713,-0.02035099,0.005929564,-1.087967,-2.621788,1.474553
0,3.199994,103,136,500,495,-0.01721366,0.01941747,-0.0006903999,-1.495854,-3.02674,-1.742011,-0.02786391,0.0007640496,0.01502704,-1.087802,-2.620772,1.474085
0,3.211105,103,136,500,495,-0.01629542,0.008878188,0.002152066,-1.495614,-3.026689,-1.741907,-0.02368761,0.007479131,0.02168551,-1.087819,-2.620213,1.473639
0,3.222216,106,126,500,495,-0.02204237,0.002121232,0.000445083,-1.495242,-3.026469,-1.741939,-0.0009063613,0.005596716,0.01834383,-1.088457,-2.620594,1.473486
0,3.233327,106,126,500,495,-0.01845039,-0.00117463,-0.002578781,-1.495155,-3.026339,-1.742015,0.01029887,-0.00199193,0.008384164,-1.088606,-2.620933,1.473499
0,3.244438,106,126,500,495,-0.01734442,0.01034906,-0.004063339,-1.494963,-3.026708,-1.742172,0.01599883,-0.02382688,-0.002164657,-1.088493,-2.622016,1.473785
0,3.255549,106,126,500,495,-0.008618874,0.0194563,-0.001755891,-1.495088,-3.02716,-1.742266,0.005522551,-0.03740688,-0.008663409,-1.087961,-2.622723,1.473994
0,3.26666,106,126,500,495,-0.004889595,0.02499207,-0.00035267,-1.495094,-3.027576,-1.742301,-0.007257363,-0.03445923,-0.004827175,-1.087438,-2.622743,1.473909
0,3.277771,105,137,500,499,-0.003929994,0.02507828,0.004064527,-1.495051,-3.027913,-1.742141,-0.01569552,-0.027936,0.006317176,-1.087063,-2.622332,1.473392
0,3.288882,105,137,500,499,-0.003768364,0.01185989,0.004023583,-1.495039,-3.027693,-1.742068,-0.01747628,-0.02092153,0.01092879,-1.086828,-2.622108,1.473105
0,3.299993,105,137,500,499,-0.004661387,0.0001063758,-0.002239709,-1.494982,-3.02734,-1.742195,-0.005666889,-0.01082331,0.003600948,-1.087298,-2.622225,1.473305
0,3.311104,105,137,500,499,-0.00586899,-0.009603507,-0.00360617,-1.494846,-3.026975,-1.742333,0.002780255,-0.006297423,0.0002251239,-1.087551,-2.622359,1.47342
0,3.322215,105,130,500,498,-0.003336827,-0.01325771,-0.005626024,-1.494894,-3.02672,-1.742411,0.003174569,0.0009676367,0.001864635,-1.087689,-2.622193,1.473446
0,3.333326,105,130,500,498,-0.003550714,-0.01198822,-0.00200714,-1.494805,-3.026626,-1.742295,-0.004750688,0.003472679,0.009252578,-1.087425,-2.62186,1.473149
0,3.344437,105,130,500,498,-0.0002282071,-0.002602209,0.001469429,-1.494881,-3.026858,-1.742226,-0.004220084,-0.0004791236,0.00931887,-1.08733,-2.621847,1.473008
0,3.355548,105,130,500,498,-0.002861447,0.001819156,0.00478158,-1.494744,-3.027022,-1.742114,-0.001700838,-0.006555495,0.003793024,-1.087193,-2.622185,1.473142
0,3.366659,105,130,500,498,-0.00357188,0.009016817,0.006599336,-1.494671,-3.027354,-1.742025,0.005788921,-0.01096871,-0.01094246,-1.087313,-2.62283,1.47369
0,3.37777,103,121,499,499,-0.005793323,0.009849782,0.006810424,-1.494529,-3.027481,-1.741918,0.01043937,-0.008424785,-0.01573801,-1.087625,-2.62327,1.474136
0,3.388881,103,121,499,499,-0.003569135,0.00901669,0.006602837,-1.494579,-3.027576,-1.741852,0.008602521,-0.003999539,-0.01137644,-1.087718,-2.623235,1.474168
0,3.399992,103,121,499,499,-0.0002902891,0.008545573,0.005385645,-1.494593,-3.0277,-1.741897,0.0005917294,0.006830724,-0.004151119,-1.087781,-2.622805,1.474085
0,3.411103,103,121,499,499,1.335423E-05,0.005465294,0.004604729,-1.49461,-3.027722,-1.741897,-0.001584171,0.006591144,-0.001179641,-1.087747,-2.622677,1.474017
0,3.422215,103,121,499,499,0.001681939,-0.000605521,0.003073318,-1.494698,-3.027552,-1.741877,-0.0008370768,0.007537507,-0.002087888,-1.087879,-2.62264,1.474049
0,3.433326,101,146,500,498,0.002601597,-0.009594978,-0.0002886624,-1.494839,-3.027288,-1.74184,0.0005236738,0.0151481,-0.004312955,-1.088222,-2.622495,1.474234
0,3.444437,101,146,500,498,0.003115756,-0.01395375,-0.004684228,-1.494913,-3.026988,-1.74194,0.002333775,0.02162924,-0.008591543,-1.088469,-2.622322,1.474518
0,3.455548,101,146,500,498,0.003865621,-0.01155091,-0.0007942582,-1.494938,-3.026964,-1.742012,0.006384742,0.02307481,-0.006279798,-1.088736,-2.622129,1.474539
0,3.466659,101,146,500,498,0.005240769,-0.01349248,-0.00567858,-1.49504,-3.026721,-1.742191,-0.006996902,0.02188787,-0.004710473,-1.088429,-2.621761,1.474546
0,3.47777,101,153,499,491,0.003972719,-0.01232007,-0.002090085,-1.495051,-3.026582,-1.742149,-0.009108627,0.01325766,-0.005421728,-1.088361,-2.62188,1.474669
0,3.488881,101,153,499,491,0.002703276,-0.01062136,-0.0005715483,-1.494996,-3.026507,-1.74219,0.002655033,-0.006146916,-0.005984766,-1.088378,-2.622585,1.474702
0,3.499992,101,153,499,491,0.007186421,-0.002422976,0.003702115,-1.495181,-3.026738,-1.74208,0.01436401,-0.009225801,-0.008335272,-1.088724,-2.623114,1.474815
0,3.511103,101,153,499,491,0.00634359,-0.003535543,-0.0009738917,-1.495354,-3.026601,-1.742184,0.01774914,0.001884701,-0.006501014,-1.089131,-2.622993,1.474868
0,3.522214,101,153,499,491,0.009217422,-0.0001524613,-0.0001176068,-1.49552,-3.026714,-1.742172,0.006233619,0.0262664,-0.003114108,-1.089344,-2.622014,1.474959
0,3.533325,91,150,500,496,0.004337686,-0.00475864,-0.001287614,-1.495605,-3.026551,-1.742242,-0.003998661,0.03429199,0.006814599,-1.089379,-2.621208,1.474715
0,3.544436,91,150,500,496,0.005916783,-0.009278553,-0.004621485,-1.495749,-3.026321,-1.742358,-0.006731979,0.02999358,0.01135412,-1.089382,-2.620806,1.474448
0,3.555547,91,150,500,496,0.003360723,-0.01548831,-0.007269729,-1.495844,-3.025998,-1.742235,-0.005619043,0.01919379,0.009791845,-1.089428,-2.620983,1.474429
0,3.566658,91,150,500,496,0.004077464,-0.02372702,-0.00494379,-1.495947,-3.025542,-1.742153,0.002837742,0.001713318,-0.001417188,-1.089441,-2.62168,1.474741
0,3.577769,85,170,498,494,0.005242819,-0.02413313,-0.007245566,-1.496,-3.025283,-1.742284,0.008771626,-0.00418076,-0.005161882,-1.08947,-2.622042,1.474883
0,3.58888,85,170,498,494,0.003672724,-0.01831011,-0.009080835,-1.495999,-3.025204,-1.742425,0.008843121,-0.007001704,-0.003035753,-1.089475,-2.622216,1.47483
0,3.599991,85,170,498,494,0.001884793,-0.01121419,-0.007292851,-1.495912,-3.025257,-1.742404,0.003601044,-0.002763526,-0.0004422679,-1.089523,-2.622017,1.474749
0,3.611102,85,170,498,494,0.0002032663,-0.005404536,-0.004733863,-1.49583,-3.025369,-1.742388,0.003365026,0.003258755,0.0006167181,-1.089631,-2.621837,1.474726
0,3.622213,85,170,498,494,-0.006866949,0.000676554,-0.001006979,-1.495786,-3.025602,-1.742234,0.002060189,0.00924197,0.006997019,-1.089729,-2.621529,1.474538
0,3.633324,78,141,499,499,-0.007586613,0.008911569,-0.003328847,-1.495614,-3.025803,-1.742435,0.004041042,0.004654243,0.008857283,-1.089843,-2.62163,1.474341
0,3.644435,78,141,499,499,-0.01022088,0.01333516,-1.735892E-05,-1.49539,-3.026064,-1.742386,0.002767052,-0.003332444,0.005775701,-1.089757,-2.621828,1.474327
0,3.655546,78,141,499,499,-0.01046454,0.005009424,-0.002112971,-1.495214,-3.025827,-1.742355,0.002133451,-0.004570948,0.00520865,-1.089819,-2.621861,1.474367
0,3.666657,78,141,499,499,-0.01586496,0.006068951,-0.004048308,-1.494898,-3.025879,-1.742467,0.0002986039,-0.01662392,0.003685767,-1.089513,-2.622309,1.474311
0,3.677768,78,136,500,497,-0.01333048,0.002413041,-0.006067406,-1.494879,-3.025773,-1.742557,0.001405842,-0.02192121,0.004076724,-1.089468,-2.62258,1.474311
0,3.688879,78,136,500,497,-0.01428839,0.001288783,-0.006353569,-1.494724,-3.025738,-1.742637,0.003490191,-0.02131201,0.00641619,-1.089461,-2.622755,1.474153
0,3.69999,78,136,500,497,-0.01641308,0.00161942,-0.008471744,-1.494389,-3.025675,-1.742781,-0.003998975,-0.01998249,0.007898038,-1.089261,-2.622696,1.473943
0,3.711101,78,136,500,497,-0.01439701,0.002322363,-0.006092551,-1.494283,-3.025725,-1.742791,-0.003471334,-0.01294701,0.01189536,-1.089239,-2.622534,1.473625
0,3.722212,78,136,500,497,-0.01691901,0.006235728,-0.005095739,-1.494097,-3.025834,-1.742762,0.0004092045,-0.01929818,0.01346819,-1.089182,-2.622865,1.473508
0,3.733323,79,136,499,494,-0.01444397,0.01346681,-0.00215393,-1.49406,-3.026239,-1.742732,0.0002473742,-0.02160668,0.01468624,-1.088968,-2.623121,1.473272
0,3.744434,79,136,499,494,-0.01833061,0.02037277,-0.0003976044,-1.493707,-3.02664,-1.74278,0.002023925,-0.02314471,0.01204289,-1.088903,-2.62336,1.473158
0,3.755545,79,136,499,494,-0.01734915,0.02229252,-0.003191418,-1.493788,-3.027033,-1.742708,0.006247574,-0.02483875,0.01499669,-1.088754,-2.623572,1.47287
0,3.766656,79,136,499,494,-0.01563062,0.02633952,-0.001056461,-1.49362,-3.02742,-1.742704,0.003417444,-0.03188463,0.01158455,-1.088463,-2.623991,1.472772
0,3.777767,78,153,499,499,-0.0194655,0.02289465,-0.006326194,-1.493178,-3.02743,-1.742984,-0.0008610319,-0.02730685,0.0103401,-1.088322,-2.623997,1.47259
0,3.788878,78,153,499,499,-0.01618607,0.02110818,-0.002378225,-1.493062,-3.027626,-1.742933,0.001896182,-0.02293161,0.009654107,-1.088371,-2.6241,1.472477
0,3.799989,78,153,499,499,-0.0162471,0.009948018,-0.001933482,-1.492809,-3.027408,-1.74301,-0.01030435,-0.02132876,0.01382454,-1.08791,-2.623813,1.472084
0,3.8111,78,153,499,499,-0.01528457,0.01133843,-0.002673796,-1.49265,-3.027549,-1.743089,-0.008868073,-0.01654296,0.01373552,-1.087884,-2.623686,1.471816
0,3.822211,78,153,499,499,-0.01750613,0.01138424,0.0006304418,-1.492402,-3.027688,-1.743084,-0.007468452,-0.01978582,0.01525275,-1.0877,-2.623796,1.471543
0,3.833322,80,139,499,493,-0.01896814,0.01434168,0.005789313,-1.492145,-3.027869,-1.742893,-0.00207617,-0.03269626,0.007446192,-1.087462,-2.624506,1.471588
0,3.844433,80,139,499,493,-0.01647689,0.02261695,0.004619795,-1.491985,-3.028309,-1.742937,0.0004100632,-0.04130335,0.005489341,-1.087216,-2.625102,1.471494
0,3.855544,80,139,499,493,-0.01918263,0.02780382,0.009253149,-1.491721,-3.028797,-1.742683,0.004183469,-0.04494989,-0.002748732,-1.087077,-2.625828,1.471693
0,3.866655,80,139,499,493,-0.01745124,0.03131706,0.01345603,-1.491542,-3.029267,-1.742495,-0.0007698461,-0.04969427,-0.006791972,-1.086631,-2.626431,1.471802
0,3.877766,80,139,499,493,-0.01647823,0.03191934,0.01580803,-1.491453,-3.029723,-1.742361,0.0001799446,-0.04633098,-0.001250934,-1.086435,-2.626723,1.471458
0,3.888877,80,134,498,498,-0.0167612,0.03500569,0.01660275,-1.491228,-3.030213,-1.742247,-0.0008466952,-0.04385632,0.0004748274,-1.086085,-2.626915,1.471342
0,3.899988,80,134,498,498,-0.01453676,0.03364049,0.0184571,-1.491037,-3.030513,-1.742061,-0.001230825,-0.04563118,0.000785959,-1.085812,-2.627427,1.471308
0,3.911099,80,134,498,498,-0.01356292,0.03450223,0.0197791,-1.490871,-3.030957,-1.741885,-0.001566738,-0.03684214,-0.004065704,-1.085719,-2.627739,1.471502
0,3.92221,80,134,498,498,-0.0109471,0.02981417,0.01748214,-1.490766,-3.031113,-1.741765,0.0003081504,-0.02768577,-0.00421185,-1.085768,-2.627847,1.471527
0,3.933321,82,128,499,497,-0.006898174,0.03145034,0.02120255,-1.490699,-3.031504,-1.741517,-0.0009087073,-0.02208608,-0.003104426,-1.085728,-2.627884,1.471505
0,3.944432,82,128,499,497,-0.008816995,0.02868393,0.0226871,-1.490515,-3.031794,-1.741285,-0.0002660379,-0.02632902,-0.00452704,-1.085554,-2.628276,1.471563
0,3.955544,82,128,499,497,-0.007636402,0.02828574,0.02038331,-1.490664,-3.032171,-1.741079,0.003954932,-0.03355814,-0.007407283,-1.085418,-2.628948,1.471636
0,3.966655,82,128,499,497,-0.005891182,0.03179856,0.02457549,-1.490582,-3.032701,-1.740755,0.007467542,-0.05270013,-0.01336829,-1.085047,-2.63015,1.471861
0,3.977766,82,128,499,497,-0.007235054,0.0347828,0.02534163,-1.490188,-3.0331,-1.74058,0.002907518,-0.05572984,-0.02156299,-1.084682,-2.63097,1.472279
0,3.988877,90,141,499,497,-0.0009596162,0.0361083,0.02677605,-1.490314,-3.033642,-1.740303,-0.00238128,-0.0461543,-0.02461468,-1.08443,-2.63132,1.472608
0,3.999988,90,141,499,497,0.001362326,0.03397638,0.02733226,-1.490218,-3.034022,-1.739889,-0.001664083,-0.03423526,-0.02153788,-1.084394,-2.631465,1.472772
0,4.011099,90,141,499,497,0.00165355,0.0303732,0.02860092,-1.490211,-3.034348,-1.739576,0.003526867,-0.01898661,-0.008791842,-1.08466,-2.631301,1.472441
0.2,4.02221,90,141,499,497,-0.00395241,0.0216007,0.02635598,-1.489905,-3.034351,-1.739388,0.01017094,-0.007436219,-0.00752451,-1.085028,-2.631267,1.472509
0.4,4.033321,97,128,500,500,-0.0008578319,0.02368909,0.02359258,-1.489864,-3.034656,-1.739286,0.01555686,-0.00940476,-0.01520577,-1.085216,-2.631865,1.472921
0.6,4.044433,97,128,500,500,-0.0003788257,0.01986312,0.01712133,-1.489862,-3.034778,-1.739273,0.002647658,-0.009267605,-0.02309886,-1.084897,-2.632084,1.473411
0.8,4.055544,97,128,500,500,0.000272098,0.0118741,0.01837967,-1.489871,-3.034672,-1.739037,-0.01306349,-0.00263004,-0.03019323,-1.084448,-2.63205,1.473994
1,4.066655,97,128,500,500,-0.002074478,0.001826541,0.0180139,-1.489834,-3.034508,-1.738817,-0.01117789,-0.01501235,-0.02912836,-1.08418,-2.632686,1.474278
1.2,4.077766,97,128,500,500,0.001381805,-0.001772504,0.02040232,-1.489916,-3.034471,-1.73851,-0.006341139,-0.01803608,-0.02586083,-1.084085,-2.633063,1.474476
1.4,4.088878,98,141,499,497,-0.001153605,-0.009238364,0.01850126,-1.489858,-3.034205,-1.738316,-0.001395049,-0.02135204,-0.0240649,-1.084027,-2.633535,1.474689
1.6,4.099989,98,141,499,497,0.000965707,-0.009837877,0.02165946,-1.489998,-3.034176,-1.73789,0.000270782,-0.006547504,-0.02844279,-1.084244,-2.63363,1.475252
1.8,4.1111,98,141,499,497,0.003083492,-0.0101736,0.02377843,-1.490097,-3.034149,-1.737556,-0.004806937,0.002540513,-0.02679133,-1.084151,-2.633489,1.475592
2,4.122211,98,141,499,497,0.006868865,-0.004407006,0.02414522,-1.490215,-3.034326,-1.737309,-0.009447793,0.007975421,-0.02360564,-1.084058,-2.633286,1.475816
2.2,4.133323,98,141,499,497,0.003168948,-0.01118967,0.02351628,-1.490126,-3.03412,-1.73713,-0.01148309,0.01001529,-0.02186193,-1.08388,-2.633163,1.476145
2.4,4.144434,99,123,499,495,0.005103974,-0.009465093,0.02615404,-1.490226,-3.034178,-1.736753,0.00185288,0.008680511,-0.02369087,-1.084229,-2.633456,1.476508
2.6,4.155545,99,123,499,495,0.006070074,-0.008078938,0.02539872,-1.490227,-3.034256,-1.736593,0.006558476,0.005896793,-0.02278566,-1.084367,-2.63376,1.476846
2.8,4.166656,99,123,499,495,0.009072832,-0.005746106,0.02599127,-1.490383,-3.034321,-1.736288,0.00408241,-0.004661141,-0.03085848,-1.084194,-2.63439,1.477457
3,4.177768,99,123,499,495,0.00829166,-0.009177825,0.0262249,-1.490606,-3.034078,-1.736017,0.007037625,-0.003326397,-0.02705131,-1.084341,-2.634595,1.477643
3.200001,4.188879,97,129,499,499,0.0101505,-0.004871069,0.0229145,-1.490749,-3.034188,-1.735867,0.004464879,-0.005428696,-0.02759054,-1.084231,-2.634884,1.477999
3.400001,4.19999,97,129,499,499,0.0131531,-0.002534502,0.02350094,-1.490931,-3.034355,-1.735625,3.649853E-05,-0.0005953722,-0.02736618,-1.084141,-2.634903,1.478355
3.600001,4.211102,97,129,499,499,0.01507846,0.01344381,0.02200152,-1.491121,-3.034919,-1.73551,-0.005348466,-0.004201279,-0.02550017,-1.083738,-2.635015,1.478553
3.800001,4.222213,97,129,499,499,0.01381577,0.02915428,0.02042571,-1.491185,-3.035635,-1.735453,-0.06390204,-0.002155431,0.01439237,-1.081887,-2.633257,1.47726
4,4.233324,97,129,499,499,0.0130921,0.0373967,0.02247016,-1.491216,-3.036291,-1.735255,-0.09874301,0.006279923,0.03791141,-1.080367,-2.631397,1.47628
4.2,4.244435,87,133,499,498,0.00180703,0.01806594,0.02531375,-1.490973,-3.036101,-1.734865,-0.1527199,0.04474664,0.0581535,-1.078411,-2.628014,1.475107
4.4,4.255547,87,133,499,498,-0.01411884,-0.0119697,0.03426893,-1.490386,-3.035231,-1.734102,-0.1843757,0.07708171,0.07139827,-1.076858,-2.62479,1.474176
4.6,4.266658,87,133,499,498,-0.04988346,-0.1089353,0.05842676,-1.489188,-3.03179,-1.732206,-0.1797429,0.1308505,0.08860733,-1.076607,-2.620541,1.472847
4.8,4.277769,87,133,499,498,-0.07230541,-0.1586099,0.07021757,-1.488003,-3.029002,-1.730764,-0.1511162,0.1579765,0.07003395,-1.076931,-2.618048,1.472825
5,4.28888,83,142,499,497,-0.1033803,-0.2148218,0.08919352,-1.486368,-3.025424,-1.728691,-0.142619,0.1649094,0.009025812,-1.076522,-2.616768,1.474683
5.199999,4.299992,83,142,499,497,-0.1400712,-0.2498991,0.1254723,-1.484165,-3.022318,-1.725946,-0.1563717,0.1880988,-0.03600195,-1.075906,-2.614545,1.4767
5.399999,4.311103,83,142,499,497,-0.1577944,-0.2795839,0.1467656,-1.482206,-3.018895,-1.723166,-0.1586254,0.2049558,-0.05351285,-1.075585,-2.611953,1.477934
5.599999,4.322214,83,142,499,497,-0.1516528,-0.3582548,0.1843856,-1.481687,-3.013633,-1.719418,-0.1930293,0.2023897,-0.04772688,-1.074108,-2.608915,1.47867
5.799999,4.333325,83,142,499,497,-0.1623789,-0.3916359,0.2031554,-1.480135,-3.009053,-1.715998,-0.223044,0.1705585,-0.06287389,-1.071776,-2.607219,1.479852
5.999999,4.344437,85,160,500,498,-0.1796055,-0.4365649,0.224769,-1.478255,-3.00369,-1.712097,-0.244946,0.1057844,-0.1316875,-1.068537,-2.607975,1.483428
6.199998,4.355548,85,160,500,498,-0.1946455,-0.4661745,0.2392428,-1.476372,-2.998576,-1.708142,-0.2571237,0.07265176,-0.1829897,-1.065822,-2.608566,1.487295
6.399998,4.366659,85,160,500,498,-0.2103013,-0.4959719,0.2558868,-1.474148,-2.992971,-1.703959,-0.2828158,0.05603057,-0.231698,-1.062571,-2.608768,1.491612
6.599998,4.37777,85,160,500,498,-0.2278402,-0.5212039,0.283804,-1.471977,-2.987269,-1.699193,-0.3024411,0.09248811,-0.2267868,-1.060068,-2.606697,1.494546
6.799998,4.388882,85,160,500,498,-0.235006,-0.524111,0.2915473,-1.469825,-2.982004,-1.695068,-0.3143809,0.1521229,-0.2095433,-1.058442,-2.603382,1.496932
6.999998,4.399993,90,129,500,497,-0.2525509,-0.517992,0.31326,-1.467175,-2.977072,-1.690452,-0.3186953,0.1902306,-0.1983555,-1.056759,-2.600127,1.499373
7.199997,4.411104,90,129,500,497,-0.2554969,-0.528101,0.3217729,-1.465126,-2.971665,-1.68598,-0.3203574,0.2320205,-0.192378,-1.055343,-2.596654,1.501871
7.399997,4.422215,90,129,500,497,-0.2642447,-0.5335739,0.3344851,-1.462711,-2.966223,-1.681313,-0.3148285,0.2517206,-0.1901395,-1.054087,-2.593459,1.504467
7.599997,4.433327,90,129,500,497,-0.2752147,-0.5324103,0.3419017,-1.46004,-2.960907,-1.676787,-0.3114616,0.253901,-0.1884388,-1.052471,-2.590734,1.507041
7.799997,4.444438,91,137,500,498,-0.2765853,-0.5260786,0.3573535,-1.457648,-2.955886,-1.671891,-0.3017805,0.248134,-0.1971594,-1.051036,-2.588513,1.50998
7.999997,4.455549,91,137,500,498,-0.2797469,-0.5095097,0.3648818,-1.45504,-2.951192,-1.66731,-0.2993848,0.2472536,-0.2059233,-1.049535,-2.586278,1.513004
8.199997,4.46666,91,137,500,498,-0.2772749,-0.4926721,0.3771116,-1.452822,-2.946709,-1.662445,-0.3088046,0.2452848,-0.2217775,-1.047615,-2.583967,1.516508
8.399997,4.477772,91,137,500,498,-0.2717367,-0.4843687,0.3886604,-1.450638,-2.942207,-1.657402,-0.3168993,0.2479255,-0.2251527,-1.045622,-2.581233,1.519647
8.599997,4.488883,91,137,500,498,-0.2742124,-0.4753368,0.395575,-1.448565,-2.938048,-1.653087,-0.3238514,0.2486727,-0.2210555,-1.043732,-2.578415,1.522506
8.799996,4.499994,128,157,490,498,-0.2718385,-0.4662856,0.4105017,-1.446276,-2.933765,-1.647673,-0.3190187,0.2503348,-0.2177105,-1.04233,-2.575873,1.525337
8.999996,4.511106,128,157,490,498,-0.2719741,-0.4620982,0.4177206,-1.443612,-2.92902,-1.64217,-0.2942829,0.2378863,-0.2159867,-1.041326,-2.574121,1.528316
9.199996,4.522217,128,157,490,498,-0.26657,-0.460933,0.427815,-1.441539,-2.924542,-1.636805,-0.273784,0.2246084,-0.2158834,-1.040253,-2.57256,1.531171
9.399996,4.533328,128,157,490,498,-0.2611165,-0.4578078,0.4394368,-1.439453,-2.92013,-1.631259,-0.2673352,0.2150687,-0.2092213,-1.038926,-2.570591,1.533798
9.599996,4.544439,142,126,497,497,-0.2540847,-0.4497061,0.4465591,-1.437452,-2.915929,-1.625851,-0.2625119,0.2129251,-0.2080839,-1.037702,-2.56863,1.536526
9.799995,4.555551,142,126,497,497,-0.2531933,-0.452792,0.4447997,-1.435378,-2.91134,-1.620741,-0.2592154,0.2046327,-0.2136362,-1.036412,-2.566912,1.539473
9.999995,4.566662,142,126,497,497,-0.2502378,-0.4564493,0.4386562,-1.433359,-2.906626,-1.615725,-0.2819901,0.1963104,-0.2233174,-1.034226,-2.565008,1.542725
10.2,4.577773,142,126,497,497,-0.2523671,-0.4589985,0.4205566,-1.431366,-2.901894,-1.611273,-0.3020087,0.1806915,-0.235095,-1.031704,-2.5634,1.546076
10.39999,4.588884,142,126,497,497,-0.2563818,-0.4574888,0.4107106,-1.429207,-2.897154,-1.606744,-0.3198424,0.1654714,-0.2420892,-1.028922,-2.561893,1.549503
10.59999,4.599996,115,121,498,498,-0.2519969,-0.4603197,0.3936189,-1.427279,-2.892207,-1.602768,-0.3128309,0.1576602,-0.2293062,-1.027135,-2.560189,1.552058
10.79999,4.611107,115,121,498,498,-0.2445677,-0.4462869,0.3853384,-1.425739,-2.887861,-1.59833,-0.3058662,0.1820892,-0.2042625,-1.025822,-2.557118,1.553952
10.99999,4.622218,115,121,498,498,-0.236531,-0.4375616,0.3802763,-1.424092,-2.883589,-1.594115,-0.3113334,0.2192666,-0.1720995,-1.024554,-2.552999,1.555253
11.19999,4.633329,115,121,498,498,-0.224852,-0.4193457,0.3737147,-1.42277,-2.879696,-1.589978,-0.3151797,0.2746142,-0.1435135,-1.023866,-2.548152,1.556482
11.39999,4.644441,105,136,498,497,-0.223233,-0.4041885,0.3727557,-1.421095,-2.875909,-1.58574,-0.3118808,0.2946627,-0.1287019,-1.02298,-2.543785,1.557718
11.59999,4.655552,105,136,498,497,-0.2273703,-0.392029,0.3742232,-1.419118,-2.872161,-1.581547,-0.2389326,0.3187834,-0.1115705,-1.024565,-2.540521,1.558734
11.79999,4.666663,105,136,498,497,-0.2296987,-0.3678532,0.382012,-1.417129,-2.868994,-1.577059,-0.1908089,0.3281571,-0.1003361,-1.025955,-2.537298,1.559694
11.99999,4.677774,105,136,498,497,-0.2282602,-0.3350489,0.3879678,-1.415264,-2.8663,-1.572431,-0.2277716,0.3131789,-0.0999255,-1.024424,-2.533632,1.561098
12.19999,4.688886,105,136,498,497,-0.2261764,-0.3145355,0.3874764,-1.413432,-2.863404,-1.568034,-0.268613,0.2792343,-0.1028721,-1.022109,-2.530339,1.56257
12.39999,4.699997,113,165,499,498,-0.2175196,-0.3020104,0.3814878,-1.411781,-2.860741,-1.563882,-0.2840169,0.250848,-0.111288,-1.020171,-2.52763,1.564293
12.59999,4.711108,113,165,499,498,-0.2027038,-0.2998995,0.3632526,-1.410532,-2.857617,-1.560196,-0.2843729,0.2204429,-0.1270468,-1.018422,-2.525696,1.566388
12.79999,4.722219,113,165,499,498,-0.1974227,-0.3026601,0.3580881,-1.409121,-2.854435,-1.556363,-0.2795353,0.2064037,-0.1409625,-1.017001,-2.523635,1.568596
12.99999,4.733331,113,165,499,498,-0.189816,-0.3105969,0.3468387,-1.407759,-2.850911,-1.552714,-0.2706645,0.1966151,-0.138846,-1.015685,-2.521329,1.570223
13.19999,4.744442,113,165,499,498,-0.1869385,-0.3153389,0.332684,-1.406496,-2.847383,-1.549438,-0.2882369,0.194403,-0.1412683,-1.013721,-2.518617,1.572148
13.39999,4.755553,118,125,499,499,-0.1886065,-0.3147174,0.3245402,-1.404981,-2.844036,-1.546072,-0.3000028,0.1971918,-0.135421,-1.011886,-2.515517,1.573724
13.59999,4.766665,118,125,499,499,-0.1906547,-0.3101673,0.3288825,-1.403516,-2.840793,-1.542336,-0.3037656,0.2139516,-0.1111025,-1.010451,-2.511633,1.574433
13.79999,4.777776,118,125,499,499,-0.1909328,-0.3023659,0.3303736,-1.401927,-2.837698,-1.538774,-0.2963757,0.2153984,-0.08853537,-1.009122,-2.508188,1.574773
13.99999,4.788887,118,125,499,499,-0.1804236,-0.2799881,0.3384975,-1.400691,-2.835242,-1.535043,-0.2625257,0.218112,-0.05700589,-1.008788,-2.50485,1.574411
14.19999,4.799998,119,143,494,498,-0.1641926,-0.2472026,0.3427573,-1.399668,-2.833642,-1.531173,-0.2263488,0.2147793,-0.04983803,-1.00872,-2.502345,1.57482
14.39999,4.81111,119,143,494,498,-0.1440843,-0.2034944,0.339729,-1.398763,-2.832469,-1.527551,-0.2378714,0.1772947,-0.07787794,-1.006663,-2.500985,1.576756
14.59999,4.822221,119,143,494,498,-0.1297269,-0.1678729,0.3407184,-1.397926,-2.8318,-1.523747,-0.2500753,0.1383167,-0.1315922,-1.004365,-2.500717,1.580178
14.79999,4.833332,119,143,494,498,-0.1092096,-0.111397,0.3496509,-1.397338,-2.832158,-1.519533,-0.2593893,0.1247483,-0.1690764,-1.002343,-2.499942,1.583422
14.99999,4.844443,119,143,494,498,-0.09491985,-0.07944815,0.3540318,-1.39675,-2.832508,-1.515425,-0.2656637,0.1345887,-0.166482,-1.0007,-2.497882,1.585532
15.19999,4.855555,123,147,498,495,-0.08747536,-0.04981608,0.364193,-1.396037,-2.832887,-1.510915,-0.2555194,0.1556997,-0.1274068,-0.9998087,-2.494714,1.58575
15.39999,4.866666,123,147,498,495,-0.08064893,-0.03295618,0.3716214,-1.395333,-2.833116,-1.506493,-0.2289025,0.1837094,-0.07682299,-0.9997794,-2.491011,1.585099
15.59999,4.877777,123,147,498,495,-0.08089525,-0.01855253,0.3881065,-1.394443,-2.833589,-1.501698,-0.210944,0.1872823,-0.05981711,-0.9993075,-2.488375,1.585396
15.79999,4.888888,123,147,498,495,-0.08057389,-0.002227537,0.4100297,-1.3936,-2.834275,-1.49633,-0.1831757,0.1661934,-0.06175773,-0.9988319,-2.487099,1.586355
15.99999,4.9,113,139,504,496,-0.08128768,0.02210972,0.4218486,-1.392591,-2.835426,-1.491198,-0.1699759,0.1396856,-0.08148122,-0.998009,-2.486413,1.588016
16.19999,4.911111,113,139,504,496,-0.0750162,0.04675177,0.4219422,-1.391682,-2.836634,-1.486656,-0.1353372,0.1122874,-0.09926361,-0.9978236,-2.486538,1.589823
16.39999,4.922222,113,139,504,496,-0.06929386,0.0643032,0.4179837,-1.390924,-2.838051,-1.481963,-0.1385879,0.09716772,-0.1146814,-0.9968707,-2.48615,1.591785
16.59999,4.933333,113,139,504,496,-0.06359529,0.07313187,0.4120722,-1.390347,-2.839227,-1.477336,-0.1641705,0.08230461,-0.1343834,-0.9948856,-2.485224,1.594073
16.79999,4.944445,113,139,504,496,-0.06532583,0.07896063,0.4120698,-1.389431,-2.840297,-1.47254,-0.1971461,0.0709981,-0.1292997,-0.9926933,-2.483978,1.595647
16.99999,4.955556,163,162,496,498,-0.07963011,0.07609086,0.4280558,-1.388126,-2.841208,-1.467244,-0.2003856,0.06376921,-0.1190263,-0.9911731,-2.482728,1.596913
17.19999,4.966667,163,162,496,498,-0.09306103,0.06554919,0.4434977,-1.386672,-2.841692,-1.461739,-0.1939064,0.06157783,-0.0983711,-0.9898581,-2.481418,1.597515
17.39999,4.977778,163,162,496,498,-0.1246514,0.04740545,0.4558124,-1.384575,-2.841727,-1.456333,-0.1907808,0.05248868,-0.1102428,-0.9885212,-2.480876,1.599275
17.59999,4.98889,163,162,496,498,-0.1522925,0.02486676,0.4520373,-1.382405,-2.841202,-1.451481,-0.1930729,0.04888338,-0.1386564,-0.9869664,-2.480707,1.602007
17.8,5.000001,127,120,500,499,-0.1724735,-0.001474455,0.437668,-1.38026,-2.840278,-1.447023,-0.2052759,0.05320592,-0.1831692,-0.9852343,-2.480658,1.605874
18,5.011112,127,120,500,499,-0.1890682,-0.01165107,0.4352048,-1.378046,-2.839675,-1.442276,-0.218812,0.05439319,-0.1859917,-0.9831608,-2.479654,1.60825
18.2,5.022223,127,120,500,499,-0.1942086,-0.006727837,0.44155,-1.37605,-2.839467,-1.43719,-0.2254114,0.05564134,-0.1599517,-0.9813477,-2.478301,1.60954
18.4,5.033335,127,120,500,499,-0.1967425,0.005534768,0.4430155,-1.373886,-2.839669,-1.432226,-0.223369,0.04665306,-0.1447684,-0.9794931,-2.477414,1.610829
18.6,5.044446,127,120,500,499,-0.1938418,0.02707107,0.4536221,-1.371845,-2.840391,-1.426708,-0.2223355,0.0281384,-0.136475,-0.9774281,-2.477014,1.612371
18.8,5.055557,140,128,506,498,-0.1852386,0.05740709,0.4615123,-1.369971,-2.841687,-1.420707,-0.2336465,-0.01182596,-0.1529264,-0.9744171,-2.477835,1.615025
19,5.066669,140,128,506,498,-0.1720056,0.08357618,0.4691539,-1.36824,-2.843124,-1.41517,-0.2397946,-0.03151288,-0.1648381,-0.9716256,-2.478343,1.617647
19.2,5.07778,140,128,506,498,-0.1625053,0.1137813,0.4734142,-1.36647,-2.845091,-1.409352,-0.2226569,-0.03903332,-0.1621045,-0.9697203,-2.478717,1.61978
19.4,5.088891,140,128,506,498,-0.1548788,0.1288084,0.4725846,-1.364768,-2.846626,-1.403845,-0.210345,-0.04529901,-0.1594414,-0.9677624,-2.479217,1.621866
19.6,5.100002,140,128,506,498,-0.1522901,0.1422233,0.4735431,-1.362893,-2.848275,-1.398308,-0.2012866,-0.05070371,-0.1588957,-0.9657847,-2.479689,1.623938
19.8,5.111114,147,151,503,500,-0.1547924,0.1455038,0.4738516,-1.361176,-2.84972,-1.392263,-0.1953665,-0.05368125,-0.1584471,-0.9638252,-2.480269,1.626113
20,5.122225,147,151,503,500,-0.1643546,0.1397515,0.4715923,-1.358999,-2.850684,-1.386826,-0.2183719,-0.04941005,-0.1793631,-0.9610832,-2.480512,1.629165
20.2,5.133336,147,151,503,500,-0.1743317,0.1331441,0.4661443,-1.356754,-2.851636,-1.381499,-0.2359082,-0.03818393,-0.1775874,-0.958591,-2.480046,1.631518
20.40001,5.144447,147,151,503,500,-0.1794665,0.1139911,0.4617603,-1.354717,-2.851971,-1.376338,-0.2504455,-0.01553863,-0.1751364,-0.9563113,-2.479026,1.633804
20.60001,5.155559,160,128,503,498,-0.1774198,0.109148,0.4559001,-1.352847,-2.852727,-1.371232,-0.2459837,-0.004554898,-0.1571925,-0.9545035,-2.478055,1.63529
20.80001,5.16667,160,128,503,498,-0.1799182,0.1015267,0.4445511,-1.350882,-2.853128,-1.366384,-0.2443244,0.002967596,-0.1435936,-0.9525344,-2.477067,1.63675
21.00001,5.177781,160,128,503,498,-0.1728233,0.1023993,0.4337536,-1.349177,-2.854005,-1.361597,-0.2462158,-0.005923077,-0.1453572,-0.950153,-2.476901,1.638872
21.20001,5.188892,160,128,503,498,-0.1649555,0.1026804,0.4272543,-1.34759,-2.854723,-1.356783,-0.2534692,-0.01151502,-0.1445175,-0.9476385,-2.4764,1.64084
21.40001,5.200004,160,128,503,498,-0.1624665,0.102983,0.4120328,-1.345888,-2.855419,-1.35227,-0.2652588,-0.02685185,-0.1464135,-0.9446541,-2.476298,1.642952
21.60001,5.211115,238,145,493,497,-0.1589251,0.1036357,0.4043221,-1.34418,-2.856183,-1.347848,-0.2609769,-0.02645762,-0.1536774,-0.942342,-2.476142,1.645326
21.80001,5.222226,238,145,493,497,-0.1534597,0.1080928,0.3956321,-1.342651,-2.857047,-1.343395,-0.2576983,-0.0234862,-0.1731721,-0.9401107,-2.476319,1.64833
22.00001,5.233337,238,145,493,497,-0.151817,0.116622,0.3867357,-1.340909,-2.858207,-1.339016,-0.2572972,-0.001411721,-0.1544887,-0.9381027,-2.474874,1.649917
22.20001,5.244449,238,145,493,497,-0.1448261,0.1189241,0.3781042,-1.33944,-2.859147,-1.334711,-0.2560573,0.006559744,-0.1316328,-0.9360649,-2.473535,1.650987
22.40001,5.25556,260,136,488,501,-0.1373497,0.1243601,0.3694732,-1.338016,-2.860182,-1.330577,-0.257655,0.01292296,-0.1095666,-0.9339067,-2.472023,1.651735
22.60001,5.266671,260,136,488,501,-0.1186889,0.1314095,0.3687583,-1.337104,-2.861495,-1.326091,-0.2525516,0.02447616,-0.09680275,-0.9321543,-2.470406,1.652586
22.80001,5.277782,260,136,488,501,-0.09884441,0.1376313,0.3638389,-1.336212,-2.862894,-1.321776,-0.2413773,0.03184026,-0.1066191,-0.9308659,-2.469405,1.654306
23.00002,5.288894,260,136,488,501,-0.08437166,0.1478301,0.3648851,-1.335486,-2.864644,-1.317171,-0.2220006,0.02460289,-0.1245597,-0.9294475,-2.46944,1.656596
23.20002,5.300005,260,136,488,501,-0.07612711,0.155171,0.3666905,-1.334766,-2.866218,-1.31261,-0.210129,0.01678009,-0.1255985,-0.9280701,-2.469037,1.658379
23.40002,5.311116,201,114,496,498,-0.07071772,0.1601475,0.3577699,-1.333893,-2.867844,-1.308383,-0.1855376,-0.005298436,-0.1225814,-0.9266783,-2.469414,1.65997
23.60002,5.322227,201,114,496,498,-0.06339934,0.1605611,0.3564865,-1.333275,-2.869361,-1.303982,-0.1576278,-0.02442992,-0.1196437,-0.925465,-2.470268,1.66159
23.80002,5.333339,201,114,496,498,-0.06030184,0.1554401,0.3392895,-1.332521,-2.870695,-1.300267,-0.1445731,-0.03159609,-0.1260168,-0.9241456,-2.47093,1.663409
24.00002,5.34445,201,114,496,498,-0.05244619,0.1524506,0.3233494,-1.33196,-2.87208,-1.296613,-0.140114,-0.03243338,-0.1407875,-0.9228407,-2.471708,1.665899
24.20002,5.355561,186,108,498,499,-0.04683238,0.1556731,0.3187603,-1.331462,-2.87375,-1.292794,-0.1431757,-0.02459095,-0.1417918,-0.9217153,-2.471747,1.667909
24.40002,5.366673,186,108,498,499,-0.03864557,0.1550359,0.3165831,-1.330992,-2.875249,-1.288815,-0.1378022,-0.003616415,-0.1314882,-0.9209515,-2.471274,1.669351
24.60002,5.377784,186,108,498,499,-0.02866858,0.1623126,0.3172238,-1.33088,-2.877075,-1.284173,-0.1380505,0.01900397,-0.1129179,-0.9203554,-2.4701,1.670164
24.80002,5.388895,186,108,498,499,-0.02196857,0.1612583,0.3160175,-1.330663,-2.878601,-1.280127,-0.145071,0.02655676,-0.1035291,-0.9192923,-2.469201,1.671238
25.00002,5.400006,186,108,498,499,-0.01678663,0.1606489,0.3072902,-1.330406,-2.880118,-1.276473,-0.1665258,0.01660025,-0.09075967,-0.9172965,-2.46824,1.67215
25.20002,5.411118,218,116,492,498,-0.01959181,0.1582467,0.2940135,-1.330053,-2.881567,-1.272951,-0.203929,-0.01915029,-0.09670576,-0.9143207,-2.468066,1.673841
25.40002,5.422229,218,116,492,498,-0.0222325,0.1570689,0.2871057,-1.329612,-2.88298,-1.269502,-0.2188607,-0.03254659,-0.1211522,-0.9117699,-2.468292,1.676409
25.60003,5.43334,218,116,492,498,-0.02449068,0.1570373,0.2833454,-1.329147,-2.88447,-1.265935,-0.2171285,-0.02888959,-0.1261465,-0.9100463,-2.468147,1.678392
25.80003,5.444451,218,116,492,498,-0.02876943,0.1520998,0.283037,-1.328581,-2.885643,-1.262338,-0.1952004,-0.0004213154,-0.09074257,-0.9092053,-2.466652,1.67848
26.00003,5.455563,218,116,492,498,-0.02610436,0.1531243,0.2858757,-1.328213,-2.887031,-1.25869,-0.181509,0.01931794,-0.07353951,-0.9084,-2.465277,1.678886
26.20003,5.466674,185,100,503,499,-0.020704,0.1525638,0.2889581,-1.327963,-2.888423,-1.254904,-0.1809717,0.02945796,-0.06496778,-0.9072601,-2.463846,1.679413
26.40003,5.477785,185,100,503,499,-0.01996323,0.1585543,0.2912796,-1.327583,-2.890039,-1.251127,-0.1860097,0.02639528,-0.06889276,-0.9055728,-2.462945,1.680604
26.60003,5.488896,185,100,503,499,-0.02011016,0.1550817,0.2943216,-1.32715,-2.891364,-1.247388,-0.1792163,0.00920108,-0.0798711,-0.9039472,-2.462853,1.682043
26.80003,5.500008,185,100,503,499,-0.02308017,0.1478881,0.2900874,-1.326789,-2.892388,-1.243886,-0.1674783,-0.01157197,-0.0935763,-0.9024297,-2.463412,1.683893
27.00003,5.511119,188,115,497,498,-0.02750036,0.1430077,0.2888235,-1.326275,-2.893632,-1.240314,-0.1634991,-0.02890919,-0.1134682,-0.900753,-2.464128,1.68617
27.20003,5.52223,188,115,497,498,-0.02856115,0.1399373,0.2897389,-1.325915,-2.894675,-1.236703,-0.1640614,-0.03670902,-0.1254447,-0.8990698,-2.464703,1.688442
27.40003,5.533341,188,115,497,498,-0.03886934,0.1298025,0.28767,-1.325209,-2.895535,-1.233309,-0.15726,-0.03803131,-0.1289875,-0.897725,-2.464982,1.69028
27.60003,5.544453,188,115,497,498,-0.04368384,0.1224808,0.2856806,-1.324584,-2.896297,-1.229902,-0.1501678,-0.0347906,-0.1216514,-0.896486,-2.465135,1.691811
27.80003,5.555564,188,115,497,498,-0.04530153,0.117317,0.2890348,-1.324053,-2.896982,-1.226297,-0.1546637,-0.03508641,-0.116806,-0.8947443,-2.465137,1.693466
28.00003,5.566675,187,95,500,499,-0.04898012,0.1108675,0.2913723,-1.323529,-2.89743,-1.222735,-0.1563952,-0.02589384,-0.107651,-0.8933957,-2.46471,1.694683
28.20004,5.577786,187,95,500,499,-0.04691413,0.1097471,0.2956362,-1.3231,-2.898189,-1.219134,-0.1578112,-0.01266846,-0.1044762,-0.8922165,-2.464244,1.696134
28.40004,5.588898,187,95,500,499,-0.04434237,0.1144686,0.2960717,-1.322661,-2.89907,-1.215443,-0.1633235,0.001568943,-0.1027279,-0.8910516,-2.463375,1.697439
28.60004,5.600009,187,95,500,499,-0.0452024,0.1166131,0.2997966,-1.322144,-2.899971,-1.211739,-0.1809215,-0.002742857,-0.1112481,-0.8891667,-2.46296,1.699342
28.80004,5.61112,247,96,502,499,-0.04727313,0.1298658,0.3010496,-1.321557,-2.901345,-1.20787,-0.1887012,-0.01541682,-0.1218862,-0.8873158,-2.4632,1.701605
29.00004,5.622231,247,96,502,499,-0.05168617,0.1315607,0.3002889,-1.320783,-2.902246,-1.204114,-0.2038952,-0.02520778,-0.1261745,-0.8850329,-2.463074,1.703701
29.20004,5.633343,247,96,502,499,-0.05940366,0.1326734,0.310123,-1.319879,-2.903125,-1.200058,-0.2080867,-0.0304794,-0.1197051,-0.8830946,-2.462701,1.705214
29.40004,5.644454,247,96,502,499,-0.06149802,0.1284555,0.3177402,-1.319088,-2.903757,-1.195945,-0.2160043,-0.01879892,-0.1139082,-0.8812485,-2.461725,1.706599
29.60004,5.655565,247,96,502,499,-0.06309175,0.1221004,0.3203276,-1.318466,-2.904381,-1.192068,-0.2155988,-0.01682915,-0.1140971,-0.879607,-2.461448,1.708238
29.80004,5.666677,204,83,513,497,-0.07287237,0.1170476,0.3298239,-1.317551,-2.904717,-1.187874,-0.2086786,-0.01831104,-0.119115,-0.8780016,-2.461341,1.710175
30.00004,5.677788,204,83,513,497,-0.08095965,0.1064457,0.3359267,-1.316594,-2.904774,-1.183867,-0.1860941,-0.04674578,-0.1351281,-0.8762119,-2.462937,1.712856
30.20004,5.688899,204,83,513,497,-0.08259532,0.1083595,0.3407148,-1.315995,-2.904933,-1.179855,-0.1793403,-0.0670087,-0.1420587,-0.8742433,-2.463996,1.715224
30.40004,5.70001,204,83,513,497,-0.08260119,0.1092805,0.3468146,-1.315342,-2.905117,-1.175684,-0.1763341,-0.0911243,-0.1551026,-0.8719648,-2.465732,1.71822
30.60004,5.711122,204,83,513,497,-0.08346638,0.1172103,0.3485834,-1.314528,-2.90586,-1.171299,-0.1854823,-0.100733,-0.1618403,-0.869643,-2.466856,1.721082
30.80005,5.722233,261,111,503,497,-0.08613524,0.1212652,0.3518664,-1.313399,-2.906462,-1.166853,-0.2024279,-0.0900607,-0.1632453,-0.8673133,-2.467003,1.723623
31.00005,5.733344,261,111,503,497,-0.0885683,0.1239079,0.3553511,-1.312405,-2.907063,-1.162454,-0.2075759,-0.07430828,-0.160787,-0.8654496,-2.466994,1.725922
31.20005,5.744455,261,111,503,497,-0.09255049,0.1256629,0.3631818,-1.311512,-2.907327,-1.157922,-0.2065385,-0.05998924,-0.1596335,-0.8637649,-2.467023,1.728259
31.40005,5.755567,261,111,503,497,-0.09128997,0.1306534,0.36325,-1.310645,-2.908103,-1.15347,-0.1933334,-0.06257229,-0.164525,-0.8621968,-2.468085,1.730918
31.60005,5.766678,235,92,497,498,-0.07801861,0.1383275,0.3614349,-1.310281,-2.908928,-1.149032,-0.1795296,-0.05947238,-0.1570564,-0.860706,-2.468629,1.733006
31.80005,5.777789,235,92,497,498,-0.06014237,0.1485679,0.3539995,-1.310127,-2.910163,-1.144459,-0.1823161,-0.07009447,-0.1482004,-0.858602,-2.469194,1.735063
32.00005,5.7889,235,92,497,498,-0.05397454,0.1531373,0.3500023,-1.309531,-2.911118,-1.140152,-0.1959597,-0.08421283,-0.1479006,-0.8560284,-2.469806,1.737414
32.20005,5.800012,235,92,497,498,-0.05168054,0.1572988,0.3501195,-1.309012,-2.912041,-1.13572,-0.2265638,-0.1051276,-0.154152,-0.8526089,-2.470478,1.740242
32.40005,5.811123,235,92,497,498,-0.05124119,0.1504287,0.3499574,-1.308583,-2.912641,-1.131386,-0.2406951,-0.1105795,-0.1559024,-0.8499334,-2.471084,1.742931
32.60005,5.822234,254,90,494,496,-0.05363366,0.1473642,0.3511344,-1.307869,-2.91325,-1.126961,-0.2480263,-0.09771204,-0.1469639,-0.8473971,-2.47086,1.744977
32.80005,5.833345,254,90,494,496,-0.05217779,0.1461922,0.3478728,-1.307505,-2.914015,-1.122549,-0.2409626,-0.08183381,-0.142031,-0.8454471,-2.470613,1.747006
33.00005,5.844457,254,90,494,496,-0.05626553,0.1444769,0.3487242,-1.306798,-2.914711,-1.118205,-0.2320567,-0.05344017,-0.1355016,-0.8440026,-2.4699,1.748732
33.20005,5.855568,254,90,494,496,-0.06195569,0.1504967,0.3533624,-1.306057,-2.915476,-1.11359,-0.2321937,-0.04117687,-0.1270944,-0.8421687,-2.469231,1.750432
33.40005,5.866679,260,83,503,499,-0.06422895,0.1456354,0.3528065,-1.305403,-2.915906,-1.109301,-0.2369128,-0.04486579,-0.1255289,-0.8400356,-2.468947,1.752403
33.60006,5.87779,260,83,503,499,-0.0720762,0.1404926,0.3563316,-1.304531,-2.916176,-1.104948,-0.2360851,-0.05200848,-0.1297221,-0.8378049,-2.468995,1.754603
33.80006,5.888902,260,83,503,499,-0.07336712,0.1350615,0.3495069,-1.303799,-2.916667,-1.100923,-0.2347349,-0.05951776,-0.1330358,-0.835529,-2.469162,1.756804
34.00006,5.900013,260,83,503,499,-0.07372603,0.1350589,0.345975,-1.303061,-2.917152,-1.096736,-0.233732,-0.0725811,-0.1449067,-0.8331066,-2.469874,1.759635
34.20006,5.911124,260,83,503,499,-0.07075989,0.1387271,0.3473173,-1.30251,-2.917788,-1.092387,-0.2233219,-0.08205506,-0.1553881,-0.8311257,-2.470602,1.762382
34.40006,5.922235,273,91,495,497,-0.0677819,0.1423935,0.3486401,-1.301951,-2.918385,-1.087981,-0.2199458,-0.0869198,-0.1573528,-0.828903,-2.471357,1.76508
34.60006,5.933347,273,91,495,497,-0.06562978,0.148185,0.3494043,-1.301364,-2.919119,-1.083617,-0.2241034,-0.09832141,-0.1654798,-0.8262228,-2.472197,1.768113
34.80006,5.944458,273,91,495,497,-0.06086901,0.1484818,0.3493963,-1.300818,-2.919725,-1.079243,-0.2322406,-0.09799409,-0.1625641,-0.8237029,-2.472566,1.770725
35.00006,5.955569,273,91,495,497,-0.05838844,0.1520612,0.3473625,-1.30034,-2.920478,-1.074902,-0.2319412,-0.08644815,-0.1547151,-0.8216486,-2.472542,1.772904
35.20006,5.966681,275,91,494,498,-0.05489638,0.1541179,0.3424531,-1.299927,-2.921227,-1.070722,-0.225422,-0.07802643,-0.1388118,-0.8197061,-2.472303,1.774493
35.40006,5.977792,275,91,494,498,-0.04866737,0.1614547,0.3397164,-1.299608,-2.922235,-1.066372,-0.2290122,-0.07274978,-0.1274813,-0.8175595,-2.471772,1.776031
35.60006,5.988903,275,91,494,498,-0.04752287,0.1672257,0.3347686,-1.299083,-2.923129,-1.062079,-0.2299133,-0.07284409,-0.1289582,-0.8152565,-2.47192,1.778283
35.80006,6.000014,275,91,494,498,-0.03961411,0.1701382,0.3331507,-1.298924,-2.924168,-1.05772,-0.2134311,-0.06858666,-0.1298088,-0.8136394,-2.472297,1.780459
36.00006,6.011126,275,91,494,498,-0.03825477,0.1781457,0.325364,-1.298478,-2.925272,-1.053635,-0.2103936,-0.07705429,-0.1344646,-0.8115669,-2.472946,1.783027
36.20007,6.022237,232,94,500,498,-0.04154685,0.1722202,0.3241126,-1.297945,-2.925918,-1.049521,-0.220755,-0.09160355,-0.1413973,-0.8089607,-2.473645,1.78577
36.40007,6.033348,232,94,500,498,-0.04425693,0.174921,0.3228698,-1.297394,-2.926847,-1.045282,-0.2345372,-0.09708987,-0.1490363,-0.8062411,-2.474148,1.788648
36.60007,6.044459,232,94,500,498,-0.04888391,0.1724986,0.3173368,-1.296791,-2.927669,-1.041313,-0.2369797,-0.09465227,-0.1471728,-0.8038794,-2.47443,1.791122
36.80007,6.055571,232,94,500,498,-0.05198854,0.1682927,0.311311,-1.296179,-2.928374,-1.037537,-0.2350465,-0.09391269,-0.1407626,-0.8014432,-2.474659,1.793327
37.00007,6.066682,232,94,500,498,-0.05911437,0.1688299,0.3081299,-1.295452,-2.929112,-1.033642,-0.2417291,-0.09064992,-0.1294602,-0.7989547,-2.474373,1.795153
37.20007,6.077793,276,92,491,499,-0.05966833,0.1710759,0.3082663,-1.294825,-2.929927,-1.029563,-0.2371053,-0.08111207,-0.1199435,-0.7967816,-2.474072,1.796823
37.40007,6.088904,276,92,491,499,-0.06261712,0.1714655,0.3098461,-1.294069,-2.930665,-1.025376,-0.2345669,-0.071796,-0.1198168,-0.7947592,-2.47383,1.798821
37.60007,6.100016,276,92,491,499,-0.06187347,0.1728767,0.3125202,-1.293415,-2.9313,-1.021219,-0.2323556,-0.06865707,-0.1167143,-0.7927181,-2.473653,1.800678
37.80007,6.111127,276,92,491,499,-0.05822927,0.1793386,0.3083891,-1.292899,-2.932367,-1.017084,-0.2328908,-0.06761096,-0.1166994,-0.7906569,-2.47352,1.802526
38.00007,6.122238,297,92,476,498,-0.05432594,0.1847807,0.3012039,-1.292309,-2.933486,-1.013097,-0.2349473,-0.07581945,-0.1127198,-0.7882408,-2.47352,1.80445
38.20007,6.133349,297,92,476,498,-0.04741588,0.1922184,0.2958155,-1.291925,-2.934757,-1.008991,-0.2265431,-0.08747593,-0.1126661,-0.7860549,-2.474101,1.806604
38.40007,6.144461,297,92,476,498,-0.03750825,0.2051196,0.2933809,-1.291624,-2.936318,-1.004707,-0.2110334,-0.09753755,-0.1151504,-0.7839872,-2.475076,1.808889
38.60007,6.155572,297,92,476,498,-0.02227643,0.2153353,0.2909415,-1.291562,-2.937967,-1.000486,-0.1956221,-0.1036897,-0.1227385,-0.7823771,-2.476326,1.811458
38.80008,6.166683,297,92,476,498,-0.01176634,0.2177071,0.2882729,-1.291524,-2.939395,-0.9964079,-0.2019909,-0.1038704,-0.1247753,-0.7801613,-2.476841,1.813852
39.00008,6.177794,261,90,501,498,-0.006100833,0.2217973,0.2902394,-1.291492,-2.940975,-0.9921569,-0.2147143,-0.1151097,-0.121596,-0.777235,-2.477188,1.816199
39.20008,6.188906,261,90,501,498,0.002366662,0.2280299,0.2872435,-1.291458,-2.942574,-0.9879934,-0.2333357,-0.1333866,-0.1052172,-0.7739322,-2.477361,1.817831
39.40008,6.200017,261,90,501,498,0.002767146,0.2348889,0.282264,-1.291267,-2.944301,-0.9838282,-0.2360337,-0.1395231,-0.09698442,-0.7710155,-2.477722,1.819652
39.60008,6.211128,261,90,501,498,0.006798148,0.2415847,0.2797569,-1.291291,-2.946148,-0.9794984,-0.2417983,-0.1352329,-0.1000391,-0.7683081,-2.477849,1.821757
39.80008,6.222239,282,100,498,497,0.003737569,0.2512861,0.2824038,-1.290982,-2.948013,-0.9749263,-0.2482333,-0.1212813,-0.09498471,-0.7657504,-2.477459,1.823464
40.00008,6.233351,282,100,498,497,-0.005926371,0.2524614,0.2862427,-1.290576,-2.949613,-0.9703707,-0.2434652,-0.1054537,-0.08604999,-0.7637163,-2.476991,1.824829
40.20008,6.244462,282,100,498,497,-0.01894242,0.2471105,0.2887246,-1.289943,-2.950963,-0.9659887,-0.2276176,-0.08661942,-0.07946429,-0.7620779,-2.4764,1.825942
40.40008,6.255573,282,100,498,497,-0.02719143,0.2319679,0.2893886,-1.289464,-2.951891,-0.9618587,-0.2126675,-0.09208904,-0.08958102,-0.760128,-2.47721,1.828192
40.60008,6.266685,282,100,498,497,-0.02834743,0.2314097,0.2810968,-1.289039,-2.953221,-0.9578948,-0.2040725,-0.1177042,-0.1043475,-0.7576187,-2.478802,1.831043
40.80008,6.277796,325,92,501,497,-0.02033442,0.2359742,0.2761805,-1.288894,-2.95487,-0.9536993,-0.204615,-0.1366573,-0.1023629,-0.7550046,-2.479741,1.833326
41.00008,6.288907,325,92,501,497,-0.01670626,0.2532072,0.2719894,-1.288494,-2.956907,-0.9493642,-0.2100989,-0.1549217,-0.09936752,-0.7522604,-2.480659,1.835429
41.20008,6.300018,325,92,501,497,-0.01122868,0.2589872,0.27874,-1.288291,-2.958591,-0.9447676,-0.2169883,-0.1571061,-0.09194192,-0.7493336,-2.481152,1.837307
41.40009,6.31113,325,92,501,497,-0.006052434,0.2662385,0.2826118,-1.288168,-2.96041,-0.9401821,-0.2093045,-0.1505039,-0.08189075,-0.7470667,-2.481546,1.838853
41.60009,6.322241,321,107,534,497,-0.0003281832,0.2686713,0.2780598,-1.287984,-2.962326,-0.9357464,-0.2072663,-0.1539227,-0.09186535,-0.7444968,-2.48263,1.84134
41.80009,6.333352,321,107,534,497,-0.0006964803,0.2723124,0.2748172,-1.28776,-2.964215,-0.931308,-0.2094656,-0.1581776,-0.0937513,-0.7417601,-2.483688,1.843825
42.00009,6.344463,321,107,534,497,0.0002698302,0.2791431,0.2761143,-1.287521,-2.966104,-0.9266741,-0.2067771,-0.1740324,-0.1207709,-0.7390144,-2.486094,1.84779
42.20009,6.355575,321,107,534,497,-0.002874851,0.2798341,0.2748863,-1.287148,-2.967921,-0.9222655,-0.2144757,-0.1872994,-0.1192031,-0.7358037,-2.487516,1.850538
42.40009,6.366686,321,107,534,497,-0.009070039,0.2762808,0.2762396,-1.286654,-2.969426,-0.9177855,-0.2180379,-0.1848476,-0.1012772,-0.7328519,-2.48804,1.852242
42.60009,6.377797,359,106,512,497,-0.02091974,0.2690173,0.276379,-1.286028,-2.970762,-0.9134637,-0.219234,-0.1835582,-0.0800274,-0.7299714,-2.488461,1.853349
42.80009,6.388908,359,106,512,497,-0.02112609,0.2641561,0.2765301,-1.285814,-2.972107,-0.9092527,-0.2076233,-0.1805896,-0.07548523,-0.727394,-2.489526,1.855354
43.00009,6.40002,359,106,512,497,-0.02727306,0.2622449,0.2716188,-1.285242,-2.973595,-0.9050641,-0.1979247,-0.1785016,-0.08771629,-0.725027,-2.491001,1.85801
43.20009,6.411131,359,106,512,497,-0.0317522,0.2699626,0.2686236,-1.284675,-2.97531,-0.9006172,-0.2006059,-0.1768018,-0.0992512,-0.7224064,-2.492507,1.861086
43.40009,6.422242,359,106,512,497,-0.03641349,0.2678753,0.2638995,-1.284051,-2.976708,-0.896509,-0.2013202,-0.1769259,-0.1006216,-0.7197608,-2.4937,1.863607
43.60009,6.433353,356,100,520,496,-0.04601893,0.2604424,0.2621903,-1.283227,-2.977906,-0.8924242,-0.1989443,-0.1759011,-0.09430989,-0.7172122,-2.494775,1.865638
43.80009,6.444465,356,100,520,496,-0.05580997,0.2565614,0.2590252,-1.282247,-2.979072,-0.8884135,-0.2024819,-0.1771979,-0.07755601,-0.714328,-2.49527,1.867114
44.0001,6.455576,356,100,520,496,-0.06242457,0.251087,0.2533472,-1.281314,-2.980256,-0.8844821,-0.2118635,-0.1754021,-0.06214052,-0.7113687,-2.495331,1.86841
44.2001,6.466687,356,100,520,496,-0.06375489,0.2544613,0.2512783,-1.280449,-2.981675,-0.8803633,-0.2098519,-0.1781451,-0.06233443,-0.7085468,-2.496188,1.870356
44.4001,6.477798,384,97,518,495,-0.06646779,0.251391,0.2472436,-1.279533,-2.982878,-0.8764708,-0.201525,-0.1822919,-0.07195137,-0.7060583,-2.49783,1.873096
44.6001,6.48891,384,97,518,495,-0.06846917,0.253711,0.2385831,-1.278604,-2.984434,-0.8725954,-0.1865033,-0.1952268,-0.09112367,-0.7034473,-2.500332,1.87649
44.8001,6.500021,384,97,518,495,-0.06000707,0.260173,0.2313047,-1.278028,-2.985153,-0.8687934,-0.1669954,-0.2063798,-0.1034348,-0.7010175,-2.503199,1.879915
45.0001,6.511132,384,97,518,495,-0.05762702,0.2516399,0.2289654,-1.277357,-2.986349,-0.8650432,-0.1669158,-0.2089079,-0.0993237,-0.698251,-2.50489,1.882415
45.2001,6.522243,384,97,518,495,-0.05013537,0.2508301,0.2260015,-1.276742,-2.987288,-0.8612301,-0.1865384,-0.2006201,-0.08035755,-0.695215,-2.50532,1.88406
45.4001,6.533355,338,108,502,497,-0.04887843,0.2460357,0.2242921,-1.276115,-2.988568,-0.8575304,-0.1871892,-0.1964608,-0.06917113,-0.6924991,-2.506201,1.885729
45.6001,6.544466,338,108,502,497,-0.04025853,0.2443283,0.218348,-1.27571,-2.989785,-0.8539804,-0.1792585,-0.1834976,-0.05899975,-0.690213,-2.506795,1.887099
45.8001,6.555577,338,108,502,497,-0.03237951,0.2481956,0.2132697,-1.27523,-2.99124,-0.8502073,-0.1733863,-0.1857114,-0.06219783,-0.6877763,-2.508209,1.889381
46.0001,6.566689,338,108,502,497,-0.02789748,0.2481094,0.2108593,-1.274883,-2.99275,-0.8465193,-0.1646206,-0.1940849,-0.06560287,-0.6851397,-2.510016,1.891652
46.2001,6.5778,383,110,502,496,-0.01522198,0.2556439,0.2091132,-1.27471,-2.994678,-0.8426614,-0.1520942,-0.1937463,-0.07330366,-0.6830023,-2.512142,1.894399
46.4001,6.588911,383,110,502,496,-0.009855509,0.2520713,0.2072174,-1.274523,-2.996163,-0.839055,-0.1307634,-0.1868771,-0.08038219,-0.6813373,-2.514353,1.896994
46.60011,6.600022,383,110,502,496,-0.0005111992,0.2475803,0.2037727,-1.274498,-2.997589,-0.835464,-0.1334822,-0.1824039,-0.08447853,-0.6792856,-2.515984,1.899545
46.80011,6.611134,383,110,502,496,0.007170141,0.2486254,0.2022333,-1.274592,-2.999307,-0.8317915,-0.135602,-0.1791188,-0.08241276,-0.677048,-2.517503,1.901817
47.00011,6.622245,383,110,502,496,0.02015087,0.2537984,0.2014849,-1.274879,-3.00124,-0.8279262,-0.1365269,-0.1762463,-0.07724893,-0.6749031,-2.518822,1.903857
47.20011,6.633356,341,125,524,495,0.0246861,0.2578855,0.1992787,-1.275056,-3.003206,-0.8241823,-0.1417449,-0.1929872,-0.07919092,-0.6722058,-2.520958,1.906581
47.40011,6.644467,341,125,524,495,0.02928841,0.2582197,0.1929718,-1.275218,-3.005104,-0.8205827,-0.155644,-0.2101827,-0.09795812,-0.6692652,-2.523673,1.910496
47.60011,6.655579,341,125,524,495,0.03569025,0.2621265,0.1933251,-1.275558,-3.007108,-0.8168027,-0.1491611,-0.2010449,-0.108026,-0.6673557,-2.525827,1.913566
47.80011,6.66669,341,125,524,495,0.03398135,0.2640855,0.1975095,-1.275661,-3.008845,-0.8129129,-0.1484458,-0.1966328,-0.1021123,-0.6650888,-2.527584,1.916185
48.00011,6.677801,398,129,511,495,0.04258668,0.2620505,0.2046473,-1.276165,-3.010601,-0.8090886,-0.1485747,-0.183108,-0.08701304,-0.6629322,-2.528404,1.917756
48.20011,6.688912,398,129,511,495,0.04025269,0.260524,0.208182,-1.276414,-3.012184,-0.805195,-0.1488597,-0.1659376,-0.07064325,-0.6610402,-2.529005,1.919125
48.40011,6.700024,398,129,511,495,0.05011883,0.2593318,0.2174201,-1.277222,-3.013916,-0.8011151,-0.1421123,-0.1515965,-0.06976413,-0.6594163,-2.52996,1.920996
48.60011,6.711135,398,129,511,495,0.0495528,0.2605364,0.2185047,-1.277603,-3.015639,-0.7971214,-0.1401338,-0.1590902,-0.07890984,-0.6573321,-2.532039,1.923976
48.80011,6.722246,398,129,511,495,0.04822269,0.262886,0.2128977,-1.277777,-3.017587,-0.7932523,-0.1358887,-0.1808098,-0.1157518,-0.6551957,-2.535889,1.929014
49.00011,6.733357,393,127,508,496,0.05123374,0.2616929,0.2131605,-1.278288,-3.019202,-0.7893732,-0.1390622,-0.2147046,-0.1368338,-0.6522145,-2.540082,1.934134
49.20012,6.744469,393,127,508,496,0.05803987,0.2642385,0.2178034,-1.278846,-3.020882,-0.7853081,-0.1461675,-0.2205618,-0.1243506,-0.6494731,-2.542432,1.937361
49.40012,6.75558,393,127,508,496,0.06284827,0.2723371,0.2264439,-1.279556,-3.022732,-0.7809624,-0.1451494,-0.2123514,-0.1103643,-0.6471806,-2.544124,1.93981
49.60012,6.766691,393,127,508,496,0.06989694,0.2794129,0.2309167,-1.280355,-3.024609,-0.776548,-0.1408559,-0.1990555,-0.1049461,-0.6452647,-2.545861,1.942428
49.80012,6.777802,393,127,508,496,0.06845611,0.278792,0.2340513,-1.281017,-3.026248,-0.7722038,-0.1450149,-0.2031045,-0.1189044,-0.6431049,-2.548661,1.946542
50.00012,6.788914,338,125,494,496,0.06340069,0.2767284,0.2340698,-1.28152,-3.027795,-0.7680402,-0.1509343,-0.2181356,-0.1344202,-0.6405686,-2.552079,1.95117
50.20012,6.800025,338,125,494,496,0.05293432,0.2792521,0.2310219,-1.281629,-3.029581,-0.7638394,-0.154155,-0.2335592,-0.137774,-0.6377515,-2.55549,1.955614
50.40012,6.811136,338,125,494,496,0.04620731,0.2796006,0.2406285,-1.281981,-3.030972,-0.7593753,-0.1534749,-0.2313951,-0.1293961,-0.6352789,-2.558016,1.959139
50.60012,6.822248,338,125,494,496,0.0387066,0.2860466,0.2491053,-1.282159,-3.032457,-0.7547638,-0.1367592,-0.212636,-0.1234608,-0.6336683,-2.560374,1.962192
50.80012,6.833359,340,127,500,496,0.02393395,0.2811309,0.2600102,-1.282122,-3.033456,-0.7503137,-0.1394703,-0.2026276,-0.12167,-0.63173,-2.562587,1.965512
51.00012,6.84447,340,127,500,496,0.01341695,0.2717881,0.2579286,-1.281938,-3.034494,-0.7461905,-0.1398461,-0.2019573,-0.1260453,-0.6296107,-2.565218,1.969317
51.20012,6.855581,340,127,500,496,0.003785759,0.2690744,0.2519626,-1.281765,-3.035687,-0.7420078,-0.1374626,-0.2259499,-0.1423922,-0.6271185,-2.569577,1.97459
51.40012,6.866693,340,127,500,496,-0.005092561,0.2658738,0.248886,-1.281519,-3.036689,-0.7379156,-0.1402766,-0.2392243,-0.1466003,-0.6244867,-2.573291,1.979351
51.60012,6.877804,340,127,500,496,0.0006696284,0.2810687,0.2532924,-1.281633,-3.038153,-0.7331789,-0.1427466,-0.2371003,-0.1397253,-0.6220899,-2.576106,1.983177
51.80013,6.888915,279,125,505,495,0.002250344,0.2813903,0.2501788,-1.281701,-3.03945,-0.7288656,-0.1485138,-0.2389606,-0.1250543,-0.6194566,-2.578498,1.986542
52.00013,6.900026,279,125,505,495,0.002119988,0.2863926,0.2552855,-1.281726,-3.040683,-0.7243532,-0.1578166,-0.2329337,-0.1123481,-0.6167679,-2.580491,1.989694
52.20013,6.911138,279,125,505,495,-0.004817069,0.2890489,0.2625113,-1.281534,-3.041739,-0.7195883,-0.1432263,-0.2283958,-0.11472,-0.6147577,-2.583719,1.993772
52.40013,6.922249,279,125,505,495,-0.00519985,0.2886626,0.2659947,-1.281491,-3.04288,-0.7150529,-0.1338466,-0.2350606,-0.126927,-0.6125596,-2.587563,1.998484
52.60013,6.93336,376,127,498,497,-0.01374686,0.2829623,0.2645845,-1.281239,-3.04388,-0.7107753,-0.1237449,-0.2544731,-0.1413348,-0.6101318,-2.592452,2.004095
52.80013,6.944471,376,127,498,497,-0.01737896,0.2812093,0.2547253,-1.280949,-3.044993,-0.7065888,-0.1151181,-0.2652522,-0.1374677,-0.6076247,-2.596723,2.008769
53.00013,6.955583,376,127,498,497,-0.01998636,0.2794575,0.250037,-1.280773,-3.046077,-0.7022575,-0.1190362,-0.269542,-0.1173769,-0.60501,-2.59961,2.012217
53.20013,6.966694,376,127,498,497,-0.0262121,0.2759961,0.2538683,-1.280415,-3.046934,-0.6979394,-0.1193611,-0.263543,-0.110006,-0.6025716,-2.602706,2.015927
53.40013,6.977805,376,127,498,497,-0.03097367,0.2739924,0.2504756,-1.280025,-3.047651,-0.693721,-0.1237782,-0.255644,-0.1102283,-0.6004618,-2.60557,2.019819
53.60013,6.988916,380,124,507,497,-0.02963772,0.2754753,0.2491587,-1.279874,-3.048702,-0.6893252,-0.1344035,-0.2448341,-0.111256,-0.5980757,-2.608351,2.023864
53.80013,7.000028,380,124,507,497,-0.02858517,0.2741702,0.2406861,-1.27961,-3.049791,-0.6853858,-0.138073,-0.2387899,-0.1007874,-0.5957209,-2.610667,2.027224
54.00013,7.011139,380,124,507,497,-0.02587628,0.2728414,0.2349651,-1.279385,-3.050774,-0.6814103,-0.1332775,-0.2412268,-0.09445946,-0.5933113,-2.613509,2.030673
54.20013,7.02225,380,124,507,497,-0.02367121,0.2737602,0.2250233,-1.279003,-3.05211,-0.6774166,-0.135515,-0.2550103,-0.1045741,-0.590614,-2.617464,2.035534
54.40014,7.033361,380,124,507,497,-0.01856679,0.2714188,0.2241119,-1.278908,-3.053102,-0.6734176,-0.1497433,-0.2587954,-0.1021907,-0.5876516,-2.620301,2.039689
54.60014,7.044473,396,113,492,497,-0.01812255,0.2724979,0.2177384,-1.27862,-3.054339,-0.6695208,-0.1634006,-0.2381998,-0.0681545,-0.5848104,-2.620692,2.041107
54.80014,7.055584,396,113,492,497,-0.01352927,0.2682919,0.2168102,-1.27864,-3.055334,-0.6657066,-0.1638178,-0.2344031,-0.05826621,-0.5820743,-2.622482,2.043717
55.00014,7.066695,396,113,492,497,-0.01232666,0.2692748,0.2210354,-1.27857,-3.05628,-0.661575,-0.1699535,-0.2229651,-0.04262719,-0.5793334,-2.623137,2.045393
55.20014,7.077806,396,113,492,497,-0.00573349,0.2721985,0.2204464,-1.278636,-3.05746,-0.6574503,-0.1510888,-0.2247446,-0.06552781,-0.577547,-2.626771,2.049701
55.40014,7.088918,392,113,535,497,-0.008181512,0.2735319,0.2108544,-1.278489,-3.058694,-0.6535445,-0.1406385,-0.2347362,-0.08159546,-0.5752391,-2.630623,2.054359
55.60014,7.100029,392,113,535,497,-0.003144652,0.2682401,0.1975959,-1.278471,-3.059947,-0.6500829,-0.1323998,-0.2502035,-0.1055252,-0.5729359,-2.635447,2.060137
55.80014,7.11114,392,113,535,497,0.009008139,0.2612742,0.1889064,-1.278862,-3.061081,-0.6466528,-0.1178519,-0.2394366,-0.1125327,-0.5712124,-2.638968,2.064393
56.00014,7.122252,392,113,535,497,0.02348384,0.2617976,0.1828174,-1.279409,-3.062476,-0.6430943,-0.1120472,-0.2175045,-0.105617,-0.5696959,-2.641349,2.067582
56.20014,7.133363,392,113,535,497,0.04317495,0.2683737,0.1792619,-1.280251,-3.064144,-0.6392599,-0.1149303,-0.2224531,-0.1041986,-0.5674174,-2.644466,2.071539
56.40014,7.144474,428,110,469,498,0.05884856,0.2740909,0.1771773,-1.281211,-3.065789,-0.6354728,-0.1143842,-0.2016979,-0.1015362,-0.565909,-2.646646,2.074806
56.60014,7.155585,428,110,469,498,0.06848863,0.2803442,0.1739751,-1.282137,-3.067578,-0.631492,-0.1057178,-0.1826095,-0.09389271,-0.564734,-2.648919,2.077715
56.80014,7.166697,428,110,469,498,0.07790062,0.2884778,0.1732457,-1.283084,-3.069466,-0.6275291,-0.1041999,-0.1616029,-0.07098672,-0.5633294,-2.649688,2.079122
57.00014,7.177808,428,110,469,498,0.08106378,0.2888183,0.1738818,-1.283969,-3.071171,-0.6236591,-0.1109755,-0.1583019,-0.04731028,-0.5613081,-2.650319,2.080397
57.20015,7.188919,414,108,517,497,0.07986577,0.2950016,0.1803227,-1.284741,-3.072742,-0.6193362,-0.1245843,-0.1558132,-0.0413153,-0.5592723,-2.651232,2.082423
57.40015,7.20003,414,108,517,497,0.08128127,0.2946689,0.1758633,-1.285518,-3.074558,-0.6153745,-0.1334053,-0.1610582,-0.04785002,-0.557128,-2.652961,2.085563
57.60015,7.211142,414,108,517,497,0.08275849,0.2890727,0.1619958,-1.286218,-3.076272,-0.6119198,-0.1308899,-0.1763533,-0.06342797,-0.5553202,-2.656172,2.089562
57.80015,7.222253,414,108,517,497,0.08164743,0.296488,0.1509914,-1.286684,-3.078295,-0.6080966,-0.1164714,-0.1917723,-0.07284945,-0.5534027,-2.659805,2.093723
58.00015,7.233364,414,108,517,497,0.08083841,0.2974442,0.1630542,-1.287534,-3.079843,-0.6038494,-0.1071844,-0.2001271,-0.07868525,-0.5516419,-2.66331,2.097762
58.20015,7.244475,462,111,504,497,0.0698505,0.3003794,0.1657329,-1.287874,-3.08139,-0.5999218,-0.1173877,-0.2168826,-0.08056205,-0.5491363,-2.666639,2.102026
58.40015,7.255587,462,111,504,497,0.06550214,0.2953623,0.165981,-1.288438,-3.082814,-0.5960868,-0.1166196,-0.2196953,-0.08244632,-0.5470516,-2.669906,2.106146
58.60015,7.266698,462,111,504,497,0.063052,0.2920818,0.1538923,-1.288876,-3.084533,-0.5927147,-0.1100186,-0.2265186,-0.09122096,-0.5451288,-2.673882,2.110861
58.80015,7.277809,462,111,504,497,0.0669964,0.2951313,0.1439282,-1.28959,-3.086491,-0.5890588,-0.09326378,-0.2377628,-0.1146798,-0.5434936,-2.679365,2.117018
59.00015,7.28892,393,104,499,497,0.06734961,0.3027425,0.1408244,-1.290187,-3.088516,-0.5850512,-0.07687439,-0.236301,-0.1185919,-0.5420438,-2.683988,2.121975
59.20015,7.300032,393,104,499,497,0.05887282,0.309104,0.1506005,-1.290404,-3.09017,-0.5807593,-0.08653177,-0.2436133,-0.1096984,-0.5397652,-2.687345,2.126158
59.40015,7.311143,393,104,499,497,0.04997545,0.3096738,0.1541335,-1.29058,-3.091654,-0.5767357,-0.09728806,-0.2480004,-0.1069074,-0.5376038,-2.690831,2.130772
59.60015,7.322254,393,104,499,497,0.03477365,0.3057756,0.15256,-1.290346,-3.093034,-0.5729056,-0.1022624,-0.2590052,-0.1032658,-0.5350972,-2.695059,2.135767
59.80016,7.333365,393,104,499,497,0.01360577,0.2934617,0.1479521,-1.289989,-3.094059,-0.5694046,-0.09472877,-0.2668742,-0.1112577,-0.5331494,-2.700469,2.141573
60.00016,7.344477,378,106,515,497,0.01123464,0.2920434,0.1398234,-1.289859,-3.095578,-0.56587,-0.07481036,-0.2772425,-0.1094491,-0.5310588,-2.706097,2.147174
60.20016,7.355588,378,106,515,497,0.008858502,0.2916046,0.1408018,-1.289813,-3.096987,-0.562188,-0.05429316,-0.262608,-0.1087084,-0.5297869,-2.710528,2.151615
60.40016,7.366699,378,106,515,497,0.005790979,0.298409,0.1351646,-1.289484,-3.098703,-0.5582609,-0.04124597,-0.2656741,-0.116004,-0.5282769,-2.716299,2.157423
60.60016,7.37781,378,106,515,497,0.002518177,0.293086,0.1361787,-1.289333,-3.099857,-0.5544968,-0.04149172,-0.2636865,-0.1301731,-0.5268041,-2.721904,2.163662
60.80016,7.388922,378,106,515,497,0.00118494,0.286892,0.133903,-1.289273,-3.101166,-0.5509707,-0.04297176,-0.2549707,-0.1311529,-0.5253959,-2.726718,2.16902
61.00016,7.400033,376,105,499,495,0.008702606,0.2877607,0.1289396,-1.289286,-3.102692,-0.5474581,-0.0651288,-0.2713602,-0.09853183,-0.5224035,-2.730589,2.173178
61.20016,7.411144,376,105,499,495,0.01100314,0.288728,0.126186,-1.289394,-3.104242,-0.5437648,-0.07676113,-0.274786,-0.08270056,-0.5199268,-2.734663,2.177743
61.40016,7.422256,376,105,499,495,0.01044112,0.2927727,0.124645,-1.289225,-3.105899,-0.5400102,-0.09399158,-0.2779121,-0.06031331,-0.5169382,-2.737904,2.181527
61.60016,7.433367,376,105,499,495,0.01072672,0.2882684,0.1297723,-1.289304,-3.107073,-0.5363761,-0.1011516,-0.2652829,-0.0497215,-0.5147496,-2.740637,2.185077
61.80016,7.444478,439,103,490,498,0.0001531243,0.2865745,0.1341475,-1.288935,-3.108144,-0.5327004,-0.1044721,-0.2557111,-0.04226433,-0.5125275,-2.743599,2.188574
62.00016,7.455589,439,103,490,498,-0.001664311,0.2879693,0.1350212,-1.288769,-3.109386,-0.5290364,-0.09570253,-0.2555974,-0.04810887,-0.5104572,-2.747682,2.19306
62.20016,7.466701,439,103,490,498,0.0005238056,0.2896388,0.1330772,-1.288666,-3.110857,-0.5253751,-0.06672037,-0.2581811,-0.06478486,-0.5089663,-2.753428,2.198673
62.40017,7.477812,439,103,490,498,0.01413476,0.2886342,0.1289543,-1.2889,-3.112369,-0.5218033,-0.04284295,-0.25601,-0.0866426,-0.5078739,-2.759427,2.20466
62.60017,7.488923,439,103,490,498,0.02805164,0.2914985,0.1254622,-1.289408,-3.114048,-0.5181339,-0.02975127,-0.2545113,-0.09761769,-0.5066627,-2.764809,2.209991
62.80017,7.500034,430,102,514,497,0.05180806,0.2888349,0.1283463,-1.290559,-3.11555,-0.5145003,-0.04099254,-0.2554013,-0.07505454,-0.5044208,-2.768712,2.214042
63.00017,7.511146,430,102,514,497,0.08076638,0.2919856,0.130402,-1.292128,-3.117356,-0.5107378,-0.04399179,-0.2562509,-0.06389637,-0.5023206,-2.772859,2.218203
63.20017,7.522257,430,102,514,497,0.09662533,0.2935699,0.1311455,-1.29333,-3.119032,-0.5069732,-0.03837535,-0.2454825,-0.06735871,-0.5009257,-2.777187,2.222658
63.40017,7.533368,430,102,514,497,0.1015776,0.2879764,0.1289342,-1.294447,-3.120522,-0.5034552,-0.03413339,-0.2450282,-0.07972308,-0.4996996,-2.782107,2.227905
63.60017,7.544479,452,104,489,496,0.1147296,0.2865696,0.1293471,-1.295898,-3.122219,-0.4998753,-0.03467849,-0.2402596,-0.07452807,-0.4981262,-2.786381,2.232342
63.80017,7.555591,452,104,489,496,0.1083658,0.2898976,0.122894,-1.296796,-3.123996,-0.4962161,-0.03105542,-0.2345878,-0.06609471,-0.4964319,-2.790489,2.236416
64.00017,7.566702,452,104,489,496,0.09275159,0.2865636,0.1194396,-1.297201,-3.125376,-0.4927588,-0.04011394,-0.2393303,-0.05772641,-0.4945709,-2.794281,2.240428
64.20016,7.577813,452,104,489,496,0.05849816,0.2746502,0.120165,-1.296858,-3.126204,-0.4896083,-0.03655292,-0.2297722,-0.05415665,-0.4930806,-2.798101,2.244303
64.40016,7.588924,452,104,489,496,0.02581441,0.2584923,0.1178963,-1.296369,-3.12689,-0.4868019,-0.03784978,-0.2254827,-0.05492384,-0.4916073,-2.802135,2.248517
64.60016,7.600036,435,104,484,500,0.008304387,0.2471576,0.1137344,-1.295888,-3.127763,-0.4840189,-0.0337272,-0.2183275,-0.04217296,-0.4899769,-2.805521,2.251776
64.80016,7.611147,435,104,484,500,0.0002391934,0.2391599,0.1023427,-1.295616,-3.128742,-0.4813626,-0.0264671,-0.2106093,-0.04349905,-0.4886932,-2.809263,2.25534
65.00015,7.622258,435,104,484,500,0.007258743,0.2369084,0.09886967,-1.295607,-3.130039,-0.4783533,-0.0404132,-0.222913,-0.03916872,-0.4865835,-2.81333,2.259745
65.20015,7.633369,435,104,484,500,0.004324466,0.2373219,0.09929083,-1.295584,-3.130942,-0.4753322,-0.04401001,-0.2135004,-0.0219145,-0.4848157,-2.815612,2.262098
65.40015,7.644481,432,107,512,497,0.01351362,0.2329706,0.09201979,-1.295798,-3.132235,-0.4726136,-0.04393448,-0.2129287,-0.02637161,-0.483229,-2.819319,2.265989
65.60014,7.655592,432,107,512,497,0.01946862,0.2258396,0.09059578,-1.29607,-3.133267,-0.4700538,-0.0546329,-0.2151598,-0.03606513,-0.481466,-2.822928,2.270357
65.80014,7.666703,432,107,512,497,0.0242548,0.2229214,0.08601816,-1.296357,-3.134396,-0.4674385,-0.05243383,-0.2129176,-0.04317566,-0.4800497,-2.826888,2.274676
66.00014,7.677814,432,107,512,497,0.04196472,0.2229677,0.07471794,-1.29703,-3.135952,-0.4648846,-0.05020225,-0.2058129,-0.03325122,-0.478577,-2.829811,2.277652
66.20013,7.688926,432,107,512,497,0.0664282,0.2180803,0.07749914,-1.298141,-3.137099,-0.462411,-0.04767743,-0.1960111,-0.02893405,-0.4773391,-2.832567,2.280415
66.40013,7.700037,455,101,516,497,0.07237494,0.2170352,0.07725058,-1.298809,-3.138303,-0.4597484,-0.0518602,-0.1866294,-0.02293921,-0.4758627,-2.835115,2.283278
66.60013,7.711148,455,101,516,497,0.07407731,0.2159929,0.07814445,-1.299542,-3.139403,-0.4571529,-0.057758,-0.182357,-0.02693172,-0.4746067,-2.837638,2.286302
66.80013,7.72226,455,101,516,497,0.06919435,0.206374,0.0849261,-1.300069,-3.140061,-0.4547033,-0.05942161,-0.17508,-0.02945409,-0.4733204,-2.840322,2.289503
67.00012,7.733371,455,101,516,497,0.06587526,0.2055555,0.08027779,-1.300568,-3.141177,-0.4523267,-0.05330922,-0.1727594,-0.03339604,-0.472407,-2.843356,2.292863
67.20012,7.744482,455,101,516,497,0.06266642,0.2065924,0.08000955,-1.300937,3.140941,-0.4496918,-0.05225648,-0.1842511,-0.0392393,-0.470955,-2.847432,2.297315
67.40012,7.755593,367,98,509,494,0.06115919,0.2093563,0.0778973,-1.301424,3.139787,-0.447116,-0.0691912,-0.1912532,-0.02162068,-0.4687574,-2.849574,2.300251
67.60011,7.766705,367,98,509,494,0.05143815,0.2134524,0.08319122,-1.301532,3.138901,-0.4442824,-0.0686079,-0.1820244,-0.0131879,-0.4671829,-2.85162,2.302581
67.80011,7.777816,367,98,509,494,0.03710333,0.221756,0.09291489,-1.301569,3.138086,-0.4411185,-0.07857375,-0.1875313,-0.008044615,-0.4652921,-2.854702,2.306153
68.00011,7.788927,367,98,509,494,0.01758586,0.2196088,0.0979688,-1.301377,3.137504,-0.4382647,-0.08472076,-0.1855237,-0.01166127,-0.4635722,-2.856401,2.308933
68.2001,7.800038,364,96,486,497,0.00256373,0.2141718,0.09920917,-1.300971,3.136924,-0.4355845,-0.09425461,-0.1872833,8.167326E-05,-0.461382,-2.858525,2.311708
68.4001,7.81115,364,96,486,497,-0.01517467,0.2066678,0.09105653,-1.300364,3.136382,-0.4333283,-0.08992535,-0.1942693,-0.001255028,-0.4594688,-2.861513,2.315113
68.6001,7.822261,364,96,486,497,-0.0295527,0.2051528,0.08275646,-1.299631,3.135672,-0.4309037,-0.08591172,-0.2050518,-0.01975518,-0.4578741,-2.865918,2.320207
68.80009,7.833372,364,96,486,497,-0.03260396,0.2107924,0.08040468,-1.29913,3.134814,-0.4282049,-0.08652966,-0.2157454,-0.02835356,-0.4559657,-2.870114,2.325173
69.00009,7.844483,364,96,486,497,-0.03690822,0.2145844,0.0850982,-1.298678,3.13418,-0.4254331,-0.09248793,-0.2185834,-0.02456442,-0.4539289,-2.873551,2.329362
69.20009,7.855595,344,98,506,498,-0.04419094,0.2182381,0.09298268,-1.298032,3.1337,-0.4225009,-0.09812576,-0.2140204,-0.01078727,-0.4518031,-2.875777,2.332167
69.40009,7.866706,344,98,506,498,-0.04981036,0.2175201,0.09967324,-1.297507,3.133374,-0.4196428,-0.09817061,-0.2147163,-0.004299283,-0.4498063,-2.878994,2.335981
69.60008,7.877817,344,98,506,498,-0.03921314,0.2213125,0.1010519,-1.297418,3.132667,-0.416716,-0.09771512,-0.2117304,-0.01505194,-0.4481493,-2.882521,2.340374
69.80008,7.888928,344,98,506,498,-0.021962,0.2276823,0.09491584,-1.297595,3.131549,-0.4137711,-0.09710672,-0.208815,-0.01509906,-0.446219,-2.885992,2.34455
70.00008,7.90004,443,107,498,498,0.0005772412,0.2328925,0.09920781,-1.298085,3.130725,-0.4106882,-0.09162627,-0.2088126,-0.02187131,-0.4446648,-2.889841,2.349057
70.20007,7.911151,443,107,498,498,0.01675308,0.2379665,0.1045992,-1.298672,3.12986,-0.4074849,-0.09358005,-0.2258957,-0.01886343,-0.4422579,-2.894164,2.354005
70.40007,7.922262,443,107,498,498,0.02802853,0.2468488,0.1097749,-1.299162,3.12904,-0.4040793,-0.09868878,-0.2602718,-0.02813408,-0.4396602,-2.900533,2.361227
70.60007,7.933373,443,107,498,498,0.02849004,0.2464918,0.1194012,-1.284987,-3.127635,-0.4142765,-0.1073885,-0.2637561,-0.02884902,-0.4373779,-2.905195,2.366828
70.80006,7.944485,443,107,498,498,0.02870558,0.2477944,0.120827,-1.285325,-3.128455,-0.4110536,-0.1024469,-0.2512394,-0.02821778,-0.435577,-2.909171,2.371544
71.00006,7.955596,444,108,486,498,0.02795555,0.2446718,0.1170472,-1.299584,-3.130236,-0.4147058,-0.09510531,-0.2370844,-0.02212555,-0.4337853,-2.912382,2.375409
71.20006,7.966707,444,108,486,498,0.02460517,0.2445491,0.1113902,-1.299666,-3.131439,-0.4120075,-0.09125383,-0.2458035,-0.02009968,-0.4316467,-2.917262,2.380808
71.40005,7.977818,444,108,486,498,0.02212164,0.2513534,0.1100544,-1.30547,-3.131044,-0.4125242,-0.09443396,-0.2640029,-0.02727169,-0.4294763,-2.923556,2.387946
71.60005,7.98893,444,108,486,498,0.01693058,0.2534909,0.1133163,-1.305258,-3.13167,-0.4093673,-0.1010135,-0.2748015,-0.02446386,-0.4269351,-2.928743,2.394009
71.80005,8.000041,444,108,486,498,0.007501692,0.2493797,0.1171046,-1.305067,-3.134088,-0.4043131,-0.1027505,-0.2715263,-0.009363264,-0.4244205,-2.93282,2.3987
72.00005,8.011152,421,106,500,500,0.0001274049,0.2490959,0.1145768,-1.305126,-3.134942,-0.4011152,-0.09545171,-0.2555083,-0.007384792,-0.4225478,-2.936412,2.402843
72.20004,8.022264,421,106,500,500,-0.00528577,0.2501737,0.1106609,-1.303118,-3.138489,-0.3944333,-0.09125786,-0.2650015,-0.0245565,-0.4206985,-2.942576,2.409803
72.40004,8.033375,421,106,500,500,-0.01017115,0.2462211,0.1063246,-1.30189,-3.139632,-0.3905259,-0.08089624,-0.2680423,-0.04208491,-0.4191709,-2.949348,2.417261
72.60004,8.044486,421,106,500,500,-0.0007479787,0.2501818,0.1053835,-1.302121,-3.140542,-0.3873056,-0.07421865,-0.2669877,-0.0508408,-0.4177195,-2.955496,2.424069
72.80003,8.055597,423,108,495,500,0.005093038,0.2568905,0.1040977,-1.300441,3.140687,-0.3811793,-0.07573286,-0.2704174,-0.03896748,-0.4154915,-2.960508,2.429684
73.00003,8.066709,423,108,495,500,0.01193181,0.260297,0.1123571,-1.300941,3.140085,-0.3774791,-0.08683449,-0.2695571,-0.003077731,-0.4124534,-2.964053,2.433667
73.20003,8.07782,423,108,495,500,0.01371825,0.2572713,0.1183286,-1.298636,3.138294,-0.3725091,-0.1035544,-0.2550113,0.01031833,-0.4099265,-2.966701,2.43738
73.40002,8.088931,423,108,495,500,0.01133665,0.2632148,0.1203525,-1.299275,3.137169,-0.3688995,-0.1176202,-0.2724543,0.005027503,-0.4073071,-2.972495,2.444569
73.60002,8.100042,423,108,495,500,0.01664078,0.2657423,0.1172621,-1.29855,3.133976,-0.3633713,-0.1016732,-0.2702069,-0.01685752,-0.4058359,-2.978676,2.451556
73.80002,8.111154,449,99,488,499,0.02089909,0.2687578,0.1149708,-1.299362,3.132625,-0.3600194,-0.08368933,-0.2697296,-0.02596496,-0.4043909,-2.984714,2.458048
74.00002,8.122265,449,99,488,499,0.02193031,0.277892,0.105761,-1.298512,3.130255,-0.3555277,-0.05774613,-0.2676518,-0.03403381,-0.4031664,-2.991437,2.464771
74.20001,8.133376,449,99,488,499,0.01619098,0.2752078,0.1084132,-1.297679,3.12761,-0.3507788,-0.04656507,-0.2616965,-0.04154247,-0.4018955,-2.997327,2.470997
74.40001,8.144487,449,99,488,499,0.01071811,0.2708301,0.1153335,-1.297745,3.127134,-0.3474392,-0.04496515,-0.2646623,-0.04816151,-0.400557,-3.004024,2.478183
74.60001,8.155599,464,99,524,498,0.007099479,0.2672861,0.1158557,-1.297496,3.125392,-0.3434178,-0.05573885,-0.2613549,-0.05024919,-0.399186,-3.009549,2.484634
74.8,8.16671,464,99,524,498,0.002704203,0.2605569,0.1171518,-1.297501,3.12494,-0.3402812,-0.06286633,-0.2547843,-0.0426968,-0.3978043,-3.014472,2.490175
75,8.177821,464,99,524,498,0.000944972,0.2581947,0.1144691,-1.296946,3.123229,-0.3361421,-0.07071862,-0.2534929,-0.02268093,-0.3956962,-3.019172,2.495495
75.2,8.188932,464,99,524,498,-0.003022283,0.2566895,0.1101849,-1.297024,3.122464,-0.3329255,-0.07414486,-0.2555946,-0.01728844,-0.3937675,-3.024624,2.501598
75.39999,8.200044,464,99,524,498,-0.007122487,0.2561667,0.1063769,-1.296189,3.120177,-0.3286916,-0.0755613,-0.2694975,-0.01251578,-0.3915933,-3.031126,2.50874
75.59999,8.211155,528,142,498,497,-0.009382337,0.2607875,0.1084061,-1.296326,3.118447,-0.3250409,-0.0950485,-0.2779871,0.004786685,-0.3889701,-3.036048,2.514803
75.79999,8.222266,528,142,498,497,-0.006804138,0.25838,0.1081819,-1.296373,3.117857,-0.3218989,-0.09902099,-0.2649792,0.02272361,-0.3865871,-3.039895,2.519338
75.99998,8.233377,528,142,498,497,0.002154619,0.2563663,0.1101623,-1.296274,3.116467,-0.3181524,-0.09620218,-0.251962,0.02482472,-0.3848044,-3.044013,2.524
76.19998,8.244489,528,142,498,497,0.01569393,0.2629394,0.09974485,-1.296752,3.115265,-0.3148187,-0.09429638,-0.2461798,-0.001685843,-0.3836331,-3.049589,2.530686
76.39998,8.2556,528,142,498,497,0.02174002,0.2577337,0.1062016,-1.29666,3.113624,-0.3106386,-0.09212765,-0.2528522,-0.0236609,-0.3825727,-3.05595,2.538122
76.59998,8.266711,528,142,498,497,0.02918172,0.2614167,0.1070229,-1.297348,3.112897,-0.3072148,-0.08661993,-0.2632428,-0.03114976,-0.381027,-3.063038,2.546059
76.79997,8.277822,528,142,498,497,0.03210691,0.267139,0.1080719,-1.297225,3.111017,-0.3029697,-0.08560622,-0.2601649,-0.00858774,-0.3786397,-3.068223,2.551749
76.99997,8.288934,528,142,498,497,0.03782278,0.2656433,0.110774,-1.297971,3.110339,-0.2997239,-0.08291002,-0.2437589,-0.005436078,-0.3772708,-3.072535,2.556838
77.19997,8.300045,528,142,498,497,0.03448918,0.2683266,0.1177681,-1.297796,3.108976,-0.2956221,-0.0789482,-0.2427836,-0.006988175,-0.3757172,-3.078142,2.563098
77.39996,8.311156,407,130,507,501,0.03366944,0.2670462,0.1233839,-1.298342,3.108665,-0.2921424,-0.07606946,-0.2373077,-0.01668996,-0.3744117,-3.083465,2.569406
77.59996,8.322268,407,130,507,501,0.02957599,0.2541884,0.1109696,-1.298137,3.107475,-0.2891777,-0.06103724,-0.2346706,-0.03416883,-0.3736947,-3.089982,2.576457
77.79996,8.333379,407,130,507,501,0.02723661,0.2463705,0.1027757,-1.298172,3.106468,-0.2858041,-0.0564695,-0.2330615,-0.04157189,-0.372932,-3.095927,2.583047
77.99995,8.34449,407,130,507,501,0.02118464,0.2445465,0.09852429,-1.298281,3.10586,-0.2828549,-0.05424082,-0.2488668,-0.03735588,-0.3714316,-3.103318,2.590978
78.19995,8.355601,407,130,507,501,0.0108,0.2420293,0.09890144,-1.298162,3.104886,-0.2797512,-0.05531597,-0.2553645,-0.02317844,-0.3696345,-3.109649,2.597806
78.39995,8.366713,409,123,498,496,0.005930156,0.2377104,0.0968702,-1.298173,3.104455,-0.2769528,-0.05762117,-0.2555418,-0.01968456,-0.3681122,-3.115941,2.604752
78.59995,8.377824,409,123,498,496,0.006505966,0.2320306,0.09377924,-1.297993,3.103168,-0.273611,-0.07169481,-0.2601659,-0.03578082,-0.367088,-3.122358,2.612829
78.79994,8.388935,409,123,498,496,0.005812168,0.2318203,0.08548761,-1.298039,3.102436,-0.2708445,-0.07004514,-0.2677954,-0.03469101,-0.365627,-3.12975,2.621015
78.99994,8.400046,409,123,498,496,0.002043501,0.2256091,0.08477113,-1.297582,3.101621,-0.2675289,-0.0646164,-0.2697336,-0.003926508,-0.363326,-3.136051,2.627419
79.19994,8.411158,405,119,496,499,-0.00277257,0.2219735,0.07951836,-1.297539,3.10113,-0.2649206,-0.06813572,-0.2427522,0.04521474,-0.3605244,-3.138254,2.629747
79.39993,8.422269,405,119,496,499,-0.003371134,0.2137693,0.0826689,-1.297245,3.100223,-0.2621866,-0.06154409,-0.2147449,0.03807687,-0.3593563,3.141577,2.633474
79.59993,8.43338,405,119,496,499,-0.005400285,0.2125014,0.08234617,-1.296613,3.099816,-0.2583964,-0.05774033,-0.214179,0.008662418,-0.3586777,3.135262,2.640574
79.79993,8.444491,405,119,496,499,-0.006810188,0.2057266,0.07662583,-1.296531,3.099361,-0.2561066,-0.05878939,-0.2263109,-0.03251792,-0.3584284,3.127331,2.649742
79.99992,8.455603,405,119,496,499,-0.006280497,0.2050645,0.06701943,-1.296212,3.098361,-0.2533162,-0.05574405,-0.2404367,-0.03419176,-0.357302,3.119839,2.658083
80.19992,8.466714,369,113,477,501,-0.00184606,0.2081339,0.06209234,-1.296277,3.097578,-0.2507494,-0.04269776,-0.2385623,-0.009573437,-0.3556417,3.113836,2.663936
80.39992,8.477825,369,113,477,501,-0.00184679,0.2061947,0.06530831,-1.295835,3.096992,-0.2478924,-0.04670297,-0.2186189,0.01293968,-0.3538601,3.110623,2.667575
80.59991,8.488936,369,113,477,501,0.00566861,0.2052123,0.06793373,-1.296185,3.096524,-0.2453858,-0.06234851,-0.2261817,0.005113922,-0.3525061,3.104372,2.675214
80.79991,8.500048,369,113,477,501,0.0174039,0.2050128,0.06986003,-1.296329,3.095543,-0.2425879,-0.07363702,-0.2245534,-0.003030121,-0.3513151,3.098906,2.681896
