ref,t,emg1,emg2,emg1raw,emg2raw,aDotS,bDotS,gDotS,aS,bS,gS,aDotSH,bDotSH,gDotSH,aSH,bSH,gSH
0,0,86,213,497,497,0.2310464,-0.4281177,-0.1483565,-1.397527,-3.127934,-1.634925,0.0521924,0.1093914,0.002980158,-1.021047,-2.654435,1.605974
0,0.01111111,86,213,497,497,0.2304866,-0.4196051,-0.1423597,-1.400769,-3.123624,-1.636103,0.06719143,0.1002589,0.002398647,-1.022404,-2.654289,1.605962
0,0.02222222,86,213,497,497,0.2310312,-0.3984791,-0.1388783,-1.403829,-3.119971,-1.637357,0.06660946,0.09936353,0.007116225,-1.023577,-2.653595,1.605672
0,0.03333334,83,230,498,488,0.2369882,-0.3867055,-0.1307895,-1.407246,-3.116118,-1.638358,0.04820806,0.09059229,0.00879851,-1.023989,-2.652731,1.605412
0,0.04444445,83,230,498,488,0.2418427,-0.3729764,-0.1212878,-1.410469,-3.112462,-1.63933,0.04066105,0.08849063,0.0003431998,-1.024685,-2.652029,1.605565
0,0.05555556,83,230,498,488,0.243023,-0.3630887,-0.112772,-1.413721,-3.108967,-1.640135,0.04952413,0.09064169,0.001021989,-1.026032,-2.651613,1.605538
0,0.06666667,83,230,498,488,0.2531536,-0.348148,-0.1050591,-1.417217,-3.105662,-1.640951,0.04511697,0.08973402,0.004434876,-1.02692,-2.650783,1.605368
0,0.07777778,81,177,499,498,0.2509165,-0.3387724,-0.1023449,-1.420421,-3.102398,-1.641775,0.04100762,0.09422421,0.006637491,-1.027758,-2.649919,1.605241
0,0.08888889,81,177,499,498,0.2517633,-0.3304215,-0.1009466,-1.423642,-3.098999,-1.642662,0.04455178,0.0849277,0.008481316,-1.028615,-2.64957,1.604992
0,0.1,81,177,499,498,0.25095,-0.3308063,-0.1038056,-1.426884,-3.09551,-1.643643,0.03913473,0.07368436,0.004816897,-1.029146,-2.649239,1.605038
0,0.1111111,81,177,499,498,0.2385825,-0.3277607,-0.1140214,-1.429569,-3.091925,-1.645011,0.04964562,0.07106617,-0.009518826,-1.030268,-2.649237,1.605526
0,0.1222222,81,177,499,498,0.2263889,-0.3209888,-0.1123759,-1.43239,-3.088572,-1.646202,0.05265922,0.07822171,-0.01318493,-1.031377,-2.648762,1.605743
0,0.1333333,77,202,498,497,0.2107272,-0.3123696,-0.1048797,-1.434715,-3.085438,-1.646939,0.04944076,0.08330043,-0.01101359,-1.032215,-2.648144,1.605811
0,0.1444445,77,202,498,497,0.2017844,-0.2939972,-0.08954784,-1.437055,-3.082796,-1.647268,0.03814923,0.08920167,-0.004724892,-1.032869,-2.647119,1.605546
0,0.1555556,77,202,498,497,0.1946837,-0.2813517,-0.08322321,-1.439359,-3.080147,-1.64783,0.02579418,0.08883144,0.001341959,-1.033211,-2.646216,1.605408
0,0.1666667,77,202,498,497,0.1849748,-0.2541801,-0.07821867,-1.44151,-3.078018,-1.648398,0.01781511,0.08765672,0.0106086,-1.033683,-2.645134,1.60487
0,0.1777778,76,183,498,495,0.1719281,-0.2229179,-0.06702781,-1.443252,-3.07654,-1.648709,0.006829549,0.07923505,0.0149192,-1.03387,-2.644283,1.604478
0,0.1888889,76,183,498,495,0.1679718,-0.2031803,-0.06479739,-1.445217,-3.074853,-1.64922,0.01377686,0.07023163,0.002400888,-1.034413,-2.644145,1.604771
0,0.2,76,183,498,495,0.1573817,-0.1841562,-0.058521,-1.446821,-3.073483,-1.649559,0.017997,0.0695041,-0.007821885,-1.035131,-2.643911,1.605173
0,0.2111111,76,183,498,495,0.1399571,-0.1721109,-0.0494871,-1.448125,-3.071753,-1.649714,0.0283923,0.06496814,-0.02169582,-1.035907,-2.643926,1.605747
0,0.2222222,76,183,498,495,0.1314757,-0.1510817,-0.04830509,-1.449614,-3.070619,-1.650173,0.03170225,0.06577752,-0.01988718,-1.036669,-2.643579,1.605927
0,0.2333333,83,159,498,501,0.1152898,-0.1317948,-0.04329963,-1.450598,-3.069738,-1.650452,0.02824678,0.06741659,-0.008285914,-1.037232,-2.642814,1.605497
0,0.2444444,83,159,498,501,0.1067053,-0.1079582,-0.04055215,-1.45167,-3.06908,-1.65088,0.02149733,0.07028601,0.004894674,-1.037621,-2.641868,1.6049
0,0.2555556,83,159,498,501,0.09894618,-0.0896087,-0.03786619,-1.452795,-3.068577,-1.651263,0.01538504,0.06415641,0.014873,-1.037907,-2.641155,1.604389
0,0.2666667,83,159,498,501,0.08498746,-0.06152509,-0.03435171,-1.453347,-3.068556,-1.651522,0.009440321,0.06161442,0.01304246,-1.038153,-2.640483,1.604213
0,0.2777778,91,183,498,498,0.0709558,-0.03390344,-0.02877523,-1.453739,-3.068841,-1.651726,0.02016088,0.05857899,0.005922664,-1.03889,-2.640354,1.604419
0,0.2888889,91,183,498,498,0.05478615,-0.005412936,-0.02196387,-1.454018,-3.069335,-1.651912,0.03466622,0.05153604,0.001923855,-1.03967,-2.640458,1.604506
0,0.3,91,183,498,498,0.0500881,0.01601228,-0.01431937,-1.454349,-3.070143,-1.651918,0.0380525,0.05019473,0.0027283,-1.040383,-2.640246,1.604448
0,0.3111111,91,183,498,498,0.04135766,0.04445234,-0.008528404,-1.454494,-3.071373,-1.651673,0.03013673,0.04690344,0.01331801,-1.040718,-2.639679,1.60401
0,0.3222222,91,183,498,498,0.03044227,0.07105727,0.00119638,-1.454371,-3.072885,-1.651446,0.0255468,0.04837222,0.02637378,-1.041122,-2.638889,1.603246
0,0.3333333,107,195,495,498,0.02027164,0.0865967,0.006474703,-1.45422,-3.074226,-1.651372,0.02149398,0.04099691,0.04247294,-1.041437,-2.638197,1.602109
0,0.3444445,107,195,495,498,0.01306171,0.0941281,0.007974288,-1.453977,-3.075446,-1.651347,0.01318767,0.03025857,0.050935,-1.041398,-2.637549,1.601152
0,0.3555556,107,195,495,498,0.007612949,0.0899079,0.008141137,-1.453837,-3.076302,-1.651329,-0.004999824,0.01706265,0.0428705,-1.040844,-2.637342,1.600917
0,0.3666667,107,195,495,498,-0.004350812,0.08089739,0.006188457,-1.453341,-3.076864,-1.651283,-0.005875673,0.01433778,0.03087996,-1.040819,-2.637167,1.600843
0,0.3777778,107,195,495,498,-0.02227055,0.05287845,0.002387187,-1.45276,-3.076605,-1.651415,0.0001408597,0.01459328,0.01211691,-1.041015,-2.637349,1.601265
0,0.3888889,124,211,495,495,-0.03019531,0.03771935,-0.001920064,-1.452254,-3.07654,-1.65148,0.008778676,0.02083799,0.006371166,-1.041539,-2.637105,1.601272
0,0.4,124,211,495,495,-0.04255047,0.01772673,-0.008399742,-1.451534,-3.076006,-1.651738,0.01922498,0.02427277,0.01097482,-1.042159,-2.636898,1.600995
0,0.4111111,124,211,495,495,-0.04923537,0.00821009,-0.01372827,-1.450954,-3.075779,-1.651838,0.01754234,0.01904562,0.02610954,-1.042259,-2.636449,1.600142
0,0.4222222,124,211,495,495,-0.05009415,0.0131608,-0.02140868,-1.45033,-3.075989,-1.652352,-0.004940972,0.004806643,0.03099541,-1.041615,-2.636142,1.599641
0,0.4333333,142,171,494,498,-0.04554908,0.02098824,-0.02295902,-1.449893,-3.076285,-1.652696,-0.01745464,-0.003356215,0.02723067,-1.041028,-2.636077,1.599545
0,0.4444444,142,171,494,498,-0.04223269,0.02424297,-0.02330701,-1.449452,-3.076467,-1.652962,-0.03204626,-0.0122171,0.02255315,-1.040207,-2.635872,1.599394
0,0.4555556,142,171,494,498,-0.04201077,0.03051477,-0.0219527,-1.448951,-3.076772,-1.653176,-0.02884979,-0.009280698,0.02543829,-1.03988,-2.635537,1.598998
0,0.4666667,142,171,494,498,-0.04084558,0.03265675,-0.02691101,-1.448476,-3.077007,-1.653707,-0.02196132,-0.004169598,0.03068693,-1.039886,-2.635148,1.598389
0,0.4777778,142,171,494,498,-0.03567279,0.02771388,-0.03007921,-1.448335,-3.076989,-1.654179,-0.01437082,-0.0002073254,0.03395905,-1.039946,-2.634855,1.597855
0,0.4888889,151,205,495,490,-0.03368352,0.02349319,-0.03095304,-1.447979,-3.076917,-1.654529,-0.01554714,0.00778424,0.03813572,-1.03985,-2.634136,1.597154
0,0.5,151,205,495,490,-0.03076463,0.01470327,-0.03608351,-1.447796,-3.076633,-1.655112,-0.02067038,0.01815685,0.04587241,-1.039775,-2.633113,1.596304
0,0.5111111,151,205,495,490,-0.02576473,0.004586302,-0.04040146,-1.447607,-3.076268,-1.655658,-0.01945077,0.03241485,0.04498989,-1.039992,-2.632083,1.595713
0,0.5222223,151,205,495,490,-0.02055435,0.001069147,-0.04001554,-1.447542,-3.07609,-1.656079,-0.01098615,0.03900303,0.04071425,-1.040376,-2.631509,1.595257
0,0.5333334,153,177,496,501,-0.01541479,-0.004164923,-0.03673746,-1.447522,-3.075923,-1.656399,0.003255714,0.02598652,0.03021196,-1.040616,-2.631893,1.595274
0,0.5444446,153,177,496,501,-0.01222541,-0.003906275,-0.03336792,-1.447416,-3.075818,-1.656615,0.01504395,0.008805819,0.01724552,-1.040811,-2.632527,1.595473
0,0.5555557,153,177,496,501,-0.01311333,0.001926127,-0.02992383,-1.447232,-3.07592,-1.656865,0.02858699,-0.005068785,0.01391306,-1.041155,-2.633227,1.595435
0,0.5666668,153,177,496,501,-0.01043261,0.01966664,-0.02163307,-1.447101,-3.076592,-1.656953,0.03128172,-0.01146603,0.01739587,-1.04137,-2.633559,1.595122
0,0.577778,153,177,496,501,-0.003639296,0.03216228,-0.01988519,-1.44711,-3.077191,-1.657189,0.02482185,-0.007026989,0.02633622,-1.041413,-2.633222,1.594513
0,0.5888891,151,162,496,497,0.004228024,0.04543313,-0.01686386,-1.447156,-3.07789,-1.657416,0.009173255,-0.003933383,0.02882982,-1.041158,-2.63272,1.59404
0,0.6000003,151,162,496,497,0.009841961,0.05520008,-0.0124664,-1.44731,-3.078778,-1.657501,0.009417621,0.003827364,0.03247982,-1.041357,-2.632204,1.593465
0,0.6111114,151,162,496,497,0.01816063,0.04972825,-0.01356654,-1.447545,-3.079026,-1.657825,0.01262827,0.00470048,0.03193859,-1.041605,-2.632141,1.593144
0,0.6222225,151,162,496,497,0.01466619,0.04047615,-0.01563619,-1.447546,-3.079136,-1.658064,0.0254631,0.01019701,0.02462659,-1.042224,-2.632171,1.59302
0,0.6333337,152,148,495,492,0.00994166,0.02583428,-0.01782495,-1.447513,-3.079006,-1.658319,0.03625333,0.008886548,0.02568391,-1.042857,-2.632314,1.592764
0,0.6444448,152,148,495,492,0.01170546,0.01318109,-0.0249566,-1.44773,-3.078762,-1.658764,0.03513303,0.006660087,0.03230756,-1.043137,-2.632092,1.592097
0,0.655556,152,148,495,492,0.01683697,0.006784546,-0.02630517,-1.448021,-3.078625,-1.65909,0.0265201,0.008516898,0.0345358,-1.043225,-2.631916,1.591766
0,0.6666671,152,148,495,492,0.01681009,0.005411567,-0.02988067,-1.448132,-3.078666,-1.659469,0.01834244,0.01172144,0.03729687,-1.043306,-2.631403,1.591178
0,0.6777782,152,148,495,492,0.02106084,0.004146698,-0.03447467,-1.44849,-3.078613,-1.659957,0.01124231,0.01727557,0.0396477,-1.043478,-2.630911,1.590618
0,0.6888894,156,143,495,499,0.02099147,0.001853563,-0.03389382,-1.448728,-3.078527,-1.660316,0.01939733,0.02434038,0.03205445,-1.044216,-2.630836,1.590506
0,0.7000005,156,143,495,499,0.01968297,-0.007223971,-0.0370156,-1.448822,-3.078059,-1.660763,0.02771861,0.02700565,0.02476536,-1.044811,-2.630649,1.590299
0,0.7111117,156,143,495,499,0.02087503,-0.002843259,-0.03712416,-1.449057,-3.078123,-1.661177,0.02879986,0.02733574,0.02951802,-1.045308,-2.630388,1.589787
0,0.7222228,156,143,495,499,0.01977447,-0.004646812,-0.03863073,-1.449273,-3.077895,-1.66159,0.02389947,0.02929094,0.03070082,-1.045616,-2.629892,1.589307
0,0.7333339,156,143,495,499,0.02519888,-0.001414836,-0.03894292,-1.449719,-3.077937,-1.662038,0.01372827,0.02760379,0.03045445,-1.045674,-2.629533,1.588976
0,0.7444451,160,154,495,501,0.02402298,-0.005758028,-0.03883402,-1.449925,-3.077659,-1.662439,0.009081025,0.03325775,0.02844475,-1.045883,-2.628888,1.588586
0,0.7555562,160,154,495,501,0.02503562,-0.007503201,-0.03593853,-1.450277,-3.077517,-1.662742,0.01049434,0.03300776,0.02791175,-1.046274,-2.628557,1.588291
0,0.7666674,160,154,495,501,0.0229344,-0.006388736,-0.03572115,-1.450465,-3.077424,-1.663158,0.01111811,0.03195171,0.02356106,-1.046536,-2.628266,1.588043
0,0.7777785,160,154,495,501,0.02399383,-0.006628281,-0.03467325,-1.450768,-3.077303,-1.663515,0.01427999,0.03289378,0.02064049,-1.046942,-2.627939,1.587865
0,0.7888896,149,143,496,499,0.02076817,-0.006432665,-0.0302992,-1.450816,-3.077234,-1.663662,0.01754838,0.0399014,0.01940075,-1.04748,-2.627368,1.58753
0,0.8000008,149,143,496,499,0.01762892,-0.002887653,-0.02627303,-1.450919,-3.077271,-1.663864,0.01766017,0.03759744,0.01214481,-1.047822,-2.627174,1.587533
0,0.8111119,149,143,496,499,0.01658717,-0.001469334,-0.02270197,-1.451286,-3.0773,-1.664135,0.01980377,0.03609715,0.01201736,-1.048171,-2.626868,1.587397
0,0.8222231,149,143,496,499,0.01237649,0.002663404,-0.01637116,-1.451351,-3.077448,-1.664145,0.02086939,0.03225363,0.01231506,-1.048506,-2.626615,1.587142
0,0.8333342,149,143,496,499,0.01559246,0.004791628,-0.0115,-1.451696,-3.077622,-1.664225,0.02167866,0.02671415,0.01064244,-1.048664,-2.626544,1.587017
0,0.8444453,140,145,495,498,0.01451866,0.005963207,-0.006884372,-1.451796,-3.077653,-1.664193,0.01438799,0.02014088,0.00104818,-1.048643,-2.626611,1.587238
0,0.8555565,140,145,495,498,0.01447567,0.005045264,-0.002725728,-1.452027,-3.07779,-1.664109,0.0147718,0.02157705,-0.0008255588,-1.049001,-2.626575,1.587419
0,0.8666676,140,145,495,498,0.01548554,0.00271373,-0.002141202,-1.45221,-3.077758,-1.664131,0.01273946,0.0208314,0.0006295126,-1.049136,-2.626449,1.587385
0,0.8777788,140,145,495,498,0.01650712,0.0006182904,-0.002593799,-1.452384,-3.077766,-1.664151,0.01399303,0.0166413,-0.0005252203,-1.049357,-2.626514,1.587428
0,0.8888899,135,148,496,497,0.01319245,-0.003584336,0.00188374,-1.452457,-3.077642,-1.664136,0.01277603,0.01868225,-0.0004096273,-1.049522,-2.6263,1.587377
0,0.900001,135,148,496,497,0.0110593,-0.002960308,0.004180538,-1.452518,-3.077652,-1.664039,0.007830495,0.01863907,-0.002660491,-1.049556,-2.626163,1.587503
0,0.9111122,135,148,496,497,0.009902382,-0.007327305,0.004293694,-1.452628,-3.077444,-1.663963,0.00724424,0.01967608,0.001696981,-1.049754,-2.626202,1.587236
0,0.9222233,135,148,496,497,0.00657642,-0.01211857,0.006472937,-1.452511,-3.077079,-1.663795,0.005627094,0.02242733,0.004714974,-1.04992,-2.625804,1.587003
0,0.9333345,135,148,496,497,0.01086108,-0.01197236,0.005473597,-1.452907,-3.07706,-1.663655,0.007050237,0.02002971,0.00314095,-1.050149,-2.625801,1.587126
0,0.9444456,134,128,496,499,0.01071769,-0.01866716,0.006180446,-1.453067,-3.076755,-1.663536,0.008336837,0.01781275,-0.003178019,-1.050291,-2.625823,1.587293
0,0.9555568,134,128,496,499,0.01178263,-0.01868442,0.006182023,-1.453204,-3.076605,-1.663552,0.004716402,0.01760472,-0.008345654,-1.050372,-2.625861,1.587718
0,0.9666679,134,128,496,499,0.01708634,-0.02063811,0.004725524,-1.453566,-3.076391,-1.663511,0.006010856,0.01957695,-0.01021093,-1.050539,-2.625762,1.587795
0,0.977779,134,128,496,499,0.01603388,-0.01980104,0.005987075,-1.453731,-3.076236,-1.663475,0.004215947,0.02054227,-0.006788739,-1.050655,-2.625536,1.587762
0,0.9888902,134,135,496,497,0.01499992,-0.01792228,0.007482695,-1.453905,-3.076173,-1.663355,0.004342074,0.01616241,-0.006479051,-1.05072,-2.625516,1.587797
0,1.000001,134,135,496,497,0.01300149,-0.01198994,0.005487059,-1.453966,-3.076246,-1.663375,0.007396651,0.01509964,-0.01519606,-1.050822,-2.625911,1.5884
0,1.011112,134,135,496,497,0.01519999,-0.007515335,0.009763262,-1.454239,-3.076254,-1.663182,0.008574232,0.01099391,-0.01871944,-1.050848,-2.62608,1.58876
0,1.022224,134,135,496,497,0.01208736,-0.003878295,0.00834843,-1.454319,-3.076274,-1.663083,0.0105735,0.001349657,-0.02389089,-1.050859,-2.626568,1.589186
0,1.033335,134,135,496,497,0.01429308,0.0008311601,0.01158043,-1.454517,-3.076457,-1.662883,0.01772849,0.003909407,-0.02350707,-1.051244,-2.626776,1.589522
0,1.044446,133,143,496,498,0.01422884,-0.00228383,0.01089375,-1.4546,-3.076423,-1.662856,0.0183056,0.0008687712,-0.02267563,-1.051417,-2.627108,1.589808
0,1.055557,133,143,496,498,0.01442265,0.008713234,0.01546901,-1.454722,-3.076898,-1.662591,0.01737422,0.002459762,-0.0216399,-1.051749,-2.627342,1.590105
0,1.066668,133,143,496,498,0.01763605,0.01028048,0.01802001,-1.45499,-3.077046,-1.662296,0.01309539,0.01169967,-0.02455118,-1.051972,-2.627184,1.590526
0,1.077779,133,143,496,498,0.01864298,0.007736536,0.01965456,-1.45524,-3.077162,-1.661993,0.009424157,0.01373243,-0.02010256,-1.052083,-2.627006,1.590685
0,1.08889,136,119,495,498,0.01657891,0.01171751,0.02157939,-1.455267,-3.0774,-1.661744,0.009253347,0.01194092,-0.01968752,-1.052233,-2.627101,1.590968
0,1.100002,136,119,495,498,0.01553778,0.01278914,0.02178852,-1.455461,-3.077618,-1.661575,0.0103584,0.001733717,-0.02482611,-1.052276,-2.627741,1.591458
0,1.111113,136,119,495,498,0.01876835,0.01518799,0.025594,-1.455832,-3.077905,-1.661193,0.01029574,-0.0002704617,-0.03060119,-1.052488,-2.628103,1.591914
0,1.122224,136,119,495,498,0.02205282,0.02072155,0.03006444,-1.456058,-3.07852,-1.660846,0.006529909,-0.002308954,-0.03534133,-1.052425,-2.628462,1.592528
0,1.133335,136,119,495,498,0.02099202,0.02075433,0.03003726,-1.456322,-3.078721,-1.660686,-0.004576588,-0.002569346,-0.05415383,-1.052113,-2.628893,1.593893
0,1.144446,135,135,496,497,0.01986786,0.01923876,0.0373056,-1.456539,-3.079044,-1.660064,-0.006278314,-0.001833621,-0.05694982,-1.052015,-2.629156,1.594699
0,1.155557,135,135,496,497,0.01860677,0.01126243,0.04428726,-1.456721,-3.079124,-1.659405,-0.002079042,0.005765931,-0.06058938,-1.053159,-2.629064,1.594796
0,1.166668,135,135,496,497,0.0154324,0.01217398,0.04552148,-1.456809,-3.079451,-1.658947,-0.008993756,0.002764957,-0.06242945,-1.052904,-2.629462,1.595637
0,1.17778,135,135,496,497,0.01741626,0.007065197,0.05423998,-1.457056,-3.079594,-1.658104,-0.01750493,-0.01617881,-0.0651767,-1.052186,-2.630284,1.596583
0,1.188891,135,135,496,497,0.0173433,0.004754621,0.06026594,-1.457253,-3.079773,-1.657323,-0.01885406,-0.04282108,-0.07592856,-1.051459,-2.631842,1.598006
0,1.200002,134,140,497,499,0.01633351,0.007910613,0.06633696,-1.457382,-3.080142,-1.656439,-0.01697388,-0.05205853,-0.08431296,-1.050943,-2.633132,1.599367
0,1.211113,134,140,497,499,0.01845623,0.009512225,0.0797132,-1.457575,-3.080535,-1.655209,-0.01251978,-0.053184,-0.08964668,-1.050733,-2.634233,1.600635
0,1.222224,134,140,497,499,0.01221804,0.01617097,0.09077658,-1.457562,-3.081173,-1.653883,-0.02043202,-0.03404728,-0.09178624,-1.05043,-2.634436,1.601864
0,1.233335,134,140,497,499,0.008249387,0.02678445,0.09830095,-1.457509,-3.082017,-1.652688,-0.03282616,-0.01992926,-0.09256166,-1.049878,-2.634545,1.603049
0,1.244446,126,127,497,501,0.00635054,0.03404515,0.106217,-1.45748,-3.082904,-1.651312,-0.03476438,-0.02081778,-0.08872464,-1.049405,-2.635092,1.604075
0,1.255558,126,127,497,501,0.005535819,0.04109462,0.1151579,-1.457432,-3.083837,-1.649833,-0.01596735,-0.06739038,-0.07794596,-1.048692,-2.637367,1.604799
0,1.266669,126,127,497,501,0.005937748,0.05209784,0.120541,-1.45733,-3.085133,-1.648486,0.01531158,-0.1338659,-0.07983073,-1.04795,-2.641331,1.606052
0,1.27778,126,127,497,501,0.007646605,0.06912848,0.1227587,-1.457314,-3.086612,-1.647145,0.03180196,-0.176135,-0.09162613,-1.047361,-2.645384,1.607493
0,1.288891,126,127,497,501,0.01347127,0.0808033,0.1239079,-1.457396,-3.088068,-1.645831,0.03906038,-0.1712146,-0.09246364,-1.047052,-2.647709,1.608873
0,1.300002,121,150,496,491,0.02025669,0.08907901,0.120023,-1.457663,-3.089544,-1.6447,0.02652787,-0.114773,-0.08596022,-1.047183,-2.647823,1.609753
0,1.311113,121,150,496,491,0.02449711,0.08585061,0.108464,-1.457909,-3.090522,-1.643971,-0.007918779,-0.02935093,-0.05894519,-1.047165,-2.645461,1.609623
0,1.322224,121,150,496,491,0.02700101,0.06425741,0.09659202,-1.458197,-3.090815,-1.643313,-0.03676267,0.02113261,-0.02518895,-1.046911,-2.643063,1.608803
0,1.333336,121,150,496,491,0.02536426,0.04661658,0.09307831,-1.458418,-3.091017,-1.642385,-0.03963956,0.01378394,-0.01193867,-1.046443,-2.642709,1.60852
0,1.344447,121,150,496,491,0.02244743,0.02346369,0.07879493,-1.458594,-3.090666,-1.641889,-0.01979828,-0.0360493,-0.01742599,-1.045845,-2.645103,1.609169
0,1.355558,116,136,497,498,0.02074745,0.005087036,0.06763376,-1.458844,-3.090364,-1.641472,0.007115006,-0.108927,-0.04266882,-1.044951,-2.649056,1.610672
0,1.366669,116,136,497,498,0.01978673,0.007404386,0.0615405,-1.458977,-3.090702,-1.64103,0.02089463,-0.1563657,-0.0692995,-1.043993,-2.652648,1.612548
0,1.37778,116,136,497,498,0.0266805,0.02031226,0.05536777,-1.459378,-3.091397,-1.640628,0.03196031,-0.1575696,-0.08132691,-1.043654,-2.655288,1.614074
0,1.388891,116,136,497,498,0.02916988,0.02944122,0.05275179,-1.459781,-3.092094,-1.640117,0.03237084,-0.1341709,-0.06599683,-1.043567,-2.656126,1.614327
0,1.400002,114,139,497,496,0.03276274,0.03976268,0.04927777,-1.460148,-3.092948,-1.639737,0.0314931,-0.07709269,-0.03509746,-1.044225,-2.655372,1.613746
0,1.411114,114,139,497,496,0.03442609,0.05557933,0.04572328,-1.460438,-3.094085,-1.639422,0.02620885,-0.01886063,-0.006004751,-1.044995,-2.653792,1.612839
0,1.422225,114,139,497,496,0.03377337,0.06642374,0.04013398,-1.460606,-3.095149,-1.639213,0.02895564,0.02269003,-0.001288962,-1.045898,-2.652955,1.612667
0,1.433336,114,139,497,496,0.04019734,0.06727728,0.04027636,-1.461168,-3.096016,-1.638742,0.03492575,0.02522773,0.0005533136,-1.046553,-2.652883,1.612581
0,1.444447,114,139,497,496,0.04232219,0.06715958,0.03480472,-1.46162,-3.096829,-1.638538,0.05477358,-0.008334842,-0.00340952,-1.046981,-2.654523,1.612797
0,1.455558,107,119,498,498,0.04327754,0.06432217,0.02666963,-1.462023,-3.097507,-1.638521,0.07899009,-0.05883952,-0.007762838,-1.047298,-2.65727,1.613142
0,1.466669,107,119,498,498,0.04460511,0.07194492,0.02047407,-1.462417,-3.098521,-1.638525,0.09522121,-0.08469613,-0.007116178,-1.047725,-2.65933,1.613249
0,1.47778,107,119,498,498,0.04523295,0.09038886,0.00871439,-1.462775,-3.099993,-1.638858,0.08779272,-0.07694218,-0.008666215,-1.048077,-2.660421,1.61344
0,1.488891,107,119,498,498,0.04335847,0.09870128,-0.0005999403,-1.463059,-3.101212,-1.639154,0.07217513,-0.05812783,-0.006545331,-1.048335,-2.660632,1.613478
0,1.500003,114,133,496,498,0.04666841,0.1042996,-0.01361086,-1.463539,-3.102482,-1.639771,0.03571351,-0.01401371,0.009276344,-1.048312,-2.659033,1.612789
0,1.511114,114,133,496,498,0.038936,0.09756514,-0.0224864,-1.463825,-3.103276,-1.64029,0.006327,0.01697517,0.02809275,-1.048271,-2.65744,1.611888
0,1.522225,114,133,496,498,0.03394883,0.07673392,-0.03177824,-1.464059,-3.103496,-1.640925,0.005592989,0.01428695,0.0428351,-1.048324,-2.65688,1.610844
0,1.533336,114,133,496,498,0.02668755,0.05040525,-0.03454994,-1.464214,-3.103276,-1.641438,0.03151579,-0.02109428,0.05441213,-1.04868,-2.658294,1.610044
0,1.544447,114,133,496,498,0.02214911,0.0419369,-0.04048879,-1.464464,-3.103531,-1.64213,0.04918052,-0.04350349,0.04643688,-1.049104,-2.659654,1.609889
0,1.555558,127,138,496,495,0.01886444,0.03901089,-0.05295886,-1.464577,-3.103696,-1.643081,0.06900858,-0.04936448,0.03692108,-1.049899,-2.66088,1.609723
0,1.566669,127,138,496,495,0.02420209,0.04033617,-0.05482731,-1.464995,-3.104147,-1.643761,0.0651067,-0.0331386,0.03211367,-1.05039,-2.660955,1.609442
0,1.577781,127,138,496,495,0.02333695,0.048292,-0.06198832,-1.465173,-3.104801,-1.644731,0.0488576,0.001067765,0.03171622,-1.050922,-2.660068,1.609047
0,1.588892,127,138,496,495,0.02542674,0.0482908,-0.06195878,-1.465464,-3.105314,-1.645441,0.03941914,0.02242385,0.03805644,-1.051462,-2.659146,1.60837
0,1.600003,139,116,495,498,0.02233814,0.05386371,-0.06198859,-1.465544,-3.105963,-1.646195,0.03606062,0.04636988,0.0596087,-1.052306,-2.657543,1.606853
0,1.611114,139,116,495,498,0.02439268,0.05238222,-0.06548323,-1.4658,-3.106411,-1.647062,0.04179263,0.04536326,0.0733117,-1.053053,-2.656904,1.605528
0,1.622225,139,116,495,498,0.02009541,0.05233813,-0.06441901,-1.465934,-3.106873,-1.647745,0.03974091,0.03850867,0.07082844,-1.053463,-2.656531,1.604716
0,1.633336,139,116,495,498,0.02217257,0.05214218,-0.06334208,-1.466242,-3.107341,-1.648521,0.03608025,0.01779179,0.05518992,-1.053571,-2.656871,1.604494
0,1.644447,139,116,495,498,0.02206795,0.04862503,-0.06724896,-1.466536,-3.107707,-1.649398,0.03617625,0.003202455,0.04247241,-1.05378,-2.657243,1.604387
0,1.655559,143,136,495,497,0.0176692,0.04334636,-0.06719467,-1.466655,-3.10792,-1.650202,0.02942624,-0.01852376,0.03448383,-1.053504,-2.657987,1.604259
0,1.66667,143,136,495,497,0.01532823,0.03576263,-0.05565448,-1.46689,-3.108114,-1.650561,0.02655813,-0.02003641,0.02735678,-1.053662,-2.658219,1.604095
0,1.677781,143,136,495,497,0.007636167,0.02725937,-0.03890696,-1.466761,-3.108183,-1.650574,0.01197195,-0.006302838,0.0341321,-1.053585,-2.657538,1.603442
0,1.688892,143,136,495,497,-0.00208658,0.02230757,-0.0290827,-1.466506,-3.108315,-1.650649,-0.001635406,0.01198939,0.03912048,-1.053569,-2.65644,1.602649
0,1.700003,143,136,495,497,-0.003143348,0.02318259,-0.02783044,-1.466423,-3.108537,-1.650951,-0.008552181,0.01931725,0.04325699,-1.053524,-2.655609,1.601952
0,1.711114,145,119,495,499,-0.009514427,0.02481002,-0.02430347,-1.46619,-3.108872,-1.651218,-0.01343333,0.004750634,0.03920161,-1.053176,-2.655667,1.601555
0,1.722225,145,119,495,499,-0.01058403,0.02527517,-0.02095956,-1.466015,-3.109117,-1.651384,-0.01635283,-0.0007510409,0.03388622,-1.052872,-2.655547,1.601291
0,1.733337,145,119,495,499,-0.01386284,0.02570883,0.005130302,-1.46568,-3.109546,-1.650716,-0.01315565,-0.04921788,0.008280432,-1.051918,-2.65739,1.602033
0,1.744448,145,119,495,499,-0.01591504,0.03018166,0.01032114,-1.465356,-3.11011,-1.650654,-0.01720853,-0.05891,0.00618472,-1.051268,-2.658011,1.602002
0,1.755559,139,126,496,497,-0.01897546,0.03744768,0.0236338,-1.464981,-3.110799,-1.65005,-0.0201472,-0.08259621,0.006996559,-1.050224,-2.659199,1.601943
0,1.76667,139,126,496,497,-0.02302084,0.04704782,0.03629821,-1.46459,-3.111696,-1.649408,-0.02393582,-0.09058157,0.006802732,-1.049314,-2.66008,1.601979
0,1.777781,139,126,496,497,-0.02587565,0.06013387,0.04205819,-1.464121,-3.11279,-1.648881,-0.04136416,-0.09661989,0.01264342,-1.047874,-2.660535,1.60167
0,1.788892,139,126,496,497,-0.02360518,0.06413736,0.04933552,-1.463835,-3.113616,-1.648118,-0.05075937,-0.09544282,0.01710838,-1.046678,-2.660808,1.60138
0,1.800003,139,126,496,497,-0.0246476,0.06299883,0.05558756,-1.463456,-3.114376,-1.647377,-0.05180518,-0.09972006,0.02026202,-1.045552,-2.661394,1.601059
0,1.811115,131,142,498,501,-0.02870202,0.06842475,0.06199485,-1.463003,-3.115358,-1.646679,-0.05489516,-0.1107884,0.02085049,-1.044295,-2.66224,1.600907
0,1.822226,131,142,498,501,-0.02876316,0.06368896,0.06430706,-1.462649,-3.115944,-1.645929,-0.05943751,-0.1215012,0.01717222,-1.04278,-2.66324,1.600858
0,1.833337,131,142,498,501,-0.03090654,0.06065775,0.06368884,-1.462178,-3.116622,-1.645282,-0.06974396,-0.1429985,0.008940447,-1.040771,-2.664604,1.601058
0,1.844448,131,142,498,501,-0.03300799,0.05932009,0.06556372,-1.461653,-3.117225,-1.644562,-0.07093824,-0.1529025,0.007048022,-1.039156,-2.665701,1.600993
0,1.855559,118,132,497,500,-0.03981586,0.0439437,0.06795916,-1.461035,-3.117377,-1.643746,-0.06511013,-0.1639289,0.002520233,-1.037594,-2.667312,1.601151
0,1.86667,118,132,497,500,-0.04210087,0.03759927,0.06779113,-1.460487,-3.117759,-1.643076,-0.05227813,-0.164112,-0.005111557,-1.036393,-2.668943,1.601395
0,1.877781,118,132,497,500,-0.04099162,0.03743528,0.06883395,-1.460027,-3.118276,-1.642296,-0.03521052,-0.1451183,-0.00254954,-1.03587,-2.66994,1.601384
0,1.888893,118,132,497,500,-0.03547229,0.04142751,0.06420732,-1.459765,-3.1189,-1.641811,-0.02138978,-0.1130736,0.003507109,-1.035639,-2.670222,1.601153
0,1.900004,118,132,497,500,-0.03336046,0.03951014,0.06275999,-1.459404,-3.119364,-1.641175,-0.01732007,-0.08952242,0.01095953,-1.035372,-2.670343,1.600793
0,1.911115,98,131,498,498,-0.02081117,0.0316481,0.0505234,-1.459515,-3.119612,-1.640943,-0.02738399,-0.06353651,0.01657452,-1.034708,-2.669912,1.600285
0,1.922226,98,131,498,498,-0.02088624,0.02847674,0.04448869,-1.459361,-3.119883,-1.640607,-0.03265957,-0.05312925,0.02191241,-1.034109,-2.669686,1.59983
0,1.933337,98,131,498,498,-0.01808423,0.01700946,0.03582815,-1.45925,-3.119787,-1.640424,-0.03814008,-0.04239334,0.02872233,-1.033458,-2.669314,1.599303
0,1.944448,98,131,498,498,-0.01644742,0.002835451,0.02447789,-1.45919,-3.119477,-1.640375,-0.03118595,-0.04148941,0.02089604,-1.03303,-2.669643,1.599271
0,1.955559,85,128,498,499,-0.01574764,-0.007516655,0.01601071,-1.459059,-3.119103,-1.640405,-0.01180954,-0.03831473,0.01277161,-1.033126,-2.670135,1.599344
0,1.966671,85,128,498,499,-0.01600718,-0.01488516,0.00918286,-1.458929,-3.118804,-1.640402,-0.006603608,-0.0366003,0.01076269,-1.032937,-2.670453,1.599214
0,1.977782,85,128,498,499,-0.01174616,-0.01529582,0.004807991,-1.458928,-3.118627,-1.640452,-0.003520775,-0.03542185,0.02262154,-1.032799,-2.670451,1.598567
0,1.988893,85,128,498,499,-0.008345889,-0.01049213,-0.004003899,-1.458872,-3.118536,-1.640665,-0.009469271,-0.03390409,0.03621877,-1.032218,-2.670081,1.597596
0,2.000004,85,128,498,499,-0.006145728,-0.008927796,-0.006939366,-1.45887,-3.118454,-1.640825,-0.008977184,-0.02470478,0.03804194,-1.03211,-2.669799,1.597037
0,2.011115,79,147,499,500,-0.0005928883,-0.003350987,-0.01450042,-1.458886,-3.118337,-1.641196,-0.008805877,-0.006963998,0.04409537,-1.032206,-2.669014,1.596371
0,2.022226,79,147,499,500,0.0002951045,-0.008652858,-0.02093288,-1.458878,-3.118069,-1.641559,-0.004764851,0.01876732,0.05900103,-1.032676,-2.667663,1.595146
0,2.033337,79,147,499,500,0.003250845,-0.01612197,-0.0277645,-1.459038,-3.117604,-1.64203,-0.00577968,0.03861121,0.07143807,-1.033081,-2.666244,1.59395
0,2.044448,79,147,499,500,-0.001253884,-0.0235114,-0.03357424,-1.458939,-3.117111,-1.642418,0.0001468062,0.04524365,0.06916793,-1.033424,-2.66545,1.593248
0,2.055559,79,147,499,500,-0.001696583,-0.03775877,-0.04394178,-1.459038,-3.116169,-1.643146,0.002196595,0.05006266,0.06600045,-1.03383,-2.664511,1.59246
0,2.06667,78,123,498,498,0.0002610609,-0.04411684,-0.05060355,-1.459083,-3.115372,-1.643769,0.006881446,0.05879516,0.07008806,-1.034346,-2.663474,1.591526
0,2.077781,78,123,498,498,-0.001748048,-0.04151857,-0.05232137,-1.459075,-3.114859,-1.644361,0.004795305,0.06427352,0.06853709,-1.034777,-2.662285,1.590658
0,2.088892,78,123,498,498,0.002702925,-0.03683956,-0.05464865,-1.459158,-3.114515,-1.644976,0.007228307,0.06651151,0.06523297,-1.035308,-2.661203,1.589864
0,2.100003,78,123,498,498,0.005103208,-0.02893785,-0.05092806,-1.459299,-3.11434,-1.645429,0.01838287,0.05238749,0.04504313,-1.035841,-2.661316,1.589923
0,2.111114,76,110,500,499,0.006609976,-0.01537,-0.04827435,-1.45938,-3.11445,-1.645867,0.03170969,0.02260173,0.03502828,-1.036127,-2.662173,1.589837
0,2.122225,76,110,500,499,0.0117765,0.01419614,-0.0391897,-1.459497,-3.115355,-1.646155,0.04013602,-0.001247969,0.03311326,-1.036353,-2.662935,1.589478
0,2.133336,76,110,500,499,0.01666905,0.03540519,-0.03173721,-1.45975,-3.116399,-1.646318,0.05016125,-0.03789688,0.0281213,-1.036247,-2.664484,1.589252
0,2.144447,76,110,500,499,0.01805712,0.04667827,-0.02843071,-1.459962,-3.1172,-1.646597,0.04711285,-0.05330399,0.02887762,-1.036079,-2.66521,1.588693
0,2.155558,76,110,500,499,0.02167493,0.06185504,-0.02325809,-1.460173,-3.118334,-1.646799,0.03910501,-0.03625673,0.03475163,-1.036306,-2.664976,1.588071
0,2.166669,75,117,499,497,0.02171615,0.06416427,-0.02388397,-1.460414,-3.119031,-1.647137,0.02900634,-0.01573799,0.04422067,-1.036536,-2.664162,1.587138
0,2.17778,75,117,499,497,0.01620834,0.0586985,-0.02281771,-1.460386,-3.1195,-1.647416,0.01899176,0.01695242,0.04859336,-1.037043,-2.662732,1.586352
0,2.188891,75,117,499,497,0.01283287,0.05296655,-0.02612644,-1.460362,-3.12005,-1.647894,0.01942303,0.04287013,0.04892316,-1.037832,-2.661532,1.585658
0,2.200002,75,117,499,497,0.002868021,0.04010196,-0.02547347,-1.460111,-3.120016,-1.64816,0.02869418,0.05231261,0.04954109,-1.038763,-2.660741,1.584974
0,2.211113,76,119,499,505,-0.003948446,0.0246279,-0.03400844,-1.459937,-3.119719,-1.648856,0.0332967,0.04473385,0.04565739,-1.039282,-2.660586,1.584582
0,2.222224,76,119,499,505,-0.00512287,0.02028734,-0.03921438,-1.459834,-3.11969,-1.649454,0.0351619,0.02930946,0.04244487,-1.0396,-2.660682,1.584138
0,2.233335,76,119,499,505,-0.005242713,0.01613655,-0.04003852,-1.459721,-3.119758,-1.649956,0.0343455,-0.006461773,0.0287573,-1.039295,-2.661851,1.584306
0,2.244446,76,119,499,505,-0.003158346,0.01526503,-0.03584989,-1.459696,-3.119982,-1.650306,0.02803133,-0.02901847,0.009721644,-1.038997,-2.662945,1.584765
0,2.255557,76,119,499,505,-0.002134133,0.01440708,-0.03166246,-1.459722,-3.120108,-1.650496,0.0268426,-0.03122268,-0.0008337453,-1.039009,-2.663629,1.585132
0,2.266668,77,127,498,501,0.000236379,0.02374607,-0.02976175,-1.459741,-3.120479,-1.650735,0.0318964,-0.02521611,-0.003078122,-1.0395,-2.663975,1.585219
0,2.277779,77,127,498,501,0.00588946,0.03697333,-0.02596998,-1.459871,-3.12119,-1.650985,0.04502178,-0.007803295,0.01261045,-1.040442,-2.663666,1.584464
0,2.28889,77,127,498,501,0.005129604,0.04933429,-0.02239761,-1.459719,-3.122096,-1.65114,0.04359281,0.0007227436,0.01355618,-1.040949,-2.663685,1.584342
0,2.300001,77,127,498,501,0.007475404,0.05846936,-0.01944897,-1.459779,-3.122945,-1.651331,0.02952912,0.003455438,0.02036279,-1.040932,-2.663402,1.583945
0,2.311112,77,127,498,501,0.009848239,0.06906488,-0.01295222,-1.459787,-3.124044,-1.651375,0.02010325,0.004674843,0.0250362,-1.040962,-2.663098,1.583503
0,2.322223,79,135,499,501,0.01627369,0.0716088,-0.01021914,-1.460063,-3.124822,-1.651431,0.025782,0.003549541,0.03384991,-1.041327,-2.663093,1.582924
0,2.333334,79,135,499,501,0.01614801,0.06743277,-0.005630292,-1.460162,-3.12556,-1.651321,0.04163617,-0.01253396,0.03347829,-1.041801,-2.663784,1.582498
0,2.344445,79,135,499,501,0.01298167,0.06835807,-0.009796998,-1.460087,-3.126326,-1.65154,0.05209329,-0.02178505,0.02457494,-1.042264,-2.664673,1.582547
0,2.355556,79,135,499,501,0.0130142,0.07003793,-0.01270455,-1.460146,-3.127096,-1.651822,0.05668527,-0.03161892,0.01347062,-1.042615,-2.665694,1.58273
0,2.366668,85,141,500,504,0.01609235,0.06621139,-0.01561041,-1.460342,-3.127678,-1.652147,0.04720338,-0.01790433,0.01445206,-1.042865,-2.665476,1.582505
0,2.377779,85,141,500,504,0.0159795,0.06080855,-0.02644761,-1.460482,-3.1282,-1.652533,0.03695341,-0.002839511,0.02124663,-1.043178,-2.664979,1.582027
0,2.38889,85,141,500,504,0.01791317,0.05368228,-0.02893928,-1.460625,-3.128547,-1.653025,0.01838108,0.02424588,0.03893674,-1.043501,-2.663501,1.580924
0,2.400001,85,141,500,504,0.01543469,0.03913524,-0.0318845,-1.460711,-3.128584,-1.653446,0.006648656,0.04185558,0.03638008,-1.043712,-2.662462,1.580551
0,2.411112,85,141,500,504,0.01506384,0.02328198,-0.03399596,-1.460806,-3.128381,-1.653828,0.008514713,0.0449728,0.03121427,-1.044134,-2.66189,1.580292
0,2.422223,90,136,500,498,0.01152943,0.007713249,-0.0371753,-1.460884,-3.127955,-1.654289,0.016761,0.03111453,0.02929816,-1.044518,-2.662033,1.580066
0,2.433334,90,136,500,498,0.01221887,-0.01085691,-0.04203948,-1.461071,-3.12718,-1.654997,0.01898463,0.01063089,0.02345397,-1.044555,-2.662452,1.579931
0,2.444445,90,136,500,498,0.01007596,-0.01306049,-0.04686971,-1.461118,-3.126893,-1.655639,0.01261048,0.006712811,0.01727231,-1.044512,-2.662469,1.57988
0,2.455556,90,136,500,498,0.006889921,-0.01235277,-0.04459096,-1.461097,-3.12672,-1.656073,-0.006677575,0.01415703,0.01685832,-1.044186,-2.661797,1.579664
0,2.466667,98,143,500,500,0.005799633,-0.01150294,-0.03791506,-1.460981,-3.126618,-1.656347,-0.009659749,0.0297101,0.02298681,-1.044456,-2.660748,1.579097
0,2.477778,98,143,500,500,0.0005527064,-0.007192061,-0.03709685,-1.460756,-3.126616,-1.656829,-0.01321258,0.03786233,0.0268641,-1.044559,-2.659842,1.578629
0,2.488889,98,143,500,500,0.0004830137,-0.009300492,-0.03209785,-1.460732,-3.126351,-1.657056,-0.003304496,0.04845097,0.03037904,-1.045319,-2.659066,1.578167
0,2.5,98,143,500,500,0.0004596077,-0.009111081,-0.02771303,-1.460674,-3.126181,-1.657259,0.008745439,0.03649193,0.03320853,-1.045713,-2.658974,1.577587
0,2.511111,98,143,500,500,0.0004921742,-0.006625084,-0.02394107,-1.460709,-3.126094,-1.65745,0.008499391,0.02213857,0.02248109,-1.04572,-2.659159,1.577604
0,2.522222,103,135,500,503,0.001645554,-0.0002013555,-0.01825759,-1.460658,-3.126226,-1.657556,0.003237929,0.01418654,0.01271969,-1.045486,-2.659115,1.57772
0,2.533333,103,135,500,503,0.003826688,0.004725971,-0.01069506,-1.460707,-3.126432,-1.657492,0.002500816,0.01543849,0.01233006,-1.045574,-2.658875,1.577586
0,2.544444,103,135,500,503,0.00921225,0.009801093,-0.004160869,-1.460883,-3.126636,-1.657369,-0.002482643,0.01553412,0.01632538,-1.045529,-2.658535,1.57725
0,2.555555,103,135,500,503,0.007272129,0.02027333,-0.002022055,-1.460886,-3.127146,-1.657364,-0.003930852,0.0137751,0.01342432,-1.045515,-2.658329,1.577142
0,2.566666,102,153,500,498,0.009470122,0.02541971,0.004491294,-1.46102,-3.127615,-1.65712,-0.001356104,0.005092982,0.0009701047,-1.045375,-2.658628,1.57749
0,2.577777,102,153,500,498,0.00843894,0.02853465,0.01055518,-1.461004,-3.127929,-1.656841,0.005599161,-0.01515322,-0.007433385,-1.045172,-2.659474,1.577746
0,2.588888,102,153,500,498,0.002088869,0.03155157,0.01763438,-1.460858,-3.128423,-1.65647,0.007763107,-0.02092359,-0.009702035,-1.045106,-2.659968,1.577937
0,2.599999,102,153,500,498,0.002054768,0.03048362,0.02284265,-1.460846,-3.128705,-1.656049,0.008701478,-0.02251932,-0.01076701,-1.04503,-2.660386,1.578094
0,2.61111,102,153,500,498,-2.545491E-05,0.0330237,0.02659355,-1.46084,-3.129153,-1.655657,0.008666209,-0.01825508,-0.008642698,-1.045076,-2.660542,1.578128
0,2.622221,100,147,499,498,0.002060356,0.02904094,0.01927974,-1.460854,-3.129371,-1.655552,0.0004982613,-0.006516251,-0.007779904,-1.045004,-2.660343,1.578163
0,2.633332,100,147,499,498,0.001948711,0.02402171,0.02259471,-1.460835,-3.129542,-1.655206,-0.006234262,-0.001426656,-0.01063934,-1.044857,-2.66024,1.578376
0,2.644443,100,147,499,498,-0.0002848823,0.01822718,0.01922214,-1.460758,-3.129544,-1.655028,-0.01202359,-0.004226204,-0.01153247,-1.044387,-2.660216,1.578495
0,2.655554,100,147,499,498,-0.00246316,0.01596946,0.01983025,-1.460644,-3.129574,-1.654759,-0.003489931,-0.01237566,-0.0131839,-1.044364,-2.660718,1.578726
0,2.666665,100,147,499,498,0.0007714685,0.01715814,0.01900965,-1.460819,-3.129774,-1.654551,0.001723167,-0.01910985,-0.01560573,-1.044181,-2.661306,1.579037
0,2.677776,92,136,498,498,0.003069911,0.0242222,0.01611371,-1.460832,-3.130215,-1.654489,0.00517172,-0.02490801,-0.01457829,-1.044102,-2.661863,1.579194
0,2.688887,92,136,498,498,0.007416429,0.02830652,0.01697053,-1.460929,-3.130684,-1.65436,0.005270271,-0.01256202,-0.01587136,-1.044138,-2.661878,1.5794
0,2.699998,92,136,498,498,0.00648143,0.03438025,0.01927284,-1.460881,-3.131215,-1.654109,0.005719262,-0.01122918,-0.01534342,-1.044095,-2.662183,1.579643
0,2.711109,92,136,498,498,0.009622553,0.03139674,0.01760218,-1.461093,-3.131554,-1.653915,0.004792457,-0.003360439,-0.008718704,-1.044196,-2.662008,1.579562
0,2.72222,81,132,498,499,0.01270062,0.02610877,0.01655406,-1.461199,-3.131726,-1.6538,0.004438523,0.001466201,-0.001306867,-1.044277,-2.661747,1.579317
0,2.733331,81,132,498,499,0.01145559,0.01778292,0.01485739,-1.461228,-3.131738,-1.653699,0.003906915,0.00865797,0.002407867,-1.044438,-2.661449,1.579186
0,2.744442,81,132,498,499,0.010288,0.0123855,0.009411595,-1.461193,-3.131786,-1.653739,0.0050132,0.008867829,0.0009450815,-1.044539,-2.661381,1.579304
0,2.755553,81,132,498,499,0.01028392,0.01176454,0.007110966,-1.461294,-3.131912,-1.653727,0.004261782,-0.0003236607,-0.0009145912,-1.044443,-2.661655,1.579371
0,2.766664,81,132,498,499,0.009212149,0.0111621,0.004805255,-1.461321,-3.131971,-1.653745,0.003480657,-0.003216857,-0.005805657,-1.044418,-2.661816,1.579627
0,2.777775,77,150,498,497,0.01452094,0.01083986,0.005870196,-1.461551,-3.132123,-1.653657,0.006503912,-0.002043268,-0.004894257,-1.044549,-2.661903,1.579659
0,2.788886,77,150,498,497,0.01770131,0.009940965,0.00462753,-1.461802,-3.132263,-1.653639,0.00683811,-0.0004856735,-0.0005344052,-1.044664,-2.661886,1.579534
0,2.799997,77,150,498,497,0.0221348,0.01758776,0.004018819,-1.462267,-3.13269,-1.653683,0.002448974,0.004871514,0.004648235,-1.044709,-2.661621,1.579323
0,2.811108,77,150,498,497,0.0221951,0.01968823,-0.0009945866,-1.462503,-3.132958,-1.653847,0.001326861,0.02140547,0.00453861,-1.045049,-2.661023,1.57928
0,2.822219,73,127,498,500,0.026481,0.02044747,-0.005153863,-1.46285,-3.133172,-1.654001,0.002920844,0.02709984,0.00809447,-1.045214,-2.660541,1.579195
0,2.83333,73,127,498,500,0.02642589,0.01815631,-0.004532041,-1.463111,-3.133329,-1.654033,0.01331833,0.03047241,0.007903408,-1.045812,-2.660349,1.579088
0,2.844441,73,127,498,500,0.0284735,0.01498971,0.0002707244,-1.463624,-3.133461,-1.653909,0.02325269,0.02407777,0.0005737124,-1.046302,-2.660765,1.579408
0,2.855552,73,127,498,500,0.03065091,0.01850965,0.004238732,-1.463983,-3.133782,-1.653764,0.02437569,0.00540828,-0.0003536455,-1.046341,-2.661325,1.579452
0,2.866663,73,127,498,500,0.0358776,0.01258094,0.0009159102,-1.464661,-3.133812,-1.653897,0.0227546,-0.002300039,0.001234855,-1.046463,-2.661561,1.579496
0,2.877774,73,165,499,498,0.04013781,0.01210446,-0.002410275,-1.465224,-3.133956,-1.654011,0.02384367,-0.004127694,0.004931351,-1.046665,-2.661717,1.579318
0,2.888885,73,165,499,498,0.04649385,0.009517733,-0.006143697,-1.465917,-3.134048,-1.654243,0.02217223,0.01342144,0.009163758,-1.047236,-2.661032,1.579012
0,2.899997,73,165,499,498,0.04329412,0.008333275,-0.01075161,-1.466296,-3.134108,-1.654492,0.02313623,0.03068585,0.007547431,-1.047868,-2.660563,1.579087
0,2.911108,73,165,499,498,0.04010603,0.007361589,-0.01640872,-1.466662,-3.13414,-1.654931,0.02818127,0.0389743,0.01015104,-1.048592,-2.660097,1.578863
0,2.922219,72,138,498,495,0.04018624,0.01072426,-0.02226366,-1.467217,-3.134366,-1.65532,0.03565693,0.04101241,0.0114321,-1.049401,-2.659854,1.578663
0,2.93333,72,138,498,495,0.0466371,0.01107732,-0.0351776,-1.467926,-3.134424,-1.656015,0.03568301,0.04099184,0.01142448,-1.04997,-2.659582,1.578512
0,2.944441,72,138,498,495,0.05081589,0.003760129,-0.03660332,-1.468766,-3.134246,-1.656522,0.02687689,0.03717241,0.02442389,-1.049864,-2.658886,1.577553
0,2.955552,72,138,498,495,0.05918223,-0.01529078,-0.04464005,-1.469703,-3.133572,-1.657225,0.01239755,0.03879043,0.0306946,-1.049801,-2.658054,1.577044
0,2.966663,72,138,498,495,0.05914593,-0.02609442,-0.05002647,-1.470477,-3.133003,-1.657845,0.01722815,0.04111907,0.02921031,-1.05043,-2.657757,1.576735
0,2.977774,74,151,499,495,0.06017886,-0.03836618,-0.05351903,-1.471267,-3.132221,-1.658468,0.01752619,0.04705591,0.03329536,-1.05094,-2.656972,1.576166
0,2.988885,74,151,499,495,0.05808046,-0.04434317,-0.05580732,-1.471909,-3.131448,-1.659167,0.02647678,0.04441626,0.03432204,-1.051523,-2.656596,1.575679
0,2.999996,74,151,499,495,0.06029908,-0.04574373,-0.05933089,-1.472707,-3.130826,-1.659899,0.03083939,0.04976398,0.04063695,-1.052305,-2.655841,1.574929
0,3.011107,74,151,499,495,0.0647048,-0.04127131,-0.06495935,-1.473639,-3.130476,-1.660846,0.02066866,0.05038785,0.04147858,-1.052466,-2.655118,1.574228
0,3.022218,74,151,499,495,0.06583026,-0.03094051,-0.06185257,-1.474381,-3.130292,-1.661522,0.01840449,0.05010304,0.04201969,-1.052801,-2.654633,1.573711
0,3.033329,78,141,499,499,0.06800497,-0.0137147,-0.06063804,-1.475166,-3.130533,-1.662204,0.02312428,0.04621918,0.04121387,-1.053311,-2.654207,1.573196
0,3.04444,78,141,499,499,0.07011269,0.008529151,-0.05735849,-1.476002,-3.131049,-1.662834,0.03105026,0.04098267,0.03880614,-1.053925,-2.654053,1.572858
0,3.055551,78,141,499,499,0.06690744,0.01676382,-0.06011377,-1.476628,-3.131369,-1.663613,0.03314192,0.04380422,0.03839272,-1.054578,-2.653522,1.572383
0,3.066662,78,141,499,499,0.06258465,0.02500616,-0.05745476,-1.477257,-3.131693,-1.664415,0.02997993,0.0406433,0.02544794,-1.054872,-2.653209,1.572591
0,3.077773,76,136,498,501,0.05614976,0.02546794,-0.05414779,-1.47769,-3.131944,-1.664952,0.03715993,0.04091111,0.01616167,-1.055612,-2.653148,1.572707
0,3.088884,76,136,498,501,0.05292115,0.02509512,-0.05206986,-1.478166,-3.132152,-1.665463,0.03826771,0.04545432,0.01440966,-1.056456,-2.652668,1.572632
0,3.099995,76,136,498,501,0.04977174,0.01656562,-0.05268117,-1.478623,-3.132029,-1.66605,0.0425803,0.05088558,0.01833053,-1.057335,-2.652166,1.57227
0,3.111106,76,136,498,501,0.05082184,0.006825978,-0.04157331,-1.479151,-3.131993,-1.666262,0.0417015,0.05473093,0.02663197,-1.058105,-2.651505,1.571672
0,3.122217,76,136,498,501,0.05078541,-6.868271E-06,-0.02880624,-1.479732,-3.131891,-1.666366,0.03869145,0.0362937,0.0306829,-1.058336,-2.651521,1.571241
0,3.133328,74,155,498,497,0.0540577,-0.001620176,-0.03670771,-1.480403,-3.131757,-1.666873,0.03150418,0.0273512,0.02955019,-1.058417,-2.651425,1.570866
0,3.144439,74,155,498,497,0.05614066,0.001177802,-0.0339811,-1.480995,-3.132023,-1.667156,0.03035833,0.01847611,0.02060385,-1.058733,-2.65171,1.570898
0,3.15555,74,155,498,497,0.05391783,0.005388026,-0.02774812,-1.481514,-3.132216,-1.667317,0.02896339,0.01871962,0.01254417,-1.059091,-2.651701,1.570994
0,3.166661,74,155,498,497,0.05267001,0.01567516,-0.01924486,-1.482067,-3.13285,-1.667236,0.03512678,0.02077305,0.008169316,-1.059763,-2.651762,1.57083
0,3.177772,72,131,499,498,0.04825464,0.02423704,-0.01327164,-1.482429,-3.133357,-1.667266,0.04188752,0.02832254,0.008777522,-1.060609,-2.651552,1.570709
0,3.188883,72,131,499,498,0.04711537,0.0284359,-0.0124763,-1.482937,-3.133787,-1.667441,0.04390828,0.02911618,0.01352999,-1.061197,-2.65144,1.570258
0,3.199994,72,131,499,498,0.04284534,0.02674081,-0.009577825,-1.48327,-3.134054,-1.667491,0.03734043,0.02556058,0.01118232,-1.061436,-2.651226,1.570087
0,3.211105,72,131,499,498,0.0429132,0.01967333,-0.006611901,-1.483789,-3.134167,-1.667376,0.03136334,0.02100311,0.0130623,-1.061799,-2.651034,1.569942
0,3.222216,72,131,499,498,0.03878868,0.01187045,-0.0113873,-1.484132,-3.13413,-1.667553,0.03295252,0.01596651,0.0113725,-1.06228,-2.651209,1.569981
0,3.233327,71,119,498,497,0.03581284,-0.001554525,-0.01507097,-1.484476,-3.133748,-1.667765,0.02162509,0.01660675,0.01362132,-1.062329,-2.650884,1.569726
0,3.244438,71,119,498,497,0.0358998,-0.006555929,-0.01711848,-1.484788,-3.133698,-1.667973,0.01172229,0.02119303,0.008839251,-1.062359,-2.650461,1.569753
0,3.255549,71,119,498,497,0.02863706,-0.01671352,-0.02127556,-1.484974,-3.133217,-1.668253,0.0006993385,0.0320167,-0.01093475,-1.062432,-2.650124,1.570486
0,3.26666,71,119,498,497,0.02227273,-0.01929891,-0.01963293,-1.485014,-3.133011,-1.668381,0.007050239,0.03807429,-0.0170897,-1.062913,-2.650002,1.570969
0,3.277771,76,122,498,497,0.01275926,-0.02548626,-0.01652774,-1.484932,-3.132558,-1.668425,0.01362081,0.04829051,-0.007809547,-1.063617,-2.649365,1.5708
0,3.288882,76,122,498,497,0.006222994,-0.01867105,-0.01307283,-1.484779,-3.132513,-1.668418,0.0150188,0.05036414,0.007508509,-1.064125,-2.648666,1.570097
0,3.299993,76,122,498,497,0.002977015,-0.01372578,-0.01647871,-1.484723,-3.132432,-1.668687,0.01002493,0.04625098,0.01177034,-1.064306,-2.648191,1.569834
0,3.311104,76,122,498,497,0.00182705,-0.008303916,-0.01652534,-1.484727,-3.132514,-1.668906,0.00626865,0.03765365,0.01104719,-1.06431,-2.648031,1.569827
0,3.322215,76,122,498,497,0.001721385,-0.003681632,-0.01238135,-1.484767,-3.13253,-1.669003,0.002272423,0.02282025,0.002454362,-1.064094,-2.648195,1.570014
0,3.333326,76,134,498,501,0.002820395,-0.004099352,-0.015714,-1.484817,-3.13243,-1.669254,0.001310289,0.02015937,0.001417985,-1.064152,-2.648084,1.570038
0,3.344437,76,134,498,501,0.002792818,-0.00366009,-0.01237968,-1.484898,-3.132356,-1.669384,-0.001451328,0.02074884,0.00247481,-1.064136,-2.647696,1.569887
0,3.355548,76,134,498,501,-0.003486837,-0.008382148,-0.01658113,-1.484724,-3.132072,-1.669673,-0.005258704,0.03423326,0.006455342,-1.064347,-2.646904,1.569713
0,3.366659,76,134,498,501,-0.003464434,-0.009426589,-0.01678261,-1.484727,-3.131904,-1.669812,-0.003988251,0.03419828,0.009763782,-1.064569,-2.646566,1.569437
0,3.37777,76,134,498,501,-0.002275135,-0.01919595,-0.01107586,-1.484776,-3.131418,-1.669747,-0.002282908,0.02896893,0.01285115,-1.064653,-2.646264,1.569178
0,3.388881,72,132,499,497,-0.0045248,-0.01275386,-0.01092504,-1.48457,-3.131387,-1.66987,-0.003486313,0.01575276,0.01283958,-1.064431,-2.646345,1.568919
0,3.399992,72,132,499,497,-0.00358507,-0.006868711,-0.007606498,-1.484547,-3.131463,-1.66987,0.0009871887,-0.001142988,0.008215693,-1.064307,-2.646871,1.568969
0,3.411103,72,132,499,497,-0.0005285883,-0.001356644,-0.002180285,-1.484558,-3.131613,-1.669767,0.0008891686,-0.007637876,-0.003493827,-1.064202,-2.647316,1.569452
0,3.422215,72,132,499,497,-0.0007175797,0.009107384,-0.0001515223,-1.484551,-3.132109,-1.66982,0.0004967398,-0.006920579,-0.0005895046,-1.064084,-2.647148,1.569264
0,3.433326,74,119,499,497,-0.0008446779,0.01477154,0.004202955,-1.484536,-3.132446,-1.66969,-0.005533525,-0.0003800909,0.007949051,-1.063992,-2.646771,1.568932
0,3.444437,74,119,499,497,0.004357961,0.02053795,0.008590836,-1.484792,-3.132971,-1.669538,-0.00617163,0.0007893061,0.009924933,-1.063962,-2.646598,1.568704
0,3.455548,74,119,499,497,0.004370045,0.01908798,0.01047698,-1.484824,-3.133181,-1.669422,-0.004236848,0.006106989,0.01200056,-1.064054,-2.646308,1.56847
0,3.466659,74,119,499,497,0.003312873,0.01762111,0.01235212,-1.484723,-3.133385,-1.669353,-0.004492458,0.006560471,0.01107905,-1.064033,-2.646137,1.568276
0,3.47777,74,119,499,497,0.003348795,0.01532884,0.01299028,-1.48474,-3.133546,-1.669201,-0.007022835,0.008937087,0.01172627,-1.064,-2.645833,1.568096
0,3.488881,73,112,499,498,0.0012662,0.01155193,0.01550016,-1.484727,-3.133609,-1.669014,-0.00406906,0.007993718,0.009215226,-1.064163,-2.645795,1.568127
0,3.499992,73,112,499,498,0.005586772,0.008691045,0.01387687,-1.484905,-3.133647,-1.668897,-0.006464018,-0.005276082,0.008250782,-1.063887,-2.646036,1.568064
0,3.511103,73,112,499,498,0.004589804,0.004086738,0.01515472,-1.484946,-3.133573,-1.668647,-0.009539149,0.0002533067,0.005705145,-1.063796,-2.645825,1.56807
0,3.522214,73,112,499,498,0.007827524,0.002251565,0.01372855,-1.485153,-3.133565,-1.668515,-0.007288101,0.00496712,0.002498156,-1.063962,-2.645506,1.568121
0,3.533325,73,121,498,493,0.01107905,-0.0008288721,0.01314835,-1.485358,-3.133528,-1.668363,-0.005587988,0.01518135,0.0119442,-1.064157,-2.644877,1.567675
0,3.544436,73,121,498,493,0.0111083,-0.001476727,0.01086245,-1.485509,-3.133435,-1.668201,-0.01864646,0.03002705,0.01676602,-1.063955,-2.643718,1.567246
0,3.555547,73,121,498,493,0.008107767,-0.009739186,0.002756561,-1.485544,-3.133114,-1.668346,-0.03989668,0.04654275,0.02717935,-1.063569,-2.642105,1.566602
0,3.566658,73,121,498,493,0.006126055,-0.01834666,0.002190156,-1.485632,-3.132682,-1.668218,-0.05611549,0.0582339,0.02773009,-1.063076,-2.640633,1.56626
0,3.577769,73,121,498,493,-0.0009786016,-0.03669714,-0.004619666,-1.485512,-3.13173,-1.668369,-0.06552991,0.06416057,0.02354062,-1.062636,-2.639299,1.566112
0,3.58888,78,114,497,498,-0.006032051,-0.05597189,-0.0007404869,-1.485414,-3.130624,-1.668167,-0.05946541,0.0554269,0.02491582,-1.062462,-2.638659,1.565839
0,3.599991,78,114,497,498,-0.005929331,-0.06244878,-0.0008926703,-1.485424,-3.129771,-1.668099,-0.05432365,0.05056099,0.02601604,-1.062264,-2.637874,1.565479
0,3.611102,78,114,497,498,-0.004983504,-0.06109515,0.009162808,-1.485438,-3.12919,-1.667644,-0.03161887,0.01387306,0.0198767,-1.062135,-2.638776,1.565406
0,3.622213,78,114,497,498,-0.002980076,-0.05517992,0.01248853,-1.485496,-3.128808,-1.667379,-0.02190551,0.0006478932,0.01183046,-1.061963,-2.639152,1.56556
0,3.633324,78,114,497,498,-0.0001982562,-0.03106054,0.01711315,-1.485531,-3.129174,-1.667096,-0.009691444,-0.01708053,0.002077708,-1.061836,-2.639975,1.565834
0,3.644435,75,116,499,496,0.001491133,-0.005061309,0.0231595,-1.485522,-3.129889,-1.666743,-0.006365888,-0.0231112,-0.003066348,-1.06163,-2.640403,1.566021
0,3.655546,75,116,499,496,0.002218947,0.01569207,0.02818763,-1.485486,-3.130647,-1.666379,-0.0004949747,-0.01398046,-0.009976221,-1.061799,-2.640588,1.566363
0,3.666657,75,116,499,496,0.005297599,0.02267976,0.03168252,-1.48558,-3.131067,-1.66601,-0.001212004,-0.006054131,-0.00339956,-1.061808,-2.640402,1.566222
0,3.677768,75,116,499,496,0.01157946,0.03011489,0.03309544,-1.48581,-3.131705,-1.665665,0.002958124,-0.009181583,-0.003661918,-1.06185,-2.64067,1.566279
0,3.688879,74,132,498,495,0.01051334,0.03175036,0.0301369,-1.485793,-3.13219,-1.665538,0.003429481,-0.00558549,0.004116564,-1.061828,-2.640655,1.566016
0,3.69999,74,132,498,495,0.01165365,0.02798189,0.02725109,-1.48593,-3.132444,-1.665343,0.004470507,-0.0184652,0.001114636,-1.061578,-2.641234,1.566088
0,3.711101,74,132,498,495,0.01076843,0.01848809,0.02003646,-1.486024,-3.132408,-1.665323,0.006283073,-0.02836177,-0.007971767,-1.061391,-2.641972,1.566449
0,3.722212,74,132,498,495,0.008731773,0.01381643,0.01589521,-1.486055,-3.132447,-1.665264,0.002815427,-0.03091825,-0.01561473,-1.061143,-2.642484,1.566872
0,3.733323,74,132,498,495,0.006744606,0.009871041,0.002140365,-1.486082,-3.132329,-1.66563,0.01260877,-0.02880118,-0.01484107,-1.061385,-2.642983,1.567034
0,3.744434,74,120,498,498,0.006756898,0.008627375,0.002988644,-1.48615,-3.132422,-1.665558,0.01983388,-0.02207481,-0.0147389,-1.061719,-2.643405,1.567264
0,3.755545,74,120,498,498,0.004591258,0.01436377,-0.004607454,-1.48611,-3.132713,-1.66585,0.02482287,-0.01564717,-0.003146905,-1.062085,-2.643428,1.566909
0,3.766656,74,120,498,498,0.00875743,0.01926552,-0.001503072,-1.486312,-3.133125,-1.665772,0.02720043,-0.01115361,-0.00158243,-1.062282,-2.64365,1.56694
0,3.777767,74,120,498,498,0.01301638,0.02156556,-0.007556052,-1.48652,-3.1334,-1.66605,0.02502711,-0.007212384,0.003425684,-1.062495,-2.643625,1.56674
0,3.788878,74,121,498,498,0.01503328,0.02953252,-0.00930736,-1.486877,-3.13396,-1.666295,0.02702084,-0.01079136,0.008461482,-1.062689,-2.643928,1.56642
0,3.799989,74,121,498,498,0.02037212,0.02917322,-0.01260995,-1.487224,-3.134267,-1.666555,0.0267297,-0.008094208,0.00620825,-1.062923,-2.644076,1.566413
0,3.8111,74,121,498,498,0.01937651,0.0268243,-0.01740522,-1.487714,-3.134465,-1.667074,0.01371079,0.002210719,0.005131133,-1.06279,-2.643743,1.566325
0,3.822211,74,121,498,498,0.02055422,0.02058071,-0.01858261,-1.488023,-3.134574,-1.667369,0.003818693,0.01350374,0.007346837,-1.062814,-2.64313,1.566159
0,3.833322,74,121,498,498,0.01860722,0.01133085,-0.02141466,-1.488171,-3.134423,-1.667685,-0.001077939,0.03782556,0.01094218,-1.063198,-2.642001,1.565926
0,3.844433,76,109,499,500,0.0175288,0.01073506,-0.01828589,-1.488333,-3.134659,-1.667881,0.007284142,0.05357207,0.006598521,-1.064003,-2.641397,1.565903
0,3.855544,76,109,499,500,0.01527926,0.01533821,-0.01417434,-1.488397,-3.134961,-1.66795,0.02028901,0.04547413,0.006339166,-1.064658,-2.641411,1.565835
0,3.866655,76,109,499,500,0.01609536,0.02649275,-0.00991221,-1.488576,-3.13569,-1.668147,0.008457935,0.02488733,-0.004223916,-1.064284,-2.641818,1.566111
0,3.877766,76,109,499,500,0.01581557,0.02980928,0.02427563,-1.488708,-3.13632,-1.667041,-0.006025141,0.006816019,-0.02749553,-1.063679,-2.642485,1.567171
0,3.888877,85,115,497,497,0.01384118,0.01101145,0.05539586,-1.488833,-3.13634,-1.665607,-0.01236924,0.002707809,-0.04609856,-1.063355,-2.642884,1.568254
0,3.899988,85,115,497,497,0.007663522,-0.002985748,0.06035311,-1.488779,-3.136093,-1.664762,-0.005475285,0.01226869,-0.0420782,-1.063649,-2.642809,1.568681
0,3.911099,85,115,497,497,0.001619518,-0.02077402,0.05054328,-1.488641,-3.135456,-1.664534,-0.004044331,0.01863097,-0.02468167,-1.063911,-2.642103,1.568362
0,3.92221,85,115,497,497,2.781674E-05,-0.04590968,0.03396084,-1.488853,-3.134366,-1.664765,-0.02069757,0.02220941,-0.02931549,-1.063408,-2.64168,1.568768
0,3.933321,85,115,497,497,-0.003632389,-0.07671401,0.01850494,-1.488823,-3.132633,-1.664786,-0.05125393,0.02851882,-0.05685655,-1.062555,-2.641373,1.570364
0,3.944432,83,122,498,503,-0.00433426,-0.09786748,0.01567701,-1.488885,-3.131124,-1.664695,-0.05834116,0.03885686,-0.05959912,-1.062179,-2.640708,1.571238
0,3.955544,83,122,498,503,-0.007034632,-0.1272448,0.01026962,-1.488912,-3.12888,-1.664507,-0.05554648,0.04707368,-0.04168332,-1.062067,-2.639787,1.571227
0,3.966655,83,122,498,503,-0.008008379,-0.140124,0.01555633,-1.488904,-3.127151,-1.66393,-0.04073299,0.06673898,-0.02032797,-1.062735,-2.638469,1.570846
0,3.977766,83,122,498,503,-0.0102951,-0.1352932,0.018649,-1.488847,-3.12581,-1.66352,-0.03884462,0.08985616,-0.004660605,-1.06319,-2.636666,1.570415
0,3.988877,83,122,498,503,-0.003139494,-0.1171541,0.02099129,-1.489082,-3.125252,-1.663128,-0.04571799,0.09991056,-0.008860055,-1.063197,-2.635291,1.570674
0,3.999988,86,133,498,498,-0.008732846,-0.1062687,0.02624656,-1.488912,-3.124393,-1.662611,-0.05917041,0.1041636,-0.01405178,-1.062916,-2.633857,1.571003
0,4.011099,86,133,498,498,-0.008906387,-0.1003458,0.02953284,-1.488784,-3.123515,-1.662078,-0.0736409,0.1144753,-0.02088547,-1.062513,-2.632291,1.571533
0.2,4.02221,86,133,498,498,-0.01445194,-0.09029821,0.03354501,-1.48863,-3.122813,-1.661507,-0.07439729,0.1268197,-0.01465015,-1.062616,-2.630452,1.571483
0.4,4.033321,86,133,498,498,-0.01340665,-0.09397253,0.03617597,-1.488594,-3.121736,-1.660937,-0.06458697,0.1313116,-0.006656132,-1.062969,-2.628767,1.571331
0.6,4.044433,82,117,499,498,-0.01552984,-0.1006438,0.03715359,-1.488415,-3.120486,-1.66043,-0.05915055,0.1239737,0.002928921,-1.063153,-2.627535,1.571046
0.8,4.055544,82,117,499,498,-0.01024116,-0.1019759,0.03916573,-1.488541,-3.119406,-1.659835,-0.05452017,0.09365194,-0.004604779,-1.06285,-2.627252,1.571321
1,4.066655,82,117,499,498,-0.0039673,-0.09310602,0.03868942,-1.488764,-3.118781,-1.659295,-0.05454116,0.06256043,-0.03691028,-1.06225,-2.627887,1.57282
1.2,4.077766,82,117,499,498,-0.003049165,-0.08770463,0.04513612,-1.488828,-3.118074,-1.658552,-0.0478879,0.04600265,-0.05782759,-1.061953,-2.628345,1.574224
1.4,4.088878,82,117,499,498,-0.00633527,-0.08331447,0.04488511,-1.488806,-3.117467,-1.657861,-0.03783923,0.04984108,-0.05511391,-1.062091,-2.627747,1.574757
1.6,4.099989,78,117,498,497,-1.164153E-05,-0.08308521,0.050434,-1.489044,-3.11668,-1.657079,-0.03544365,0.04782601,-0.04333615,-1.062034,-2.627252,1.574955
1.8,4.1111,78,117,498,497,0.007338732,-0.07614855,0.05504423,-1.489506,-3.116288,-1.656059,-0.03284768,0.04557154,-0.02438753,-1.061971,-2.626484,1.574549
2,4.122211,78,117,498,497,0.01570342,-0.05676007,0.05635834,-1.490049,-3.116289,-1.655427,-0.02658904,0.03876757,-0.02576709,-1.061915,-2.626273,1.574835
2.2,4.133323,78,117,498,497,0.0187416,-0.0381193,0.0553093,-1.49033,-3.116473,-1.654842,-0.03409207,0.03453691,-0.03671585,-1.061534,-2.626137,1.575604
2.4,4.144434,80,129,498,497,0.01875272,-0.03913349,0.05515312,-1.49065,-3.115954,-1.65429,-0.04346914,0.035872,-0.03834145,-1.061188,-2.625603,1.576189
2.6,4.155545,80,129,498,497,0.01345704,-0.04421645,0.05320267,-1.490705,-3.115422,-1.653684,-0.046802,0.03526745,-0.0315926,-1.060854,-2.625068,1.576388
2.8,4.166656,80,129,498,497,0.01466331,-0.06184424,0.04915225,-1.491027,-3.114248,-1.653125,-0.0432646,0.03568924,-0.01161603,-1.060721,-2.624335,1.575959
3,4.177768,80,129,498,497,0.01687791,-0.07070988,0.04445698,-1.491399,-3.113282,-1.652659,-0.02249467,0.04243563,0.0004884424,-1.061281,-2.623752,1.575598
3.200001,4.188879,80,129,498,497,0.01587112,-0.07172108,0.03134501,-1.491552,-3.112474,-1.652465,-0.002014946,0.04969772,0.009266199,-1.062207,-2.623221,1.575266
3.400001,4.19999,77,113,498,503,0.01910793,-0.07166722,0.02491971,-1.491912,-3.111717,-1.652267,-0.001983855,0.0518509,0.01028004,-1.062477,-2.622607,1.575267
3.600001,4.211102,77,113,498,503,0.02118579,-0.05849728,0.01743838,-1.492162,-3.111412,-1.652259,-0.01176007,0.0496616,0.009501958,-1.062392,-2.621922,1.575163
3.800001,4.222213,77,113,498,503,0.02320857,-0.03814977,0.01223593,-1.492535,-3.111454,-1.652324,-0.04354417,0.03860503,0.003259881,-1.061353,-2.621285,1.575444
4,4.233324,77,113,498,503,0.02189162,-0.003996534,0.008253478,-1.492673,-3.112263,-1.652438,-0.08844719,0.0336697,0.0282845,-1.059609,-2.619503,1.574372
4.2,4.244435,77,113,498,503,0.02069299,0.01192346,0.009848665,-1.492867,-3.112705,-1.652194,-0.1136113,0.05904317,0.06270814,-1.058715,-2.616507,1.572521
4.4,4.255547,75,134,498,498,-0.0007682107,0.01159373,0.05615327,-1.492324,-3.113032,-1.650438,-0.1251139,0.1311744,0.145028,-1.058862,-2.610456,1.568077
4.6,4.266658,75,134,498,498,-0.0136248,-0.00486674,0.1041043,-1.491862,-3.112961,-1.648065,-0.09961285,0.1703127,0.1798142,-1.059973,-2.606097,1.564851
4.8,4.277769,75,134,498,498,-0.02866453,-0.04817592,0.1466513,-1.491278,-3.111576,-1.645165,-0.09418917,0.1637418,0.09367523,-1.059934,-2.60508,1.566334
5,4.28888,75,134,498,498,-0.04053046,-0.08671869,0.1393248,-1.490604,-3.10986,-1.643751,-0.1006483,0.1292224,-0.02503186,-1.059031,-2.605878,1.570184
5.199999,4.299992,75,129,500,499,-0.04604898,-0.1119788,0.1299,-1.490167,-3.1081,-1.642541,-0.09052704,0.09258574,-0.09012614,-1.058362,-2.606671,1.572897
5.399999,4.311103,75,129,500,499,-0.04648346,-0.1700258,0.1164152,-1.489914,-3.104736,-1.641299,-0.08228787,0.07957728,-0.1110987,-1.058021,-2.60683,1.574931
5.599999,4.322214,75,129,500,499,-0.05904904,-0.2109861,0.1327757,-1.48921,-3.101652,-1.639063,-0.08221042,0.07233672,-0.1329916,-1.05756,-2.606764,1.576991
5.799999,4.333325,75,129,500,499,-0.07624616,-0.2441618,0.1634488,-1.488223,-3.098381,-1.636237,-0.08975402,0.06975193,-0.1516294,-1.056887,-2.606773,1.579469
5.999999,4.344437,75,129,500,499,-0.08493523,-0.2634057,0.1889363,-1.487355,-3.095363,-1.633222,-0.1028699,0.07909808,-0.1543546,-1.056164,-2.605867,1.581402
6.199998,4.355548,89,154,497,496,-0.09272456,-0.275005,0.2233199,-1.486413,-3.092377,-1.629583,-0.1301859,0.09756495,-0.1645025,-1.055053,-2.604532,1.583782
6.399998,4.366659,89,154,497,496,-0.09871736,-0.291894,0.2667432,-1.485515,-3.089395,-1.625673,-0.1439809,0.1073385,-0.1778098,-1.054127,-2.603445,1.586414
6.599998,4.37777,89,154,497,496,-0.1026797,-0.3020064,0.3050061,-1.484619,-3.086103,-1.620743,-0.1651505,0.101758,-0.1962161,-1.052504,-2.602864,1.589542
6.799998,4.388882,89,154,497,496,-0.1045816,-0.3107023,0.3423911,-1.483678,-3.083011,-1.61598,-0.1722548,0.07876199,-0.2145959,-1.050777,-2.603238,1.592777
6.999998,4.399993,85,130,499,498,-0.1148159,-0.3121018,0.3612872,-1.482489,-3.079938,-1.611423,-0.1481772,0.05622061,-0.2295384,-1.050072,-2.604322,1.596162
7.199997,4.411104,85,130,499,498,-0.1285433,-0.3154094,0.3820641,-1.481045,-3.076722,-1.606543,-0.1216475,0.04213454,-0.2580559,-1.049635,-2.605945,1.600369
7.399997,4.422215,85,130,499,498,-0.1423094,-0.3185979,0.395276,-1.479539,-3.073465,-1.601797,-0.09315554,0.04353788,-0.2870709,-1.04972,-2.60739,1.604859
7.599997,4.433327,85,130,499,498,-0.1657293,-0.3209117,0.3866931,-1.477417,-3.070109,-1.597759,-0.06744719,0.0703164,-0.2867882,-1.050478,-2.607754,1.608457
7.799997,4.444438,85,130,499,498,-0.1761526,-0.3206927,0.3797221,-1.475612,-3.066742,-1.593604,-0.08559282,0.08263534,-0.2807037,-1.049978,-2.607578,1.611803
7.999997,4.455549,79,108,499,497,-0.1787823,-0.3312295,0.3779789,-1.473995,-3.063025,-1.589419,-0.1519,0.09270355,-0.2750534,-1.047686,-2.606201,1.615077
8.199997,4.46666,79,108,499,497,-0.1867825,-0.3533715,0.3780822,-1.472332,-3.05869,-1.585155,-0.2216945,0.1113027,-0.2618324,-1.044731,-2.603818,1.617967
8.399997,4.477772,79,108,499,497,-0.1933526,-0.3676205,0.3737748,-1.470513,-3.054405,-1.581031,-0.2604803,0.1326147,-0.2382133,-1.042592,-2.601278,1.620343
8.599997,4.488883,79,108,499,497,-0.2061072,-0.3741103,0.3832486,-1.468342,-3.050286,-1.576519,-0.2601017,0.1723081,-0.2084555,-1.041597,-2.598017,1.621948
8.799996,4.499994,88,98,495,499,-0.2144967,-0.3895565,0.3951193,-1.466343,-3.045753,-1.571774,-0.235003,0.1936245,-0.186031,-1.041482,-2.595726,1.623698
8.999996,4.511106,88,98,495,499,-0.220929,-0.4129753,0.4116158,-1.464243,-3.040768,-1.56677,-0.2270138,0.1897065,-0.1816902,-1.040582,-2.593764,1.625762
9.199996,4.522217,88,98,495,499,-0.2333223,-0.4383654,0.42129,-1.461877,-3.035326,-1.562072,-0.2350897,0.1708892,-0.1837725,-1.038801,-2.592244,1.628106
9.399996,4.533328,88,98,495,499,-0.2462648,-0.4479453,0.4143792,-1.459464,-3.030099,-1.557678,-0.262998,0.1256216,-0.1875423,-1.035809,-2.591373,1.630655
9.599996,4.544439,88,98,495,499,-0.2656923,-0.4590561,0.3939282,-1.45684,-3.024699,-1.554185,-0.2569451,0.09750816,-0.1904284,-1.033723,-2.590643,1.633008
9.799995,4.555551,132,109,496,498,-0.2825382,-0.4628626,0.3872174,-1.453975,-3.019358,-1.550194,-0.2354426,0.06552677,-0.2129787,-1.03202,-2.591332,1.636459
9.999995,4.566662,132,109,496,498,-0.2866058,-0.4605395,0.3804859,-1.451574,-3.014177,-1.546086,-0.2225772,0.05053347,-0.23268,-1.030499,-2.591758,1.640024
10.2,4.577773,132,109,496,498,-0.2957388,-0.4329725,0.3759339,-1.44875,-3.009937,-1.542122,-0.1997007,0.06425856,-0.2623978,-1.029922,-2.591995,1.644391
10.39999,4.588884,132,109,496,498,-0.2697141,-0.3929351,0.3691899,-1.447112,-3.006505,-1.538267,-0.2099283,0.1081778,-0.238005,-1.029035,-2.589519,1.646458
10.59999,4.599996,118,130,496,497,-0.2547338,-0.3632958,0.3739919,-1.445301,-3.003113,-1.534173,-0.2322033,0.1357545,-0.2023777,-1.027526,-2.586649,1.647711
10.79999,4.611107,118,130,496,497,-0.2362653,-0.320561,0.3843623,-1.443599,-3.000841,-1.529745,-0.2798481,0.1472082,-0.1568687,-1.024834,-2.582903,1.648143
10.99999,4.622218,118,130,496,497,-0.2233428,-0.2940223,0.3907884,-1.441736,-2.998348,-1.525296,-0.3169579,0.1301945,-0.1202918,-1.021711,-2.580136,1.648694
11.19999,4.633329,118,130,496,497,-0.2035666,-0.268473,0.3951266,-1.440473,-2.996221,-1.520876,-0.3136297,0.1018996,-0.1121902,-1.019061,-2.578537,1.649875
11.39999,4.644441,118,130,496,497,-0.1905456,-0.2587171,0.3914278,-1.439298,-2.993515,-1.516773,-0.2933446,0.09242088,-0.1125983,-1.017321,-2.57714,1.651318
11.59999,4.655552,102,152,497,494,-0.1838806,-0.2599687,0.3876888,-1.437892,-2.990581,-1.512706,-0.2478224,0.08993874,-0.1305341,-1.016619,-2.576548,1.653474
11.79999,4.666663,102,152,497,494,-0.1799118,-0.2696151,0.3854173,-1.436551,-2.987387,-1.508647,-0.2307173,0.1011305,-0.1504542,-1.015674,-2.575167,1.655948
11.99999,4.677774,102,152,497,494,-0.1830037,-0.2818567,0.3741837,-1.434993,-2.983831,-1.504963,-0.2364001,0.1131114,-0.1505247,-1.014087,-2.573012,1.657636
12.19999,4.688886,102,152,497,494,-0.1822829,-0.2852835,0.3659021,-1.433479,-2.980561,-1.501205,-0.2380471,0.1328879,-0.1281226,-1.012907,-2.570326,1.658513
12.39999,4.699997,102,152,497,494,-0.1746359,-0.2924612,0.3597493,-1.432352,-2.977132,-1.497447,-0.2578261,0.1411189,-0.1057292,-1.011152,-2.567397,1.659123
12.59999,4.711108,117,151,496,494,-0.1728993,-0.2958701,0.3623005,-1.431056,-2.973723,-1.493614,-0.2799359,0.1391238,-0.1024253,-1.008919,-2.564668,1.660218
12.79999,4.722219,117,151,496,494,-0.169528,-0.297213,0.3596451,-1.429824,-2.970313,-1.490031,-0.2900298,0.1306053,-0.1288857,-1.006777,-2.562965,1.662696
12.99999,4.733331,117,151,496,494,-0.1567348,-0.2908314,0.358895,-1.428958,-2.967212,-1.486311,-0.2729991,0.1255351,-0.148535,-1.005369,-2.561595,1.665104
13.19999,4.744442,117,151,496,494,-0.1526604,-0.2848464,0.357857,-1.428007,-2.964204,-1.482742,-0.2653782,0.1212569,-0.147754,-1.003879,-2.559853,1.666789
13.39999,4.755553,132,151,505,501,-0.144352,-0.2752566,0.3528316,-1.427133,-2.961394,-1.479228,-0.2736149,0.100973,-0.1360743,-1.001563,-2.558213,1.668123
13.59999,4.766665,132,151,505,501,-0.1391327,-0.2605926,0.3480347,-1.426299,-2.958801,-1.475601,-0.2690804,0.08513308,-0.1304789,-0.999479,-2.556954,1.66957
13.79999,4.777776,132,151,505,501,-0.1353056,-0.252329,0.344937,-1.425538,-2.95605,-1.472012,-0.2595234,0.08046757,-0.1268188,-0.9977858,-2.5557,1.670952
13.99999,4.788887,132,151,505,501,-0.1361803,-0.2541392,0.3432229,-1.424459,-2.953148,-1.468521,-0.2565148,0.07880178,-0.1305959,-0.9960132,-2.554295,1.672696
14.19999,4.799998,132,151,505,501,-0.1360685,-0.2563002,0.343683,-1.423461,-2.950083,-1.465002,-0.252521,0.08102484,-0.1367435,-0.9943221,-2.552914,1.674544
14.39999,4.81111,135,136,498,497,-0.1311405,-0.2485459,0.3415298,-1.422627,-2.947455,-1.461562,-0.2346855,0.1038924,-0.1417137,-0.9936084,-2.551106,1.676355
14.59999,4.822221,135,136,498,497,-0.1147658,-0.2357999,0.3356342,-1.422227,-2.945189,-1.458148,-0.2250995,0.1240151,-0.1268228,-0.9927929,-2.548867,1.677379
14.79999,4.833332,135,136,498,497,-0.106122,-0.2147994,0.3351372,-1.421662,-2.943297,-1.454644,-0.2329105,0.1579977,-0.09763387,-0.9919189,-2.545193,1.677498
14.99999,4.844443,135,136,498,497,-0.1047352,-0.2043081,0.34145,-1.420887,-2.941113,-1.450925,-0.2390358,0.169077,-0.07108824,-0.9905745,-2.541881,1.677406
15.19999,4.855555,120,137,503,498,-0.1024688,-0.1993615,0.3432828,-1.420244,-2.938942,-1.447305,-0.2401142,0.1618197,-0.05026237,-0.9892434,-2.538887,1.67715
15.39999,4.866666,120,137,503,498,-0.101886,-0.1962345,0.3493074,-1.419625,-2.936668,-1.443489,-0.2421574,0.1408742,-0.0604149,-0.987556,-2.537264,1.678358
15.59999,4.877777,120,137,503,498,-0.1066991,-0.1960655,0.3572281,-1.418756,-2.934368,-1.439529,-0.2381964,0.1190728,-0.0828475,-0.9860716,-2.536043,1.680059
15.79999,4.888888,120,137,503,498,-0.1074774,-0.2013477,0.3629781,-1.418036,-2.931853,-1.435688,-0.2239244,0.1137965,-0.09727402,-0.9850745,-2.534734,1.68168
15.99999,4.9,120,137,503,498,-0.1188239,-0.2104254,0.3823386,-1.416973,-2.929025,-1.43129,-0.2333622,0.08991334,-0.1144158,-0.9828795,-2.533811,1.683642
16.19999,4.911111,135,120,513,499,-0.129004,-0.2239187,0.3845379,-1.415858,-2.925909,-1.427369,-0.2420993,0.06837052,-0.1368499,-0.9806712,-2.533273,1.686214
16.39999,4.922222,135,120,513,499,-0.1423511,-0.2264071,0.3749987,-1.414486,-2.923065,-1.423934,-0.2417013,0.05562103,-0.1686468,-0.9788694,-2.533251,1.689608
16.59999,4.933333,135,120,513,499,-0.1491848,-0.2174805,0.3754451,-1.413146,-2.920592,-1.420126,-0.2457537,0.05738088,-0.1745902,-0.9770648,-2.53226,1.692075
16.79999,4.944445,135,120,513,499,-0.1537723,-0.20915,0.3737622,-1.411963,-2.918193,-1.416449,-0.2537144,0.07773592,-0.1617651,-0.9753806,-2.530126,1.693368
16.99999,4.955556,166,106,498,499,-0.1540774,-0.1897676,0.3819032,-1.410671,-2.916318,-1.412226,-0.2630373,0.1048307,-0.1420593,-0.9739244,-2.527208,1.694349
17.19999,4.966667,166,106,498,499,-0.1445347,-0.1655026,0.3849387,-1.409747,-2.91487,-1.408057,-0.271144,0.1240131,-0.1162187,-0.9723516,-2.524158,1.694886
17.39999,4.977778,166,106,498,499,-0.1328537,-0.1382744,0.3922886,-1.409065,-2.913871,-1.403331,-0.2755302,0.1218759,-0.1028392,-0.9705246,-2.521651,1.695645
17.59999,4.98889,166,106,498,499,-0.1335095,-0.1251845,0.3979594,-1.407909,-2.912529,-1.398952,-0.2869345,0.1045348,-0.09655511,-0.9680878,-2.519612,1.696662
17.8,5.000001,166,106,498,499,-0.1253606,-0.1057352,0.410226,-1.407049,-2.9116,-1.39414,-0.2889007,0.0756833,-0.1058161,-0.9654918,-2.518652,1.698437
18,5.011112,172,139,496,497,-0.1274675,-0.09758244,0.4136033,-1.405895,-2.910378,-1.389642,-0.2629523,0.03039236,-0.1422555,-0.9633729,-2.519785,1.701768
18.2,5.022223,172,139,496,497,-0.1328706,-0.08940417,0.4157509,-1.4046,-2.909112,-1.385186,-0.2510351,0.01008925,-0.1655393,-0.9613106,-2.520016,1.704763
18.4,5.033335,172,139,496,497,-0.1362891,-0.07623857,0.414607,-1.403283,-2.908176,-1.380792,-0.2394006,-0.02273346,-0.19243,-0.9589979,-2.521472,1.708499
18.6,5.044446,172,139,496,497,-0.1379353,-0.06130856,0.4155302,-1.401874,-2.907497,-1.376231,-0.2488924,-0.0309009,-0.1938736,-0.9563209,-2.521349,1.711164
18.8,5.055557,172,139,496,497,-0.1346283,-0.03670727,0.4162878,-1.400629,-2.907365,-1.371631,-0.2523068,-0.01150733,-0.172066,-0.954298,-2.520109,1.712714
19,5.066669,211,118,493,498,-0.1310083,-0.01776424,0.4181226,-1.399438,-2.907375,-1.366912,-0.2580343,0.007265419,-0.1496023,-0.9522473,-2.518302,1.71371
19.2,5.07778,211,118,493,498,-0.1248986,0.02256526,0.4256606,-1.398477,-2.90831,-1.36148,-0.2683964,0.03301126,-0.1175751,-0.9502691,-2.515577,1.713975
19.4,5.088891,211,118,493,498,-0.118456,0.03623232,0.4306152,-1.397419,-2.908649,-1.356434,-0.2596316,0.04675817,-0.1016205,-0.9485807,-2.513723,1.714837
19.6,5.100002,211,118,493,498,-0.1210569,0.05018125,0.4373217,-1.396135,-2.908948,-1.351245,-0.2531815,0.04664488,-0.1050635,-0.9468907,-2.512458,1.716272
19.8,5.111114,215,101,489,498,-0.117557,0.05390286,0.4466841,-1.395051,-2.90913,-1.345933,-0.236106,0.03106764,-0.1324954,-0.9452879,-2.512676,1.719038
20,5.122225,215,101,489,498,-0.1199431,0.05401093,0.4517542,-1.3938,-2.909075,-1.340836,-0.2256225,0.01694098,-0.1456596,-0.9435058,-2.512545,1.721421
20.2,5.133336,215,101,489,498,-0.1175954,0.05668942,0.4525823,-1.392682,-2.909157,-1.33571,-0.2161311,-0.02080232,-0.1555017,-0.9412352,-2.513595,1.724093
20.40001,5.144447,215,101,489,498,-0.1266783,0.05704815,0.4531541,-1.390982,-2.909139,-1.330708,-0.2090277,-0.03343229,-0.1507624,-0.9393518,-2.513604,1.725922
20.60001,5.155559,215,101,489,498,-0.1258342,0.0614712,0.452742,-1.389731,-2.909317,-1.325593,-0.2099395,-0.04730175,-0.1566128,-0.937111,-2.514161,1.728425
20.80001,5.16667,258,91,495,498,-0.1219468,0.066492,0.4459639,-1.388461,-2.909674,-1.320582,-0.2268593,-0.04735631,-0.1540567,-0.9346651,-2.513636,1.730516
21.00001,5.177781,258,91,495,498,-0.1137682,0.08171595,0.4460771,-1.387498,-2.910391,-1.315497,-0.237409,-0.04798397,-0.1518162,-0.9321815,-2.513361,1.732608
21.20001,5.188892,258,91,495,498,-0.1047966,0.1061774,0.4475681,-1.386473,-2.911549,-1.310131,-0.2416721,-0.05222983,-0.1547785,-0.9297191,-2.513388,1.734934
21.40001,5.200004,258,91,495,498,-0.09932643,0.1255798,0.4523101,-1.385566,-2.912854,-1.30464,-0.2445005,-0.0457866,-0.1565943,-0.9274182,-2.513297,1.737242
21.60001,5.211115,232,115,495,499,-0.08130324,0.1558772,0.4702247,-1.385005,-2.914812,-1.298349,-0.2439297,-0.04007962,-0.1662941,-0.9252898,-2.513173,1.739883
21.80001,5.222226,232,115,495,499,-0.08303529,0.1653891,0.4804867,-1.384048,-2.915982,-1.292365,-0.2374955,-0.03554731,-0.1716374,-0.9234186,-2.513248,1.742527
22.00001,5.233337,232,115,495,499,-0.08207616,0.1647941,0.4842267,-1.383128,-2.916989,-1.286552,-0.24267,-0.03894854,-0.1726144,-0.9210916,-2.513164,1.745061
22.20001,5.244449,232,115,495,499,-0.0913004,0.14623,0.4744563,-1.381988,-2.917383,-1.281433,-0.2402931,-0.05257684,-0.1709131,-0.91857,-2.513477,1.747362
22.40001,5.25556,232,115,495,499,-0.1016543,0.1278543,0.4626491,-1.380714,-2.917509,-1.27645,-0.2324279,-0.05824405,-0.1746723,-0.9164278,-2.513991,1.750056
22.60001,5.266671,223,95,496,499,-0.1139856,0.09965904,0.4423042,-1.37935,-2.917069,-1.272108,-0.2314086,-0.06790569,-0.1843045,-0.9140491,-2.514702,1.753173
22.80001,5.277782,223,95,496,499,-0.1294886,0.07607779,0.42581,-1.377996,-2.916681,-1.267233,-0.2333622,-0.07493454,-0.1989278,-0.9116453,-2.515606,1.756673
23.00002,5.288894,223,95,496,499,-0.13511,0.06005747,0.4100449,-1.376579,-2.9161,-1.263114,-0.2399611,-0.06512925,-0.1965856,-0.9094072,-2.515443,1.759293
23.20002,5.300005,223,95,496,499,-0.1370528,0.05486464,0.4018575,-1.37521,-2.915773,-1.258867,-0.2436691,-0.04858887,-0.1770693,-0.9073715,-2.514739,1.761125
23.40002,5.311116,223,95,496,499,-0.1257156,0.06346542,0.3958532,-1.374235,-2.915955,-1.254462,-0.2549331,-0.02660717,-0.1582874,-0.9052367,-2.513329,1.762646
23.60002,5.322227,219,101,494,497,-0.1204442,0.06866497,0.3963951,-1.373219,-2.916202,-1.250011,-0.2611538,-0.01430643,-0.1515405,-0.9031477,-2.512408,1.764557
23.80002,5.333339,219,101,494,497,-0.1106912,0.08047156,0.4005716,-1.372347,-2.916554,-1.245228,-0.2703831,-0.01524398,-0.1433931,-0.9006651,-2.511406,1.766343
24.00002,5.34445,219,101,494,497,-0.1054074,0.08618968,0.4042006,-1.37153,-2.916854,-1.240407,-0.2793657,-0.01918049,-0.1314444,-0.8980142,-2.510426,1.767929
24.20002,5.355561,219,101,494,497,-0.1012978,0.08751166,0.3975869,-1.370635,-2.916999,-1.235998,-0.2688872,-0.02605268,-0.1171922,-0.8957244,-2.509704,1.769197
24.40002,5.366673,238,91,497,498,-0.08916751,0.09705289,0.3654738,-1.370075,-2.917676,-1.232457,-0.254272,-0.03972621,-0.1111468,-0.8934852,-2.509672,1.770757
24.60002,5.377784,238,91,497,498,-0.07974198,0.1022561,0.3563504,-1.369655,-2.918121,-1.228181,-0.2445894,-0.0392603,-0.1149432,-0.8915187,-2.509398,1.772609
24.80002,5.388895,238,91,497,498,-0.0837785,0.1201133,0.3469998,-1.368586,-2.919123,-1.224101,-0.2386594,-0.02284999,-0.1247848,-0.8899773,-2.508498,1.774681
25.00002,5.400006,238,91,497,498,-0.06767571,0.1049269,0.3399273,-1.368338,-2.919249,-1.220301,-0.2332784,-0.01847382,-0.1277528,-0.888348,-2.507756,1.776581
25.20002,5.411118,238,91,497,498,-0.07260388,0.09527508,0.3377296,-1.367547,-2.91929,-1.216461,-0.2325071,-0.02819642,-0.122551,-0.8862009,-2.507463,1.778293
25.40002,5.422229,221,82,502,499,-0.07326859,0.09014347,0.332928,-1.366855,-2.919424,-1.212805,-0.2514471,-0.03338377,-0.1136595,-0.8836102,-2.506526,1.77978
25.60003,5.43334,221,82,502,499,-0.08676651,0.09295021,0.3285406,-1.365683,-2.919671,-1.209031,-0.2654936,-0.03302248,-0.1049072,-0.8809513,-2.505341,1.781078
25.80003,5.444451,221,82,502,499,-0.07651603,0.09061655,0.3291936,-1.365235,-2.91989,-1.205203,-0.2647945,-0.02065651,-0.08266068,-0.8788719,-2.503679,1.781497
26.00003,5.455563,221,82,502,499,-0.06910107,0.09042604,0.3240118,-1.364776,-2.920181,-1.201511,-0.251838,-0.008180767,-0.0763557,-0.8772112,-2.502312,1.782286
26.20003,5.466674,227,90,500,498,-0.07335377,0.09366428,0.3188398,-1.363935,-2.920575,-1.197969,-0.2303311,-0.006681025,-0.09089711,-0.8759057,-2.502029,1.784057
26.40003,5.477785,227,90,500,498,-0.07024619,0.09503639,0.3239962,-1.36326,-2.920844,-1.194074,-0.2108047,-0.01998582,-0.09999824,-0.8743398,-2.502246,1.785929
26.60003,5.488896,227,90,500,498,-0.06336766,0.09355837,0.3179252,-1.362789,-2.921121,-1.190501,-0.2005033,-0.04096404,-0.1123508,-0.8723392,-2.503061,1.788235
26.80003,5.500008,227,90,500,498,-0.06060523,0.08972384,0.2969594,-1.362159,-2.921491,-1.187536,-0.199398,-0.03674281,-0.1097141,-0.870573,-2.502621,1.789716
27.00003,5.511119,227,90,500,498,-0.05246817,0.08935262,0.2886111,-1.361852,-2.921827,-1.184333,-0.19259,-0.02250666,-0.09006018,-0.8692137,-2.501584,1.790315
27.20003,5.52223,233,90,502,496,-0.03442305,0.09715076,0.2759874,-1.361825,-2.922698,-1.181252,-0.1931992,-0.01771343,-0.0776777,-0.8676259,-2.500576,1.791045
27.40003,5.533341,233,90,502,496,-0.02592084,0.1139051,0.2720762,-1.361554,-2.923718,-1.177915,-0.1994899,-0.008508429,-0.0708295,-0.8660099,-2.499272,1.791763
27.60003,5.544453,233,90,502,496,-0.02712497,0.1415569,0.2699336,-1.361021,-2.925376,-1.174224,-0.200707,-0.005352825,-0.073742,-0.8643838,-2.498308,1.792873
27.80003,5.555564,233,90,502,496,-0.004586861,0.1349941,0.2610278,-1.361561,-2.926172,-1.171211,-0.1995871,-0.01073706,-0.07093084,-0.8626794,-2.497584,1.79388
28.00003,5.566675,257,88,488,499,-0.01035392,0.1431321,0.2924762,-1.361502,-2.92725,-1.166348,-0.1828303,-0.02511794,-0.07810539,-0.8610692,-2.497777,1.79541
28.20004,5.577786,257,88,488,499,-0.02898815,0.1670532,0.3169759,-1.360604,-2.928599,-1.161687,-0.17281,-0.02693831,-0.08233991,-0.8596849,-2.49763,1.796861
28.40004,5.588898,257,88,488,499,-0.02003345,0.1547092,0.3183821,-1.360669,-2.929222,-1.157735,-0.158545,-0.0360738,-0.08391175,-0.8583805,-2.498011,1.798327
28.60004,5.600009,257,88,488,499,-0.002968326,0.1446398,0.2785337,-1.360946,-2.930253,-1.155367,-0.1614138,-0.02982219,-0.0799361,-0.8570031,-2.497231,1.799424
28.80004,5.61112,257,88,488,499,-0.0002957135,0.1413109,0.2573222,-1.36093,-2.93126,-1.152568,-0.1724295,-0.04486603,-0.08445156,-0.8549525,-2.497286,1.801051
29.00004,5.622231,233,84,497,497,-0.01089132,0.1476652,0.251988,-1.360264,-2.932509,-1.149178,-0.1741709,-0.05506718,-0.09069096,-0.8531463,-2.497541,1.802878
29.20004,5.633343,233,84,497,497,-0.01809473,0.1423097,0.2677449,-1.359946,-2.932979,-1.145396,-0.1728604,-0.05941922,-0.09511389,-0.851403,-2.497809,1.804642
29.40004,5.644454,233,84,497,497,-0.02889061,0.1305695,0.2782721,-1.359295,-2.933285,-1.141747,-0.17577,-0.04522379,-0.09322779,-0.8501098,-2.497132,1.805997
29.60004,5.655565,233,84,497,497,-0.04575273,0.1134972,0.2799696,-1.358517,-2.933027,-1.13851,-0.1766892,-0.0311394,-0.08865508,-0.8487931,-2.496378,1.8071
29.80004,5.666677,233,84,497,497,-0.05346304,0.09650028,0.2690647,-1.357824,-2.932953,-1.135763,-0.1840996,-0.03374286,-0.08538769,-0.8471025,-2.495935,1.808293
30.00004,5.677788,236,89,490,498,-0.05482718,0.09238601,0.2589015,-1.357299,-2.933055,-1.132969,-0.1829689,-0.03343301,-0.08051328,-0.8455079,-2.495482,1.809396
30.20004,5.688899,236,89,490,498,-0.06246494,0.09465271,0.2437258,-1.356359,-2.933532,-1.130258,-0.1696045,-0.03720204,-0.07857718,-0.8442721,-2.49562,1.81068
30.40004,5.70001,236,89,490,498,-0.06128222,0.09828603,0.2417451,-1.355651,-2.934046,-1.127281,-0.1698235,-0.04831152,-0.08213687,-0.8425805,-2.495813,1.812204
30.60004,5.711122,236,89,490,498,-0.0738181,0.1009733,0.2502376,-1.354555,-2.93427,-1.123973,-0.1781182,-0.0559752,-0.08514602,-0.8405794,-2.495814,1.8138
30.80005,5.722233,232,88,499,498,-0.08122765,0.1048793,0.2630541,-1.353561,-2.934464,-1.120366,-0.1810338,-0.07054862,-0.09089135,-0.8384473,-2.496419,1.81577
31.00005,5.733344,232,88,499,498,-0.08165987,0.1026716,0.2721841,-1.352783,-2.934492,-1.116849,-0.1807001,-0.07508371,-0.08848266,-0.836485,-2.496622,1.817296
31.20005,5.744455,232,88,499,498,-0.08422689,0.100728,0.2680227,-1.35189,-2.934644,-1.113699,-0.1876201,-0.07137673,-0.0830209,-0.8345047,-2.496108,1.818403
31.40005,5.755567,232,88,499,498,-0.07936902,0.1010618,0.2571135,-1.351128,-2.935,-1.110822,-0.1852647,-0.06481257,-0.06891306,-0.8327353,-2.495549,1.819131
31.60005,5.766678,232,88,499,498,-0.08082946,0.1023784,0.2533067,-1.350325,-2.935352,-1.107856,-0.17867,-0.06326915,-0.06654853,-0.8311331,-2.495468,1.82031
31.80005,5.777789,256,84,500,498,-0.08238956,0.1108448,0.2499129,-1.349318,-2.935853,-1.104701,-0.1648677,-0.0684127,-0.06674512,-0.829605,-2.49583,1.821593
32.00005,5.7889,256,84,500,498,-0.07336898,0.1199501,0.2501528,-1.348757,-2.936559,-1.101412,-0.1543238,-0.07828239,-0.07827447,-0.8280034,-2.496638,1.823391
32.20005,5.800012,256,84,500,498,-0.06707975,0.1275439,0.2461958,-1.348187,-2.937225,-1.098336,-0.1559398,-0.09081852,-0.08269973,-0.8259906,-2.497453,1.825238
32.40005,5.811123,256,84,500,498,-0.05642907,0.1373523,0.24295,-1.347755,-2.938235,-1.095105,-0.1641037,-0.1065844,-0.08834585,-0.8236113,-2.49831,1.827212
32.60005,5.822234,242,86,499,497,-0.04823932,0.148081,0.2469704,-1.347342,-2.939214,-1.091515,-0.1620014,-0.1092471,-0.07986978,-0.821565,-2.498729,1.828373
32.80005,5.833345,242,86,499,497,-0.04714696,0.1554082,0.2470617,-1.34677,-2.940252,-1.088118,-0.1616841,-0.1017427,-0.07703311,-0.8197918,-2.498916,1.829721
33.00005,5.844457,242,86,499,497,-0.04127297,0.1596991,0.2514626,-1.346346,-2.94123,-1.084614,-0.1649362,-0.09050196,-0.0760127,-0.8182115,-2.49876,1.83102
33.20005,5.855568,242,86,499,497,-0.03989199,0.1698672,0.2639236,-1.3459,-2.942332,-1.080614,-0.1706796,-0.07760765,-0.07555373,-0.8165598,-2.498373,1.832287
33.40005,5.866679,242,86,499,497,-0.03304127,0.1802408,0.2721367,-1.345609,-2.943696,-1.076551,-0.1776809,-0.08462736,-0.07231006,-0.8144005,-2.498473,1.833685
33.60006,5.87779,236,81,503,497,-0.03410712,0.1902131,0.2678726,-1.345015,-2.945068,-1.072892,-0.1754879,-0.1024886,-0.0793189,-0.8121603,-2.499498,1.835701
33.80006,5.888902,236,81,503,497,-0.02705264,0.1953447,0.2608896,-1.344715,-2.946537,-1.069289,-0.1713044,-0.1139139,-0.08778718,-0.8101591,-2.500701,1.837753
34.00006,5.900013,236,81,503,497,-0.02453241,0.1986083,0.2596873,-1.344375,-2.947916,-1.065633,-0.1669327,-0.1188637,-0.09410673,-0.8081618,-2.501787,1.839931
34.20006,5.911124,236,81,503,497,-0.02226713,0.2053716,0.2596429,-1.344016,-2.949452,-1.061772,-0.1646426,-0.1199841,-0.1043282,-0.8062379,-2.502749,1.842168
34.40006,5.922235,221,89,478,496,-0.0145691,0.2103693,0.260346,-1.343915,-2.950986,-1.057968,-0.1622244,-0.1220014,-0.1059748,-0.8044493,-2.503621,1.84426
34.60006,5.933347,221,89,478,496,-0.007472128,0.2150816,0.2577339,-1.343818,-2.952508,-1.054159,-0.1692123,-0.1162981,-0.1045733,-0.8024227,-2.504089,1.846199
34.80006,5.944458,221,89,478,496,-0.005061895,0.2195042,0.2604941,-1.343505,-2.954084,-1.050286,-0.1684222,-0.1105753,-0.1013616,-0.8006139,-2.504349,1.84801
35.00006,5.955569,221,89,478,496,-0.008064449,0.2253061,0.2658375,-1.343152,-2.955703,-1.046235,-0.167256,-0.1052712,-0.1011053,-0.7988524,-2.50481,1.849835
35.20006,5.966681,221,89,478,496,-0.01426354,0.2293189,0.2804056,-1.342716,-2.957122,-1.0417,-0.170716,-0.1064472,-0.1105571,-0.7970937,-2.505686,1.852381
35.40006,5.977792,254,91,489,497,-0.02535284,0.2181796,0.2827733,-1.342141,-2.958119,-1.037771,-0.1765886,-0.1196138,-0.1109404,-0.7947347,-2.506676,1.854605
35.60006,5.988903,254,91,489,497,-0.03780177,0.2134301,0.270892,-1.341293,-2.959259,-1.034203,-0.176126,-0.1253535,-0.1100043,-0.7925333,-2.507694,1.856852
35.80006,6.000014,254,91,489,497,-0.04443321,0.207788,0.2652035,-1.340562,-2.960327,-1.030502,-0.1693523,-0.1300966,-0.1099527,-0.7904859,-2.509035,1.859259
36.00006,6.011126,254,91,489,497,-0.05099896,0.2025029,0.2561056,-1.339696,-2.961334,-1.027113,-0.1700999,-0.1334937,-0.1049058,-0.7882776,-2.510016,1.861323
36.20007,6.022237,254,91,489,497,-0.0536848,0.207642,0.2538958,-1.338902,-2.962801,-1.023311,-0.1689039,-0.1331903,-0.1024109,-0.7861721,-2.510889,1.863344
36.40007,6.033348,251,92,519,498,-0.04077452,0.2168803,0.255637,-1.338602,-2.964371,-1.019364,-0.1641059,-0.1210051,-0.09569375,-0.7844517,-2.511326,1.86496
36.60007,6.044459,251,92,519,498,-0.027731,0.2242982,0.2568009,-1.338398,-2.965948,-1.015375,-0.1692401,-0.1144112,-0.09635567,-0.78253,-2.511809,1.866916
36.80007,6.055571,251,92,519,498,-0.03128237,0.227583,0.2606254,-1.33779,-2.967314,-1.011299,-0.1721382,-0.1193952,-0.0982557,-0.7803387,-2.512763,1.869143
37.00007,6.066682,251,92,519,498,-0.03095222,0.236759,0.2760848,-1.337354,-2.968931,-1.006694,-0.1757737,-0.1262875,-0.09768862,-0.7780441,-2.513629,1.871256
37.20007,6.077793,238,89,497,496,-0.02886251,0.2432996,0.2880054,-1.337016,-2.97039,-1.002022,-0.176825,-0.1421998,-0.09640525,-0.7755967,-2.514908,1.873444
37.40007,6.088904,238,89,497,496,-0.02866167,0.2379849,0.2803271,-1.336572,-2.971689,-0.9980803,-0.1792046,-0.151248,-0.09848052,-0.7730997,-2.516174,1.875844
37.60007,6.100016,238,89,497,496,-0.02837637,0.2378677,0.2697321,-1.336112,-2.973194,-0.9944015,-0.1719618,-0.1432568,-0.09472441,-0.7711609,-2.516906,1.877746
37.80007,6.111127,238,89,497,496,-0.03001022,0.2251148,0.2533942,-1.335649,-2.974299,-0.991171,-0.1569989,-0.1463017,-0.0955587,-0.7692893,-2.518412,1.87996
38.00007,6.122238,238,89,497,496,-0.04305476,0.2173269,0.2504951,-1.3347,-2.975301,-0.9876514,-0.1480179,-0.1510418,-0.1022553,-0.767359,-2.520233,1.882567
38.20007,6.133349,230,90,503,498,-0.05268484,0.2089993,0.2525546,-1.33383,-2.976078,-0.9839853,-0.1588015,-0.1634078,-0.1194613,-0.7648807,-2.52223,1.885976
38.40007,6.144461,230,90,503,498,-0.06680635,0.2036297,0.2533045,-1.332801,-2.976886,-0.980242,-0.1759026,-0.1728464,-0.1262644,-0.7619916,-2.523875,1.889262
38.60007,6.155572,230,90,503,498,-0.0708586,0.1984562,0.2489672,-1.331827,-2.977682,-0.9767729,-0.1938913,-0.1704295,-0.1078237,-0.7590547,-2.524256,1.891072
38.80008,6.166683,230,90,503,498,-0.07372621,0.2023857,0.2515302,-1.330957,-2.978667,-0.9729566,-0.1955326,-0.163857,-0.08954837,-0.7564794,-2.524618,1.892343
39.00008,6.177794,280,97,500,497,-0.06641495,0.2028128,0.2480674,-1.330319,-2.979733,-0.9693379,-0.1927034,-0.1536246,-0.07045749,-0.7540048,-2.524848,1.89341
39.20008,6.188906,280,97,500,497,-0.05796602,0.2207269,0.2459503,-1.329833,-2.981465,-0.9652973,-0.1705439,-0.1359497,-0.07390528,-0.7526189,-2.525561,1.89511
39.40008,6.200017,280,97,500,497,-0.03726077,0.226403,0.2491479,-1.329935,-2.982845,-0.9611721,-0.144142,-0.1263964,-0.09200555,-0.7515813,-2.527583,1.897848
39.60008,6.211128,280,97,500,497,-0.02268019,0.2408988,0.2575996,-1.329897,-2.98462,-0.9567481,-0.1267023,-0.1226124,-0.1073268,-0.7504282,-2.529372,1.900633
39.80008,6.222239,280,97,500,497,-0.005093843,0.2539146,0.2666939,-1.330086,-2.986304,-0.9522436,-0.135021,-0.1243594,-0.1071604,-0.7485405,-2.530251,1.902692
40.00008,6.233351,255,94,503,498,0.01637053,0.2552775,0.2496723,-1.330541,-2.988263,-0.9485711,-0.1446337,-0.1404118,-0.09320636,-0.7460569,-2.531377,1.904588
40.20008,6.244462,255,94,503,498,0.02530491,0.2542425,0.2373941,-1.330818,-2.99007,-0.9448986,-0.1503664,-0.1490931,-0.08352719,-0.7436584,-2.532243,1.906255
40.40008,6.255573,255,94,503,498,0.03330436,0.2532025,0.2273366,-1.331157,-2.991931,-0.9413257,-0.1584556,-0.1588537,-0.0724527,-0.7412317,-2.53338,1.907986
40.60008,6.266685,255,94,503,498,0.03617877,0.2545595,0.2263028,-1.331358,-2.993755,-0.9374284,-0.1611649,-0.1556491,-0.0783259,-0.7390895,-2.534458,1.910225
40.80008,6.277796,248,103,510,497,0.02955312,0.2505586,0.2361585,-1.331378,-2.995145,-0.9333969,-0.161088,-0.1592343,-0.09075873,-0.7369238,-2.536146,1.913115
41.00008,6.288907,248,103,510,497,0.02268109,0.2457315,0.2475739,-1.33134,-2.996318,-0.9292243,-0.1702624,-0.1588028,-0.0969144,-0.7345755,-2.537309,1.915722
41.20008,6.300018,248,103,510,497,0.02288702,0.2393523,0.2451328,-1.331555,-2.997572,-0.9255545,-0.1752818,-0.1576331,-0.09510665,-0.7323464,-2.538186,1.917865
41.40009,6.31113,248,103,510,497,0.02184138,0.230873,0.2377913,-1.331658,-2.998807,-0.9220668,-0.1769704,-0.1504258,-0.08450305,-0.7301311,-2.538745,1.919609
41.60009,6.322241,248,103,510,497,0.01981255,0.2225765,0.2326897,-1.331664,-2.999964,-0.9184651,-0.1734784,-0.139915,-0.07531048,-0.7283074,-2.539309,1.921
41.80009,6.333352,243,98,508,498,0.003978878,0.2185709,0.2400181,-1.331282,-3.000838,-0.9146414,-0.1675232,-0.131452,-0.0778529,-0.7265668,-2.540036,1.922951
42.00009,6.344463,243,98,508,498,-0.001084238,0.2141322,0.2447594,-1.331254,-3.001605,-0.9109151,-0.1605265,-0.1346647,-0.08587706,-0.7247345,-2.5416,1.925545
42.20009,6.355575,243,98,508,498,-0.01053372,0.2086831,0.2462535,-1.330872,-3.002303,-0.9072745,-0.1502827,-0.1336485,-0.09637636,-0.7231387,-2.543167,1.928262
42.40009,6.366686,243,98,508,498,-0.01626447,0.1937477,0.2406532,-1.330597,-3.002789,-0.9041491,-0.1502265,-0.1378768,-0.1011363,-0.7213955,-2.544648,1.930856
42.60009,6.377797,243,98,508,498,-0.01463151,0.1911193,0.2311468,-1.330421,-3.003695,-0.9009799,-0.1545155,-0.1439317,-0.09387687,-0.7191622,-2.545745,1.932927
42.80009,6.388908,337,103,509,499,0.01893944,0.1969006,0.2209173,-1.331468,-3.005141,-0.8978214,-0.1611764,-0.1281485,-0.08005534,-0.7172995,-2.545716,1.934205
43.00009,6.40002,337,103,509,499,0.02108473,0.190793,0.2188798,-1.331636,-3.005943,-0.8946874,-0.1556139,-0.1162529,-0.07084782,-0.7157464,-2.546043,1.935558
43.20009,6.411131,337,103,509,499,0.02971745,0.2157555,0.2237837,-1.332055,-3.007728,-0.8906,-0.1665321,-0.1045887,-0.07668501,-0.7140681,-2.546156,1.937471
43.40009,6.422242,337,103,509,499,0.03841516,0.2181799,0.2463016,-1.332694,-3.008796,-0.8863405,-0.1757725,-0.1067918,-0.08084197,-0.7119296,-2.546612,1.939708
43.60009,6.433353,295,121,514,496,0.03373203,0.2253174,0.2622187,-1.332997,-3.00982,-0.8819521,-0.1838334,-0.1251064,-0.08620179,-0.7094432,-2.547743,1.942359
43.80009,6.444465,295,121,514,496,0.0265213,0.2245457,0.2593774,-1.332944,-3.010933,-0.8781933,-0.1703516,-0.1319948,-0.08802831,-0.7074671,-2.549254,1.944762
44.0001,6.455576,295,121,514,496,0.03459021,0.2183886,0.2447127,-1.333509,-3.012094,-0.8749304,-0.1400351,-0.1217678,-0.08964713,-0.7065654,-2.550683,1.946807
44.2001,6.466687,295,121,514,496,0.04188398,0.2150371,0.2393099,-1.334034,-3.013058,-0.871463,-0.1393505,-0.1134621,-0.1131766,-0.7053483,-2.552227,1.950034
44.4001,6.477798,295,121,514,496,0.03958139,0.2178132,0.2433261,-1.334321,-3.01411,-0.8674864,-0.1443015,-0.1048654,-0.1189453,-0.7041036,-2.552977,1.952636
44.6001,6.48891,297,114,507,498,0.04378787,0.2264189,0.2555118,-1.334899,-3.015268,-0.8632067,-0.1500657,-0.0953211,-0.1157307,-0.7027048,-2.553478,1.95486
44.8001,6.500021,297,114,507,498,0.04646963,0.2310533,0.2576624,-1.335336,-3.016467,-0.8592092,-0.1482265,-0.09522995,-0.1139748,-0.7012705,-2.554515,1.957237
45.0001,6.511132,297,114,507,498,0.04288092,0.2326857,0.2585508,-1.335655,-3.017543,-0.8551804,-0.1509133,-0.1086759,-0.1164453,-0.6994287,-2.555969,1.960112
45.2001,6.522243,297,114,507,498,0.05098514,0.2321846,0.2492709,-1.336253,-3.018872,-0.8516065,-0.1463184,-0.1270981,-0.1269778,-0.6977695,-2.558053,1.963584
45.4001,6.533355,265,103,505,498,0.06314404,0.2337171,0.2403072,-1.337101,-3.020319,-0.8478706,-0.1405942,-0.1314445,-0.1305412,-0.6961929,-2.559935,1.966767
45.6001,6.544466,265,103,505,498,0.06903552,0.2388344,0.2362055,-1.337949,-3.021814,-0.8440719,-0.1517435,-0.139937,-0.1318493,-0.6940331,-2.561546,1.969914
45.8001,6.555577,265,103,505,498,0.07813931,0.2511055,0.2319648,-1.338852,-3.023642,-0.8400228,-0.1549444,-0.1389446,-0.1312848,-0.6922365,-2.562972,1.972923
46.0001,6.566689,265,103,505,498,0.07817538,0.2594366,0.241329,-1.339604,-3.025161,-0.8356456,-0.1591496,-0.1339175,-0.1289386,-0.690595,-2.56425,1.975785
46.2001,6.5778,265,103,505,498,0.07445067,0.2659304,0.2599744,-1.340274,-3.026392,-0.830952,-0.1676667,-0.1312243,-0.1197727,-0.688589,-2.565059,1.978234
46.4001,6.588911,269,107,530,497,0.05573067,0.2692688,0.2783302,-1.340414,-3.027359,-0.826128,-0.1675055,-0.1284701,-0.1077213,-0.6867185,-2.565799,1.980341
46.60011,6.600022,269,107,530,497,0.04011172,0.2590187,0.2826667,-1.34071,-3.027211,-0.8219884,-0.163342,-0.1594512,-0.1055886,-0.684247,-2.568291,1.983592
46.80011,6.611134,269,107,530,497,0.02612695,0.2429288,0.2636112,-1.340625,-3.027939,-0.8185742,-0.1670171,-0.1722146,-0.1050928,-0.6817985,-2.570172,1.986693
47.00011,6.622245,269,107,530,497,0.01992401,0.2306676,0.2527222,-1.340749,-3.028653,-0.8150764,-0.1683733,-0.1852045,-0.11049,-0.6794576,-2.572414,1.990024
47.20011,6.633356,284,100,509,496,-0.001655072,0.2298723,0.2576745,-1.34017,-3.029051,-0.8109075,-0.1674225,-0.1706333,-0.1056521,-0.677571,-2.573554,1.992561
47.40011,6.644467,284,100,509,496,-0.008197486,0.2244865,0.2601269,-1.339997,-3.029533,-0.8069906,-0.1659669,-0.1608839,-0.1010644,-0.6758,-2.574838,1.995009
47.60011,6.655579,284,100,509,496,-0.01473266,0.2218992,0.2597383,-1.339741,-3.029996,-0.8031039,-0.1646579,-0.1541319,-0.09162072,-0.6738666,-2.575719,1.997094
47.80011,6.66669,284,100,509,496,-0.02475083,0.2160386,0.2586227,-1.339403,-3.030311,-0.7995646,-0.1493724,-0.162959,-0.09422567,-0.6720945,-2.577888,1.999929
48.00011,6.677801,284,100,509,496,-0.02927873,0.2165987,0.2627399,-1.339135,-3.030619,-0.7956231,-0.1461925,-0.1864349,-0.1097275,-0.6699251,-2.580885,2.004091
48.20011,6.688912,313,99,498,497,-0.02326566,0.228845,0.260447,-1.339005,-3.031547,-0.7914584,-0.1488626,-0.1962669,-0.1117483,-0.6675442,-2.583362,2.007696
48.40011,6.700024,313,99,498,497,-0.01796123,0.235542,0.2576581,-1.338966,-3.032521,-0.7875122,-0.1510143,-0.1865288,-0.09599524,-0.665402,-2.584611,2.009936
48.60011,6.711135,313,99,498,497,0.0005242229,0.2410723,0.2538653,-1.339463,-3.033591,-0.7835254,-0.1442531,-0.1721465,-0.08100624,-0.6636432,-2.585722,2.01174
48.80011,6.722246,313,99,498,497,0.01720998,0.2504718,0.2511953,-1.340107,-3.034919,-0.7793794,-0.142413,-0.1770653,-0.08706988,-0.6616677,-2.587918,2.014863
49.00011,6.733357,313,99,498,497,0.02897504,0.26121,0.2472587,-1.340627,-3.036309,-0.7751748,-0.1364128,-0.186601,-0.1030909,-0.6597268,-2.590751,2.01876
49.20012,6.744469,286,98,517,496,0.02946216,0.2613372,0.2492624,-1.341003,-3.037344,-0.770999,-0.1320165,-0.1928696,-0.1142172,-0.6578588,-2.593755,2.02288
49.40012,6.75558,286,98,517,496,0.03126827,0.2672952,0.2450532,-1.341452,-3.038808,-0.7668615,-0.1190419,-0.1954039,-0.1260533,-0.6563201,-2.597036,2.027047
49.60012,6.766691,286,98,517,496,0.03105283,0.2695633,0.2443389,-1.341761,-3.039958,-0.7626691,-0.1301077,-0.1959957,-0.1218204,-0.6542396,-2.599187,2.030383
49.80012,6.777802,286,98,517,496,0.02898017,0.2764306,0.2455538,-1.341994,-3.041238,-0.7583095,-0.1417048,-0.1984064,-0.1007415,-0.6518034,-2.60054,2.032697
50.00012,6.788914,286,98,517,496,0.03381518,0.2972783,0.2608213,-1.342442,-3.042704,-0.7531643,-0.1494023,-0.1943316,-0.0800878,-0.6493554,-2.60169,2.034732
50.20012,6.800025,306,98,509,496,0.03745475,0.3219532,0.2860998,-1.342902,-3.044245,-0.7473219,-0.1462927,-0.1865816,-0.07900516,-0.6473724,-2.603336,2.037373
50.40012,6.811136,306,98,509,496,0.04396942,0.3212428,0.2760067,-1.343437,-3.045719,-0.7426917,-0.1402634,-0.1812796,-0.09499586,-0.64575,-2.605652,2.040953
50.60012,6.822248,306,98,509,496,0.04913732,0.3085149,0.2495675,-1.343882,-3.047282,-0.7389526,-0.1262908,-0.1873331,-0.1073154,-0.6440876,-2.60876,2.044943
50.80012,6.833359,306,98,509,496,0.05470499,0.3014435,0.2347254,-1.344495,-3.048825,-0.7349994,-0.1179592,-0.1962189,-0.1097586,-0.6422074,-2.611747,2.048642
51.00012,6.84447,298,111,500,497,0.04794139,0.3044044,0.2289511,-1.344614,-3.050374,-0.7305397,-0.116895,-0.2003173,-0.110674,-0.6401765,-2.614518,2.052359
51.20012,6.855581,298,111,500,497,0.04441407,0.3078572,0.2308125,-1.344836,-3.051808,-0.7259857,-0.1250902,-0.2116065,-0.1119557,-0.6377919,-2.617479,2.056359
51.40012,6.866693,298,111,500,497,0.02607757,0.3185524,0.231785,-1.344471,-3.053506,-0.7213401,-0.1434255,-0.2278915,-0.09111033,-0.634504,-2.6195,2.059273
51.60012,6.877804,298,111,500,497,0.02037057,0.3269528,0.233819,-1.344451,-3.055094,-0.7166513,-0.1445222,-0.2272043,-0.08343222,-0.6321071,-2.62167,2.062247
51.80013,6.888915,298,111,500,497,0.006937325,0.3331117,0.2474767,-1.344141,-3.05631,-0.7115561,-0.1491825,-0.2139993,-0.0732639,-0.6298168,-2.623088,2.064668
52.00013,6.900026,298,103,511,496,-0.009043097,0.3406585,0.2626284,-1.343623,-3.057458,-0.7062548,-0.156264,-0.2052572,-0.07025813,-0.6274679,-2.624847,2.067654
52.20013,6.911138,298,103,511,496,-0.01354447,0.337223,0.2615583,-1.343319,-3.058585,-0.7014484,-0.1582675,-0.2116093,-0.0686987,-0.6248857,-2.626958,2.070762
52.40013,6.922249,298,103,511,496,-0.01480249,0.3177228,0.2382912,-1.342931,-3.05976,-0.6978377,-0.1547135,-0.230037,-0.07116494,-0.622091,-2.630073,2.074605
52.60013,6.93336,298,103,511,496,-0.01142365,0.3174102,0.2234824,-1.342694,-3.061339,-0.6935899,-0.1438124,-0.239295,-0.07287037,-0.6195919,-2.633219,2.078312
52.80013,6.944471,294,99,494,498,-0.01592401,0.3176177,0.2290823,-1.342378,-3.062478,-0.6889731,-0.1425817,-0.243,-0.06925017,-0.6169836,-2.635884,2.081689
53.00013,6.955583,294,99,494,498,-0.01883447,0.31683,0.2302445,-1.341982,-3.063582,-0.6844638,-0.153015,-0.2468524,-0.0665172,-0.6140535,-2.638304,2.085151
53.20013,6.966694,294,99,494,498,-0.02653077,0.3140279,0.2326628,-1.341524,-3.064586,-0.6799604,-0.150235,-0.2620886,-0.07462155,-0.6112722,-2.641941,2.089654
53.40013,6.977805,294,99,494,498,-0.02751857,0.3172267,0.2295416,-1.341004,-3.065853,-0.675408,-0.1469911,-0.2839061,-0.09265729,-0.6083166,-2.646525,2.095148
53.60013,6.988916,294,99,494,498,-0.03538069,0.3221191,0.229983,-1.340358,-3.06701,-0.6707714,-0.1315697,-0.2958211,-0.1130127,-0.6058745,-2.651663,2.101002
53.80013,7.000028,322,98,505,498,-0.03302088,0.3264675,0.2274563,-1.33995,-3.068338,-0.6661999,-0.1154815,-0.2962176,-0.1163626,-0.6038387,-2.656351,2.106025
54.00013,7.011139,322,98,505,498,-0.02959621,0.3279896,0.2244975,-1.33962,-3.069632,-0.6616688,-0.1067151,-0.278169,-0.09737898,-0.6016475,-2.65947,2.109448
54.20013,7.02225,322,98,505,498,-0.01915666,0.3320421,0.215826,-1.339591,-3.07125,-0.6572394,-0.1179016,-0.2617514,-0.07908028,-0.5990744,-2.661637,2.112392
54.40014,7.033361,322,98,505,498,-0.01292807,0.3344421,0.2067697,-1.339389,-3.072883,-0.6529064,-0.1396682,-0.2608295,-0.06455438,-0.5960261,-2.663824,2.115605
54.60014,7.044473,322,98,505,498,-0.005517751,0.3216583,0.2116427,-1.339539,-3.073771,-0.6487418,-0.1505995,-0.264102,-0.05334532,-0.5929145,-2.666388,2.118953
54.80014,7.055584,319,103,530,498,-0.01360136,0.3259363,0.2234953,-1.339068,-3.074722,-0.643833,-0.1533367,-0.2740788,-0.05662233,-0.58988,-2.669731,2.123168
55.00014,7.066695,319,103,530,498,-0.02089107,0.3475728,0.2500005,-1.338687,-3.075783,-0.6380215,-0.1449592,-0.2851116,-0.07798909,-0.5872701,-2.67445,2.128756
55.20014,7.077806,319,103,530,498,-0.02528521,0.3665675,0.269169,-1.338297,-3.076973,-0.6321029,-0.1377901,-0.280712,-0.1022793,-0.5851487,-2.678732,2.134233
55.40014,7.088918,319,103,530,498,-0.01316187,0.3529713,0.2403989,-1.338318,-3.078438,-0.6279233,-0.1437566,-0.2884367,-0.1003738,-0.5822623,-2.682632,2.139189
55.60014,7.100029,378,101,523,498,0.005340308,0.3234796,0.1963275,-1.338519,-3.080044,-0.6250311,-0.1563178,-0.2784798,-0.07807358,-0.5791481,-2.684717,2.142324
55.80014,7.11114,378,101,523,498,-0.0005779564,0.3203191,0.1966015,-1.338243,-3.081043,-0.6207749,-0.1491457,-0.2629347,-0.06721357,-0.5767832,-2.687141,2.145489
56.00014,7.122252,378,101,523,498,-0.008068502,0.3161117,0.2033792,-1.337987,-3.081931,-0.6164531,-0.1489959,-0.2517024,-0.07092001,-0.5745323,-2.689889,2.149439
56.20014,7.133363,378,101,523,498,-0.01426092,0.3037738,0.2090453,-1.337694,-3.082537,-0.6124045,-0.1501518,-0.2307732,-0.06794516,-0.572496,-2.691787,2.152579
56.40014,7.144474,378,101,523,498,-0.01836362,0.3014958,0.2088564,-1.337522,-3.083398,-0.6082058,-0.1459499,-0.2208494,-0.06563257,-0.5704635,-2.694034,2.155831
56.60014,7.155585,450,116,479,496,-0.01502311,0.2987134,0.2054334,-1.337384,-3.084354,-0.6041397,-0.1445211,-0.2249406,-0.05592844,-0.5679505,-2.696444,2.15903
56.80014,7.166697,450,116,479,496,-0.00904882,0.2929858,0.199122,-1.337578,-3.085372,-0.6003021,-0.1373247,-0.2229813,-0.05151819,-0.5658834,-2.698781,2.162237
57.00014,7.177808,450,116,479,496,-0.008377314,0.2893819,0.1933807,-1.337452,-3.086374,-0.5965555,-0.1315896,-0.2457867,-0.04632708,-0.5631169,-2.702557,2.166504
57.20015,7.188919,450,116,479,496,-0.001405686,0.2830947,0.186234,-1.337506,-3.087225,-0.5928096,-0.122633,-0.2392406,-0.03715353,-0.5608511,-2.705103,2.169419
57.40015,7.20003,370,104,522,497,0.0137198,0.2805161,0.1850004,-1.338181,-3.088246,-0.5892164,-0.1115347,-0.2115444,-0.03154605,-0.5594332,-2.706607,2.171417
57.60015,7.211142,370,104,522,497,0.02928537,0.27669,0.1791311,-1.338785,-3.08926,-0.5856376,-0.1040436,-0.1976626,-0.0404463,-0.5580052,-2.708915,2.174428
57.80015,7.222253,370,104,522,497,0.04030263,0.2753817,0.1719637,-1.339466,-3.090362,-0.5820823,-0.1042948,-0.1879759,-0.0509389,-0.5565943,-2.711447,2.177773
58.00015,7.233364,370,104,522,497,0.05895153,0.2762701,0.1661447,-1.340512,-3.091682,-0.5785121,-0.1157334,-0.191648,-0.04008321,-0.5542837,-2.713319,2.180498
58.20015,7.244475,370,104,522,497,0.07520539,0.278832,0.1569429,-1.341735,-3.093229,-0.5749674,-0.1138075,-0.1801353,-0.02815691,-0.55251,-2.714607,2.182261
58.40015,7.255587,388,98,512,497,0.09401326,0.2780382,0.1495641,-1.343228,-3.094722,-0.5715969,-0.107593,-0.1696582,-0.01938005,-0.5508764,-2.715813,2.183911
58.60015,7.266698,388,98,512,497,0.09792578,0.2701058,0.148049,-1.344281,-3.095826,-0.568334,-0.1162005,-0.1849669,-0.03249802,-0.5487071,-2.718772,2.187938
58.80015,7.277809,388,98,512,497,0.0938818,0.2653337,0.1458551,-1.345272,-3.096993,-0.5649933,-0.107764,-0.1721186,-0.03993417,-0.5474415,-2.720739,2.190678
59.00015,7.28892,388,98,512,497,0.09027113,0.263795,0.1450455,-1.346056,-3.098173,-0.5614844,-0.0851365,-0.1643844,-0.05372799,-0.5465824,-2.723706,2.194062
59.20015,7.300032,388,102,492,498,0.09395847,0.2660448,0.140945,-1.347209,-3.09945,-0.5580462,-0.09071116,-0.1634698,-0.05185134,-0.5449584,-2.725671,2.196791
59.40015,7.311143,388,102,492,498,0.1148405,0.2725592,0.1276342,-1.348679,-3.101337,-0.5546768,-0.1145458,-0.1589411,-0.04244941,-0.5429664,-2.726594,2.19905
59.60015,7.322254,388,102,492,498,0.1234209,0.2729649,0.1224781,-1.350233,-3.102932,-0.5512711,-0.1287514,-0.1622241,-0.02974934,-0.5406792,-2.727848,2.201332
59.80016,7.333365,388,102,492,498,0.1337941,0.2722457,0.1139859,-1.351766,-3.104658,-0.548094,-0.1280514,-0.1610378,-0.02512397,-0.5388209,-2.729219,2.20357
60.00016,7.344477,388,102,492,498,0.1269386,0.2657721,0.1179134,-1.352985,-3.105925,-0.5449488,-0.1197801,-0.1621546,-0.03213944,-0.5374046,-2.731441,2.206527
60.20016,7.355588,358,101,491,497,0.117835,0.2649429,0.1189786,-1.353898,-3.107257,-0.5416231,-0.09963635,-0.1732749,-0.06700663,-0.5364432,-2.73587,2.211785
60.40016,7.366699,358,101,491,497,0.08206159,0.2566112,0.1184733,-1.353915,-3.108108,-0.5387069,-0.08068806,-0.1916009,-0.08977473,-0.5352618,-2.740886,2.217372
60.60016,7.37781,358,101,491,497,0.07543935,0.2511017,0.1202324,-1.354482,-3.109077,-0.5356081,-0.06885058,-0.2117029,-0.09829438,-0.5337412,-2.746,2.222886
60.80016,7.388922,358,101,491,497,0.05380814,0.245233,0.115158,-1.354458,-3.110019,-0.5327318,-0.05828652,-0.2212625,-0.1016606,-0.5322823,-2.750757,2.227773
61.00016,7.400033,358,101,491,497,0.03431804,0.2424089,0.1132428,-1.354342,-3.110949,-0.5297688,-0.06969409,-0.21778,-0.09118707,-0.5305139,-2.753858,2.231694
61.20016,7.411144,328,98,490,496,0.01587911,0.2431398,0.115444,-1.353958,-3.111683,-0.5266859,-0.08261769,-0.2200699,-0.06492238,-0.5282199,-2.756276,2.234696
61.40016,7.422256,328,98,490,496,0.001670331,0.2395907,0.1163421,-1.35363,-3.112409,-0.5237905,-0.09024328,-0.2180235,-0.05223695,-0.5261453,-2.759025,2.238146
61.60016,7.433367,328,98,490,496,0.003338665,0.2379227,0.1147968,-1.353712,-3.113179,-0.5209399,-0.08938274,-0.2010912,-0.04233203,-0.524542,-2.760884,2.240539
61.80016,7.444478,328,98,490,496,0.008948147,0.2419447,0.112001,-1.353943,-3.11429,-0.5179006,-0.1050587,-0.1997263,-0.03499926,-0.522567,-2.76282,2.243615
62.00016,7.455589,306,91,507,499,0.01686984,0.2496268,0.1084408,-1.354166,-3.115522,-0.5146889,-0.123448,-0.2096247,-0.0134092,-0.5196589,-2.764574,2.246202
62.20016,7.466701,306,91,507,499,0.03044267,0.2455887,0.1071315,-1.35488,-3.116717,-0.511834,-0.1340223,-0.2139355,0.009412169,-0.5166964,-2.766493,2.248631
62.40017,7.477812,306,91,507,499,0.0236481,0.2504488,0.1103643,-1.354889,-3.117609,-0.5086457,-0.1311616,-0.2162908,0.01349228,-0.5142245,-2.768669,2.251347
62.60017,7.488923,306,91,507,499,0.01045552,0.2506602,0.1151929,-1.354573,-3.118281,-0.5055526,-0.1175371,-0.2262014,0.008215562,-0.5119362,-2.772419,2.255339
62.80017,7.500034,306,91,507,499,-0.01164433,0.247728,0.1165238,-1.353793,-3.118918,-0.502497,-0.09226736,-0.2311759,-0.02213389,-0.5108177,-2.77751,2.260731
63.00017,7.511146,311,83,508,499,-0.02046078,0.2476164,0.1205062,-1.35333,-3.119445,-0.4993422,-0.07460338,-0.2391818,-0.04847885,-0.5094036,-2.783,2.266588
63.20017,7.522257,311,83,508,499,-0.02637672,0.2503452,0.1198303,-1.352912,-3.1202,-0.4962183,-0.06493203,-0.2298111,-0.04096585,-0.5075666,-2.785867,2.269678
63.40017,7.533368,311,83,508,499,-0.02214947,0.2486674,0.1201548,-1.352706,-3.120931,-0.4931189,-0.06121752,-0.2235362,-0.03792466,-0.5059367,-2.789227,2.273258
63.60017,7.544479,311,83,508,499,-0.01511604,0.2521842,0.1178969,-1.352759,-3.121856,-0.4898885,-0.0676917,-0.2102103,-0.01793735,-0.503967,-2.790969,2.275139
63.80017,7.555591,462,85,496,498,-0.01755241,0.2529806,0.1213702,-1.352344,-3.122545,-0.4865782,-0.0637587,-0.2111448,-0.02183436,-0.5020692,-2.794764,2.279231
64.00017,7.566702,462,85,496,498,-0.01710519,0.2581519,0.121547,-1.352162,-3.123369,-0.4832732,-0.06209074,-0.2394934,-0.03273743,-0.4998647,-2.800378,2.285018
64.20016,7.577813,462,85,496,498,-0.01123965,0.2487515,0.1278855,-1.352227,-3.123823,-0.4803469,-0.06753425,-0.2441371,-0.02847293,-0.4976697,-2.804232,2.289236
64.40016,7.588924,462,85,496,498,-0.01750514,0.2484228,0.1274876,-1.351867,-3.124413,-0.4771841,-0.07526243,-0.2471104,-0.009698205,-0.4950374,-2.807255,2.292541
64.60016,7.600036,462,85,496,498,-0.01118562,0.2521566,0.1215378,-1.35183,-3.125478,-0.4739441,-0.07979421,-0.2480634,0.0002292842,-0.492508,-2.810336,2.295942
64.80016,7.611147,402,82,500,499,-0.004641712,0.254871,0.1217921,-1.351871,-3.12637,-0.4706732,-0.08527943,-0.2584689,-0.008499101,-0.4901106,-2.81474,2.300932
65.00015,7.622258,402,82,500,499,-0.006804138,0.2617431,0.1212752,-1.351805,-3.127213,-0.4671781,-0.09571803,-0.2779793,-0.02399731,-0.4874006,-2.82068,2.307648
65.20015,7.633369,402,82,500,499,-0.003660411,0.2633265,0.1259715,-1.351745,-3.127961,-0.4636995,-0.08041784,-0.2673544,-0.02348185,-0.4855156,-2.824903,2.312002
65.40015,7.644481,402,82,500,499,-0.00207749,0.266017,0.1291781,-1.351858,-3.12869,-0.4601889,-0.07784104,-0.2613356,-0.02409933,-0.483662,-2.828727,2.316156
65.60014,7.655592,444,85,462,495,-0.001752138,0.268304,0.1310997,-1.351905,-3.129404,-0.4567396,-0.07913867,-0.2524444,-0.0199637,-0.4816455,-2.832223,2.320105
65.80014,7.666703,444,85,462,495,0.004191607,0.2684877,0.1378426,-1.352103,-3.130013,-0.4532487,-0.08400036,-0.2482516,-0.01110461,-0.4793472,-2.835669,2.324109
66.00014,7.677814,444,85,462,495,0.01844391,0.2695562,0.1355868,-1.352784,-3.13086,-0.4497041,-0.08827566,-0.2329572,-0.008736625,-0.4774307,-2.838425,2.327449
66.20013,7.688926,444,85,462,495,0.03142872,0.2736995,0.136178,-1.353338,-3.131682,-0.446064,-0.08972876,-0.2308584,-0.007708795,-0.4753753,-2.841741,2.331311
66.40013,7.700037,444,85,462,495,0.0389249,0.2756074,0.1408809,-1.354018,-3.132335,-0.4424437,-0.09265497,-0.2354668,-0.009603329,-0.4731702,-2.845504,2.335713
66.60013,7.711148,419,89,491,499,0.03851694,0.2762128,0.1361893,-1.354389,-3.133182,-0.4390376,-0.08258039,-0.2354343,-0.01297466,-0.4712709,-2.849592,2.34011
66.80013,7.72226,419,89,491,499,0.04612699,0.3063593,0.1600546,-1.355163,-3.133904,-0.4342114,-0.07465276,-0.2421552,-0.03063015,-0.4695872,-2.854707,2.345718
67.00012,7.733371,419,89,491,499,0.05444047,0.3379849,0.196177,-1.356028,-3.134362,-0.4285383,-0.07634644,-0.261495,-0.0189841,-0.4669304,-2.85961,2.350878
67.20012,7.744482,419,89,491,499,0.05555037,0.3250131,0.1847557,-1.356685,-3.134955,-0.4248871,-0.0796819,-0.2674076,-0.01302436,-0.4645027,-2.863551,2.355313
67.40012,7.755593,419,89,491,499,0.0815824,0.2781264,0.1478143,-1.358069,-3.135873,-0.4229952,-0.08727579,-0.2716238,-0.01187121,-0.4620307,-2.868049,2.360457
67.60011,7.766705,358,99,517,499,0.08416483,0.2637972,0.138332,-1.359117,-3.136523,-0.4200348,-0.07419327,-0.2679897,-0.0123314,-0.4602624,-2.873207,2.365522
67.80011,7.777816,358,99,517,499,0.06848073,0.2738436,0.1446104,-1.359487,-3.136985,-0.4162308,-0.06199498,-0.2601358,-0.0246083,-0.4588366,-2.878245,2.37078
68.00011,7.788927,358,99,517,499,0.05137518,0.2752447,0.146414,-1.359501,-3.137434,-0.4125055,-0.0621324,-0.2615228,-0.03557029,-0.4571364,-2.883543,2.37664
68.2001,7.800038,358,99,517,499,0.03653106,0.2773488,0.1492571,-1.359656,-3.137847,-0.4088634,-0.06320819,-0.2481083,-0.02887261,-0.4552796,-2.887025,2.380658
68.4001,7.81115,412,95,508,500,0.01975349,0.2756383,0.1674979,-1.318126,-3.109572,-0.3945675,-0.0581357,-0.2330396,-0.01650544,-0.4539923,-2.889998,2.383557
68.6001,7.822261,412,95,508,500,0.01450771,0.2932731,0.1822128,-1.31888,-3.11064,-0.3903438,-0.06426349,-0.2298244,-0.02553352,-0.4523177,-2.894033,2.388212
68.80009,7.833372,412,95,508,500,0.02080709,0.2808745,0.1770119,-1.326859,-3.106923,-0.3935449,-0.07125466,-0.2362877,-0.03410991,-0.4505488,-2.89886,2.393873
69.00009,7.844483,412,95,508,500,0.0288173,0.2673586,0.1653766,-1.32824,-3.108688,-0.3903358,-0.07113338,-0.2459036,-0.04117944,-0.4488412,-2.904314,2.400009
69.20009,7.855595,412,95,508,500,0.05070773,0.2680724,0.1512889,-1.334572,-3.114131,-0.3876071,-0.06864169,-0.2576797,-0.0384417,-0.4468294,-2.909876,2.405985
69.40009,7.866706,453,107,475,497,0.04597758,0.2716141,0.1583465,-1.33566,-3.115976,-0.3839383,-0.06853893,-0.2701286,-0.03214796,-0.4446627,-2.915411,2.411789
69.60008,7.877817,453,107,475,497,0.04216763,0.2717507,0.1574182,-1.337182,-3.117358,-0.3801513,-0.08585231,-0.2843158,-0.03019305,-0.4420815,-2.920856,2.418337
69.80008,7.888928,453,107,475,497,0.0267877,0.269686,0.1604886,-1.337464,-3.117617,-0.3766413,-0.09298918,-0.2747406,-0.02724546,-0.4401497,-2.925139,2.423505
70.00008,7.90004,453,107,475,497,0.005744427,0.2689983,0.1609229,-1.337497,-3.119426,-0.3722055,-0.09839238,-0.2584742,-0.0223064,-0.4383691,-2.928322,2.427786
70.20007,7.911151,388,115,504,496,-0.01598206,0.2680907,0.1579808,-1.33605,-3.120261,-0.3681059,-0.08514395,-0.2436165,-0.03292979,-0.4372367,-2.932817,2.432867
70.40007,7.922262,388,115,504,496,-0.0219551,0.2737267,0.154582,-1.336673,-3.121244,-0.3640626,-0.07395904,-0.2491772,-0.03398979,-0.4355136,-2.938261,2.438783
70.60007,7.933373,388,115,504,496,-0.02145612,0.2754724,0.1480595,-1.336403,-3.121772,-0.360771,-0.07908304,-0.2492256,-0.04032496,-0.4338683,-2.94332,2.444823
70.80006,7.944485,388,115,504,496,-0.01355508,0.2819465,0.1427964,-1.337412,-3.123323,-0.3569259,-0.0775668,-0.2517254,-0.03148856,-0.4320563,-2.948092,2.450193
71.00006,7.955596,388,115,504,496,0.005939066,0.2806831,0.14843,-1.338732,-3.125414,-0.3529807,-0.07168564,-0.2450859,-0.01918371,-0.430207,-2.952353,2.454717
71.20006,7.966707,377,113,505,499,0.01012251,0.2844098,0.1487997,-1.339117,-3.125841,-0.3493551,-0.05885968,-0.242228,-0.01479305,-0.4285697,-2.956572,2.459161
71.40005,7.977818,377,113,505,499,0.01057869,0.2826734,0.1473692,-1.339546,-3.127072,-0.3455228,-0.05632141,-0.2546151,-0.03811923,-0.4273212,-2.963252,2.466614
71.60005,7.98893,377,113,505,499,0.009975374,0.281745,0.1465309,-1.3404,-3.127603,-0.3416665,-0.04550231,-0.2762716,-0.06036191,-0.4261234,-2.971577,2.475491
71.80005,8.000041,377,113,505,499,0.01761085,0.289702,0.1384958,-1.341664,-3.129212,-0.3378023,-0.0419938,-0.2824574,-0.04758358,-0.424273,-2.977968,2.482085
72.00005,8.011152,377,113,505,499,0.02064174,0.2925519,0.1359899,-1.342028,-3.130149,-0.3342715,-0.03142574,-0.2654313,-0.02294263,-0.4224413,-2.982693,2.486545
72.20004,8.022264,408,110,488,497,0.02439722,0.2990962,0.131531,-1.343032,-3.131423,-0.3303465,-0.03402653,-0.2630377,-0.008517504,-0.4205339,-2.987537,2.491444
72.40004,8.033375,408,110,488,497,0.0214504,0.299249,0.1305771,-1.343333,-3.132982,-0.3265286,-0.04454689,-0.2648202,0.01119762,-0.41807,-2.992181,2.496323
72.60004,8.044486,408,110,488,497,0.0130513,0.3012368,0.1300655,-1.343953,-3.134094,-0.3227128,-0.04422139,-0.263431,0.005836211,-0.4162553,-2.997587,2.501959
72.80003,8.055597,408,110,488,497,-0.003241241,0.3081571,0.1307924,-1.344557,-3.135523,-0.3186866,-0.05698496,-0.2768954,-0.009377852,-0.4144848,-3.004353,2.509864
73.00003,8.066709,384,104,498,496,-0.02649119,0.3113582,0.1391512,-1.343782,-3.1356,-0.314669,-0.05902663,-0.2801706,-0.01581912,-0.4126834,-3.010581,2.51671
73.20003,8.07782,384,104,498,496,-0.04101241,0.3193793,0.1362015,-1.343621,-3.137038,-0.3101837,-0.04556766,-0.2801448,-0.0214696,-0.4112965,-3.017272,2.523542
73.40002,8.088931,384,104,498,496,-0.03942806,0.3238592,0.1284271,-1.343239,-3.137784,-0.3061922,-0.02108309,-0.2846414,-0.02750341,-0.4101172,-3.024927,2.530833
73.60002,8.100042,384,104,498,496,-0.0146589,0.3224885,0.1182702,-1.344149,-3.139906,-0.3024477,0.00413385,-0.2881601,-0.02693228,-0.4089018,-3.032595,2.538024
73.80002,8.111154,384,104,498,496,0.009239972,0.3236228,0.1184752,-1.344909,-3.141398,-0.2985233,0.01364139,-0.2874843,-0.03654712,-0.4079265,-3.040378,2.545583
74.00002,8.122265,386,107,476,499,0.03900769,0.3199498,0.1190672,-1.346396,3.140758,-0.2947475,0.01418138,-0.2732227,-0.04364603,-0.4073273,-3.046168,2.551466
74.20001,8.133376,386,107,476,499,0.06553885,0.3186347,0.1237332,-1.348199,3.139639,-0.2909195,-0.004717737,-0.2650521,-0.03232001,-0.4057283,-3.051478,2.557232
74.40001,8.144487,386,107,476,499,0.07357889,0.3168657,0.1228435,-1.349498,3.138659,-0.2872059,-0.007992834,-0.2599471,-0.03115606,-0.4043856,-3.057437,2.563455
74.60001,8.155599,386,107,476,499,0.08449575,0.318804,0.1198786,-1.351094,3.136822,-0.2832368,-0.006833494,-0.2810072,-0.03593847,-0.4029363,-3.065883,2.571999
74.8,8.16671,371,103,503,497,0.08440629,0.3213212,0.1123871,-1.352136,3.135187,-0.2792607,-0.0005052388,-0.2920849,-0.03315442,-0.4015056,-3.07429,2.580267
75,8.177821,371,103,503,497,0.07172871,0.3212442,0.1059472,-1.352965,3.134016,-0.2756329,-0.001540214,-0.3056128,-0.03601796,-0.400002,-3.082846,2.588924
75.2,8.188932,371,103,503,497,0.06559792,0.3201661,0.1021498,-1.353514,3.133153,-0.2718661,-0.01771429,-0.3068042,-0.01123403,-0.3976328,-3.089246,2.595615
75.39999,8.200044,371,103,503,497,0.03972888,0.3233965,0.09247523,-1.353637,3.131683,-0.2681105,-0.00587666,-0.297024,0.00742732,-0.3960174,-3.095496,2.601294
75.59999,8.211155,371,103,503,497,0.03676468,0.322155,0.08462591,-1.353988,3.130077,-0.2641312,-0.001933843,-0.286956,0.00768809,-0.3946102,-3.101985,2.607612
75.79999,8.222266,362,99,495,498,0.02361867,0.3175755,0.08667777,-1.35431,3.129237,-0.2605711,-0.002964556,-0.2895309,-0.02166064,-0.3941494,-3.110196,2.616461
75.99998,8.233377,362,99,495,498,0.01292267,0.3214079,0.08438081,-1.35407,3.127788,-0.2564662,-0.008735508,-0.3106633,-0.02828651,-0.3925489,-3.119699,2.626387
76.19998,8.244489,362,99,495,498,0.006768435,0.3222293,0.08137278,-1.354377,3.12667,-0.2526951,-0.01817149,-0.312284,-0.01185226,-0.3905408,-3.126628,2.633648
76.39998,8.2556,362,99,495,498,-0.00486362,0.3250749,0.07842848,-1.354343,3.125616,-0.2486839,-0.02378848,-0.3182058,0.0105962,-0.3882111,-3.134248,2.641195
76.59998,8.266711,396,118,506,497,-0.01103503,0.3258824,0.07785919,-1.354046,3.124835,-0.2448532,-0.02973261,-0.3217257,0.02656966,-0.3858164,3.141416,2.648861
76.79997,8.277822,396,118,506,497,-0.0193612,0.327059,0.07382111,-1.353678,3.123229,-0.2408078,-0.03620404,-0.3042434,0.04646734,-0.3836124,3.13677,2.653745
76.99997,8.288934,396,118,506,497,-0.02435008,0.3260699,0.07218369,-1.353163,3.121785,-0.236852,-0.02857715,-0.2847123,0.05828823,-0.3816544,3.131258,2.658983
77.19997,8.300045,396,118,506,497,-0.02200487,0.3283076,0.06466205,-1.353263,3.120509,-0.2330586,-0.01881409,-0.2858706,0.04752365,-0.379967,3.123454,2.6666
77.39996,8.311156,396,118,506,497,-0.01320767,0.3300125,0.0638437,-1.3537,3.119324,-0.229597,-0.02103162,-0.2876776,0.03626274,-0.3783899,3.115898,2.674422
77.59996,8.322268,419,123,501,499,-0.001216948,0.3326959,0.05629718,-1.35419,3.117946,-0.2258925,-0.02512574,-0.2928067,0.03629176,-0.376572,3.109024,2.681771
77.79996,8.333379,419,123,501,499,-0.002978832,0.3332822,0.05396728,-1.354021,3.116145,-0.2216544,-0.02921429,-0.2946099,0.03744309,-0.3746652,3.101696,2.689395
77.99995,8.34449,419,123,501,499,-0.008086145,0.3347513,0.05695648,-1.353782,3.115268,-0.2177129,-0.02694663,-0.2929272,0.03225934,-0.3730897,3.094134,2.697237
78.19995,8.355601,419,123,501,499,-0.008854717,0.3350441,0.06044305,-1.354277,3.114231,-0.214361,-0.02036983,-0.2909619,0.02334701,-0.3717432,3.086449,2.704994
78.39995,8.366713,419,123,501,499,-0.004338533,0.3373446,0.05772461,-1.354285,3.113176,-0.2104307,-0.007218063,-0.2865323,0.02627423,-0.3703333,3.078849,2.712304
78.59995,8.377824,431,114,514,499,-0.000806123,0.3398571,0.05167196,-1.354699,3.111904,-0.2070139,-0.002304316,-0.2901177,0.02740369,-0.3688079,3.070735,2.720279
78.79994,8.388935,431,114,514,499,-0.00173071,0.345733,0.05043433,-1.355057,3.110451,-0.2030783,-0.000713855,-0.2960736,0.0220217,-0.3673815,3.062172,2.72893
78.99994,8.400046,431,114,514,499,-0.002379328,0.3475796,0.04517294,-1.35519,3.109233,-0.1991853,0.0006721318,-0.2906405,0.02110671,-0.3663157,3.055041,2.736078
79.19994,8.411158,431,114,514,499,-0.005221665,0.3489803,0.04323912,-1.355355,3.108088,-0.1955027,0.00393492,-0.2948574,0.009376325,-0.3653463,3.046154,2.745077
79.39993,8.422269,434,118,498,499,-0.003740102,0.3496147,0.0409318,-1.355435,3.106907,-0.1915404,0.002269506,-0.3068716,0.01323407,-0.3637607,3.037286,2.754076
79.59993,8.43338,434,118,498,499,0.007231623,0.3529864,0.03874478,-1.356118,3.105522,-0.1880139,0.004826963,-0.3195694,0.01440174,-0.362281,3.02727,2.764079
79.79993,8.444491,434,118,498,499,0.03089473,0.35623,0.04110992,-1.357193,3.104264,-0.1839754,-0.0003724694,-0.3216298,0.02576054,-0.3605558,3.018414,2.772936
79.99992,8.455603,434,118,498,499,0.05230275,0.3591004,0.04676729,-1.358672,3.102988,-0.1802853,-0.007180512,-0.3148485,0.05043216,-0.3582207,3.010876,2.78041
80.19992,8.466714,434,118,498,499,0.07506722,0.3596995,0.04693374,-1.36012,3.101825,-0.1763076,-0.01665547,-0.3036818,0.05123962,-0.3564769,3.003924,2.787785
80.39992,8.477825,383,136,513,496,0.07516295,0.3621416,0.05097741,-1.361159,3.100564,-0.1725696,-0.015459,-0.3119862,0.04572376,-0.3550835,2.994621,2.797302
80.59991,8.488936,383,136,513,496,0.08396274,0.3588384,0.05620233,-1.362779,3.099694,-0.1689019,-0.008759379,-0.312456,0.03211078,-0.3540193,2.985372,2.806717
80.79991,8.500048,383,136,513,496,0.08539557,0.3586309,0.0557041,-1.363866,3.098666,-0.1648582,0.001329631,-0.3139316,0.03191756,-0.352676,2.97622,2.815702
80.99991,8.511159,383,136,513,496,0.08255926,0.3805564,0.06227066,-1.36489,3.097265,-0.1603702,0.007103205,-0.3162591,0.04138115,-0.3509982,2.96675,2.824932
81.19991,8.52227,447,148,503,497,0.08362922,0.4237907,0.08511169,-1.366222,3.096574,-0.1541182,0.01029399,-0.3120961,0.04482669,-0.3493828,2.958086,2.833545
