ref,t,emg1,emg2,emg1raw,emg2raw,aDotS,bDotS,gDotS,aS,bS,gS,aDotSH,bDotSH,gDotSH,aSH,bSH,gSH
0,0,104,244,500,493,0.3950413,-0.01845241,-0.2722123,-1.384557,-2.998921,-1.675265,0.01330394,0.001845516,0.2413657,-0.9773657,-2.621626,1.589676
0,0.01111111,104,244,500,493,0.4149763,0.05188689,-0.2474963,-1.389357,-3.001469,-1.677681,0.02900372,0.005339742,0.2439723,-0.9780347,-2.620151,1.586507
0,0.02222222,104,244,500,493,0.4405078,0.1099328,-0.2234088,-1.394483,-3.004217,-1.679868,0.06843567,0.02126852,0.2532779,-0.9798254,-2.6186,1.582839
0,0.03333334,104,238,501,495,0.4486645,0.1562554,-0.2113959,-1.399187,-3.007378,-1.682212,0.09987542,0.04307876,0.2613841,-0.9820577,-2.616649,1.579081
0,0.04444445,104,238,501,495,0.4826914,0.2078763,-0.1666872,-1.404803,-3.011414,-1.683485,0.1437467,0.08278971,0.2930418,-0.9854346,-2.613881,1.574234
0,0.05555556,104,238,501,495,0.4988983,0.2099994,-0.1064304,-1.410219,-3.014509,-1.683411,0.1383696,0.07558215,0.3255386,-0.9868056,-2.611152,1.569016
0,0.06666667,104,238,501,495,0.5062487,0.1995208,-0.05363135,-1.415721,-3.017483,-1.682673,0.1143334,0.05585733,0.3335796,-0.9874634,-2.608709,1.56427
0,0.07777778,118,217,500,499,0.5105937,0.2108643,-0.04981947,-1.420941,-3.020622,-1.683544,0.06769761,-0.01724203,0.265329,-0.9858596,-2.609308,1.562861
0,0.08888889,118,217,500,499,0.5074019,0.2163933,-0.08183734,-1.426188,-3.02341,-1.685563,0.06037769,-0.06866728,0.1747301,-0.985083,-2.611603,1.563344
0,0.1,118,217,500,499,0.4950218,0.1863278,-0.1244452,-1.431074,-3.024694,-1.68813,0.1112129,-0.0960671,0.05686188,-0.9863054,-2.616143,1.566298
0,0.1111111,118,217,500,499,0.4879656,0.1384042,-0.1473395,-1.436319,-3.025097,-1.690405,0.17406,-0.06848443,0.02250775,-0.9893313,-2.618285,1.566826
0,0.1222222,118,217,500,499,0.4600036,0.05603098,-0.1549832,-1.440999,-3.023683,-1.69203,0.1881285,-0.01676917,0.04913006,-0.9920083,-2.617857,1.565375
0,0.1333333,118,218,500,497,0.4543999,0.007013192,-0.1596711,-1.446078,-3.022502,-1.69377,0.1838504,0.02267519,0.08714602,-0.9941649,-2.616444,1.562965
0,0.1444445,118,218,500,497,0.4422167,-0.06331921,-0.1673668,-1.450957,-3.020071,-1.695614,0.1543636,0.07465794,0.1608901,-0.9961916,-2.612532,1.558464
0,0.1555556,118,218,500,497,0.4384545,-0.1180165,-0.1837543,-1.455921,-3.01732,-1.69776,0.1010818,0.09950151,0.2116594,-0.9968649,-2.608629,1.554177
0,0.1666667,118,218,500,497,0.4244993,-0.159134,-0.1943184,-1.460808,-3.014431,-1.699955,0.06683677,0.09159289,0.1619136,-0.9971642,-2.607478,1.553499
0,0.1777778,117,243,500,502,0.412649,-0.1882941,-0.1972351,-1.465206,-3.011477,-1.70191,0.07484281,0.08242381,0.09975205,-0.9984431,-2.608125,1.554365
0,0.1888889,117,243,500,502,0.3723581,-0.2266263,-0.1959851,-1.468719,-3.007823,-1.703586,0.1043163,0.05900294,0.02844738,-1.000129,-2.610328,1.556405
0,0.2,117,243,500,502,0.3579282,-0.2349262,-0.1890708,-1.472528,-3.004915,-1.70517,0.1199047,0.03999975,0.01108075,-1.001568,-2.61161,1.556726
0,0.2111111,117,243,500,502,0.3436109,-0.2457758,-0.1815917,-1.476209,-3.00185,-1.706593,0.114493,0.0406004,0.02114757,-1.002773,-2.611472,1.556083
0,0.2222222,117,243,500,502,0.3369829,-0.2393207,-0.1675436,-1.480117,-2.999345,-1.707805,0.06795149,0.07746921,0.07129585,-1.003279,-2.608078,1.553372
0,0.2333333,112,186,500,497,0.324477,-0.226337,-0.1553802,-1.483497,-2.997197,-1.7089,0.05632918,0.09256779,0.09048548,-1.004431,-2.606275,1.551668
0,0.2444444,112,186,500,497,0.3047487,-0.2065677,-0.1329259,-1.486694,-2.995471,-1.709673,0.04000634,0.09091467,0.1006241,-1.004983,-2.604566,1.550046
0,0.2555556,112,186,500,497,0.2898671,-0.1978939,-0.1185953,-1.489657,-2.993533,-1.71038,0.04062966,0.07742808,0.06072904,-1.005784,-2.604707,1.550465
0,0.2666667,112,186,500,497,0.2663383,-0.1756664,-0.1001461,-1.492132,-2.992137,-1.710803,0.05748637,0.06793102,0.01486783,-1.00694,-2.605532,1.551689
0,0.2777778,112,186,500,497,0.2504801,-0.1574733,-0.08598857,-1.494485,-2.990916,-1.711318,0.06897578,0.06542849,-0.002011005,-1.008391,-2.6056,1.552152
0,0.2888889,110,177,500,494,0.2076724,-0.09626447,-0.05903963,-1.495884,-2.99146,-1.711468,0.07412072,0.05701762,-0.004623387,-1.009445,-2.605854,1.552287
0,0.3,110,177,500,494,0.1682843,-0.0259247,-0.03344765,-1.496679,-2.992858,-1.711569,0.06143391,0.05347998,0.0169703,-1.010038,-2.604918,1.551337
0,0.3111111,110,177,500,494,0.1412388,0.03526819,-0.01214581,-1.497524,-2.994777,-1.71147,0.05131767,0.06013565,0.04085567,-1.010752,-2.603646,1.550041
0,0.3222222,110,177,500,494,0.09739473,0.1212887,0.01901038,-1.4972,-2.998514,-1.710947,0.05101947,0.05887668,0.06332411,-1.011701,-2.60248,1.54853
0,0.3333333,102,145,499,504,0.07155909,0.1664615,0.04315133,-1.497044,-3.001802,-1.710232,0.05980127,0.05061186,0.07105879,-1.012638,-2.602128,1.547502
0,0.3444445,102,145,499,504,0.01689989,0.2301589,0.08775129,-1.495654,-3.005908,-1.708765,0.07417781,0.03496294,0.07530183,-1.013653,-2.602174,1.546352
0,0.3555556,102,145,499,504,-0.003958628,0.2434872,0.09501615,-1.494815,-3.009025,-1.707916,0.06708908,-0.01554313,0.06589794,-1.013374,-2.603501,1.545865
0,0.3666667,102,145,499,504,-0.03425472,0.2393711,0.09950832,-1.493677,-3.011626,-1.707155,0.04635111,-0.05571143,0.02864907,-1.012491,-2.605246,1.546505
0,0.3777778,102,145,499,504,-0.06139736,0.2030255,0.09792075,-1.492186,-3.012969,-1.706347,0.04121222,-0.07001609,-0.003115783,-1.012185,-2.606857,1.547511
0,0.3888889,95,170,497,498,-0.08322579,0.1469811,0.08857091,-1.490875,-3.013232,-1.705687,0.03829846,-0.07345918,-0.03962785,-1.011897,-2.608818,1.549244
0,0.4,95,170,497,498,-0.08942953,0.1123953,0.08077945,-1.489732,-3.013862,-1.704983,0.03171594,-0.05426915,-0.03296942,-1.0121,-2.609045,1.549369
0,0.4111111,95,170,497,498,-0.09199508,0.06760812,0.0706639,-1.488672,-3.013391,-1.704411,0.0232975,-0.04019534,-0.01331109,-1.012097,-2.608858,1.548901
0,0.4222222,95,170,497,498,-0.09271404,0.04638626,0.05823225,-1.487581,-3.013436,-1.704222,0.006064142,-0.0175572,0.02311965,-1.011942,-2.607361,1.547211
0,0.4333333,107,150,496,506,-0.08349673,0.01597175,0.05026557,-1.486979,-3.012737,-1.703769,-0.02583786,-0.01605284,0.03880055,-1.01089,-2.606431,1.546282
0,0.4444444,107,150,496,506,-0.07458589,-0.01055808,0.04426025,-1.486319,-3.011942,-1.703421,-0.03619175,-0.03224355,-0.006303113,-1.009853,-2.607483,1.547692
0,0.4555556,107,150,496,506,-0.07262848,-0.02588029,0.03528352,-1.485492,-3.011107,-1.703307,-0.01834289,-0.02924451,-0.06806657,-1.01007,-2.609351,1.550557
0,0.4666667,107,150,496,506,-0.06664648,-0.03707657,0.02837267,-1.485,-3.01038,-1.703071,-0.006627977,-0.0157342,-0.07465999,-1.010337,-2.610032,1.551819
0,0.4777778,107,150,496,506,-0.06020052,-0.03901986,0.02905896,-1.484488,-3.009985,-1.702573,0.002888048,-0.004569551,-0.05258902,-1.010639,-2.60993,1.551514
0,0.4888889,134,150,494,498,-0.04015109,-0.03003886,0.01812369,-1.484748,-3.009876,-1.702708,-0.01471638,0.01242176,-0.01283489,-1.010426,-2.608499,1.550461
0,0.5,134,150,494,498,-0.02775497,-0.0216914,0.01792047,-1.484679,-3.009825,-1.702576,-0.0246173,0.01657338,0.006950862,-1.010019,-2.607736,1.549867
0,0.5111111,134,150,494,498,-0.008604897,-0.01855574,0.01329647,-1.485258,-3.009703,-1.702558,-0.01588685,0.002085958,-0.004187342,-1.009863,-2.608393,1.550365
0,0.5222223,134,150,494,498,-0.002363301,-0.0146486,0.01205422,-1.485474,-3.009834,-1.702297,0.002740586,-0.008219851,-0.02656898,-1.010091,-2.609531,1.551396
0,0.5333334,134,150,494,498,0.009409448,-0.01218195,0.003949014,-1.486065,-3.009857,-1.702451,0.02739301,-0.02430473,-0.05415168,-1.010394,-2.611322,1.55284
0,0.5444446,157,178,494,501,0.02228762,-0.01092743,-0.003338142,-1.486717,-3.009754,-1.702661,0.03769681,-0.01052384,-0.05629882,-1.011106,-2.612011,1.553725
0,0.5555557,157,178,494,501,0.02867937,-0.01036082,-0.004262595,-1.487154,-3.009711,-1.702693,0.02575532,0.0175044,-0.02263874,-1.011516,-2.610754,1.552905
0,0.5666668,157,178,494,501,0.0381204,-0.005562302,-0.008585935,-1.487824,-3.009796,-1.702907,0.01561111,0.0365883,0.01439098,-1.011924,-2.609251,1.551639
0,0.577778,157,178,494,501,0.04741314,0.0003899827,-0.008295046,-1.488534,-3.010022,-1.703095,0.01577734,0.040583,0.02676564,-1.012388,-2.608505,1.550974
0,0.5888891,172,133,494,499,0.05267529,0.02410563,-0.01494571,-1.489186,-3.010916,-1.703518,0.03196983,0.02822021,0.02453604,-1.013067,-2.608751,1.550669
0,0.6000003,172,133,494,499,0.05506825,0.03755802,-0.01083528,-1.489779,-3.01156,-1.703622,0.04802954,-0.0005546026,0.0106834,-1.013511,-2.61037,1.551111
0,0.6111114,172,133,494,499,0.05170852,0.05751828,-0.003119075,-1.490159,-3.01279,-1.703615,0.05098221,-0.01381272,-0.006569485,-1.013777,-2.611501,1.551749
0,0.6222225,172,133,494,499,0.04622392,0.07711548,0.005586176,-1.490365,-3.014169,-1.70346,0.04235955,-0.02224397,-0.01592797,-1.013734,-2.612266,1.552235
0,0.6333337,172,133,494,499,0.04140126,0.08553796,0.01069174,-1.490589,-3.015381,-1.703347,0.03184115,-0.0192195,-0.01067603,-1.013725,-2.612514,1.552274
0,0.6444448,172,127,495,501,0.03848675,0.08065493,0.007385731,-1.49089,-3.016121,-1.703479,0.01614839,-0.01586701,-0.006031695,-1.01346,-2.612426,1.552199
0,0.655556,172,127,495,501,0.03544193,0.07691868,0.008701252,-1.491087,-3.016952,-1.703562,0.01658837,-0.01247158,-0.004295763,-1.013612,-2.612615,1.552233
0,0.6666671,172,127,495,501,0.02839249,0.05200955,0.0009213197,-1.49131,-3.016805,-1.703757,0.02846298,-0.01156409,-0.007810907,-1.014063,-2.613112,1.552406
0,0.6777782,172,127,495,501,0.02599386,0.0390472,-0.005254767,-1.491411,-3.016865,-1.704049,0.02982318,-0.00970269,-0.007231956,-1.014308,-2.613393,1.552512
0,0.6888894,169,115,494,499,0.01348914,0.01741822,-0.01450949,-1.491353,-3.016407,-1.704436,0.02023838,-0.01235838,-0.005454251,-1.014178,-2.613556,1.552531
0,0.7000005,169,115,494,499,0.009489818,0.01373768,-0.01862548,-1.491246,-3.016424,-1.70478,0.001515502,-0.01224596,-0.002852719,-1.013639,-2.613391,1.552464
0,0.7111117,169,115,494,499,0.004494691,0.008726079,-0.02195577,-1.491157,-3.016298,-1.705114,-0.01219839,-0.008073789,0.0003149556,-1.013227,-2.61304,1.552359
0,0.7222228,169,115,494,499,-0.005939528,0.005496291,-0.0249216,-1.490867,-3.016218,-1.70551,-0.0129641,0.001330526,-0.01073187,-1.013278,-2.612991,1.552858
0,0.7333339,169,115,494,499,-0.01690211,0.009635401,-0.02185584,-1.490283,-3.016337,-1.70569,-0.01236214,0.00643873,-0.0169987,-1.013248,-2.613012,1.553252
0,0.7444451,172,156,494,491,-0.02224527,0.008175149,-0.01674799,-1.489871,-3.016319,-1.705686,0.0007248907,0.009502161,-0.01848509,-1.013641,-2.613191,1.553548
0,0.7555562,172,156,494,491,-0.02751183,0.005672533,-0.01187244,-1.489639,-3.016271,-1.705554,0.006638384,0.01214359,-0.01141654,-1.013952,-2.61315,1.553531
0,0.7666674,172,156,494,491,-0.02527229,0.003012384,-0.009189208,-1.489502,-3.016201,-1.705608,0.0002271268,0.01249734,-0.005233685,-1.013904,-2.612875,1.5534
0,0.7777785,172,156,494,491,-0.02872985,0.006060105,-0.004145726,-1.489013,-3.016314,-1.705542,-0.01599874,-0.001883739,-0.008932375,-1.013113,-2.612971,1.553582
0,0.7888896,161,139,496,499,-0.02859786,0.004226159,-0.005655522,-1.488757,-3.016227,-1.705666,-0.02348397,-0.01837906,-0.02057045,-1.012382,-2.613577,1.554179
0,0.8000008,161,139,496,499,-0.02973866,0.004509524,-0.002322992,-1.488361,-3.016268,-1.705662,-0.01762654,-0.02597988,-0.02548612,-1.012082,-2.614265,1.554676
0,0.8111119,161,139,496,499,-0.03499593,0.002961777,-0.001615031,-1.487907,-3.016181,-1.705692,-0.009877272,-0.02231446,-0.02609784,-1.012143,-2.61455,1.555021
0,0.8222231,161,139,496,499,-0.03634296,0.008576425,-0.002521519,-1.4875,-3.016331,-1.705769,-0.004552232,-0.02080483,-0.02580257,-1.012122,-2.614935,1.555331
0,0.8333342,161,139,496,499,-0.03871314,0.01215595,0.0004737033,-1.48699,-3.016536,-1.705706,-0.003071649,-0.01300588,-0.02707558,-1.012168,-2.615003,1.555728
0,0.8444453,152,130,496,498,-0.03397273,0.02328278,0.0008719377,-1.486663,-3.016981,-1.705873,0.003003266,-0.01269775,-0.0226251,-1.012269,-2.615312,1.555889
0,0.8555565,152,130,496,498,-0.03048578,0.03651243,0.006131688,-1.486248,-3.017652,-1.705821,1.816265E-05,-0.001643549,-0.01805615,-1.012333,-2.61513,1.556044
0,0.8666676,152,130,496,498,-0.02668124,0.04526959,0.007087735,-1.486034,-3.018366,-1.705874,-0.003743735,0.008690886,-0.007273354,-1.012421,-2.614644,1.555833
0,0.8777788,152,130,496,498,-0.02349246,0.04495948,0.009228321,-1.485762,-3.018803,-1.705836,-0.007119296,0.01015562,-0.004057426,-1.012369,-2.614297,1.555885
0,0.8888899,152,130,496,498,-0.01598184,0.04454631,0.008082073,-1.485788,-3.019259,-1.705872,-0.01184393,0.00973439,-0.001404968,-1.012206,-2.614046,1.555805
0,0.900001,141,136,496,499,-0.01333614,0.03508734,0.00700937,-1.48564,-3.019358,-1.705851,-0.01834853,0.004025277,-0.001052221,-1.011811,-2.614035,1.555845
0,0.9111122,141,136,496,499,-0.01381011,0.02490426,0.003561574,-1.485546,-3.019297,-1.705924,-0.01079267,-0.004358043,-0.01333017,-1.011623,-2.614568,1.556383
0,0.9222233,141,136,496,499,-0.01183192,0.007898348,0.001825347,-1.485532,-3.018988,-1.705867,-0.007235764,-0.008169875,-0.01917813,-1.011529,-2.614971,1.55682
0,0.9333345,141,136,496,499,-0.00600779,-0.001639777,0.001844275,-1.485625,-3.018713,-1.705768,-0.001601038,-0.009167477,-0.01530909,-1.01167,-2.615229,1.556988
0,0.9444456,131,152,497,495,-0.003709617,-0.004882016,0.002200644,-1.485702,-3.018564,-1.705731,0.005216197,-0.008016951,-0.009389605,-1.011844,-2.615401,1.556936
0,0.9555568,131,152,497,495,0.0004456103,-0.00186888,-0.0003574676,-1.485754,-3.018646,-1.705793,0.0006867982,-0.01085136,-0.01321121,-1.011551,-2.61562,1.557258
0,0.9666679,131,152,497,495,0.003111187,0.007382412,0.002890721,-1.485823,-3.018996,-1.705685,-0.003857613,-0.01160637,-0.01587655,-1.011351,-2.615813,1.557525
0,0.977779,131,152,497,495,0.0005189143,0.01533223,0.005807885,-1.485695,-3.019508,-1.705525,-0.008585066,-0.008033755,-0.02244324,-1.011105,-2.615893,1.558022
0,0.9888902,131,152,497,495,0.001841518,0.02971382,0.01022161,-1.485794,-3.020248,-1.705406,-0.008794942,-0.003595859,-0.01866385,-1.011052,-2.615835,1.558157
0,1.000001,116,129,497,505,0.003611034,0.03556197,0.01376288,-1.485711,-3.020748,-1.70528,-0.001778105,-0.006812055,-0.01268593,-1.011235,-2.616036,1.558175
0,1.011112,116,129,497,505,0.002191292,0.04053481,0.02035622,-1.485634,-3.0214,-1.704951,0.003452579,-0.01526457,-0.005163838,-1.011168,-2.616377,1.557971
0,1.022224,116,129,497,505,-0.0006958358,0.03590801,0.01599973,-1.485459,-3.021706,-1.704942,0.003648927,-0.01964065,-0.00510159,-1.01105,-2.61656,1.558004
0,1.033335,116,129,497,505,-0.0008098036,0.0375082,0.01854166,-1.485522,-3.02225,-1.704798,0.003651525,-0.01964003,-0.005102099,-1.010968,-2.6168,1.558067
0,1.044446,103,140,498,502,0.0002766242,0.03827152,0.01544645,-1.485543,-3.022588,-1.70468,0.00365413,-0.01963942,-0.005102613,-1.010887,-2.617041,1.558131
0,1.055557,103,140,498,502,-0.001470579,0.02996378,0.01788748,-1.485441,-3.022859,-1.7045,0.004888091,-0.04398181,-0.02896447,-1.00993,-2.619903,1.560208
0,1.066668,103,140,498,502,0.0001285365,0.02188203,0.01056647,-1.485624,-3.022904,-1.704678,0.005861737,-0.03529931,-0.004285224,-1.010013,-2.619632,1.559325
0,1.077779,103,140,498,502,-0.0008113673,0.02023155,0.007995881,-1.485521,-3.023094,-1.704709,0.0005050953,-0.02654993,0.01121686,-1.010134,-2.618894,1.558279
0,1.08889,103,140,498,502,-0.0004435549,0.01496728,0.002408597,-1.485657,-3.023127,-1.704875,-0.006007046,-0.02816515,0.01002398,-1.009756,-2.618999,1.558146
0,1.100002,91,149,498,504,-0.001449205,0.01388282,0.00215208,-1.485622,-3.023353,-1.704873,-0.01540134,-0.02916192,0.007636777,-1.009362,-2.619407,1.558269
0,1.111113,91,149,498,504,-0.002045401,0.006011495,-0.001849367,-1.485652,-3.023184,-1.704978,-0.01762321,-0.03166131,0.003222497,-1.008902,-2.619694,1.558388
0,1.122224,91,149,498,504,-0.009448394,0.004119407,-0.0001432976,-1.485318,-3.023124,-1.704967,-0.01761254,-0.03166794,0.003215563,-1.008549,-2.619862,1.558341
0,1.133335,91,149,498,504,-0.009448926,0.004119898,-0.0001423669,-1.485211,-3.023167,-1.704949,0.001502087,-0.02619429,-0.004160104,-1.009384,-2.62072,1.558699
0,1.144446,83,138,498,499,-0.009914393,0.01169666,0.00488443,-1.485062,-3.023497,-1.704769,0.006072064,-0.02746193,0.001183264,-1.009295,-2.621072,1.558614
0,1.155557,83,138,498,499,-0.01239139,0.01685964,0.010435,-1.484899,-3.023895,-1.704516,0.0049094,-0.03164163,0.001822823,-1.009194,-2.621127,1.558647
0,1.166668,83,138,498,499,-0.007679044,0.02852916,0.01315194,-1.484875,-3.024548,-1.704405,-0.0002414603,-0.03142502,-0.002632325,-1.00889,-2.621435,1.55881
0,1.17778,83,138,498,499,-0.007972285,0.0322927,0.02056685,-1.484792,-3.025162,-1.703997,0.009346858,-0.03889867,-0.01640104,-1.008608,-2.622463,1.559003
0,1.188891,83,138,498,499,-0.004896197,0.03381705,0.02420075,-1.484862,-3.025667,-1.70371,0.01910218,-0.04857826,-0.02125879,-1.008591,-2.623613,1.559427
0,1.200002,80,179,498,498,-0.0005297102,0.03172623,0.02482785,-1.484959,-3.026112,-1.703437,0.02752664,-0.05203711,-0.01969414,-1.008707,-2.624851,1.559668
0,1.211113,80,179,498,498,0.001399575,0.03645851,0.02372683,-1.485085,-3.026679,-1.70333,0.03227738,-0.05361705,-0.01964044,-1.008778,-2.625779,1.559919
0,1.222224,80,179,498,498,0.0002078898,0.04071062,0.01922745,-1.485076,-3.027299,-1.703391,0.02678894,-0.04074018,-0.02336278,-1.008804,-2.625969,1.560135
0,1.233335,80,179,498,498,0.002029526,0.04775161,0.0175709,-1.48508,-3.028041,-1.70334,0.02804901,-0.03266505,-0.02315023,-1.009029,-2.626427,1.56043
0,1.244446,80,179,498,498,-0.006507685,0.0488539,0.01560872,-1.484588,-3.028718,-1.703348,0.02445778,-0.02685708,-0.01997995,-1.009274,-2.626879,1.56058
0,1.255558,80,162,500,496,0.01186561,0.04304178,0.01653393,-1.485187,-3.029093,-1.703199,0.01829954,-0.02294135,-0.01444369,-1.009279,-2.627242,1.560729
0,1.266669,80,162,500,496,0.01734553,0.04043565,0.01486087,-1.485481,-3.029527,-1.703111,0.0195352,-0.01480942,-0.0104113,-1.009508,-2.62733,1.560744
0,1.27778,80,162,500,496,0.01860115,0.03539184,0.01807007,-1.485591,-3.029822,-1.702929,0.02264908,-0.009715572,-0.008695798,-1.00954,-2.62747,1.560995
0,1.288891,80,162,500,496,0.01775343,0.03095672,0.01813323,-1.485782,-3.030046,-1.702776,0.02475495,-0.005088164,-0.01701515,-1.009875,-2.627847,1.561465
0,1.300002,81,169,499,496,0.01154671,0.02799972,0.0152418,-1.48558,-3.030269,-1.702718,0.02497967,-0.007508703,-0.02347029,-1.009833,-2.628734,1.561971
0,1.311113,81,169,499,496,0.00559759,0.01915303,0.01428052,-1.485503,-3.030236,-1.702556,0.02632476,-0.005632799,-0.02289255,-1.010093,-2.629083,1.562252
0,1.322224,81,169,499,496,0.003638161,0.01617548,0.01249767,-1.485452,-3.030356,-1.702481,0.02635628,-0.009689048,-0.01750548,-1.010244,-2.629351,1.562184
0,1.333336,81,169,499,496,0.002805111,0.01244936,0.009454231,-1.485539,-3.030408,-1.702525,0.02201439,-0.01479533,-0.01626245,-1.01019,-2.62977,1.56235
0,1.344447,81,169,499,496,0.003022188,0.008538391,0.007472899,-1.485509,-3.030423,-1.70247,0.003005484,-0.01447236,-0.0184403,-1.009719,-2.629859,1.562688
0,1.355558,87,146,499,497,0.001319667,-0.0001053375,0.006586554,-1.485491,-3.030135,-1.702379,-0.004398227,-0.01471767,-0.02615583,-1.009407,-2.630175,1.563204
0,1.366669,87,146,499,497,-0.002730785,-0.004691169,0.006610452,-1.485309,-3.030032,-1.702276,-0.001487346,-0.005304202,-0.0283579,-1.009559,-2.630276,1.563652
0,1.37778,87,146,499,497,-0.006028119,-0.02357038,0.002289627,-1.485194,-3.029259,-1.702228,1.094583E-05,0.00241957,-0.0196133,-1.009603,-2.63013,1.563669
0,1.388891,87,146,499,497,-0.008912154,-0.0301819,0.001856687,-1.485064,-3.028751,-1.70214,-0.002228798,0.006081593,-0.01052487,-1.009616,-2.629855,1.563508
0,1.400002,79,179,498,491,-0.01081312,-0.03617668,0.003767332,-1.484891,-3.028244,-1.701867,-0.004179453,0.009323052,0.0033051,-1.00961,-2.629093,1.562952
0,1.411114,79,179,498,491,-0.009647147,-0.03820062,0.003314623,-1.484865,-3.027772,-1.7018,-0.008662846,0.004418638,0.002179813,-1.009375,-2.629059,1.562946
0,1.422225,79,179,498,491,-0.009873549,-0.03452373,0.006339905,-1.484829,-3.027493,-1.701625,-0.008600867,0.00227457,-0.002816327,-1.009486,-2.629119,1.563315
0,1.433336,79,179,498,491,-0.01022514,-0.0265506,0.004872641,-1.484708,-3.027411,-1.701602,-0.007163379,-7.580174E-05,-0.008385833,-1.009408,-2.629306,1.563595
0,1.444447,79,179,498,491,-0.01070104,-0.01721399,0.006993992,-1.484545,-3.027458,-1.701496,-0.004454918,-0.004496419,-0.01805297,-1.009202,-2.629351,1.564215
0,1.455558,77,156,498,495,-0.005889413,-0.00611794,0.007363733,-1.484553,-3.027703,-1.701466,-0.004306096,-0.004712886,-0.01568703,-1.009191,-2.629631,1.564416
0,1.466669,77,156,498,495,-0.007162076,-0.002487086,0.01036291,-1.484603,-3.027827,-1.701364,-0.003345283,-0.0001849955,-0.01102903,-1.009238,-2.629543,1.564414
0,1.47778,77,156,498,495,-0.006211044,-0.0005939419,0.01189077,-1.484487,-3.027929,-1.701209,-0.004065942,0.006984015,-0.01322259,-1.009378,-2.629285,1.564601
0,1.488891,77,156,498,495,-0.004138551,0.0005415988,0.01216655,-1.484446,-3.027989,-1.700999,0.007541815,0.01256868,-0.009114536,-1.009865,-2.629197,1.564573
0,1.500003,77,156,498,495,-0.005452831,0.005921672,0.01228663,-1.484301,-3.028267,-1.70094,0.007845541,0.004010962,-0.01132474,-1.009677,-2.62925,1.564678
0,1.511114,78,156,499,497,-0.002406755,0.009417807,0.01200662,-1.484335,-3.028483,-1.700842,0.004933008,-0.003392771,-0.01180557,-1.009555,-2.629503,1.564831
0,1.522225,78,156,499,497,-0.003461488,0.009842839,0.009905841,-1.484205,-3.028606,-1.700898,-0.004845016,-0.01788856,-0.01250638,-1.008917,-2.629941,1.564952
0,1.533336,78,156,499,497,-0.001486504,0.0130529,0.01064651,-1.484185,-3.028834,-1.700812,-0.01426566,-0.01888492,-0.01106889,-1.008407,-2.629924,1.564979
0,1.544447,78,156,499,497,0.0007252647,0.01037052,0.01332424,-1.484219,-3.028946,-1.70059,-0.01121932,-0.01168788,-0.008214818,-1.008401,-2.629858,1.565002
0,1.555558,88,166,500,504,-0.0002640812,0.009986753,0.009958248,-1.484247,-3.028954,-1.700521,-0.004615147,-0.006192148,-0.01004039,-1.008545,-2.629898,1.565202
0,1.566669,88,166,500,504,0.0001021805,0.003195932,0.006233914,-1.484261,-3.028819,-1.700513,0.004583646,0.007187001,-0.01228076,-1.008812,-2.630079,1.565506
0,1.577781,88,166,500,504,-0.001904686,0.001728459,0.002614056,-1.484194,-3.028749,-1.700536,-0.001786633,0.02139825,-0.008721177,-1.008985,-2.629484,1.565456
0,1.588892,88,166,500,504,-0.007092955,-0.002332473,0.004937906,-1.484001,-3.028594,-1.700376,-0.007692291,0.02684261,-0.005009589,-1.00901,-2.628964,1.565418
0,1.600003,88,166,500,504,-0.006236637,0.001629035,0.006935847,-1.483937,-3.028718,-1.700254,-0.007998494,0.02537079,0.0006324495,-1.008998,-2.628749,1.565252
0,1.611114,98,158,499,500,-0.00410197,0.001959861,0.005931661,-1.483957,-3.028736,-1.700234,-0.01217393,0.0139114,-0.005400932,-1.008707,-2.628872,1.565497
0,1.622225,98,158,499,500,-0.0009255121,0.00139464,0.009105626,-1.484087,-3.028763,-1.699944,-0.01082702,0.001665524,-0.01375527,-1.008499,-2.629415,1.56595
0,1.633336,98,158,499,500,-0.003010057,2.792012E-05,0.009875163,-1.484005,-3.028738,-1.699825,-0.01276803,-0.005324977,-0.02192201,-1.008199,-2.629838,1.566522
0,1.644447,98,158,499,500,-0.004908359,-0.005961216,0.011775,-1.483945,-3.028504,-1.699763,-0.01359131,-0.008056718,-0.02690134,-1.007956,-2.630027,1.566957
0,1.655559,107,169,500,497,-0.007864298,-0.01152698,0.01158351,-1.483788,-3.028182,-1.699649,-0.01308564,-0.0108419,-0.02477865,-1.007765,-2.630206,1.567098
0,1.66667,107,169,500,497,-0.01089971,-0.01454644,0.009786019,-1.483705,-3.027904,-1.699582,-0.006425086,-0.003386565,-0.01925176,-1.007933,-2.63014,1.567147
0,1.677781,107,169,500,497,-0.01309841,-0.01406631,0.01206484,-1.483466,-3.027798,-1.699361,-0.008623209,0.00612155,-0.01589136,-1.007978,-2.629964,1.567327
0,1.688892,107,169,500,497,-0.009978777,-0.01114764,0.0094681,-1.483509,-3.027735,-1.699333,-0.01575936,0.01146512,-0.01307628,-1.007825,-2.629589,1.567431
0,1.700003,107,169,500,497,-0.01005396,-0.01103389,0.01386489,-1.483434,-3.027822,-1.699028,-0.02248558,0.01214669,-0.01165026,-1.007577,-2.629214,1.567529
0,1.711114,112,147,501,492,-0.009926397,-0.01461316,0.0152413,-1.483346,-3.027591,-1.698799,-0.0247114,0.007725187,-0.005668639,-1.007269,-2.629,1.567401
0,1.722225,112,147,501,492,-0.009826504,-0.01644473,0.01373756,-1.483256,-3.027493,-1.698633,-0.01997292,0.0001918953,-0.007581441,-1.007053,-2.629126,1.567624
0,1.733337,112,147,501,492,-0.01090956,-0.01695365,0.01580122,-1.483113,-3.027339,-1.698379,-0.01654737,-0.001299933,-0.01462913,-1.006952,-2.629348,1.568045
0,1.744448,112,147,501,492,-0.01407305,-0.0185916,0.01759647,-1.482944,-3.027044,-1.698129,-0.00399917,-0.003226313,-0.01747422,-1.007167,-2.629797,1.568453
0,1.755559,123,132,500,497,-0.01096929,-0.01614243,0.01707935,-1.482916,-3.02699,-1.697938,-0.004587833,-0.004281297,-0.01657275,-1.007068,-2.629927,1.568641
0,1.76667,123,132,500,497,-0.01120284,-0.0109422,0.01825885,-1.482804,-3.027076,-1.697633,-0.004612879,-0.006158417,-0.006194787,-1.006956,-2.629688,1.568258
0,1.777781,123,132,500,497,-0.01457095,-0.006448208,0.01705818,-1.482506,-3.02712,-1.697581,-0.00601461,-0.005902321,-0.001774788,-1.006837,-2.629633,1.568105
0,1.788892,123,132,500,497,-0.008491427,0.001316236,0.01775546,-1.48264,-3.027371,-1.697441,-0.01826898,-0.01040235,0.003841271,-1.006223,-2.629414,1.567849
0,1.800003,123,132,500,497,-0.00844542,0.0005205909,0.01647818,-1.482449,-3.027458,-1.697383,-0.0189678,-0.007288807,0.007040217,-1.005971,-2.629191,1.567627
0,1.811115,128,131,501,498,-0.006144718,-0.001337625,0.01061242,-1.482475,-3.02738,-1.697438,-0.01620589,-0.007669182,0.005877888,-1.005978,-2.629435,1.567684
0,1.822226,128,131,501,498,-0.009090279,-0.005711945,0.005228511,-1.482223,-3.02727,-1.697577,-0.01519379,-0.005287946,0.005549893,-1.005867,-2.629334,1.56763
0,1.833337,128,131,501,498,-0.007743792,-0.01142625,0.001755869,-1.482203,-3.026984,-1.697579,-0.0134116,0.001903689,0.01135244,-1.005951,-2.628973,1.567361
0,1.844448,128,131,501,498,-0.00655735,-0.01299245,-0.0007813285,-1.48233,-3.026813,-1.697777,-0.007215278,0.01006833,0.0136191,-1.006202,-2.628611,1.567121
0,1.855559,128,131,501,498,-0.007622654,-0.01279327,-0.001840407,-1.482131,-3.026769,-1.697821,-0.01269933,0.02279463,0.01989892,-1.006223,-2.627681,1.566615
0,1.86667,129,159,501,495,-0.008742169,-0.009820264,-0.005548643,-1.482124,-3.026676,-1.698019,-0.02339279,0.02381254,0.02546504,-1.005905,-2.626864,1.56611
0,1.877781,129,159,501,495,-0.00661481,-0.009495766,-0.006557609,-1.481999,-3.026556,-1.698126,-0.02810161,0.01726699,0.02230857,-1.005528,-2.62651,1.565887
0,1.888893,129,159,501,495,-0.0117945,-0.01282443,-0.00735058,-1.481834,-3.026276,-1.698198,-0.02021622,0.01463382,0.006714849,-1.005583,-2.626668,1.566271
0,1.900004,129,159,501,495,-0.0159795,-0.01355784,-0.009740799,-1.481732,-3.026089,-1.69841,-0.0125761,0.01447671,0.001432485,-1.005761,-2.626594,1.566359
0,1.911115,125,146,500,494,-0.01700736,-0.01486695,-0.008954536,-1.481554,-3.025899,-1.698419,-0.003511448,0.01617103,0.01061796,-1.006004,-2.626234,1.565838
0,1.922226,125,146,500,494,-0.0156093,-0.02185385,-0.01163475,-1.481549,-3.025422,-1.698587,-0.006434701,0.01687866,0.01710198,-1.006063,-2.625703,1.565338
0,1.933337,125,146,500,494,-0.01558651,-0.02113455,-0.01475449,-1.481399,-3.025242,-1.698742,-0.01093126,0.0121065,0.02750823,-1.005785,-2.625142,1.564674
0,1.944448,125,146,500,494,-0.0144922,-0.02085904,-0.01578728,-1.481511,-3.024947,-1.699011,-0.01655368,0.01905999,0.02946693,-1.005712,-2.624398,1.564248
0,1.955559,125,146,500,494,-0.01422297,-0.02731497,-0.01616251,-1.481422,-3.024535,-1.699012,-0.0256487,0.02544703,0.02344005,-1.005481,-2.623755,1.564238
0,1.966671,116,139,500,497,-0.01207432,-0.026994,-0.01717161,-1.481471,-3.024192,-1.699192,-0.01761878,0.02864752,0.01603224,-1.005703,-2.623427,1.564261
0,1.977782,116,139,500,497,-0.01105598,-0.02638772,-0.01484384,-1.481534,-3.023936,-1.699296,-0.01085813,0.01792312,0.01798285,-1.005595,-2.623172,1.563954
0,1.988893,116,139,500,497,-0.01210117,-0.02595484,-0.01694344,-1.481438,-3.023583,-1.699481,-0.007241108,0.004207768,0.02320845,-1.005267,-2.623008,1.563477
0,2.000004,116,139,500,497,-0.008132664,-0.02002792,-0.01337929,-1.48148,-3.023528,-1.699579,-0.007270043,-0.001738206,0.02505809,-1.005017,-2.622958,1.5631
0,2.011115,112,143,500,497,-0.007234958,-0.01511125,-0.01552659,-1.481376,-3.023522,-1.699746,-0.01157549,-0.00689298,0.02629073,-1.004695,-2.622738,1.562702
0,2.022226,112,143,500,497,-0.009623232,-0.008496236,-0.01621615,-1.4813,-3.02353,-1.699947,-0.006513391,-0.0009610606,0.0226894,-1.004825,-2.622563,1.562514
0,2.033337,112,143,500,497,-0.01088773,-0.002151829,-0.0202392,-1.481111,-3.023563,-1.700305,0.000737248,0.00949743,0.02081967,-1.004993,-2.622339,1.562263
0,2.044448,112,143,500,497,-0.008661014,-0.001418421,-0.02770989,-1.481065,-3.023457,-1.700763,0.007210735,0.01323785,0.0231567,-1.005331,-2.622068,1.561897
0,2.055559,112,143,500,497,-0.008908453,0.003536035,-0.02547824,-1.480909,-3.023506,-1.701042,0.01255317,0.004716221,0.02297511,-1.005419,-2.622198,1.561566
0,2.06667,110,119,501,500,-0.005571285,0.0005650034,-0.02614392,-1.480951,-3.023378,-1.701371,0.008155363,0.01178875,0.02968087,-1.005571,-2.621605,1.560972
0,2.077781,110,119,501,500,-0.003812077,0.006705957,-0.01923919,-1.480967,-3.023528,-1.70136,-0.0009787213,0.01232337,0.02936284,-1.005397,-2.621144,1.560622
0,2.088892,110,119,501,500,-0.002675224,0.003960084,-0.01658557,-1.480948,-3.023486,-1.701463,-0.001128179,0.004488179,0.02383373,-1.005267,-2.621215,1.560508
0,2.100003,110,119,501,500,-0.0007089591,0.006680355,-0.01375687,-1.480946,-3.02357,-1.701608,0.007070339,-0.002604665,0.02215053,-1.005408,-2.621508,1.560293
0,2.111114,111,142,500,497,-0.003897406,0.006785287,-0.01484569,-1.480777,-3.023504,-1.70181,0.01378049,-0.003323507,0.02069604,-1.005465,-2.621751,1.560008
0,2.122225,111,142,500,497,-0.0007062629,0.006924944,-0.01479481,-1.480858,-3.02355,-1.702032,0.006103657,0.0008895884,0.01679695,-1.005414,-2.621541,1.559901
0,2.133336,111,142,500,497,0.0004535597,0.004894797,-0.01525627,-1.480892,-3.023452,-1.702183,-0.0006352989,0.003626822,0.01557849,-1.005343,-2.621259,1.559697
0,2.144447,111,142,500,497,0.001461463,0.005742723,-0.01395848,-1.48092,-3.023582,-1.702305,-0.002550079,0.008733858,0.01907188,-1.005397,-2.620828,1.559344
0,2.155558,111,142,500,497,0.0008093566,-0.004601739,-0.01199067,-1.480928,-3.023174,-1.702323,0.002015604,0.009506043,0.02173312,-1.005751,-2.620763,1.558918
0,2.166669,113,142,500,491,0.001916076,-0.005829516,-0.01117872,-1.48098,-3.023107,-1.702434,0.004861856,0.0129377,0.01372312,-1.00599,-2.620665,1.558983
0,2.17778,113,142,500,491,-0.000121898,-0.008235953,-0.01065594,-1.480924,-3.022943,-1.702471,0.005720835,0.007489245,0.007871501,-1.00608,-2.62082,1.559044
0,2.188891,113,142,500,491,-0.001150944,-0.009801184,-0.008839954,-1.480901,-3.022774,-1.702489,0.004264547,0.003751704,0.003770577,-1.006046,-2.620948,1.559157
0,2.200002,113,142,500,491,-0.001090639,-0.01036528,-0.01115616,-1.480854,-3.022436,-1.702611,-0.0005448721,0.009507667,0.009912288,-1.006065,-2.620701,1.558798
0,2.211113,113,142,500,491,-0.0001181588,-0.01073249,-0.004676904,-1.480892,-3.022331,-1.702525,-0.004448445,0.01580044,0.01220942,-1.006112,-2.620192,1.558559
0,2.222224,109,127,501,498,0.001761456,-0.005700338,-0.002404261,-1.481014,-3.022374,-1.7026,-0.005881671,0.02015422,0.01512041,-1.006196,-2.619723,1.558306
0,2.233335,109,127,501,498,0.001649782,-0.003877333,-0.0008856058,-1.48096,-3.022262,-1.702558,-0.002657462,0.01896561,0.009520425,-1.006329,-2.619737,1.558362
0,2.244446,109,127,501,498,0.002561001,-0.0009627113,0.0008927327,-1.481036,-3.022341,-1.702501,0.001628498,0.007980239,0.001952508,-1.006338,-2.620077,1.558571
0,2.255557,109,127,501,498,0.003560079,-0.0003637548,0.003226058,-1.481082,-3.022336,-1.702408,-0.002001875,-0.002367088,-0.005038337,-1.006085,-2.620492,1.558819
0,2.266668,115,143,500,498,0.002517615,-0.002653233,0.008150301,-1.481204,-3.022221,-1.702274,0.000124807,-0.001773494,-0.007995454,-1.006117,-2.620633,1.559034
0,2.277779,115,143,500,498,0.003488508,-0.0002931143,0.007610405,-1.481233,-3.022284,-1.702231,0.0004723947,-0.004348033,-0.008261409,-1.006078,-2.620772,1.55908
0,2.28889,115,143,500,498,0.002363611,0.0004571748,0.008868592,-1.481145,-3.022346,-1.702135,0.007583356,-0.001659165,-0.007979666,-1.00636,-2.620938,1.559187
0,2.300001,115,143,500,498,0.001014076,0.006864029,0.009253049,-1.481133,-3.022498,-1.702057,-0.002096596,0.003784205,-0.009236591,-1.006082,-2.620772,1.55938
0,2.311112,115,143,500,498,0.001912494,0.009306061,0.01310392,-1.481143,-3.022802,-1.701807,-0.006212545,0.004325685,-0.01131854,-1.005963,-2.620736,1.559596
0,2.322223,118,144,501,498,-0.0004300922,0.01240294,0.01817984,-1.481087,-3.023049,-1.701438,0.007338012,0.004718919,-0.01454118,-1.006315,-2.621059,1.559777
0,2.333334,118,144,501,498,0.003832049,0.01282396,0.01720932,-1.481192,-3.023168,-1.701284,0.01028223,0.002016854,-0.01450058,-1.006533,-2.621344,1.559901
0,2.344445,118,144,501,498,0.004813121,0.01518866,0.01666303,-1.481317,-3.023452,-1.701172,0.009193147,0.003755086,-0.01570395,-1.006649,-2.62144,1.560144
0,2.355556,118,144,501,498,0.004838469,0.01590685,0.01354959,-1.481392,-3.023634,-1.701074,0.006829648,-0.0005088625,-0.01595491,-1.006527,-2.621684,1.560336
0,2.366668,118,141,500,500,0.008167319,0.01269992,0.01391541,-1.481554,-3.023765,-1.700998,0.004552659,-0.0008786935,-0.01536495,-1.006491,-2.621805,1.560533
0,2.377779,118,141,500,500,0.007328511,0.006990775,0.01477773,-1.481569,-3.02371,-1.700813,0.001138463,0.002576757,-0.0148247,-1.006432,-2.62164,1.560739
0,2.38889,118,141,500,500,0.009656318,0.003176214,0.01281586,-1.481754,-3.023712,-1.700776,0.0009788997,0.002843094,-0.01335113,-1.006466,-2.621695,1.56087
0,2.400001,118,141,500,500,0.008640723,0.002104832,0.01255501,-1.481813,-3.023879,-1.700732,-0.003805386,0.006440041,-0.01606875,-1.006262,-2.621586,1.561216
0,2.411112,118,141,500,500,0.008985471,-0.00491451,0.009850809,-1.481945,-3.023645,-1.70067,-0.0001778621,0.008645015,-0.0199301,-1.00643,-2.621719,1.561612
0,2.422223,116,130,500,498,0.002895816,-0.01093009,0.006238605,-1.481722,-3.023418,-1.700694,0.004703499,0.008837188,-0.02405815,-1.006575,-2.622043,1.562117
0,2.433334,116,130,500,498,0.00192382,-0.0132844,0.006786806,-1.481786,-3.023294,-1.70055,0.006664452,0.01780379,-0.01856013,-1.006944,-2.621739,1.562198
0,2.444445,116,130,500,498,0.004255712,-0.01734111,0.005871545,-1.482035,-3.023023,-1.700524,0.004833745,0.01677432,-0.01087055,-1.007039,-2.62156,1.562097
0,2.455556,116,130,500,498,0.000986187,-0.01469034,0.003178532,-1.481958,-3.022894,-1.700562,-0.002322545,0.01620078,-0.00616214,-1.006979,-2.621397,1.562082
0,2.466667,112,138,501,494,0.005164354,-0.01195257,0.00165064,-1.482154,-3.022902,-1.700557,-0.007164046,0.01391631,-0.003191614,-1.006844,-2.621177,1.562032
0,2.477778,112,138,501,494,0.005054228,-0.01035342,0.004208063,-1.482226,-3.022866,-1.700381,-0.009077089,0.01092606,-0.006717822,-1.006875,-2.621187,1.562385
0,2.488889,112,138,501,494,0.002943138,-0.009966774,0.00209572,-1.482255,-3.022765,-1.700418,-0.008133232,0.009406054,-0.007877375,-1.006854,-2.621177,1.562524
0,2.5,112,138,501,494,0.0009356227,-0.01388075,0.00446155,-1.482205,-3.022575,-1.700314,-0.002976051,0.003134306,-0.01309427,-1.006906,-2.621548,1.562855
0,2.511111,112,138,501,494,-0.0003504574,-0.008262085,0.003551948,-1.482231,-3.022666,-1.700344,0.004656122,0.001020564,-0.008012414,-1.007108,-2.621696,1.56278
0,2.522222,108,129,500,499,0.0005757757,-0.004864883,0.003238725,-1.482299,-3.022712,-1.700374,0.004921029,-0.003470695,-0.01563148,-1.007059,-2.622031,1.563237
0,2.533333,108,129,500,499,0.001461584,-0.0004342739,0.003172436,-1.482451,-3.022804,-1.700276,0.006284082,-0.003610992,-0.0123767,-1.007143,-2.622195,1.563379
0,2.544444,108,129,500,499,0.005372876,0.006538792,0.00697705,-1.482695,-3.023118,-1.700089,0.00828102,-0.00478269,-0.01116809,-1.007238,-2.622393,1.563484
0,2.555555,108,129,500,499,0.003886974,0.01654333,0.005972071,-1.482565,-3.02356,-1.700149,0.009657244,0.001111619,-0.002087017,-1.007463,-2.622194,1.563243
0,2.566666,108,129,500,499,0.004614975,0.02385735,0.007641469,-1.482656,-3.024077,-1.700092,0.003692252,0.0006716405,0.00734864,-1.007385,-2.621926,1.56287
0,2.577777,113,131,500,494,0.01094065,0.02493353,0.009011856,-1.482918,-3.024373,-1.699976,0.004142971,0.001947044,0.004082498,-1.007577,-2.621925,1.562939
0,2.588888,113,131,500,494,0.006561097,0.02857216,0.006537389,-1.482878,-3.024778,-1.700053,0.008081976,0.003662609,0.001120145,-1.007792,-2.621976,1.563003
0,2.599999,113,131,500,494,0.009161147,0.01781045,0.006278482,-1.48311,-3.024585,-1.699995,0.0144383,0.005583046,0.003779547,-1.008272,-2.622007,1.562876
0,2.61111,113,131,500,494,0.01054014,0.01257821,0.0007252261,-1.483246,-3.024573,-1.70013,0.01170436,0.005918581,0.001102787,-1.008354,-2.622049,1.562952
0,2.622221,114,134,501,500,0.012153,0.001215826,-0.001856024,-1.48359,-3.024333,-1.700206,0.00842975,0.01118366,0.001303285,-1.00864,-2.621927,1.562956
0,2.633332,114,134,501,500,0.01446134,-0.0006170577,-0.007716707,-1.483763,-3.024314,-1.700333,0.005396011,0.0100389,0.004262639,-1.008738,-2.621753,1.562773
0,2.644443,114,134,501,500,0.01169901,-0.01080624,-0.006772597,-1.483863,-3.023931,-1.700322,0.004308464,0.01177539,0.003048359,-1.008852,-2.621618,1.562765
0,2.655554,114,134,501,500,0.01181298,-0.01263997,-0.008279926,-1.484072,-3.023827,-1.700418,0.002580013,0.0145453,0.003887151,-1.008872,-2.621323,1.562667
0,2.666665,114,134,501,500,0.009703888,-0.01202422,-0.01142667,-1.484104,-3.023688,-1.700538,0.004716769,0.01512569,0.0009311209,-1.00906,-2.621273,1.562727
0,2.677776,116,131,501,500,0.008882074,-0.01773529,-0.01054129,-1.484227,-3.023308,-1.700551,0.007592339,0.01654237,-0.0005528526,-1.009263,-2.621127,1.562722
0,2.688887,116,131,501,500,0.01097143,-0.01636314,-0.0113085,-1.484409,-3.023145,-1.700676,0.006981355,0.01554904,0.004187694,-1.009392,-2.620938,1.562537
0,2.699998,116,131,501,500,0.005578407,-0.01603419,-0.009080118,-1.484255,-3.023034,-1.700623,0.008470964,0.01722216,0.007121332,-1.009661,-2.620692,1.562372
0,2.711109,116,131,501,500,0.008726507,-0.01462538,-0.009827898,-1.484423,-3.022751,-1.700688,0.01163951,0.01820365,0.0103756,-1.009883,-2.620392,1.56211
0,2.72222,111,152,500,498,0.01161462,-0.00825119,-0.008364462,-1.484618,-3.022853,-1.700767,0.007700775,0.008381679,0.006368838,-1.009944,-2.620476,1.5622
0,2.733331,111,152,500,498,0.01044549,-0.006227919,-0.007911716,-1.484661,-3.02277,-1.700811,0.003421232,0.003100426,-0.003918373,-1.010003,-2.620657,1.562645
0,2.744442,111,152,500,498,0.0105916,-0.009812593,-0.006540326,-1.48483,-3.022547,-1.700851,0.009338786,0.003685517,-0.001827294,-1.010246,-2.620732,1.562621
0,2.755553,111,152,500,498,0.007682043,-0.01444275,-0.01088335,-1.484901,-3.022161,-1.701017,0.00887,0.01455256,-0.0008317279,-1.010632,-2.620206,1.562636
0,2.766664,111,152,500,498,0.006699579,-0.01481491,-0.01425602,-1.485015,-3.022008,-1.701265,0.01621077,0.02097558,0.006487799,-1.011171,-2.619901,1.562303
0,2.777775,109,135,500,497,0.004599031,-0.01396693,-0.01845044,-1.484999,-3.021758,-1.701556,0.02422825,0.02426484,0.01061349,-1.011789,-2.619655,1.562025
0,2.788886,109,135,500,497,0.004669677,-0.01475997,-0.0197257,-1.485155,-3.0216,-1.701792,0.02463817,0.01750842,0.008071991,-1.012035,-2.619777,1.562002
0,2.799997,109,135,500,497,0.004411615,-0.01202673,-0.01255147,-1.485099,-3.02157,-1.70173,0.01810004,0.00579715,0.00645708,-1.011956,-2.620015,1.562122
0,2.811108,109,135,500,497,0.00504179,-0.004149171,-0.00857003,-1.485157,-3.021773,-1.701733,0.01362656,0.0008428488,0.001492986,-1.011909,-2.62022,1.562266
0,2.822219,109,135,500,497,0.004613596,0.004150164,-0.006684648,-1.485072,-3.022001,-1.701785,0.005357446,-0.008034245,0.004543522,-1.011622,-2.620336,1.562166
0,2.83333,109,132,500,496,0.004451517,0.0072601,-0.005977003,-1.485062,-3.022078,-1.701863,0.009020944,-0.009905887,0.006074828,-1.011651,-2.620503,1.562034
0,2.844441,109,132,500,496,0.007798944,0.004067076,-0.005592646,-1.485287,-3.022064,-1.701932,0.008471416,-0.002945578,0.00624872,-1.011814,-2.620395,1.561943
0,2.855552,109,132,500,496,0.006725981,0.004017182,-0.005613097,-1.485195,-3.022053,-1.702042,0.008243907,0.00150336,0.01001367,-1.012007,-2.620217,1.561681
0,2.866663,109,132,500,496,0.005815284,0.0006183221,-0.005300053,-1.485241,-3.021947,-1.702091,0.006116013,0.002893496,0.00643125,-1.012053,-2.620195,1.561722
0,2.877774,106,125,499,499,0.007060028,-0.001496052,-0.0101401,-1.485276,-3.021836,-1.702253,0.001709183,0.00392909,0.003428509,-1.012053,-2.620179,1.561832
0,2.888885,106,125,499,499,0.0006167609,-0.0009977666,-0.008972862,-1.485112,-3.021819,-1.702322,-0.002122055,0.006075691,0.003368966,-1.012016,-2.619956,1.561774
0,2.899997,106,125,499,499,0.004623207,0.002160625,-0.002763332,-1.485204,-3.02186,-1.702163,0.00630585,0.002548996,0.001117133,-1.012222,-2.620204,1.561788
0,2.911108,106,125,499,499,-0.001998899,0.005059745,0.002228298,-1.484965,-3.021987,-1.702037,0.01126427,-0.001471814,-0.005281265,-1.012376,-2.620595,1.562067
0,2.922219,106,125,499,499,0.004967236,0.01451548,0.005513915,-1.485188,-3.022477,-1.701922,0.01505819,-0.00967266,-0.01101698,-1.012473,-2.621151,1.562406
0,2.93333,103,142,499,492,0.006870313,0.01828814,0.008567752,-1.48525,-3.022702,-1.70178,0.01957175,-0.01697592,-0.01144524,-1.012518,-2.621829,1.562614
0,2.944441,103,142,499,492,0.002376466,0.02421866,0.005524562,-1.485116,-3.023104,-1.701836,0.01772707,-0.01600719,-0.01029036,-1.012554,-2.622102,1.56271
0,2.955552,103,142,499,492,0.007576037,0.02607811,0.008156355,-1.48529,-3.02353,-1.701696,0.0112742,-0.01163767,-0.009526711,-1.012502,-2.622095,1.562819
0,2.966663,103,142,499,492,0.005350755,0.02828847,0.007553566,-1.485244,-3.023895,-1.701666,0.007733597,-0.005942922,-0.01408478,-1.012544,-2.622194,1.563163
0,2.977774,96,137,499,498,0.004386909,0.02592515,0.008105057,-1.485185,-3.024101,-1.701546,0.006946318,0.007489255,-0.01286665,-1.012858,-2.621957,1.563349
0,2.988885,96,137,499,498,0.004749125,0.01842667,0.007493281,-1.485242,-3.024093,-1.701481,0.002351189,0.01702148,-0.003623834,-1.013013,-2.621393,1.563116
0,2.999996,96,137,499,498,0.007237881,0.01102831,0.00692088,-1.48538,-3.024055,-1.701335,-0.002600901,0.008859978,0.001230414,-1.0128,-2.621382,1.562907
0,3.011107,96,137,499,498,0.00637737,0.006586726,0.007002238,-1.485414,-3.023945,-1.701225,-0.003239848,0.001750532,-0.003665031,-1.012667,-2.621617,1.563106
0,3.022218,96,137,499,498,0.008744429,0.0005640702,0.01002831,-1.485575,-3.023954,-1.700877,0.005874397,-0.01306475,-0.01602074,-1.012647,-2.622533,1.563626
0,3.033329,89,151,498,499,0.002230061,0.00431826,0.006466504,-1.485451,-3.024063,-1.700969,0.01155985,-0.0161818,-0.01709206,-1.012783,-2.622999,1.563779
0,3.04444,89,151,498,499,0.004120288,0.007396801,0.01263202,-1.485543,-3.024279,-1.700693,0.01307136,-0.01457852,-0.01799242,-1.01289,-2.62334,1.564034
0,3.055551,89,151,498,499,0.00397478,0.01097962,0.01125345,-1.485546,-3.024476,-1.700662,0.003604108,-0.003321128,-0.01503316,-1.012786,-2.622806,1.564121
0,3.066662,89,151,498,499,0.005936342,0.01372638,0.0140647,-1.485646,-3.024752,-1.700458,-0.00749354,0.004506104,-0.01083477,-1.012627,-2.622388,1.564139
0,3.077773,87,129,499,498,0.004976268,0.01159913,0.01357613,-1.485672,-3.024801,-1.700367,-0.005127373,0.01078509,-0.01331993,-1.012846,-2.622237,1.564565
0,3.088884,87,129,499,498,0.004356369,0.001502467,0.01457009,-1.485652,-3.024553,-1.700152,0.005415966,0.01192337,-0.02006475,-1.013202,-2.62254,1.565068
0,3.099995,87,129,499,498,0.003607666,-0.004771003,0.01314853,-1.485771,-3.0244,-1.700075,0.01372886,0.006595978,-0.02196389,-1.013522,-2.62287,1.565563
0,3.111106,87,129,499,498,0.005942703,-0.008821979,0.01225193,-1.485915,-3.024232,-1.699942,0.01067777,0.005474195,-0.0190105,-1.013568,-2.622939,1.565712
0,3.122217,87,129,499,498,0.008130707,-0.009286193,0.009977552,-1.486016,-3.024245,-1.699867,0.002283703,0.002883878,-0.01252454,-1.013308,-2.622743,1.565616
0,3.133328,87,126,499,498,0.00619331,-0.01377208,0.01005338,-1.485941,-3.024004,-1.699701,-0.004183914,-0.002848886,-0.01217116,-1.013057,-2.622756,1.565909
0,3.144439,87,126,499,498,0.006070312,-0.009489583,0.005555177,-1.486014,-3.024031,-1.699739,-0.0009947629,-0.001930222,-0.01275452,-1.013139,-2.622906,1.566107
0,3.15555,87,126,499,498,0.005683398,-0.003145679,0.01134287,-1.486019,-3.024347,-1.699492,0.0007254642,0.005390261,-0.01319958,-1.013333,-2.62278,1.566409
0,3.166661,87,126,499,498,0.006434533,0.002902686,0.01379357,-1.48608,-3.024579,-1.699305,0.003583714,0.00486636,-0.008139091,-1.013466,-2.622767,1.566333
0,3.177772,87,126,499,498,0.004271624,0.004309886,0.01191594,-1.486121,-3.024647,-1.699191,0.005285903,0.006100032,-0.01435694,-1.013468,-2.622933,1.566694
0,3.188883,87,130,499,500,0.003259175,0.003223987,0.01166636,-1.486134,-3.024679,-1.699087,0.008384149,0.005121132,-0.01844529,-1.013626,-2.623199,1.567072
0,3.199994,87,130,499,500,0.002278515,0.00330466,0.006225867,-1.486175,-3.02479,-1.699098,0.01162644,0.008020596,-0.01168202,-1.013825,-2.623107,1.567007
0,3.211105,87,130,499,500,0.005413648,0.00425952,0.007546781,-1.486324,-3.024923,-1.69899,0.007626728,0.008432774,-0.007591026,-1.013874,-2.622988,1.566979
0,3.222216,87,130,499,500,0.005591267,0.002077449,0.0026978,-1.486404,-3.02496,-1.699039,0.001225315,0.01476726,0.0004885006,-1.013937,-2.622477,1.566647
0,3.233327,90,129,500,500,0.008842844,0.001193208,0.002523283,-1.486709,-3.025082,-1.698915,-0.002306364,0.01642336,0.001305923,-1.013948,-2.622207,1.56661
0,3.244438,90,129,500,500,0.007893505,-0.0004684525,-3.549468E-05,-1.486778,-3.025026,-1.698971,-0.0006293762,0.007642811,-0.001428411,-1.013912,-2.622379,1.566569
0,3.255549,90,129,500,500,0.009021509,-0.001223846,-0.001281511,-1.486983,-3.025051,-1.698902,0.001736922,0.003813715,-0.004271024,-1.013997,-2.6225,1.566626
0,3.26666,90,129,500,500,0.00602408,-0.005989305,-0.0001761041,-1.486983,-3.024858,-1.698851,0.009358161,-0.004454471,-0.00874125,-1.014124,-2.623043,1.566913
0,3.277771,90,129,500,500,0.003874968,-0.004121684,-0.004134692,-1.48706,-3.024876,-1.698949,0.007896547,-6.325822E-05,-0.005894963,-1.01421,-2.622921,1.566816
0,3.288882,93,130,500,498,0.003799327,-0.00400905,0.0002561389,-1.487095,-3.024856,-1.698808,0.00700842,0.003450561,0.002587688,-1.014326,-2.622705,1.566541
0,3.299993,93,130,500,498,0.004681428,0.0008919226,-0.001917071,-1.487259,-3.025064,-1.698812,0.002345148,0.01509884,0.01292861,-1.01447,-2.621958,1.565998
0,3.311104,93,130,500,498,0.003415598,0.005228898,-0.002051493,-1.487252,-3.025235,-1.698856,0.0003650803,0.01626931,0.0117017,-1.014576,-2.621644,1.565909
0,3.322215,93,130,500,498,0.003356589,0.006039286,-0.0007836502,-1.487285,-3.025366,-1.69887,-0.002561236,0.01897128,0.01161716,-1.014568,-2.621334,1.565766
0,3.333326,97,120,499,498,-0.0005899696,-0.0006215872,-0.001191363,-1.487251,-3.025188,-1.698815,-0.003931361,0.01300632,0.002576114,-1.014434,-2.621456,1.566009
0,3.344437,97,120,499,498,-0.002189625,-0.01064429,-0.0056108,-1.487186,-3.024812,-1.698911,0.003866216,0.01454555,-0.003007077,-1.014803,-2.621571,1.56623
0,3.355548,97,120,499,498,-0.002088408,-0.01295526,-0.005024373,-1.487251,-3.02463,-1.698829,0.007063851,0.01345198,-0.0008749738,-1.015017,-2.621428,1.56601
0,3.366659,97,120,499,498,-0.00394337,-0.01778407,-0.008295055,-1.487188,-3.024262,-1.698996,0.00306609,0.01387337,0.003216588,-1.015036,-2.621152,1.565837
0,3.37777,97,120,499,498,-0.002943608,-0.01738909,-0.004924534,-1.487272,-3.024144,-1.698926,0.002465732,0.01081956,0.006833809,-1.015018,-2.62096,1.565541
0,3.388881,101,151,500,497,0.00140044,-0.01707266,-0.01028789,-1.487425,-3.023925,-1.699149,-0.0009291982,0.0142924,0.007315913,-1.015065,-2.620637,1.565447
0,3.399992,101,151,500,497,0.003375324,-0.01385879,-0.009561561,-1.487531,-3.023824,-1.699224,-0.003947607,0.01108461,0.009141547,-1.014967,-2.620421,1.565206
0,3.411103,101,151,500,497,0.004216439,-0.01011953,-0.006540734,-1.487574,-3.023795,-1.699178,-0.001456687,0.007050872,0.008662899,-1.015003,-2.620418,1.565092
0,3.422215,101,151,500,497,0.0006964565,-0.004498679,-0.003127913,-1.487465,-3.023918,-1.699108,-0.002592936,0.002782099,0.005500212,-1.014904,-2.620481,1.565053
0,3.433326,103,127,500,498,-0.0005899775,-0.0008577573,-0.000142494,-1.487401,-3.023984,-1.69905,0.002377413,0.008918779,0.003342673,-1.015247,-2.620323,1.565028
0,3.444437,103,127,500,498,-0.0005230705,-0.001431167,-0.002453773,-1.487443,-3.023982,-1.699171,-0.0002751946,0.01122825,0.007997459,-1.015288,-2.619984,1.564765
0,3.455548,103,127,500,498,0.0004956378,-0.0001124492,-0.003242034,-1.48749,-3.023967,-1.69916,0.001648033,0.01423565,0.01149776,-1.015479,-2.619731,1.564447
0,3.466659,103,127,500,498,0.001711596,-0.003409767,-0.002876893,-1.487557,-3.023844,-1.69918,-0.002381125,0.006567404,0.01252019,-1.015295,-2.619624,1.564225
0,3.47777,103,127,500,498,0.0006916489,-0.00472486,-0.002079119,-1.487514,-3.02384,-1.6991,-0.006203899,0.008714234,0.01244296,-1.01526,-2.6194,1.564067
0,3.488881,104,140,500,495,0.002990262,-0.007278284,-0.004816486,-1.48763,-3.023683,-1.699211,-0.003384452,0.006121648,0.006316247,-1.015296,-2.619465,1.56417
0,3.499992,104,140,500,495,0.001862184,-0.006513355,-0.003565859,-1.487523,-3.023713,-1.699258,-0.0004874524,0.007509191,0.004825615,-1.015479,-2.619587,1.564255
0,3.511103,104,140,500,495,0.003947046,-0.004906681,-0.005384011,-1.48758,-3.023724,-1.699406,4.856894E-05,0.002554747,0.001983669,-1.015445,-2.619711,1.564315
0,3.522214,104,140,500,495,0.001757852,-0.004433266,-0.00311116,-1.487591,-3.023648,-1.699404,-0.00072782,-0.004238962,0.01246466,-1.015227,-2.619679,1.56386
0,3.533325,104,140,500,495,0.005860901,-0.0008856698,-0.003389557,-1.487754,-3.023701,-1.699457,-0.003346628,-0.004029187,0.01598926,-1.01509,-2.619392,1.563448
0,3.544436,103,138,499,496,0.002548958,0.0003468859,0.0001431059,-1.487724,-3.023754,-1.699316,-0.006700885,-0.004661198,0.0180432,-1.014908,-2.619199,1.56314
0,3.555547,103,138,499,496,-0.0006443593,-2.561683E-05,0.001129902,-1.487679,-3.023897,-1.699345,-0.004390691,-0.004392131,0.01362047,-1.014836,-2.619252,1.563198
0,3.566658,103,138,499,496,-0.0008556606,0.004129156,0.002052481,-1.487657,-3.024085,-1.699324,0.005346097,6.612157E-05,0.007697195,-1.015182,-2.619355,1.563293
0,3.577769,103,138,499,496,-0.0031467,0.007151487,0.002711224,-1.487463,-3.024313,-1.699308,0.01421186,-0.000146538,0.003342469,-1.015531,-2.619656,1.563416
0,3.58888,101,124,500,499,0.002709766,0.01783984,0.005118438,-1.487599,-3.024834,-1.699249,0.02061668,-0.008482344,0.01184681,-1.015723,-2.619915,1.562989
0,3.599991,101,124,500,499,0.0009729078,0.03175795,0.006023229,-1.487451,-3.025622,-1.699317,0.01695294,-0.01064049,0.01569747,-1.015649,-2.619918,1.562638
0,3.611102,101,124,500,499,0.001779821,0.03723259,0.006155466,-1.487439,-3.026205,-1.699325,-0.003121918,-0.01253407,0.01763362,-1.015033,-2.619604,1.562346
0,3.622213,101,124,500,499,0.002889503,0.03601331,0.006977382,-1.487472,-3.026554,-1.699313,-0.01429842,-0.01473795,0.01138772,-1.014493,-2.619725,1.56235
0,3.633324,101,124,500,499,0.005368029,0.02815559,0.008507896,-1.487611,-3.026738,-1.699231,-0.007822856,-0.01919646,0.006795024,-1.014392,-2.620105,1.562416
0,3.644435,105,137,500,498,0.0008346369,0.01208976,0.006001211,-1.487546,-3.026371,-1.699246,-0.001409165,-0.02350239,0.009878414,-1.014397,-2.620438,1.562172
0,3.655546,105,137,500,498,-0.0001151059,0.01019694,0.004481906,-1.487575,-3.026508,-1.699275,0.004862789,-0.02558917,0.007894793,-1.014384,-2.620812,1.562117
0,3.666657,105,137,500,498,-0.005200881,0.006716681,-0.0006836287,-1.487397,-3.026428,-1.699413,-0.0005713119,-0.01070055,0.001360643,-1.014403,-2.620603,1.562313
0,3.677768,105,137,500,498,-0.003072276,0.006821765,-0.0006457826,-1.487436,-3.026591,-1.699372,-0.009360249,-0.0004761619,0.002279553,-1.014224,-2.620181,1.562236
0,3.688879,104,121,500,502,-0.003942743,0.00192331,0.001532906,-1.487391,-3.02647,-1.699271,-0.004179098,-0.00276295,0.005611198,-1.014312,-2.620293,1.562063
0,3.69999,104,121,500,502,-0.00304845,0.004403519,0.005370225,-1.487412,-3.026754,-1.698995,0.001356361,-0.007702462,0.004860401,-1.014342,-2.620553,1.562027
0,3.711101,104,121,500,502,2.713595E-05,0.006172405,0.007959377,-1.487463,-3.026936,-1.698884,0.004366937,-0.01467124,-0.00118889,-1.014248,-2.621089,1.56229
0,3.722212,104,121,500,502,0.001100146,0.006455742,0.006934001,-1.487536,-3.027065,-1.698887,0.004125822,-0.01232225,-0.01246073,-1.01426,-2.621439,1.562813
0,3.733323,104,121,500,502,0.003076663,0.009674013,0.007658589,-1.487667,-3.027302,-1.698791,0.005472897,-0.008423945,-0.01459708,-1.01439,-2.621578,1.563136
0,3.744434,96,131,499,499,0.001908815,0.01170221,0.008101237,-1.487667,-3.027496,-1.698739,0.00732721,-0.001238299,-0.008816672,-1.014595,-2.621457,1.563075
0,3.755545,96,131,499,499,0.007343156,0.01033887,0.005643496,-1.487905,-3.02761,-1.698751,0.007733952,0.000161801,-0.004409013,-1.014667,-2.621448,1.562969
0,3.766656,96,131,499,499,0.004047741,0.01226701,0.006053315,-1.487811,-3.027836,-1.698689,0.00665947,0.001898006,-0.00563456,-1.014727,-2.621487,1.563096
0,3.777767,96,131,499,499,0.00617389,0.01237058,0.006077083,-1.487943,-3.028003,-1.698774,0.004578734,-0.000823481,-0.007664164,-1.014708,-2.621646,1.563294
0,3.788878,94,130,498,498,0.00604878,0.01352886,0.01069307,-1.48799,-3.028253,-1.69855,0.001184245,-0.005512567,-0.01409566,-1.014531,-2.621976,1.56369
0,3.799989,94,130,498,498,0.003925465,0.01366009,0.009622565,-1.487921,-3.02844,-1.698444,0.005252546,-0.0101193,-0.02046032,-1.014568,-2.62248,1.564073
0,3.8111,94,130,498,498,0.00848067,0.006933798,0.01143405,-1.488188,-3.028309,-1.698193,0.01250836,-0.007662235,-0.01778659,-1.014852,-2.622678,1.564195
0,3.822211,94,130,498,498,0.009651905,0.004910758,0.01099016,-1.488362,-3.028371,-1.698131,0.01774793,-0.005960811,-0.009796651,-1.015128,-2.622784,1.564065
0,3.833322,94,130,498,498,0.005246219,0.008055354,0.01056951,-1.488276,-3.02854,-1.69805,0.01411919,0.001984,-0.005565354,-1.015247,-2.622563,1.564002
0,3.844433,91,125,499,497,0.008404838,0.01016865,0.006685703,-1.488424,-3.028799,-1.698119,0.004881678,0.0007023313,-0.009459278,-1.015064,-2.622601,1.564214
0,3.855544,91,125,499,497,0.006373988,0.007762752,0.007233624,-1.488408,-3.028848,-1.698038,-0.0004612468,0.005264202,-0.01403423,-1.014975,-2.622583,1.564512
0,3.866655,91,125,499,497,0.006728599,3.200409E-05,0.007714308,-1.488516,-3.028677,-1.697914,0.003707539,0.002543544,-0.01689442,-1.015079,-2.622854,1.564829
0,3.877766,91,125,499,497,0.005716085,-0.001053213,0.007467057,-1.488554,-3.028705,-1.697861,0.009689865,-0.005082957,-0.01164811,-1.015172,-2.623202,1.56481
0,3.888877,91,125,499,497,0.007827596,-0.001636424,0.01062201,-1.48871,-3.028732,-1.697644,0.008216182,-0.008777892,-0.01187418,-1.015118,-2.62349,1.56498
0,3.899988,92,129,500,501,0.007901069,-0.001985332,0.007275874,-1.488845,-3.028771,-1.697632,0.008416304,-0.009143423,-0.01717608,-1.015096,-2.623679,1.565257
0,3.911099,92,129,500,501,0.006894968,-0.002845679,0.005991251,-1.488898,-3.028728,-1.697593,0.004155061,-0.008320298,-0.01782158,-1.01504,-2.623784,1.565486
0,3.92221,92,129,500,501,0.00591763,-0.005431728,0.007603865,-1.488859,-3.028609,-1.697379,0.00580045,-0.008924231,-0.01365449,-1.015059,-2.623958,1.565543
0,3.933321,92,129,500,501,0.00463515,-0.001778971,0.01057917,-1.488877,-3.028718,-1.697184,0.01026175,-0.003946934,-0.008701779,-1.015327,-2.624027,1.565547
0,3.944432,89,133,499,498,0.001296101,0.001653022,0.009130303,-1.488767,-3.028942,-1.697163,0.008376155,-0.002885997,-0.003719811,-1.015372,-2.623986,1.565408
0,3.955544,89,133,499,498,0.0009839982,0.007888361,0.01049136,-1.488712,-3.029168,-1.697076,0.008004971,0.003794699,-0.005055575,-1.015601,-2.623856,1.565527
0,3.966655,89,133,499,498,-0.00049215,0.01592888,0.01333245,-1.488678,-3.029599,-1.696883,-0.000188842,0.006870455,-0.01200309,-1.015477,-2.623792,1.565907
0,3.977766,89,133,499,498,-0.0003098543,0.01372336,0.008484687,-1.48882,-3.029696,-1.696982,-0.001533225,0.00297391,-0.0098564,-1.015314,-2.623922,1.565987
0,3.988877,89,133,499,498,-0.00366293,0.01623895,0.01119825,-1.488648,-3.029953,-1.696814,0.003454479,-0.007100137,-0.008101978,-1.015321,-2.624428,1.566113
0,3.999988,82,156,498,501,-0.003189377,0.007342261,0.00707599,-1.488638,-3.029847,-1.696802,0.001027795,-0.01134285,-0.01836878,-1.015146,-2.624906,1.566661
0,4.011099,82,156,498,501,-0.006277786,0.005114716,0.006571855,-1.488503,-3.029824,-1.696756,0.000773238,-0.01095709,-0.02311103,-1.015097,-2.625243,1.567217
0.2,4.02221,82,156,498,501,-0.008066456,-0.002939945,0.008071449,-1.488374,-3.029608,-1.696607,-0.002192407,-0.008164673,-0.01936489,-1.014987,-2.625275,1.567356
0.4,4.033321,82,156,498,501,-0.007047249,-0.00162599,0.007275578,-1.488335,-3.029608,-1.696527,-0.004205408,-0.0008122162,-0.01098634,-1.015021,-2.624986,1.567189
0.6,4.044433,76,138,499,501,-0.008976448,-0.005878546,0.006330978,-1.488165,-3.029434,-1.6965,-0.01040794,0.007165397,-0.01094194,-1.014934,-2.624662,1.567323
0.8,4.055544,76,138,499,501,-0.006813676,-0.007501778,0.009268308,-1.488207,-3.029354,-1.6962,-0.01873193,0.004391886,-0.01214315,-1.014562,-2.624633,1.567603
1,4.066655,76,138,499,501,-0.02629846,-0.003238294,0.0155427,-1.487437,-3.029413,-1.695864,-0.01877599,-0.001615918,-0.01407045,-1.014287,-2.624783,1.567828
1.2,4.077766,76,138,499,501,-0.007001006,-0.005731406,0.01620567,-1.48789,-3.029392,-1.695541,-0.01079767,-0.01046434,-0.02146772,-1.01421,-2.625381,1.568314
1.4,4.088878,76,138,499,501,-0.007982194,-0.008308739,0.01782036,-1.4878,-3.029216,-1.695271,-0.01103684,-0.01818583,-0.02926538,-1.013875,-2.626001,1.568948
1.6,4.099989,77,154,499,497,-0.001335602,0.007097458,0.028847,-1.487987,-3.02993,-1.694552,-0.01307666,-0.03305103,-0.03898168,-1.01333,-2.627057,1.569857
1.8,4.1111,77,154,499,497,0.002318576,0.02148551,0.02871151,-1.488043,-3.030566,-1.694301,-0.01978118,-0.04035171,-0.03681887,-1.012648,-2.627604,1.570287
2,4.122211,77,154,499,497,0.004473966,0.04385386,0.03681174,-1.488143,-3.031811,-1.693702,-0.04564114,-0.04519311,-0.03816624,-1.01127,-2.627817,1.570843
2.2,4.133323,77,154,499,497,0.000781469,0.05427136,0.04338028,-1.487926,-3.032682,-1.69314,-0.05941295,-0.03138462,-0.04246109,-1.010302,-2.627567,1.571518
2.4,4.144434,77,154,499,497,-0.007358663,0.0436032,0.05081855,-1.487621,-3.032995,-1.692435,-0.06117333,0.001247488,-0.04589372,-1.010127,-2.626865,1.572215
2.6,4.155545,78,131,499,496,-0.02400189,0.005686912,0.05673286,-1.487019,-3.032217,-1.691363,-0.05279213,0.02587818,-0.04197519,-1.010373,-2.626095,1.572628
2.8,4.166656,78,131,499,496,-0.03628323,-0.03657149,0.05848779,-1.486402,-3.030829,-1.690512,-0.04810483,0.05043705,-0.03307937,-1.010716,-2.62489,1.572771
3,4.177768,78,131,499,496,-0.04758168,-0.07786973,0.05610482,-1.485811,-3.02906,-1.689771,-0.05435996,0.03431407,-0.03064583,-1.009863,-2.624547,1.57298
3.200001,4.188879,78,131,499,496,-0.05556465,-0.09668084,0.05638427,-1.485103,-3.027661,-1.688985,-0.06572763,0.01022132,-0.04200501,-1.008683,-2.62494,1.573894
3.400001,4.19999,82,120,499,498,-0.06380039,-0.1100176,0.05677081,-1.484371,-3.026269,-1.688016,-0.08927427,-0.0147102,-0.07092832,-1.006951,-2.625916,1.57579
3.600001,4.211102,82,120,499,498,-0.06715555,-0.1119372,0.06070395,-1.483633,-3.025127,-1.687109,-0.08974399,-0.006299391,-0.07882369,-1.006193,-2.625806,1.576995
3.800001,4.222213,82,120,499,498,-0.07276443,-0.1129093,0.07027787,-1.48284,-3.024029,-1.686013,-0.09530668,0.02194643,-0.06948683,-1.005701,-2.624676,1.577636
4,4.233324,82,120,499,498,-0.0783011,-0.1152654,0.0762983,-1.482,-3.022795,-1.684842,-0.1036531,0.05045396,-0.06284357,-1.00521,-2.623235,1.57822
4.2,4.244435,82,120,499,498,-0.08685295,-0.1261974,0.08156001,-1.480981,-3.02132,-1.683512,-0.1148911,0.07348885,-0.05935073,-1.004665,-2.621541,1.57885
4.4,4.255547,83,124,499,503,-0.09557534,-0.1331577,0.08872209,-1.479855,-3.019766,-1.682251,-0.1029382,0.08601449,-0.07204722,-1.00455,-2.620788,1.580086
4.6,4.266658,83,124,499,503,-0.1173014,-0.138854,0.09926485,-1.478091,-3.018174,-1.680744,-0.07460815,0.09702577,-0.07871447,-1.005191,-2.620231,1.581293
4.8,4.277769,83,124,499,503,-0.1205061,-0.1574093,0.1007392,-1.476935,-3.016084,-1.679368,-0.03920643,0.1148138,-0.09059148,-1.006541,-2.619913,1.582766
5,4.28888,83,124,499,503,-0.1314957,-0.1808643,0.1153087,-1.475422,-3.013616,-1.677375,-0.03699003,0.1127404,-0.122679,-1.006763,-2.619936,1.5851
5.199999,4.299992,86,149,499,497,-0.1501134,-0.2203441,0.1340581,-1.473598,-3.010381,-1.675039,-0.04913441,0.1249364,-0.1424178,-1.007005,-2.619457,1.587431
5.399999,4.311103,86,149,499,497,-0.1614509,-0.2428747,0.1400572,-1.471824,-3.007416,-1.673109,-0.07077184,0.1202833,-0.1537546,-1.006515,-2.618906,1.589692
5.599999,4.322214,86,149,499,497,-0.1742124,-0.2842393,0.1541752,-1.46999,-3.003464,-1.6706,-0.1169665,0.09433955,-0.1661305,-1.004642,-2.618584,1.592296
5.799999,4.333325,86,149,499,497,-0.1797349,-0.3083501,0.1644332,-1.468271,-2.999738,-1.668133,-0.1590368,0.06247857,-0.1526005,-1.002177,-2.617996,1.593768
5.999999,4.344437,86,149,499,497,-0.1986142,-0.3368086,0.1812395,-1.466035,-2.995497,-1.665263,-0.1784792,0.04296318,-0.1379819,-1.000094,-2.617425,1.595167
6.199998,4.355548,93,132,499,501,-0.198004,-0.347568,0.1912599,-1.4645,-2.991719,-1.662568,-0.1861255,0.04592952,-0.1373211,-0.9987179,-2.616568,1.596964
6.399998,4.366659,93,132,499,501,-0.2066319,-0.3715817,0.2093592,-1.462527,-2.987277,-1.659326,-0.1935693,0.04837124,-0.1419517,-0.9970832,-2.615809,1.598965
6.599998,4.37777,93,132,499,501,-0.2151189,-0.3781321,0.2223071,-1.460397,-2.983352,-1.656152,-0.1916161,0.05411594,-0.1445102,-0.9957953,-2.615026,1.600911
6.799998,4.388882,93,132,499,501,-0.2182037,-0.3802763,0.2352378,-1.458432,-2.979402,-1.652836,-0.1847653,0.06215377,-0.1477098,-0.9947721,-2.614285,1.602926
6.999998,4.399993,93,167,499,496,-0.224665,-0.3796131,0.2574281,-1.456278,-2.975623,-1.649164,-0.1633469,0.07702874,-0.1652814,-0.9943077,-2.613866,1.605698
7.199997,4.411104,93,167,499,496,-0.2287001,-0.3762537,0.2660515,-1.454241,-2.971815,-1.645632,-0.1632022,0.08339596,-0.1682806,-0.9932952,-2.612972,1.60791
7.399997,4.422215,93,167,499,496,-0.2338817,-0.3729524,0.2756704,-1.452031,-2.968083,-1.642013,-0.1686485,0.08065686,-0.1850553,-0.9921532,-2.612719,1.610865
7.599997,4.433327,93,167,499,496,-0.2346348,-0.3681,0.2824436,-1.449955,-2.964535,-1.638361,-0.1751532,0.07577056,-0.193685,-0.990706,-2.612461,1.613481
7.799997,4.444438,93,167,499,496,-0.2364304,-0.3618214,0.2938244,-1.447811,-2.961058,-1.634535,-0.1952852,0.06802359,-0.1887511,-0.9887816,-2.611694,1.615809
7.999997,4.455549,96,145,500,501,-0.2328385,-0.3570965,0.3006768,-1.445837,-2.957584,-1.630719,-0.2090738,0.06064251,-0.1783433,-0.9868264,-2.611004,1.617834
8.199997,4.46666,96,145,500,501,-0.2350836,-0.3590494,0.3104652,-1.443743,-2.95391,-1.626778,-0.2042189,0.06219776,-0.1703651,-0.9855028,-2.610228,1.619786
8.399997,4.477772,96,145,500,501,-0.233801,-0.3569207,0.3145628,-1.441685,-2.950275,-1.622936,-0.1977578,0.06702022,-0.1651691,-0.984405,-2.609398,1.621742
8.599997,4.488883,96,145,500,501,-0.2382627,-0.3583789,0.323322,-1.439506,-2.946593,-1.618869,-0.1726332,0.08593515,-0.1775598,-0.9843161,-2.60885,1.624427
8.799996,4.499994,96,145,500,501,-0.242793,-0.3602279,0.3287507,-1.43731,-2.942879,-1.614805,-0.1580786,0.1063319,-0.2004195,-0.9843331,-2.608331,1.627787
8.999996,4.511106,103,139,500,499,-0.2385483,-0.3610669,0.3302185,-1.435368,-2.939132,-1.610925,-0.179822,0.1128649,-0.2066541,-0.9830324,-2.607131,1.630598
9.199996,4.522217,103,139,500,499,-0.231768,-0.3585245,0.3291098,-1.433542,-2.935513,-1.607165,-0.2201909,0.1051894,-0.1889879,-0.9807293,-2.605368,1.632426
9.399996,4.533328,103,139,500,499,-0.2234631,-0.3424586,0.3240154,-1.431895,-2.932383,-1.603482,-0.2566511,0.08693339,-0.163813,-0.9780001,-2.60358,1.633771
9.599996,4.544439,103,139,500,499,-0.2173289,-0.3373851,0.3266258,-1.430214,-2.929097,-1.599671,-0.2720761,0.08282083,-0.1620225,-0.9757007,-2.602021,1.635814
9.799995,4.555551,131,142,499,497,-0.211069,-0.3312744,0.3294387,-1.428528,-2.925925,-1.595748,-0.2697391,0.0852071,-0.1701258,-0.9740842,-2.600865,1.638351
9.999995,4.566662,131,142,499,497,-0.2053802,-0.3407248,0.3273674,-1.427047,-2.92222,-1.592049,-0.2537619,0.08947568,-0.1688597,-0.9727995,-2.599658,1.640482
10.2,4.577773,131,142,499,497,-0.2111004,-0.3448569,0.3269574,-1.425179,-2.918546,-1.588364,-0.2211391,0.09363604,-0.1629132,-0.9722386,-2.598816,1.642308
10.39999,4.588884,131,142,499,497,-0.2165661,-0.3635316,0.321904,-1.423298,-2.914071,-1.584806,-0.1956413,0.09652612,-0.1624227,-0.9717491,-2.598082,1.644384
10.59999,4.599996,131,142,499,497,-0.2182487,-0.3782583,0.308955,-1.421641,-2.909673,-1.581681,-0.1772627,0.09808625,-0.1673679,-0.9712501,-2.597526,1.646711
10.79999,4.611107,123,162,499,497,-0.2167711,-0.3762032,0.3044152,-1.419979,-2.905761,-1.578257,-0.1942322,0.09103782,-0.1678033,-0.9698253,-2.596497,1.648948
10.99999,4.622218,123,162,499,497,-0.2142486,-0.3677197,0.2987172,-1.418342,-2.902086,-1.575074,-0.2157444,0.1002973,-0.1525627,-0.9682087,-2.594363,1.650343
11.19999,4.633329,123,162,499,497,-0.2060742,-0.3434595,0.2991123,-1.416926,-2.89922,-1.571568,-0.2556525,0.1135771,-0.1343688,-0.965985,-2.591274,1.651347
11.39999,4.644441,123,162,499,497,-0.1942604,-0.317425,0.3051834,-1.415557,-2.896267,-1.567945,-0.3003734,0.1206967,-0.1067647,-0.9631529,-2.587675,1.651797
11.59999,4.655552,121,124,499,501,-0.1880184,-0.3023032,0.3093696,-1.414291,-2.893816,-1.564412,-0.2943326,0.1313026,-0.08749028,-0.9616829,-2.584756,1.65227
11.79999,4.666663,121,124,499,501,-0.1813346,-0.2913907,0.3117296,-1.413019,-2.891067,-1.560895,-0.2586842,0.1605962,-0.05758454,-0.9615322,-2.5813,1.651797
11.99999,4.677774,121,124,499,501,-0.1791232,-0.2877246,0.316033,-1.411551,-2.888119,-1.557272,-0.2285886,0.1706918,-0.05214933,-0.9614677,-2.578841,1.652233
12.19999,4.688886,121,124,499,501,-0.1793567,-0.2738946,0.3130961,-1.41005,-2.885654,-1.553892,-0.1878546,0.1758772,-0.06465488,-0.9620025,-2.577132,1.653314
12.39999,4.699997,121,124,499,501,-0.1760141,-0.2652962,0.3116125,-1.408714,-2.883104,-1.550555,-0.1602404,0.1678875,-0.08809117,-0.9619391,-2.576194,1.655146
12.59999,4.711108,113,134,498,497,-0.180299,-0.2621573,0.3123182,-1.407052,-2.880352,-1.546922,-0.1740023,0.1397402,-0.1032035,-0.9605916,-2.574923,1.656747
12.79999,4.722219,113,134,498,497,-0.1772451,-0.2556699,0.3104743,-1.405703,-2.877826,-1.543561,-0.1930382,0.1079848,-0.1090002,-0.9586634,-2.573954,1.658373
12.99999,4.733331,113,134,498,497,-0.1702349,-0.24602,0.3125091,-1.404617,-2.875511,-1.539995,-0.2099707,0.07723336,-0.1100138,-0.9565681,-2.572927,1.659811
13.19999,4.744442,113,134,498,497,-0.1678231,-0.2374732,0.3206393,-1.403294,-2.873263,-1.536288,-0.2000827,0.06113014,-0.1124278,-0.9551576,-2.572442,1.661379
13.39999,4.755553,119,165,502,506,-0.1740734,-0.2341748,0.323367,-1.401678,-2.8708,-1.532689,-0.1941414,0.08313532,-0.1245068,-0.9545701,-2.570915,1.663199
13.59999,4.766665,119,165,502,506,-0.1786101,-0.2381467,0.3294908,-1.400132,-2.868165,-1.528938,-0.1957882,0.1059932,-0.1269851,-0.9538974,-2.568991,1.664809
13.79999,4.777776,119,165,502,506,-0.1806751,-0.2409385,0.3315881,-1.39879,-2.865493,-1.525287,-0.2048329,0.1110368,-0.1246487,-0.9527214,-2.567152,1.666211
13.99999,4.788887,119,165,502,506,-0.1801594,-0.23658,0.3336078,-1.397341,-2.863082,-1.521607,-0.2230729,0.1257943,-0.1028214,-0.9513669,-2.56415,1.666642
14.19999,4.799998,119,165,502,506,-0.1796077,-0.2321781,0.3356492,-1.395938,-2.860762,-1.517845,-0.2422532,0.1330191,-0.08892334,-0.949729,-2.561299,1.667232
14.39999,4.81111,108,157,500,497,-0.1771163,-0.2242441,0.3328266,-1.394538,-2.858569,-1.514025,-0.2514276,0.1314675,-0.08431466,-0.9481354,-2.558768,1.668051
14.59999,4.822221,108,157,500,497,-0.1819622,-0.2193856,0.341112,-1.39292,-2.856325,-1.510138,-0.2487815,0.1123538,-0.09259576,-0.9464784,-2.557403,1.669533
14.79999,4.833332,108,157,500,497,-0.1837461,-0.220129,0.3444759,-1.391264,-2.853913,-1.506332,-0.2306557,0.1132481,-0.09945846,-0.9456006,-2.555885,1.670966
14.99999,4.844443,108,157,500,497,-0.1907264,-0.2146754,0.3537822,-1.389489,-2.85172,-1.502263,-0.2094857,0.1057381,-0.108979,-0.9448368,-2.554829,1.672572
15.19999,4.855555,108,157,500,497,-0.1926018,-0.2197526,0.3577152,-1.38781,-2.849178,-1.498338,-0.2125605,0.09512213,-0.1198655,-0.9434621,-2.553754,1.674415
15.39999,4.866666,126,171,505,495,-0.1905066,-0.2140652,0.3555188,-1.38628,-2.846974,-1.494583,-0.2153943,0.08242697,-0.134246,-0.941934,-2.55298,1.676669
15.59999,4.877777,126,171,505,495,-0.193262,-0.2055099,0.3587887,-1.384507,-2.845036,-1.490635,-0.2269962,0.07378599,-0.128046,-0.9401092,-2.551607,1.678191
15.79999,4.888888,126,171,505,495,-0.1875444,-0.1867168,0.3602685,-1.382994,-2.843505,-1.486693,-0.2322858,0.0887024,-0.1238665,-0.93885,-2.549713,1.679624
15.99999,4.9,126,171,505,495,-0.1780515,-0.1582233,0.377952,-1.381696,-2.842514,-1.482083,-0.2413345,0.1142863,-0.1183208,-0.9376884,-2.547085,1.680835
16.19999,4.911111,129,139,505,498,-0.1805908,-0.1456857,0.3890293,-1.379992,-2.841126,-1.477492,-0.2476051,0.1251211,-0.1180161,-0.9361517,-2.544497,1.682107
16.39999,4.922222,129,139,505,498,-0.1826555,-0.1355309,0.4019582,-1.378305,-2.839917,-1.472777,-0.2514163,0.1270365,-0.1102615,-0.9347482,-2.542111,1.683158
16.59999,4.933333,129,139,505,498,-0.1819468,-0.127664,0.4093792,-1.376685,-2.83869,-1.467988,-0.2272056,0.0944452,-0.1099005,-0.9334646,-2.541672,1.684584
16.79999,4.944445,129,139,505,498,-0.1836542,-0.1209475,0.4122229,-1.374992,-2.837472,-1.463451,-0.195396,0.06588997,-0.1310683,-0.9325245,-2.542021,1.686959
16.99999,4.955556,129,139,505,498,-0.1831643,-0.1143785,0.4130458,-1.373461,-2.836361,-1.458508,-0.1766038,0.04028989,-0.170282,-0.9314566,-2.543082,1.690305
17.19999,4.966667,135,123,495,498,-0.1828774,-0.1015424,0.4174967,-1.371759,-2.83554,-1.453781,-0.1785032,0.03307536,-0.191161,-0.9301388,-2.543383,1.69354
17.39999,4.977778,135,123,495,498,-0.179453,-0.08281404,0.4225165,-1.370143,-2.835129,-1.448826,-0.1904595,0.03890631,-0.1894795,-0.9286107,-2.542472,1.695844
17.59999,4.98889,135,123,495,498,-0.1794716,-0.07858227,0.4250312,-1.368469,-2.834284,-1.444058,-0.2168801,0.04967684,-0.1706598,-0.92691,-2.540642,1.697564
17.8,5.000001,135,123,495,498,-0.183327,-0.07891116,0.429125,-1.36661,-2.83324,-1.439338,-0.2286275,0.05865082,-0.1538647,-0.9252812,-2.538964,1.698998
18,5.011112,164,121,515,505,-0.1880919,-0.08511936,0.4285096,-1.364836,-2.831981,-1.434464,-0.2473509,0.07062203,-0.1276172,-0.9234309,-2.536415,1.699656
18.2,5.022223,164,121,515,505,-0.1886632,-0.0892661,0.4239532,-1.363145,-2.830698,-1.429989,-0.2481398,0.06787252,-0.1130758,-0.9217078,-2.534667,1.700596
18.4,5.033335,164,121,515,505,-0.1890901,-0.08341778,0.4200747,-1.361327,-2.829897,-1.425589,-0.2446267,0.06210244,-0.1004715,-0.9200013,-2.533355,1.701607
18.6,5.044446,164,121,515,505,-0.1833534,-0.07041088,0.4126417,-1.359713,-2.829082,-1.421209,-0.2226517,0.04569353,-0.1120393,-0.9186904,-2.533097,1.703459
18.8,5.055557,164,121,515,505,-0.1814225,-0.05292845,0.4095614,-1.358059,-2.828994,-1.416788,-0.2201083,0.03677475,-0.1380522,-0.917133,-2.532983,1.706272
19,5.066669,194,128,494,498,-0.1772913,-0.03287598,0.4076891,-1.356393,-2.828993,-1.412239,-0.2220014,0.02007435,-0.1641052,-0.9152411,-2.533273,1.709459
19.2,5.07778,194,128,494,498,-0.1770137,-0.02284057,0.4103283,-1.354782,-2.828871,-1.407277,-0.236867,0.01899116,-0.1637716,-0.9130339,-2.532228,1.711676
19.4,5.088891,194,128,494,498,-0.1741514,-0.0184273,0.4105869,-1.353201,-2.828581,-1.402696,-0.2468336,0.02097577,-0.1492287,-0.9109683,-2.530959,1.713225
19.6,5.100002,194,128,494,498,-0.1635168,-0.02052211,0.4119892,-1.352123,-2.828116,-1.39809,-0.2590295,0.03022689,-0.1229549,-0.9088666,-2.528672,1.71373
19.8,5.111114,214,112,492,497,-0.1635611,-0.01827418,0.4066449,-1.350494,-2.827728,-1.393755,-0.2641656,0.04146349,-0.09515411,-0.9068623,-2.52644,1.714013
20,5.122225,214,112,492,497,-0.1618218,-0.02023151,0.4012196,-1.349103,-2.827206,-1.389517,-0.2650906,0.03868768,-0.08912557,-0.9048372,-2.524838,1.71497
20.2,5.133336,214,112,492,497,-0.1629321,-0.01771978,0.3979714,-1.347589,-2.826653,-1.3852,-0.2665823,0.03293131,-0.09669247,-0.9027365,-2.523719,1.71669
20.40001,5.144447,214,112,492,497,-0.1654948,-0.02394792,0.3953788,-1.346012,-2.825925,-1.380937,-0.25945,0.0229947,-0.1100793,-0.9007775,-2.523125,1.718718
20.60001,5.155559,214,112,492,497,-0.1724704,-0.02688974,0.3905876,-1.344449,-2.825255,-1.376505,-0.2450364,0.008993164,-0.1248782,-0.8990682,-2.523075,1.720965
20.80001,5.16667,202,111,493,496,-0.1687508,-0.02414825,0.3854686,-1.342977,-2.824756,-1.372365,-0.2364668,-0.01234779,-0.1299548,-0.8969265,-2.523243,1.723091
21.00001,5.177781,202,111,493,496,-0.1672119,-0.02130021,0.3770667,-1.341514,-2.824389,-1.367885,-0.2429109,-0.0247142,-0.1278723,-0.8944546,-2.522722,1.72481
21.20001,5.188892,202,111,493,496,-0.1653313,-0.02044448,0.3717534,-1.339929,-2.823738,-1.364177,-0.2530537,-0.02608618,-0.1243274,-0.8919933,-2.521947,1.726513
21.40001,5.200004,202,111,493,496,-0.1670805,-0.01917602,0.3716073,-1.338341,-2.823175,-1.360086,-0.2695508,-0.01973714,-0.1143858,-0.8894479,-2.52044,1.727674
21.60001,5.211115,202,111,493,496,-0.170009,-0.01841212,0.3671074,-1.336735,-2.822525,-1.356157,-0.2726154,-0.002639502,-0.1050323,-0.8873727,-2.518742,1.728674
21.80001,5.222226,182,104,493,498,-0.1722307,-0.0181208,0.3668973,-1.335084,-2.821914,-1.352125,-0.2678082,0.01732565,-0.09581006,-0.8857077,-2.516838,1.729568
22.00001,5.233337,182,104,493,498,-0.1705744,-0.01970358,0.3658059,-1.333462,-2.821243,-1.348217,-0.2643002,0.02066526,-0.09176589,-0.883803,-2.515521,1.730698
22.20001,5.244449,182,104,493,498,-0.1738849,-0.01993081,0.3591172,-1.33177,-2.820596,-1.344424,-0.2419308,0.01531455,-0.08679102,-0.8822834,-2.514657,1.731722
22.40001,5.25556,182,104,493,498,-0.1666262,-0.02532779,0.3530323,-1.330539,-2.819804,-1.340739,-0.2307907,0.004158095,-0.09025201,-0.8805614,-2.514182,1.733217
22.60001,5.266671,208,103,491,499,-0.1632015,-0.01704772,0.3457851,-1.329108,-2.819465,-1.337089,-0.2290428,-0.004284784,-0.09934163,-0.878612,-2.513742,1.734996
22.80001,5.277782,208,103,491,499,-0.1600422,-0.01357036,0.3437995,-1.327705,-2.818995,-1.333325,-0.2338213,-0.01668814,-0.1017134,-0.8762013,-2.513207,1.736582
23.00002,5.288894,208,103,491,499,-0.1550863,-0.009759918,0.3365811,-1.326383,-2.818596,-1.329812,-0.2388267,-0.02596283,-0.1038772,-0.8738391,-2.512753,1.738275
23.20002,5.300005,208,103,491,499,-0.1548971,-0.003537722,0.3301269,-1.324949,-2.818273,-1.326171,-0.24346,-0.02704018,-0.110373,-0.8716734,-2.512263,1.740043
23.40002,5.311116,208,103,491,499,-0.1506248,0.004039735,0.3292409,-1.323779,-2.818099,-1.322542,-0.255943,-0.007919312,-0.1094883,-0.8696989,-2.510608,1.741496
23.60002,5.322227,193,97,494,497,-0.1427998,0.01339009,0.3264081,-1.322579,-2.818121,-1.318908,-0.2693234,0.0005649179,-0.1023463,-0.8674096,-2.50892,1.742712
23.80002,5.333339,193,97,494,497,-0.1299146,0.02731568,0.3227674,-1.321527,-2.818416,-1.31523,-0.2730372,0.00355354,-0.08838064,-0.8652898,-2.507495,1.743519
24.00002,5.34445,193,97,494,497,-0.1209643,0.03358331,0.3188893,-1.320523,-2.818622,-1.311646,-0.2806493,0.01745996,-0.06643922,-0.8631492,-2.504921,1.743579
24.20002,5.355561,193,97,494,497,-0.1190634,0.03867911,0.320946,-1.319552,-2.818739,-1.307981,-0.2755625,0.01782484,-0.06701183,-0.861016,-2.503256,1.744542
24.40002,5.366673,206,96,492,498,-0.1204709,0.03952875,0.3196265,-1.318359,-2.818806,-1.304351,-0.2753293,0.02337658,-0.08219715,-0.859148,-2.501784,1.746125
24.60002,5.377784,206,96,492,498,-0.1227662,0.03713717,0.3225642,-1.3173,-2.81864,-1.300789,-0.2679847,0.01727693,-0.08940722,-0.8573088,-2.500873,1.747885
24.80002,5.388895,206,96,492,498,-0.1296728,0.03245965,0.319919,-1.315914,-2.818371,-1.297285,-0.2513211,0.004320398,-0.1044471,-0.8555799,-2.50076,1.75001
25.00002,5.400006,206,96,492,498,-0.1439391,0.02455471,0.3232536,-1.314337,-2.817904,-1.293676,-0.2474288,-0.02127892,-0.1115356,-0.8530329,-2.50083,1.75194
25.20002,5.411118,206,96,492,498,-0.1473856,0.02048364,0.3251336,-1.31314,-2.817523,-1.290002,-0.2407689,-0.03050835,-0.1106855,-0.8508166,-2.500371,1.753565
25.40002,5.422229,180,98,515,499,-0.1517163,0.0168502,0.3248092,-1.31166,-2.817059,-1.286417,-0.2350348,-0.02619225,-0.1088787,-0.849004,-2.499766,1.755134
25.60003,5.43334,180,98,515,499,-0.1513605,0.01670042,0.3225991,-1.310418,-2.81667,-1.282895,-0.2370735,-0.01950799,-0.1083965,-0.8472378,-2.498647,1.756581
25.80003,5.444451,180,98,515,499,-0.1440321,0.0310888,0.3246881,-1.309154,-2.816892,-1.279032,-0.2492743,-0.01259032,-0.102263,-0.845095,-2.497247,1.757871
26.00003,5.455563,180,98,515,499,-0.1367978,0.04434352,0.3224773,-1.308049,-2.817383,-1.275272,-0.2598987,-0.01026866,-0.1052698,-0.8428484,-2.496191,1.759646
26.20003,5.466674,180,98,515,499,-0.1274006,0.06757275,0.3231776,-1.306881,-2.818346,-1.271259,-0.268607,-0.003795698,-0.102397,-0.8406827,-2.494717,1.761024
26.40003,5.477785,192,99,493,499,-0.1158878,0.09217837,0.3259711,-1.305753,-2.819716,-1.266986,-0.2626673,-0.005103335,-0.09658893,-0.8386492,-2.493566,1.762189
26.60003,5.488896,192,99,493,499,-0.1147451,0.1018398,0.3296095,-1.304509,-2.820605,-1.262854,-0.2518013,-0.00777851,-0.09543649,-0.8368403,-2.492775,1.763578
26.80003,5.500008,192,99,493,499,-0.11086,0.106124,0.3357644,-1.303569,-2.821612,-1.258792,-0.2336828,-0.01923281,-0.1007428,-0.8352643,-2.492913,1.76537
27.00003,5.511119,192,99,493,499,-0.1083575,0.1053193,0.3473724,-1.302768,-2.822467,-1.254158,-0.2284347,-0.02591309,-0.109838,-0.8333787,-2.492843,1.767587
27.20003,5.52223,237,100,507,497,-0.1109089,0.104859,0.3490181,-1.301543,-2.823079,-1.249915,-0.2288203,-0.0349091,-0.1193022,-0.8312978,-2.492853,1.769862
27.40003,5.533341,237,100,507,497,-0.1113453,0.1078905,0.3410248,-1.300344,-2.82395,-1.246039,-0.2297268,-0.03336073,-0.1163808,-0.8293605,-2.492122,1.771395
27.60003,5.544453,237,100,507,497,-0.1124933,0.1074268,0.3310466,-1.299112,-2.824579,-1.242333,-0.2242409,-0.04097216,-0.1130271,-0.8273494,-2.492041,1.773114
27.80003,5.555564,237,100,507,497,-0.1194823,0.1020137,0.3316191,-1.29767,-2.824888,-1.238424,-0.2242348,-0.04162019,-0.1128023,-0.8253855,-2.491714,1.774909
28.00003,5.566675,237,100,507,497,-0.131102,0.09437525,0.3255987,-1.296084,-2.825033,-1.234771,-0.2242272,-0.04226834,-0.1125759,-0.8234201,-2.491392,1.776708
28.20004,5.577786,238,95,503,499,-0.1349392,0.08704185,0.3201947,-1.29564,-2.824325,-1.230789,-0.2299756,-0.06378561,-0.1302795,-0.8204773,-2.492843,1.780274
28.40004,5.588898,238,95,503,499,-0.1314566,0.08733699,0.3180569,-1.2944,-2.824691,-1.227055,-0.236228,-0.06625681,-0.1297698,-0.8184725,-2.492196,1.781777
28.60004,5.600009,238,95,503,499,-0.1338344,0.09419037,0.316051,-1.292932,-2.825094,-1.223318,-0.2510512,-0.0563225,-0.1126123,-0.8160394,-2.490889,1.782923
28.80004,5.61112,238,95,503,499,-0.1314468,0.1016293,0.311133,-1.291565,-2.825813,-1.219607,-0.2636032,-0.04426253,-0.09846945,-0.8138173,-2.489113,1.78397
29.00004,5.622231,222,97,500,498,-0.1278002,0.111272,0.3178606,-1.290071,-2.82684,-1.215366,-0.2593836,-0.03601496,-0.09570659,-0.8118562,-2.488158,1.78537
29.20004,5.633343,222,97,500,498,-0.1266423,0.1124174,0.3175295,-1.288902,-2.82779,-1.21067,-0.2554679,-0.03980918,-0.09761426,-0.8096441,-2.487716,1.787132
29.40004,5.644454,222,97,500,498,-0.1277456,0.113773,0.3255686,-1.287556,-2.828381,-1.206456,-0.2525509,-0.03861722,-0.09565985,-0.8075759,-2.486953,1.788599
29.60004,5.655565,222,97,500,498,-0.1284416,0.1186787,0.3301111,-1.286055,-2.829215,-1.202298,-0.2392302,-0.04797171,-0.09894294,-0.8055125,-2.487009,1.790352
29.80004,5.666677,222,97,500,498,-0.1221843,0.1262934,0.3285271,-1.284869,-2.830167,-1.198219,-0.227158,-0.05783459,-0.1069727,-0.8035508,-2.487409,1.792526
30.00004,5.677788,242,97,505,497,-0.1134005,0.1386251,0.3255941,-1.283885,-2.831253,-1.194212,-0.2234303,-0.07328372,-0.1122051,-0.801326,-2.488149,1.794603
30.20004,5.688899,242,97,505,497,-0.09917155,0.1509672,0.3230314,-1.283062,-2.832728,-1.190046,-0.2149162,-0.07906763,-0.120417,-0.7994341,-2.488656,1.797028
30.40004,5.70001,242,97,505,497,-0.09670702,0.1618751,0.3291968,-1.281933,-2.834032,-1.18562,-0.2224064,-0.0810578,-0.1239131,-0.7971171,-2.488836,1.79935
30.60004,5.711122,242,97,505,497,-0.09120613,0.1636555,0.3322207,-1.280938,-2.835451,-1.181289,-0.2385435,-0.08324012,-0.1221604,-0.7946745,-2.488567,1.801249
30.80005,5.722233,210,108,503,503,-0.09466648,0.1654539,0.3323385,-1.279751,-2.836615,-1.176978,-0.2399682,-0.08020292,-0.1194149,-0.7924055,-2.488395,1.803221
31.00005,5.733344,210,108,503,503,-0.0932931,0.1673446,0.3285629,-1.278556,-2.837917,-1.172738,-0.2472584,-0.08471091,-0.1132952,-0.7896619,-2.488205,1.805002
31.20005,5.744455,210,108,503,503,-0.09759122,0.1686074,0.3307935,-1.27732,-2.839048,-1.168372,-0.2489261,-0.08534087,-0.1078103,-0.7871734,-2.487945,1.806781
31.40005,5.755567,210,108,503,503,-0.09619078,0.170489,0.3269951,-1.276183,-2.840447,-1.164143,-0.2413653,-0.08580166,-0.1014605,-0.7850514,-2.488263,1.808731
31.60005,5.766678,210,108,503,503,-0.1087129,0.1626289,0.3403305,-1.274764,-2.841094,-1.159522,-0.234789,-0.08486362,-0.1098785,-0.7829997,-2.488541,1.811024
31.80005,5.777789,211,123,505,499,-0.109411,0.1570436,0.3437299,-1.273558,-2.841983,-1.155018,-0.2271264,-0.08896202,-0.1275776,-0.7809352,-2.489345,1.813914
32.00005,5.7889,211,123,505,499,-0.1180942,0.1519089,0.3399619,-1.27211,-2.842614,-1.150863,-0.225469,-0.09494708,-0.1342304,-0.7786657,-2.490062,1.816647
32.20005,5.800012,211,123,505,499,-0.1168948,0.14941,0.3324647,-1.270828,-2.843524,-1.146817,-0.2229755,-0.1116515,-0.1388596,-0.7761357,-2.491458,1.819421
32.40005,5.811123,211,123,505,499,-0.1201345,0.1462159,0.3236077,-1.269475,-2.844182,-1.143003,-0.2268581,-0.1161915,-0.1386253,-0.7737394,-2.492532,1.822332
32.60005,5.822234,211,123,505,499,-0.1260835,0.1455364,0.3173904,-1.268,-2.84509,-1.139062,-0.2376614,-0.1159566,-0.1334015,-0.7710539,-2.4927,1.824648
32.80005,5.833345,227,112,499,498,-0.1331587,0.142002,0.3179249,-1.266358,-2.845661,-1.134996,-0.2496989,-0.1143732,-0.1161863,-0.7683721,-2.492313,1.826204
33.00005,5.844457,227,112,499,498,-0.1387294,0.1432693,0.3233129,-1.264782,-2.846286,-1.13071,-0.2473783,-0.1082803,-0.102623,-0.7659107,-2.491962,1.827648
33.20005,5.855568,227,112,499,498,-0.139595,0.1379074,0.3322574,-1.263439,-2.846829,-1.126274,-0.2424497,-0.103285,-0.1032008,-0.7635416,-2.492145,1.829736
33.40005,5.866679,227,112,499,498,-0.132807,0.1402115,0.3430014,-1.262316,-2.847485,-1.121689,-0.2447733,-0.1040594,-0.1091914,-0.761084,-2.49237,1.832101
33.60006,5.87779,221,114,484,496,-0.1265074,0.1420208,0.3419004,-1.261112,-2.848343,-1.117394,-0.2437074,-0.1018792,-0.1136612,-0.758758,-2.492619,1.834537
33.80006,5.888902,221,114,484,496,-0.1187959,0.1524668,0.3374192,-1.260006,-2.849482,-1.113038,-0.2373084,-0.1064432,-0.1108728,-0.7563798,-2.49301,1.836662
34.00006,5.900013,221,114,484,496,-0.1066754,0.1626109,0.3268916,-1.258847,-2.850915,-1.108967,-0.2226315,-0.1190936,-0.1180188,-0.7540384,-2.494305,1.83946
34.20006,5.911124,221,114,484,496,-0.1007648,0.1673095,0.3219693,-1.25787,-2.852173,-1.104811,-0.2223218,-0.1266626,-0.1269214,-0.7513896,-2.49537,1.842294
34.40006,5.922235,221,114,484,496,-0.09752405,0.1747936,0.3206219,-1.256823,-2.85343,-1.100517,-0.215969,-0.1363917,-0.1313365,-0.7489661,-2.496828,1.845354
34.60006,5.933347,195,117,495,497,-0.08816457,0.175304,0.3220907,-1.256103,-2.854727,-1.096135,-0.2085666,-0.1374401,-0.1266393,-0.7467583,-2.497755,1.847693
34.80006,5.944458,195,117,495,497,-0.08360469,0.181901,0.3241939,-1.255251,-2.856067,-1.091672,-0.1982186,-0.1301742,-0.1210083,-0.7448318,-2.498532,1.849884
35.00006,5.955569,195,117,495,497,-0.07263163,0.1836722,0.3244988,-1.254699,-2.857389,-1.087219,-0.1987509,-0.1204486,-0.1218582,-0.7429788,-2.498915,1.852285
35.20006,5.966681,195,117,495,497,-0.06291094,0.194531,0.3284179,-1.254168,-2.859077,-1.082503,-0.2096937,-0.1144995,-0.1208649,-0.7406991,-2.499156,1.854618
35.40006,5.977792,257,121,498,498,-0.05060798,0.2049909,0.3379987,-1.253813,-2.860904,-1.077569,-0.2203043,-0.1098427,-0.1151212,-0.7383603,-2.499111,1.856802
35.60006,5.988903,257,121,498,498,-0.04708722,0.21117,0.3376692,-1.253201,-2.862588,-1.07281,-0.213865,-0.1104633,-0.1151503,-0.7364242,-2.499873,1.859248
35.80006,6.000014,257,121,498,498,-0.04438922,0.2091953,0.338802,-1.252778,-2.863983,-1.068146,-0.2044446,-0.1218568,-0.1238125,-0.734266,-2.50131,1.862231
36.00006,6.011126,257,121,498,498,-0.04166082,0.2100112,0.3242022,-1.252172,-2.865722,-1.063944,-0.1900301,-0.1346319,-0.129705,-0.732078,-2.503152,1.865328
36.20007,6.022237,257,121,498,498,-0.03494024,0.2071601,0.3150918,-1.251861,-2.867233,-1.059808,-0.1869502,-0.1392049,-0.127377,-0.7298483,-2.50443,1.867996
36.40007,6.033348,256,120,503,498,-0.0314292,0.2092958,0.3079057,-1.251391,-2.86892,-1.055532,-0.1920265,-0.1340456,-0.1212784,-0.7279495,-2.50511,1.870325
36.60007,6.044459,256,120,503,498,-0.03023925,0.2100092,0.3083895,-1.250992,-2.870465,-1.051151,-0.1907979,-0.1185861,-0.1080175,-0.7260975,-2.505157,1.871943
36.80007,6.055571,256,120,503,498,-0.03637305,0.2040379,0.3193861,-1.250464,-2.871539,-1.046527,-0.1857497,-0.1121122,-0.1088414,-0.7242776,-2.505817,1.874168
37.00007,6.066682,256,120,503,498,-0.04723305,0.1992936,0.3242312,-1.249706,-2.872592,-1.041998,-0.1817613,-0.1128395,-0.1182197,-0.7224565,-2.506986,1.877002
37.20007,6.077793,273,125,490,496,-0.05238834,0.1916519,0.3172546,-1.249028,-2.873648,-1.03796,-0.1666873,-0.1311397,-0.1389042,-0.7206844,-2.509553,1.88095
37.40007,6.088904,273,125,490,496,-0.04973948,0.1880311,0.3091318,-1.248574,-2.874889,-1.033912,-0.1505767,-0.1404513,-0.1436471,-0.7191872,-2.512088,1.884151
37.60007,6.100016,273,125,490,496,-0.04222175,0.1873154,0.2921302,-1.248208,-2.87624,-1.030315,-0.1603477,-0.1361771,-0.1317288,-0.7172137,-2.512826,1.886522
37.80007,6.111127,273,125,490,496,-0.04183605,0.1918721,0.292846,-1.247679,-2.877584,-1.026116,-0.1683744,-0.1156032,-0.1142999,-0.7156622,-2.51292,1.888033
38.00007,6.122238,273,125,490,496,-0.05200744,0.1902423,0.3037729,-1.246922,-2.878568,-1.021717,-0.1701618,-0.1124155,-0.1100228,-0.713839,-2.513576,1.890199
38.20007,6.133349,290,122,506,497,-0.05927679,0.1913458,0.3099716,-1.246119,-2.879661,-1.017265,-0.184661,-0.1207226,-0.1055248,-0.7113623,-2.514143,1.892506
38.40007,6.144461,290,122,506,497,-0.06440887,0.1830835,0.3132257,-1.245438,-2.880339,-1.013065,-0.1917738,-0.1207021,-0.09821551,-0.7091082,-2.514513,1.894484
38.60007,6.155572,290,122,506,497,-0.0637843,0.1801387,0.2960203,-1.244776,-2.881549,-1.009403,-0.192012,-0.1269718,-0.09672081,-0.7068397,-2.515298,1.896687
38.80008,6.166683,290,122,506,497,-0.06104818,0.1808008,0.2880542,-1.244128,-2.88274,-1.005535,-0.1924146,-0.129885,-0.1008328,-0.7045542,-2.516163,1.899158
39.00008,6.177794,290,122,506,497,-0.06031004,0.1845977,0.285661,-1.243531,-2.883998,-1.001484,-0.1880265,-0.1325884,-0.1016685,-0.7025829,-2.517048,1.901483
39.20008,6.188906,255,129,492,496,-0.06129181,0.1881914,0.2908305,-1.242873,-2.885179,-0.9971685,-0.1848733,-0.1285019,-0.09936266,-0.7005525,-2.517718,1.903606
39.40008,6.200017,255,129,492,496,-0.06403303,0.1916828,0.3035491,-1.242193,-2.886184,-0.9926033,-0.1754914,-0.1292177,-0.1061712,-0.698773,-2.519042,1.906311
39.60008,6.211128,255,129,492,496,-0.06618056,0.1994343,0.3140527,-1.241533,-2.887514,-0.9878735,-0.1769286,-0.1386762,-0.129552,-0.6968315,-2.520787,1.910076
39.80008,6.222239,255,129,492,496,-0.0659622,0.2058999,0.3118513,-1.240783,-2.888822,-0.983434,-0.1779914,-0.1470513,-0.1499587,-0.6947729,-2.523087,1.914267
40.00008,6.233351,270,128,507,497,-0.06644994,0.2086299,0.3017058,-1.240008,-2.890232,-0.9793636,-0.1791406,-0.1607578,-0.1608231,-0.6926397,-2.525459,1.91838
40.20008,6.244462,270,128,507,497,-0.05537358,0.2191686,0.2906193,-1.239514,-2.892024,-0.9751905,-0.1755574,-0.1681634,-0.1484553,-0.6903313,-2.527345,1.921495
40.40008,6.255573,270,128,507,497,-0.04584596,0.2261789,0.2891578,-1.239105,-2.893687,-0.9708426,-0.1620149,-0.1596244,-0.1293625,-0.6886295,-2.528736,1.9237
40.60008,6.266685,270,128,507,497,-0.03298965,0.2350968,0.292995,-1.238839,-2.895562,-0.9661394,-0.1584896,-0.148285,-0.1224162,-0.6868942,-2.530037,1.926394
40.80008,6.277796,270,128,507,497,-0.02024671,0.2565885,0.2963143,-1.238718,-2.898088,-0.9611987,-0.1564081,-0.1404824,-0.1266124,-0.685267,-2.531475,1.929358
41.00008,6.288907,252,135,494,497,-0.009488553,0.2598527,0.3013724,-1.238737,-2.900041,-0.9564029,-0.1519107,-0.1333158,-0.1412565,-0.6839072,-2.533473,1.933105
41.20008,6.300018,252,135,494,497,-0.005181611,0.2692182,0.3027033,-1.238451,-2.902194,-0.9515224,-0.1691631,-0.1469749,-0.1393046,-0.681447,-2.535099,1.936497
41.40009,6.31113,252,135,494,497,0.001776248,0.274261,0.2988975,-1.23829,-2.904445,-0.9468347,-0.185628,-0.1603526,-0.1084818,-0.6784909,-2.53597,1.938285
41.60009,6.322241,252,135,494,497,0.003153384,0.2822177,0.2889963,-1.238025,-2.906849,-0.9422088,-0.1946521,-0.1850572,-0.09222861,-0.6752301,-2.537391,1.940727
41.80009,6.333352,271,122,506,500,0.003136724,0.2902568,0.2888857,-1.237767,-2.909354,-0.9372702,-0.195971,-0.1986753,-0.1053001,-0.6725302,-2.539901,1.94441
42.00009,6.344463,271,122,506,500,-0.01156917,0.2975735,0.2940294,-1.236978,-2.911568,-0.9321256,-0.1741298,-0.2041965,-0.1263843,-0.6704865,-2.543174,1.948781
42.20009,6.355575,271,122,506,500,-0.01576811,0.2935247,0.2962542,-1.236467,-2.91343,-0.927253,-0.166591,-0.2054131,-0.1416411,-0.6683549,-2.546149,1.953101
42.40009,6.366686,271,122,506,500,-0.02025667,0.2925859,0.2929386,-1.235921,-2.915505,-0.9225115,-0.1620968,-0.1983406,-0.1395665,-0.6662856,-2.548346,1.956576
42.60009,6.377797,271,122,506,500,-0.02630836,0.2943207,0.2919121,-1.23537,-2.91757,-0.9177168,-0.1480055,-0.1901692,-0.1311773,-0.6644635,-2.550504,1.959507
42.80009,6.388908,276,128,499,497,-0.03290761,0.2923571,0.2864361,-1.234754,-2.919606,-0.9129396,-0.1451862,-0.1950908,-0.1297486,-0.6623649,-2.553211,1.963173
43.00009,6.40002,276,128,499,497,-0.03716514,0.2974841,0.2866991,-1.234,-2.921705,-0.908024,-0.1512716,-0.1997797,-0.1279061,-0.6599483,-2.555506,1.966692
43.20009,6.411131,276,128,499,497,-0.03725141,0.2996556,0.2827891,-1.23335,-2.923805,-0.9031104,-0.1640889,-0.2156415,-0.1261314,-0.6571691,-2.558066,1.970507
43.40009,6.422242,276,128,499,497,-0.03083,0.3083649,0.2829336,-1.232882,-2.926185,-0.8981111,-0.1771612,-0.2247262,-0.1263565,-0.6542385,-2.560469,1.974372
43.60009,6.433353,277,116,502,498,-0.02488577,0.3168206,0.2773391,-1.232456,-2.928701,-0.8931624,-0.1894217,-0.2402821,-0.1146371,-0.6507716,-2.562614,1.977713
43.80009,6.444465,277,116,502,498,-0.01318595,0.3210458,0.2750515,-1.23228,-2.931251,-0.8882601,-0.1809392,-0.2391805,-0.1104302,-0.6481117,-2.565059,1.981134
44.0001,6.455576,277,116,502,498,-0.006860435,0.3296851,0.2726493,-1.232127,-2.933966,-0.8832523,-0.1780602,-0.235997,-0.1080711,-0.6454954,-2.567314,1.984514
44.2001,6.466687,277,116,502,498,0.003592193,0.3361657,0.2714727,-1.232062,-2.936756,-0.8781592,-0.1700353,-0.2421865,-0.1139245,-0.6428685,-2.570416,1.988587
44.4001,6.477798,277,116,502,498,0.01240051,0.3384499,0.2671188,-1.231962,-2.939464,-0.873274,-0.1704796,-0.2427756,-0.1181549,-0.6402569,-2.573388,1.992677
44.6001,6.48891,287,135,497,494,0.01408771,0.3440669,0.2628552,-1.231536,-2.941838,-0.8680723,-0.1684211,-0.2547051,-0.1244559,-0.6372849,-2.576969,1.997116
44.8001,6.500021,287,135,497,494,0.004241884,0.3479109,0.2681846,-1.230974,-2.944387,-0.8628168,-0.1766849,-0.2614258,-0.1260611,-0.6342254,-2.580032,2.001515
45.0001,6.511132,287,135,497,494,0.003039598,0.3597715,0.2884841,-1.230584,-2.946866,-0.856773,-0.1801583,-0.2625498,-0.1204509,-0.6314152,-2.582872,2.005444
45.2001,6.522243,287,135,497,494,-0.005215168,0.3744788,0.3227661,-1.230135,-2.949379,-0.8500171,-0.1867164,-0.2575614,-0.1077748,-0.6284165,-2.584946,2.008761
45.4001,6.533355,287,135,497,494,-0.008539021,0.3741676,0.3258341,-1.229718,-2.951626,-0.8442343,-0.1895377,-0.2544394,-0.08734411,-0.6253251,-2.586595,2.011413
45.6001,6.544466,310,126,494,499,0.001529127,0.3556786,0.2850944,-1.229593,-2.954185,-0.8401565,-0.185236,-0.2559649,-0.0815855,-0.6223387,-2.588933,2.014657
45.8001,6.555577,310,126,494,499,-0.000895381,0.3310134,0.2491313,-1.229213,-2.956197,-0.8367849,-0.1772363,-0.2615567,-0.09889949,-0.6197011,-2.592505,2.019403
46.0001,6.566689,310,126,494,499,-0.01402751,0.3151756,0.23835,-1.228472,-2.957976,-0.8327534,-0.1599112,-0.2596712,-0.1114734,-0.6174006,-2.5962,2.023988
46.2001,6.5778,310,126,494,499,-0.04578701,0.298032,0.2317415,-1.226946,-2.959302,-0.8286394,-0.1392117,-0.2624521,-0.1282528,-0.6153356,-2.600522,2.029131
46.4001,6.588911,294,129,492,502,-0.04137325,0.2984317,0.2278485,-1.226454,-2.96136,-0.8243021,-0.1319724,-0.2542972,-0.1187928,-0.6129286,-2.60352,2.032891
46.60011,6.600022,294,129,492,502,-0.0005081296,0.3135599,0.2067645,-1.226866,-2.964607,-0.8201466,-0.1534382,-0.2297918,-0.07361603,-0.6100817,-2.603566,2.033807
46.80011,6.611134,294,129,492,502,0.006404966,0.3155758,0.2011781,-1.226613,-2.967085,-0.8159664,-0.170467,-0.2238917,-0.0465544,-0.6070223,-2.604321,2.035592
47.00011,6.622245,294,129,492,502,-0.008600295,0.2967123,0.2046794,-1.226023,-2.968614,-0.8120394,-0.1760923,-0.2270434,-0.04673624,-0.6040976,-2.606124,2.038486
47.20011,6.633356,294,129,492,502,-0.03297812,0.2789531,0.2078456,-1.224943,-2.969706,-0.8083189,-0.1844332,-0.2317071,-0.04749914,-0.601166,-2.608091,2.041703
47.40011,6.644467,387,136,489,498,-0.08058888,0.2489225,0.2184834,-1.22304,-2.969645,-0.8048318,-0.1829697,-0.2478284,-0.0701288,-0.5982355,-2.611842,2.046784
47.60011,6.655579,387,136,489,498,-0.1282928,0.2276901,0.2167799,-1.220652,-2.969812,-0.8015487,-0.176404,-0.2547998,-0.05731349,-0.5951201,-2.614039,2.049505
47.80011,6.66669,387,136,489,498,-0.1672294,0.2034919,0.2045915,-1.218015,-2.969684,-0.7987694,-0.1648024,-0.2555186,-0.04659766,-0.5923147,-2.616387,2.052206
48.00011,6.677801,387,136,489,498,-0.2016553,0.1937394,0.190904,-1.215114,-2.969714,-0.7959464,-0.1620326,-0.2572424,-0.03944594,-0.5893394,-2.618642,2.055016
48.20011,6.688912,353,125,491,497,-0.2295245,0.1842635,0.1826149,-1.21221,-2.969601,-0.7930894,-0.1567492,-0.2678235,-0.05133839,-0.5864131,-2.622271,2.059443
48.40011,6.700024,353,125,491,497,-0.2374092,0.1817577,0.1809805,-1.209543,-2.969608,-0.790113,-0.1534906,-0.2655753,-0.06332566,-0.5837974,-2.625447,2.063565
48.60011,6.711135,353,125,491,497,-0.2354944,0.1756283,0.1753934,-1.207291,-2.969637,-0.7874594,-0.1462224,-0.2745259,-0.076916,-0.5811497,-2.62949,2.068256
48.80011,6.722246,353,125,491,497,-0.2265248,0.1767514,0.1686495,-1.205072,-2.969976,-0.7846684,-0.1463104,-0.2761258,-0.07874188,-0.5783368,-2.632937,2.072562
49.00011,6.733357,353,125,491,497,-0.1948857,0.1862933,0.1673111,-1.203617,-2.97095,-0.7814524,-0.1463502,-0.2560313,-0.05874223,-0.5760322,-2.634315,2.074617
49.20012,6.744469,364,133,507,496,-0.1687033,0.1945152,0.1646196,-1.202354,-2.972013,-0.7783195,-0.1564882,-0.2454705,-0.02412513,-0.5728822,-2.634947,2.075808
49.40012,6.75558,364,133,507,496,-0.1131327,0.2098156,0.1626302,-1.200789,-2.974743,-0.7719311,-0.1614859,-0.2103456,-0.007568374,-0.5679052,-2.636388,2.078904
49.60012,6.766691,364,133,507,496,-0.1131327,0.2098156,0.1626302,-1.200789,-2.974743,-0.7719311,-0.1614859,-0.2103456,-0.007568374,-0.5679052,-2.636388,2.078904
49.80012,6.777802,364,133,507,496,-0.09211665,0.2129872,0.1686706,-1.200379,-2.976028,-0.7685148,-0.1549759,-0.2018417,-0.01491307,-0.5657646,-2.638045,2.081547
50.00012,6.788914,332,134,504,495,-0.08264545,0.2153378,0.1745656,-1.199671,-2.977249,-0.765205,-0.150959,-0.2023053,-0.03214097,-0.5635765,-2.640464,2.085016
50.20012,6.800025,332,134,504,495,-0.07407758,0.2263916,0.1891501,-1.199055,-2.978615,-0.7611522,-0.133376,-0.2046693,-0.04539497,-0.5617054,-2.643566,2.088683
50.40012,6.811136,332,134,504,495,-0.06704301,0.2433784,0.2172373,-1.19861,-2.979975,-0.7564288,-0.1270644,-0.2131551,-0.04642647,-0.5594188,-2.646375,2.091899
50.60012,6.822248,332,134,504,495,-0.04383841,0.2498137,0.2086914,-1.198518,-2.981828,-0.7525513,-0.119454,-0.2150868,-0.05852687,-0.5574593,-2.649594,2.095804
50.80012,6.833359,318,138,504,498,-0.01514691,0.232432,0.1705066,-1.198403,-2.985075,-0.7466385,-0.1112088,-0.1937291,-0.063708,-0.5540153,-2.65406,2.101887
51.00012,6.84447,318,138,504,498,-0.01056275,0.2226423,0.1649407,-1.198323,-2.98633,-0.7436163,-0.1247899,-0.1830526,-0.04833145,-0.5518272,-2.654958,2.103813
51.20012,6.855581,318,138,504,498,-0.01056275,0.2226423,0.1649407,-1.198323,-2.98633,-0.7436163,-0.1247899,-0.1830526,-0.04833145,-0.5518272,-2.654958,2.103813
51.40012,6.866693,318,138,504,498,-0.01019973,0.2244199,0.1632206,-1.19787,-2.989292,-0.7370256,-0.1241659,-0.167825,-0.04215346,-0.5483657,-2.657659,2.108441
51.60012,6.877804,318,138,504,498,-0.0132829,0.2282004,0.1663696,-1.197613,-2.9909,-0.7336034,-0.1381214,-0.1819794,-0.03482161,-0.545679,-2.65932,2.111127
51.80013,6.888915,318,138,504,498,-0.0132829,0.2282004,0.1663696,-1.197613,-2.9909,-0.7336034,-0.1381214,-0.1819794,-0.03482161,-0.545679,-2.65932,2.111127
52.00013,6.900026,355,129,498,497,-0.04697397,0.2455755,0.2177292,-1.196263,-2.992917,-0.7248416,-0.1451588,-0.1768171,0.003652841,-0.5405194,-2.659958,2.113145
52.20013,6.911138,355,129,498,497,-0.04697397,0.2455755,0.2177292,-1.196263,-2.992917,-0.7248416,-0.1451588,-0.1768171,0.003652841,-0.5405194,-2.659958,2.113145
52.40013,6.922249,355,129,498,497,-0.07622245,0.2373566,0.2117917,-1.194117,-2.994669,-0.7174029,-0.1459128,-0.2037967,-0.04086549,-0.5360816,-2.665936,2.121367
52.60013,6.93336,370,132,482,496,-0.07411572,0.2173376,0.1811502,-1.193281,-2.99554,-0.715104,-0.1361656,-0.2066608,-0.06076562,-0.5342514,-2.669483,2.125974
52.80013,6.944471,370,132,482,496,-0.07411572,0.2173376,0.1811502,-1.193281,-2.99554,-0.715104,-0.1361656,-0.2066608,-0.06076562,-0.5342514,-2.669483,2.125974
53.00013,6.955583,370,132,482,496,-0.07545914,0.2137146,0.1642223,-1.192384,-2.996786,-0.7121527,-0.1238068,-0.2093607,-0.05976278,-0.5321992,-2.6721,2.129127
53.20013,6.966694,370,132,482,496,-0.08204725,0.2244473,0.1638247,-1.190404,-2.999237,-0.7050985,-0.1329785,-0.2225978,-0.06212608,-0.5275238,-2.678152,2.137081
53.40013,6.977805,370,132,482,496,-0.09099734,0.228973,0.1692735,-1.18916,-3.000144,-0.7015395,-0.1486827,-0.2182097,-0.05394789,-0.5249804,-2.679888,2.140198
53.60013,6.988916,365,134,492,497,-0.1081377,0.2285804,0.17855,-1.187645,-3.000747,-0.6979213,-0.1725914,-0.2133594,-0.03134504,-0.5219561,-2.680256,2.14204
53.80013,7.000028,365,134,492,497,-0.1193267,0.2275807,0.1866867,-1.186321,-3.001438,-0.6941918,-0.1871764,-0.2082083,-0.009437159,-0.5188866,-2.680363,2.143492
54.00013,7.011139,365,134,492,497,-0.1201738,0.2415012,0.1942655,-1.185002,-3.002557,-0.6900208,-0.1885886,-0.2083277,0.004840568,-0.5158186,-2.681148,2.145255
54.20013,7.02225,365,134,492,497,-0.1201738,0.2415012,0.1942655,-1.185002,-3.002557,-0.6900208,-0.1885886,-0.2083277,0.004840568,-0.5158186,-2.681148,2.145255
54.40014,7.033361,365,134,492,497,-0.1186414,0.2520622,0.1991574,-1.183828,-3.003805,-0.685871,-0.1855914,-0.2194244,0.001198396,-0.5128742,-2.683461,2.148504
54.60014,7.044473,396,121,489,497,-0.1129197,0.2634206,0.2005273,-1.182691,-3.005248,-0.6816036,-0.1674387,-0.2511492,-0.009546131,-0.5097051,-2.687776,2.153302
54.80014,7.055584,396,121,489,497,-0.1050346,0.265333,0.1965297,-1.181801,-3.006657,-0.6776099,-0.1447521,-0.2457637,-0.02471147,-0.5076597,-2.691327,2.157423
55.00014,7.066695,396,121,489,497,-0.1016726,0.2614494,0.1988862,-1.180978,-3.007591,-0.6738234,-0.1313619,-0.2420211,-0.05402339,-0.5059234,-2.695336,2.162555
55.20014,7.077806,396,121,489,497,-0.08355406,0.2629167,0.2026845,-1.179693,-3.010038,-0.6658084,-0.133551,-0.2336364,-0.06647739,-0.5017598,-2.701661,2.171243
55.40014,7.088918,396,121,489,497,-0.08355406,0.2629167,0.2026845,-1.179693,-3.010038,-0.6658084,-0.133551,-0.2336364,-0.06647739,-0.5017598,-2.701661,2.171243
55.60014,7.100029,419,123,516,491,-0.0548256,0.2769354,0.2012897,-1.179668,-3.012059,-0.6614248,-0.1274387,-0.2287668,-0.05727763,-0.4996324,-2.704406,2.17468
55.80014,7.11114,419,123,516,491,-0.03694266,0.2860587,0.1970675,-1.17941,-3.014072,-0.6571696,-0.1307092,-0.2467768,-0.05387472,-0.4968958,-2.70845,2.179445
56.00014,7.122252,419,123,516,491,-0.0002709329,0.310298,0.1929478,-1.179952,-3.01699,-0.6523264,-0.1363311,-0.2697008,-0.06117611,-0.4939823,-2.71327,2.185309
56.20014,7.133363,419,123,516,491,0.0182023,0.3089103,0.1949187,-1.180506,-3.018942,-0.6478917,-0.1454628,-0.2856413,-0.05477524,-0.4907998,-2.71741,2.190582
56.40014,7.144474,443,140,517,497,0.01767564,0.3068075,0.2020756,-1.180781,-3.02283,-0.6389552,-0.1365933,-0.2561527,-0.04024962,-0.4862975,-2.722875,2.197526
56.60014,7.155585,443,140,517,497,0.01407591,0.3002054,0.206159,-1.1808,-3.024416,-0.6346915,-0.14075,-0.2403231,-0.03427798,-0.4840982,-2.724793,2.200533
56.80014,7.166697,443,140,517,497,0.01266652,0.2965339,0.2037133,-1.180838,-3.026105,-0.6305098,-0.1393595,-0.2360087,-0.05332877,-0.4822191,-2.728541,2.205795
57.00014,7.177808,443,140,517,497,0.01266652,0.2965339,0.2037133,-1.180838,-3.026105,-0.6305098,-0.1393595,-0.2360087,-0.05332877,-0.4822191,-2.728541,2.205795
57.20015,7.188919,404,140,515,503,0.003667027,0.3127066,0.2002871,-1.180469,-3.030335,-0.6213788,-0.1072557,-0.2662537,-0.08671536,-0.478104,-2.74014,2.218954
57.40015,7.20003,404,140,515,503,0.006057769,0.3322028,0.2216089,-1.180772,-3.032491,-0.6156797,-0.1033639,-0.2794206,-0.0927947,-0.4760219,-2.745538,2.225157
57.60015,7.211142,404,140,515,503,0.006057769,0.3322028,0.2216089,-1.180772,-3.032491,-0.6156797,-0.1033639,-0.2794206,-0.0927947,-0.4760219,-2.745538,2.225157
57.80015,7.222253,404,140,515,503,-0.009692788,0.3709687,0.2756904,-1.180556,-3.03447,-0.608111,-0.1012198,-0.2917235,-0.1031751,-0.4737929,-2.751914,2.232413
58.00015,7.233364,404,140,515,503,0.04169428,0.3308228,0.2012552,-1.181904,-3.039235,-0.6005492,-0.09376213,-0.2976868,-0.1165243,-0.469976,-2.764218,2.246435
58.20015,7.244475,446,172,512,502,0.06280747,0.3213716,0.1818596,-1.182896,-3.041768,-0.5966594,-0.1005391,-0.2920282,-0.09192614,-0.4673102,-2.768232,2.251219
58.40015,7.255587,446,172,512,502,0.06280747,0.3213716,0.1818596,-1.182896,-3.041768,-0.5966594,-0.1005391,-0.2920282,-0.09192614,-0.4673102,-2.768232,2.251219
58.60015,7.266698,446,172,512,502,0.06774998,0.3308929,0.181556,-1.183468,-3.044308,-0.5918289,-0.1049547,-0.2905728,-0.07570806,-0.464745,-2.772584,2.256303
58.80015,7.277809,446,172,512,502,0.04262316,0.325341,0.1948193,-1.183987,-3.047858,-0.5825335,-0.1234705,-0.2618676,-0.05278488,-0.4603402,-2.778838,2.264776
59.00015,7.28892,446,172,512,502,0.04262316,0.325341,0.1948193,-1.183987,-3.047858,-0.5825335,-0.1234705,-0.2618676,-0.05278488,-0.4603402,-2.778838,2.264776
59.20015,7.300032,476,165,486,494,0.02538994,0.3316986,0.2073993,-1.183831,-3.049529,-0.5774851,-0.1222986,-0.2686943,-0.05123504,-0.457913,-2.783465,2.270299
59.40015,7.311143,476,165,486,494,0.01981407,0.3354347,0.2067211,-1.183945,-3.05157,-0.5726057,-0.1215781,-0.2798918,-0.05077715,-0.4552125,-2.788502,2.276281
59.60015,7.322254,476,165,486,494,0.01793563,0.3232414,0.1882875,-1.184357,-3.055248,-0.5641204,-0.1184428,-0.2902356,-0.04645427,-0.4501541,-2.798249,2.287744
59.80016,7.333365,476,165,486,494,0.01771367,0.3185466,0.1842402,-1.184494,-3.057106,-0.5599232,-0.1131183,-0.291505,-0.05208986,-0.4478808,-2.803713,2.294007
60.00016,7.344477,436,151,512,497,0.01089355,0.3181467,0.1824794,-1.18441,-3.05888,-0.5554827,-0.1078865,-0.2877709,-0.05051097,-0.44577,-2.808593,2.299559
60.20016,7.355588,436,151,512,497,-0.00054124,0.3184576,0.1847781,-1.184084,-3.060508,-0.5511188,-0.1037075,-0.2907519,-0.05280592,-0.4435005,-2.814164,2.30583
60.40016,7.366699,436,151,512,497,-0.00054124,0.3184576,0.1847781,-1.184084,-3.060508,-0.5511188,-0.1037075,-0.2907519,-0.05280592,-0.4435005,-2.814164,2.30583
60.60016,7.37781,436,151,512,497,-0.01911691,0.3163964,0.1862572,-1.183436,-3.061887,-0.5467076,-0.09511572,-0.2978087,-0.07387441,-0.44155,-2.821351,2.313853
60.80016,7.388922,434,167,506,494,-0.01495221,0.3095174,0.1732888,-1.183142,-3.065207,-0.5385743,-0.1064823,-0.2876283,-0.04179871,-0.436596,-2.830129,2.324272
61.00016,7.400033,434,167,506,494,-0.005405158,0.3046178,0.1714138,-1.1833,-3.06691,-0.5344884,-0.1151281,-0.2941858,-0.006937295,-0.4331227,-2.833893,2.328575
61.20016,7.411144,434,167,506,494,-0.01235771,0.3042957,0.1696836,-1.182942,-3.068439,-0.5303398,-0.1140447,-0.2927874,-0.01057032,-0.4306039,-2.838724,2.33419
61.40016,7.422256,434,167,506,494,-0.03065151,0.300478,0.1686633,-1.182077,-3.06962,-0.5263994,-0.1154149,-0.2966865,-0.01401983,-0.4281005,-2.844223,2.340564
61.60016,7.433367,434,167,506,494,-0.03191504,0.2990474,0.1689537,-1.1817,-3.071047,-0.522264,-0.1034878,-0.2874893,-0.022773,-0.4261495,-2.849574,2.346488
61.80016,7.444478,444,145,520,500,-0.02350795,0.2983907,0.1677258,-1.181579,-3.072561,-0.5182671,-0.09375748,-0.2740937,-0.0346482,-0.4246549,-2.854103,2.351664
62.00016,7.455589,444,145,520,500,-0.01193482,0.2984383,0.1664992,-1.181689,-3.074095,-0.5140578,-0.09439693,-0.2708127,-0.03051072,-0.4224839,-2.858786,2.357043
62.20016,7.466701,444,145,520,500,-0.01193482,0.2984383,0.1664992,-1.181689,-3.074095,-0.5140578,-0.09439693,-0.2708127,-0.03051072,-0.4224839,-2.858786,2.357043
62.40017,7.477812,444,145,520,500,-0.0002892613,0.2959098,0.1625757,-1.181921,-3.077256,-0.5060539,-0.1056585,-0.2767151,-0.01982926,-0.4175341,-2.867702,2.367594
62.60017,7.488923,437,148,486,495,-0.01071516,0.2909406,0.1627247,-1.181598,-3.078474,-0.5021577,-0.1044885,-0.2780071,-0.0179038,-0.4151192,-2.872953,2.373579
62.80017,7.500034,437,148,486,495,-0.01909268,0.2809179,0.1648255,-1.181346,-3.079424,-0.4985097,-0.1021163,-0.2684808,-0.0149051,-0.412912,-2.877507,2.378896
63.00017,7.511146,437,148,486,495,-0.02277142,0.2742895,0.1664519,-1.181149,-3.080463,-0.4948862,-0.09156303,-0.2533696,-0.009644262,-0.4110536,-2.881454,2.383236
63.20017,7.522257,437,148,486,495,-0.02396381,0.2673612,0.156109,-1.1809,-3.081687,-0.4914645,-0.08293122,-0.2542294,-0.01569872,-0.4092543,-2.88687,2.389133
63.40017,7.533368,437,148,486,495,-0.01569566,0.2782861,0.1505741,-1.180855,-3.083529,-0.4873185,-0.08097735,-0.2480981,-0.0278815,-0.4076937,-2.891962,2.394988
63.60017,7.544479,437,148,486,495,-0.01569566,0.2782861,0.1505741,-1.180855,-3.083529,-0.4873185,-0.08097735,-0.2480981,-0.0278815,-0.4076937,-2.891962,2.394988
63.80017,7.555591,438,150,499,499,-0.03498071,0.2656354,0.1411086,-1.17981,-3.085636,-0.4803544,-0.09079267,-0.2699417,-0.02505872,-0.4029645,-2.903157,2.407951
64.00017,7.566702,438,150,499,499,-0.04901329,0.2566155,0.1343414,-1.178946,-3.086512,-0.4771831,-0.09467566,-0.2689192,-0.02144961,-0.4008169,-2.908206,2.413818
64.20016,7.577813,438,150,499,499,-0.06216758,0.2528394,0.1360436,-1.178099,-3.087166,-0.4737188,-0.09456164,-0.2555193,-0.02383136,-0.3990726,-2.912546,2.419123
64.40016,7.588924,438,150,499,499,-0.07450324,0.2456754,0.1308836,-1.17699,-3.087852,-0.4706418,-0.08553915,-0.2366828,-0.02737202,-0.3977724,-2.916658,2.423876
64.60016,7.600036,438,150,499,499,-0.07450324,0.2456754,0.1308836,-1.17699,-3.087852,-0.4706418,-0.08553915,-0.2366828,-0.02737202,-0.3977724,-2.916658,2.423876
64.80016,7.611147,435,156,503,500,-0.06805089,0.2395445,0.1210836,-1.175719,-3.089859,-0.4644367,-0.07639512,-0.2418598,-0.03294207,-0.3944451,-2.927598,2.436098
65.00015,7.622258,435,156,503,500,-0.06544641,0.2327023,0.1202353,-1.175158,-3.09059,-0.4615311,-0.07809,-0.2469009,-0.02621439,-0.392363,-2.932388,2.44162
65.20015,7.633369,435,156,503,500,-0.06104545,0.226835,0.1232884,-1.174815,-3.091128,-0.4585921,-0.07103664,-0.2425466,-0.02490221,-0.3907624,-2.9375,2.447145
65.40015,7.644481,454,180,501,495,-0.05872965,0.2223356,0.118845,-1.174272,-3.09194,-0.4557601,-0.0761603,-0.2348053,-0.04112387,-0.3896402,-2.942529,2.453341
65.60014,7.655592,454,180,501,495,-0.04602771,0.2195638,0.1179429,-1.174178,-3.092877,-0.4529036,-0.08323187,-0.2352926,-0.04044428,-0.3879922,-2.947641,2.459477
65.80014,7.666703,454,180,501,495,-0.04602771,0.2195638,0.1179429,-1.174178,-3.092877,-0.4529036,-0.08323187,-0.2352926,-0.04044428,-0.3879922,-2.947641,2.459477
66.00014,7.677814,454,180,501,495,0.004005089,0.2159032,0.1166616,-1.175203,-3.095204,-0.4469956,-0.09040907,-0.2094051,0.02809849,-0.3831,-2.951891,2.464499
66.20013,7.688926,454,180,501,495,0.02630283,0.2138544,0.1170492,-1.176118,-3.096482,-0.4441199,-0.09025934,-0.200785,0.01892445,-0.3815846,-2.955306,2.468687
66.40013,7.700037,429,165,524,498,0.03417332,0.2184064,0.1229332,-1.176688,-3.097553,-0.4408469,-0.08581126,-0.2086907,-0.02014268,-0.3808768,-2.96184,2.476235
66.60013,7.711148,429,165,524,498,0.03544897,0.2507114,0.166317,-1.17751,-3.098496,-0.4359919,-0.07103747,-0.1975908,-0.04443814,-0.380464,-2.967062,2.482176
66.80013,7.72226,429,165,524,498,0.03108126,0.2864345,0.2052391,-1.178072,-3.099447,-0.4304052,-0.06469688,-0.1918714,-0.05349527,-0.3797082,-2.971466,2.487306
67.00012,7.733371,429,165,524,498,0.03917468,0.2699775,0.1925314,-1.178855,-3.100471,-0.427162,-0.05884215,-0.182872,-0.07294021,-0.3795329,-2.976634,2.49337
67.20012,7.744482,429,165,524,498,0.03917468,0.2699775,0.1925314,-1.178855,-3.100471,-0.427162,-0.05884215,-0.182872,-0.07294021,-0.3795329,-2.976634,2.49337
67.40012,7.755593,428,165,521,502,0.09977334,0.1996895,0.1166797,-1.182064,-3.103437,-0.4242863,-0.06528205,-0.1874386,-0.04437473,-0.3767904,-2.984854,2.502999
67.60011,7.766705,428,165,521,502,0.09371041,0.2057652,0.1165038,-1.182852,-3.104598,-0.421221,-0.08460647,-0.2022399,-0.01520267,-0.3741672,-2.98862,2.507782
67.80011,7.777816,428,165,521,502,0.05993289,0.2115722,0.127569,-1.182771,-3.105128,-0.4180076,-0.09176394,-0.2094037,-0.01520167,-0.3726263,-2.993269,2.513611
68.00011,7.788927,428,165,521,502,0.02973975,0.2288486,0.1400761,-1.182481,-3.105785,-0.4142116,-0.08787933,-0.2073579,-0.03890375,-0.3719009,-2.998872,2.520371
68.2001,7.800038,369,148,497,497,0.005983844,0.2363866,0.1423544,-1.182104,-3.106573,-0.4107489,-0.08152719,-0.2047666,-0.04772917,-0.3711142,-3.003379,2.525859
68.4001,7.81115,369,148,497,497,-0.0137877,0.2366651,0.1329035,-1.181433,-3.107397,-0.4077017,-0.07555942,-0.1988312,-0.04348118,-0.3700526,-3.007877,2.531039
68.6001,7.822261,369,148,497,497,-0.01386318,0.2257801,0.1129196,-1.181368,-3.108404,-0.4053746,-0.06751338,-0.1921985,-0.04545133,-0.3691786,-3.012271,2.536172
68.80009,7.833372,369,148,497,497,8.305907E-05,0.2171338,0.104441,-1.181774,-3.109519,-0.4028393,-0.06061758,-0.194263,-0.04767174,-0.3682891,-3.017712,2.542197
69.00009,7.844483,433,165,513,496,0.007306591,0.2228675,0.101258,-1.181929,-3.110649,-0.3997479,-0.07217348,-0.1943671,-0.04796763,-0.3672137,-3.022338,2.547809
69.20009,7.855595,433,165,513,496,0.0104892,0.2236284,0.1038972,-1.182196,-3.111686,-0.3968003,-0.08219026,-0.2070918,-0.04556163,-0.3657537,-3.027968,2.554627
69.40009,7.866706,433,165,513,496,0.0104892,0.2236284,0.1038972,-1.182196,-3.111686,-0.3968003,-0.08219026,-0.2070918,-0.04556163,-0.3657537,-3.027968,2.554627
69.60008,7.877817,433,165,513,496,0.0173358,0.2367808,0.1110288,-1.18279,-3.114127,-0.3901829,-0.1099862,-0.2416552,-0.003101744,-0.3611108,-3.038003,2.567008
69.80008,7.888928,433,165,513,496,0.008149952,0.2461014,0.1191195,-1.182692,-3.114981,-0.386659,-0.1144288,-0.234359,0.01367627,-0.3589025,-3.041852,2.571851
70.00008,7.90004,429,163,537,500,0.001779705,0.2587879,0.1243791,-1.181114,-3.115761,-0.3822536,-0.1094634,-0.2280289,0.02214661,-0.3571778,-3.045803,2.576716
70.20007,7.911151,429,163,537,500,0.002293468,0.2570939,0.1243238,-1.181031,-3.116249,-0.377698,-0.1033389,-0.208318,0.02222933,-0.3557174,-3.04905,2.580745
70.40007,7.922262,429,163,537,500,0.005321771,0.2510433,0.1122059,-1.180179,-3.117505,-0.3743691,-0.09730884,-0.2068462,0.02297356,-0.3540673,-3.053353,2.585789
70.60007,7.933373,429,163,537,500,0.006086618,0.2496752,0.1071898,-1.179261,-3.118247,-0.3703482,-0.09061588,-0.2127756,0.001417592,-0.35301,-3.059397,2.592767
70.80006,7.944485,429,163,537,500,-0.008217365,0.2579081,0.1024025,-1.178777,-3.119534,-0.3668339,-0.08383834,-0.2405544,-0.02290157,-0.3517455,-3.067886,2.602345
71.00006,7.955596,414,172,521,506,-0.02218655,0.2596682,0.1016656,-1.177728,-3.120411,-0.3628717,-0.07985541,-0.2473734,-0.03865041,-0.3507628,-3.075528,2.611016
71.20006,7.966707,414,172,521,506,-0.02821577,0.2634886,0.09552356,-1.177206,-3.121721,-0.3594474,-0.07352546,-0.2429564,-0.04157837,-0.3497881,-3.081738,2.617943
71.40005,7.977818,414,172,521,506,-0.03169319,0.2687745,0.09473086,-1.176568,-3.12311,-0.3554596,-0.07445958,-0.2430324,-0.02650557,-0.3482962,-3.087687,2.624459
71.60005,7.98893,414,172,521,506,-0.03169319,0.2687745,0.09473086,-1.176568,-3.12311,-0.3554596,-0.07445958,-0.2430324,-0.02650557,-0.3482962,-3.087687,2.624459
71.80005,8.000041,365,183,497,498,-0.03667122,0.2717992,0.0923954,-1.175357,-3.125404,-0.348416,-0.0670732,-0.2322961,0.01507846,-0.3445731,-3.097467,2.63492
72.00005,8.011152,365,183,497,498,-0.0308544,0.2733031,0.08986373,-1.175124,-3.126799,-0.3449209,-0.06253217,-0.2519743,0.009510405,-0.3428809,-3.105541,2.643533
72.20004,8.022264,365,183,497,498,-0.0308544,0.2733031,0.08986373,-1.175124,-3.126799,-0.3449209,-0.06253217,-0.2519743,0.009510405,-0.3428809,-3.105541,2.643533
72.40004,8.033375,365,183,497,498,-0.02531388,0.2805854,0.09371025,-1.174823,-3.128119,-0.341103,-0.05739889,-0.2572527,-0.004549973,-0.3417368,-3.113423,2.652093
72.60004,8.044486,365,183,497,498,-0.0107455,0.2896871,0.08696765,-1.174563,-3.13124,-0.3336312,-0.0566635,-0.27687,-0.0121747,-0.3389661,-3.130229,2.670238
72.80003,8.055597,394,223,498,495,-0.003190398,0.289474,0.09001646,-1.174755,-3.132632,-0.3298426,-0.0627097,-0.27009,0.0142796,-0.3366981,-3.136076,2.676631
73.00003,8.066709,394,223,498,495,0.006652206,0.2893121,0.09190077,-1.175158,-3.134174,-0.3263906,-0.05122446,-0.2476903,0.04278669,-0.3346336,-3.13986,2.68025
73.20003,8.07782,394,223,498,495,0.005494505,0.2876264,0.08793456,-1.175159,-3.135772,-0.3228481,-0.04925595,-0.2434644,0.04113777,-0.3331599,3.136834,2.687051
73.40002,8.088931,394,223,498,495,0.01307473,0.2915917,0.08764459,-1.175418,-3.137474,-0.31906,-0.05136189,-0.244624,0.02240296,-0.3320328,3.129664,2.694952
73.60002,8.100042,390,184,512,498,0.02111211,0.2952307,0.08438857,-1.17599,-3.139181,-0.3156101,-0.05092482,-0.2472627,0.01905245,-0.3306144,3.122622,2.702417
73.80002,8.111154,390,184,512,498,0.02536646,0.2953027,0.07947524,-1.176212,-3.140993,-0.3120889,-0.03945604,-0.2340638,0.02870036,-0.3291667,3.11696,2.708078
74.00002,8.122265,390,184,512,498,0.026732,0.2964079,0.07935177,-1.176613,3.140559,-0.3086018,-0.03097008,-0.2249344,0.03348331,-0.3278927,3.111429,2.713521
74.20001,8.133376,390,184,512,498,0.03386328,0.2955216,0.07794335,-1.177155,3.138848,-0.3049969,-0.02739605,-0.2205,0.03022996,-0.3266782,3.105378,2.719719
74.40001,8.144487,390,184,512,498,0.03386328,0.2955216,0.07794335,-1.177155,3.138848,-0.3049969,-0.02739605,-0.2205,0.03022996,-0.3266782,3.105378,2.719719
74.60001,8.155599,397,162,512,496,0.04448026,0.2952957,0.08441226,-1.178299,3.135613,-0.2977158,-0.02576786,-0.2408515,0.01002691,-0.3246702,3.089059,2.736751
74.8,8.16671,397,162,512,496,0.05402717,0.2999705,0.07816379,-1.178996,3.133629,-0.2940828,-0.02899612,-0.2589233,-0.001737729,-0.3236497,3.079844,2.746656
75,8.177821,397,162,512,496,0.05005562,0.3042439,0.07601739,-1.179517,3.131939,-0.2905051,-0.0297246,-0.2595089,0.00716652,-0.3223288,3.072481,2.754261
75.2,8.188932,397,162,512,496,0.0402064,0.3093266,0.07666215,-1.179601,3.130217,-0.28653,-0.02498049,-0.2605097,0.02543456,-0.3205727,3.064858,2.761874
75.39999,8.200044,397,162,512,496,0.02450889,0.3114269,0.07445621,-1.179515,3.128685,-0.2828661,-0.01871833,-0.2416396,0.04400428,-0.3190888,3.05922,2.767246
75.59999,8.211155,397,162,512,496,0.02193221,0.3122543,0.078996,-1.179633,3.127103,-0.2788782,-0.01414439,-0.2327771,0.03874533,-0.3179878,3.052637,2.773859
75.79999,8.222266,397,162,512,496,0.03064311,0.3075266,0.08304836,-1.180395,3.125615,-0.2754481,-0.01670536,-0.2267863,0.0513318,-0.3163511,3.046651,2.77993
75.99998,8.233377,397,162,512,496,0.06046417,0.3189227,0.09040806,-1.181847,3.123553,-0.271163,-0.01651171,-0.2370895,0.04675683,-0.3149694,3.038465,2.788285
76.19998,8.244489,397,162,512,496,0.09245151,0.3708013,0.1353105,-1.184142,3.121471,-0.2648626,-0.01909178,-0.2534585,0.04107901,-0.3135648,3.029129,2.798007
76.39998,8.2556,515,234,474,488,0.1143719,0.4104221,0.1743875,-1.186414,3.119815,-0.2584918,-0.01424006,-0.2652621,0.03499057,-0.3123883,3.019921,2.807251
76.59998,8.266711,515,234,474,488,0.1473632,0.3865647,0.1646605,-1.188952,3.117911,-0.2541987,-0.0003888905,-0.2824793,0.01073287,-0.311804,3.008466,2.81875
76.79997,8.277822,515,234,474,488,0.1688924,0.3762864,0.1663347,-1.19162,3.116225,-0.2499052,0.01400083,-0.2843346,-0.02612816,-0.3120905,2.997817,2.829588
76.99997,8.288934,515,234,474,488,0.1912424,0.3682413,0.1554708,-1.194249,3.114026,-0.2454194,0.04181412,-0.2960744,-0.08044451,-0.3135627,2.984293,2.84303
77.19997,8.300045,515,234,474,488,0.193625,0.3696314,0.1504252,-1.196636,3.112064,-0.2409676,0.05415365,-0.2944397,-0.09977899,-0.3142008,2.972695,2.854515
77.39996,8.311156,532,248,476,494,0.1870112,0.3633241,0.1431719,-1.198543,3.110252,-0.2366048,0.04230952,-0.2829664,-0.0669394,-0.313453,2.963866,2.863367
77.59996,8.322268,532,248,476,494,0.1674888,0.3547643,0.1421219,-1.200075,3.108963,-0.2325962,0.03085205,-0.2756613,-0.04422601,-0.3124772,2.955382,2.872022
77.79996,8.333379,532,248,476,494,0.15654,0.3494295,0.1404059,-1.201683,3.107495,-0.228463,0.01228535,-0.2599912,-0.03237428,-0.3117954,2.948207,2.879744
77.99995,8.34449,532,248,476,494,0.1400659,0.3411982,0.1399823,-1.203135,3.106327,-0.2244704,0.00182429,-0.2626086,-0.01140643,-0.3107834,2.939614,2.888633
78.19995,8.355601,531,241,520,498,0.1363049,0.346684,0.1372489,-1.20485,3.104719,-0.22,-0.0001392961,-0.2612541,0.009427369,-0.3094684,2.931093,2.897229
78.39995,8.366713,531,241,520,498,0.1357084,0.3493829,0.1357075,-1.206439,3.103183,-0.2155105,0.003529698,-0.2661594,0.03241444,-0.3080105,2.921706,2.906359
78.59995,8.377824,531,241,520,498,0.1354028,0.3501816,0.139262,-1.208251,3.101875,-0.2112169,0.003750682,-0.2529382,0.04594964,-0.3066364,2.914433,2.913517
78.79994,8.388935,531,241,520,498,0.1373153,0.3473093,0.1433215,-1.210047,3.100645,-0.206876,0.007387534,-0.2387717,0.02549329,-0.3064345,2.907158,2.92097
78.99994,8.400046,531,241,520,498,0.1259449,0.3454978,0.1362435,-1.211356,3.099319,-0.2028956,0.01259612,-0.2387948,0.01367252,-0.306092,2.898564,2.929699
79.19994,8.411158,537,232,473,507,0.1163203,0.3397535,0.1383036,-1.212687,3.098369,-0.1987576,0.02615273,-0.2452688,0.006118819,-0.3058225,2.888772,2.939199
79.39993,8.422269,537,232,473,507,0.1171596,0.3397693,0.129169,-1.214001,3.09703,-0.1946126,0.02980611,-0.2513982,0.002794683,-0.3054752,2.87952,2.948557
79.59993,8.43338,537,232,473,507,0.1170458,0.3373476,0.1259315,-1.215502,3.095854,-0.1905944,0.03010419,-0.2580258,0.002757311,-0.305031,2.869663,2.958408
79.79993,8.444491,537,232,473,507,0.1170458,0.3373476,0.1259315,-1.215502,3.095854,-0.1905944,0.03010419,-0.2580258,0.002757311,-0.305031,2.869663,2.958408
79.99992,8.455603,537,245,518,494,0.1142374,0.3358997,0.1150208,-1.218209,3.093106,-0.1825682,0.02050859,-0.2689517,0.01934198,-0.3033404,2.849916,2.97833
