loc,t,aDotS,bDotS,gDotS,aS,bS,gS,xS,yS,zS,qE,qDotE,emgA,emgB,aDotSH,bDotSH,gDotSH,aSH,bSH,gSH,xSH,ySH,zSH,aDotUB,bDotUB,gDotUB,aUB,bUB,gUB,xUB,yUB,zUB,xHand,yHand,zHand,aHand,bHand,gHand,enable
1,0,-0.1337717,-0.5634021,1.098715,-1.47442,-4.565893,-2.229205,0.3290074,1.276365,0.4469261,-0.5993322,0.1886315,11.72414,13.22048,-0.935745,0.4176803,0.1802384,-0.3941297,-3.598604,-0.5221103,0.4236879,1.44192,0.3891485,-0.3160602,0.5844458,-0.02366862,-1.181808,0.3076108,-0.04072213,0.5610379,1.481677,0.2276695,0.01762012,1.146128,0.3567658,297.9989,255.6905,4.739308,True
1,0.01111111,-0.1219815,-0.6007702,1.061541,-1.474448,-4.552649,-2.22968,0.3264338,1.276137,0.4440963,-0.5999234,-0.05576503,11.75066,13.11335,-0.9356387,0.4282688,0.2090181,-0.3939103,-3.582817,-0.5263357,0.4219577,1.442055,0.3886259,-0.3404498,0.5929198,-0.009603776,-1.181735,0.3150425,-0.03894607,0.5609554,1.481571,0.2283876,0.01784504,1.145993,0.3452303,298.1611,265.7671,351.2821,True
1,0.02222222,-0.1186991,-0.6510564,1.002072,-1.472905,-4.539865,-2.229816,0.3239295,1.276624,0.4425399,-0.6009359,-0.09180018,11.77719,13.00621,-0.9386958,0.4292699,0.2367339,-0.3931891,-3.567198,-0.5302287,0.4201628,1.442168,0.3880558,-0.3499901,0.5992984,-0.004175942,-1.181755,0.3224998,-0.03774498,0.5608213,1.481505,0.2291696,0.01842759,1.145522,0.3312083,298.2818,265.3046,347.8758,True
1,0.03333334,-0.1367717,-0.6918752,0.9362181,-1.470724,-4.527764,-2.229024,0.3213228,1.276913,0.4400945,-0.6015655,-0.05659004,11.77719,12.94193,-0.9324039,0.449535,0.2335561,-0.3938677,-3.551287,-0.5346967,0.4183431,1.442312,0.3872433,-0.3500487,0.6195495,-0.00946055,-1.18232,0.3306336,-0.03690768,0.5606619,1.48144,0.2298999,0.01912416,1.145197,0.3165507,298.4518,262.1674,346.8942,True
1,0.04444445,-0.1612468,-0.715572,0.898019,-1.469026,-4.515397,-2.227645,0.3188401,1.277505,0.4386098,-0.6012747,0.02690993,11.80371,12.89908,-0.9143338,0.4453756,0.2217395,-0.394624,-3.537671,-0.5375985,0.4166451,1.442665,0.3866875,-0.3456708,0.6344352,0.005455701,-1.181976,0.3388392,-0.03639023,0.5604911,1.481411,0.2306647,0.01973093,1.145025,0.3027597,298.4904,259.3742,345.921,True
1,0.05555556,-0.214511,-0.7544692,0.8258444,-1.465211,-4.50384,-2.224846,0.316225,1.27793,0.4358308,-0.6003388,0.085319,11.85676,12.81337,-0.8833272,0.4390761,0.2386127,-0.3943012,-3.522805,-0.5424076,0.4149506,1.443038,0.3861721,-0.3500325,0.6642801,-0.004035162,-1.182626,0.3480046,-0.03581419,0.5602642,1.48133,0.2314017,0.02020078,1.145071,0.291111,298.5287,257.045,345.0728,True
1,0.06666667,-0.2348311,-0.7578817,0.7939361,-1.463174,-4.49235,-2.222915,0.3136823,1.278431,0.4334755,-0.5996725,0.06024009,11.93634,12.72766,-0.8586578,0.4135775,0.2512234,-0.3934091,-3.509979,-0.5454575,0.4132492,1.443404,0.3855357,-0.3641047,0.6707202,-0.02946428,-1.184045,0.3563097,-0.03432042,0.5601439,1.481242,0.2320626,0.02018386,1.145332,0.2821864,298.5738,255.304,344.6704,True
1,0.07777778,-0.2753974,-0.7646739,0.7386661,-1.459999,-4.481921,-2.219618,0.3111355,1.279524,0.4321611,-0.5984155,0.1144955,11.98939,12.72766,-0.8369113,0.3528711,0.2893505,-0.3904375,-3.499565,-0.5464974,0.4116976,1.44386,0.3849573,-0.3685411,0.66011,-0.05182187,-1.185601,0.3638776,-0.03288551,0.5599232,1.481205,0.2327268,0.01960569,1.145884,0.2761039,298.6073,254.177,344.7839,True
1,0.08888889,-0.3084873,-0.776795,0.6791623,-1.456237,-4.471494,-2.216607,0.3084923,1.279949,0.4291863,-0.5993817,-0.08892269,12.01592,12.77051,-0.814168,0.3092108,0.327499,-0.3872689,-3.488528,-0.5483928,0.4102764,1.444247,0.3843236,-0.3633593,0.6345856,-0.07213117,-1.186931,0.370451,-0.03161652,0.5597046,1.481167,0.2333829,0.01816848,1.146705,0.2722928,298.5985,253.5345,345.5595,True
1,0.1,-0.3330457,-0.7845034,0.6430293,-1.452559,-4.46139,-2.213256,0.3059589,1.28098,0.4278636,-0.5984752,0.08375601,12.01592,12.85623,-0.7956573,0.2825413,0.3848839,-0.3832486,-3.474676,-0.5530701,0.408803,1.444691,0.3836632,-0.3676823,0.612231,-0.0817301,-1.188349,0.3769245,-0.02981835,0.5594939,1.481113,0.2340214,0.016233,1.147873,0.2701149,298.5252,253.2394,346.487,True
1,0.1111111,-0.3769484,-0.7604652,0.5812828,-1.449093,-4.452707,-2.209055,0.3033179,1.281625,0.4253049,-0.5988874,-0.03818637,11.98939,13.00621,-0.7740121,0.2644271,0.4358815,-0.3791713,-3.45972,-0.5589941,0.4073358,1.445148,0.3830459,-0.3729347,0.5887793,-0.07531702,-1.18881,0.3831418,-0.02791818,0.5591519,1.480992,0.2346289,0.01392731,1.149427,0.2689102,298.4062,253.073,347.5284,True
1,0.1222222,-0.3994856,-0.7351072,0.5588869,-1.446457,-4.443353,-2.205263,0.3007507,1.28221,0.4227824,-0.5988821,0.001128902,11.90981,13.13477,-0.7557049,0.2495365,0.4623922,-0.3752921,-3.445681,-0.5642319,0.4058566,1.445542,0.3824875,-0.3740501,0.5738801,-0.08279632,-1.190134,0.3893894,-0.02606729,0.5588381,1.480878,0.2352433,0.01129196,1.151233,0.2677824,298.11,252.8787,348.7511,True
1,0.1333333,-0.4253262,-0.6959666,0.5183143,-1.443864,-4.436023,-2.200584,0.2983107,1.283229,0.4216242,-0.5984347,0.04103968,11.83024,13.28477,-0.7127887,0.1847031,0.4705856,-0.3706247,-3.437275,-0.5654634,0.404181,1.445805,0.3820403,-0.3849003,0.5622157,-0.1082814,-1.192221,0.3957824,-0.02376259,0.5583608,1.480716,0.2358344,0.008749275,1.153291,0.2662826,297.7784,252.562,349.7635,True
1,0.1444445,-0.441511,-0.6707013,0.4724594,-1.440314,-4.428295,-2.196522,0.2957276,1.283893,0.4188871,-0.5989726,-0.04934221,11.77719,13.47761,-0.7064248,0.1751646,0.4577514,-0.3675508,-3.4265,-0.5678477,0.4026431,1.446152,0.3815005,-0.3816971,0.5653989,-0.1061689,-1.193404,0.4026359,-0.0221314,0.5579484,1.480559,0.2365282,0.006174905,1.155466,0.2638588,297.3965,252.2723,350.585,True
1,0.1555556,-0.4384803,-0.6548526,0.4351031,-1.436917,-4.421309,-2.192672,0.2932705,1.284988,0.4177105,-0.5986573,0.02941566,11.77719,13.69188,-0.6884583,0.1635857,0.4203643,-0.3654613,-3.417953,-0.5686379,0.4012186,1.446513,0.3810036,-0.3549821,0.5824395,-0.09463406,-1.194239,0.4102125,-0.02180623,0.5574328,1.480474,0.2371111,0.003947211,1.157724,0.2603338,297.013,251.7175,351.1403,True
1,0.1666667,-0.4546877,-0.6252611,0.3956291,-1.433849,-4.414669,-2.188085,0.2909107,1.285899,0.4161656,-0.5994185,-0.06962858,11.85676,13.92758,-0.6660942,0.1392038,0.3989154,-0.3625106,-3.409978,-0.5693583,0.3998573,1.446809,0.3804154,-0.3358124,0.5963126,-0.09368896,-1.195403,0.418004,-0.02149011,0.5571746,1.480515,0.2376792,0.002163734,1.160087,0.2559626,296.6942,250.8556,351.414,True
1,0.1777778,-0.4814898,-0.6041923,0.3657819,-1.43067,-4.408616,-2.182683,0.2885839,1.286936,0.4150357,-0.5999969,-0.05209571,11.93634,14.12042,-0.6351435,0.09462923,0.3752355,-0.3594591,-3.406014,-0.5670443,0.3984727,1.447111,0.3798125,-0.3070688,0.5974044,-0.09605339,-1.196731,0.4251882,-0.02167467,0.5567312,1.480462,0.2381811,0.0005828771,1.162444,0.2508642,296.3459,249.6857,351.7493,True
1,0.1888889,-0.5200852,-0.5747377,0.3199523,-1.427245,-4.403604,-2.176418,0.2863351,1.287771,0.4133065,-0.5994973,0.04619322,11.96286,14.22755,-0.6350009,0.08712268,0.3954692,-0.3554676,-3.396328,-0.5691481,0.3971865,1.447445,0.3791909,-0.2985477,0.580358,-0.09721497,-1.197883,0.4312097,-0.02080621,0.5563269,1.480364,0.2386844,-0.0006213863,1.164815,0.2456195,296.0219,248.3022,351.9243,True
1,0.2,-0.53298,-0.565316,0.2922478,-1.423665,-4.398385,-2.170887,0.2840961,1.288769,0.4122984,-0.5988714,0.05685323,11.98939,14.31326,-0.6210072,0.08819062,0.4241619,-0.3512699,-3.385039,-0.5733826,0.395907,1.447732,0.3785586,-0.2941615,0.5537019,-0.08452309,-1.198472,0.4366942,-0.01973482,0.5558422,1.480239,0.2390685,-0.001704834,1.167158,0.240594,295.7337,247.0094,352.0226,True
1,0.2111111,-0.5331672,-0.5430871,0.257002,-1.420197,-4.393901,-2.165798,0.2820686,1.289542,0.4110026,-0.5983329,0.04902883,11.96286,14.31326,-0.6028584,0.09143907,0.4294035,-0.3477918,-3.374643,-0.5773779,0.3947217,1.447992,0.3779752,-0.3047402,0.5355543,-0.07804543,-1.198809,0.4421622,-0.01811775,0.5552943,1.480039,0.239398,-0.002910602,1.169504,0.2360877,295.5008,245.8257,352.2148,True
1,0.2222222,-0.5172929,-0.5303518,0.2345516,-1.416505,-4.388723,-2.161663,0.2799173,1.290231,0.4090521,-0.5992507,-0.08409314,11.83024,14.24898,-0.5804273,0.08618867,0.4367343,-0.3439611,-3.36448,-0.5812397,0.3935033,1.44827,0.377383,-0.3069695,0.5100241,-0.09299734,-1.200469,0.4474522,-0.01661386,0.5549446,1.480004,0.2398047,-0.004455538,1.1719,0.2322092,295.2921,244.7424,352.6095,True
1,0.2333333,-0.4770027,-0.5004336,0.210901,-1.413578,-4.384905,-2.158352,0.2781199,1.291143,0.4082282,-0.6001119,-0.07778352,11.67109,14.14185,-0.5249959,0.1066064,0.4514099,-0.3403482,-3.351225,-0.5902537,0.3924473,1.448664,0.3770323,-0.3006995,0.4621317,-0.1123267,-1.202378,0.4512127,-0.01485591,0.5544192,1.479818,0.2401156,-0.006198606,1.174411,0.2291206,295.0185,243.7216,353.1541,True
1,0.2444444,-0.4143331,-0.4661492,0.1967622,-1.410895,-4.380781,-2.156631,0.2763605,1.291884,0.4066539,-0.6011367,-0.09305938,11.51194,14.01328,-0.4653293,0.0674867,0.4222761,-0.3368894,-3.345843,-0.592128,0.3913479,1.448968,0.3764207,-0.2922465,0.4269966,-0.1241727,-1.203977,0.4549153,-0.01331447,0.5538645,1.479609,0.2405345,-0.008156969,1.176954,0.2267186,294.6224,242.9749,353.8234,True
1,0.2555556,-0.3495382,-0.4393312,0.1688029,-1.408116,-4.377728,-2.15537,0.274691,1.292691,0.4057901,-0.6022419,-0.1003115,11.37931,13.86329,-0.4237581,-0.02596694,0.3547709,-0.3335918,-3.351164,-0.5837992,0.3902487,1.449181,0.3760216,-0.268812,0.3939975,-0.1276321,-1.205539,0.4583462,-0.01229502,0.5532724,1.479508,0.2408028,-0.01021921,1.179397,0.2247408,294.19,242.3505,354.6061,True
1,0.2666667,-0.3263168,-0.40953,0.1366872,-1.405384,-4.375,-2.152824,0.2729163,1.293298,0.4043713,-0.6037216,-0.1346442,11.32626,13.79901,-0.3951363,-0.0609042,0.3002344,-0.3312131,-3.352695,-0.5787763,0.3892032,1.44941,0.3754842,-0.2539239,0.3950846,-0.1309389,-1.207026,0.4632395,-0.01170912,0.5528222,1.47949,0.2411079,-0.01203101,1.181672,0.2231898,293.794,241.8436,355.23,True
1,0.2777778,-0.3063106,-0.3744052,0.1056073,-1.402978,-4.37331,-2.150445,0.2712705,1.294019,0.4035237,-0.6041903,-0.04200878,11.40584,13.77759,-0.3578635,-0.07032418,0.2904342,-0.3283172,-3.351167,-0.5775003,0.3879247,1.44964,0.3749654,-0.2357529,0.3833667,-0.1247216,-1.208248,0.467354,-0.01117569,0.5522034,1.479396,0.2413492,-0.01363701,1.183595,0.2218282,293.4227,241.4035,355.8232,True
1,0.2888889,-0.3075774,-0.3393329,0.08949308,-1.400898,-4.371167,-2.147224,0.2695306,1.294884,0.4028072,-0.6026579,0.1401481,11.51194,13.79901,-0.3515226,-0.04049584,0.3043204,-0.3252093,-3.342035,-0.5822507,0.386646,1.449862,0.3744001,-0.2302566,0.3790761,-0.1055982,-1.208814,0.4717822,-0.01040151,0.5517662,1.479334,0.2415595,-0.01507755,1.185026,0.2205898,293.1542,240.9266,356.3466,True
1,0.3,-0.3204753,-0.3181254,0.08304621,-1.398656,-4.368737,-2.143699,0.2677307,1.295499,0.4014044,-0.6025589,0.007616609,11.64456,13.88472,-0.372874,0.008368313,0.3332864,-0.3223416,-3.329555,-0.5892694,0.3854148,1.4501,0.3737886,-0.2278637,0.3683586,-0.07474625,-1.208562,0.4757161,-0.009344766,0.5510916,1.479244,0.2417324,-0.0166094,1.185953,0.2192938,293.115,240.5175,356.7698,True
1,0.3111111,-0.3471805,-0.3044143,0.07879573,-1.396554,-4.366495,-2.139383,0.2658491,1.296377,0.4005756,-0.6014813,0.09845508,11.75066,13.99186,-0.3888525,0.01574039,0.3397824,-0.3191426,-3.321645,-0.5918269,0.3842557,1.450346,0.3731606,-0.2181887,0.3662159,-0.0662856,-1.208889,0.4799976,-0.008918393,0.5501701,1.479105,0.2419102,-0.01812875,1.18656,0.2180336,293.2797,240.116,357.0371,True
1,0.3222222,-0.3664351,-0.2874833,0.07559629,-1.394691,-4.364082,-2.135273,0.2638982,1.297067,0.399025,-0.6009253,0.04995369,11.77719,14.09899,-0.3953987,0.01257804,0.3078514,-0.3172874,-3.31743,-0.5911815,0.3831141,1.450675,0.3726146,-0.2064288,0.3576896,-0.06318533,-1.209405,0.4838967,-0.008491755,0.5494064,1.479023,0.2421379,-0.01973976,1.187075,0.2167647,293.5632,239.8368,357.2458,True
1,0.3333333,-0.3975343,-0.2503965,0.06061157,-1.393446,-4.363099,-2.129998,0.2619424,1.298134,0.3981502,-0.6001263,0.07271018,11.80371,14.1847,-0.3547042,-0.01286578,0.327845,-0.3130695,-3.312517,-0.5934181,0.382087,1.45098,0.3720932,-0.1871801,0.3289273,-0.05701447,-1.209871,0.4868388,-0.008060057,0.5486696,1.478989,0.2422936,-0.02151883,1.187695,0.2153101,293.8278,239.5565,357.5622,True
1,0.3444445,-0.4467506,-0.2198277,0.03398382,-1.391911,-4.36264,-2.123438,0.260096,1.2994,0.3975821,-0.6002925,-0.01574008,11.80371,14.29184,-0.3470919,-0.03203863,0.3426838,-0.3088937,-3.307235,-0.5948567,0.3809866,1.451303,0.3715107,-0.170086,0.3086747,-0.0529109,-1.210055,0.4896134,-0.007750598,0.5479277,1.478849,0.242485,-0.02339407,1.188656,0.2136508,294.0385,239.2469,357.8613,True
1,0.3555556,-0.4874043,-0.2052688,-0.009652056,-1.389607,-4.362973,-2.11663,0.2579377,1.300847,0.3967142,-0.5995196,0.07094692,11.83024,14.39897,-0.3605671,-0.09499724,0.3660799,-0.3029399,-3.306877,-0.5906396,0.380022,1.45165,0.3710258,-0.1521023,0.2767693,-0.07123992,-1.211487,0.491731,-0.007433149,0.5471483,1.478791,0.2426176,-0.02538149,1.190085,0.2116993,294.104,238.9058,358.1389,True
1,0.3666667,-0.523688,-0.2216452,-0.06489372,-1.385611,-4.363206,-2.109776,0.2557517,1.302311,0.3954961,-0.5984309,0.09909959,11.85676,14.52753,-0.3506318,-0.1163692,0.4160626,-0.2966666,-3.30049,-0.593058,0.3789383,1.451902,0.3704393,-0.1576613,0.2779014,-0.09889656,-1.213664,0.4953118,-0.006582269,0.5466738,1.478895,0.242651,-0.02734167,1.192152,0.2096824,294.0985,238.4379,358.2704,True
1,0.3777778,-0.5482109,-0.2400309,-0.107376,-1.38148,-4.363761,-2.102784,0.2534693,1.303894,0.3947268,-0.5984917,-0.006136213,11.96286,14.63467,-0.3387536,-0.1227614,0.4415558,-0.291027,-3.293878,-0.5960013,0.3777646,1.452258,0.3698101,-0.1483089,0.2864918,-0.1266537,-1.215995,0.4990266,-0.00647734,0.5458959,1.478848,0.242733,-0.0293819,1.194986,0.2078084,293.9965,237.821,358.4485,True
1,0.3888889,-0.5887292,-0.2595966,-0.1572648,-1.376693,-4.364611,-2.094804,0.2511466,1.305521,0.3939848,-0.5987542,-0.02366914,12.06897,14.7418,-0.3298608,-0.1494569,0.4926009,-0.2837209,-3.286756,-0.5993348,0.3765495,1.452609,0.369215,-0.1357142,0.2844296,-0.1480741,-1.218411,0.5025414,-0.006402239,0.5453573,1.478767,0.2427266,-0.03183896,1.198591,0.2061228,293.6898,237.0183,358.9662,True
1,0.4,-0.6324419,-0.2759578,-0.2018347,-1.371845,-4.365832,-2.086398,0.2487966,1.306994,0.3931055,-0.5989822,-0.02046296,12.17507,14.84894,-0.3244101,-0.1622447,0.5063975,-0.2774897,-3.281073,-0.6014451,0.3752957,1.452972,0.3685763,-0.1177359,0.2716974,-0.1652959,-1.22083,0.5052105,-0.006650446,0.5445235,1.478679,0.2427728,-0.03469906,1.202831,0.204674,293.1413,235.9378,359.9426,True
1,0.4111111,-0.667662,-0.2847466,-0.2411617,-1.366909,-4.367636,-2.077622,0.2462252,1.308757,0.39272,-0.5983553,0.05765906,12.25464,14.93465,-0.3103849,-0.1750142,0.5308058,-0.2708738,-3.274157,-0.6050329,0.3738982,1.453331,0.3679452,-0.1169251,0.2739117,-0.1972493,-1.223938,0.5085807,-0.006623814,0.5435458,1.478655,0.242738,-0.03780477,1.207519,0.2035793,292.4276,234.7301,1.098534,True
1,0.4222222,-0.6911371,-0.2882045,-0.2665992,-1.362507,-4.368965,-2.069132,0.2437368,1.31019,0.3917599,-0.5982445,0.009853908,12.25464,15.02035,-0.299679,-0.177124,0.5392745,-0.2645542,-3.266979,-0.6089821,0.3725408,1.45374,0.3672943,-0.1211971,0.2888227,-0.1971813,-1.226129,0.5124808,-0.006466155,0.5426482,1.478619,0.2427363,-0.04111795,1.212446,0.202847,291.6624,233.5059,2.389744,True
1,0.4333333,-0.7157474,-0.2809841,-0.2974582,-1.357958,-4.371471,-2.059958,0.2411247,1.311959,0.391494,-0.5983303,-0.00759712,12.17507,15.08464,-0.2794737,-0.1759689,0.5338451,-0.2588177,-3.260426,-0.6128714,0.371083,1.454292,0.3666747,-0.1253552,0.3079416,-0.1832355,-1.227376,0.516421,-0.006356433,0.5413507,1.478497,0.2427678,-0.04460783,1.217434,0.2024244,290.9353,232.2614,3.780091,True
1,0.4444444,-0.7180647,-0.2566101,-0.325224,-1.354183,-4.374209,-2.051363,0.2386485,1.31367,0.3911841,-0.5988533,-0.04752248,12.09549,15.14892,-0.2677102,-0.1908403,0.5316247,-0.252571,-3.255925,-0.6145966,0.3697001,1.454727,0.3660233,-0.1273188,0.3100382,-0.1619159,-1.228601,0.5203088,-0.006089318,0.5404026,1.478417,0.2427695,-0.04824837,1.22238,0.2022892,290.2958,231.0724,5.176838,True
1,0.4555556,-0.7118475,-0.2321804,-0.3509016,-1.350449,-4.377706,-2.042977,0.2361982,1.315406,0.3909144,-0.598767,0.008473727,11.98939,15.25605,-0.2375764,-0.1929565,0.5879236,-0.2444233,-3.243528,-0.6250625,0.3682218,1.455141,0.3653016,-0.1397859,0.2992932,-0.1245497,-1.228704,0.5234436,-0.005200088,0.5392355,1.478364,0.24263,-0.05195657,1.227165,0.2022868,289.7031,229.9807,6.587911,True
1,0.4666667,-0.7014075,-0.2067087,-0.388306,-1.346721,-4.381926,-2.034586,0.2338471,1.317476,0.3912623,-0.5996357,-0.07933309,11.90981,15.38461,-0.2023638,-0.1694449,0.6176181,-0.2373915,-3.227273,-0.6397459,0.3668203,1.455591,0.3645613,-0.1577456,0.2832417,-0.1084333,-1.229156,0.5257927,-0.003790477,0.5380727,1.478345,0.2425776,-0.05562267,1.231791,0.2024379,289.2614,228.8941,7.877084,True
1,0.4777778,-0.6738195,-0.2056839,-0.4309899,-1.341951,-4.386595,-2.027015,0.2314547,1.319304,0.3910186,-0.6002978,-0.05968419,11.88329,15.53461,-0.1845069,-0.1331138,0.5973513,-0.2325589,-3.211863,-0.6534047,0.3652472,1.455979,0.3638303,-0.1936703,0.2554428,-0.0751722,-1.228768,0.5277339,-0.001018393,0.5367823,1.478268,0.2424111,-0.05917848,1.236273,0.20275,288.875,227.8969,9.054638,True
1,0.4888889,-0.6462333,-0.19609,-0.45771,-1.337672,-4.39085,-2.019901,0.2290983,1.320818,0.3901935,-0.6006259,-0.02951354,11.88329,15.66317,-0.1899761,-0.1479796,0.5590175,-0.2272891,-3.206563,-0.6560854,0.3637765,1.456365,0.3631651,-0.2031918,0.2490242,-0.06871302,-1.229355,0.5303753,0.0004916195,0.5356482,1.4782,0.24224,-0.06261252,1.24063,0.2032568,288.5569,226.8788,10.18332,True
1,0.5,-0.6090925,-0.1822002,-0.4908808,-1.333365,-4.396354,-2.013115,0.2267184,1.322556,0.3899875,-0.6016214,-0.09077626,11.88329,15.74888,-0.1663698,-0.2053882,0.5470666,-0.2201443,-3.206417,-0.6552085,0.3621665,1.456783,0.3624985,-0.1883895,0.2565213,-0.08160278,-1.23072,0.5336952,0.001002148,0.5343142,1.478222,0.242012,-0.06596447,1.244924,0.2040576,288.3024,225.7907,11.35417,True
1,0.5111111,-0.5752188,-0.1534058,-0.5219636,-1.329762,-4.402289,-2.006142,0.2243124,1.324234,0.3899364,-0.6020523,-0.0387149,11.85676,15.79173,-0.1172274,-0.2382185,0.5499453,-0.2126971,-3.201793,-0.659996,0.3604853,1.457286,0.3617594,-0.1671636,0.2565645,-0.09135225,-1.231986,0.536898,0.00101573,0.5330223,1.478298,0.2417028,-0.06947936,1.249107,0.2050252,287.964,224.6041,12.86952,True
1,0.5222223,-0.5572917,-0.1160592,-0.527481,-1.327204,-4.408069,-1.99914,0.2218977,1.325748,0.3897798,-0.6025935,-0.04930711,11.85676,15.7703,-0.08840984,-0.2434406,0.5561753,-0.2057995,-3.193628,-0.6680313,0.3587496,1.457751,0.3610103,-0.1373502,0.227834,-0.09592448,-1.23325,0.5385624,0.0009081379,0.5315662,1.478348,0.2414167,-0.07313981,1.253075,0.2059846,287.5859,223.5057,14.44837,True
1,0.5333334,-0.5352514,-0.04030108,-0.5224943,-1.327038,-4.414141,-1.992521,0.2196408,1.327182,0.3901045,-0.6024123,0.0168523,11.77719,15.68459,-0.05755258,-0.1890503,0.5912807,-0.1995384,-3.168755,-0.6926126,0.3569133,1.458055,0.3602405,-0.141481,0.1820094,-0.08532529,-1.233648,0.5391017,0.002389655,0.5301725,1.478274,0.2412057,-0.07680246,1.256798,0.2070105,287.3007,222.3951,15.85555,True
1,0.5444446,-0.5407093,-0.006196767,-0.5108991,-1.325627,-4.419437,-1.984964,0.217355,1.328504,0.3897066,-0.6021652,0.02226754,11.64456,15.49175,-0.06548956,-0.1452997,0.5338801,-0.1963772,-3.156403,-0.7036506,0.3552477,1.458159,0.3594723,-0.1678701,0.1648995,-0.05744719,-1.233333,0.5407432,0.004687164,0.5288663,1.478246,0.2410405,-0.08047657,1.260305,0.208185,287.0939,221.5159,16.94048,True
1,0.5555557,-0.562196,0.03633848,-0.5056863,-1.325224,-4.425337,-1.976592,0.2150887,1.329752,0.3894851,-0.6024384,-0.02523508,11.45889,15.2132,-0.08330636,-0.05148625,0.4585163,-0.1965312,-3.138036,-0.7200218,0.3533913,1.458322,0.3587859,-0.1941509,0.1914107,-0.01242565,-1.23187,0.5438812,0.006779876,0.5271525,1.478271,0.2407897,-0.08412429,1.263661,0.2095325,286.9123,221.041,17.65338,True
1,0.5666668,-0.5964172,0.0767408,-0.4855046,-1.325419,-4.430487,-1.96762,0.2128811,1.331321,0.3898361,-0.6012235,0.1112926,11.24668,14.87037,-0.07070391,-0.01413776,0.4531955,-0.1936118,-3.116632,-0.7406499,0.3516082,1.458522,0.3581514,-0.1791255,0.2233613,0.004562449,-1.231397,0.5479788,0.006891196,0.5256796,1.478358,0.2403643,-0.08765696,1.266932,0.2110643,286.6809,220.9664,18.08063,True
1,0.577778,-0.6189284,0.1150437,-0.4717504,-1.325954,-4.435972,-1.958804,0.2106847,1.332469,0.3895218,-0.6003734,0.07661677,11.03448,14.50611,-0.06114456,-0.06514876,0.4083069,-0.1893177,-3.115402,-0.7417516,0.3500168,1.458684,0.3574743,-0.1140424,0.2404231,0.01791219,-1.230713,0.5514638,0.004670652,0.5240693,1.478472,0.2400732,-0.09121319,1.27017,0.2125164,286.4819,220.8953,18.69255,True
1,0.5888891,-0.6253946,0.1374299,-0.4600942,-1.326247,-4.441227,-1.950497,0.2084943,1.333983,0.3896184,-0.5995873,0.07143161,10.87533,14.1847,-0.05994633,-0.1141195,0.3954301,-0.1844772,-3.112527,-0.7438779,0.3483462,1.459029,0.3569064,-0.07044845,0.2170614,0.006839166,-1.231215,0.5532301,0.003526025,0.5225227,1.478714,0.2396839,-0.09470541,1.273517,0.2138066,286.3448,220.8411,19.16684,True
1,0.6000003,-0.6063997,0.1822966,-0.4507293,-1.32788,-4.447067,-1.943048,0.2061656,1.334967,0.3892324,-0.599885,-0.02767192,10.82228,13.88472,-0.03091595,-0.187498,0.3898121,-0.1782928,-3.115912,-0.7412379,0.346647,1.459219,0.3562257,-0.04301088,0.1511412,-0.02978289,-1.233155,0.5530081,0.003361442,0.5208132,1.478705,0.239408,-0.0980448,1.277164,0.2149381,286.1944,220.8226,19.48103,True
1,0.6111114,-0.5809181,0.2058805,-0.4423615,-1.329012,-4.452656,-1.936303,0.2039003,1.335957,0.3887603,-0.6005045,-0.05627761,10.79576,13.64902,-0.01140386,-0.2364733,0.4173142,-0.1713931,-3.111696,-0.7458606,0.344757,1.459449,0.3554826,-0.05252899,0.1404644,-0.02227098,-1.233135,0.5542567,0.003846403,0.5191873,1.478767,0.2390876,-0.1013004,1.281177,0.2158244,285.8964,220.5163,20.07119,True
1,0.6222225,-0.5053483,0.2243645,-0.434086,-1.330283,-4.457994,-1.931962,0.2013582,1.336713,0.3887284,-0.6016092,-0.1004956,10.8488,13.43475,-0.009067476,-0.2163264,0.4716707,-0.1650782,-3.089763,-0.7674458,0.3428157,1.459672,0.3547189,-0.06195285,0.1638462,0.0002297802,-1.232335,0.5571712,0.003938016,0.5174461,1.478848,0.2387452,-0.104444,1.285538,0.2165169,285.4542,219.763,21.02049,True
1,0.6333337,-0.4499188,0.2193072,-0.4299424,-1.330777,-4.46328,-1.92753,0.1987817,1.337268,0.3885245,-0.6023048,-0.06278753,10.95491,13.30619,-0.02301234,-0.1365692,0.51557,-0.1608427,-3.052215,-0.8036211,0.3405354,1.459612,0.3539186,-0.07343404,0.1946715,0.03127503,-1.231087,0.5607308,0.003875166,0.5155201,1.478916,0.2384768,-0.1076013,1.290062,0.2170181,284.7729,218.6621,22.32661,True
1,0.6444448,-0.4264867,0.2269205,-0.4183242,-1.331772,-4.468553,-1.922155,0.196396,1.337847,0.3884122,-0.6044971,-0.2001561,11.06101,13.22048,-0.03928694,-0.08015274,0.5029814,-0.1580373,-3.02497,-0.8294955,0.3383431,1.459649,0.3531566,-0.09794915,0.2021129,0.03042873,-1.230763,0.5633948,0.004949485,0.5136786,1.47895,0.2382007,-0.110714,1.294476,0.2174105,284.0242,217.0471,24.08072,True
1,0.655556,-0.3871824,0.2676972,-0.3887523,-1.334733,-4.473281,-1.918119,0.1940056,1.338023,0.3882666,-0.6042734,0.02187437,11.14058,13.22048,-0.04343919,0.009525999,0.3913132,-0.1597162,-3.008944,-0.8446348,0.3357567,1.459591,0.3524556,-0.1468263,0.2180426,0.0468292,-1.230067,0.5667412,0.007180149,0.5116144,1.47906,0.2380023,-0.1138046,1.298413,0.2178621,283.2443,214.835,26.31097,True
1,0.6666671,-0.3500792,0.3212268,-0.3634835,-1.338613,-4.47822,-1.914184,0.1917904,1.338203,0.3882577,-0.6029013,0.1247814,11.19363,13.28477,-0.05120282,0.02236675,0.3434444,-0.1585726,-2.995892,-0.8567008,0.3335137,1.459563,0.3517032,-0.1423774,0.2361152,0.07239056,-1.228504,0.5703531,0.007399327,0.5096246,1.479065,0.2378569,-0.116945,1.301579,0.2184797,282.6288,212.8579,28.33287,True
1,0.6777782,-0.3193115,0.3501387,-0.3615423,-1.341918,-4.483773,-1.910355,0.1895756,1.338279,0.3881316,-0.6036481,-0.06954807,11.19363,13.37047,-0.08793806,0.04048724,0.2595155,-0.1593753,-2.992575,-0.8576886,0.3309885,1.459402,0.3509958,-0.1037215,0.2744029,0.1126403,-1.22581,0.5750326,0.005674663,0.5075235,1.479226,0.2377326,-0.1201032,1.303945,0.2193268,282.2725,212.0991,29.23278,True
1,0.6888894,-0.2905292,0.3417144,-0.3679644,-1.343616,-4.489054,-1.906779,0.1873475,1.338356,0.3878031,-0.6035831,0.006512576,11.08753,13.45618,-0.09857148,0.05638562,0.2766464,-0.1574706,-2.969006,-0.8794879,0.3286459,1.459314,0.3503957,-0.05147613,0.3191855,0.1218866,-1.224354,0.5807,0.002621349,0.5053643,1.479438,0.2375891,-0.1232188,1.305564,0.2203842,282.0178,212.5632,29.01611,True
1,0.7000005,-0.2317957,0.3025078,-0.3828711,-1.343932,-4.494396,-1.905021,0.1850661,1.338356,0.3877513,-0.6034734,0.009677455,10.98143,13.52046,-0.09769046,0.07560328,0.2564371,-0.1573108,-2.951905,-0.895286,0.3263116,1.459247,0.3497694,-0.01315404,0.3394581,0.1205457,-1.223192,0.5854341,9.58738E-06,0.5032874,1.479582,0.2374074,-0.1262695,1.306571,0.2216104,281.8933,213.861,28.01321,True
1,0.7111117,-0.1517675,0.2794772,-0.3701833,-1.344912,-4.498529,-1.905001,0.1827324,1.338112,0.387464,-0.6033317,0.01260176,10.92838,13.58474,-0.05527619,0.05137598,0.200782,-0.156735,-2.950071,-0.8978083,0.3239857,1.459127,0.3492398,-0.004599869,0.3288135,0.1236434,-1.221743,0.5890279,-0.001351022,0.5011864,1.479691,0.2371922,-0.1293657,1.307155,0.222933,281.9025,215.1799,27.02851,True
1,0.7222228,-0.1037495,0.2744573,-0.3479117,-1.346585,-4.502463,-1.904694,0.1805417,1.337934,0.3874421,-0.6048002,-0.1346645,10.87533,13.64902,-0.02350133,0.02922652,0.1483728,-0.1563574,-2.95163,-0.8970445,0.3217292,1.458971,0.3486633,-0.0347186,0.3033092,0.08654554,-1.222132,0.5916462,-0.0007307714,0.4991543,1.47979,0.2369761,-0.1325315,1.307492,0.2242867,282.0105,216.0292,26.51769,True
1,0.7333339,-0.03983378,0.2844109,-0.3289208,-1.34919,-4.506339,-1.905383,0.1786364,1.337555,0.3879659,-0.6059688,-0.106017,10.92838,13.64902,0.0148276,0.007053569,0.1268262,-0.1553699,-2.950449,-0.899611,0.3193612,1.458877,0.3481257,-0.07199813,0.2628177,0.08462615,-1.221327,0.5934321,0.0008567389,0.4970688,1.479973,0.2367632,-0.1356866,1.307634,0.2257038,282.0585,216.2912,26.55359,True
1,0.7444451,-0.02065302,0.2823727,-0.3289598,-1.350934,-4.511023,-1.904506,0.1766673,1.337349,0.3885052,-0.6051959,0.07109528,10.95491,13.60617,0.01455624,0.05182815,0.109868,-0.1565624,-2.938087,-0.9118996,0.3169398,1.458691,0.3475931,-0.07938305,0.2478837,0.09317213,-1.219948,0.5959999,0.001084972,0.4948069,1.480128,0.236619,-0.1387483,1.307518,0.2271324,281.9696,216.7264,26.45098,True
1,0.7555562,0.01674674,0.2644832,-0.3161995,-1.3521,-4.514797,-1.905175,0.174715,1.336795,0.3886337,-0.6055128,-0.0300418,10.98143,13.47761,0.009496897,0.11167,0.005604111,-0.1614547,-2.941912,-0.9078876,0.3143902,1.458302,0.3471062,-0.05586687,0.2457485,0.1025618,-1.218489,0.5988655,-3.861584E-05,0.4924922,1.480258,0.2364721,-0.1415569,1.307126,0.2285729,281.909,217.6438,25.78769,True
1,0.7666674,0.05419612,0.2477406,-0.2831933,-1.353568,-4.517415,-1.906417,0.1728641,1.336477,0.3894079,-0.6036715,0.1682785,10.98143,13.28477,0.004376978,0.2066277,-0.08367644,-0.1681616,-2.941325,-0.9082607,0.3119779,1.458048,0.3470368,-0.02819968,0.2362066,0.09804121,-1.21777,0.6016114,-0.001493501,0.4902333,1.480391,0.2362738,-0.144025,1.306474,0.2301185,281.8987,218.646,24.89791,True
1,0.7777785,0.08519775,0.2459054,-0.2438472,-1.35561,-4.519692,-1.907906,0.1711429,1.335837,0.3894942,-0.6043826,-0.06682287,10.92838,13.02764,0.03498214,0.2143026,-0.1317565,-0.1721755,-2.944702,-0.9062436,0.3097018,1.457702,0.3470032,0.003974214,0.22765,0.1233257,-1.215572,0.6040457,-0.003446929,0.4879791,1.480561,0.2361588,-0.1464715,1.305712,0.2317658,282.0092,219.691,23.98909,True
1,0.7888896,0.1086887,0.2461011,-0.221527,-1.357748,-4.522254,-1.909237,0.1693492,1.335253,0.3897901,-0.6044055,-0.001656131,10.76923,12.72766,0.04591477,0.1504212,-0.1265971,-0.1720551,-2.950854,-0.9009895,0.3075427,1.457292,0.3468425,0.07352243,0.2052676,0.1578536,-1.212716,0.6059864,-0.007231814,0.4857449,1.48074,0.2360182,-0.1488973,1.304879,0.2334682,282.0861,220.4639,23.44743,True
1,0.8000008,0.1524889,0.2239629,-0.2130274,-1.358663,-4.524782,-1.911964,0.1676397,1.334591,0.3899016,-0.6041524,0.02281858,10.61008,12.49196,0.05055095,0.04605631,-0.1353404,-0.1707177,-2.97066,-0.8821857,0.3056584,1.457004,0.3467412,0.1215285,0.1807853,0.1637967,-1.210708,0.6072371,-0.01072002,0.4836076,1.480918,0.2358475,-0.1511749,1.303972,0.2351943,282.1071,221.4515,22.74489,True
1,0.8111119,0.1792987,0.1814526,-0.2193118,-1.358353,-4.527613,-1.914155,0.1658783,1.3342,0.3908148,-0.6036401,0.04635051,10.50398,12.32055,0.06996727,-0.02840796,-0.1462306,-0.1698841,-2.989611,-0.8648211,0.3036056,1.456691,0.3463607,0.1778586,0.1180272,0.1418818,-1.210074,0.6065122,-0.01428866,0.4815292,1.481026,0.2355928,-0.1533589,1.302963,0.236747,282.0643,222.6532,21.93067,True
1,0.8222231,0.2104751,0.1294692,-0.201072,-1.357635,-4.529119,-1.917119,0.1642219,1.333615,0.3915827,-0.604593,-0.08775426,10.4244,12.21341,0.1020732,-0.0006729215,-0.09734388,-0.1703571,-2.982993,-0.8735371,0.301561,1.456482,0.3461471,0.1659344,0.09358415,0.1152818,-1.209733,0.6070855,-0.01577683,0.4795017,1.481136,0.2353258,-0.1554954,1.301854,0.2380455,282.0643,223.6877,21.19238,True
1,0.8333342,0.2460684,0.04234014,-0.1848375,-1.354965,-4.529763,-1.920892,0.162584,1.33296,0.3921373,-0.603843,0.06906222,10.50398,12.19199,0.1327904,0.05270875,-0.09101376,-0.1727529,-2.976588,-0.882443,0.2994562,1.455922,0.3457689,0.1286474,0.09781934,0.1155974,-1.208456,0.60843,-0.01647085,0.477433,1.481274,0.2350738,-0.1575169,1.300573,0.2391451,282.1199,223.9532,21.00609,True
1,0.8444453,0.2774011,-0.05017484,-0.1781619,-1.351098,-4.530324,-1.924801,0.1611329,1.332302,0.392792,-0.6038611,-0.00260755,10.61008,12.23484,0.1280137,0.1305274,-0.1281277,-0.1774965,-2.974907,-0.885222,0.2973038,1.455533,0.3456204,0.1043277,0.1084101,0.1392532,-1.206112,0.6103054,-0.01747113,0.4753386,1.481449,0.23488,-0.1594193,1.299118,0.2402784,282.287,223.8503,20.95219,True
1,0.8555565,0.3139701,-0.123493,-0.1726401,-1.346981,-4.53068,-1.929416,0.1597245,1.33165,0.3933239,-0.6041375,-0.02546392,10.74271,12.32055,0.1331253,0.1572192,-0.1483455,-0.1810534,-2.975619,-0.8861823,0.2952546,1.455156,0.3454115,0.1375994,0.1030411,0.1687975,-1.203267,0.6114496,-0.0204893,0.4732986,1.481643,0.2346144,-0.1611881,1.297458,0.2415273,282.4359,223.7361,21.02504,True
1,0.8666676,0.3375714,-0.1628262,-0.1789319,-1.343588,-4.531736,-1.93365,0.1584182,1.331087,0.3942795,-0.6039133,0.02043009,10.8488,12.40626,0.1392383,0.1626606,-0.1973722,-0.1849422,-2.985267,-0.8785297,0.2933292,1.454702,0.3452029,0.1738595,0.08068943,0.1727105,-1.201283,0.6116335,-0.02369494,0.4711336,1.481926,0.2343998,-0.1628172,1.295494,0.2428299,282.6002,223.3635,21.53105,True
1,0.8777788,0.3781345,-0.1818247,-0.18109,-1.340293,-4.532752,-1.939027,0.1572785,1.330366,0.3947999,-0.6041706,-0.02396068,10.95491,12.49196,0.1240904,0.1626797,-0.2409694,-0.1888384,-2.996337,-0.868427,0.2915787,1.454359,0.3452086,0.2113087,0.04232822,0.1893623,-1.198678,0.6108448,-0.02699114,0.4692303,1.482146,0.2340822,-0.1642776,1.293167,0.2441435,282.8621,222.982,22.07918,True
1,0.8888899,0.4069099,-0.181655,-0.1737099,-1.338114,-4.533824,-1.944124,0.1561384,1.329619,0.3955836,-0.6036124,0.05099621,10.90185,12.51339,0.1357591,0.1489163,-0.2602417,-0.1920885,-3.006737,-0.8601035,0.2897004,1.454146,0.3452809,0.2092823,0.02845485,0.2010597,-1.19619,0.6108518,-0.02915123,0.4673297,1.482369,0.2337756,-0.1656214,1.290488,0.2454481,283.2311,222.8765,22.26472,True
1,0.900001,0.4442444,-0.1899904,-0.1695097,-1.335242,-4.534564,-1.950251,0.1551032,1.328872,0.3960407,-0.6043176,-0.06515348,10.82228,12.53482,0.1506688,0.1457867,-0.2635226,-0.1952129,-3.013789,-0.8553994,0.2880344,1.453854,0.3452511,0.1880848,0.0177623,0.2139912,-1.193418,0.610826,-0.03043594,0.4655132,1.482583,0.2334034,-0.1668928,1.287563,0.2468352,283.6934,223.2511,21.88638,True
1,0.9111122,0.4633879,-0.1749361,-0.155764,-1.333398,-4.535204,-1.955823,0.154075,1.32811,0.3965755,-0.6037679,0.05058933,10.74271,12.5991,0.1698793,0.1256439,-0.2711105,-0.1979251,-3.02248,-0.8493633,0.2865041,1.453476,0.3453574,0.1711892,0.001737516,0.231142,-1.190252,0.6104889,-0.03161492,0.4637173,1.482676,0.2329493,-0.1681047,1.284456,0.2483235,284.1418,223.7917,21.40606,True
1,0.9222233,0.4686909,-0.1631515,-0.1451664,-1.331598,-4.53583,-1.96105,0.1529694,1.327437,0.3972363,-0.6042745,-0.0470837,10.6366,12.68481,0.1796667,0.09688987,-0.2552357,-0.1994889,-3.030724,-0.8436258,0.28499,1.453185,0.3452377,0.1626965,-0.01957586,0.2332962,-1.187544,0.609616,-0.03282905,0.4619106,1.482836,0.2325838,-0.1692903,1.281244,0.2499135,284.5847,224.584,20.73923,True
1,0.9333345,0.4708011,-0.1545905,-0.137748,-1.329762,-4.536492,-1.966233,0.1519642,1.326658,0.3976774,-0.6033993,0.0801523,10.66313,12.87765,0.1542386,0.1010027,-0.2252557,-0.2014809,-3.031095,-0.8440857,0.2834691,1.452874,0.3451009,0.1604274,-0.04510157,0.2140801,-1.185783,0.6082454,-0.03409139,0.4603141,1.482979,0.2322474,-0.1704208,1.277954,0.251531,285.0131,225.3049,20.23742,True
1,0.9444456,0.4665521,-0.1502644,-0.1228755,-1.327941,-4.537598,-1.970854,0.1513126,1.326814,0.400491,-0.602643,0.06822366,10.71618,13.0705,0.1360084,0.1584217,-0.2048063,-0.2053595,-3.024559,-0.851423,0.2819562,1.452582,0.3449068,0.1677767,-0.04612895,0.2012382,-1.183881,0.6078877,-0.03603896,0.4586391,1.48309,0.2319357,-0.1715277,1.274654,0.253107,285.4637,226.1777,19.56179,True
1,0.9555568,0.4664726,-0.1171288,-0.09424089,-1.327643,-4.537601,-1.976009,0.1504962,1.325991,0.4008503,-0.602317,0.0291279,10.79576,13.24191,0.1316758,0.1775777,-0.203682,-0.2088153,-3.024146,-0.8531317,0.2804281,1.452298,0.3447936,0.1697622,-0.03863314,0.1841929,-1.182429,0.6077683,-0.03794685,0.4571182,1.483195,0.231658,-0.1726502,1.27145,0.2546023,285.9343,227.0237,18.87443,True
1,0.9666679,0.463165,-0.07762424,-0.06668616,-1.328041,-4.537581,-1.981022,0.1495849,1.325285,0.4013739,-0.6016794,0.05796061,10.87533,13.41333,0.1326703,0.1935639,-0.2047222,-0.2124212,-3.02393,-0.8548875,0.2791541,1.452068,0.34477,0.1771224,-0.03966213,0.1724021,-1.180986,0.6073779,-0.03997005,0.4555456,1.483432,0.2314501,-0.1735685,1.268436,0.2561245,286.4832,227.5157,18.25453,True
1,0.977779,0.460767,-0.005095653,-0.04139498,-1.330448,-4.538168,-1.985932,0.1489699,1.324324,0.4016204,-0.6017711,-0.008877918,10.98143,13.56331,0.1327034,0.1680232,-0.2175535,-0.215054,-3.031119,-0.8493186,0.2778096,1.451815,0.3447945,0.1705582,-0.04281616,0.1511424,-1.180049,0.6067927,-0.04141029,0.4541301,1.483579,0.2311947,-0.1741325,1.265821,0.2580624,287.0209,227.9929,17.47715,True
1,0.9888902,0.454025,0.07693288,-0.03317248,-1.333528,-4.539737,-1.990432,0.1483081,1.323281,0.4017806,-0.601557,0.01961415,10.98143,13.58474,0.1274272,0.1041614,-0.2560096,-0.217241,-3.048944,-0.8330941,0.2764829,1.451554,0.3447826,0.1672929,-0.0523774,0.1404927,-1.178848,0.605956,-0.04296078,0.4526656,1.483653,0.2310467,-0.1748486,1.263578,0.260069,287.2136,228.9087,16.88544,True
1,1.000001,0.4292614,0.1300718,-0.03867082,-1.335799,-4.54213,-1.993762,0.1478758,1.322843,0.4030931,-0.6014968,0.005294228,10.95491,13.54189,0.08914819,0.1061079,-0.2408881,-0.219649,-3.052255,-0.8296447,0.2751107,1.451319,0.3447177,0.1566665,-0.06729755,0.142677,-1.1771,0.6047943,-0.04388117,0.4512511,1.48375,0.2307596,-0.1755764,1.261849,0.2616364,286.9822,230.931,15.24509,True
1,1.011112,0.3982452,0.1597794,-0.03338303,-1.338194,-4.543472,-1.996879,0.1473024,1.321975,0.4034131,-0.6012592,0.02161271,10.87533,13.45618,0.07948864,0.142263,-0.2269199,-0.2230408,-3.050516,-0.8319004,0.2739025,1.451096,0.3446693,0.1449887,-0.06199105,0.1481111,-1.175283,0.6042997,-0.04491501,0.4499059,1.48381,0.2305272,-0.1759312,1.261055,0.2625204,286.4115,233.8376,12.38681,True
1,1.022224,0.3843689,0.1746787,-0.01849183,-1.340181,-4.544107,-2.000695,0.1465201,1.32087,0.403254,-0.6002424,0.0927473,10.79576,13.32762,0.08475706,0.1561341,-0.2269205,-0.2263751,-3.052057,-0.8315516,0.2728045,1.450788,0.344624,0.1364838,-0.05454514,0.1513895,-1.17355,0.6040441,-0.0460093,0.448543,1.483904,0.2303061,-0.1763482,1.260599,0.2628834,285.805,233.4929,12.63558,True
1,1.033335,0.3694069,0.2024318,0.01339661,-1.343563,-4.544317,-2.004261,0.1460502,1.320081,0.4035408,-0.5997449,0.04476047,10.76923,13.26334,0.09542578,0.1476536,-0.2301886,-0.2291054,-3.057383,-0.8277986,0.271723,1.450759,0.3447471,0.1203519,-0.05131719,0.1334171,-1.172642,0.6036954,-0.04666764,0.4473875,1.484073,0.2301037,-0.176609,1.26033,0.2632591,285.502,233.0001,12.68585,True
1,1.044446,0.3619267,0.2131217,0.02721749,-1.346516,-4.545018,-2.007793,0.1454262,1.319445,0.4045331,-0.6003559,-0.05605654,10.76923,13.22048,0.1178747,0.08388631,-0.2634549,-0.2309483,-3.073839,-0.813747,0.2707831,1.450304,0.3449402,0.1149272,-0.06406969,0.1206524,-1.171627,0.6026022,-0.04735899,0.4461164,1.484117,0.2298007,-0.1771006,1.260011,0.2636257,285.0652,233.1685,12.37387,True
1,1.055557,0.3257028,0.2000742,0.001789704,-1.347887,-4.546547,-2.009866,0.144937,1.318929,0.4048681,-0.600187,0.01602681,10.82228,13.24191,0.1222459,0.05514277,-0.2645974,-0.2327518,-3.084507,-0.8048725,0.2697713,1.449952,0.344969,0.1169409,-0.09705532,0.103519,-1.170934,0.6002612,-0.04783543,0.444964,1.48421,0.2295687,-0.1776682,1.259594,0.2638984,284.5636,233.8564,11.74443,True
1,1.066668,0.2810928,0.1582124,-0.02350403,-1.347598,-4.547653,-2.011528,0.1442048,1.318292,0.4045231,-0.6003276,-0.01296456,10.95491,13.30619,0.1126007,0.108314,-0.2346231,-0.2361883,-3.080307,-0.8098226,0.2687627,1.449686,0.3451309,0.1276717,-0.109849,0.1119296,-1.169238,0.5985968,-0.04900003,0.4437833,1.484248,0.2294104,-0.1779476,1.259193,0.2641512,284.2068,235.0784,10.38892,True
1,1.077779,0.2535174,0.1325279,-0.02120613,-1.348105,-4.548101,-2.013382,0.1435928,1.317808,0.404901,-0.5991926,0.1039909,11.14058,13.41333,0.09452622,0.1188639,-0.2195883,-0.238729,-3.081446,-0.8091991,0.2677546,1.449503,0.3451893,0.1363205,-0.1034858,0.1278524,-1.167217,0.5976712,-0.05046557,0.4426228,1.484292,0.2292051,-0.1781756,1.258857,0.264485,283.8353,236.2025,8.954503,True
1,1.08889,0.2323939,0.1005227,-0.008252105,-1.348348,-4.54785,-2.015491,0.1430168,1.317428,0.4050527,-0.5987574,0.03900138,11.35279,13.49904,0.07552554,0.114471,-0.1907288,-0.2403396,-3.081879,-0.8090222,0.2670297,1.449445,0.3452876,0.1235983,-0.08860435,0.1375782,-1.165263,0.5972642,-0.0511817,0.4416786,1.484281,0.229043,-0.1784973,1.25858,0.2648827,283.5404,236.9177,8.099515,True
1,1.100002,0.2186462,0.08237875,-0.0006908439,-1.348714,-4.54773,-2.017477,0.1425108,1.317108,0.405473,-0.5990254,-0.02456577,11.53846,13.60617,0.0929222,0.08675743,-0.1461347,-0.2405846,-3.082804,-0.809809,0.2662672,1.449281,0.3453815,0.1086057,-0.08859514,0.1281109,-1.164148,0.5962247,-0.05148955,0.4406679,1.484287,0.2288632,-0.1791289,1.258334,0.2650515,283.1748,238.2786,6.641818,True
1,1.111113,0.2028361,0.03644453,-0.01539203,-1.347581,-4.547956,-2.019236,0.142162,1.316939,0.4058104,-0.5994024,-0.03406341,11.67109,13.67045,0.1177042,0.05378053,-0.1186306,-0.2405506,-3.085545,-0.809263,0.2656148,1.449193,0.3454723,0.0871152,-0.1013403,0.1048196,-1.163742,0.5945812,-0.05107224,0.439732,1.484289,0.2287095,-0.1796762,1.258126,0.2651027,282.988,239.5357,5.143642,True
1,1.122224,0.1954051,0.02250167,-0.03023728,-1.347053,-4.548718,-2.021029,0.1416585,1.316455,0.405719,-0.5995532,-0.01337815,11.80371,13.73473,0.1242139,0.03355297,-0.1123141,-0.2411748,-3.089802,-0.8067365,0.2649108,1.449085,0.3455548,0.09755409,-0.1140514,0.07700296,-1.163751,0.5928218,-0.05189835,0.4389234,1.484311,0.2286112,-0.1800919,1.257921,0.2650099,282.7725,240.341,4.12757,True
1,1.133335,0.1677553,0.0009914674,-0.05032686,-1.345848,-4.549547,-2.021767,0.1412166,1.316401,0.4061527,-0.5995995,-0.003993561,11.88329,13.77759,0.126384,0.01439417,-0.1187585,-0.2419184,-3.096397,-0.8017164,0.2641793,1.448932,0.3457556,0.1175697,-0.1097186,0.05021331,-1.163968,0.5916336,-0.05336815,0.4381971,1.484414,0.2284553,-0.1803722,1.257754,0.2648763,282.5383,240.6381,3.591705,True
1,1.144446,0.1432884,-0.009806439,-0.05768084,-1.345084,-4.550088,-2.022533,0.1406698,1.316329,0.4064171,-0.5999202,-0.02917689,11.88329,13.79901,0.1157151,0.0196737,-0.1186914,-0.2431477,-3.099222,-0.7998937,0.2635067,1.448908,0.3458734,0.1142904,-0.106503,0.03958938,-1.163817,0.5905007,-0.05416257,0.4374025,1.484409,0.2282796,-0.1804372,1.257593,0.2648634,282.4586,240.1728,3.830498,True
1,1.155557,0.1337921,-0.02580038,-0.05013835,-1.344218,-4.550037,-2.023736,0.1402066,1.316326,0.4068468,-0.5990893,0.07635468,11.85676,13.82044,0.1040835,0.03342514,-0.09197068,-0.2438007,-3.096725,-0.803048,0.2628969,1.4489,0.3459165,0.0769751,-0.1043919,0.03670572,-1.163434,0.5893456,-0.05323659,0.4366773,1.484379,0.2282257,-0.1807007,1.25732,0.2651477,281.8995,241.9027,2.087777,True
1,1.166668,0.1242533,-0.03435219,-0.04476404,-1.343382,-4.550066,-2.024822,0.1397685,1.31597,0.4065332,-0.5991633,-0.007330409,11.75066,13.86329,0.08280854,0.04396612,-0.07799406,-0.244737,-3.095924,-0.8039907,0.2623476,1.448802,0.3459368,0.04826127,-0.1012308,0.04227351,-1.162676,0.5882214,-0.05242939,0.4358035,1.484457,0.228091,-0.1809875,1.25726,0.2652127,282.0586,242.5281,1.025765,True
1,1.17778,0.1115841,-0.05678023,-0.04251641,-1.341877,-4.549796,-2.025833,0.1393017,1.315821,0.4063196,-0.5996997,-0.04879389,11.64456,13.90615,0.07966097,0.04606381,-0.06732021,-0.2454161,-3.095314,-0.8053516,0.2618067,1.448716,0.3459699,0.04086469,-0.08740584,0.05088688,-1.161735,0.5877463,-0.05238544,0.4351291,1.484474,0.2279835,-0.1815535,1.257216,0.2651257,281.9468,243.4754,359.774,True
1,1.188891,0.09878504,-0.05686326,-0.04887663,-1.340953,-4.550211,-2.026389,0.1389473,1.315829,0.4066451,-0.5998355,-0.01184112,11.53846,13.97043,0.09681567,0.04608907,-0.04716463,-0.2454774,-3.093337,-0.8091131,0.2614159,1.448725,0.3460295,0.05993547,-0.08310882,0.03795309,-1.161774,0.586847,-0.05353193,0.4344903,1.484508,0.227859,-0.1820416,1.257152,0.2649623,281.827,244.2354,358.7954,True
1,1.200002,0.09342526,-0.05050503,-0.04999784,-1.340009,-4.551208,-2.027043,0.1387691,1.316074,0.4075291,-0.5998499,-0.001150271,11.48541,14.05614,0.1022024,0.04927818,-0.03333453,-0.2458098,-3.091063,-0.8126152,0.2609748,1.448755,0.3460541,0.06629725,-0.09055207,0.03362337,-1.1615,0.5854787,-0.05395697,0.4338584,1.484548,0.2277586,-0.1824111,1.257012,0.2646289,281.6572,244.823,358.1356,True
1,1.211113,0.07849056,-0.04202201,-0.04253702,-1.339763,-4.55133,-2.027338,0.1384705,1.316091,0.4078293,-0.5996997,0.01384368,11.43236,14.14185,0.08744231,0.02363409,-0.02371714,-0.2453176,-3.092745,-0.8113866,0.2605926,1.448848,0.3461735,0.05665942,-0.09373619,0.02729466,-1.161464,0.5842457,-0.0537085,0.4334377,1.484487,0.2277496,-0.1824626,1.256928,0.2643486,281.6855,243.6438,359.1552,True
1,1.222224,0.07096936,-0.02606252,-0.03938983,-1.339815,-4.551844,-2.027823,0.1381045,1.315927,0.4079154,-0.6000592,-0.03290753,11.43236,14.22755,0.08752118,0.001264818,-0.02588807,-0.2449576,-3.096033,-0.8091754,0.260226,1.448773,0.3462038,0.03204726,-0.08626784,0.01473034,-1.161713,0.5835145,-0.05286268,0.432925,1.484494,0.22767,-0.1825018,1.256926,0.2643118,281.6987,242.3763,0.1699,True
1,1.233335,0.0539044,-0.02509961,-0.04574385,-1.339278,-4.5524,-2.027694,0.1377748,1.315909,0.4082041,-0.5996842,0.03471267,11.43236,14.31326,0.08638587,0.004475541,-0.03759571,-0.2456223,-3.098127,-0.8081884,0.2597228,1.448762,0.346287,0.01710205,-0.07242593,0.01275735,-1.161561,0.5831728,-0.05231727,0.4324321,1.484637,0.2276428,-0.182615,1.256967,0.2646624,281.6771,242.3368,359.9192,True
1,1.244446,0.03789085,-0.01880175,-0.04892931,-1.3388,-4.553006,-2.027532,0.1372522,1.315756,0.4078877,-0.600056,-0.03421739,11.45889,14.37754,0.07246348,0.01827303,-0.04068796,-0.2464702,-3.097645,-0.8090159,0.2592375,1.448824,0.3463352,0.03426232,-0.06179618,0.02755318,-1.160737,0.5827717,-0.05319371,0.4318417,1.484651,0.2275286,-0.1828654,1.256928,0.2651132,281.6593,244.1407,357.9829,True
1,1.255558,0.03579042,-0.02198258,-0.04252007,-1.33837,-4.553087,-2.027845,0.1369137,1.315754,0.4081645,-0.5996416,0.03833289,11.53846,14.44182,0.05647824,0.02459274,-0.03739763,-0.2470529,-3.097405,-0.809385,0.2587141,1.448773,0.3463821,0.0396614,-0.05329078,0.03711528,-1.159996,0.5824711,-0.05371835,0.4313388,1.484674,0.2275312,-0.1831695,1.256804,0.2654559,281.6619,246.2891,355.7602,True
1,1.266669,0.03262781,-0.02303214,-0.03185879,-1.337949,-4.552865,-2.02823,0.136528,1.315714,0.4079788,-0.599721,-0.007559779,11.64456,14.52753,0.03840348,0.02981661,-0.02663719,-0.2472335,-3.096117,-0.8104367,0.2583115,1.448864,0.3464265,0.017319,-0.05118241,0.04155978,-1.159451,0.5819741,-0.05289437,0.4309787,1.484585,0.2274024,-0.1834414,1.25675,0.2656085,281.7302,247.3116,354.6248,True
1,1.27778,0.03370925,-0.02085556,-0.02121674,-1.337884,-4.552671,-2.028688,0.1362335,1.315694,0.4082217,-0.600235,-0.04677847,11.83024,14.61324,0.04597591,0.01810462,-0.01391584,-0.2468718,-3.0958,-0.8115318,0.2579338,1.448859,0.346468,0.001288906,-0.04052936,0.03638786,-1.15922,0.5818906,-0.0523423,0.4305389,1.48455,0.2273834,-0.1841629,1.256699,0.2657737,281.2158,245.7646,356.5701,True
1,1.288891,0.03577447,-0.00807571,-0.02447159,-1.337986,-4.553271,-2.029062,0.1359738,1.315618,0.4082875,-0.6004012,-0.01473106,12.04244,14.76323,0.04919257,0.009599831,-0.01608058,-0.2469081,-3.097436,-0.8106572,0.2576398,1.448825,0.3464751,-0.008471299,-0.03303319,0.0162395,-1.159803,0.5817623,-0.05185601,0.4301866,1.484555,0.2274406,-0.1848614,1.256676,0.2658267,280.9402,246.3423,356.0463,True
1,1.300002,0.03253657,0.00471142,-0.01919074,-1.338297,-4.553575,-2.029299,0.1355889,1.315415,0.4079616,-0.6005668,-0.01502172,12.20159,14.91322,0.03953465,0.01916157,-0.02240596,-0.2477368,-3.097244,-0.8109629,0.2573076,1.448773,0.3465424,0.006405397,-0.02981718,0.01186402,-1.159775,0.58149,-0.0523447,0.4298637,1.484505,0.2275171,-0.1852769,1.25668,0.2657693,280.9497,246.6883,355.5627,True
1,1.311113,0.02507567,0.008963295,-0.01279722,-1.338537,-4.553642,-2.029322,0.1352816,1.315383,0.4081264,-0.6007367,-0.01533591,12.28117,15.06321,0.02571165,0.02122422,-0.01593638,-0.2479376,-3.096248,-0.8117507,0.2569693,1.448746,0.3465889,0.01270792,-0.02978162,0.001161142,-1.160044,0.5812195,-0.05260276,0.4294699,1.484463,0.2275198,-0.1856194,1.256657,0.2656643,280.925,246.9382,355.2295,True
1,1.322224,0.02186997,0.0100234,-0.01173933,-1.338588,-4.553985,-2.029284,0.1350356,1.315277,0.4081392,-0.6005939,0.01321927,12.33422,15.23462,0.004426211,0.02432053,-0.009429765,-0.2481619,-3.095162,-0.8121325,0.2566588,1.448699,0.3466978,0.006217191,-0.01910787,-0.01048814,-1.160645,0.5813649,-0.0525455,0.4292156,1.484392,0.2275851,-0.1860233,1.25653,0.2657785,280.8624,247.5025,354.7757,True
1,1.333336,0.01865014,0.01640876,-0.009625588,-1.338933,-4.554194,-2.029336,0.1347828,1.31526,0.4083037,-0.6003596,0.02133478,12.28117,15.40604,0.003395353,0.01153878,-0.01264418,-0.2481091,-3.09678,-0.8105664,0.2563955,1.44861,0.3467274,-0.01199448,-0.01057311,-0.02203871,-1.161308,0.5815414,-0.05184748,0.4289557,1.484326,0.2276909,-0.1864297,1.256445,0.265966,280.8147,247.6618,354.76,True
1,1.344447,0.0143969,0.007851395,-0.01598715,-1.33859,-4.554732,-2.029008,0.1346522,1.315266,0.4086902,-0.6004065,-0.004450519,12.12201,15.53461,0.004478304,0.01898088,-0.003043436,-0.2481906,-3.094668,-0.8126916,0.2561628,1.448581,0.3467767,-0.01950496,-0.008427675,-0.02836409,-1.161785,0.5815947,-0.05142244,0.4287281,1.484317,0.2277546,-0.1867599,1.256415,0.2662159,280.8541,247.8669,354.5938,True
1,1.355558,0.01016233,0.001436205,-0.01701733,-1.338298,-4.554848,-2.028944,0.1344256,1.315242,0.4089289,-0.600546,-0.01261644,11.93634,15.57746,0.0003011059,0.02212556,0.01509512,-0.2479163,-3.091367,-0.8157587,0.2559089,1.448519,0.3468499,-0.01201758,-0.002039799,-0.02415044,-1.161922,0.5818031,-0.0516299,0.4284531,1.484308,0.2278645,-0.1870624,1.256405,0.2664467,280.8368,248.3172,354.1572,True
1,1.366669,0.005936932,-0.002811887,-0.008509851,-1.337886,-4.555162,-2.028762,0.1343312,1.315603,0.4100225,-0.6003245,0.02039112,11.69761,15.53461,-0.002983928,0.02639407,0.002331566,-0.2485656,-3.091797,-0.8151348,0.2557403,1.448427,0.3470063,-0.001241042,7.383677E-05,-0.009320728,-1.161483,0.5820218,-0.05215934,0.4281521,1.484285,0.2280743,-0.1872885,1.256396,0.2666442,280.8407,248.9566,353.4605,True
1,1.37778,0.00378903,0.008954003,0.006364275,-1.338588,-4.554873,-2.028803,0.1341774,1.315634,0.4102294,-0.6005343,-0.01934138,11.48541,15.40604,-0.0009045526,0.02216549,-0.01047124,-0.2490349,-3.093236,-0.8137954,0.2555588,1.448459,0.347147,-0.003384791,0.006466378,-0.01035461,-1.161633,0.5823472,-0.05219742,0.4279257,1.484305,0.2282407,-0.1874416,1.256403,0.26687,280.9019,249.458,352.8164,True
1,1.388891,0.006963574,0.02392817,0.02014552,-1.339486,-4.554564,-2.029249,0.1338767,1.315568,0.4097137,-0.6005529,-0.001455882,11.35279,15.19177,0.01943287,-0.0182136,-0.02238201,-0.2484127,-3.099764,-0.8082923,0.2553523,1.448638,0.3474739,-0.009816231,0.01073429,-0.01455701,-1.16204,0.5826497,-0.05190634,0.4276102,1.484382,0.2284198,-0.187588,1.256422,0.2671587,280.9644,249.2114,352.934,True
1,1.400002,0.006955463,0.02389973,0.01478013,-1.33929,-4.555227,-2.029274,0.1338586,1.316049,0.4105604,-0.6006888,-0.01236329,11.29973,14.91322,0.02697401,-0.0405522,-0.02352962,-0.2477427,-3.104019,-0.8047314,0.2552041,1.448657,0.3475914,-0.01960915,0.006526222,-0.04006011,-1.163483,0.5825422,-0.05133749,0.4274561,1.484372,0.2285402,-0.1876741,1.256516,0.2676317,281.092,248.4874,353.4994,True
1,1.411114,0.0005678128,0.01958495,0.008420251,-1.339289,-4.555365,-2.029038,0.1337342,1.316158,0.410764,-0.601133,-0.04048881,11.35279,14.65609,0.02164238,-0.02142617,-0.009620314,-0.2478418,-3.101959,-0.8066984,0.2550908,1.448664,0.347703,-0.02384184,0.0001191306,-0.03684145,-1.163718,0.5822052,-0.05075186,0.4272338,1.484387,0.2286685,-0.1878342,1.256564,0.2681428,281.1335,247.0967,355.1139,True
1,1.422225,-0.01006849,0.009920986,-0.001110216,-1.338999,-4.555719,-2.028429,0.1335458,1.316153,0.4109766,-0.6009876,0.01364169,11.45889,14.4204,0.01093048,0.01684852,0.007556658,-0.2484463,-3.095547,-0.81274,0.2550032,1.4487,0.3477566,-0.008871516,-0.004146773,-0.03058492,-1.163816,0.5819554,-0.05112097,0.4271092,1.484341,0.2287183,-0.1880192,1.256598,0.2683603,281.0638,245.9948,356.4727,True
1,1.433336,-0.02392484,0.009845729,-0.004272577,-1.339066,-4.555915,-2.027639,0.1334388,1.316331,0.4112511,-0.6005924,0.03595037,11.64456,14.20613,-0.001815801,0.01891148,0.01615121,-0.2483509,-3.093304,-0.8144993,0.2549806,1.44876,0.3478045,0.00397364,-0.005219036,-0.02323545,-1.163801,0.5818337,-0.05157904,0.4270083,1.484357,0.2288294,-0.1882211,1.25675,0.2685944,281.0701,245.0836,357.3398,True
1,1.444447,-0.03671297,0.006568665,-0.01062263,-1.338951,-4.556221,-2.026696,0.1333613,1.316514,0.4115968,-0.6002755,0.02874911,11.80371,14.12042,-0.001736574,0.008242941,0.02252336,-0.2477395,-3.09328,-0.8145496,0.2549057,1.448826,0.3479018,0.006068042,-0.0009463914,-0.02750869,-1.164349,0.5819597,-0.05174362,0.4270468,1.484384,0.2289898,-0.1884127,1.256809,0.2689223,281.1873,242.9894,359.4491,True
1,1.455558,-0.03671605,0.004417601,-0.01594088,-1.338786,-4.556537,-2.026235,0.1333371,1.316792,0.4118834,-0.6001114,0.01479798,11.98939,14.03471,0.01217919,-0.005553819,0.02455368,-0.2470913,-3.093813,-0.8146431,0.2549393,1.448925,0.3479922,-0.004645109,-0.002003194,-0.03488028,-1.164985,0.5818668,-0.05129861,0.4270308,1.484404,0.2290847,-0.1886237,1.256875,0.2692313,281.2258,242.0423,0.3848944,True
