loc,t,aDotS,bDotS,gDotS,aS,bS,gS,xS,yS,zS,qE,qDotE,emgA,emgB,aDotSH,bDotSH,gDotSH,aSH,bSH,gSH,xSH,ySH,zSH,aDotUB,bDotUB,gDotUB,aUB,bUB,gUB,xUB,yUB,zUB,xHand,yHand,zHand,aHand,bHand,gHand,enable
4,0,-0.2830405,0.3224768,-0.1622748,-1.448996,-4.51868,-2.35925,0.3350191,1.250534,0.4891927,-0.5994701,-0.02260175,11.16711,13.17763,0.2378572,-0.3526525,-0.08509681,-0.4393561,-3.499391,-0.5540347,0.413216,1.431663,0.4402547,0.04685669,-0.09718876,0.1296472,-1.106439,0.4392278,-0.01714463,0.5700034,1.4836,0.2911317,0.03327039,1.10858,0.3075412,287.9921,258.1605,334.7576,True
4,0.01111111,-0.2459068,0.371948,-0.07513037,-1.454598,-4.521451,-2.357356,0.3403233,1.251043,0.493196,-0.5992097,0.02408538,11.11406,12.96336,0.2780236,-0.3704641,-0.153529,-0.4401678,-3.513776,-0.5454495,0.4183999,1.432266,0.4440901,0.1233117,0.01689302,0.107933,-1.106244,0.443789,-0.02280731,0.5744991,1.4843,0.2946045,0.03598249,1.108775,0.3186452,289.2279,268.8174,325.9583,True
4,0.02222222,-0.1670666,0.3723469,-0.05814548,-1.457295,-4.524508,-2.357692,0.3455042,1.251672,0.4971204,-0.5992203,-0.001007327,11.06101,12.74909,0.3637071,-0.4351643,-0.1200405,-0.436327,-3.527931,-0.539533,0.4234527,1.432787,0.4478343,0.1883085,0.1553814,0.1172915,-1.104545,0.4508139,-0.03024445,0.5784988,1.484942,0.2981899,0.03932536,1.109113,0.3304033,290.8416,275.166,321.3094,True
4,0.03333334,-0.1073802,0.3629625,-0.07307124,-1.458934,-4.528079,-2.358082,0.350556,1.252174,0.5008826,-0.6015165,-0.2097957,11.00796,12.57767,0.4038436,-0.475676,-0.02126925,-0.430386,-3.537745,-0.5361723,0.4283155,1.43319,0.451458,0.1926276,0.2309942,0.1291351,-1.102855,0.4564319,-0.03489327,0.5824077,1.485188,0.301614,0.04337332,1.10966,0.3409044,291.9049,278.2451,319.9847,True
4,0.04444445,-0.03807422,0.3407576,-0.1113939,-1.459216,-4.53204,-2.359335,0.3554184,1.252678,0.5046701,-0.6039623,-0.2218346,10.92838,12.51339,0.4053819,-0.4481767,0.08317347,-0.4247587,-3.541081,-0.5375468,0.4329084,1.433388,0.4548151,0.1608456,0.2383827,0.149658,-1.100532,0.4594097,-0.03711062,0.5862731,1.485132,0.3048694,0.04818731,1.110242,0.3495649,292.4773,278.6194,321.3126,True
4,0.05555556,0.0442112,0.2695104,-0.1751234,-1.456809,-4.535394,-2.362107,0.3598267,1.253048,0.5085082,-0.6040214,-0.003972318,10.87533,12.55624,0.3883822,-0.3865766,0.1377152,-0.4208876,-3.542124,-0.5402744,0.4375753,1.433341,0.4583571,0.1374217,0.2032164,0.14978,-1.098863,0.4605967,-0.03833354,0.5902569,1.485052,0.3081043,0.05334495,1.110542,0.356214,292.7116,278.1874,322.9402,True
4,0.06666667,0.07215431,0.2055075,-0.231377,-1.453676,-4.538526,-2.363478,0.3641466,1.253267,0.5125239,-0.6045163,-0.04569326,10.8488,12.66338,0.3198989,-0.2367696,0.1959246,-0.4185722,-3.532055,-0.5506482,0.4417956,1.433164,0.4614913,0.1121551,0.08491904,0.1805923,-1.096265,0.4575441,-0.03715136,0.59452,1.484932,0.311029,0.05838615,1.110445,0.361183,293.0104,276.5865,325.2562,True
4,0.07777778,0.08309379,0.1275708,-0.2928994,-1.448791,-4.541411,-2.364451,0.3681049,1.253183,0.5165935,-0.6055741,-0.09666936,10.82228,12.8348,0.2598206,-0.1241241,0.2049961,-0.4177466,-3.524173,-0.5586798,0.4460752,1.432879,0.4649704,0.1371879,-0.05367766,0.236554,-1.091609,0.4518732,-0.03699717,0.5985225,1.484768,0.3139796,0.06303813,1.110116,0.3651406,293.3628,274.7518,327.2396,True
4,0.08888889,0.02356326,0.09425283,-0.3065884,-1.446337,-4.544208,-2.36209,0.3721591,1.252893,0.5207798,-0.6037924,0.1633036,10.82228,13.04907,0.147183,0.03204644,0.1825053,-0.4197568,-3.51065,-0.5686592,0.4501445,1.432552,0.4680638,0.1741605,-0.1699513,0.3233201,-1.085421,0.4459487,-0.03723765,0.6025674,1.484526,0.3168638,0.06724115,1.109668,0.3686896,293.564,273.4333,328.2389,True
4,0.1,-0.06467222,0.1050199,-0.2819507,-1.44522,-4.547126,-2.359187,0.3763101,1.252677,0.5248425,-0.6027916,0.0897238,10.87533,13.26334,0.06232837,0.1266064,0.1298982,-0.4225968,-3.501992,-0.5742822,0.4542295,1.432126,0.4715617,0.1746957,-0.2307957,0.3860293,-1.079291,0.4416371,-0.03704217,0.6063648,1.484387,0.3199496,0.07103939,1.109218,0.372238,293.5958,272.8438,328.3014,True
4,0.1111111,-0.1512667,0.1332233,-0.224578,-1.447199,-4.549418,-2.35308,0.3804919,1.252796,0.5297191,-0.5992256,0.325311,10.92838,13.47761,0.06205262,0.1150019,0.07128456,-0.4240157,-3.502104,-0.5750495,0.4585619,1.431959,0.474874,0.1578972,-0.2500412,0.4148901,-1.073594,0.437953,-0.03647439,0.6101677,1.484127,0.3229203,0.07455744,1.108794,0.3759831,293.5079,272.74,327.8693,True
4,0.1222222,-0.1716004,0.1652697,-0.1756856,-1.448745,-4.551981,-2.350459,0.3846722,1.252489,0.5327682,-0.5984427,0.06904364,10.95491,13.69188,0.1348097,0.00455834,0.04615898,-0.4220583,-3.510063,-0.5718542,0.4629127,1.431841,0.4783053,0.1108169,-0.2137875,0.3940362,-1.070172,0.4370442,-0.03551352,0.6138761,1.483777,0.3260515,0.07792421,1.108561,0.3800011,293.4537,272.9678,327.3126,True
4,0.1333333,-0.1417231,0.156934,-0.1586342,-1.448919,-4.553895,-2.349686,0.3887057,1.252427,0.5364053,-0.5954977,0.2692419,10.98143,13.90615,0.1863911,-0.09750472,0.04992872,-0.4189791,-3.518806,-0.567763,0.4673268,1.431647,0.4817719,0.1054016,-0.2009884,0.3834593,-1.066111,0.4349943,-0.03567145,0.6176636,1.483721,0.3291588,0.0814129,1.10868,0.3843932,293.414,273.3219,326.7924,True
4,0.1444445,-0.08626013,0.1422337,-0.1650267,-1.447934,-4.556251,-2.350542,0.3925587,1.252381,0.5394685,-0.5991569,-0.3364813,10.92838,14.12042,0.2598307,-0.2911468,0.0821601,-0.4121865,-3.535999,-0.5573759,0.4713994,1.431509,0.485029,0.07494255,-0.1539677,0.3092336,-1.065337,0.4349716,-0.03547863,0.6212617,1.483147,0.3321674,0.08498622,1.109216,0.3891187,293.5292,273.9992,326.1394,True
4,0.1555556,-0.04673318,0.1157587,-0.1681606,-1.446799,-4.557948,-2.351151,0.3962373,1.252382,0.5427248,-0.601639,-0.2235988,10.8488,14.24898,0.2678058,-0.3817109,0.1064421,-0.4069342,-3.54814,-0.549416,0.4754406,1.431256,0.4882953,0.05844258,-0.1208227,0.2476516,-1.064422,0.434524,-0.03542457,0.6249802,1.482698,0.3351014,0.0887787,1.109763,0.3936502,293.5959,274.4592,325.9591,True
4,0.1666667,-0.03704013,0.09130595,-0.1670222,-1.44566,-4.559481,-2.350744,0.3999473,1.25236,0.5460658,-0.6034973,-0.1683662,10.79576,14.24898,0.2423245,-0.3924863,0.1140294,-0.4032585,-3.555987,-0.5439903,0.4792119,1.431073,0.4915104,0.04533111,-0.1047662,0.2083828,-1.063286,0.4338143,-0.03520646,0.6286017,1.482199,0.3380792,0.09269742,1.109993,0.3978094,293.688,274.5046,326.1393,True
4,0.1777778,-0.03053606,0.06686857,-0.1562894,-1.444605,-4.560392,-2.350501,0.4032606,1.252268,0.5492299,-0.6031197,0.03560127,10.74271,14.16327,0.1931226,-0.3373057,0.1197483,-0.4009884,-3.557898,-0.5427487,0.4828249,1.430684,0.4943011,0.01626763,-0.09192458,0.1724273,-1.062435,0.432988,-0.03403786,0.6322135,1.481755,0.3410461,0.096523,1.109837,0.40153,293.8403,274.1705,326.5861,True
4,0.1888889,-0.04214181,0.04139023,-0.121079,-1.444008,-4.560894,-2.349148,0.4064772,1.25281,0.5538545,-0.6017897,0.1209935,10.71618,13.949,0.1567964,-0.2831726,0.1413692,-0.3982869,-3.557704,-0.5434625,0.4862775,1.430448,0.4972615,-0.01905522,-0.07805143,0.1525103,-1.061298,0.4325394,-0.03248258,0.635635,1.481144,0.3439603,0.1001143,1.109495,0.404935,294.0266,273.6768,327.0472,True
4,0.2,-0.05585395,0.01696771,-0.08370467,-1.443837,-4.560475,-2.348193,0.4093446,1.252513,0.556916,-0.6015996,0.01628806,10.74271,13.64902,0.09270555,-0.1844483,0.1834717,-0.3959684,-3.549867,-0.5495273,0.4894364,1.430085,0.4999607,-0.06309353,-0.0556208,0.1103113,-1.061288,0.4323975,-0.03033474,0.6389235,1.4804,0.3467295,0.1034478,1.109203,0.4081638,294.1643,273.3138,327.3028,True
4,0.2111111,-0.06639747,-0.003210873,-0.05273296,-1.443669,-4.559692,-2.347189,0.4120753,1.25225,0.5599208,-0.6003894,0.110579,10.76923,13.34904,0.04355399,-0.1005643,0.2190695,-0.3937675,-3.541157,-0.5564063,0.49243,1.429911,0.5025599,-0.1081649,-0.01721516,0.07347958,-1.061631,0.4335798,-0.02819728,0.6422793,1.479801,0.3495009,0.1065878,1.109055,0.4113783,294.2762,272.9063,327.5101,True
4,0.2222222,-0.06950191,-0.02018302,-0.02818336,-1.443318,-4.559077,-2.346419,0.414692,1.251772,0.5622697,-0.6005668,-0.01713018,10.76923,13.11335,0.02545084,-0.06766393,0.2448031,-0.3908839,-3.536098,-0.5609166,0.4953419,1.42961,0.5051625,-0.1541825,0.02116452,0.05050178,-1.061984,0.4353338,-0.02572187,0.6453638,1.479044,0.3522792,0.1096158,1.109152,0.4148994,294.3393,272.8888,327.2412,True
4,0.2333333,-0.08006744,-0.03829006,-0.01426369,-1.442785,-4.558159,-2.3453,0.4172917,1.251578,0.5651789,-0.6005641,0.0005072303,10.76923,12.94193,-0.006638467,-0.04223073,0.2407629,-0.3889461,-3.532295,-0.5633712,0.4980173,1.429271,0.5079272,-0.1529106,0.03070053,0.07608061,-1.060208,0.4360508,-0.02455647,0.6484746,1.478328,0.3551352,0.1124447,1.109212,0.4182679,294.3735,273.0091,327.1361,True
4,0.2444444,-0.08206384,-0.06699713,0.0018054,-1.441902,-4.556827,-2.344508,0.4195759,1.251316,0.5675912,-0.6008613,-0.0271381,10.68966,12.9205,-0.07503497,-0.02435708,0.2145434,-0.3878633,-3.529786,-0.5627574,0.5006042,1.428974,0.5104902,-0.1803591,0.05085108,0.1072508,-1.057912,0.4374198,-0.02236895,0.6515632,1.477503,0.3579376,0.1150434,1.109185,0.4211635,294.3713,273.0978,327.2222,True
4,0.2555556,-0.08185045,-0.1159743,0.009431846,-1.440069,-4.554505,-2.343915,0.4215989,1.251329,0.5702043,-0.6005444,0.02926925,10.5305,13.0705,-0.1251281,-0.02030286,0.212699,-0.3858579,-3.526937,-0.5625568,0.5030897,1.428684,0.5130868,-0.226168,0.0348465,0.1065305,-1.056744,0.4371736,-0.01823919,0.6544968,1.47667,0.3607011,0.1171383,1.109317,0.4233482,293.83,274.9843,325.3612,True
4,0.2666667,-0.07637673,-0.1521494,0.01379756,-1.438098,-4.552555,-2.343377,0.423824,1.251171,0.5724611,-0.6008155,-0.02505011,10.39788,13.28477,-0.1443474,-0.01612043,0.2085584,-0.3838201,-3.524116,-0.5629827,0.5058469,1.428422,0.5155585,-0.2498555,0.02210586,0.07579897,-1.056987,0.4367514,-0.01441329,0.6577317,1.475836,0.3634782,0.1196973,1.109268,0.4255793,294.1569,273.2369,327.0414,True
4,0.2777778,-0.08363594,-0.199057,0.01289994,-1.435384,-4.549709,-2.342565,0.42547,1.251256,0.5748475,-0.6009476,-0.01183344,10.29178,13.60617,-0.1572222,-0.01933443,0.1905114,-0.3823996,-3.522766,-0.5621145,0.5081692,1.428075,0.5179148,-0.2676848,0.04253277,-0.01775655,-1.060364,0.4379224,-0.01142469,0.6606272,1.474884,0.366107,0.1214287,1.109452,0.4272023,293.3304,275.3539,324.705,True
4,0.2888889,-0.09740932,-0.2257076,0.01400027,-1.432819,-4.548378,-2.340758,0.4271704,1.252325,0.5791795,-0.6010643,-0.01058739,10.23872,13.97043,-0.1646303,-0.04704359,0.1787809,-0.3802259,-3.523988,-0.5589461,0.510552,1.427818,0.5203009,-0.280602,0.1078202,-0.1592056,-1.067029,0.441797,-0.009697368,0.6636443,1.473934,0.3687556,0.1227939,1.109672,0.4288789,292.7502,275.3673,324.956,True
4,0.3,-0.1154373,-0.2427903,0.02366313,-1.431045,-4.545847,-2.339323,0.4284166,1.25238,0.5813484,-0.6006866,0.03460483,10.26525,14.24898,-0.1590386,-0.12477,0.1679391,-0.3768698,-3.531331,-0.5506828,0.5126039,1.427638,0.5224993,-0.2727919,0.1644574,-0.2422411,-1.072336,0.4458753,-0.008972722,0.6664729,1.473233,0.3713596,0.1254398,1.109638,0.4315416,293.3855,271.9611,328.2527,True
4,0.3111111,-0.1324234,-0.2545397,0.03543516,-1.429265,-4.543028,-2.337676,0.4296404,1.252668,0.5833907,-0.5998978,0.07188129,10.34483,14.48468,-0.1597398,-0.2089356,0.1709719,-0.3725651,-3.540265,-0.5405751,0.5146093,1.427592,0.5245583,-0.2673131,0.2200796,-0.3497596,-1.079586,0.4504267,-0.00833596,0.6689903,1.472403,0.3738575,0.1275375,1.109609,0.433834,293.3984,271.8603,328.1268,True
4,0.3222222,-0.1462217,-0.2630753,0.04825273,-1.427573,-4.540277,-2.336144,0.4305927,1.252844,0.5849607,-0.6001226,-0.02104633,10.4244,14.65609,-0.1712289,-0.2537335,0.1784021,-0.3686268,-3.546952,-0.5320601,0.5162466,1.427625,0.5266054,-0.2752341,0.2436383,-0.4050434,-1.085925,0.4544066,-0.00689812,0.6713536,1.471568,0.3762338,0.1298397,1.109748,0.436814,293.994,270.2597,329.3368,True
4,0.3333333,-0.1568694,-0.2620105,0.06104086,-1.426265,-4.537472,-2.33445,0.4317341,1.253229,0.5868638,-0.6000177,0.009919579,10.50398,14.76323,-0.1721723,-0.271865,0.1868883,-0.3649031,-3.552254,-0.5251844,0.518153,1.427517,0.5285106,-0.2773729,0.2404439,-0.406096,-1.090367,0.4572491,-0.005057343,0.6737347,1.470805,0.3785005,0.1314225,1.109905,0.4392981,294.0196,271.1615,328.3851,True
4,0.3444445,-0.179257,-0.2578166,0.06529908,-1.42496,-4.535215,-2.332049,0.4325169,1.25338,0.5882401,-0.6002344,-0.01986347,10.58355,14.84894,-0.1806729,-0.2655189,0.1933344,-0.3615886,-3.555522,-0.5200078,0.519767,1.42753,0.5301645,-0.2664764,0.1988456,-0.3785807,-1.093739,0.4582185,-0.002822418,0.6759276,1.469941,0.3806026,0.1321131,1.110242,0.4411455,293.7965,273.5644,326.6881,True
4,0.3555556,-0.2240112,-0.2537175,0.07277666,-1.423744,-4.532566,-2.328454,0.4331617,1.253877,0.5897522,-0.6001902,0.004323156,10.55703,14.95607,-0.2521555,-0.1838714,0.2354432,-0.3585403,-3.548651,-0.5212795,0.5211646,1.427431,0.5316508,-0.269438,0.145519,-0.353101,-1.096765,0.4579704,0.0004045342,0.6782378,1.469068,0.3827438,0.1326541,1.110372,0.4431245,293.5216,271.082,329.8289,True
4,0.3666667,-0.2592218,-0.2410603,0.07382331,-1.422862,-4.530643,-2.324711,0.4338976,1.254391,0.5917504,-0.5996683,0.04774326,10.50398,15.04178,-0.3011632,-0.1447147,0.2624304,-0.3550952,-3.544386,-0.5205169,0.522729,1.427363,0.5332353,-0.2669287,0.06872638,-0.3117402,-1.098866,0.4558105,0.004326039,0.6804068,1.468229,0.3846622,0.1331309,1.110772,0.444866,293.4117,271.2616,329.9133,True
4,0.3777778,-0.3232735,-0.210458,0.0673753,-1.422302,-4.529407,-2.319028,0.4342932,1.254928,0.5931592,-0.5985401,0.1028432,10.45093,15.14892,-0.3406025,-0.09700526,0.2936394,-0.3516683,-3.537462,-0.5220081,0.5241538,1.427382,0.5347223,-0.2667573,0.04419167,-0.2926229,-1.101597,0.4557575,0.007249124,0.6823767,1.467436,0.3865857,0.1337439,1.110944,0.4467969,293.2647,267.8235,333.6566,True
4,0.3888889,-0.3925864,-0.1947818,0.06523658,-1.421355,-4.527864,-2.312727,0.4346787,1.25516,0.5938127,-0.5986397,-0.009734738,10.39788,15.23462,-0.3308752,-0.1012726,0.3148814,-0.3474562,-3.534881,-0.5212184,0.52555,1.427467,0.5361118,-0.266823,0.07190305,-0.2989551,-1.10508,0.4576878,0.009338108,0.6842483,1.466621,0.3884075,0.134212,1.1114,0.4486243,293.3355,266.9331,334.7412,True
4,0.4,-0.4587206,-0.1759098,0.05776531,-1.420642,-4.526699,-2.305638,0.4348628,1.25592,0.5951195,-0.5971691,0.1348631,10.4244,15.34176,-0.3136731,-0.1331668,0.3179151,-0.3431355,-3.536344,-0.5171422,0.5269942,1.427495,0.5376546,-0.2585684,0.09008284,-0.3298713,-1.109655,0.4595555,0.01110432,0.6861888,1.465933,0.3902814,0.1349569,1.111709,0.450908,293.7665,263.2781,338.7113,True
4,0.4111111,-0.5034528,-0.1771394,0.06312325,-1.41968,-4.524767,-2.299089,0.4349718,1.256752,0.5961862,-0.5967761,0.03508396,10.47745,15.42747,-0.2942796,-0.1959272,0.3102284,-0.3382119,-3.542965,-0.5082837,0.528363,1.427819,0.5390601,-0.2496695,0.09877783,-0.4130256,-1.117062,0.4609461,0.01300208,0.6879339,1.46511,0.3920612,0.1351725,1.112235,0.4528867,294.0259,264.02,338.3518,True
4,0.4222222,-0.5193958,-0.1878772,0.05677059,-1.418028,-4.522927,-2.293232,0.4349869,1.257581,0.5968838,-0.5965358,0.02216106,10.5305,15.53461,-0.2535696,-0.2607285,0.2992113,-0.3332818,-3.55201,-0.4984159,0.5296156,1.428115,0.5405717,-0.2556938,0.09682946,-0.497147,-1.125465,0.4622744,0.01562663,0.6896023,1.464196,0.3936863,0.1354111,1.112584,0.4548989,294.7263,261.2541,341.759,True
4,0.4333333,-0.5257351,-0.2006952,0.05468946,-1.416395,-4.52072,-2.28741,0.4350198,1.258636,0.5980368,-0.5974541,-0.08374445,10.55703,15.64174,-0.2053107,-0.3212706,0.3062736,-0.3274218,-3.561562,-0.4888666,0.5308627,1.428365,0.5418429,-0.2592459,0.09798726,-0.5407913,-1.132805,0.4636871,0.01801096,0.6911469,1.463439,0.3951283,0.1353016,1.113204,0.4565792,295.2525,260.6812,342.6957,True
4,0.4444444,-0.5331469,-0.2114518,0.0366169,-1.414061,-4.519001,-2.281699,0.4347512,1.259637,0.5984287,-0.5986946,-0.1123939,10.58355,15.72745,-0.193386,-0.3638408,0.3114458,-0.3217216,-3.571168,-0.4779117,0.5317187,1.428651,0.5429752,-0.2591856,0.08307445,-0.5344431,-1.138764,0.4645123,0.02064429,0.6925365,1.46276,0.3965843,0.1354971,1.113795,0.4584143,296.3696,258.1274,345.656,True
4,0.4555556,-0.5609145,-0.2010301,0.003577974,-1.411883,-4.518523,-2.274598,0.4344543,1.2608,0.5992968,-0.5991132,-0.03709328,10.5305,15.83458,-0.2294751,-0.350209,0.340427,-0.3161204,-3.5747,-0.4711246,0.5326252,1.42881,0.5438573,-0.2653022,0.06595987,-0.5024666,-1.143188,0.4648716,0.02356258,0.6939129,1.462114,0.3980651,0.1354455,1.114303,0.4600761,296.8406,256.3792,347.9394,True
4,0.4666667,-0.6099699,-0.1917028,-0.01240148,-1.410052,-4.517925,-2.266342,0.434067,1.261861,0.5997446,-0.5995633,-0.04077179,10.45093,15.96315,-0.2583417,-0.2875339,0.3694792,-0.3110881,-3.570658,-0.4710871,0.5335383,1.429112,0.544796,-0.2797972,0.05200686,-0.4523166,-1.146633,0.465247,0.02705825,0.6951694,1.461486,0.3993571,0.1354372,1.115065,0.4616701,297.4386,256.2495,348.3215,True
4,0.4777778,-0.6430514,-0.1790766,-0.01774625,-1.408589,-4.517208,-2.258152,0.4336943,1.263039,0.6005797,-0.598635,0.0853461,10.39788,16.09171,-0.3001153,-0.1844533,0.4050946,-0.3063573,-3.558708,-0.477864,0.5344076,1.429405,0.5454359,-0.2987045,0.04234837,-0.4181148,-1.150593,0.4657218,0.03105539,0.6963276,1.460888,0.4006612,0.135124,1.115717,0.4630894,297.9157,255.8991,349.0175,True
4,0.4888889,-0.6729156,-0.1674534,-0.008177381,-1.407589,-4.515989,-2.249928,0.4331599,1.264175,0.6007109,-0.5976464,0.08986512,10.34483,16.22027,-0.3268737,-0.1196329,0.4309416,-0.3016882,-3.547549,-0.4839113,0.5352442,1.429706,0.5461872,-0.2997882,0.04448299,-0.420232,-1.155311,0.4665073,0.03415265,0.6973486,1.46032,0.4018917,0.1345861,1.116395,0.4644558,298.5518,255.7095,349.418,True
4,0.5,-0.6931574,-0.1653877,-0.002843321,-1.40626,-4.514738,-2.241861,0.4325618,1.265438,0.6010098,-0.5979643,-0.0295619,10.39788,16.37026,-0.3182516,-0.134537,0.4319288,-0.2962831,-3.54762,-0.4810958,0.5362018,1.430039,0.5470407,-0.2946216,0.04667109,-0.4383929,-1.161,0.4675699,0.03697852,0.6984817,1.459659,0.403049,0.1338481,1.117001,0.4659839,299.5302,254.4269,351.1375,True
4,0.5111111,-0.7059872,-0.1569682,-0.01671114,-1.404693,-4.514324,-2.233613,0.4319687,1.266907,0.601506,-0.5982738,-0.02764231,10.45093,16.52025,-0.2677746,-0.2461562,0.4207679,-0.2894744,-3.560145,-0.4677469,0.537006,1.430452,0.5476496,-0.2830369,0.05523336,-0.4544505,-1.166552,0.468762,0.03930613,0.6994422,1.45915,0.4041934,0.1331645,1.1174,0.4680024,301.1525,251.7119,354.7491,True
4,0.5222223,-0.7231146,-0.1400401,-0.02954486,-1.40332,-4.514301,-2.225016,0.4314352,1.268264,0.6017995,-0.5987862,-0.04644698,10.50398,16.69166,-0.2303764,-0.3034776,0.3991362,-0.2837928,-3.570218,-0.4566147,0.5378215,1.430813,0.5483744,-0.2810471,0.06274776,-0.4693796,-1.17246,0.4703147,0.04202388,0.7002821,1.458613,0.405211,0.1318514,1.118899,0.4693576,301.6242,252.2918,354.8379,True
4,0.5333334,-0.7456176,-0.1125071,-0.04986389,-1.402235,-4.515048,-2.215819,0.4307979,1.269653,0.6022105,-0.5990797,-0.02620835,10.58355,16.88451,-0.200517,-0.359739,0.3626356,-0.2786742,-3.584433,-0.4417012,0.5384268,1.431233,0.5488689,-0.2695498,0.07984892,-0.4949984,-1.178672,0.472153,0.04394962,0.7010955,1.458261,0.4061291,0.1302813,1.121725,0.4698352,301.5473,252.5344,354.8959,True
4,0.5444446,-0.7553065,-0.09021338,-0.06058869,-1.401345,-4.515672,-2.207073,0.4302684,1.270931,0.6024759,-0.5990706,0.001191704,10.6366,17.09878,-0.2016878,-0.3575854,0.3477376,-0.2738838,-3.591901,-0.4320244,0.5390629,1.431645,0.5494132,-0.2569122,0.09056495,-0.5121427,-1.185091,0.4740975,0.04573473,0.7017976,1.457912,0.4069355,0.1285984,1.125845,0.4695387,301.0131,252.192,355.127,True
4,0.5555557,-0.7682425,-0.05513563,-0.06709225,-1.401243,-4.51681,-2.197876,0.4296384,1.272378,0.6027992,-0.5988427,0.02096722,10.6366,17.31305,-0.1902309,-0.3180808,0.3307093,-0.2700935,-3.594112,-0.4281151,0.539514,1.432063,0.5496364,-0.2462701,0.08630842,-0.5132968,-1.190651,0.4752412,0.04772038,0.7024129,1.45767,0.4077137,0.1268397,1.131029,0.4686749,300.0976,251.6405,355.3207,True
4,0.5666668,-0.7715419,-0.03390528,-0.0852809,-1.400486,-4.518255,-2.189003,0.4290436,1.273898,0.6029866,-0.5994871,-0.05894496,10.61008,17.48446,-0.1881909,-0.2829368,0.3414246,-0.265442,-3.594345,-0.4258096,0.5400944,1.432508,0.5499279,-0.2514105,0.07243508,-0.4909393,-1.195733,0.4761694,0.05050472,0.7030014,1.457397,0.4083242,0.1249971,1.136947,0.4675185,298.9363,251.0266,355.4669,True
4,0.577778,-0.7748124,-0.0201444,-0.1066322,-1.399576,-4.519989,-2.179936,0.4284164,1.275496,0.6033602,-0.599411,0.007656013,10.55703,17.63445,-0.1839091,-0.2616516,0.3606203,-0.2602196,-3.594587,-0.4236613,0.5406857,1.432782,0.5501819,-0.2427489,0.05641779,-0.4750628,-1.200477,0.4764833,0.05283206,0.7036083,1.457062,0.4089406,0.1231705,1.143202,0.4663126,297.6415,250.4169,355.6445,True
4,0.5888891,-0.7929724,-0.02472951,-0.1801113,-1.396678,-4.523463,-2.169756,0.4276963,1.277248,0.6038163,-0.5999489,-0.04914596,10.50398,17.72016,-0.1613905,-0.2467207,0.3988764,-0.2539138,-3.593091,-0.4240093,0.5413625,1.433089,0.5502064,-0.2117051,0.02231911,-0.4583485,-1.205163,0.476009,0.05437669,0.7037528,1.456627,0.4094474,0.1213488,1.149448,0.4652488,296.4227,249.8883,355.8188,True
4,0.6000003,-0.8015079,-0.02917938,-0.2248396,-1.394069,-4.52645,-2.160213,0.4270495,1.278787,0.6038835,-0.6000134,-0.005379486,10.47745,17.76302,-0.1292565,-0.2668609,0.4146337,-0.2477283,-3.598354,-0.4186151,0.5418798,1.433425,0.5503292,-0.1881157,0.00950662,-0.4404586,-1.209396,0.475881,0.05565447,0.7040846,1.456328,0.4099233,0.1195665,1.155407,0.4644885,295.3475,249.2966,356.1358,True
4,0.6111114,-0.8197004,-0.02094387,-0.2855769,-1.391169,-4.530882,-2.149741,0.4263032,1.280523,0.6044002,-0.5993497,0.06078281,10.50398,17.76302,-0.1163107,-0.2966543,0.4219621,-0.2414401,-3.606704,-0.4096016,0.5423548,1.433863,0.5503743,-0.1751592,0.003117725,-0.4150172,-1.213459,0.4762012,0.05725557,0.7044486,1.456201,0.4100659,0.1177733,1.160901,0.4641878,294.4875,248.6204,356.5653,True
4,0.6222225,-0.8283415,0.002354674,-0.3133509,-1.389504,-4.534925,-2.139593,0.4256116,1.282283,0.6047196,-0.5999979,-0.0596822,10.5305,17.65588,-0.100293,-0.3221263,0.4111738,-0.2358762,-3.61668,-0.3991849,0.5427508,1.434247,0.5505097,-0.1698485,0.01377048,-0.4182682,-1.218439,0.4773157,0.05882257,0.7046736,1.455821,0.4102366,0.1158074,1.165901,0.4645064,293.8761,247.861,357.1912,True
4,0.6333337,-0.8391339,0.02773198,-0.3549778,-1.387632,-4.54023,-2.129014,0.4247882,1.284165,0.6053584,-0.5995756,0.03928493,10.58355,17.46304,-0.04710311,-0.3825044,0.3532323,-0.2317248,-3.638208,-0.3795907,0.5429837,1.434511,0.5503497,-0.1487156,0.003168054,-0.4386985,-1.223884,0.4772947,0.05986999,0.7047782,1.455576,0.4103115,0.1137114,1.170457,0.4654477,293.4084,247.2675,357.8933,True
4,0.6444448,-0.8444806,0.02430087,-0.4167586,-1.384115,-4.546045,-2.11864,0.423935,1.285808,0.605423,-0.599934,-0.03300731,10.61008,17.18449,-0.005757868,-0.3854572,0.3167704,-0.227924,-3.65237,-0.3669569,0.5431447,1.434876,0.5502133,-0.1222745,-0.01592136,-0.4624193,-1.230204,0.4770138,0.06053925,0.7049123,1.455392,0.4103937,0.111482,1.174727,0.466999,293.1303,246.9449,358.4753,True
4,0.655556,-0.8445358,0.02622303,-0.476422,-1.38062,-4.552545,-2.108099,0.4231087,1.287745,0.6061709,-0.5999314,0.0006952279,10.6366,16.86308,0.007903427,-0.3598019,0.3028966,-0.2240571,-3.660166,-0.3597758,0.543372,1.43526,0.5501046,-0.09473908,-0.04995804,-0.4850868,-1.236368,0.4754404,0.06109691,0.7048855,1.455235,0.4102688,0.1091839,1.178922,0.4690059,292.9426,246.9127,358.9498,True
4,0.6666671,-0.838195,0.03359297,-0.5094917,-1.377628,-4.558788,-2.097952,0.4224545,1.289343,0.6059518,-0.6003569,-0.03888872,10.6366,16.5631,0.0279519,-0.3234859,0.2975265,-0.2203446,-3.66487,-0.3560218,0.5434527,1.435724,0.5498905,-0.06388834,-0.06164327,-0.4906977,-1.242076,0.4747728,0.06101728,0.704561,1.454909,0.410079,0.106726,1.18321,0.4713236,292.7337,246.8387,359.557,True
4,0.6777782,-0.8052615,0.04851891,-0.5457898,-1.374808,-4.565818,-2.0889,0.4217549,1.291375,0.6066296,-0.6004741,-0.01037437,10.66313,16.28455,0.04284483,-0.3117166,0.3027899,-0.2159355,-3.672747,-0.3492382,0.543684,1.436179,0.5498028,-0.03288752,-0.07445517,-0.4792607,-1.24704,0.4736445,0.06067134,0.7043509,1.454841,0.4098573,0.1041193,1.187671,0.4738035,292.4175,246.4565,0.492291,True
4,0.6888894,-0.779829,0.07621154,-0.5778672,-1.372723,-4.573222,-2.079827,0.4210979,1.293419,0.6071572,-0.6009061,-0.03935366,10.66313,16.07028,0.09433663,-0.3520527,0.33758,-0.2094779,-3.688093,-0.3368939,0.5437558,1.436788,0.5494716,-0.003993332,-0.09893563,-0.463607,-1.252208,0.4724292,0.0603206,0.7041354,1.454849,0.4094586,0.1015172,1.192397,0.4764262,292.0095,246.0564,1.430147,True
4,0.7000005,-0.7692763,0.09534203,-0.6035092,-1.370544,-4.580897,-2.070186,0.4204294,1.295419,0.6077688,-0.602203,-0.1182463,10.66313,15.87744,0.1169124,-0.3616085,0.3683288,-0.2032509,-3.700128,-0.3269518,0.5439905,1.437346,0.5492661,0.007855594,-0.1213444,-0.4488334,-1.256736,0.4704126,0.06051874,0.7038983,1.454784,0.409045,0.09902736,1.197365,0.4789958,291.4901,245.7634,2.351072,True
4,0.7111117,-0.7684932,0.1581056,-0.6292939,-1.370296,-4.589727,-2.059939,0.4197453,1.297528,0.6083472,-0.6023037,-0.008307669,10.71618,15.79173,0.153065,-0.3454778,0.3681551,-0.1983442,-3.708738,-0.3214409,0.5441495,1.437869,0.5489297,0.02094699,-0.1459115,-0.4085424,-1.260336,0.4683034,0.06085989,0.7034886,1.454601,0.408478,0.09675821,1.202531,0.4815323,290.9336,245.3383,3.201155,True
4,0.7222228,-0.7547934,0.1827907,-0.6433582,-1.369891,-4.600218,-2.049074,0.4192936,1.302293,0.6155701,-0.601664,0.05838996,10.74271,15.79173,0.1764695,-0.3528126,0.358423,-0.1937588,-3.722693,-0.3103445,0.5443662,1.438438,0.5485332,0.03072038,-0.1619413,-0.3862805,-1.263897,0.4660559,0.06092167,0.7031054,1.454624,0.407871,0.09462065,1.207805,0.4840524,290.344,244.8983,3.98547,True
4,0.7333339,-0.7356861,0.1944966,-0.6700449,-1.368362,-4.60899,-2.039862,0.4186019,1.30441,0.6162179,-0.6011346,0.04777341,10.76923,15.89886,0.2342059,-0.4015751,0.3590682,-0.18809,-3.746473,-0.2915195,0.544428,1.438977,0.5479965,0.04811952,-0.1780093,-0.3459566,-1.266171,0.4634844,0.06033897,0.7022806,1.454767,0.4071398,0.09247922,1.21313,0.4865859,289.7827,244.5002,4.698223,True
4,0.7444451,-0.7166148,0.216854,-0.6957193,-1.367047,-4.618205,-2.030817,0.4177015,1.306022,0.6159718,-0.6007825,0.0319212,10.76923,16.04885,0.2535369,-0.4355953,0.3620851,-0.182581,-3.771418,-0.2703825,0.5445197,1.439444,0.5475104,0.06872787,-0.1994142,-0.3035422,-1.268024,0.4604074,0.05966253,0.7016793,1.454916,0.4063647,0.09052965,1.218668,0.4895085,289.5908,243.7689,4.907449,True
4,0.7555562,-0.712517,0.2530285,-0.7139574,-1.366876,-4.627868,-2.021113,0.4169506,1.307988,0.6165483,-0.6020384,-0.1151607,10.71618,16.19884,0.2654073,-0.430282,0.3929211,-0.1761441,-3.788306,-0.256999,0.5444666,1.439869,0.5469334,0.09128921,-0.2196943,-0.2813969,-1.270566,0.4572906,0.05879993,0.7010568,1.455008,0.4056127,0.08882862,1.224882,0.4939855,289.5434,242.894,4.829064,True
4,0.7666674,-0.716895,0.2806973,-0.7172462,-1.367056,-4.63711,-2.011151,0.4161813,1.309956,0.6171598,-0.6023495,-0.02758361,10.68966,16.30598,0.2802315,-0.3801993,0.4142403,-0.1703352,-3.794961,-0.2539748,0.544325,1.440295,0.5462799,0.09677419,-0.2389103,-0.2644189,-1.272866,0.4538837,0.05843748,0.7003133,1.45521,0.4046609,0.08642398,1.231446,0.4993887,288.6857,242.7734,6.01261,True
4,0.7777785,-0.7211926,0.2881106,-0.7247258,-1.366695,-4.646235,-2.001088,0.4153862,1.31186,0.6177223,-0.6016757,0.06168259,10.66313,16.37026,0.2937753,-0.3215243,0.3972617,-0.1656912,-3.799857,-0.2531026,0.5441406,1.440793,0.5457749,0.09683211,-0.2538431,-0.2580552,-1.275694,0.4505962,0.05835199,0.6995589,1.455337,0.4037023,0.08352893,1.237871,0.50485,287.4759,242.9449,7.809385,True
4,0.7888896,-0.7222745,0.292371,-0.7236747,-1.366328,-4.655012,-1.991195,0.4146712,1.313754,0.6182241,-0.6011655,0.04609163,10.66313,16.41311,0.2924115,-0.2958861,0.3568449,-0.162309,-3.811412,-0.2452502,0.5439923,1.441298,0.5452387,0.1054607,-0.2709228,-0.2495984,-1.277926,0.4467305,0.05768513,0.6985912,1.45571,0.4027479,0.08068084,1.2439,0.5098415,286.4805,243.246,9.135343,True
4,0.8000008,-0.712729,0.304162,-0.7141343,-1.366723,-4.663738,-1.98181,0.4139521,1.315667,0.6187084,-0.600962,0.01821787,10.66313,16.39169,0.2997471,-0.3117865,0.3258779,-0.158857,-3.832695,-0.2277466,0.5437508,1.441818,0.5445664,0.1065982,-0.2762643,-0.2410958,-1.280493,0.443531,0.0573573,0.6977745,1.455808,0.4017045,0.07809845,1.249465,0.5140887,285.8041,243.422,10.01318,True
4,0.8111119,-0.6872265,0.321307,-0.7131566,-1.367267,-4.672828,-1.973224,0.4132285,1.317206,0.6183045,-0.6010398,-0.00724343,10.71618,16.3274,0.3288256,-0.4000519,0.3138367,-0.1540351,-3.87498,-0.1907771,0.5434135,1.442324,0.5437503,0.1172442,-0.2656398,-0.2453499,-1.282685,0.4404382,0.05620575,0.6964816,1.455957,0.4006579,0.07583402,1.254611,0.5175309,285.3555,243.2486,10.79685,True
4,0.8222231,-0.6712601,0.3223978,-0.7248904,-1.367316,-4.68224,-1.964317,0.4124597,1.319,0.6186664,-0.6015298,-0.04477255,10.82228,16.22027,0.3524507,-0.4351333,0.3221605,-0.1490822,-3.910043,-0.1607314,0.5430265,1.442781,0.5428979,0.1319684,-0.2687874,-0.273142,-1.286507,0.4371494,0.05484088,0.6955789,1.456353,0.3994334,0.07388716,1.259445,0.5202304,285.0268,242.9171,11.4595,True
4,0.8333342,-0.6627684,0.3277186,-0.7366332,-1.367571,-4.691892,-1.955239,0.4116708,1.320783,0.6190469,-0.6023782,-0.07718171,10.95491,16.11313,0.3747266,-0.4190458,0.3178132,-0.1449894,-3.933133,-0.142722,0.5424691,1.443213,0.5418918,0.1500374,-0.2751596,-0.278629,-1.289996,0.4339013,0.05341981,0.6945237,1.456626,0.3982699,0.07213006,1.264069,0.5222971,284.6824,242.6493,11.97598,True
4,0.8444453,-0.6479118,0.3394545,-0.7494684,-1.368119,-4.70161,-1.946638,0.4108247,1.322377,0.6193862,-0.6020752,0.02823324,11.08753,15.98457,0.3758063,-0.4137264,0.3252709,-0.1407241,-3.959395,-0.1207754,0.5418566,1.44361,0.5409424,0.1691987,-0.2964794,-0.2851688,-1.29291,0.4294351,0.05187838,0.6932944,1.456657,0.3969045,0.07043988,1.268487,0.5238303,284.2823,242.1318,12.67018,True
4,0.8555565,-0.6447818,0.354363,-0.7548488,-1.369112,-4.711222,-1.937766,0.409812,1.323886,0.6197302,-0.6017711,0.02730351,11.22016,15.87744,0.3712101,-0.3561921,0.3115569,-0.137621,-3.970964,-0.1130203,0.5410347,1.4439,0.5398583,0.1767101,-0.3092746,-0.2777944,-1.295768,0.4256363,0.05089168,0.6920189,1.456903,0.3955586,0.06874333,1.272767,0.5251616,283.9783,241.2354,13.45513,True
4,0.8666676,-0.6405663,0.3671517,-0.7570354,-1.370136,1.562416,-1.929006,0.4090064,1.324943,0.6189096,-0.6021119,-0.0314003,11.32626,15.81315,0.3698721,-0.2986728,0.3084808,-0.1342356,-3.978327,-0.1095523,0.5400546,1.444438,0.5387592,0.182273,-0.2955084,-0.2511367,-1.297351,0.4224631,0.04934092,0.6907027,1.457289,0.394181,0.06695898,1.277026,0.5266448,283.7134,240.3189,14.19567,True
4,0.8777788,-0.6331272,0.3703562,-0.7634437,-1.371056,1.552576,-1.920279,0.4077851,1.326407,0.6191933,-0.6017407,0.03416973,11.35279,15.70602,0.3675171,-0.2741403,0.2893593,-0.1315516,-3.993511,-0.09838223,0.5390425,1.444929,0.5377533,0.1835962,-0.2700123,-0.2170025,-1.298653,0.4203588,0.04792172,0.6893193,1.457706,0.3929274,0.06504832,1.281316,0.5285406,283.3748,239.5095,14.98218,True
4,0.8888899,-0.6096781,0.3683412,-0.7581271,-1.371994,1.543451,-1.912617,0.4065541,1.327844,0.6194112,-0.6016816,0.005003964,11.32626,15.53461,0.3524213,-0.2369238,0.2884459,-0.1283931,-4.002602,-0.09246416,0.5378739,1.445466,0.5367012,0.1913993,-0.2349621,-0.1754064,-1.298757,0.4186704,0.04577628,0.687637,1.458308,0.3913374,0.06300714,1.285647,0.5309159,282.923,239.0791,15.78158,True
4,0.900001,-0.587307,0.3695211,-0.7517554,-1.373205,1.534221,-1.905056,0.4053329,1.329324,0.6196067,-0.6016741,0.0005682168,11.22016,15.32033,0.3426752,-0.2060729,0.2842941,-0.1252996,-4.01085,-0.08769683,0.5366155,1.445906,0.535538,0.1936517,-0.2317953,-0.1605023,-1.300243,0.4160963,0.04421327,0.6860919,1.458699,0.3898697,0.06094904,1.289954,0.5335806,282.4186,238.7647,16.77714,True
4,0.9111122,-0.5276805,0.3804911,-0.7315954,-1.375077,1.52555,-1.899464,0.4039961,1.330674,0.619648,-0.6024773,-0.07350943,11.06101,15.04178,0.3490051,-0.2124079,0.2693226,-0.122735,-4.030324,-0.07242467,0.5352497,1.446276,0.534328,0.1917151,-0.2371764,-0.1391548,-1.300761,0.4129922,0.04278688,0.6844884,1.459184,0.3883545,0.05876858,1.294264,0.5365211,282.0042,238.316,17.77172,True
4,0.9222233,-0.5042609,0.3848205,-0.7380357,-1.376322,1.515813,-1.892567,0.4030074,1.331588,0.6184111,-0.6025231,-0.003634537,10.92838,14.78466,0.359673,-0.2411005,0.2532289,-0.1202225,-4.059766,-0.04747165,0.5338935,1.446719,0.5330701,0.1910256,-0.2425951,-0.09228477,-1.300117,0.4099638,0.04159325,0.6826918,1.459699,0.3866613,0.05658323,1.298554,0.5396948,281.5838,237.8737,18.75263,True
4,0.9333345,-0.4754706,0.3742052,-0.7614565,-1.37702,1.505534,-1.886239,0.4014803,1.332862,0.6183825,-0.6041232,-0.1465325,10.82228,14.59181,0.3791326,-0.2709041,0.2818217,-0.116002,-4.093364,-0.01905412,0.5320834,1.447138,0.5316708,0.2114945,-0.2202708,-0.06468417,-1.299786,0.4081802,0.0387924,0.6807554,1.460308,0.3849361,0.05444208,1.302789,0.5430159,281.1395,237.6403,19.60815,True
4,0.9444456,-0.4455353,0.3658582,-0.7818117,-1.377903,1.493182,-1.879698,0.4002136,1.33753,0.6252623,-0.6029003,0.1129386,10.76923,14.4204,0.3738029,-0.2709365,0.2818497,-0.1128115,-4.120266,0.003708452,0.5304887,1.447587,0.5302782,0.2232247,-0.2021604,-0.06260643,-1.300452,0.4064479,0.03632392,0.6789073,1.460862,0.383275,0.05243294,1.306817,0.5462962,280.5491,237.4509,20.64812,True
4,0.9555568,-0.3900946,0.3554434,-0.7786139,-1.378762,1.483656,-1.875298,0.3984135,1.338671,0.6253402,-0.6031202,-0.02152229,10.79576,14.31326,0.3473329,-0.2625842,0.3171746,-0.1081851,-4.144031,0.02439748,0.5285173,1.447994,0.5288095,0.2241309,-0.1818801,-0.08068017,-1.301993,0.4051205,0.03420351,0.6768051,1.461466,0.3815784,0.0505288,1.310497,0.5492733,280.0323,237.069,21.92113,True
4,0.9666679,-0.336801,0.3481952,-0.7775397,-1.379719,1.474595,-1.871647,0.3962897,1.338926,0.6249132,-0.6030819,0.003607494,10.90185,14.31326,0.3399335,-0.2317832,0.3513716,-0.1032385,-4.16012,0.03699876,0.5264827,1.448366,0.5273564,0.222074,-0.1616421,-0.06997894,-1.302518,0.4042758,0.03210095,0.6749052,1.462081,0.379837,0.04844542,1.314012,0.5523424,280.1691,235.9644,22.5991,True
4,0.977779,-0.3090964,0.3461669,-0.780746,-1.380726,1.464905,-1.867308,0.3945064,1.339836,0.6250286,-0.6043645,-0.1175019,11.08753,14.4204,0.3396844,-0.1934017,0.3354681,-0.1000773,-4.169418,0.04247635,0.5243625,1.448745,0.5258214,0.2200347,-0.1531422,-0.05822443,-1.30274,0.4028274,0.03010144,0.6727371,1.462693,0.3781338,0.04609079,1.317994,0.5568805,280.6085,235.2145,22.2304,True
4,0.9888902,-0.2782406,0.3558941,-0.770144,-1.38229,1.455737,-1.863367,0.392594,1.339676,0.6233621,-0.6047735,-0.03664546,11.35279,14.63467,0.3138152,-0.1295805,0.329344,-0.09673826,-4.163346,0.03384851,0.5219338,1.449358,0.5241964,0.1872627,-0.1489377,-0.02600498,-1.302148,0.4015747,0.02948119,0.6703261,1.463403,0.3763738,0.04350621,1.322125,0.56246,279.9925,234.5381,23.87305,True
4,1.000001,-0.2377602,0.3657212,-0.7382509,-1.383922,1.447684,-1.86058,0.3908885,1.339288,0.6203561,-0.6038025,0.08867998,11.69761,14.91322,0.2706872,-0.03065747,0.3127318,-0.09368148,-4.133849,0.003050385,0.5192691,1.449864,0.5225449,0.1650963,-0.1404583,0.0008193068,-1.301375,0.4005741,0.02870248,0.6681278,1.464116,0.3745165,0.04092317,1.325774,0.5681603,278.9236,233.6423,26.73275,True
4,1.011112,-0.1887715,0.3767253,-0.6946431,-1.386468,1.44016,-1.858653,0.3891438,1.339803,0.6200826,-0.6036012,0.01733251,11.98939,15.17034,0.2403219,0.03748521,0.268294,-0.09230516,-4.104355,-0.02792964,0.5168099,1.45043,0.5210352,0.132324,-0.1245626,0.0330779,-1.299876,0.3996707,0.02860235,0.6656082,1.464815,0.3727872,0.03853015,1.328622,0.5732651,278.088,233.4866,28.79652,True
4,1.022224,-0.1451515,0.3908137,-0.6702019,-1.38884,1.432477,-1.857065,0.3875974,1.339543,0.6178336,-0.6041754,-0.05279974,12.22811,15.38461,0.2280539,0.1035796,0.2194869,-0.09148385,-4.067005,-0.06726719,0.5140693,1.450856,0.5192971,0.1068166,-0.1149624,0.04181793,-1.299293,0.3992896,0.0283363,0.6629899,1.465643,0.3710864,0.03635376,1.330466,0.577055,277.4454,234.4051,29.7076,True
4,1.033335,-0.04616636,0.4168023,-0.6639714,-1.392032,1.423912,-1.85833,0.3860255,1.339742,0.6171787,-0.6045977,-0.03840523,12.36074,15.53461,0.2352782,0.1324108,0.2003268,-0.09010646,-4.0403,-0.0966565,0.511485,1.451198,0.5175521,0.1004604,-0.09899747,0.04723008,-1.298592,0.3986996,0.02758369,0.6604593,1.466317,0.3693695,0.03440816,1.33128,0.5790397,277.2042,236.1034,29.15193,True
4,1.044446,-0.004645944,0.4222736,-0.6714744,-1.394467,1.41488,-1.857946,0.3843747,1.340082,0.6166503,-0.6045573,0.003690083,12.38727,15.62031,0.247937,0.1697341,0.2067181,-0.08790669,-4.002291,-0.1376234,0.5088719,1.451498,0.5158908,0.1206771,-0.06065297,0.04609191,-1.298017,0.3990465,0.02534344,0.6570708,1.466607,0.3677309,0.03247279,1.331342,0.5795437,277.3484,238.0563,27.29924,True
4,1.055557,0.04543591,0.4171053,-0.6853377,-1.396398,1.405772,-1.858545,0.382563,1.340213,0.6160676,-0.6070132,-0.2250267,12.33422,15.64174,0.2639019,0.1581053,0.1959503,-0.0864068,-3.983573,-0.1597132,0.5062736,1.451823,0.5142407,0.1333991,-0.058537,0.03643155,-1.297653,0.3977039,0.02357164,0.6541173,1.467295,0.3660374,0.03054213,1.330867,0.5789168,277.6222,239.5829,25.45808,True
4,1.066668,0.07641443,0.3991779,-0.6693159,-1.398047,1.398015,-1.85897,0.3806636,1.340213,0.6154945,-0.6050984,0.1766046,12.20159,15.62031,0.2715335,0.1485066,0.220387,-0.08346453,-3.962851,-0.183512,0.5035535,1.452145,0.5126204,0.1513476,-0.06381255,0.01603426,-1.298213,0.3968342,0.02151728,0.6513224,1.467915,0.3643286,0.02850327,1.33007,0.5779653,277.9603,240.106,24.09211,True
4,1.077779,0.09667937,0.3950371,-0.6586615,-1.400119,1.390063,-1.859358,0.3787532,1.340221,0.6149821,-0.6052486,-0.01594467,12.06897,15.59888,0.2754709,0.124171,0.1457421,-0.08454151,-3.958763,-0.190742,0.5008533,1.452369,0.5110118,0.1545049,-0.07339868,0.009600446,-1.298258,0.3953995,0.0200283,0.6486393,1.468722,0.3625276,0.0262066,1.329203,0.5774589,278.3658,240.6441,22.7166,True
4,1.08889,0.1275733,0.4006122,-0.6235455,-1.402898,1.383203,-1.860296,0.3767689,1.340024,0.6144454,-0.604373,0.07999148,11.98939,15.59888,0.2709953,0.08912715,0.08177023,-0.08617563,-3.964132,-0.18818,0.4978756,1.452802,0.5093563,0.1449053,-0.08405177,0.007524911,-1.298273,0.3940563,0.01910898,0.6457748,1.469433,0.360779,0.02373629,1.328409,0.5778819,278.6583,241.1597,21.76981,True
4,1.100002,0.1457226,0.3943651,-0.6032947,-1.405172,1.376179,-1.861395,0.374789,1.339871,0.6139059,-0.6038238,0.04924833,11.93634,15.59888,0.2932173,0.0765053,0.04646099,-0.08699588,-3.961269,-0.1950755,0.494945,1.453042,0.5077538,0.1236888,-0.1032614,0.01723116,-1.297943,0.3921346,0.01896597,0.6429043,1.470244,0.359117,0.02125629,1.327741,0.579344,278.8204,242.343,20.68468,True
4,1.111113,0.1959322,0.3604203,-0.6106774,-1.405351,1.368628,-1.863855,0.3727419,1.338762,0.6104593,-0.6037524,0.005931209,12.01592,15.68459,0.2873607,0.1245424,-0.01094872,-0.08990779,-3.930452,-0.2287005,0.4914953,1.453249,0.5062015,0.1026578,-0.1012125,0.05149589,-1.296202,0.3909867,0.01885598,0.6397709,1.471004,0.3574607,0.0188836,1.327242,0.5817425,278.8755,244.2424,19.30892,True
4,1.122224,0.2247864,0.3371453,-0.5989054,-1.406314,1.361511,-1.865843,0.3707862,1.339072,0.6105785,-0.6035847,0.01512997,12.12201,15.74888,0.2593774,0.1926082,-0.01172646,-0.09106892,-3.882638,-0.2781725,0.4883463,1.453557,0.5047047,0.09106424,-0.05970217,0.06977792,-1.294975,0.3918519,0.01798193,0.6365833,1.471685,0.3558607,0.01668822,1.326883,0.5847903,278.8082,246.5765,17.80851,True
4,1.133335,0.2749441,0.3215001,-0.5435052,-1.407181,1.357281,-1.869699,0.3687196,1.336291,0.6034646,-0.6046414,-0.09708754,12.30769,15.81315,0.249482,0.2565039,-0.0190035,-0.09310198,-3.829382,-0.3334898,0.4851458,1.453781,0.5033839,0.09758302,-0.01925582,0.08792074,-1.293352,0.3930643,0.01636859,0.6334111,1.47237,0.3542931,0.01469128,1.326555,0.5880462,278.5704,248.9597,16.74223,True
4,1.144446,0.3047757,0.3303415,-0.4913542,-1.41012,1.352581,-1.873435,0.3666909,1.335568,0.6027658,-0.603819,0.07570219,12.49337,15.85601,0.276985,0.2151978,-0.0831572,-0.09632334,-3.83341,-0.3335308,0.481999,1.453834,0.5019948,0.1245979,0.02006564,0.1367863,-1.290244,0.3945753,0.01348705,0.6302202,1.473047,0.3528435,0.01290747,1.325963,0.5908284,278.316,250.3469,16.75122,True
4,1.155557,0.3270907,0.3508151,-0.4509591,-1.413484,1.347813,-1.877161,0.364145,1.334957,0.6015038,-0.6047032,-0.08179725,12.70557,15.87744,0.2532756,0.132224,-0.1918487,-0.1012497,-3.864051,-0.3051088,0.4787878,1.453578,0.5005007,0.1697354,0.02637151,0.1865079,-1.28644,0.3949686,0.009993512,0.6268829,1.473704,0.3513691,0.01119465,1.325065,0.5929451,278.046,252.4219,16.0236,True
4,1.166668,0.3196147,0.3517756,-0.4722633,-1.415448,1.340805,-1.879372,0.3616623,1.334511,0.6004121,-0.6043426,0.03342984,12.83819,15.81315,0.2113234,0.09602428,-0.2896922,-0.107539,-3.883786,-0.2862592,0.475543,1.453518,0.499058,0.1955156,0.01141652,0.2129026,-1.283232,0.3945115,0.007227819,0.6235042,1.474352,0.3499439,0.009752023,1.323341,0.5932443,277.5649,254.7554,15.31848,True
4,1.17778,0.2941089,0.3356646,-0.4796471,-1.416798,1.334309,-1.880759,0.3588951,1.334072,0.5992868,-0.6038643,0.04308574,12.89124,15.59888,0.1574011,0.1105499,-0.2062679,-0.1074111,-3.865967,-0.3037564,0.4721392,1.453658,0.4978154,0.2071923,0.006106503,0.2074711,-1.281144,0.3943723,0.00459848,0.6201811,1.474924,0.3484418,0.00775284,1.320972,0.5922195,277.7236,256.4233,13.58288,True
4,1.188891,0.2878622,0.3092113,-0.4209367,-1.418436,1.331044,-1.883129,0.3560458,1.333565,0.5982063,-0.602316,0.1409836,12.86472,15.17034,0.1471492,0.09121898,-0.1487292,-0.1070378,-3.859371,-0.3117187,0.4687614,1.453666,0.4964712,0.2323457,0.008356012,0.1561424,-1.281094,0.3945986,0.001110006,0.6168258,1.475391,0.3470411,0.00493647,1.318275,0.5905946,278.2974,257.7547,11.40385,True
4,1.200002,0.2911113,0.3041286,-0.3548735,-1.421019,1.328339,-1.886014,0.3532578,1.332887,0.5970311,-0.6010531,0.1140425,12.75862,14.57039,0.143247,0.05916221,-0.1082856,-0.1067704,-3.863804,-0.3088329,0.4653245,1.453663,0.4950914,0.2276093,0.003148578,0.09758244,-1.281816,0.3944612,-0.001103081,0.6134288,1.475989,0.3456225,0.001535313,1.315605,0.5891514,279.0705,258.2725,9.92284,True
4,1.211113,0.2868134,0.3170362,-0.325051,-1.42463,1.324635,-1.888748,0.3502265,1.3327,0.596853,-0.6013514,-0.02820608,12.62599,13.86329,0.1271763,0.05061864,-0.1305833,-0.1090149,-3.867795,-0.3057136,0.4618701,1.453636,0.4937499,0.2013372,-0.01265757,0.009338498,-1.284736,0.3937681,-0.002283394,0.6099696,1.476461,0.3443692,-0.002091116,1.313271,0.5883362,279.7628,258.9541,8.670444,True
4,1.222224,0.2740065,0.3234085,-0.3197276,-1.427384,1.320155,-1.89073,0.3475013,1.332053,0.5959744,-0.6017785,-0.03866926,12.49337,13.0705,0.08324359,0.02500068,-0.1943125,-0.1132083,-3.885405,-0.2876515,0.458132,1.453389,0.4925101,0.177507,-0.03600623,-0.0405965,-1.286732,0.3924613,-0.003014698,0.6066214,1.477045,0.3432119,-0.00547203,1.311375,0.5880834,280.1561,260.3009,7.317589,True
4,1.233335,0.2495566,0.3126909,-0.3090204,-1.429396,1.316197,-1.892087,0.3443762,1.331586,0.5949335,-0.601729,0.004778406,12.33422,12.17056,0.06347769,0.1219296,-0.2281007,-0.117936,-3.857964,-0.3149774,0.4543568,1.453283,0.4913242,0.181712,-0.01681125,-0.04698297,-1.287405,0.392965,-0.005384645,0.6029624,1.477635,0.3421619,-0.008517774,1.309904,0.5882391,280.3247,261.9841,5.856703,True
4,1.244446,0.2389487,0.3052597,-0.2887466,-1.431571,1.312792,-1.893913,0.3412609,1.331123,0.5939014,-0.6009971,0.06673858,12.12201,11.22777,0.06783345,0.1368068,-0.2003979,-0.119789,-3.844602,-0.3292181,0.4505025,1.453209,0.4900961,0.1988624,0.01193046,-0.0321463,-1.28717,0.3941832,-0.008561797,0.5992438,1.478274,0.341064,-0.01144069,1.308883,0.5889019,280.3846,263.5393,4.478679,True
4,1.255558,0.2037807,0.3093964,-0.2844713,-1.434017,1.308784,-1.894488,0.3379205,1.330817,0.5930333,-0.6002046,0.07186924,11.88329,10.24212,0.05713753,0.1197554,-0.220614,-0.1227834,-3.847751,-0.3264577,0.4464986,1.45306,0.4889474,0.2385386,0.0598141,0.002790317,-1.285959,0.3966101,-0.01327905,0.5954407,1.478894,0.3401551,-0.01417826,1.3082,0.5900053,280.3017,264.8575,3.535057,True
4,1.266669,0.1813986,0.3092532,-0.2993627,-1.43611,1.304034,-1.895157,0.3346571,1.330492,0.5921729,-0.60057,-0.03392971,11.64456,9.342188,0.005357265,0.1174273,-0.1733705,-0.1246828,-3.844224,-0.3289819,0.4425291,1.452908,0.4877934,0.261388,0.08419742,0.06339079,-1.283152,0.398357,-0.01743971,0.5915228,1.479388,0.339309,-0.01698843,1.307802,0.5913854,280.1801,266.1821,2.802695,True
4,1.27778,0.1570621,0.2707233,-0.3056112,-1.435655,1.300287,-1.895426,0.3311321,1.330361,0.5918226,-0.5995426,0.09435987,11.43236,8.635095,-0.03292333,0.1266554,-0.1284755,-0.1240799,-3.827558,-0.3431488,0.438393,1.452976,0.4867687,0.254071,0.09693757,0.08158661,-1.281689,0.3999049,-0.02039289,0.587701,1.479823,0.3383405,-0.01992167,1.307583,0.5927883,280.0255,267.6046,2.027878,True
4,1.288891,0.1571907,0.247418,-0.2522718,-1.436334,1.299037,-1.896807,0.3277358,1.329855,0.5913982,-0.5997487,-0.01958462,11.29973,8.185129,-0.05615672,0.1764818,-0.05580446,-0.1235542,-3.793849,-0.375246,0.4344309,1.453032,0.4858303,0.212426,0.1533993,0.07352108,-1.281217,0.4036263,-0.02225843,0.5837291,1.480175,0.3376076,-0.02311613,1.307512,0.5940855,279.9301,269.0189,1.146467,True
4,1.300002,0.1636578,0.2379541,-0.2107079,-1.437515,1.297637,-1.898596,0.3242846,1.329458,0.5906687,-0.5994189,0.0305405,11.22016,7.928005,-0.03302614,0.1596687,-0.1230876,-0.127779,-3.796497,-0.3731581,0.4304911,1.452938,0.4848499,0.1910042,0.1672664,0.05987178,-1.281125,0.4059519,-0.02444542,0.5799774,1.4805,0.3367712,-0.02648099,1.30753,0.5952336,279.8385,269.6862,0.819927,True
4,1.311113,0.1541888,0.2155939,-0.1903868,-1.43834,1.295863,-1.899856,0.3206356,1.329118,0.5900476,-0.600309,-0.08161223,11.19363,7.863723,0.03042638,0.08206061,-0.07353249,-0.1261209,-3.806661,-0.3655631,0.4265354,1.45253,0.4840047,0.1832684,0.157749,0.02475815,-1.282073,0.4074659,-0.02661989,0.5759982,1.480886,0.3361378,-0.02996692,1.307561,0.5962327,279.7308,269.5441,1.179678,True
4,1.322224,0.1309212,0.1705813,-0.232832,-1.436999,1.291727,-1.89993,0.316734,1.32889,0.5893097,-0.600938,-0.056691,11.24668,7.970859,0.03634708,0.0333192,-0.191916,-0.1316214,-3.832304,-0.3406292,0.4224507,1.452108,0.482996,0.2139485,0.1258619,-0.00325533,-1.283013,0.4076927,-0.03007242,0.5719171,1.481225,0.3355818,-0.03332882,1.307447,0.5968837,279.5326,269.998,1.011465,True
4,1.333336,0.06821519,0.1274707,-0.2923059,-1.434881,1.286693,-1.897887,0.312599,1.328586,0.588613,-0.6005572,0.03522668,11.29973,8.163701,0.01455637,-0.04250347,-0.1440066,-0.1308715,-3.855863,-0.3166826,0.418132,1.451771,0.482439,0.2512331,0.1067069,-0.004661568,-1.283126,0.4082434,-0.03429645,0.5678585,1.481533,0.3350186,-0.03667302,1.307077,0.5970659,279.3792,270.8259,0.464853,True
4,1.344447,0.03629118,0.119886,-0.2880004,-1.434929,1.28347,-1.896875,0.3086018,1.328315,0.588058,-0.599705,0.07762659,11.32626,8.420825,-0.004734294,-0.05104812,-0.1705483,-0.1330105,-3.865997,-0.3059154,0.4137141,1.451409,0.4816649,0.3118401,0.09930678,-0.02007083,-1.283697,0.4091304,-0.0401373,0.563594,1.48177,0.334666,-0.04028834,1.306444,0.5968765,279.377,270.998,0.3857827,True
4,1.355558,0.01078044,0.1070248,-0.2815474,-1.434903,1.280437,-1.89578,0.3045496,1.328042,0.5876272,-0.5978179,0.1720013,11.29973,8.677952,-0.01615519,-0.1022618,-0.1556748,-0.1336417,-3.889853,-0.281801,0.4092345,1.451355,0.4810698,0.343659,0.1185202,-0.03626533,-1.284651,0.4110498,-0.04542714,0.5593388,1.481971,0.3342974,-0.04438715,1.305651,0.5966303,279.5423,269.9378,1.306213,True
4,1.366669,0.01180642,0.1155765,-0.2741199,-1.435475,1.277288,-1.895494,0.3005129,1.327753,0.5871673,-0.5987095,-0.08270818,11.16711,8.82794,-0.01152173,-0.09173827,-0.08217322,-0.13186,-3.89114,-0.2805462,0.4047988,1.451169,0.4803748,0.3210232,0.153729,-0.06690364,-1.286568,0.413988,-0.04911055,0.5550032,1.482176,0.3339279,-0.04887573,1.304916,0.5966263,279.8589,268.9844,2.037261,True
4,1.37778,0.02140012,0.1156506,-0.2645386,-1.435869,1.274336,-1.895666,0.2964498,1.327434,0.5866971,-0.5990301,-0.02816757,10.98143,8.977929,0.004440643,-0.117197,-0.1036219,-0.1329173,-3.910569,-0.2619424,0.4002174,1.450652,0.4796131,0.3039181,0.1824961,-0.07310147,-1.287794,0.4170719,-0.05280542,0.5506233,1.4824,0.3335791,-0.05334219,1.30441,0.5968896,280.1098,269.1008,1.841947,True
4,1.388891,0.007514529,0.1240784,-0.2762697,-1.436505,1.270539,-1.894981,0.2923384,1.326944,0.5862398,-0.6000965,-0.0971674,10.74271,9.149346,0.006198615,-0.03621046,-0.1098648,-0.1351719,-3.896161,-0.2763171,0.3955609,1.449906,0.478971,0.2837074,0.2208177,-0.0664627,-1.288419,0.4208061,-0.05621853,0.5458785,1.482478,0.3334351,-0.05764386,1.304194,0.5973769,280.2215,269.54,1.511457,True
4,1.400002,-0.01698802,0.1228802,-0.2847723,-1.436678,1.266794,-1.893416,0.2881436,1.326609,0.5858657,-0.6007702,-0.06073052,10.4244,9.363616,0.007984288,0.002215087,-0.1428246,-0.138331,-3.891298,-0.2812647,0.3909853,1.449412,0.4783952,0.2946377,0.2228822,-0.03140014,-1.287862,0.4234084,-0.06055336,0.5413387,1.482628,0.33318,-0.06171325,1.304234,0.5980285,280.1559,269.9201,1.355346,True
4,1.411114,-0.06929959,0.1460714,-0.2954606,-1.437974,1.262652,-1.890274,0.2836619,1.326344,0.5859103,-0.6001593,0.05634009,10.1061,9.599312,0.02127609,0.02017461,-0.03953511,-0.1355283,-3.878038,-0.2950215,0.3863215,1.448932,0.4780324,0.3354738,0.2174829,0.01193644,-1.286426,0.4258035,-0.06633694,0.5366177,1.482691,0.3329704,-0.06562503,1.304412,0.5988076,279.9401,270.1084,1.431348,True
4,1.422225,-0.1066835,0.1682861,-0.2997671,-1.439561,1.258594,-1.887511,0.279245,1.325867,0.5857677,-0.5993071,0.0774933,9.814323,9.985,0.01465697,0.001085253,-0.09493048,-0.1381461,-3.889609,-0.2836245,0.3817331,1.448161,0.4773207,0.3847462,0.2089061,0.04453081,-1.285289,0.4279001,-0.0727802,0.5318581,1.482896,0.3327289,-0.06956172,1.304634,0.5997479,279.7061,270.2796,1.509603,True
4,1.433336,-0.127001,0.186321,-0.2998132,-1.441189,1.254583,-1.885012,0.2748567,1.325646,0.5857038,-0.5979186,0.1264702,9.628648,10.49925,-0.007781766,0.01910121,-0.09370212,-0.1394346,-3.88567,-0.2865873,0.3771294,1.447606,0.4768097,0.411561,0.1982124,0.06666316,-1.284034,0.4298594,-0.07868602,0.5271525,1.482932,0.3324325,-0.07371896,1.304921,0.6008942,279.5822,270.4841,1.515296,True
4,1.444447,-0.1408775,0.1959622,-0.2699988,-1.443081,1.251983,-1.882654,0.2703092,1.325352,0.5855443,-0.5984538,-0.0496526,9.575595,11.14206,-0.00943143,0.01041073,-0.01487858,-0.1357488,-3.878583,-0.2934271,0.3723795,1.447001,0.476573,0.4202552,0.1885858,0.08787477,-1.282619,0.4318435,-0.08401634,0.5225689,1.482974,0.3323216,-0.07822539,1.305402,0.6023069,279.5478,271.1011,1.099814,True
4,1.455558,-0.1504582,0.1959974,-0.2540124,-1.444688,1.249073,-1.88036,0.2657954,1.325256,0.5856094,-0.5990956,-0.05791981,9.628648,11.91343,0.01086147,-0.03526516,-0.03852386,-0.1367336,-3.896197,-0.2767983,0.3677066,1.446491,0.4762568,0.4160752,0.1661966,0.09638225,-1.281351,0.4331152,-0.08884119,0.5178039,1.483093,0.3322663,-0.08280498,1.306103,0.6038616,279.4537,271.9029,0.5853369,True
4,1.466669,-0.1939984,0.1584583,-0.2740827,-1.444153,1.245543,-1.876277,0.2610437,1.325167,0.5854774,-0.599362,-0.02371128,9.734747,12.64195,0.02685326,-0.1185537,0.09012232,-0.1300145,-3.916588,-0.2577157,0.362939,1.445555,0.4758797,0.4086304,0.1427569,0.09532043,-1.280565,0.4340437,-0.09347855,0.5129842,1.483208,0.3323863,-0.08730425,1.307012,0.6054272,279.2856,272.7697,0.07832067,True
4,1.47778,-0.2248253,0.1390505,-0.3016927,-1.443661,1.241154,-1.872299,0.2562291,1.324915,0.5852988,-0.5996863,-0.02935864,9.973473,13.26334,0.007253557,-0.1280587,0.008182585,-0.132218,-3.934277,-0.2395897,0.3581399,1.444867,0.4755335,0.4160907,0.1353033,0.09524453,-1.279641,0.4354322,-0.09874628,0.5081559,1.483271,0.3323746,-0.09173142,1.308069,0.606824,279.0412,273.6994,359.5433,True
4,1.488891,-0.2705703,0.1206734,-0.3229044,-1.443098,1.236767,-1.867165,0.2512774,1.32481,0.5853682,-0.598228,0.1336802,10.26525,13.73473,-0.019026,-0.1570109,0.04981807,-0.1300347,-3.950657,-0.2221202,0.3529926,1.444288,0.4752202,0.4393831,0.1332147,0.07694468,-1.279531,0.4369223,-0.1049144,0.5032355,1.483313,0.3325548,-0.09619597,1.309221,0.6080019,278.764,274.0585,359.4875,True
4,1.500003,-0.3035643,0.117347,-0.3143479,-1.443176,1.233541,-1.862454,0.2463867,1.324612,0.5854456,-0.5985593,-0.03127361,10.68966,14.05614,-0.02785386,-0.1111995,0.02864573,-0.1304331,-3.948879,-0.2233801,0.3479434,1.443655,0.4749522,0.4743873,0.1503115,0.05964366,-1.279763,0.4392988,-0.1119659,0.4981078,1.483362,0.332804,-0.1008848,1.310466,0.6090125,278.5215,273.4236,0.3312541,True
4,1.511114,-0.3025514,0.1355599,-0.2813911,-1.444428,1.231008,-1.858834,0.2413973,1.324452,0.585556,-0.5978019,0.06990373,11.14058,14.22755,-0.02413216,-0.07375916,-0.03948109,-0.1330558,-3.949301,-0.2228365,0.3427274,1.442956,0.4746451,0.5106482,0.1737516,0.06579098,-1.279165,0.4422469,-0.1197378,0.4930395,1.483431,0.3329687,-0.1057918,1.311802,0.6099671,278.2663,272.3565,1.474306,True
4,1.522225,-0.3025324,0.1269441,-0.3026696,-1.444164,1.226892,-1.854852,0.2365994,1.32419,0.5854843,-0.5983415,-0.04972835,11.59151,14.22755,-0.06917141,-0.09298052,-0.1063778,-0.1361642,-3.968086,-0.2020812,0.3373526,1.442303,0.4742446,0.5087985,0.2003058,0.1031512,-1.277127,0.4457389,-0.1262187,0.4879782,1.483675,0.3331482,-0.1108744,1.313272,0.6109811,278.0531,271.5385,2.314319,True
4,1.533336,-0.2950894,0.1268535,-0.3293121,-1.443818,1.222123,-1.851114,0.231641,1.323972,0.5854173,-0.5997178,-0.1250886,12.06897,14.14185,-0.1033388,0.04838492,-0.01748184,-0.1345599,-3.928099,-0.2393923,0.3318626,1.441762,0.474077,0.4802991,0.2428345,0.1375561,-1.275085,0.4503129,-0.1320603,0.482796,1.483797,0.3332915,-0.1159276,1.314873,0.6120002,277.7983,271.3184,2.637804,True
4,1.544447,-0.267349,0.1184717,-0.312269,-1.443609,1.218997,-1.848473,0.2267611,1.323668,0.585269,-0.5999016,-0.01562532,12.49337,13.99186,-0.09118953,0.129503,-0.07171896,-0.1378884,-3.903223,-0.2635773,0.3265738,1.440991,0.4737167,0.4540536,0.2586995,0.1868024,-1.271973,0.4542961,-0.1373805,0.4776437,1.483892,0.3334963,-0.1208708,1.316522,0.6129467,277.437,271.2661,2.870004,True
4,1.555558,-0.2545164,0.1100534,-0.2962653,-1.443746,1.216236,-1.84573,0.2217833,1.32374,0.5857301,-0.6003606,-0.0418943,12.9443,13.82044,-0.103745,0.1591552,-0.009800486,-0.1369786,-3.879542,-0.285579,0.3210726,1.440164,0.4734035,0.4302167,0.2670378,0.2690389,-1.266688,0.45849,-0.1426996,0.4723436,1.484014,0.33375,-0.1256764,1.318095,0.6138598,277.0513,270.2007,4.082325,True
4,1.566669,-0.2351954,0.07169407,-0.3216997,-1.442155,1.212325,-1.843299,0.2168656,1.323163,0.5859723,-0.6013647,-0.09138122,13.34218,13.75616,-0.1775626,0.09726787,-0.108583,-0.1407806,-3.897541,-0.2632532,0.3156743,1.439055,0.4730818,0.4392068,0.2679801,0.3264903,-1.261785,0.4622811,-0.1490843,0.4670457,1.484107,0.3340123,-0.1304297,1.319529,0.6148655,276.6922,268.8122,5.590849,True
4,1.577781,-0.2553951,0.0555473,-0.3716713,-1.442024,1.206565,-1.839409,0.2119215,1.323043,0.5873799,-0.6013146,0.00531548,13.74005,13.77759,-0.1822505,0.1601576,-0.1382661,-0.1444392,-3.877576,-0.2808152,0.3102355,1.438208,0.4729984,0.4801007,0.2668285,0.3762294,-1.25668,0.4662105,-0.157082,0.4617223,1.484256,0.334322,-0.1351217,1.320728,0.6159374,276.3809,267.9321,6.615575,True
4,1.588892,-0.2649086,0.03847362,-0.3684094,-1.440852,1.202741,-1.835682,0.2069094,1.322658,0.5876865,-0.6017039,-0.03577324,14.00531,13.86329,-0.1532634,0.1442383,-0.109699,-0.144966,-3.870176,-0.2874448,0.3046851,1.437383,0.4728305,0.5113074,0.2571701,0.4153685,-1.251345,0.4697147,-0.164708,0.4564667,1.48417,0.3347917,-0.1399238,1.321684,0.617136,276.147,267.0132,7.660563,True
4,1.600003,-0.2712181,0.02475961,-0.3353191,-1.440669,1.200323,-1.832397,0.2017245,1.322133,0.5881355,-0.6004933,0.1109423,14.13793,14.03471,-0.1281711,0.1515844,-0.000104636,-0.1416967,-3.849654,-0.3073466,0.2991243,1.436407,0.4727147,0.5340288,0.2347175,0.4588305,-1.245111,0.472758,-0.1722085,0.4510717,1.484103,0.335094,-0.1448305,1.3223,0.6185732,275.9603,264.8376,9.819674,True
4,1.611114,-0.2838903,0.002462775,-0.3054,-1.439716,1.198069,-1.828637,0.1966403,1.32167,0.5885828,-0.6003031,0.01648827,14.13793,14.27041,-0.1606351,0.2069482,-0.0488162,-0.145293,-3.826874,-0.3269187,0.2937443,1.43531,0.4726622,0.5558029,0.2282118,0.5161669,-1.238059,0.4765113,-0.1802686,0.4457959,1.483882,0.3353629,-0.1499225,1.32274,0.6206002,275.9568,263.7254,10.84452,True
4,1.622225,-0.2987511,-0.007090732,-0.2861818,-1.439028,1.195512,-1.824573,0.1916143,1.321245,0.5889132,-0.6006249,-0.02943355,14.03183,14.46325,-0.1876298,0.2101581,-0.1104453,-0.149202,-3.818456,-0.3322435,0.2885357,1.434133,0.4725957,0.5754271,0.2046562,0.5702912,-1.230443,0.4795287,-0.1882679,0.4404334,1.48365,0.335659,-0.1549144,1.323065,0.6229706,275.9578,263.9073,11.03308,True
4,1.633336,-0.3019593,0.000455223,-0.2574434,-1.438863,1.193555,-1.820892,0.1867124,1.320443,0.5889654,-0.6002392,0.03558426,13.81963,14.63467,-0.161513,0.2111325,-0.01258282,-0.1472068,-3.79657,-0.3528907,0.2834832,1.433095,0.4726257,0.578809,0.1726461,0.5904264,-1.223678,0.4818227,-0.1955796,0.4353275,1.483327,0.3359103,-0.1598191,1.323327,0.6253352,275.8969,264.8725,10.70405,True
4,1.644447,-0.2688539,-0.01525572,-0.2233141,-1.438061,1.192419,-1.818879,0.1818816,1.31995,0.5889585,-0.6000171,0.02002512,13.52785,14.78466,-0.145522,0.1643918,-0.04472117,-0.1483279,-3.796615,-0.3518654,0.278516,1.431719,0.4723916,0.5585141,0.1449369,0.5841575,-1.217625,0.4838467,-0.2017254,0.4302888,1.483057,0.3360796,-0.1646556,1.323588,0.6273896,275.8586,265.5508,10.63248,True
4,1.655559,-0.2475025,-0.02691258,-0.2296803,-1.436579,1.189878,-1.816525,0.1770881,1.319112,0.588887,-0.6004043,-0.0354449,13.18302,14.91322,-0.1465272,0.1303286,-0.0586312,-0.1496004,-3.797103,-0.3497002,0.2735818,1.430447,0.472255,0.5391998,0.1353339,0.5683331,-1.212097,0.4861137,-0.2078017,0.4252226,1.48277,0.3363447,-0.169426,1.32394,0.6289704,275.8036,265.7314,10.88949,True
4,1.66667,-0.2230115,-0.02680447,-0.2307605,-1.435683,1.187213,-1.814432,0.172405,1.318285,0.5886841,-0.6020459,-0.1497401,12.81167,15.02035,-0.1473725,0.1323764,-0.01813552,-0.1489948,-3.784389,-0.3605401,0.2687553,1.429275,0.4721131,0.5038388,0.1588071,0.5441654,-1.207558,0.4898535,-0.2134271,0.420416,1.482385,0.3365917,-0.1740681,1.324379,0.6299474,275.655,265.5668,11.3433,True
4,1.677781,-0.2070873,-0.009573348,-0.1977969,-1.436032,1.186123,-1.812391,0.1677927,1.317331,0.588403,-0.601998,0.005586189,12.49337,15.12749,-0.1327841,0.13669,-0.05331869,-0.1507775,-3.773162,-0.3707546,0.2638304,1.428012,0.4720397,0.4898217,0.2067392,0.527351,-1.203033,0.4949205,-0.2201987,0.4155008,1.482189,0.3369184,-0.1786436,1.324828,0.6303008,275.4146,263.9525,13.07993,True
4,1.688892,-0.1795133,0.0279962,-0.1489407,-1.437618,1.185788,-1.811312,0.1633157,1.316146,0.5881684,-0.6021248,-0.01186092,12.22811,15.2132,-0.1380719,0.1006094,-0.09176305,-0.1534183,-3.782487,-0.3597214,0.259117,1.426845,0.4719036,0.448233,0.2493276,0.5245775,-1.198344,0.5005984,-0.2258739,0.4108198,1.48199,0.3372903,-0.1832499,1.325156,0.6302192,275.1504,260.8038,16.13931,True
4,1.700003,-0.1434794,0.07836305,-0.1097165,-1.440133,1.18513,-1.810739,0.1588847,1.314928,0.587924,-0.6018558,0.02461899,11.98939,15.25605,-0.1261491,0.10484,-0.05241393,-0.1532857,-3.773089,-0.3679959,0.2543718,1.425762,0.4719365,0.4162214,0.2365322,0.5184299,-1.1932,0.5040824,-0.2307994,0.4059384,1.481614,0.3376963,-0.1878566,1.325286,0.629906,274.931,258.0505,18.69862,True
4,1.711114,-0.1168664,0.08708094,-0.08526242,-1.441378,1.184706,-1.810297,0.1543827,1.313756,0.5876696,-0.6025471,-0.06351727,11.75066,15.25605,-0.1240312,0.08888954,-0.06631501,-0.1544223,-3.773619,-0.3661705,0.2496937,1.424391,0.4718325,0.3778968,0.2120081,0.5208174,-1.187823,0.5070804,-0.2348844,0.4012207,1.481407,0.3381181,-0.192409,1.325172,0.6294307,274.7352,257.0056,19.59191,True
4,1.722225,-0.1062203,0.09254156,-0.06184172,-1.442569,1.184515,-1.809443,0.1498094,1.312402,0.5873275,-0.6029913,-0.04017394,11.51194,15.25605,-0.1588498,0.1794286,-0.1309186,-0.1597577,-3.753063,-0.3836366,0.2450645,1.422881,0.471709,0.3910371,0.2129765,0.5654725,-1.180646,0.511592,-0.241493,0.3964429,1.480993,0.338557,-0.196874,1.324758,0.6288233,274.5329,257.131,19.3458,True
4,1.733337,-0.1040993,0.1000937,-0.03842938,-1.444041,1.184469,-1.808411,0.145478,1.311149,0.5871291,-0.6029024,0.008228857,11.32626,15.17034,-0.1867974,0.2528144,-0.1252961,-0.1622898,-3.7281,-0.4057105,0.2405138,1.421511,0.4715543,0.4498993,0.2256929,0.6012573,-1.173773,0.5166668,-0.2502474,0.3918192,1.480587,0.3390563,-0.2013234,1.324026,0.6281906,274.3819,257.6996,18.6479,True
4,1.744448,-0.07856756,0.1185147,0.02114713,-1.446503,1.186215,-1.808621,0.1411413,1.309641,0.5867977,-0.6022275,0.06142573,11.22016,15.04178,-0.183531,0.2272607,-0.1285504,-0.1647314,-3.72018,-0.4112765,0.23609,1.420375,0.4714816,0.4915506,0.2160935,0.6136864,-1.167284,0.520868,-0.2587602,0.3873103,1.480197,0.3394129,-0.2058432,1.32298,0.6276291,274.3242,257.7821,18.46022,True
4,1.755559,-0.05194829,0.130522,0.07329381,-1.448804,1.188237,-1.809162,0.1371291,1.307937,0.5864429,-0.6017956,0.03889133,11.19363,14.82751,-0.200691,0.2080921,-0.162583,-0.1679831,-3.718274,-0.4104283,0.2318529,1.418882,0.4712057,0.5171164,0.1766751,0.6123315,-1.161035,0.5232053,-0.2660708,0.383024,1.47972,0.3398111,-0.2104253,1.321672,0.6271704,274.3583,258.472,17.68708,True
4,1.76667,-0.03508381,0.1764587,0.09016985,-1.452501,1.18894,-1.809425,0.1331236,1.30622,0.5859179,-0.6026329,-0.07690666,11.22016,14.59181,-0.2200196,0.186793,-0.2051289,-0.1719337,-3.720195,-0.405461,0.227718,1.417427,0.4710517,0.4988377,0.1522063,0.59005,-1.155845,0.5256917,-0.2718762,0.3789666,1.479316,0.3402252,-0.2149206,1.320209,0.626784,274.4571,260.4797,15.62803,True
4,1.777781,-0.01176192,0.2031938,0.09112765,-1.455711,1.189097,-1.809909,0.129185,1.304489,0.5856178,-0.6028513,-0.01942215,11.32626,14.31326,-0.2022583,0.1536326,-0.1019569,-0.1696902,-3.710343,-0.4136249,0.2236306,1.416155,0.4710066,0.4314233,0.1597104,0.5565375,-1.151266,0.5293426,-0.2757615,0.3748636,1.478727,0.340564,-0.2191822,1.3186,0.6262936,274.4645,263.2459,12.91556,True
4,1.788892,0.001008153,0.2064431,0.09110785,-1.458275,1.189511,-1.810385,0.1252014,1.302863,0.5851834,-0.602537,0.02865973,11.43236,13.97043,-0.2035273,0.1079593,-0.171286,-0.173531,-3.72325,-0.3986142,0.2193929,1.414774,0.4708409,0.3831681,0.1927993,0.5186425,-1.147825,0.5341017,-0.2803201,0.37078,1.478159,0.3408856,-0.2231711,1.316819,0.6255718,274.4301,266.0363,10.17541,True
4,1.800003,0.02022583,0.1969427,0.09113621,-1.460397,1.190142,-1.811313,0.1213807,1.301313,0.5846705,-0.6025839,-0.00468995,11.56498,13.54189,-0.2175975,0.1250015,-0.1978054,-0.1776259,-3.721441,-0.3973964,0.2154729,1.41342,0.4707274,0.3338716,0.2524995,0.4839976,-1.145167,0.540305,-0.2849742,0.3668933,1.477479,0.3410265,-0.2270891,1.314954,0.6247187,274.4413,268.8875,7.2451,True
4,1.811115,0.03515032,0.1937947,0.08687558,-1.46255,1.19045,-1.812258,0.1175651,1.299738,0.5841691,-0.6023682,0.01963591,11.64456,13.04907,-0.2090687,0.1292892,-0.1935838,-0.1800925,-3.717439,-0.3992987,0.2114592,1.412013,0.4705439,0.3188407,0.3089838,0.4693044,-1.142243,0.5473073,-0.291067,0.3631282,1.476803,0.3413854,-0.2310395,1.313078,0.6239081,274.4944,270.8926,5.052098,True
4,1.822226,0.04369086,0.1895662,0.08582482,-1.464727,1.190951,-1.813074,0.113859,1.298085,0.5837202,-0.602587,-0.02032898,11.64456,12.51339,-0.1887422,0.1123256,-0.1915954,-0.1820052,-3.71844,-0.3970906,0.2076803,1.410563,0.470341,0.3260418,0.3239657,0.4383872,-1.13967,0.5527611,-0.297258,0.3592591,1.476164,0.3417428,-0.2350166,1.311242,0.6231998,274.5801,272.5419,3.270921,True
4,1.833337,0.04366025,0.1970112,0.08260939,-1.46733,1.191215,-1.8136,0.1102633,1.296544,0.5832989,-0.6024827,0.009666107,11.61804,12.06342,-0.1843067,0.1356824,-0.1436372,-0.1828447,-3.706288,-0.4071132,0.2040065,1.40929,0.4702492,0.360617,0.3273226,0.3645922,-1.139562,0.55705,-0.3043348,0.3556409,1.475515,0.3421311,-0.2389142,1.309451,0.6225561,274.6505,274.0158,1.747702,True
4,1.844448,0.04897334,0.2002293,0.08259477,-1.469819,1.191544,-1.814372,0.1066472,1.294947,0.5827916,-0.6021418,0.03091561,11.59151,11.74202,-0.2133765,0.05801141,-0.2533506,-0.1880139,-3.729819,-0.3805503,0.2004494,1.407858,0.4699705,0.3995931,0.3008229,0.3088201,-1.138842,0.5601032,-0.3113925,0.3520845,1.474859,0.3423994,-0.2427219,1.307694,0.621974,274.6786,275.5062,0.2356857,True
4,1.855559,0.06059398,0.2215121,0.06014112,-1.472941,1.190542,-1.815451,0.1032988,1.293258,0.5822194,-0.6017023,0.03982032,11.56498,11.50632,-0.2511398,-0.03170678,-0.2138999,-0.1880112,-3.749674,-0.3568239,0.1968971,1.406695,0.4696617,0.3960791,0.268958,0.2661489,-1.138104,0.5625755,-0.3167958,0.3485199,1.47425,0.3426962,-0.2464083,1.305959,0.6214417,274.6967,277.2514,358.4637,True
4,1.86667,0.08386572,0.2588511,0.047214,-1.477072,1.189541,-1.817137,0.100109,1.291686,0.5816612,-0.6017908,-0.008492704,11.56498,11.42061,-0.1988066,-0.02940774,-0.1896861,-0.1889843,-3.752542,-0.3536912,0.193275,1.405459,0.4693291,0.3516849,0.2286572,0.1747943,-1.139586,0.5633968,-0.3195839,0.3451169,1.473619,0.3427081,-0.2499951,1.304282,0.6209698,274.7427,279.3121,356.388,True
4,1.877781,0.08482824,0.2779248,0.01625628,-1.480354,1.187869,-1.817879,0.09699336,1.290092,0.5811484,-0.6021397,-0.0318652,11.64456,11.46347,-0.1339758,0.0368633,-0.168612,-0.1909657,-3.739069,-0.3679695,0.1899135,1.404193,0.4690759,0.3045582,0.2255245,0.1421368,-1.139886,0.5663002,-0.3226662,0.3417273,1.473004,0.3429623,-0.2534794,1.302662,0.6205415,274.7628,281.2828,354.4268,True
4,1.888893,0.06349603,0.2798791,-0.009303048,-1.483184,1.18616,-1.817665,0.09394467,1.288677,0.5807412,-0.6026329,-0.04494788,11.77719,11.63488,-0.1365674,0.06573862,-0.2292627,-0.1960071,-3.739204,-0.3662723,0.1867335,1.402983,0.468827,0.2534918,0.2425367,0.151114,-1.139018,0.5704574,-0.3254079,0.338473,1.472245,0.342943,-0.2567618,1.301062,0.6201928,274.7664,283.5175,352.1631,True
4,1.900004,0.03805365,0.2488483,-0.01875761,-1.487635,1.184611,-1.817789,0.08797529,1.285969,0.5802073,-0.6016459,0.09048122,11.96286,11.91343,-0.0903959,-0.005473152,-0.2168789,-0.1983043,-3.759324,-0.345584,0.1806706,1.400226,0.4683535,0.2452691,0.2115766,0.1851889,-1.135297,0.5765134,-0.3332592,0.3320731,1.470828,0.3431315,-0.2598353,1.299454,0.6199887,274.7652,286.2355,349.4173,True
4,1.911115,0.006061774,0.2517735,-0.05816473,-1.48985,1.181937,-1.816617,0.08517197,1.284793,0.5797534,-0.6009151,0.06594274,12.14854,12.23484,-0.07102309,-0.005464807,-0.1828973,-0.1993163,-3.760682,-0.3441435,0.1775226,1.399007,0.4681017,0.2556853,0.1786337,0.1541319,-1.135262,0.5776027,-0.3370228,0.3289457,1.470244,0.3433182,-0.2633597,1.29789,0.6201679,274.6171,289.2332,346.5551,True
4,1.922226,-0.01001051,0.2718863,-0.07632785,-1.493177,1.179734,-1.815969,0.08255365,1.28367,0.5796337,-0.6002983,0.05588373,12.30769,12.49196,-0.01932108,-0.02566818,-0.09693737,-0.1970148,-3.762007,-0.3443217,0.1745519,1.397762,0.467896,0.2696752,0.1690275,0.1710465,-1.133461,0.5804064,-0.3416636,0.3258896,1.469556,0.343513,-0.2680203,1.296329,0.6208297,274.4298,293.852,342.2063,True
4,1.933337,-0.02706104,0.2728732,-0.07845011,-1.495948,1.178066,-1.814942,0.07984433,1.282439,0.5794196,-0.5995542,0.06770626,12.38727,12.57767,-0.02820333,-0.01706588,-0.154397,-0.2005318,-3.7676,-0.3382454,0.1717321,1.396654,0.4676411,0.2868965,0.1562054,0.1921867,-1.131198,0.5828559,-0.346501,0.3228612,1.468773,0.3435326,-0.271973,1.294577,0.6212986,274.6868,294.9915,341.176,True
4,1.944448,-0.05685009,0.2566597,-0.1103327,-1.497512,1.175285,-1.812994,0.07746151,1.28126,0.5792913,-0.6000943,-0.04981817,12.38727,12.51339,-0.0557875,-0.009774104,-0.1286616,-0.2012071,-3.767887,-0.3363146,0.1688947,1.395792,0.4675078,0.3083929,0.144456,0.2132778,-1.128883,0.5852652,-0.3517793,0.3198978,1.468027,0.3435714,-0.2750612,1.292926,0.6216431,275.1681,294.7263,341.4048,True
4,1.955559,-0.06215274,0.2502313,-0.1145683,-1.499595,1.173284,-1.811966,0.07523137,1.28019,0.5791686,-0.5998755,0.02064556,12.36074,12.27769,-0.04639468,-0.04370487,-0.1873717,-0.2037334,-3.781095,-0.3230052,0.1664377,1.394811,0.4672053,0.3566779,0.1465079,0.2565687,-1.12545,0.5885264,-0.3586895,0.3172968,1.46731,0.3435693,-0.2774809,1.291648,0.6220578,275.5139,295.6081,340.4924,True
4,1.966671,-0.05251814,0.2374396,-0.1283725,-1.501314,1.171097,-1.811674,0.07303461,1.279112,0.5790701,-0.599158,0.06548539,12.25464,11.89201,-0.01880634,-0.02334379,-0.1928188,-0.2064232,-3.783423,-0.3215439,0.1636992,1.393923,0.4670079,0.3577385,0.1603601,0.2565856,-1.1237,0.5920244,-0.364125,0.3144838,1.466653,0.3436079,-0.2795832,1.290838,0.6226256,275.574,297.1449,339.0773,True
4,1.977782,-0.03542008,0.2225531,-0.1411172,-1.502784,1.168675,-1.811686,0.07093343,1.278121,0.5789995,-0.6001104,-0.08751938,12.20159,11.54917,0.04157536,0.02557645,-0.02900366,-0.2018868,-3.765396,-0.3417728,0.1613236,1.392791,0.4667935,0.3449683,0.1731344,0.2588467,-1.121828,0.5956538,-0.369079,0.3119534,1.465998,0.3434825,-0.2815077,1.290497,0.6233776,275.4556,298.4212,337.9757,True
4,1.988893,-0.04063054,0.1926162,-0.1676413,-1.503345,1.165808,-1.811002,0.06898853,1.277123,0.5789373,-0.6010851,-0.08819958,12.20159,11.2492,0.02933511,0.004429527,-0.1376393,-0.2065798,-3.777929,-0.3292903,0.1592942,1.391609,0.4665942,0.3483058,0.1656492,0.2758456,-1.119038,0.598719,-0.3743339,0.3093593,1.465301,0.3433468,-0.2832922,1.290537,0.6242599,275.2037,300.4251,336.1917,True
4,2.000004,-0.04063054,0.1926162,-0.1676413,-1.503345,1.165808,-1.811002,0.06898853,1.277123,0.5789373,-0.6015069,-0.03786843,12.22811,11.03493,0.02933511,0.004429527,-0.1376393,-0.2065798,-3.777929,-0.3292903,0.1592942,1.391609,0.4665942,0.3483058,0.1656492,0.2758456,-1.119038,0.598719,-0.3743339,0.3093593,1.465301,0.3433468,-0.2850003,1.290754,0.6252162,274.8436,303.0243,333.8328,True
4,2.011115,-0.04700062,0.1840223,-0.1825244,-1.506149,1.16042,-1.809233,0.06522259,1.275209,0.578707,-0.6013221,0.01709402,12.33422,10.88493,0.003342614,-0.1267484,-0.1196435,-0.2058922,-3.80901,-0.298143,0.1552398,1.38977,0.4661753,0.3741114,0.03357947,0.2945209,-1.111268,0.599144,-0.3840899,0.3049212,1.463469,0.342634,-0.2862722,1.290904,0.6260656,274.6175,305.1268,331.8958,True
4,2.022226,-0.02466539,0.1915504,-0.1900208,-1.507962,1.15754,-1.80957,0.06358907,1.27433,0.5785992,-0.5998595,0.133539,12.49337,10.90636,0.04064416,-0.1117115,-0.1059781,-0.2066714,-3.81469,-0.2942812,0.1533481,1.388939,0.4660637,0.3396698,-0.0164002,0.2478155,-1.109588,0.5977519,-0.3862154,0.3028491,1.463115,0.3426328,-0.2871277,1.290935,0.6267501,274.3716,306.341,330.8816,True
4,2.033337,-0.01490205,0.1532861,-0.1760476,-1.508024,1.155986,-1.809713,0.06204668,1.273515,0.5784914,-0.6007356,-0.08115373,12.65252,11.07778,0.1032249,-0.03583221,-0.09978865,-0.2080951,-3.804807,-0.3073512,0.1513545,1.388156,0.4658334,0.3071982,-0.02053939,0.1852241,-1.10957,0.5975248,-0.3883672,0.3006122,1.462584,0.3424585,-0.2892691,1.290917,0.6279495,273.9516,309.792,327.6705,True
4,2.044448,-0.01490205,0.1532861,-0.1760476,-1.508024,1.155986,-1.809713,0.06204668,1.273515,0.5784914,-0.6018637,-0.1023066,12.75862,11.39919,0.1032249,-0.03583221,-0.09978865,-0.2080951,-3.804807,-0.3073512,0.1513545,1.388156,0.4658334,0.3071982,-0.02053939,0.1852241,-1.10957,0.5975248,-0.3883672,0.3006122,1.462584,0.3424585,-0.291301,1.290575,0.629135,273.856,312.7747,324.8614,True
4,2.055559,0.008571349,0.1470143,-0.1717758,-1.51036,1.151782,-1.810429,0.0591633,1.271587,0.5781446,-0.6014025,0.04293008,12.81167,11.8063,0.05321734,-0.1126505,-0.1454713,-0.2109618,-3.830346,-0.2822543,0.1476372,1.386866,0.4653616,0.2198487,-0.007514104,0.05599169,-1.112502,0.5970966,-0.3904527,0.2971215,1.46168,0.3418946,-0.2926934,1.289848,0.6300728,274.0383,313.4055,324.3575,True
4,2.06667,0.008571349,0.1470143,-0.1717758,-1.51036,1.151782,-1.810429,0.0591633,1.271587,0.5781446,-0.6021072,-0.06492645,12.78515,12.19199,0.05321734,-0.1126505,-0.1454713,-0.2109618,-3.830346,-0.2822543,0.1476372,1.386866,0.4653616,0.2198487,-0.007514104,0.05599169,-1.112502,0.5970966,-0.3904527,0.2971215,1.46168,0.3418946,-0.2934419,1.288889,0.6306589,274.2202,312.6427,325.3338,True
4,2.077781,0.01806026,0.1661555,-0.1942134,-1.512152,1.148308,-1.810635,0.05808049,1.270612,0.577992,-0.6012496,0.0789195,12.65252,12.55624,-0.01316709,-0.08834739,-0.1876621,-0.2143759,-3.836949,-0.2733759,0.1460533,1.386019,0.4650035,0.1555697,-0.03407516,0.01066005,-1.113102,0.5951864,-0.3892237,0.2954152,1.46128,0.3417513,-0.2946949,1.287803,0.6312674,274.2193,313.8023,324.3821,True
4,2.088892,0.04570004,0.1812066,-0.1878921,-1.514154,1.145844,-1.811934,0.05701682,1.269603,0.5778854,-0.6014355,-0.01773912,12.49337,12.87765,0.07210585,0.03431555,-0.08989018,-0.2135237,-3.812548,-0.3008645,0.1444172,1.385351,0.4647183,0.106199,-0.005243123,-0.03255586,-1.115177,0.5953085,-0.3887379,0.2938355,1.460917,0.3414869,-0.2954758,1.286599,0.6315344,274.4626,312.8552,325.3812,True
4,2.100003,0.0606835,0.1653432,-0.1750612,-1.515188,1.144113,-1.812921,0.05598047,1.268628,0.5778718,-0.6014739,-0.003332986,12.33422,13.13477,0.1509734,0.1197215,-0.02305236,-0.2126374,-3.791309,-0.3263917,0.1430827,1.384547,0.4644797,0.101794,0.03313509,-0.04842512,-1.116748,0.5966688,-0.3905305,0.2923427,1.460538,0.3412342,-0.2964619,1.285455,0.631815,274.5807,312.4374,325.797,True
4,2.111114,0.06179173,0.1557745,-0.1707683,-1.516098,1.142088,-1.813529,0.05484793,1.267706,0.5778487,-0.6024156,-0.08614415,12.20159,13.34904,0.08802842,0.04397736,-0.09315863,-0.2153549,-3.805469,-0.3110378,0.1419486,1.384027,0.4643319,0.1508084,0.0129151,-0.04887592,-1.117152,0.5958894,-0.3935404,0.2908737,1.460041,0.3409848,-0.2975276,1.284387,0.632265,274.6559,312.8722,325.2866,True
4,2.122225,0.07038923,0.1420444,-0.1472893,-1.516984,1.14106,-1.814529,0.05385569,1.266873,0.5776787,-0.6020326,0.03565937,12.17507,13.54189,0.07030135,-0.1062211,-0.1349027,-0.2163019,-3.837609,-0.2798293,0.1406566,1.383282,0.4641812,0.179706,-0.04036814,-0.03429897,-1.116046,0.5935711,-0.3953812,0.28945,1.459524,0.3408129,-0.2985399,1.283323,0.6328998,274.6732,314.1597,324.0073,True
4,2.133336,0.06506179,0.1366055,-0.1738992,-1.517642,1.137951,-1.814826,0.05296096,1.26615,0.5776222,-0.6014893,0.04920775,12.22811,13.67045,0.10789,-0.14128,-0.1085544,-0.2157097,-3.849483,-0.2710078,0.1394345,1.382459,0.4643579,0.1807713,-0.09042814,-0.03761572,-1.115531,0.5904968,-0.3961599,0.2880065,1.459138,0.3406723,-0.2995011,1.282199,0.6336649,274.6914,315.2355,323.0676,True
4,2.144447,0.0622088,0.05560091,-0.1832077,-1.515728,1.133961,-1.816034,0.05133289,1.26474,0.5778039,-0.6016848,-0.01834063,12.33422,13.77759,0.1455037,-0.01746827,-0.1489976,-0.220889,-3.841699,-0.2830994,0.1370118,1.381289,0.464222,0.1498698,-0.007354334,-0.03400011,-1.117247,0.5926164,-0.3993676,0.2852666,1.458507,0.340385,-0.300443,1.281034,0.6344966,274.7796,315.9088,322.6138,True
4,2.155558,0.08048735,0.01845643,-0.163919,-1.51428,1.133115,-1.817493,0.05054274,1.264088,0.5779235,-0.6016139,0.006663627,12.49337,13.84187,0.1114905,0.019596,-0.1082498,-0.2211004,-3.83485,-0.289868,0.1358008,1.380854,0.4641819,0.1317992,0.02671297,-0.02632127,-1.117782,0.5941791,-0.4007549,0.2839801,1.458265,0.3402116,-0.3014601,1.279841,0.6353432,274.8089,316.4902,322.2622,True
4,2.166669,0.1328477,-0.01421858,-0.1265661,-1.513248,1.133154,-1.820689,0.04994956,1.263451,0.577908,-0.6013551,0.02351542,12.67905,13.86329,0.08581355,-0.005997058,-0.1475708,-0.2237535,-3.843402,-0.2816045,0.134863,1.380438,0.4641793,0.1117036,-0.002088889,-0.009172894,-1.116984,0.593261,-0.4008265,0.2828463,1.457923,0.3400102,-0.3027214,1.278574,0.6364659,274.7423,316.253,322.578,True
4,2.17778,0.1798164,-0.03529316,-0.1158743,-1.51197,1.132533,-1.824256,0.04932365,1.262928,0.577898,-0.6019042,-0.05060536,12.83819,13.90615,0.1019243,-0.01023278,-0.1274291,-0.224292,-3.84565,-0.2810794,0.1338664,1.379928,0.4640796,0.09769119,-0.07235636,-0.03263859,-1.116808,0.5894902,-0.3997509,0.2815861,1.457799,0.339819,-0.3036242,1.277173,0.6375722,274.8241,314.6197,324.3425,True
4,2.188891,0.1958811,-0.06088409,-0.1434932,-1.509966,1.130423,-1.826657,0.04870924,1.262382,0.5778983,-0.6035138,-0.1467888,12.9443,13.949,0.1370933,0.04416344,-0.08703858,-0.2246472,-3.835368,-0.2940902,0.1326841,1.37965,0.4640701,0.08691569,-0.1021528,-0.04966434,-1.117219,0.5868731,-0.3993485,0.2803696,1.457656,0.3396478,-0.3041719,1.275695,0.6384868,274.998,313.4348,325.7906,True
4,2.200002,0.2055375,-0.07681264,-0.1402501,-1.508248,1.129366,-1.829189,0.04801539,1.261843,0.5779829,-0.6038281,-0.02765327,13.02387,14.01328,0.1327823,0.1175599,-0.04212764,-0.2247921,-3.817912,-0.3124154,0.1314795,1.379668,0.4641733,0.08182123,-0.06811447,-0.02079458,-1.116886,0.5876387,-0.4005296,0.2791583,1.457604,0.3393443,-0.3044357,1.274117,0.6390525,275.1327,313.11,326.4047,True
4,2.211113,0.2365115,-0.0871733,-0.0912337,-1.507172,1.130404,-1.832897,0.04733703,1.26116,0.5779564,-0.6024731,0.1237532,13.0504,14.09899,0.08533914,0.06651262,-0.1825806,-0.2308646,-3.831442,-0.2986844,0.130414,1.379434,0.4639328,0.09389524,-0.04476261,0.0239064,-1.115278,0.588836,-0.4025131,0.2779233,1.4575,0.3392546,-0.3047235,1.272413,0.6393537,275.2042,312.2429,327.418,True
4,2.222224,0.2352922,-0.04880317,-0.08283913,-1.507752,1.129696,-1.835397,0.04676923,1.260455,0.5779362,-0.6021689,0.02654799,13.0504,14.1847,0.09794518,0.09109479,-0.1953912,-0.2343619,-3.828816,-0.3026041,0.12945,1.378956,0.4638784,0.08365169,-0.05658427,0.07296938,-1.112584,0.5888371,-0.4031163,0.2766933,1.457615,0.3392406,-0.3052266,1.270622,0.6396077,275.3095,310.1672,329.4586,True
4,2.233335,0.2052939,-0.01608716,-0.1383225,-1.507872,1.126128,-1.836499,0.04623166,1.259891,0.5781205,-0.6030132,-0.07745218,12.99735,14.29184,0.1122276,0.1495001,-0.07603803,-0.2318963,-3.807983,-0.3248313,0.1284042,1.378575,0.4638557,0.08587126,-0.06619298,0.08359194,-1.111022,0.5881699,-0.4037746,0.2754858,1.457542,0.3391769,-0.3059043,1.268793,0.6398714,275.4846,308.4871,331.104,True
4,2.244446,0.1882919,-0.03114191,-0.1595614,-1.506307,1.124058,-1.837863,0.04558566,1.259345,0.5782866,-0.6018302,0.108723,12.89124,14.37754,0.06193969,0.1121411,-0.1408204,-0.2355369,-3.813501,-0.3182445,0.1272744,1.378363,0.4639835,0.1140473,-0.08121087,0.1419265,-1.1074,0.5883542,-0.4059478,0.2742198,1.457584,0.3392496,-0.3066117,1.266877,0.6399847,275.673,308.0867,331.5554,True
4,2.255557,0.2013741,-0.09593398,-0.1188699,-1.503213,1.124785,-1.840527,0.04512158,1.258973,0.5785995,-0.6003724,0.132216,12.7321,14.46325,0.04693499,0.163174,-0.1203959,-0.2377074,-3.801759,-0.3294652,0.1263909,1.378338,0.4642179,0.1356702,-0.08980219,0.1800839,-1.103894,0.5884865,-0.4082277,0.2730111,1.457514,0.3392274,-0.3073938,1.264942,0.6400462,275.9525,307.5817,331.9883,True
4,2.266668,0.2153121,-0.1128008,-0.08366742,-1.501634,1.125523,-1.843357,0.04457769,1.258476,0.5788529,-0.6004203,-0.005481401,12.51989,14.52753,0.09067328,0.1675804,-0.1057131,-0.2387817,-3.794411,-0.3391357,0.1254848,1.378303,0.4643099,0.1529601,-0.08239056,0.2097826,-1.100767,0.5893309,-0.4108498,0.2718385,1.457357,0.3391161,-0.3082494,1.263167,0.6403806,276.2729,305.7302,333.6221,True
4,2.277779,0.2431474,-0.1359272,-0.02608228,-1.499895,1.127723,-1.847092,0.04414126,1.257929,0.5790358,-0.6015964,-0.1073946,12.28117,14.57039,0.1493435,0.1497092,-0.1050141,-0.2400515,-3.791544,-0.3456072,0.1250572,1.378106,0.4645648,0.1645327,-0.04826363,0.193777,-1.09951,0.5907149,-0.4136499,0.2708058,1.45734,0.3391294,-0.3089658,1.261629,0.6410173,276.5083,303.585,335.6919,True
4,2.28889,0.2570013,-0.1336709,-0.007983677,-1.498918,1.128501,-1.850438,0.04376844,1.257486,0.5790834,-0.6018472,-0.0220808,12.04244,14.61324,0.1525228,-0.02366539,-0.2342832,-0.2449725,-3.824632,-0.3150932,0.1244624,1.377708,0.4646354,0.1803997,-0.04502814,0.1797962,-1.098161,0.590976,-0.4162806,0.2698715,1.457312,0.3390417,-0.3093781,1.260263,0.6417104,276.6012,302.2359,337.2061,True
4,2.300001,0.2633337,-0.1252372,-0.04210632,-1.497424,1.127222,-1.853508,0.043459,1.257,0.5790594,-0.6025434,-0.06362806,11.83024,14.61324,0.115765,-0.07187302,-0.1755795,-0.244173,-3.834481,-0.3055684,0.123802,1.377386,0.4647779,0.193907,-0.08754532,0.1359202,-1.097178,0.5884599,-0.4177549,0.2690358,1.457381,0.3390338,-0.3095974,1.258981,0.6422721,276.6104,302.316,337.4137,True
4,2.311112,0.2664534,-0.1103753,-0.06025929,-1.496377,1.126185,-1.856355,0.0431751,1.256534,0.5791292,-0.6021737,0.03423468,11.67109,14.63467,0.08563801,-0.0006268919,-0.1763418,-0.246622,-3.825358,-0.3141382,0.1231322,1.37734,0.4651823,0.2093219,-0.123615,0.06540884,-1.097634,0.5850155,-0.4189299,0.2682671,1.457524,0.3390725,-0.3097021,1.257635,0.6424899,276.5832,302.7653,337.2299,True
4,2.322223,0.2654245,-0.1167248,-0.04638823,-1.494918,1.126603,-1.859288,0.04284999,1.256102,0.5792465,-0.6018488,0.02926873,11.56498,14.65609,0.09706824,0.04100677,-0.196571,-0.2504053,-3.822316,-0.3186259,0.1224641,1.377364,0.4653914,0.1824703,-0.1480691,0.03680696,-1.097233,0.582355,-0.4189621,0.2675266,1.457598,0.3390551,-0.3098764,1.256174,0.6424091,276.6249,302.5119,337.5498,True
4,2.333334,0.2579187,-0.1050297,-0.04429158,-1.49401,1.126524,-1.861798,0.04262456,1.255698,0.5793962,-0.6014744,0.03392895,11.51194,14.67752,0.09695723,0.1506064,-0.1356242,-0.2512335,-3.801594,-0.3397245,0.1218711,1.377414,0.4655044,0.1204901,-0.1320751,0.01498127,-1.097185,0.5811228,-0.41761,0.2668502,1.457743,0.3389404,-0.3101711,1.254592,0.6422605,276.7333,301.1833,338.7132,True
4,2.344445,0.2727793,-0.0900151,-0.0315675,-1.493499,1.126753,-1.865357,0.0423716,1.255136,0.5795033,-0.6013455,0.01146685,11.45889,14.67752,0.1098054,0.1282989,-0.140004,-0.2530557,-3.801041,-0.3418639,0.1212514,1.377425,0.4655735,0.09910388,-0.09371696,0.006704032,-1.097541,0.5812842,-0.4181839,0.2661399,1.457884,0.3388276,-0.3104914,1.252975,0.6422468,276.9123,299.8529,339.8889,True
4,2.355556,0.2970893,-0.04192887,-0.01896195,-1.494655,1.126701,-1.869509,0.04245931,1.254531,0.5794199,-0.6009157,0.03917395,11.43236,14.67752,0.1143927,0.09096778,-0.109212,-0.2531862,-3.804332,-0.3401296,0.1208311,1.37722,0.4656029,0.07678684,-0.06924125,0.0144018,-1.097097,0.5816523,-0.4185661,0.2654006,1.458139,0.3387411,-0.3103946,1.252316,0.6423768,276.8654,301.0019,338.6969,True
4,2.366668,0.3119467,-0.02911988,-0.02966795,-1.494466,1.126037,-1.873419,0.04216468,1.254092,0.5794559,-0.6018606,-0.08674009,11.37931,14.65609,0.09389513,0.08778246,-0.1570425,-0.2565961,-3.804755,-0.3400289,0.1203919,1.376933,0.4656298,0.08241855,-0.07890148,0.05161607,-1.094962,0.5810664,-0.4194236,0.2646654,1.458333,0.3387086,-0.3102046,1.251933,0.6425465,276.7191,302.7978,336.8779,True
4,2.377779,0.3130783,-0.04835501,-0.04877942,-1.492977,1.125273,-1.876892,0.04213026,1.253658,0.579483,-0.6024907,-0.05688098,11.29973,14.63467,0.07663836,0.1058709,-0.1814116,-0.2599405,-3.802416,-0.3425499,0.1199278,1.376816,0.4658117,0.102999,-0.09708484,0.09189264,-1.092122,0.5804357,-0.4209632,0.2640074,1.458505,0.3386893,-0.3099462,1.251557,0.6426575,276.4424,304.3365,335.332,True
4,2.38889,0.3109829,-0.05796294,-0.05406728,-1.491825,1.124873,-1.880231,0.04211158,1.25325,0.5798213,-0.6021993,0.02695045,11.22016,14.61324,0.07746288,0.1261726,-0.2090821,-0.2636593,-3.798424,-0.3473183,0.119621,1.376988,0.4661548,0.1235777,-0.1035441,0.1321919,-1.089166,0.5803579,-0.4230045,0.2634179,1.458661,0.3387415,-0.3096119,1.251179,0.6427217,276.0811,305.9734,333.721,True
4,2.400001,0.2939555,-0.05795132,-0.02955339,-1.491348,1.125584,-1.883021,0.04205772,1.25283,0.579911,-0.6015916,0.05513259,11.16711,14.65609,0.1108501,0.0495893,-0.1998412,-0.265123,-3.808555,-0.3398313,0.119203,1.377151,0.4664786,0.1075157,-0.1141775,0.1205744,-1.087769,0.5791738,-0.4232826,0.2627997,1.458838,0.3387299,-0.3092925,1.250889,0.6427419,275.8055,307.7891,331.8691,True
4,2.411112,0.2639621,-0.01646756,-0.01369397,-1.492735,1.125551,-1.884902,0.04201409,1.252352,0.5800624,-0.601281,0.02785667,11.14058,14.72038,0.1185291,0.06017604,-0.1540596,-0.2655912,-3.805501,-0.3444463,0.1188295,1.377218,0.4666629,0.08926388,-0.1035062,0.104773,-1.086769,0.5785565,-0.4232815,0.262176,1.459049,0.338716,-0.3090127,1.250628,0.6427871,275.4844,309.3139,330.3021,True
4,2.422223,0.2650106,-0.008938983,0.006521657,-1.493064,1.126159,-1.888005,0.04196587,1.251899,0.5802059,-0.600595,0.06253629,11.16711,14.84894,0.1195298,0.03893063,-0.1807397,-0.2682043,-3.809116,-0.3422439,0.1185332,1.37713,0.4667532,0.07735913,-0.07365242,0.08362161,-1.086585,0.5786854,-0.4238961,0.2617177,1.459344,0.3388565,-0.3087803,1.250436,0.6429549,275.3015,311.605,327.9695,True
4,2.433334,0.2511632,-0.01115946,-0.004110038,-1.492762,1.126051,-1.890428,0.04196227,1.25159,0.5802002,-0.5997252,0.07903162,11.22016,15.02035,0.08208641,0.02287303,-0.2199767,-0.272003,-3.815785,-0.3354273,0.1181913,1.376936,0.4668615,0.06875508,-0.06617951,0.07411956,-1.085925,0.5784219,-0.4242573,0.2612952,1.459499,0.3389523,-0.3086829,1.250375,0.6431423,275.3397,313.631,325.9495,True
4,2.444445,0.2394517,-0.01661284,-0.02645604,-1.49204,1.125153,-1.892709,0.04201975,1.251345,0.5801744,-0.6008997,-0.1079358,11.29973,15.14892,0.0546022,0.08118811,-0.1398154,-0.2718411,-3.804175,-0.3463667,0.1179088,1.376907,0.4671297,0.08367886,-0.05445698,0.07507698,-1.085092,0.5785405,-0.4258432,0.260866,1.459607,0.3389869,-0.3086788,1.250345,0.6432713,275.4106,314.542,325.0407,True
4,2.455556,0.2309354,-0.01661968,-0.01792762,-1.491848,1.125214,-1.895024,0.04195681,1.251206,0.580312,-0.6004805,0.03935375,11.35279,15.27748,0.04430801,0.09910232,-0.06301913,-0.2707838,-3.795946,-0.3544348,0.1177153,1.377197,0.4674242,0.1292872,-0.05439145,0.05127014,-1.084925,0.5778597,-0.4284848,0.2604823,1.459685,0.3391025,-0.3085371,1.250309,0.6435139,275.3336,316.5795,323.0268,True
4,2.466667,0.237294,-0.002630934,0.01504867,-1.49271,1.126387,-1.89806,0.04193446,1.250958,0.5804057,-0.6003937,0.007568713,11.40584,15.36319,0.06158019,0.09802043,-0.02263329,-0.2702357,-3.791824,-0.3596895,0.1176866,1.377453,0.4677444,0.1377292,-0.06822796,0.04051942,-1.084239,0.5764526,-0.4296174,0.2602277,1.459885,0.339277,-0.3086657,1.250306,0.6435733,275.4435,315.9567,323.6439,True
4,2.477778,0.2425511,0.02422383,0.07461174,-1.494765,1.128766,-1.901188,0.04193297,1.250675,0.5804558,-0.6004203,-0.002440733,11.37931,15.38461,0.05710336,0.0246795,-0.1143703,-0.2734582,-3.804771,-0.3477694,0.1177342,1.377523,0.4678979,0.1269327,-0.08097912,0.02247165,-1.084018,0.5748964,-0.4299756,0.2600285,1.460051,0.339396,-0.3086943,1.250277,0.6436252,275.4983,316.1749,323.398,True
4,2.488889,0.2425511,0.02422383,0.07461174,-1.494765,1.128766,-1.901188,0.04193297,1.250675,0.5804558,-0.601108,-0.06278707,11.29973,15.32033,0.05710336,0.0246795,-0.1143703,-0.2734582,-3.804771,-0.3477694,0.1177342,1.377523,0.4678979,0.1269327,-0.08097912,0.02247165,-1.084018,0.5748964,-0.4299756,0.2600285,1.460051,0.339396,-0.3086793,1.250257,0.6437244,275.5548,316.9827,322.5811,True
4,2.5,0.2169647,0.02730177,0.07035674,-1.495319,1.12919,-1.902722,0.04196548,1.250498,0.5804894,-0.5983399,0.2536856,11.22016,15.23462,0.05270787,-0.03911639,-0.1847817,-0.2772042,-3.820503,-0.3329806,0.1175022,1.377413,0.4681838,0.06916748,-0.08520895,-0.006897776,-1.08454,0.5732123,-0.4280533,0.2598629,1.460262,0.3394763,-0.3086378,1.250251,0.6438208,275.5863,317.8383,321.747,True
4,2.511111,0.1862511,-0.02085634,0.0439134,-1.493552,1.129611,-1.906005,0.04172549,1.250262,0.5806973,-0.6011138,-0.2557414,11.11406,15.14892,0.05162744,0.07150836,-0.1067876,-0.2781304,-3.800056,-0.3538569,0.1171994,1.377801,0.4687054,0.02961033,-0.0223459,-0.02135518,-1.086012,0.5739514,-0.4278443,0.2595853,1.460689,0.3396773,-0.308513,1.25027,0.6441131,275.6503,319.9394,319.7799,True
4,2.522222,0.1905278,-0.01862257,0.07054062,-1.494027,1.131402,-1.908567,0.04168025,1.250096,0.5806546,-0.6016613,-0.04756704,11.03448,15.08464,0.03812933,0.03409402,-0.07163325,-0.2777107,-3.804007,-0.3500089,0.1171949,1.3782,0.4690089,0.04356205,-0.04048195,-0.01085291,-1.085212,0.5727576,-0.4284384,0.2594087,1.460811,0.3397155,-0.3085327,1.250278,0.643916,275.6059,319.3671,320.2257,True
4,2.533333,0.2053193,0.01670837,0.1045013,-1.496123,1.133138,-1.911501,0.04183128,1.250047,0.5804911,-0.6002499,0.1291624,11.03448,15.08464,0.02244892,-0.06926835,-0.09412467,-0.2775898,-3.8196,-0.3347402,0.1174548,1.3786,0.4690149,0.06910782,-0.07668253,-0.01539846,-1.084598,0.5704674,-0.4290084,0.2593569,1.461012,0.3398449,-0.3086762,1.250218,0.6436248,275.4724,316.2413,323.3492,True
4,2.544444,0.2042408,0.01770239,0.08532476,-1.496387,1.133314,-1.913812,0.04191282,1.250004,0.5804293,-0.6008714,-0.05796298,11.03448,15.08464,0.02986772,-0.08304916,-0.1101759,-0.2789075,-3.825907,-0.3292415,0.1174478,1.378724,0.4691308,0.06476658,-0.08412343,-0.02496087,-1.084654,0.5690245,-0.4287809,0.2592089,1.461247,0.3398952,-0.3088414,1.250117,0.6434847,275.437,313.6041,326.0386,True
4,2.555555,0.2042408,0.01770239,0.08532476,-1.496387,1.133314,-1.913812,0.04191282,1.250004,0.5804293,-0.6013578,-0.04386118,11.06101,15.08464,0.02986772,-0.08304916,-0.1101759,-0.2789075,-3.825907,-0.3292415,0.1174478,1.378724,0.4691308,0.06476658,-0.08412343,-0.02496087,-1.084654,0.5690245,-0.4287809,0.2592089,1.461247,0.3398952,-0.308836,1.250139,0.6432642,275.3298,312.3405,327.2771,True
4,2.566666,0.194667,0.006860651,0.04169172,-1.495741,1.132503,-1.915596,0.04202506,1.250038,0.5803528,-0.5986595,0.2470641,11.08753,15.10606,0.02878112,-0.03092643,-0.07598028,-0.2791877,-3.820424,-0.3348518,0.1173586,1.378901,0.4692538,0.01745769,-0.03929941,-0.07562293,-1.087526,0.5687769,-0.4272717,0.2592561,1.461516,0.3399203,-0.3088228,1.250155,0.6430162,275.1716,310.4715,329.1689,True
4,2.577777,0.1819193,-0.00388597,0.02895641,-1.495381,1.132618,-1.917228,0.04210225,1.250041,0.5803812,-0.6007809,-0.1960529,11.14058,15.08464,0.00726188,0.01160921,-0.08323776,-0.2808527,-3.815769,-0.3386966,0.1173593,1.378945,0.469326,0.003613997,-0.01161228,-0.07331357,-1.08836,0.5693148,-0.4271039,0.2593132,1.461699,0.3400259,-0.3088584,1.250153,0.6429141,275.1283,309.2913,330.3612,True
4,2.588888,0.1575228,-0.02630175,0.04609356,-1.494685,1.134009,-1.918249,0.04213819,1.250094,0.5804541,-0.6007005,0.009359478,11.11406,15.04178,-0.01722693,0.04660855,-0.05533241,-0.281176,-3.80959,-0.3435731,0.1173759,1.379166,0.4695244,0.001728225,-0.009537281,-0.04453874,-1.087965,0.5695041,-0.427309,0.2593498,1.461915,0.3401773,-0.3088193,1.250142,0.6429521,275.1206,309.8717,329.7809,True
4,2.599999,0.1447206,-0.02095535,0.06846025,-1.495199,1.135632,-1.919391,0.0422357,1.250016,0.5804684,-0.6004826,0.01967966,11.08753,14.93465,-0.009659331,0.02107019,-0.05435785,-0.2814194,-3.812663,-0.3407959,0.1174671,1.379533,0.4697051,0.009267775,-0.02340483,-0.0350325,-1.087575,0.5686721,-0.4272776,0.2593725,1.462116,0.340301,-0.3087562,1.250139,0.643112,275.175,311.6646,327.9766,True
4,2.61111,0.1372095,-0.004952833,0.08545961,-1.496184,1.136912,-1.920799,0.04229704,1.250082,0.5805738,-0.5998328,0.05930623,11.00796,14.80608,-0.006516887,-0.02570317,-0.09708574,-0.2831313,-3.821982,-0.3318895,0.1176237,1.379765,0.4699397,0.01037218,-0.03832135,-0.03188253,-1.087525,0.5675513,-0.4269766,0.2594725,1.462464,0.3404746,-0.3086986,1.250133,0.6432635,275.2308,313.2819,326.3572,True
4,2.622221,0.1137926,-0.01145857,0.08123775,-1.496079,1.137784,-1.921243,0.04235449,1.250257,0.5805919,-0.5999836,-0.01422935,10.90185,14.67752,0.008363342,-0.02988465,-0.106771,-0.2845359,-3.825269,-0.3293467,0.1176583,1.379932,0.4701154,0.01129966,-0.03083385,-0.04784359,-1.088322,0.5670181,-0.4268405,0.2596549,1.462882,0.3405879,-0.3086926,1.25012,0.6432438,275.2077,313.1008,326.5576,True
4,2.633332,0.05320429,-0.05342022,0.03134865,-1.493608,1.13769,-1.920571,0.04232147,1.250798,0.5808334,-0.6004177,-0.03940001,10.82228,14.54896,-0.02248424,-0.0002363622,-0.07777943,-0.2852336,-3.822824,-0.3305651,0.1176436,1.380342,0.470598,0.03204208,-0.01816982,0.0138028,-1.086604,0.5679085,-0.4284925,0.2598006,1.463469,0.3408699,-0.3087348,1.250092,0.6430489,275.1013,311.0839,328.6073,True
4,2.644443,0.04047609,-0.06303895,0.03884584,-1.492914,1.13876,-1.920908,0.04236275,1.251125,0.5809917,-0.5993156,0.1011581,10.71618,14.44182,-0.03197762,0.02203527,-0.04465484,-0.2849801,-3.818469,-0.334068,0.117722,1.380782,0.4707792,0.04287592,-0.01714671,0.03608878,-1.085519,0.5682293,-0.4294384,0.2599775,1.463752,0.3409979,-0.3087928,1.250067,0.6428316,275.0028,308.7263,330.9855,True
4,2.655554,0.05212337,-0.04051225,0.07072139,-1.493878,1.140435,-1.921965,0.04251257,1.251492,0.5810158,-0.5990014,0.02796185,10.6366,14.39897,-0.02443797,-0.009875908,-0.05328282,-0.2853156,-3.823436,-0.3293254,0.1178938,1.381271,0.4708798,0.04507953,-0.02462028,0.04457809,-1.084553,0.5680452,-0.4299458,0.2601434,1.463991,0.3411434,-0.30884,1.250055,0.6427209,274.9694,307.3784,332.3357,True
4,2.666665,0.05530003,-0.03731126,0.0675068,-1.493836,1.141015,-1.922741,0.04285946,1.251739,0.5809367,-0.5997748,-0.07073476,10.5305,14.4204,-0.03499458,-0.04824667,-0.06395061,-0.2859606,-3.831664,-0.3206438,0.1181933,1.381517,0.4707897,0.02787399,-0.01287304,0.02556432,-1.085112,0.5680332,-0.4296361,0.2604162,1.464191,0.3412473,-0.3088154,1.250102,0.6427022,274.9666,307.7129,331.9627,True
4,2.677776,0.04037204,-0.04070453,0.02811348,-1.492851,1.14025,-1.922592,0.04311803,1.252144,0.5808632,-0.6006855,-0.08256087,10.45093,14.50611,-0.02505228,-0.02492374,0.0159417,-0.2831824,-3.825799,-0.3263672,0.1184213,1.381744,0.470747,0.009385143,0.01917018,-0.01896382,-1.08721,0.5685317,-0.4293852,0.2607024,1.464452,0.3413308,-0.3087786,1.25011,0.642696,274.9352,307.8895,331.7985,True
4,2.688887,0.03401011,-0.05036325,0.01643301,-1.491854,1.140395,-1.922735,0.04336062,1.252573,0.5808489,-0.6006531,0.003687504,10.37135,14.61324,-0.02201438,-0.01740897,-0.00643489,-0.2840464,-3.826293,-0.325703,0.118593,1.381961,0.4708138,0.0006942749,0.03518523,-0.03802837,-1.088441,0.5690224,-0.4292765,0.2608644,1.464708,0.3414514,-0.3087481,1.2501,0.6425639,274.832,306.8005,332.9212,True
4,2.699998,0.01700997,-0.06108837,0.01541685,-1.49093,1.14099,-1.922445,0.04361477,1.253045,0.5809147,-0.5998855,0.07009398,10.26525,14.72038,-0.03491724,-0.03125158,-0.03728878,-0.2853971,-3.831457,-0.3198603,0.118846,1.382321,0.4710209,-0.006741876,0.03091547,-0.03584849,-1.088785,0.5689926,-0.4289937,0.26115,1.464972,0.341579,-0.308738,1.250087,0.6423829,274.7211,305.1013,334.6399,True
4,2.711109,-0.01604321,-0.05269437,0.01753855,-1.490744,1.141278,-1.921255,0.043798,1.253453,0.581038,-0.6001263,-0.02253077,10.13263,14.82751,-0.04747033,0.01010143,0.03318176,-0.2830306,-3.822675,-0.3273342,0.1193487,1.382851,0.4711649,-0.0003515594,0.02026233,-0.03591795,-1.088958,0.5686175,-0.4289335,0.2615078,1.465224,0.3415768,-0.3087152,1.250083,0.6423265,274.6733,304.7167,335.0231,True
4,2.72222,-0.02247258,-0.03883811,0.02921142,-1.490942,1.141895,-1.921085,0.04398522,1.253885,0.5811348,-0.5998211,0.02826146,9.973473,14.93465,-0.03035317,-0.03027696,0.01808785,-0.2827989,-3.828761,-0.3216744,0.1197331,1.383303,0.4711587,0.01456498,0.007486589,-0.03713284,-1.089245,0.5680379,-0.4294574,0.2618083,1.465374,0.3415241,-0.3086487,1.25009,0.6423695,274.6489,305.6404,334.098,True
4,2.733331,-0.03539112,-0.003683396,0.04508216,-1.492345,1.142484,-1.920291,0.04434609,1.254325,0.5811129,-0.5990669,0.06877866,9.840847,15.04178,-0.0002444461,-0.06216566,0.04448791,-0.2810413,-3.833536,-0.3180874,0.120303,1.383803,0.4712157,0.03048744,-0.02657875,-0.04585614,-1.08932,0.5661272,-0.4295208,0.2622275,1.465544,0.3414321,-0.3085505,1.250154,0.6423717,274.6064,306.7716,332.9352,True
4,2.744442,-0.03975455,0.02188603,0.05138874,-1.493584,1.142799,-1.919764,0.04460701,1.254715,0.5810845,-0.6001593,-0.100294,9.70822,15.10606,0.03930353,-0.07374332,0.05809241,-0.2795882,-3.83558,-0.3178975,0.1207239,1.384185,0.4711158,0.02611494,-0.03188199,-0.05967046,-1.090011,0.5651171,-0.4291359,0.2625612,1.465827,0.341346,-0.3085144,1.250178,0.6423477,274.571,306.8654,332.8396,True
4,2.755553,-0.0515695,0.04310368,0.03960755,-1.494791,1.142402,-1.918729,0.04509357,1.255191,0.5809882,-0.5998232,0.03176223,9.602121,15.17034,0.04342769,-0.05346648,0.0485213,-0.2794034,-3.835101,-0.318999,0.121195,1.384646,0.4710984,0.003645867,-0.02654098,-0.07119326,-1.091074,0.5644431,-0.4280659,0.2630388,1.466205,0.3411305,-0.3084698,1.250192,0.6422663,274.498,306.4557,333.2549,True
