loc,t,aDotS,bDotS,gDotS,aS,bS,gS,xS,yS,zS,qE,qDotE,emgA,emgB,aDotSH,bDotSH,gDotSH,aSH,bSH,gSH,xSH,ySH,zSH,aDotUB,bDotUB,gDotUB,aUB,bUB,gUB,xUB,yUB,zUB,xHand,yHand,zHand,aHand,bHand,gHand,enable
5,0,-0.008757466,0.002807426,-0.0160842,4.654999,1.450517,-2.216564,0.3600205,1.240572,0.461318,-0.6009354,-0.005668362,10.92838,11.44204,0.03879266,-0.03189244,-0.003506894,-0.4565489,-4.039799,-0.2961371,0.4391116,1.415583,0.4037278,0.02663986,-0.03446624,0.01375795,-1.196166,0.1803595,-0.09465487,0.5478166,1.474681,0.2218792,0.02523985,1.12196,0.4018232,299.8027,283.825,338.1813,True
5,0.01111111,-0.006630984,0.00279862,-0.02141222,4.655213,1.450151,-2.216583,0.3599627,1.240607,0.4614203,-0.6008081,0.01167588,11.00796,11.72059,0.0324334,-0.0340573,0.0007855562,-0.4562804,-4.040678,-0.2955059,0.4390294,1.415611,0.403743,0.02659388,-0.03126039,0.00843766,-1.196233,0.1801035,-0.0948602,0.5476959,1.47469,0.2218506,0.02560725,1.122127,0.4033392,301.0574,292.4236,330.1121,True
5,0.02222222,-0.006623666,-0.003543912,-0.02355424,4.655213,1.449124,-2.216335,0.360046,1.242276,0.4651983,-0.6007116,0.008708502,11.03448,11.95629,0.02807464,-0.01704259,-0.003420227,-0.456493,-4.040614,-0.2956631,0.4389331,1.415473,0.4037435,0.02339947,-0.0302018,0.008474122,-1.195968,0.1797293,-0.09492012,0.5474956,1.474657,0.221839,0.02573393,1.123001,0.40382,300.6714,293.6137,329.2677,True
5,0.03333334,-0.004464859,-0.006735181,-0.0235369,4.655477,1.449149,-2.216565,0.3598269,1.242039,0.4649007,-0.6009455,-0.02139179,11.03448,12.10628,0.01739799,-0.002203979,0.003059291,-0.4563673,-4.040034,-0.2960714,0.4388278,1.415567,0.4037757,0.02235071,-0.02807581,0.01061748,-1.195756,0.1794994,-0.09504103,0.54738,1.474653,0.221807,0.02551148,1.124479,0.4035112,299.9991,293.3643,329.3258,True
5,0.04444445,-0.0001983808,-0.007778786,-0.02247127,4.655704,1.449054,-2.216698,0.3597863,1.242101,0.4650741,-0.6006914,0.02339139,11.00796,12.23484,0.0174476,-0.002223015,0.0126508,-0.4558362,-4.039814,-0.2964133,0.4387531,1.415515,0.4037411,0.01389203,-0.02702779,0.01921684,-1.195142,0.1793182,-0.0947313,0.5472638,1.474562,0.2218218,0.02511128,1.126349,0.4028314,299.5878,292.8903,328.8435,True
5,0.05555556,0.006167764,-0.005560599,-0.0161235,4.655452,1.448311,-2.21671,0.3598409,1.243238,0.4676807,-0.6012107,-0.04765495,11.00796,12.34197,0.015298,0.006270301,0.01481911,-0.4555401,-4.039364,-0.2969939,0.4387681,1.41562,0.4038217,0.01273467,-0.03127056,0.007508362,-1.195338,0.1787369,-0.09463916,0.5470977,1.474561,0.221802,0.02465803,1.12853,0.4026646,299.3334,292.3922,328.0934,True
5,0.06666667,0.01362315,-0.005535949,-0.0182598,4.655665,1.44814,-2.217111,0.359815,1.243322,0.4679151,-0.6011617,0.004897784,11.00796,12.40626,0.01756046,-0.009719409,0.02542413,-0.454902,-4.039421,-0.2971145,0.4386961,1.415669,0.4038441,0.007347764,-0.0259373,0.001167156,-1.195632,0.1785297,-0.09440374,0.5469887,1.474408,0.2218931,0.02408085,1.130536,0.4029337,298.6486,292.8041,327.5141,True
5,0.07777778,0.01358757,-0.0001781564,-0.02043237,4.655451,1.44714,-2.217123,0.3597788,1.24426,0.4702313,-0.6009753,0.01692848,10.98143,12.49196,0.02178658,-0.01077455,0.02007684,-0.4546027,-4.04098,-0.2961499,0.4386377,1.415613,0.403877,0.008390465,-0.01422351,0.0001096749,-1.19571,0.1786579,-0.09448949,0.5469866,1.474415,0.2218943,0.02368958,1.132123,0.4035172,298.1304,293.1797,327.0776,True
5,0.08888889,0.01356054,0.006213436,-0.0204537,4.655384,1.446791,-2.217294,0.3597507,1.244339,0.470489,-0.601362,-0.03550537,10.95491,12.57767,0.02490359,-9.638444E-05,0.01368816,-0.4547901,-4.040216,-0.2972402,0.4385554,1.415668,0.4039044,0.02220352,0.00176974,-0.003171069,-1.195909,0.1792991,-0.09544237,0.546926,1.474409,0.2218242,0.02355269,1.133281,0.4046564,297.9704,293.2354,326.8045,True
5,0.1,0.01353178,0.01261789,-0.01727751,4.655128,1.446501,-2.217382,0.3596689,1.244411,0.4707785,-0.6009519,0.03780003,10.87533,12.72766,0.01960428,-0.004396409,0.01691272,-0.4543001,-4.040623,-0.2967835,0.4384964,1.415767,0.4039021,0.01906153,-0.02488421,0.002142043,-1.195445,0.1778908,-0.09498297,0.5468682,1.474469,0.2217858,0.02355456,1.133906,0.40621,297.9081,293.3293,326.782,True
5,0.1111111,0.01565742,0.01688896,-0.01408872,4.654937,1.446464,-2.217771,0.359476,1.243749,0.4696443,-0.6010861,-0.0126026,10.82228,12.94193,-0.003708733,-0.01729988,0.02980124,-0.4533377,-4.041545,-0.2950876,0.4384492,1.415808,0.4039154,-0.002139221,-0.04835575,0.01293481,-1.194729,0.1764889,-0.09381171,0.546806,1.474439,0.2217882,0.0236192,1.13412,0.4082428,298.0505,293.3458,326.915,True
5,0.1222222,0.01463838,0.006235113,-0.01298693,4.655224,1.446551,-2.217903,0.3594115,1.243828,0.4698689,-0.6010227,0.005906481,10.79576,13.13477,-0.01338741,0.001839495,0.0256265,-0.4533606,-4.040206,-0.2959707,0.438634,1.415692,0.4037783,-0.007452822,-0.03133566,0.01620654,-1.194442,0.176499,-0.09348361,0.5467533,1.474392,0.2217779,0.02368892,1.133948,0.4103653,298.1117,293.7007,327.2285,True
5,0.1333333,0.00827006,-0.003342787,-0.01511046,4.655403,1.445824,-2.217595,0.3594959,1.245018,0.472615,-0.6013135,-0.02666515,10.79576,13.26334,0.001403971,0.01896028,0.01492432,-0.4537451,-4.03884,-0.2978146,0.438493,1.41572,0.4037793,0.006363638,-0.007888619,0.01294505,-1.194418,0.1771914,-0.09441732,0.5467925,1.474394,0.2217791,0.02370479,1.133433,0.4121316,298.1216,294.2511,327.6007,True
5,0.1444445,0.001862847,0.00198867,-0.005535816,4.655101,1.445906,-2.217389,0.3595026,1.245074,0.4728448,-0.6010765,0.02189435,10.76923,13.32762,0.007732062,0.02007209,0.004238121,-0.4541212,-4.038338,-0.298551,0.4385042,1.415737,0.403805,0.02846193,0.004967241,-0.01917435,-1.19574,0.1776455,-0.09565489,0.5468419,1.47438,0.2217107,0.02367534,1.132581,0.4130532,298.1481,294.7047,327.9441,True
5,0.1555556,0.0007620711,0.009492514,-0.001325642,4.654519,1.445104,-2.217314,0.3594506,1.245977,0.4750581,-0.6005583,0.04717265,10.79576,13.32762,0.01092586,0.0009337962,-0.01073726,-0.4545254,-4.040445,-0.2968863,0.438581,1.415757,0.4037759,0.02505016,-0.0109673,-0.04581493,-1.197054,0.1766804,-0.09536301,0.5468743,1.47423,0.2216141,0.02378347,1.131665,0.4132349,298.5821,294.1995,328.2286,True
5,0.1666667,0.008182222,0.01912956,0.003963036,4.653943,1.444967,-2.217665,0.3594784,1.246053,0.4753008,-0.6006855,-0.01200775,10.79576,13.19906,0.01746039,-0.04589638,-0.01938623,-0.4544386,-4.045227,-0.2929989,0.4386356,1.415826,0.4037971,0.01216216,-0.01308128,-0.05849599,-1.198139,0.1763347,-0.0949582,0.5468796,1.47421,0.2215204,0.02399832,1.131079,0.4133534,299.2256,293.2244,328.3694,True
5,0.1777778,0.01244552,0.01813074,0.01033197,4.653531,1.444597,-2.217867,0.3594869,1.246702,0.4768271,-0.6008251,-0.01253599,10.79576,12.98479,0.02608281,-0.06290777,-0.0141393,-0.4540589,-4.0475,-0.2915386,0.4385535,1.415776,0.4037814,0.01436152,-0.004576623,-0.04891222,-1.198316,0.1765917,-0.09521094,0.5467683,1.474331,0.2215695,0.02413038,1.130921,0.413604,299.6122,292.7068,328.3709,True
5,0.1888889,0.01457095,0.01920132,0.009261565,4.653312,1.44448,-2.218106,0.3594853,1.246802,0.4770751,-0.6013135,-0.04456478,10.79576,12.70623,0.03455628,-0.04796316,-0.01202703,-0.4540929,-4.047626,-0.2920918,0.43855,1.415809,0.4037478,0.02204935,0.009222736,-0.02018618,-1.197618,0.1772896,-0.09597979,0.5466858,1.474333,0.2214918,0.02412875,1.131285,0.4142706,299.7827,292.499,328.248,True
5,0.2,0.02207755,0.01075949,0.02313106,4.652982,1.445086,-2.218595,0.3593926,1.246663,0.4767296,-0.6011841,0.01216637,10.82228,12.42768,0.02061753,-0.02245957,-0.009771427,-0.4543512,-4.046345,-0.2930404,0.4384511,1.415786,0.4037278,0.01800239,0.002770436,0.005400248,-1.196761,0.1769985,-0.09592866,0.546675,1.474221,0.2214363,0.02406141,1.132025,0.4151948,299.626,292.736,328.0868,True
5,0.2111111,0.0210281,0.007626741,0.03270364,4.652405,1.444966,-2.218699,0.3593396,1.247512,0.4785364,-0.60119,-0.0006874918,10.82228,12.21341,0.004680829,-0.01402892,0.004182447,-0.4539022,-4.045718,-0.2931291,0.4384075,1.4158,0.4036851,0.005206772,-0.02279789,0.002262675,-1.196729,0.1757817,-0.0951124,0.5466526,1.474162,0.2213547,0.02396006,1.133019,0.4163519,299.3739,293.038,327.9041,True
5,0.2222222,0.01897407,-0.009405526,0.03915417,4.652562,1.445866,-2.218786,0.3591867,1.247661,0.4787867,-0.6014525,-0.02402837,10.8488,12.1277,-0.008029824,-0.0119873,0.01810182,-0.4532279,-4.045908,-0.2924896,0.4382976,1.415775,0.4036539,-0.006694905,-0.04513693,-0.02218847,-1.197846,0.1741436,-0.09413262,0.5466128,1.474257,0.2212946,0.02381498,1.134026,0.4174791,298.9634,293.6193,327.7513,True
5,0.2333333,0.01474446,-0.01682871,0.04768408,4.652273,1.446302,-2.21867,0.3589697,1.248145,0.4799366,-0.6010216,0.03960885,10.87533,12.14913,-0.01024984,-0.004518507,0.007475346,-0.4535768,-4.045616,-0.292565,0.4382145,1.415786,0.4036281,-0.01009791,-0.03017593,-0.04557252,-1.199242,0.1742902,-0.09392677,0.5467016,1.474173,0.2212691,0.02367753,1.134861,0.4183053,298.6639,294.0492,327.5944,True
5,0.2444444,0.009442355,-0.01999729,0.06261303,4.65181,1.447464,-2.218533,0.358734,1.248284,0.4801691,-0.6009961,0.001963996,10.95491,12.27769,-0.02313037,0.009270625,0.0001135094,-0.4540104,-4.045271,-0.2922838,0.4379631,1.41591,0.40363,-0.00162797,0.006051353,-0.04983677,-1.200021,0.1754878,-0.09469774,0.5466628,1.474049,0.2215004,0.02357075,1.135555,0.4190093,298.6354,294.0381,327.4582,True
5,0.2555556,0.003092864,-0.02530551,0.08288115,4.651462,1.449215,-2.218329,0.3583421,1.247564,0.4783251,-0.6007767,0.02011559,11.03448,12.49196,-0.03698139,0.01344239,0.003397046,-0.453776,-4.045399,-0.2912662,0.4377443,1.415873,0.4035404,-0.002783593,0.01885599,-0.05939473,-1.201049,0.1761344,-0.09481493,0.5466712,1.474006,0.2215121,0.02342619,1.136049,0.4195573,298.6041,293.9786,327.4402,True
5,0.2666667,-0.006457645,-0.03061198,0.1010162,4.65082,1.450899,-2.217846,0.3579749,1.247789,0.4784122,-0.6007932,-0.001718934,11.14058,12.72766,-0.05194541,0.02722847,0.004571915,-0.4539182,-4.04366,-0.2917485,0.437625,1.415925,0.4034936,-0.007121403,0.01886345,-0.06893941,-1.20204,0.1760911,-0.09459361,0.5466757,1.473903,0.2215073,0.02322683,1.136384,0.4200223,298.6389,293.9192,327.4221,True
5,0.2777778,-0.01389693,-0.03274285,0.1106228,4.650233,1.452405,-2.217405,0.3576077,1.2473,0.4770124,-0.6007942,-3.289456E-05,11.24668,12.96336,-0.05621845,0.02506607,0.002473394,-0.4537659,-4.043779,-0.2907996,0.4374503,1.416025,0.4034226,-0.004029438,0.01356342,-0.08175793,-1.203361,0.1758762,-0.09456246,0.5466919,1.473838,0.2214966,0.02296188,1.136526,0.4201871,298.5267,294.2559,327.4636,True
5,0.2888889,-0.02447277,-0.04656211,0.1330485,4.649611,1.454835,-2.216615,0.3571238,1.247622,0.4769721,-0.6005444,0.02290084,11.32626,13.17763,-0.07228211,0.03566831,-0.004874304,-0.4542868,-4.042434,-0.2906561,0.4373121,1.416226,0.4034238,-0.01263554,0.006125215,-0.09235866,-1.204832,0.17556,-0.09404873,0.5467414,1.473747,0.2213926,0.02262609,1.136376,0.4195892,298.3825,294.6883,327.5506,True
5,0.3,-0.02658537,-0.0454658,0.1532865,4.64888,1.457277,-2.216219,0.3567151,1.247134,0.4748249,-0.6005955,-0.004846799,11.37931,13.37047,-0.0870975,0.03555489,0.0122522,-0.4536253,-4.041732,-0.2899091,0.4373057,1.416339,0.4034753,-0.006230123,0.00931162,-0.09027186,-1.205679,0.1755849,-0.09417284,0.5467697,1.473703,0.2214527,0.02230938,1.13607,0.4182511,298.4688,294.6562,327.5981,True
5,0.3111111,-0.04780233,-0.05497836,0.210863,4.647323,1.461574,-2.214739,0.3561072,1.246899,0.4725394,-0.6003734,0.02041247,11.37931,13.49904,-0.09959427,0.00561785,0.04209312,-0.4518756,-4.042885,-0.2873245,0.4372106,1.416551,0.4034436,-0.01360579,-0.00988376,-0.0817238,-1.206215,0.1746928,-0.09348654,0.5467949,1.473709,0.2214725,0.02199107,1.13567,0.4162316,298.6407,294.3908,327.5849,True
5,0.3222222,-0.08603069,-0.0784778,0.240799,4.646449,1.465494,-2.212277,0.3553159,1.247346,0.4722843,-0.6007996,-0.03911604,11.35279,13.60617,-0.1185735,-0.02219743,0.05813567,-0.4502415,-4.044991,-0.2834445,0.4370272,1.416768,0.4034226,-0.02079109,-0.0110145,-0.04863609,-1.205505,0.174575,-0.09288573,0.5468385,1.473607,0.2215669,0.02166824,1.135364,0.4137849,298.8812,293.9682,327.573,True
5,0.3333333,-0.1157827,-0.09134632,0.2600417,4.64578,1.46928,-2.209913,0.3546286,1.247046,0.4702201,-0.5999548,0.07763208,11.32626,13.69188,-0.1376402,-0.03295057,0.06993943,-0.4488934,-4.045869,-0.280445,0.4368076,1.416976,0.4033818,-0.02927124,0.01773444,-0.04105642,-1.205802,0.1759118,-0.0927294,0.5468241,1.473567,0.2216327,0.02132688,1.135151,0.4108125,298.9318,293.9438,327.5312,True
5,0.3444445,-0.1519091,-0.1084524,0.2878241,4.644748,1.473735,-2.206657,0.3536415,1.247534,0.4698963,-0.5989864,0.08790826,11.27321,13.82044,-0.1611466,-0.01707695,0.06797721,-0.4482606,-4.044817,-0.2788939,0.436434,1.417183,0.4033411,-0.03468627,0.0347938,-0.05056642,-1.206833,0.1768517,-0.09248759,0.5468256,1.473439,0.2216787,0.02088726,1.135123,0.4072257,299.0786,293.7335,327.474,True
5,0.3555556,-0.175234,-0.1307979,0.3166422,4.643859,1.477858,-2.203665,0.3527279,1.248908,0.4706047,-0.599191,-0.01920598,11.22016,13.97043,-0.1973934,-0.003373533,0.07246421,-0.4475719,-4.042944,-0.2772508,0.436172,1.417379,0.403187,-0.04232827,0.05294655,-0.07177815,-1.208538,0.1780178,-0.09221701,0.5468284,1.473462,0.2217174,0.020228,1.135457,0.4033951,299.2773,293.1113,327.3691,True
5,0.3666667,-0.1836016,-0.1616278,0.3465804,4.643294,1.483491,-2.200958,0.3515205,1.249635,0.4702196,-0.5986312,0.05160907,11.19363,14.1847,-0.2455237,0.04117796,0.07068632,-0.4474174,-4.038107,-0.2771924,0.4356414,1.417716,0.4030814,-0.05307911,0.07107048,-0.0823085,-1.209958,0.179402,-0.09175256,0.5469108,1.473425,0.2218111,0.01937827,1.136186,0.3995291,299.3036,292.5895,327.1359,True
5,0.3777778,-0.1940992,-0.1903593,0.3733245,4.642876,1.489476,-2.198315,0.3501107,1.249723,0.4683554,-0.5990717,-0.0405329,11.14058,14.44182,-0.2881982,0.07083023,0.08056469,-0.4468555,-4.033039,-0.2772945,0.435013,1.418031,0.4029086,-0.06698886,0.1083627,-0.08638403,-1.211242,0.1819963,-0.09135175,0.5469828,1.473399,0.2218914,0.01836528,1.137472,0.3960651,299.4595,291.8336,326.8096,True
5,0.3888889,-0.2003804,-0.2137803,0.3861915,4.642672,1.495167,-2.195496,0.3487996,1.250474,0.4679298,-0.5997529,-0.06172679,11.08753,14.72038,-0.3274841,0.07381707,0.1063563,-0.4451527,-4.029701,-0.2753789,0.4343041,1.418475,0.402679,-0.06379247,0.1286079,-0.08531123,-1.212392,0.1841748,-0.09157253,0.5470802,1.47338,0.2220495,0.01727666,1.139477,0.3934319,299.5316,291.1567,326.5121,True
5,0.4,-0.2097708,-0.2574441,0.4023388,4.643141,1.501791,-2.192345,0.3472489,1.250933,0.4668765,-0.6000826,-0.02950111,10.98143,15.04178,-0.3497723,0.08541366,0.1299396,-0.4434099,-4.025099,-0.2750475,0.433529,1.418917,0.402487,-0.07974752,0.1509717,-0.08087549,-1.213333,0.1866749,-0.09111526,0.5471593,1.473367,0.2221706,0.01596032,1.14199,0.3914982,299.0986,291.2711,326.2497,True
5,0.4111111,-0.219153,-0.3054176,0.4078462,4.644439,1.508706,-2.189126,0.3457896,1.251182,0.4651339,-0.6000427,0.003943079,10.82228,15.36319,-0.394426,0.1394554,0.1856875,-0.4405214,-4.014833,-0.2783949,0.4326897,1.419424,0.4021225,-0.09461629,0.1658655,-0.07433235,-1.214136,0.1891019,-0.09041778,0.5472223,1.473332,0.2222328,0.01444488,1.144664,0.38975,298.3599,291.9221,325.9341,True
5,0.4222222,-0.2231948,-0.3544037,0.418667,4.646073,1.516003,-2.186054,0.3441112,1.252164,0.4645972,-0.5998904,0.01394045,10.6366,15.64174,-0.4359014,0.2062831,0.2488973,-0.437242,-4.001392,-0.2843324,0.4318051,1.420117,0.4017925,-0.1211258,0.1668972,-0.05920388,-1.214538,0.1911387,-0.08888619,0.5473381,1.473293,0.2223647,0.01292112,1.147301,0.3879659,297.7103,292.3775,325.5887,True
5,0.4333333,-0.2230276,-0.3852495,0.4368837,4.647282,1.523506,-2.183367,0.3425254,1.252516,0.4622855,-0.5999511,-0.005560044,10.47745,15.87744,-0.458168,0.2359429,0.2895598,-0.4338476,-3.989958,-0.2888696,0.4309807,1.420686,0.4014919,-0.1381523,0.1668837,-0.05693199,-1.215239,0.1930402,-0.08742891,0.5473733,1.473243,0.2224662,0.01136587,1.149685,0.3858895,297.1075,292.6886,325.3728,True
5,0.4444444,-0.2196414,-0.4256452,0.4583227,4.648917,1.531699,-2.180577,0.3406574,1.253637,0.4616413,-0.6002456,-0.02674714,10.34483,16.09171,-0.4910206,0.2261868,0.3131497,-0.4306512,-3.982481,-0.2892702,0.4301177,1.421243,0.4011467,-0.1723015,0.1871274,-0.06299964,-1.21633,0.1959525,-0.08550558,0.5474095,1.473162,0.222683,0.009885012,1.151701,0.3832927,296.6603,292.6578,325.3422,True
5,0.4555556,-0.2226671,-0.4671285,0.4787188,4.650597,1.540363,-2.177153,0.3389299,1.254811,0.4607675,-0.6007527,-0.04609032,10.29178,16.2417,-0.5112167,0.2016357,0.3025509,-0.428468,-3.97736,-0.2877207,0.4291341,1.421896,0.4008014,-0.1819676,0.2137793,-0.0713964,-1.217744,0.199406,-0.08453619,0.5474976,1.473108,0.2228391,0.008481519,1.153396,0.3801939,296.4311,292.2762,325.4567,True
5,0.4666667,-0.2395743,-0.4980735,0.4852272,4.65284,1.548706,-2.173479,0.3368849,1.256037,0.460063,-0.6007825,-0.002346224,10.3183,16.37026,-0.5227441,0.1632258,0.3089333,-0.4251444,-3.973673,-0.2849289,0.427982,1.422651,0.4004195,-0.1959387,0.2446888,-0.0840069,-1.219436,0.2033036,-0.08322858,0.5475501,1.473076,0.22299,0.007155502,1.15477,0.3764562,296.2976,291.8318,325.599,True
5,0.4777778,-0.2543705,-0.5226578,0.4853244,4.655397,1.556845,-2.169839,0.3347647,1.256533,0.4572632,-0.6002105,0.05233375,10.39788,16.45597,-0.5448142,0.1417777,0.3473594,-0.4205728,-3.967597,-0.2837947,0.426658,1.423382,0.3999534,-0.2066164,0.2574789,-0.08602809,-1.220726,0.2066905,-0.08179233,0.5475531,1.473006,0.2231221,0.00590161,1.155991,0.3722744,296.3777,290.8795,325.8301,True
5,0.4888889,-0.2723294,-0.5578897,0.4854568,4.658512,1.565464,-2.165731,0.3325255,1.25775,0.4565334,-0.5999463,0.02376742,10.50398,16.47739,-0.5906145,0.2277582,0.4116969,-0.4155543,-3.950303,-0.2914734,0.4251668,1.424109,0.3994203,-0.234363,0.2841038,-0.09000963,-1.222168,0.2109008,-0.07971907,0.5475084,1.472926,0.2233109,0.004681154,1.157252,0.3678708,296.5329,289.7014,326.1292,True
5,0.5,-0.2796586,-0.5845504,0.4951505,4.661581,-4.708436,-2.161976,0.3303785,1.258386,0.4539073,-0.6000448,-0.009077472,10.61008,16.43454,-0.6100218,0.2905478,0.4151158,-0.4129162,-3.933856,-0.2992386,0.4237517,1.424836,0.3988888,-0.2589073,0.297953,-0.09403979,-1.223588,0.2148126,-0.07740744,0.5474828,1.472851,0.2235212,0.003209135,1.15866,0.3634289,296.537,288.7238,326.4406,True
5,0.5111111,-0.2858993,-0.6143075,0.5240206,4.664339,-4.698268,-2.158038,0.3279976,1.259744,0.453006,-0.5997269,0.02926796,10.71618,16.34883,-0.6507746,0.3500614,0.4079903,-0.4107617,-3.916771,-0.3063884,0.4224083,1.425528,0.3983164,-0.2865262,0.3288122,-0.0820364,-1.224479,0.2198,-0.0749528,0.5474218,1.472834,0.2237835,0.001451937,1.160196,0.3588398,296.3374,287.9995,326.7213,True
5,0.5222223,-0.2878833,-0.649433,0.5486032,4.66764,-4.687525,-2.154358,0.3254905,1.260736,0.4506893,-0.6001844,-0.04199502,10.74271,16.22027,-0.6890283,0.3573272,0.4327109,-0.4068138,-3.902439,-0.3105305,0.4210272,1.426286,0.3978028,-0.3002934,0.3543595,-0.07122211,-1.225248,0.2249275,-0.07303773,0.547363,1.472871,0.2241254,-0.0003888281,1.161955,0.3542674,296.1191,287.1516,326.9789,True
5,0.5333334,-0.2920045,-0.6707375,0.5529882,4.671039,-4.677849,-2.150748,0.3230558,1.261891,0.4488077,-0.6001886,6.892882E-05,10.74271,16.04885,-0.697229,0.3348418,0.4742595,-0.4013197,-3.890265,-0.3137995,0.4197008,1.427025,0.3972714,-0.3003117,0.3660835,-0.07225839,-1.226355,0.2296276,-0.07128909,0.547249,1.47293,0.2243705,-0.002194212,1.163908,0.3495982,295.8296,286.4437,327.2056,True
5,0.5444446,-0.297188,-0.7026967,0.5594925,4.675018,-4.667554,-2.146855,0.3204299,1.263427,0.4476962,-0.6005247,-0.03074338,10.71618,15.89886,-0.7000812,0.3038599,0.5146933,-0.3952956,-3.878771,-0.3164957,0.4183488,1.427722,0.3967705,-0.2949353,0.3724714,-0.0659012,-1.227187,0.2342859,-0.06981876,0.5471379,1.472958,0.2247262,-0.003945143,1.1661,0.3449028,295.5878,285.6454,327.4212,True
5,0.5555557,-0.3173062,-0.7262304,0.5617236,4.679152,-4.657352,-2.142465,0.3177345,1.26451,0.4452133,-0.6006216,-0.00850744,10.66313,15.72745,-0.696804,0.2857596,0.5167729,-0.3907496,-3.867465,-0.3192768,0.41707,1.428465,0.3962576,-0.3035021,0.3799452,-0.0711427,-1.228478,0.2390931,-0.06778038,0.5469086,1.472876,0.2250347,-0.005741372,1.168443,0.3400307,295.2252,284.9599,327.6812,True
5,0.5666668,-0.3321438,-0.7411624,0.5756349,4.682792,-4.646963,-2.137984,0.3150592,1.26603,0.4439712,-0.6003921,0.02111843,10.68966,15.62031,-0.7062453,0.2612029,0.5253009,-0.3856066,-3.857178,-0.3207109,0.4157152,1.429205,0.3957379,-0.318412,0.3895225,-0.06993585,-1.229507,0.2439349,-0.06537954,0.5467338,1.472853,0.2253408,-0.007518929,1.17088,0.335052,294.8658,284.0715,327.9141,True
5,0.577778,-0.3545096,-0.7380213,0.5895007,4.685894,-4.636586,-2.133044,0.3125007,1.267017,0.4414606,-0.5999074,0.04416345,10.71618,15.53461,-0.7304621,0.2321768,0.5193655,-0.380978,-3.84677,-0.3217455,0.4142775,1.430025,0.3950937,-0.3354474,0.3937848,-0.06766087,-1.230549,0.2488917,-0.06261677,0.5466796,1.472805,0.2257698,-0.009354278,1.17338,0.3301191,294.5188,283.0721,328.1869,True
5,0.5888891,-0.4100373,-0.7051939,0.602218,4.68784,-4.627058,-2.12638,0.3099549,1.268444,0.4400747,-0.5998515,0.004861303,10.74271,15.49175,-0.7518533,0.2130916,0.5265312,-0.3756149,-3.838206,-0.3203066,0.4129245,1.430754,0.394469,-0.3302715,0.4108641,-0.08471731,-1.23236,0.2541821,-0.06086122,0.5464655,1.47278,0.2260931,-0.01132001,1.175882,0.3251727,294.1575,282.1683,328.5098,True
5,0.6000003,-0.472064,-0.6500062,0.6180249,4.688713,-4.618351,-2.118728,0.3074461,1.270306,0.4391811,-0.5995074,0.03151324,10.71618,15.47032,-0.7538725,0.2066712,0.5435772,-0.3699301,-3.826383,-0.3227251,0.4114982,1.431464,0.3937647,-0.3208049,0.4173061,-0.09969448,-1.234245,0.2594798,-0.05943217,0.5463465,1.472755,0.2264469,-0.01324679,1.178431,0.3202919,293.8332,281.3218,328.7813,True
5,0.6111114,-0.5083667,-0.6288581,0.619054,4.690703,-4.608937,-2.111846,0.3044967,1.271634,0.4372718,-0.5979223,0.1448036,10.68966,15.47032,-0.7560005,0.2343217,0.5638797,-0.3644658,-3.81069,-0.3288317,0.4101045,1.432177,0.3930812,-0.3198334,0.4109367,-0.1114331,-1.236137,0.2640227,-0.05736422,0.5461159,1.472736,0.2267568,-0.01512294,1.181003,0.3153607,293.5167,280.679,328.9543,True
5,0.6222225,-0.5136988,-0.6278232,0.6169246,4.693195,-4.599582,-2.105787,0.3016524,1.273275,0.4358349,-0.5970823,0.07575987,10.55703,15.47032,-0.7579491,0.2342596,0.595854,-0.3580886,-3.796357,-0.333832,0.4087267,1.432835,0.3923607,-0.3103265,0.4088438,-0.121095,-1.237911,0.2688027,-0.05576766,0.5458488,1.472717,0.2271321,-0.01692193,1.183787,0.3105333,293.4485,279.836,329.0407,True
5,0.6333337,-0.5211986,-0.6204264,0.6105134,4.695734,-4.590536,-2.099683,0.2989011,1.274765,0.433857,-0.5982019,-0.1025757,10.45093,15.49175,-0.7556758,0.2033674,0.5989785,-0.3521136,-3.787003,-0.3343846,0.4074317,1.433449,0.3917441,-0.3134969,0.4109666,-0.1178687,-1.239348,0.2736059,-0.05376123,0.54557,1.472703,0.2274539,-0.01884541,1.187034,0.3059966,293.4252,278.9861,329.1288,True
5,0.6444448,-0.5447563,-0.5950077,0.5965977,4.697612,-4.582376,-2.092734,0.2960666,1.276439,0.4323688,-0.5994855,-0.1160795,10.34483,15.49175,-0.7470956,0.140618,0.5636562,-0.3471793,-3.784274,-0.3290524,0.4060019,1.434115,0.3910244,-0.312373,0.439735,-0.1092972,-1.240527,0.2800367,-0.05247546,0.5452164,1.472804,0.2278023,-0.02112143,1.190737,0.3016545,293.0732,278.3476,329.282,True
5,0.655556,-0.5821111,-0.5803522,0.5763349,4.700309,-4.574237,-2.085067,0.2932079,1.277617,0.4295354,-0.599763,-0.02428228,10.29178,15.49175,-0.7524149,0.1065519,0.541241,-0.3423052,-3.779224,-0.325188,0.4044837,1.434736,0.3903446,-0.3081195,0.4493229,-0.109314,-1.24204,0.2854937,-0.05092284,0.5448812,1.472867,0.2280316,-0.02346919,1.194803,0.2974738,292.4618,277.9192,329.3363,True
5,0.6666671,-0.6045931,-0.5592225,0.5528449,4.702522,-4.566842,-2.077524,0.2903635,1.279239,0.4280682,-0.5990866,0.06207112,10.26525,15.49175,-0.748109,0.1150674,0.5550865,-0.3364675,-3.768028,-0.3275693,0.402904,1.43535,0.3896198,-0.288882,0.4642314,-0.1009229,-1.243213,0.291458,-0.05027436,0.5444355,1.472904,0.2283421,-0.02578711,1.199041,0.2933463,291.753,277.7143,329.2019,True
5,0.6777782,-0.6195651,-0.5454983,0.540057,4.704809,-4.558738,-2.070223,0.2874699,1.280243,0.4254732,-0.5985018,0.05301611,10.34483,15.49175,-0.7311795,0.133264,0.547576,-0.3315199,-3.755773,-0.3314999,0.4013286,1.435891,0.3888683,-0.277997,0.4759126,-0.07329498,-1.243434,0.2975234,-0.04957661,0.5439074,1.472895,0.2287216,-0.028154,1.203321,0.2892311,291.0753,277.647,328.9596,True
5,0.6888894,-0.6388335,-0.5275329,0.5219015,4.707006,-4.551686,-2.062364,0.2846828,1.281842,0.4240038,-0.5988256,-0.0297378,10.47745,15.47032,-0.7292153,0.1482228,0.5284176,-0.3272737,-3.744206,-0.334362,0.399775,1.436486,0.3881724,-0.2800408,0.4737638,-0.06262875,-1.244079,0.3030631,-0.04810228,0.5433363,1.472904,0.2290032,-0.03062657,1.207518,0.2849489,290.4249,277.4798,328.8615,True
5,0.7000005,-0.6634778,-0.4978678,0.5090363,4.708834,-4.544737,-2.054101,0.2820135,1.283212,0.4214571,-0.5993604,-0.04840884,10.58355,15.40604,-0.7411939,0.1684723,0.4965704,-0.3238084,-3.732054,-0.3371013,0.3983927,1.437094,0.3874264,-0.2841294,0.4609388,-0.04238144,-1.244234,0.3080654,-0.04637922,0.5427988,1.473008,0.2294524,-0.03304167,1.211628,0.2806179,289.8476,277.1199,328.7777,True
5,0.7111117,-0.6753548,-0.4607068,0.4993224,4.710392,-4.537975,-2.046311,0.2793707,1.284558,0.4186141,-0.5990658,0.02748957,10.71618,15.32033,-0.7357337,0.1461145,0.5039508,-0.3185663,-3.723122,-0.3375328,0.3970175,1.437707,0.3866761,-0.2776377,0.4577233,-0.03072181,-1.24444,0.3133759,-0.04519411,0.5423459,1.473005,0.2297151,-0.03539886,1.215556,0.2761687,289.2778,276.8043,328.6607,True
5,0.7222228,-0.6808283,-0.4309736,0.4779207,4.711699,-4.532104,-2.038514,0.2767712,1.286314,0.4171557,-0.5988453,0.02006225,10.76923,15.19177,-0.7138991,0.09282577,0.5612572,-0.3104814,-3.716659,-0.3364409,0.3956414,1.438386,0.3858962,-0.2605409,0.4641177,-0.02446491,-1.244822,0.3191324,-0.04473471,0.5418582,1.473135,0.2299459,-0.03759719,1.21937,0.271757,288.8696,276.3037,328.6326,True
5,0.7333339,-0.6766573,-0.4183405,0.4320849,-1.569005,-4.526751,-2.031125,0.274029,1.287668,0.4146297,-0.5995239,-0.06206636,10.76923,15.02035,-0.6805729,0.05030501,0.5865493,-0.3033298,-3.71059,-0.3356057,0.3941621,1.43898,0.3850873,-0.2392524,0.4471002,-0.02893112,-1.24551,0.3239324,-0.04439409,0.5414051,1.473249,0.2300844,-0.03976831,1.22314,0.2672953,288.5106,276.0031,328.6402,True
5,0.7444451,-0.6703085,-0.4163225,0.3905262,-1.566182,-4.521987,-2.023819,0.2712495,1.289497,0.4132502,-0.5997822,-0.02288191,10.68966,14.82751,-0.6901717,0.02367359,0.5652437,-0.2978272,-3.706233,-0.3317361,0.3925315,1.439591,0.3842683,-0.2551358,0.4065913,-0.01928453,-1.245504,0.3273194,-0.04205824,0.5407913,1.473336,0.2302263,-0.04185477,1.22693,0.2627414,288.1724,275.6129,328.6653,True
5,0.7555562,-0.6617089,-0.4463549,0.3224504,-1.561234,-4.517856,-2.016792,0.2683039,1.291189,0.4113719,-0.6003426,-0.05098987,10.58355,14.61324,-0.7028714,0.01508874,0.5748798,-0.2915379,-3.698606,-0.3306133,0.3908892,1.440151,0.3834746,-0.2646608,0.4033895,-0.01280752,-1.245507,0.3322282,-0.04040575,0.5401819,1.473342,0.2305157,-0.04385063,1.230822,0.258324,287.8235,274.9962,328.681,True
5,0.7666674,-0.6531163,-0.4731407,0.2660729,-1.556057,-4.514229,-2.009872,0.2654803,1.292954,0.4102376,-0.6005684,-0.0201179,10.39788,14.37754,-0.6603968,0.05360436,0.5779132,-0.2859383,-3.684795,-0.33792,0.3891348,1.440697,0.3827579,-0.2721396,0.4651874,-0.0149816,-1.245896,0.3389974,-0.03923262,0.5395393,1.473354,0.2307246,-0.04599593,1.234771,0.2541117,287.3511,274.2969,328.7927,True
5,0.7777785,-0.6499469,-0.4700021,0.2468907,-1.552378,-4.509913,-2.002795,0.2628022,1.294659,0.4087555,-0.6009018,-0.03033908,10.26525,14.16327,-0.5978571,0.07949105,0.5403314,-0.2820746,-3.672893,-0.3447957,0.387375,1.44128,0.3820553,-0.2593778,0.5024775,-0.01264586,-1.246219,0.3470587,-0.0394795,0.5388582,1.473464,0.2309606,-0.04828886,1.238776,0.2503592,286.8528,273.3594,329.0992,True
5,0.7888896,-0.6415175,-0.4519129,0.2297779,-1.549157,-4.506336,-1.996056,0.2601807,1.296168,0.4077275,-0.6010499,-0.01319986,10.1061,13.97043,-0.5735438,0.05199569,0.485812,-0.2785496,-3.669799,-0.34216,0.3856016,1.441914,0.3813367,-0.2456786,0.513173,-0.02977563,-1.247228,0.3534417,-0.03921265,0.5381494,1.473571,0.2311845,-0.05082985,1.242758,0.2471735,286.2621,272.2299,329.7367,True
5,0.8000008,-0.6086918,-0.4081327,0.2189545,-1.547248,-4.50297,-1.990354,0.2577454,1.297543,0.4068568,-0.6008821,0.01539505,9.973473,13.77759,-0.5724818,0.02753171,0.468715,-0.2738651,-3.665867,-0.3394249,0.3838765,1.442509,0.3805463,-0.250187,0.5047219,-0.06063388,-1.249026,0.3591,-0.03807495,0.5374576,1.473611,0.23141,-0.05342355,1.246668,0.2447102,285.6988,271.3011,330.3332,True
5,0.8111119,-0.5821829,-0.3824888,0.210323,-1.544741,-4.499514,-1.984692,0.2552139,1.299073,0.4054191,-0.6011947,-0.0288293,9.867373,13.60617,-0.5618923,0.02865526,0.4580062,-0.2694277,-3.658659,-0.3403965,0.3822389,1.443114,0.3797522,-0.2588755,0.4866463,-0.08190607,-1.250889,0.3640412,-0.03642379,0.5367157,1.47369,0.2316186,-0.05597594,1.250494,0.2428391,285.2128,270.9977,330.6046,True
5,0.8222231,-0.539736,-0.3537026,0.1622523,-1.542122,-4.498133,-1.980164,0.2528347,1.300431,0.4044271,-0.6022206,-0.09355014,9.734747,13.43475,-0.5466346,-0.02778846,0.479136,-0.2627842,-3.658488,-0.335035,0.3805999,1.443776,0.3788221,-0.2822405,0.4834411,-0.07425095,-1.251522,0.3698139,-0.03438434,0.5360452,1.473773,0.2318158,-0.05840234,1.254197,0.2414286,284.7434,270.9848,330.6831,True
5,0.8333342,-0.5025669,-0.3367162,0.1025354,-1.538681,-4.497056,-1.975734,0.2504727,1.301205,0.402231,-0.602243,-0.001334323,9.628648,13.28477,-0.5615444,-0.002318949,0.497381,-0.2573061,-3.647645,-0.338798,0.3789063,1.444421,0.3780215,-0.2884712,0.4993866,-0.05286183,-1.251582,0.3764367,-0.03301707,0.5354804,1.473816,0.2319739,-0.06069891,1.257714,0.2402941,284.2903,271.3248,330.5198,True
5,0.8444453,-0.4665022,-0.3100853,0.05554185,-1.535891,-4.496835,-1.971683,0.2482889,1.302269,0.4013112,-0.6032305,-0.09046788,9.549072,13.19906,-0.563633,0.04446644,0.5390286,-0.2511057,-3.630168,-0.3492906,0.3771217,1.445042,0.3771987,-0.3023899,0.4983305,-0.06127077,-1.252712,0.38226,-0.03100026,0.5346934,1.473803,0.2321298,-0.0630322,1.261004,0.2391348,283.879,271.4803,330.5952,True
5,0.8555565,-0.4368356,-0.2727154,0.04793613,-1.534168,-4.4955,-1.967806,0.2460415,1.303223,0.3999641,-0.6032033,0.003115079,9.469496,13.24191,-0.5370713,0.0584197,0.535709,-0.2459983,-3.618327,-0.3557333,0.3754957,1.445622,0.3763745,-0.3163077,0.4823768,-0.07076784,-1.25396,0.387502,-0.02866094,0.5338449,1.473774,0.2322955,-0.06541251,1.263965,0.2378927,283.3809,271.4581,330.7871,True
5,0.8666676,-0.3774579,-0.2096176,0.04341177,-1.534155,-4.495133,-1.965668,0.2440255,1.303909,0.3991172,-0.6033136,-0.0104072,9.416446,13.37047,-0.5064654,0.07566357,0.4961555,-0.242663,-3.606784,-0.3623976,0.3737278,1.446099,0.375592,-0.3536917,0.4813155,-0.08323961,-1.25538,0.3928725,-0.02520256,0.5328413,1.47378,0.2324913,-0.06786363,1.266448,0.2364355,282.8834,271.3073,331.0593,True
5,0.8777788,-0.3414441,-0.1615543,0.03685697,-1.534146,-4.494394,-1.963155,0.2418026,1.304497,0.3978994,-0.6031815,0.01194461,9.363397,13.58474,-0.4789277,0.06944132,0.4608491,-0.2391476,-3.59929,-0.3654073,0.3719257,1.446656,0.3748186,-0.3547365,0.4898344,-0.08000992,-1.256189,0.398916,-0.02319374,0.532011,1.473773,0.232631,-0.07015026,1.268455,0.2349568,282.613,270.8414,331.3927,True
5,0.8888899,-0.2853203,-0.08677743,0.02483714,-1.535625,-4.495223,-1.961971,0.2398402,1.304921,0.3969772,-0.6046159,-0.1314833,9.363397,13.84187,-0.4460706,0.06537634,0.4276342,-0.2360988,-3.591761,-0.3690393,0.3701553,1.447032,0.3741066,-0.3355564,0.5335149,-0.07688977,-1.257087,0.4067624,-0.02263927,0.5310622,1.473734,0.2328155,-0.07229208,1.270074,0.2334634,282.5365,270.536,331.5646,True
5,0.900001,-0.2142499,-0.02153434,0.01283942,-1.537055,-4.496033,-1.961756,0.238018,1.305411,0.3957117,-0.6040081,0.0564346,9.389919,14.16327,-0.4122008,0.05812806,0.3784355,-0.2337451,-3.586893,-0.3706161,0.3684281,1.447338,0.3734276,-0.3218008,0.5548524,-0.08759748,-1.258477,0.4139078,-0.02188133,0.5300939,1.473646,0.2330034,-0.07424094,1.271332,0.2320526,282.4835,270.5646,331.3959,True
5,0.9111122,-0.1739811,0.02440258,-0.001199633,-1.538618,-4.497248,-1.961244,0.2361246,1.305748,0.3946805,-0.6048864,-0.08123235,9.442968,14.50611,-0.3846382,0.0157302,0.3238744,-0.2316391,-3.589331,-0.3648563,0.3666763,1.447509,0.3726742,-0.3174915,0.5654946,-0.08121587,-1.25927,0.4208269,-0.0206403,0.5291188,1.473576,0.233156,-0.07622129,1.27228,0.2306757,282.4849,270.6907,331.1792,True
5,0.9222233,-0.1221335,0.1001722,-0.0281251,-1.54157,-4.499706,-1.961604,0.2344924,1.305806,0.3940408,-0.6054867,-0.05448197,9.549072,14.87037,-0.3571603,-0.004312873,0.2661805,-0.2300779,-3.591185,-0.360294,0.3648661,1.447721,0.3718724,-0.3090149,0.5676447,-0.08660205,-1.260468,0.4274381,-0.0195769,0.5281885,1.473566,0.233366,-0.07816172,1.272956,0.2294602,282.5233,270.9936,330.7813,True
5,0.9333345,-0.1257785,0.1948534,-0.06039969,-1.54577,-4.503292,-1.959721,0.2328728,1.305722,0.3932374,-0.6047458,0.06777915,9.655171,15.14892,-0.3582857,0.01485485,0.2630377,-0.2276182,-3.582912,-0.3647239,0.3630432,1.447902,0.3710408,-0.3017048,0.5495739,-0.1058599,-1.262336,0.432999,-0.01831509,0.5270578,1.473604,0.2334847,-0.08008439,1.27337,0.2284267,282.5797,271.3567,330.3995,True
5,0.9444456,-0.1454903,0.3161899,-0.0671875,-1.552403,-4.507137,-1.957352,0.2310124,1.30518,0.3923266,-0.6050617,-0.02989884,9.761274,15.36319,-0.3627851,0.0766201,0.2653124,-0.2258792,-3.565401,-0.3776128,0.36106,1.447873,0.3702126,-0.2866473,0.513338,-0.09114104,-1.262993,0.4377052,-0.01703171,0.5259328,1.473682,0.2336683,-0.0820272,1.273549,0.2276355,282.6733,271.6598,330.0389,True
5,0.9555568,-0.1424139,0.3428615,-0.0619466,-1.556483,-4.509078,-1.955657,0.2292233,1.30518,0.3916593,-0.6024758,0.2364784,9.8939,15.51318,-0.3537363,0.1257746,0.2057007,-0.2267426,-3.552535,-0.3864881,0.3590173,1.447895,0.3692346,-0.2715116,0.4983794,-0.06572347,-1.262896,0.4429472,-0.01616086,0.5247909,1.473653,0.2337873,-0.08395064,1.273509,0.2272526,282.7874,272.3284,329.2836,True
5,0.9666679,-0.1065601,0.4282674,-0.05481112,-1.563491,-4.51237,-1.955652,0.2273486,1.304611,0.3908541,-0.6014419,0.09230196,9.999999,15.59888,-0.3508324,0.1226961,0.1513473,-0.2273668,-3.547705,-0.3874122,0.3569288,1.447883,0.3684785,-0.2649811,0.4951602,-0.04980297,-1.262998,0.4486874,-0.01523994,0.5235246,1.473718,0.2339058,-0.08614629,1.273398,0.2272959,283.0406,273.5058,328.1549,True
5,0.977779,-0.0896777,0.4645376,-0.05813141,-1.568861,-4.515065,-1.955231,0.2254487,1.304215,0.3896322,-0.6018786,-0.04054371,10.1061,15.66317,-0.3434588,0.124882,0.1385359,-0.2266025,-3.539804,-0.3914929,0.3549502,1.447913,0.3677046,-0.2692654,0.5132775,-0.05185533,-1.263789,0.4554282,-0.01411582,0.5223793,1.473768,0.2339423,-0.08869006,1.273407,0.2276936,283.3669,275.1003,326.8244,True
5,0.9888902,-0.06420358,0.4837878,-0.0688719,4.709164,-4.518373,-1.955399,0.2235718,1.303789,0.38887,-0.6034835,-0.1464121,10.18567,15.70602,-0.3019511,0.1122983,0.122299,-0.2261865,-3.535103,-0.3942501,0.3528028,1.447923,0.367094,-0.2691764,0.5313647,-0.04010221,-1.263918,0.4622427,-0.01323298,0.5209656,1.47382,0.2340512,-0.09129291,1.273661,0.2282976,283.6065,276.4576,325.8927,True
5,1.000001,-0.03443848,0.4955612,-0.08491118,4.704714,-4.521678,-1.95611,0.2217188,1.303235,0.3876181,-0.6029801,0.04707947,10.26525,15.70602,-0.2700871,0.07947987,0.08264561,-0.2263474,-3.536623,-0.3907797,0.3506786,1.447981,0.3664041,-0.2540035,0.539839,-0.008243829,-1.26296,0.4688434,-0.01294003,0.5195314,1.473866,0.2341766,-0.09390395,1.274098,0.2289443,283.6527,278.6106,324.2306,True
5,1.011112,-0.00147183,0.5041401,-0.1083971,4.700037,-4.525415,-1.957198,0.2199349,1.302655,0.3865438,-0.6032071,-0.02150693,10.34483,15.70602,-0.2443982,0.02423182,0.06429248,-0.2256395,-3.542242,-0.3833546,0.3485304,1.447922,0.3656816,-0.2121859,0.546187,0.02444746,-1.261683,0.4754092,-0.01403965,0.5180681,1.473897,0.2342503,-0.09646833,1.274597,0.2294287,283.6133,280.7376,322.569,True
5,1.022224,0.01022893,0.5019552,-0.1392936,4.695949,-4.529872,-1.957781,0.2181518,1.302203,0.3858979,-0.603492,-0.02604206,10.4244,15.70602,-0.2259811,0.01037076,0.1089057,-0.2230136,-3.539362,-0.3842976,0.3463268,1.447838,0.3648155,-0.1780169,0.5504453,0.0348254,-1.261089,0.4819699,-0.01517736,0.5165576,1.473885,0.23436,-0.09891103,1.275028,0.2297232,283.5198,282.5521,321.0559,True
5,1.033335,0.002768649,0.493229,-0.188242,4.69249,-4.534913,-1.957557,0.2164296,1.301751,0.3858969,-0.6035746,-0.00755286,10.50398,15.68459,-0.2154615,0.03705257,0.1046386,-0.2225114,-3.531831,-0.3895909,0.3441225,1.447667,0.3639128,-0.1631709,0.5345038,0.02507997,-1.261373,0.4877216,-0.01558216,0.5151225,1.474029,0.2344496,-0.1012549,1.275245,0.229778,283.4214,284.2221,319.6179,True
5,1.044446,-0.01419644,0.4631257,-0.2467158,4.690448,-4.540831,-1.956913,0.2145256,1.301291,0.3855691,-0.6027597,0.07430135,10.58355,15.68459,-0.2167509,0.143503,0.1421351,-0.2220986,-3.506096,-0.4121119,0.3416892,1.447422,0.3632047,-0.1546369,0.5281142,0.02606164,-1.261181,0.4936208,-0.01596965,0.5134308,1.474127,0.234467,-0.1034853,1.275138,0.2296716,283.4126,285.5152,318.383,True
5,1.055557,-0.0214981,0.4203326,-0.289164,4.68912,-4.546047,-1.956669,0.2126652,1.301036,0.3860745,-0.6016225,0.1031936,10.6366,15.70602,-0.2128124,0.2340456,0.1518806,-0.2223851,-3.480665,-0.4345387,0.3394411,1.447285,0.3625162,-0.1588727,0.520651,0.02927101,-1.260893,0.4994375,-0.01576219,0.5119313,1.474151,0.2345264,-0.1056601,1.274709,0.2296346,283.5315,285.9918,317.7249,True
5,1.066668,-0.03417194,0.3957824,-0.2869384,4.687022,-4.550282,-1.955991,0.2107877,1.30063,0.3858771,-0.6009578,0.05985785,10.68966,15.70602,-0.1780932,0.2854,0.111302,-0.2246254,-3.460477,-0.4533382,0.3371276,1.447147,0.3619552,-0.1596959,0.5184749,0.05803353,-1.259399,0.5056238,-0.01582078,0.5101264,1.474208,0.2345574,-0.1079248,1.274064,0.2299765,283.7344,285.8494,317.6139,True
5,1.077779,-0.03734832,0.3947531,-0.2720093,4.683718,-4.55401,-1.955666,0.2090118,1.300328,0.3859165,-0.6012736,-0.02934434,10.68966,15.74888,-0.1589164,0.2482397,0.08555588,-0.2250589,-3.456009,-0.4564914,0.3349047,1.447084,0.3615029,-0.1510627,0.5174057,0.07072642,-1.258497,0.5118597,-0.01634835,0.5084606,1.474227,0.2346241,-0.1104765,1.273355,0.2308915,283.9555,285.4086,317.937,True
5,1.08889,-0.02875835,0.3863848,-0.2378986,4.680481,-4.55694,-1.955747,0.2072042,1.30005,0.3856316,-0.6008869,0.03564607,10.68966,15.79173,-0.1301597,0.1802745,0.03519356,-0.2261194,-3.459811,-0.4522849,0.332878,1.446877,0.3611665,-0.1394046,0.4929262,0.06205912,-1.258182,0.5168474,-0.01668231,0.5066277,1.474281,0.2346344,-0.1131643,1.272709,0.2325278,284.1689,285.2732,318.2077,True
5,1.100002,-0.03400695,0.3693431,-0.2325048,4.677757,-4.560612,-1.955377,0.2055392,1.300125,0.3858564,-0.6011873,-0.02772998,10.68966,15.83458,-0.06594665,0.05064816,-0.004828922,-0.225672,-3.477713,-0.4361073,0.3309548,1.446559,0.3607147,-0.1128098,0.4450319,0.05535172,-1.257908,0.5207257,-0.01737633,0.5048238,1.474401,0.2345278,-0.1159367,1.272235,0.234655,284.4073,286.0642,317.98,True
5,1.111113,-0.04141826,0.3586539,-0.2335268,4.675351,-4.564445,-1.954803,0.2036864,1.299879,0.385525,-0.6016177,-0.03908415,10.71618,15.92029,-0.01666188,0.05287449,0.04710359,-0.2238744,-3.469145,-0.4457386,0.3290836,1.446345,0.3603034,-0.06610176,0.3886379,0.03247382,-1.258422,0.5233329,-0.0189396,0.5029813,1.47452,0.2344868,-0.1186114,1.272012,0.2369652,284.6406,287.4709,317.3555,True
5,1.122224,-0.0869493,0.295546,-0.2449617,4.675459,-4.567463,-1.952561,0.2015433,1.299558,0.3849509,-0.6011298,0.04483612,10.71618,16.006,0.02200809,0.02419802,0.08305182,-0.2216048,-3.467377,-0.4490089,0.3273115,1.446216,0.3600173,-0.02671194,0.3407465,0.02565263,-1.258547,0.5260022,-0.02073564,0.5011717,1.474651,0.2344241,-0.1211112,1.272044,0.2390985,284.7998,288.9001,316.6854,True
5,1.133335,-0.09424163,0.260386,-0.2373696,4.674611,-4.570252,-1.951485,0.1995908,1.299579,0.3851161,-0.6008262,0.02730358,10.74271,16.09171,0.02540691,-0.01308735,0.09255014,-0.2199665,-3.470462,-0.4462185,0.3253428,1.446102,0.3596814,-0.006338328,0.3119667,0.04034253,-1.257627,0.5287756,-0.02213619,0.4993764,1.474735,0.2343736,-0.1234544,1.272342,0.2409192,284.8699,289.9402,316.1567,True
5,1.144446,-0.09192792,0.2253504,-0.2052929,4.673835,-4.571809,-1.950595,0.1974908,1.299689,0.3847568,-0.5992219,0.146534,10.76923,16.13456,0.03192969,-0.1439539,0.02088505,-0.2194546,-3.498932,-0.4190345,0.3235703,1.44611,0.3593614,0.004494891,0.2618744,0.05932905,-1.25633,0.5303951,-0.02302436,0.4976292,1.474782,0.2342916,-0.1259082,1.272834,0.2422845,284.7522,291.0242,315.4802,True
5,1.155557,-0.08750712,0.1934537,-0.1934583,4.67321,-4.573822,-1.950017,0.1953781,1.29992,0.3851032,-0.6003452,-0.1038926,10.79576,16.09171,0.02468602,-0.1812919,0.03256886,-0.2175318,-3.510538,-0.4076445,0.3215364,1.446119,0.3590512,-0.006314978,0.2395497,0.03912734,-1.256729,0.5327554,-0.02325605,0.4958293,1.474994,0.2342868,-0.1285223,1.273465,0.2431252,284.5784,291.5871,315.1454,True
5,1.166668,-0.08947583,0.1572357,-0.1901369,4.673444,-4.575913,-1.949036,0.1932893,1.299996,0.3848083,-0.6008283,-0.043045,10.79576,15.98457,0.01844566,-0.149456,0.08273518,-0.2148516,-3.508438,-0.409693,0.3194438,1.446159,0.3586433,-0.01417523,0.2311179,-0.009829007,-1.258564,0.5351251,-0.02350985,0.4940847,1.475103,0.2341864,-0.1310093,1.274225,0.2435989,284.4688,291.965,314.7874,True
5,1.17778,-0.0882665,0.1295933,-0.1751205,4.673343,-4.577431,-1.948298,0.1913309,1.300051,0.3846505,-0.6011857,-0.03236185,10.74271,15.81315,0.008643508,-0.06219072,0.1085217,-0.2140084,-3.494475,-0.4230807,0.3173767,1.446146,0.3582706,0.004831485,0.2258513,-0.0313042,-1.25961,0.5377819,-0.0250963,0.4920308,1.475289,0.2341533,-0.1333655,1.275069,0.2437304,284.3815,292.3234,314.3801,True
5,1.188891,-0.08816965,0.111549,-0.1558836,4.673145,-4.578691,-1.947372,0.1893975,1.300047,0.3843279,-0.6008155,0.03405383,10.71618,15.59888,-0.006666146,0.02192462,0.09918221,-0.2145837,-3.479652,-0.4369664,0.31535,1.44613,0.3578115,0.02502768,0.2248053,-0.03680064,-1.26027,0.540352,-0.02684227,0.4901981,1.475469,0.2341321,-0.1355919,1.275923,0.2437022,284.238,292.5278,314.0027,True
5,1.200002,-0.08277441,0.1031325,-0.1313423,4.672403,-4.579439,-1.94678,0.1875218,1.300093,0.3841338,-0.6010387,-0.02075242,10.74271,15.36319,-0.01886562,0.1124575,0.08025301,-0.2162551,-3.46147,-0.4540035,0.3134038,1.446133,0.3574564,0.04205621,0.2258921,-0.03801457,-1.260854,0.5431924,-0.02863804,0.4883338,1.47577,0.2341039,-0.1377723,1.2767,0.2436053,284.0471,292.7627,313.656,True
5,1.211113,-0.07424988,0.1074977,-0.1111158,4.671279,-4.580424,-1.94633,0.1858261,1.300295,0.3840933,-0.6008981,0.01309688,10.79576,15.10606,-0.04873465,0.1017097,0.06548776,-0.2162455,-3.458327,-0.4555494,0.3115036,1.446266,0.3569789,0.04869016,0.2279841,-0.009316687,-1.260273,0.5461833,-0.03024499,0.486491,1.476127,0.2340372,-0.139847,1.277333,0.2435172,283.886,293.1086,313.2572,True
5,1.222224,-0.066799,0.1118389,-0.09728841,4.670222,-4.581516,-1.94587,0.1841375,1.300302,0.3835781,-0.6012299,-0.0304549,10.90185,14.84894,-0.08169881,0.06005507,0.04748356,-0.2158023,-3.462393,-0.4494463,0.3097219,1.446471,0.3565843,0.0671911,0.2215117,0.03739233,-1.258388,0.5486431,-0.03235075,0.4846759,1.476509,0.2339005,-0.1418498,1.277798,0.2434358,283.8093,293.4628,312.9124,True
5,1.233335,-0.04756157,0.1012903,-0.09086439,4.66971,-4.582422,-1.946096,0.1825188,1.300359,0.3835328,-0.601379,-0.01341852,11.06101,14.63467,-0.08699182,0.04193815,0.04002462,-0.2154977,-3.462256,-0.448549,0.3080319,1.446455,0.3560321,0.08475831,0.1862567,0.09789989,-1.255522,0.5498437,-0.03429592,0.4829239,1.476708,0.2336812,-0.1437356,1.278114,0.2433732,283.8369,293.6788,312.6984,True
5,1.244446,-0.04116131,0.1002675,-0.0866055,4.669008,-4.583563,-1.945912,0.1809188,1.300289,0.3830991,-0.6013343,0.004147242,11.16711,14.46325,-0.06457788,0.09307647,0.08474106,-0.2146108,-3.446355,-0.4640673,0.3063512,1.44643,0.3555257,0.07669878,0.1563261,0.1522385,-1.252234,0.5508201,-0.03518675,0.4812092,1.476957,0.2333939,-0.1455087,1.278335,0.2433577,283.9194,293.8228,312.5792,True
5,1.255558,-0.03466979,0.08116198,-0.07481995,4.668873,-4.583985,-1.945799,0.1794285,1.30034,0.3830569,-0.6019591,-0.05719603,11.24668,14.33469,-0.06459968,0.1409539,0.116798,-0.2138822,-3.427976,-0.4812457,0.3046047,1.446497,0.3551409,0.05027448,0.1456225,0.1758666,-1.249906,0.5524029,-0.03543016,0.4795706,1.477112,0.2331026,-0.14725,1.278482,0.2433504,283.9701,293.9847,312.4828,True
5,1.266669,-0.03038808,0.08234042,-0.04712998,4.667884,-4.583947,-1.945598,0.1779571,1.300183,0.3825555,-0.6015239,0.04021987,11.19363,14.20613,-0.06730598,0.2177367,0.0700881,-0.2169038,-3.408617,-0.4992894,0.3030481,1.446516,0.3548286,-0.002740145,0.1423481,0.206129,-1.246677,0.5540367,-0.03413347,0.4779737,1.477298,0.2328551,-0.1489266,1.27854,0.2433861,283.9642,294.1265,312.3726,True
5,1.27778,-0.01871015,0.1006312,-0.00884822,4.665858,-4.583473,-1.945784,0.1766517,1.300369,0.3827529,-0.6014909,0.002576578,11.06101,14.07757,-0.05483279,0.1487471,-0.03451353,-0.2200005,-3.420256,-0.4876527,0.3014873,1.446545,0.3544469,-0.01956224,0.1316445,0.2328724,-1.243528,0.555471,-0.03385996,0.4764729,1.477499,0.2327275,-0.1505899,1.278504,0.2434413,283.9797,294.2838,312.2697,True
5,1.288891,-0.00703286,0.1113572,-0.002503585,4.664292,-4.583872,-1.946107,0.1752923,1.300278,0.3822069,-0.6013674,0.01123764,10.8488,13.97043,-0.06433641,0.09442579,-0.05906775,-0.2209614,-3.426734,-0.4802896,0.2999797,1.446628,0.3540728,-0.01643184,0.1188783,0.2242998,-1.241342,0.5565028,-0.03410098,0.4749599,1.477687,0.2325447,-0.1521571,1.2784,0.2435061,284.0228,294.3761,312.261,True
5,1.300002,0.01205451,0.126323,-0.01640292,4.662427,-4.585113,-1.946716,0.1742516,1.300634,0.3829231,-0.6016992,-0.03045098,10.6366,13.88472,-0.06831047,0.06026124,-0.03140773,-0.2198264,-3.42685,-0.4791408,0.2986362,1.446801,0.3537395,-0.001946911,0.09448667,0.1708631,-1.241457,0.5567949,-0.03479446,0.4735956,1.477844,0.2324123,-0.1536087,1.278275,0.2434804,284.1507,294.5784,312.1648,True
5,1.311113,0.01203396,0.1305769,-0.01854803,4.661044,-4.585961,-1.946892,0.1728992,1.30059,0.3824532,-0.6017572,-0.005113286,10.4244,13.82044,-0.03901231,0.04849308,0.05576302,-0.2167302,-3.417937,-0.4883846,0.2972599,1.446848,0.3533471,0.01043611,0.07754052,0.1217223,-1.241746,0.5571465,-0.03542883,0.4722466,1.477879,0.2322588,-0.1548861,1.278207,0.2433596,284.3279,294.7875,312.0022,True
5,1.322224,-0.003856661,0.1123898,-0.01952317,4.660552,-4.586164,-1.946476,0.1715323,1.300735,0.3822057,-0.6019069,-0.01374819,10.2122,13.77759,-0.0167456,0.08159687,0.06208734,-0.2170066,-3.407599,-0.4989715,0.2958232,1.446729,0.3529513,-0.006013941,0.0701937,0.06431335,-1.242895,0.5578428,-0.03507197,0.4709357,1.477835,0.2321479,-0.1560898,1.278204,0.2431376,284.4482,294.828,311.8915,True
5,1.333336,-0.02297824,0.09843509,-0.02583623,4.660031,-4.586663,-1.945556,0.1702531,1.300966,0.3820407,-0.6014158,0.04495919,10.15915,13.79901,-0.01473235,0.07632579,0.03863025,-0.2178008,-3.406122,-0.5001398,0.294219,1.446754,0.3525727,-0.02649834,0.07876501,0.03573339,-1.243451,0.5591297,-0.03441789,0.4695655,1.477902,0.2320619,-0.1571852,1.278295,0.2430684,284.5375,294.7067,311.7849,True
5,1.344447,-0.05766249,-0.01039928,-0.03182419,4.663808,-4.585829,-1.943633,0.168997,1.301259,0.3815777,-0.6007516,0.06027609,10.13263,13.82044,-0.05011202,0.06562203,-0.009131033,-0.219485,-3.408271,-0.4962835,0.2926536,1.446695,0.3522069,-0.03766749,0.1225517,-0.02375199,-1.245712,0.5620599,-0.03445012,0.4684007,1.477907,0.2319803,-0.1585033,1.278455,0.2430787,284.5472,295.0212,311.4852,True
5,1.355558,-0.05054738,-0.1690305,-0.01210454,4.670326,-4.582566,-1.943365,0.1675993,1.30181,0.3814101,-0.6001924,0.05071747,10.18567,13.86329,-0.06626341,0.06455167,-0.03993042,-0.2209278,-3.40822,-0.4950521,0.2911541,1.446738,0.3518438,-0.02290928,0.1407058,-0.04195523,-1.246758,0.5643198,-0.03548555,0.4671399,1.477921,0.2318528,-0.1599661,1.278688,0.2431024,284.555,295.2276,311.3911,True
5,1.366669,-0.01834693,-0.2134583,0.03915197,4.672832,-4.579322,-1.944103,0.1661156,1.302383,0.3812838,-0.5993108,0.0802568,10.23872,13.92758,-0.08349056,0.1017758,-0.04508615,-0.2226158,-3.400098,-0.5014783,0.2897437,1.446874,0.3514514,-0.02511872,0.1396574,-0.05152692,-1.247715,0.5659095,-0.03566425,0.4659208,1.477934,0.2317765,-0.1614404,1.279027,0.2430961,284.5244,295.1955,311.5789,True
5,1.37778,0.03603875,-0.2119298,0.1051455,4.673861,-4.575336,-1.946152,0.1645296,1.30247,0.3803313,-0.6011021,-0.1643449,10.23872,13.949,-0.1004203,0.07932621,-0.04077375,-0.2229433,-3.399771,-0.5001414,0.2884361,1.447068,0.3509383,-0.05800773,0.1204447,-0.03531174,-1.247548,0.5666764,-0.03409512,0.4647332,1.477885,0.2316589,-0.1627937,1.279477,0.2429159,284.3197,294.4404,312.5349,True
5,1.388891,0.03533464,-0.0434925,0.1418582,4.668393,-4.574629,-1.94638,0.1633931,1.302359,0.379437,-0.6023138,-0.1093249,10.18567,13.97043,-0.1170698,0.009973794,-0.02057183,-0.2215106,-3.408043,-0.4902376,0.2871348,1.447187,0.3502295,-0.09725194,0.1225175,-0.0147422,-1.247076,0.5681286,-0.03225141,0.4635704,1.477905,0.2315273,-0.1639061,1.28,0.2424148,284.0168,293.4389,313.6293,True
5,1.400002,-0.01973064,0.1245879,0.1424013,4.661344,-4.575657,-1.944393,0.1622752,1.30213,0.3782258,-0.6035916,-0.1162515,10.1061,14.01328,-0.1285422,0.03111675,0.03812528,-0.2199345,-3.398446,-0.4978391,0.2857147,1.447476,0.3495793,-0.1121724,0.1438205,-0.01457894,-1.247328,0.5706488,-0.03137577,0.4623848,1.477855,0.2313468,-0.1648917,1.280524,0.241477,283.8374,293.5002,313.5948,True
5,1.411114,-0.08253986,0.359783,0.151249,4.649677,-4.578219,-1.941273,0.1611661,1.302117,0.3771384,-0.6015666,0.1858539,10.05305,14.14185,-0.1464877,0.05864488,0.08728235,-0.2183931,-3.385223,-0.5085679,0.2841775,1.447604,0.3487849,-0.1173776,0.1757471,0.001505582,-1.246887,0.573884,-0.03102157,0.4612317,1.477933,0.2311497,-0.1658135,1.280847,0.2399304,283.7474,294.6182,312.4722,True
5,1.422225,-0.07994345,0.5037189,0.1827149,4.63893,-4.579094,-1.940501,0.1598401,1.301841,0.3753157,-0.5989732,0.2352376,10.02653,14.33469,-0.2225749,0.1212519,0.05373916,-0.220677,-3.373458,-0.5150229,0.2825434,1.447651,0.3480632,-0.1268227,0.1991563,0.01973502,-1.246208,0.5771497,-0.03038827,0.46018,1.47804,0.2308655,-0.1667253,1.280968,0.2379255,284.0175,295.9562,310.8759,True
5,1.433336,-0.05166585,0.6254385,0.2280908,4.627978,-4.578942,-1.941164,0.1586525,1.301671,0.3739507,-0.5976831,0.116206,10.07958,14.59181,-0.2696928,0.159443,0.03809681,-0.2224064,-3.361911,-0.5217133,0.2810385,1.447807,0.3473864,-0.1342127,0.2119189,0.02834105,-1.245722,0.5799954,-0.02960237,0.4591703,1.478098,0.2306495,-0.1678526,1.281126,0.235742,284.5953,296.6215,309.7516,True
5,1.444447,-0.01804232,0.9944768,0.3141567,4.603537,-4.581537,-1.942402,0.1575448,1.300585,0.3714986,-0.6002855,-0.2384899,10.15915,14.78466,-0.3113658,0.1199577,-0.01287753,-0.2239495,-3.366272,-0.5126132,0.2795214,1.447808,0.3467209,-0.1405933,0.2108613,0.02945642,-1.245462,0.5825402,-0.02866334,0.4582143,1.478226,0.2304015,-0.1692926,1.281718,0.23372,285.3527,297.3177,308.6455,True
5,1.455558,-0.02914169,1.35468,0.365141,4.575872,-4.58615,-1.942233,0.1566471,1.299294,0.3690903,-0.602219,-0.1743297,10.18567,14.87037,-0.3262939,0.0550088,-0.06191777,-0.2250824,-3.378983,-0.4961421,0.2780496,1.447773,0.3459535,-0.1426955,0.1970074,0.03264137,-1.245097,0.584307,-0.02754481,0.4572296,1.47834,0.2301481,-0.1708278,1.282806,0.231894,285.8172,298.8296,307.0256,True
5,1.466669,-0.1314113,1.861429,0.3954654,4.537004,-4.595338,-1.938304,0.1558673,1.297078,0.3661168,-0.6026222,-0.03563294,10.2122,14.84894,-0.3654351,0.02177104,-0.03619586,-0.2241071,-3.38323,-0.4866016,0.276364,1.447894,0.3453684,-0.1340883,0.1639719,0.04102786,-1.244382,0.5850552,-0.0266404,0.4561812,1.478484,0.229877,-0.1721754,1.28424,0.230238,286.22,301.7199,304.1549,True
5,1.47778,-0.2961538,2.251609,0.3751171,4.500694,-4.605482,-1.93104,0.1552673,1.295027,0.363236,-0.6007862,0.1675737,10.2122,14.72038,-0.3750964,0.04515746,-0.03076423,-0.2248049,-3.376683,-0.4884693,0.2747444,1.447817,0.3447933,-0.1468212,0.1511744,0.04643217,-1.2438,0.5864302,-0.02503371,0.4550902,1.47842,0.2296124,-0.173518,1.285869,0.2286638,287.1522,306.7307,299.2523,True
5,1.488891,-0.4697984,2.488293,0.3393341,4.467185,-4.61528,-1.922175,0.1545837,1.293618,0.3610458,-0.5960692,0.4293484,10.13263,14.39897,-0.3884367,0.05380785,-0.1233547,-0.2293679,-3.382905,-0.4776081,0.2731756,1.447552,0.3443162,-0.1691124,0.1511477,0.05620456,-1.24288,0.5882035,-0.02295352,0.4538633,1.478424,0.2294788,-0.1750084,1.287584,0.2272129,288.537,311.7275,294.283,True
5,1.500003,-0.4819829,2.591516,0.3219497,4.435923,-4.623808,-1.918535,0.1539381,1.292369,0.3586636,-0.5922737,0.3432173,10.02653,14.03471,-0.3865035,0.01346231,-0.1873599,-0.232634,-3.396244,-0.4604315,0.2717724,1.447216,0.3439133,-0.1679152,0.1873347,0.07330242,-1.241672,0.5917685,-0.02236176,0.4527041,1.478487,0.2294886,-0.1769601,1.289545,0.2261419,290.4332,316.0024,289.943,True
5,1.511114,-0.4498448,2.545709,0.2794704,4.410571,-4.631506,-1.917367,0.153341,1.292124,0.3575585,-0.5910268,0.1118022,9.8939,13.6276,-0.409961,-0.06427985,-0.2470362,-0.2353787,-3.418012,-0.4338913,0.2706143,1.446856,0.3435917,-0.1316196,0.249113,0.08483723,-1.240404,0.5968893,-0.02381186,0.4515179,1.478595,0.2294769,-0.1792786,1.292073,0.2257843,292.2579,318.763,287.0986,True
5,1.522225,-0.4750524,2.449509,0.2169683,4.388006,-4.63962,-1.913619,0.1527196,1.291956,0.3560658,-0.5971755,-0.5618507,9.814323,13.24191,-0.4087036,-0.08667687,-0.2289813,-0.236404,-3.427603,-0.4200138,0.2694897,1.446782,0.3433976,-0.0880606,0.2843145,0.07175564,-1.240262,0.6015198,-0.02584411,0.4504532,1.478684,0.2294393,-0.1817399,1.295545,0.2264655,293.7834,320.8689,285.0244,True
5,1.533336,-0.4362745,2.088233,0.1319254,4.378784,-4.644606,-1.911778,0.1516132,1.292645,0.3551846,-0.6009258,-0.3371128,9.787797,13.02764,-0.3016244,-0.1981295,-0.2170419,-0.2357515,-3.45383,-0.3949135,0.2685995,1.446828,0.3433495,0.00429441,0.281235,0.03156559,-1.241426,0.6046603,-0.03003779,0.4495062,1.478704,0.2293692,-0.1838436,1.29985,0.228214,294.8943,323.8473,282.3451,True
5,1.544447,-0.2791384,1.707318,0.06702042,4.373932,-4.648225,-1.915271,0.1507037,1.293179,0.3547423,-0.5985902,0.2159091,9.867373,13.22048,-0.1389976,-0.2923808,-0.1573986,-0.2333302,-3.480867,-0.3725211,0.2681405,1.447236,0.3432875,0.06217384,0.224961,-0.05744012,-1.245163,0.6051227,-0.03294517,0.4486575,1.478675,0.2292001,-0.1854192,1.304538,0.2308934,295.6551,327.4305,279.2303,True
5,1.555558,-0.1737142,1.475424,0.03042832,4.365756,-4.652306,-1.918624,0.1500326,1.29357,0.3552403,-0.601223,-0.2428882,10.1061,13.86329,-0.01897703,-0.3336145,-0.06228566,-0.2295458,-3.495591,-0.3614245,0.2671363,1.447371,0.3430278,0.06374361,0.1814125,-0.1278435,-1.24908,0.6054563,-0.03379178,0.4477624,1.478703,0.228982,-0.1868774,1.309243,0.2341752,296.2085,330.9972,276.3907,True
5,1.566669,-0.08729599,1.184727,-0.0411098,4.364457,-4.656364,-1.922177,0.1493881,1.293783,0.3552778,-0.6071677,-0.5414127,10.45093,14.91322,0.1178601,-0.3821551,-0.01308,-0.2259266,-3.518194,-0.345461,0.2663895,1.447407,0.3425655,0.0323277,0.1165366,-0.1937564,-1.253459,0.6042671,-0.03241919,0.4470019,1.478654,0.228658,-0.1882784,1.313551,0.2375664,296.1284,334.2371,274.0294,True
5,1.577781,-0.09263143,0.9233039,-0.161641,4.364434,-4.662782,-1.922784,0.1488412,1.294038,0.3564501,-0.606928,0.02596379,10.87533,16.34883,0.1294494,-0.2278156,0.07664183,-0.2233737,-3.502475,-0.3625281,0.2654326,1.44744,0.3420913,-0.01359372,0.05689638,-0.2094701,-1.256215,0.602825,-0.03012088,0.4461803,1.478728,0.2284322,-0.1892808,1.316779,0.2406438,295.9208,337.4119,271.5193,True
5,1.588892,-0.1521211,0.6224022,-0.2329851,4.3687,-4.666428,-1.920099,0.1480412,1.294176,0.3574402,-0.6063048,0.05586077,11.35279,18.02014,0.1047033,-0.105498,0.1228287,-0.2216789,-3.484739,-0.3801439,0.2644193,1.447484,0.3416541,-0.03029284,0.03018136,-0.1689003,-1.256679,0.602155,-0.02894829,0.4451689,1.478796,0.2281332,-0.1900342,1.318465,0.2432334,296.08,339.687,269.6328,True
5,1.600003,-0.1586344,0.1482474,-0.2516207,4.382579,-4.664934,-1.917328,0.1467362,1.29507,0.3588984,-0.6019399,0.3980398,11.80371,19.71288,0.06811824,0.01043202,0.1424369,-0.2215196,-3.463342,-0.3999035,0.2633874,1.447356,0.3414268,0.005387757,0.04073712,-0.1041865,-1.255606,0.6032882,-0.0306418,0.4440684,1.478903,0.2278712,-0.1907999,1.318371,0.245193,296.0758,340.561,268.9843,True
5,1.611114,-0.1169934,-0.1232218,-0.2507325,4.392099,-4.663964,-1.917319,0.1456745,1.295751,0.3595181,-0.5989599,0.2690275,12.22811,21.36276,0.1251671,0.1352948,0.1487525,-0.2221779,-3.434918,-0.4309282,0.2627237,1.447345,0.341285,0.04009578,0.06404626,-0.02878771,-1.25341,0.6049122,-0.03279763,0.4429006,1.479078,0.2275686,-0.1918914,1.316748,0.2468659,295.9874,339.4274,270.0441,True
5,1.622225,-0.04526009,-0.4595869,-0.2603289,4.408386,-4.661316,-1.91833,0.1444902,1.297094,0.3606482,-0.6004224,-0.1357691,12.59947,22.90551,0.1691438,0.07579148,0.1590461,-0.2196005,-3.43889,-0.4305695,0.2621023,1.447369,0.3411193,0.06078384,0.07141431,0.02539037,-1.251393,0.6061252,-0.03452336,0.4418258,1.479174,0.2271779,-0.1933925,1.31424,0.2484422,295.755,336.9766,272.6179,True
5,1.633336,-0.02451384,-0.583092,-0.2695342,4.418229,-4.661298,-1.918556,0.1436758,1.298273,0.3619423,-0.6032161,-0.2542242,12.89124,24.06256,0.2381003,-0.04759854,0.2063532,-0.2137378,-3.454521,-0.4204063,0.26171,1.447546,0.3410232,0.069776,0.04894667,0.08067584,-1.248683,0.605985,-0.03554761,0.440756,1.479177,0.2268193,-0.1950584,1.311571,0.2497745,295.2985,334.1613,275.916,True
5,1.644447,-0.1087696,-0.5578474,-0.2588795,4.424428,-4.661801,-1.91458,0.1426032,1.299241,0.3623371,-0.6048087,-0.1435882,13.10345,24.89822,0.295163,-0.1550167,0.2345846,-0.2081617,-3.472367,-0.4083406,0.2612202,1.44788,0.3407714,0.05062929,-0.00113182,0.0818067,-1.247647,0.6041896,-0.03489966,0.4397519,1.479129,0.2263522,-0.1965136,1.309221,0.2506402,294.9916,331.9648,278.7008,True
5,1.655559,-0.1783208,-0.4845918,-0.248394,4.42692,-4.663278,-1.910548,0.1414629,1.300227,0.3626726,-0.6030009,0.1661009,13.18302,25.11249,0.2837002,-0.1721806,0.2676436,-0.2035667,-3.474695,-0.4086051,0.2606432,1.448324,0.3404393,0.03454265,-0.03839765,0.06695342,-1.247434,0.6022974,-0.03412388,0.4388883,1.479035,0.2259095,-0.197581,1.307404,0.2508991,294.4944,329.9501,280.9543,True
5,1.66667,-0.2519276,-0.4560788,-0.2303033,4.431581,-4.663661,-1.905794,0.1402464,1.301277,0.3632863,-0.5982797,0.430155,13.12997,24.61967,0.2636969,-0.1861752,0.2996884,-0.1984241,-3.477731,-0.4079105,0.2598012,1.448675,0.339958,0.01287346,-0.07773642,0.02231842,-1.248754,0.599919,-0.0325867,0.4379671,1.478923,0.2254019,-0.1984277,1.306318,0.2508125,294.2359,328.1716,282.5187,True
5,1.677781,-0.266598,-0.5115085,-0.2215831,4.439194,-4.663289,-1.902173,0.1387708,1.302453,0.3636489,-0.5976416,0.05490989,12.91777,23.52689,0.2049178,-0.1257191,0.3118553,-0.1953929,-3.466814,-0.4187533,0.2588459,1.448936,0.3394847,-0.01986716,-0.08928789,-0.07224517,-1.25263,0.5984867,-0.03083674,0.4370716,1.478734,0.2249601,-0.1995604,1.306305,0.2506294,294.2663,326.7302,283.6616,True
5,1.688892,-0.2461312,-0.5560467,-0.1863048,4.446831,-4.661586,-1.900043,0.1375517,1.30364,0.364203,-0.5976091,0.003157341,12.65252,22.11271,0.1641181,-0.005568773,0.3432149,-0.1924922,-3.437887,-0.4475898,0.2577676,1.449134,0.3389931,-0.0329629,-0.0828389,-0.1094141,-1.25497,0.5975938,-0.02977121,0.4362341,1.47869,0.2245753,-0.2009981,1.307595,0.2506174,294.2519,325.925,284.184,True
5,1.700003,-0.2484293,-0.5015301,-0.1268246,4.450127,-4.659651,-1.896667,0.1363899,1.304695,0.3641672,-0.5993135,-0.1555787,12.46684,20.63424,0.09859209,-0.02054489,0.2370305,-0.1928038,-3.442442,-0.4422134,0.2568343,1.449311,0.3383789,-0.03119136,-0.07316785,-0.1520209,-1.257928,0.5970629,-0.02932167,0.4352464,1.478693,0.2242317,-0.2025396,1.310129,0.2509015,293.8276,325.927,284.0105,True
5,1.711114,-0.2393444,-0.3789306,-0.1133883,4.450173,-4.660657,-1.894668,0.1353083,1.305751,0.3641207,-0.6012959,-0.1801596,12.36074,19.19863,0.05808011,-0.02176376,0.2308646,-0.190596,-3.438677,-0.4452289,0.2558889,1.44961,0.3378346,-0.02593503,-0.07315451,-0.1605891,-1.25995,0.5960625,-0.02893045,0.434303,1.478717,0.223906,-0.2039622,1.313557,0.2514271,292.9955,326.9705,282.9325,True
5,1.722225,-0.2611062,-0.2725133,-0.1201072,4.450225,-4.662304,-1.891514,0.1340838,1.306609,0.3639185,-0.5998771,0.1306315,12.38727,17.8273,0.02217986,-0.0241542,0.2853966,-0.1859238,-3.430078,-0.4528591,0.2551319,1.450015,0.3372526,-0.02156489,-0.0646531,-0.1467617,-1.261058,0.5955701,-0.0286399,0.4333097,1.47868,0.2235396,-0.2049477,1.317323,0.2520406,292.1675,329.072,280.8847,True
5,1.733337,-0.2676558,-0.2331155,-0.1170276,4.452124,-4.662938,-1.888577,0.1326696,1.307741,0.3640153,-0.5996571,0.01811674,12.51989,16.58453,0.02902666,-0.1061968,0.3065037,-0.1804963,-3.439984,-0.4436832,0.2543038,1.45032,0.3366079,-0.01615409,-0.04762876,-0.1361201,-1.262192,0.5955538,-0.02868038,0.4323273,1.478697,0.2231131,-0.2057143,1.321028,0.2525214,291.7511,331.4979,278.5567,True
5,1.744448,-0.2570857,-0.2192989,-0.1405207,4.454619,-4.66466,-1.886533,0.1312107,1.308573,0.3639903,-0.5975606,0.1909104,12.81167,15.79173,0.04638442,-0.1402927,0.3383105,-0.1744445,-3.442559,-0.4424371,0.2535398,1.450612,0.3358626,-0.03953496,-0.0210176,-0.127351,-1.26331,0.5963467,-0.02763616,0.4313114,1.478641,0.2225971,-0.2065676,1.324348,0.2528682,291.5549,333.586,276.4464,True
5,1.755559,-0.2613267,-0.2268013,-0.1511521,4.458194,-4.66585,-1.883844,0.1299378,1.309466,0.3641877,-0.5969358,0.05469304,13.12997,15.47032,0.07743171,-0.1593779,0.3519391,-0.1697771,-3.444179,-0.4427372,0.2524753,1.451153,0.3356829,-0.06183542,-0.02210797,-0.1186439,-1.264312,0.5959753,-0.02602441,0.4302494,1.478562,0.2220778,-0.2077599,1.327073,0.2531562,291.3734,334.8741,275.0563,True
5,1.76667,-0.2988767,-0.1641067,-0.1513191,4.45823,-4.667758,-1.879604,0.1285398,1.309989,0.3641999,-0.596506,0.03804261,13.44828,15.57746,0.05155367,-0.09022295,0.3468912,-0.1670074,-3.427523,-0.4588187,0.2510973,1.4514,0.3348796,-0.08314571,-0.03596495,-0.1195631,-1.265726,0.594906,-0.02404355,0.4291191,1.478447,0.2215374,-0.2092941,1.32913,0.2534524,291.1019,335.445,274.4015,True
5,1.777781,-0.2871123,-0.1757983,-0.1587508,4.460864,-4.668981,-1.876977,0.1269139,1.310993,0.3643706,-0.5948138,0.1534532,13.687,16.006,0.007339269,0.05233049,0.3548777,-0.1656875,-3.388799,-0.4955567,0.2498204,1.451493,0.3341267,-0.09052113,-0.01467503,-0.1088068,-1.266615,0.5955085,-0.02298974,0.4278125,1.478424,0.220963,-0.2110131,1.330433,0.2538334,290.8177,335.6612,274.1541,True
5,1.788892,-0.2421231,-0.2331453,-0.1618028,4.465933,-4.669333,-1.876077,0.1254863,1.312059,0.3644695,-0.5917161,0.2809087,13.74005,16.43454,0.01973619,0.1557031,0.3603441,-0.1643682,-3.348637,-0.5358991,0.2486922,1.451647,0.3334386,-0.08074445,0.0151073,-0.08539511,-1.266824,0.5966174,-0.02284646,0.4265637,1.478416,0.2204361,-0.2127419,1.331031,0.2543614,290.658,335.3906,274.452,True
5,1.800003,-0.1812692,-0.2680929,-0.1766656,4.470747,-4.670382,-1.876467,0.1242573,1.313016,0.3644705,-0.5919775,-0.02719242,13.5809,16.82023,0.05785967,0.1091333,0.2865286,-0.1636715,-3.349597,-0.5369974,0.2476208,1.451799,0.3327188,-0.05255914,0.05016879,-0.02483842,-1.265074,0.5985813,-0.02380546,0.4252815,1.478489,0.2198668,-0.2146304,1.331216,0.2550822,290.764,334.5891,275.3768,True
5,1.811115,-0.1655758,-0.208486,-0.2120326,4.471892,-4.673818,-1.875841,0.1229018,1.313698,0.3643103,-0.5926055,-0.05814056,13.28912,17.14163,0.04322913,-0.0442099,0.226658,-0.1603106,-3.379616,-0.5073317,0.2466183,1.452139,0.3318996,-0.02983785,0.05222661,0.01758669,-1.263612,0.5991937,-0.02437725,0.4240472,1.478576,0.2192345,-0.2165885,1.331261,0.2559257,290.7631,333.5779,276.6751,True
5,1.822226,-0.2063265,-0.156615,-0.2600991,4.473286,-4.678213,-1.873365,0.1215565,1.314281,0.3644001,-0.592132,0.04239705,12.81167,17.3559,0.05765116,-0.07838795,0.3032151,-0.1541299,-3.371152,-0.5166535,0.2455545,1.452495,0.3311768,-0.02454607,0.03093897,0.01217814,-1.263682,0.5988935,-0.02419775,0.4228458,1.478613,0.2186298,-0.2183009,1.331225,0.2567212,290.5659,332.8873,277.746,True
5,1.833337,-0.2447628,-0.1397667,-0.2718275,4.475228,-4.681109,-1.869931,0.1201406,1.314968,0.3641939,-0.5889463,0.2897366,12.22811,17.50589,0.1056588,-0.05162589,0.3349533,-0.1501719,-3.351654,-0.5387761,0.2445163,1.452897,0.3303068,-0.03206395,0.008577801,0.003674872,-1.264022,0.5981733,-0.02335672,0.4216182,1.478659,0.2179592,-0.2197826,1.331087,0.2573751,290.3879,332.5988,278.3045,True
5,1.844448,-0.2553001,-0.1675123,-0.2727907,4.478765,-4.683317,-1.867164,0.1185896,1.315716,0.3644218,-0.5853005,0.3300863,11.69761,17.52732,0.133283,-0.007867187,0.3529932,-0.1472717,-3.326543,-0.5660685,0.2433262,1.453369,0.3295314,-0.05243795,0.002206611,-0.01214797,-1.264642,0.5980493,-0.0220081,0.4203698,1.478671,0.2171965,-0.2214031,1.330914,0.2580049,290.4039,332.2642,278.6854,True
5,1.855559,-0.216784,-0.2067167,-0.260979,4.482919,-4.684546,-1.866338,0.1173334,1.316653,0.3646243,-0.5834805,0.1631711,11.37931,18.34155,0.1364226,0.04961327,0.383974,-0.1443018,-3.293173,-0.6005793,0.2420083,1.453623,0.328747,-0.07400008,0.006516207,-0.04285723,-1.266178,0.5982085,-0.02049782,0.4191268,1.47871,0.2164133,-0.2232792,1.330873,0.2588204,290.4546,331.5515,279.3964,True
5,1.86667,-0.179491,-0.2065356,-0.2535616,4.485866,-4.686352,-1.866079,0.1160137,1.317458,0.3646884,-0.5835295,-0.006080804,11.32626,20.16284,0.150895,0.0955718,0.3381785,-0.1439561,-3.268861,-0.6267741,0.2407727,1.453945,0.3278558,-0.08043137,0.009716157,-0.04705712,-1.266766,0.5983981,-0.01945386,0.4178867,1.478812,0.2156477,-0.2253151,1.331195,0.2598408,290.4354,330.802,280.3166,True
5,1.877781,-0.1690558,-0.1596832,-0.2728966,4.486969,-4.689834,-1.865422,0.1147747,1.318187,0.364392,-0.5851135,-0.1451212,11.56498,22.99121,0.1250337,0.0434528,0.2487426,-0.1432738,-3.276401,-0.6199219,0.2395459,1.45416,0.327023,-0.0727585,9.1739E-05,-0.02156824,-1.266138,0.5982207,-0.01886423,0.4165854,1.478961,0.2149684,-0.2272645,1.331979,0.2610163,290.2649,330.3976,280.9818,True
5,1.888893,-0.1797294,-0.1587476,-0.2995328,4.489941,-4.693645,-1.863904,0.1134961,1.319177,0.3647103,-0.5850262,0.008741759,12.01592,26.82665,0.07267648,0.02626956,0.2095937,-0.1420472,-3.272647,-0.6226739,0.2383161,1.45449,0.3261933,-0.06835036,-0.01272872,-0.004587114,-1.265706,0.59752,-0.01803439,0.4154185,1.479092,0.2142255,-0.2288281,1.333122,0.2622045,289.9953,330.7537,280.9418,True
5,1.900004,-0.1851228,-0.1514252,-0.3336411,4.492687,-4.698079,-1.862638,0.1122057,1.319971,0.3649201,-0.5835252,0.1365606,12.57294,30.72638,0.08990179,0.02521241,0.240384,-0.1392263,-3.255191,-0.6415827,0.2371188,1.455085,0.3254588,-0.0554305,-0.01808011,0.01234505,-1.264947,0.5971762,-0.0176517,0.4141451,1.479166,0.2135096,-0.230175,1.334436,0.2632881,289.7656,331.7528,280.2193,True
5,1.911115,-0.1849964,-0.1812466,-0.3303433,4.496546,-4.700475,-1.861102,0.1108162,1.320561,0.3645883,-0.5818746,0.149363,13.23607,34.36897,0.1637259,0.02326775,0.2953609,-0.1351064,-3.230361,-0.670613,0.2360008,1.455449,0.3245518,-0.05544209,-0.003168233,0.01130799,-1.264899,0.5976139,-0.01719763,0.4128463,1.479252,0.2127123,-0.2315405,1.335771,0.264277,289.5978,332.6617,279.4463,True
5,1.922226,-0.1805111,-0.2366514,-0.3386881,4.501942,-4.703097,-1.859819,0.1095194,1.321407,0.3648565,-0.5814309,0.03904363,13.97878,37.7973,0.1648212,0.007319897,0.2910763,-0.1324694,-3.21705,-0.6854401,0.2348598,1.455732,0.3236525,-0.06400847,0.004292741,0.007135252,-1.264934,0.5979466,-0.01619921,0.4116308,1.479311,0.2119765,-0.2330665,1.33707,0.2653373,289.3384,332.9459,279.1297,True
5,1.933337,-0.1836647,-0.2516276,-0.354618,4.506242,-4.706554,-1.858372,0.1083176,1.322464,0.3654454,-0.5812733,0.01402377,14.74801,40.71138,0.1347663,0.04344162,0.2764046,-0.131623,-3.195319,-0.7073423,0.2337607,1.456116,0.3227334,-0.08322797,0.004294217,0.001964826,-1.265147,0.5979451,-0.01460744,0.4104157,1.479472,0.2111664,-0.2347442,1.338265,0.2665907,289.0506,333.2943,278.8651,True
5,1.944448,-0.1837867,-0.2271855,-0.3728084,4.509249,-4.710711,-1.857183,0.1071222,1.323244,0.3656058,-0.5809398,0.02974423,15.30504,42.25412,0.08349957,0.07095034,0.2671858,-0.1305913,-3.16944,-0.7325429,0.2326232,1.45665,0.3217683,-0.0971192,0.003233075,-0.003249358,-1.265367,0.5979295,-0.01311926,0.4093055,1.479642,0.2102506,-0.2364437,1.339264,0.2678792,288.7545,333.8553,278.6263,True
5,1.955559,-0.182924,-0.1814222,-0.3857426,4.510944,1.568078,-1.856137,0.1059343,1.323691,0.3651483,-0.5798607,0.09773787,15.64987,42.48982,0.07948387,0.07298009,0.3108925,-0.1275127,-3.13895,-0.7636103,0.2315735,1.456969,0.3207257,-0.07574924,-0.001029141,0.004023613,-1.265069,0.5978481,-0.0129688,0.4082137,1.479653,0.2092915,-0.2380649,1.340032,0.2691493,288.4401,333.9114,278.8016,True
5,1.966671,-0.1744839,-0.1708007,-0.4102754,4.513751,1.563453,-1.85532,0.1048508,1.324432,0.3655472,-0.578886,0.087433,15.78249,41.48275,0.143757,0.06675225,0.3680483,-0.1236926,-3.100155,-0.8058888,0.2305069,1.457199,0.3197424,-0.05116881,-0.007432798,0.01340211,-1.264507,0.5974825,-0.01304976,0.4071657,1.479744,0.2083404,-0.2396455,1.340627,0.2705094,288.2263,333.5338,279.2898,True
5,1.977782,-0.158345,-0.2134046,-0.4282623,4.518794,1.559315,-1.854864,0.1035922,1.325169,0.3658814,-0.5776663,0.109742,15.75597,39.6186,0.2206558,0.0393458,0.3792892,-0.1201837,-3.07439,-0.8366158,0.2294054,1.457633,0.3188088,-0.04265933,-0.005291319,0.01227165,-1.2644,0.5976106,-0.01282179,0.4061458,1.479813,0.207372,-0.2412507,1.341067,0.2720008,288.1208,333.5006,279.5598,True
5,1.988893,-0.1337892,-0.223927,-0.4175971,4.52277,1.556116,-1.85474,0.1022698,1.325788,0.3656037,-0.5762793,0.1246159,15.67639,37.81873,0.2163553,0.04891369,0.3793357,-0.118042,-3.042869,-0.8699615,0.2281922,1.457949,0.3179266,-0.06094409,0.001124578,-0.008876175,-1.265289,0.5977326,-0.01158954,0.4050518,1.479887,0.2063782,-0.2428725,1.341327,0.2735476,288.0728,333.7023,279.6935,True
5,2.000004,-0.1019074,-0.1948934,-0.3761797,4.524702,1.553766,-1.855175,0.1011574,1.326231,0.3656843,-0.5748247,0.1303256,15.54376,36.08314,0.1986253,0.09164882,0.288986,-0.1196335,-3.024522,-0.889814,0.2268826,1.457964,0.3169787,-0.1099287,-0.01700022,-0.007436052,-1.265289,0.597017,-0.008584167,0.4039895,1.480022,0.2053444,-0.2444861,1.341405,0.2751846,287.9221,333.5032,280.1324,True
5,2.011115,-0.09895445,-0.1329452,-0.3337548,4.524523,1.551578,-1.854233,0.1003929,1.326647,0.36586,-0.5731106,0.1537735,15.27851,34.58324,0.1638633,0.142799,0.2083219,-0.1221677,-3.009264,-0.9057446,0.225586,1.458052,0.316093,-0.1607026,-0.05012779,0.03447234,-1.263526,0.5952442,-0.004683169,0.4028107,1.480206,0.2043841,-0.2461611,1.341279,0.2768685,287.6787,333.26,280.7106,True
5,2.022226,-0.1238636,-0.03611079,-0.3351122,4.522949,1.547163,-1.85294,0.09966764,1.326867,0.3655136,-0.57128,0.1641188,14.90716,33.38333,0.1397015,0.1472161,0.08490485,-0.1254956,-3.017794,-0.8980294,0.2244179,1.458121,0.3148859,-0.1677723,-0.064063,0.08031096,-1.261176,0.5940834,-0.002314553,0.4016802,1.480459,0.2035379,-0.247816,1.340921,0.2784081,287.5676,333.2218,281.2127,True
5,2.033337,-0.1411835,0.02132192,-0.3469845,4.521928,1.542392,-1.851441,0.098928,1.327457,0.3657644,-0.567045,0.3835738,14.45623,32.44054,0.09897222,0.1598984,0.05107164,-0.127298,-3.010139,-0.9054561,0.2235741,1.45836,0.3138795,-0.1362542,-0.06739204,0.1546222,-1.256906,0.5931549,-0.001755822,0.4006052,1.480629,0.2026067,-0.2492181,1.340295,0.2796545,287.6525,333.1329,281.6724,True
5,2.044448,-0.1413602,0.06609535,-0.3375442,4.520627,1.538353,-1.850593,0.09825894,1.327935,0.3655617,-0.5629337,0.370232,13.95225,31.79773,0.04270607,0.1436532,0.0737364,-0.1272277,-2.992903,-0.9210159,0.2228345,1.458938,0.3130033,-0.08382358,-0.05144059,0.1829806,-1.253942,0.5931863,-0.002610963,0.3996006,1.480742,0.2016468,-0.2503619,1.339495,0.2805637,287.905,332.6444,282.4042,True
5,2.055559,-0.08169223,0.08364481,-0.2620221,4.51952,1.537483,-1.851757,0.09752366,1.328589,0.3655734,-0.5592366,0.3325099,13.52785,31.73345,0.07257592,0.07106248,0.21511,-0.121609,-2.954171,-0.9614033,0.2222909,1.459539,0.3122153,-0.05754094,-0.0289885,0.1412533,-1.253881,0.5934996,-0.002921754,0.3987526,1.480888,0.2006838,-0.2514929,1.338687,0.2812619,288.1801,331.7341,283.3813,True
5,2.06667,-0.05717375,0.08703449,-0.2343622,4.518956,1.535511,-1.85231,0.09676668,1.329001,0.3654082,-0.5563413,0.2592095,13.23607,32.29055,0.1645148,0.04366699,0.2518129,-0.1192761,-2.92745,-0.992763,0.2217847,1.459895,0.3113894,-0.06115956,-0.03634667,0.0901319,-1.254682,0.5928681,-0.001825331,0.3979039,1.480978,0.1997902,-0.2526979,1.338046,0.2820074,288.3993,330.5479,284.5051,True
5,2.077781,-0.001892183,0.1290289,-0.1695648,4.51615,1.535229,-1.854232,0.09623817,1.328945,0.3645532,-0.5549586,0.1213166,13.02387,33.46904,0.1972362,-0.05182561,0.1310642,-0.1177655,-2.962139,-0.9615476,0.2211193,1.459863,0.3104172,-0.08527514,-0.0766878,0.006094277,-1.257315,0.590421,0.0007520767,0.3973058,1.48109,0.1987994,-0.253842,1.337622,0.2828456,288.6001,329.8978,285.2546,True
5,2.088892,-0.02655215,0.1672696,-0.1707273,4.513841,1.532271,-1.853528,0.09552065,1.328977,0.363827,-0.5498932,0.4588425,12.91777,35.11892,0.1756194,-0.02308248,0.09714741,-0.1184904,-2.958046,-0.9667056,0.2200918,1.459785,0.3096137,-0.07349281,-0.1427415,0.01013717,-1.256915,0.5865529,0.002316684,0.3963675,1.481232,0.1979027,-0.2547931,1.337292,0.2835651,288.7192,330.1028,285.3358,True
5,2.100003,-0.07787891,0.2139384,-0.1676289,4.510496,1.529452,-1.851462,0.09485084,1.328882,0.3634281,-0.5466143,0.2922185,12.99735,37.09021,0.1181285,0.05965032,0.1626145,-0.1192681,-2.911512,-1.0122,0.219247,1.459758,0.3087561,-0.05766302,-0.1725209,-0.009221915,-1.257586,0.5836778,0.00330951,0.3955837,1.481381,0.1970828,-0.2556069,1.336847,0.2839769,288.8067,330.757,285.0249,True
5,2.111114,-0.1141529,0.237371,-0.1282737,4.507284,1.52791,-1.849311,0.09438205,1.329712,0.3647132,-0.5386164,0.7253628,13.1565,40.1757,0.03286536,0.07208281,0.16526,-0.1191743,-2.893184,-1.027962,0.2184819,1.459666,0.3081295,-0.03613195,-0.1992003,0.01612012,-1.256496,0.5803978,0.003978496,0.3946608,1.481444,0.1962729,-0.2562558,1.336044,0.2838462,288.9627,331.7018,284.3927,True
5,2.122225,-0.1195066,0.2599201,-0.06761998,4.503485,1.528112,-1.847753,0.09372845,1.329651,0.3644345,-0.5319116,0.6031822,13.34218,44.58968,0.02981149,0.04543196,0.1726813,-0.1178001,-2.879757,-1.041421,0.2178593,1.45978,0.307898,-0.01360012,-0.2088117,0.03509337,-1.255397,0.5777083,0.004199272,0.3938382,1.481413,0.1955199,-0.2571493,1.33486,0.2832813,289.2026,331.4993,284.559,True
5,2.133336,-0.1217093,0.2834181,-0.04318435,4.49983,1.527494,-1.84663,0.09300929,1.329431,0.3636651,-0.5269964,0.4411646,13.55437,50.18213,0.09697337,-0.02558954,0.1306127,-0.1153271,-2.892054,-1.032799,0.2175446,1.459668,0.3075831,0.006516274,-0.184283,0.02112135,-1.255707,0.5763579,0.003890878,0.3931275,1.481486,0.1948018,-0.2582225,1.333512,0.2826492,289.6014,329.8106,285.7704,True
5,2.144447,-0.1173962,0.2749629,-0.02824692,4.49707,1.526961,-1.845575,0.09245369,1.329411,0.3633866,-0.5229425,0.363658,13.66048,56.54596,0.1915778,-0.1453393,0.009462073,-0.1128371,-2.948133,-0.9824539,0.2171012,1.459424,0.3072896,0.01063152,-0.1576173,0.005157867,-1.256209,0.5755159,0.00392976,0.3923648,1.481549,0.1940942,-0.2592534,1.332344,0.2823753,290.0833,327.6963,287.3729,True
5,2.155558,-0.1108903,0.2440451,-0.04199467,4.495986,1.525566,-1.84489,0.09175602,1.329301,0.3626266,-0.5180935,0.4367188,13.66048,62.7598,0.2191951,-0.1824262,-0.03231899,-0.1112722,-2.977298,-0.9568484,0.2165141,1.459302,0.3068695,-0.002217732,-0.1437611,-0.002168385,-1.256478,0.574277,0.004801147,0.3916381,1.481592,0.1934109,-0.2601867,1.331416,0.2823206,290.4709,327.2194,287.9556,True
5,2.166669,-0.09478819,0.2099631,-0.06000999,4.495335,1.523957,-1.84479,0.0910742,1.329296,0.3624451,-0.5128087,0.4756733,13.5809,68.5451,0.1817981,-0.1527504,-0.03097862,-0.1109867,-2.980089,-0.9546495,0.2158896,1.459254,0.3062112,-0.01287683,-0.1054145,-0.0009393487,-1.256379,0.5744408,0.005275722,0.390907,1.481697,0.1927917,-0.2610342,1.330635,0.2822267,290.7343,327.665,287.8528,True
5,2.17778,-0.08412638,0.204647,-0.06959756,4.493655,1.522224,-1.844527,0.09059748,1.328867,0.3613763,-0.5073631,0.4898716,13.42175,73.92329,0.1082297,-0.1179179,-0.01770862,-0.1108301,-2.977488,-0.9558492,0.215169,1.459321,0.305665,-0.005427334,-0.07664815,0.000119837,-1.256315,0.5746149,0.005092763,0.3901437,1.481696,0.1921899,-0.2617871,1.329878,0.2819824,290.8733,328.0627,287.6701,True
5,2.188891,-0.07252546,0.2356057,-0.06224277,4.490193,1.521014,-1.844391,0.09021366,1.328451,0.3606646,-0.5020538,0.4772325,13.20955,78.63724,0.07770752,-0.04263724,0.1008614,-0.1096051,-2.929935,-1.002966,0.2146229,1.459409,0.3050821,0.01789145,-0.09365384,-0.01502072,-1.256992,0.5729153,0.004656005,0.3894553,1.481698,0.1916654,-0.2625972,1.328995,0.2815756,290.9012,328.1397,287.6239,True
5,2.200002,-0.03518791,0.2337612,-0.02286173,4.487453,1.52137,-1.845156,0.0897207,1.328442,0.3603826,-0.495732,0.5696098,13.02387,81.89415,0.08616035,0.06805465,0.1670685,-0.1114362,-2.876279,-1.057626,0.2140685,1.459388,0.3047175,0.04561893,-0.1085577,-0.01208042,-1.25704,0.5711981,0.003820305,0.3886839,1.481665,0.1911483,-0.2634281,1.32784,0.281122,290.9417,328.0288,287.6564,True
5,2.211113,-0.01597892,0.2286004,-0.00155066,4.484829,1.521457,-1.845407,0.08932951,1.328584,0.360574,-0.4894794,0.5622924,12.81167,83.56545,0.1017784,0.05865921,0.09878025,-0.1123774,-2.888959,-1.046656,0.213527,1.459322,0.3042772,0.04576087,-0.1032605,0.004975608,-1.256368,0.5702639,0.003606453,0.3878734,1.481675,0.1906815,-0.2641552,1.326284,0.2805854,291.1438,328.019,287.7112,True
5,2.222224,-0.02982414,0.2285531,0.001660857,4.482299,1.520922,-1.844732,0.08882317,1.328502,0.3603113,-0.4838905,0.5013847,12.54642,83.69402,0.0695508,0.03733884,0.03606353,-0.1128712,-2.906179,-1.029208,0.2130914,1.459133,0.3042481,0.01945854,-0.07671751,0.04679556,-1.254356,0.5703021,0.004402472,0.3871131,1.48169,0.190273,-0.2647479,1.324337,0.279933,291.5533,327.6427,288.1288,True
5,2.233335,-0.06392699,0.2294515,-0.005763724,4.479858,1.519755,-1.842981,0.08809105,1.328296,0.3596914,-0.4761008,0.7027714,12.25464,82.68695,0.0629932,-0.001995087,-0.02043977,-0.1128648,-2.927443,-1.008558,0.2127021,1.458972,0.3040149,0.02717394,-0.03949901,0.07982516,-1.252385,0.5710242,0.003657319,0.386424,1.481787,0.1898599,-0.2652385,1.322071,0.2791219,292.0096,326.6892,289.0372,True
5,2.244446,-0.09906746,0.2239536,-0.01316353,4.477689,1.518708,-1.840881,0.08751181,1.328223,0.3596263,-0.4671232,0.8090653,11.88329,81.48705,0.05039478,-0.07977112,-0.04396002,-0.1106171,-2.955889,-0.9805391,0.2122379,1.459093,0.3038642,0.0464514,-0.03844558,0.0924557,-1.250893,0.5706404,0.002589924,0.3857087,1.481812,0.1894488,-0.2657138,1.319579,0.2782342,292.4751,325.395,290.1838,True
5,2.255557,-0.09563751,0.164273,-0.02359745,4.477895,1.518533,-1.840006,0.08720753,1.328361,0.3599055,-0.457612,0.8570392,11.51194,80.09428,0.06015919,-0.1202233,-0.04196441,-0.1086186,-2.970954,-0.9665688,0.2118348,1.459218,0.3035784,0.0847131,-0.0480015,0.0814667,-1.250343,0.5696301,0.0007331682,0.3851892,1.481958,0.1891546,-0.2663903,1.31696,0.2773405,292.941,324.2377,291.2604,True
5,2.266668,-0.07845408,0.1302445,-0.0267003,4.477765,1.518069,-1.839837,0.08665115,1.328471,0.3598921,-0.4486031,0.8103961,11.24668,78.46582,0.07197742,-0.1478689,-0.04421624,-0.1068098,-2.989233,-0.9496084,0.2113783,1.459257,0.3032875,0.09194188,-0.04581933,0.05370644,-1.250748,0.5691257,-0.0003549994,0.3846056,1.48196,0.1887999,-0.2673446,1.314335,0.2764984,293.4245,323.1266,292.3082,True
5,2.277779,-0.03253293,0.1048913,-0.01921043,4.477439,1.518049,-1.841081,0.08606547,1.32835,0.3590374,-0.4408852,0.6923404,11.08753,76.66595,0.07406978,-0.1084824,-0.02391928,-0.1068615,-2.98506,-0.9546947,0.2108126,1.459373,0.3030353,0.07771132,-0.02869193,0.009114359,-1.252084,0.5694661,-0.0007582019,0.3840567,1.481959,0.1883783,-0.2682622,1.311826,0.2758217,293.8752,321.8647,293.4132,True
5,2.28889,-0.02615432,0.1070388,-0.02242319,4.476195,1.51729,-1.841116,0.08552989,1.328389,0.3588357,-0.4318204,0.8158837,11.06101,74.73752,0.08353522,-0.01691245,0.01987121,-0.108241,-2.960871,-0.9799597,0.2100424,1.459298,0.3026681,0.04332059,0.005448282,-0.02569122,-1.253491,0.5707101,-0.0005222459,0.3834389,1.482041,0.1880774,-0.2688919,1.309427,0.2753559,294.1631,320.7527,294.4093,True
5,2.300001,-0.02301383,0.1230486,-0.01609007,4.474388,1.516819,-1.841109,0.08507016,1.328164,0.3580899,-0.4226847,0.8205732,11.16711,72.89479,0.08120597,0.05867873,0.03813609,-0.1102431,-2.938319,-1.003259,0.20943,1.459289,0.3024142,0.01248089,0.02886338,-0.01793613,-1.253381,0.571894,-6.151902E-05,0.3828157,1.48207,0.1877987,-0.2694159,1.307009,0.2750147,294.3921,320.2517,295.0372,True
5,2.311112,-0.02089706,0.1305767,-0.006566636,4.472441,1.515864,-1.841167,0.08486572,1.328857,0.3594985,-0.4100437,1.140636,11.37931,70.98779,0.02357918,0.05528967,0.0182264,-0.1108637,-2.939828,-1.000191,0.2087606,1.459462,0.3020554,0.007367577,0.02987519,0.007672812,-1.25246,0.572166,-0.0001291633,0.3821901,1.482188,0.1875374,-0.2698752,1.304326,0.2745228,294.6195,320.2114,295.3675,True
5,2.322223,-0.001611715,0.1061795,0.00094961,4.471992,1.516057,-1.841783,0.08438176,1.328712,0.3593345,-0.3978598,1.095651,11.67109,68.99507,-0.03611801,0.05505361,0.0111087,-0.1112509,-2.939783,-0.997822,0.2081949,1.459422,0.3019383,0.01724278,0.01277425,0.04165142,-1.250826,0.5717342,-0.0005488775,0.3814832,1.482285,0.1873748,-0.2703318,1.30125,0.2737921,295.0118,319.8367,295.8966,True
5,2.333334,-0.01971633,0.1093291,0.01161256,4.470694,1.516161,-1.841045,0.08365121,1.32807,0.3580525,-0.3851272,1.145972,12.06897,66.91665,-0.05224931,0.05397416,-0.01649351,-0.1122996,-2.944416,-0.9921708,0.2077031,1.459325,0.3017831,0.03452701,0.01379277,0.0702727,-1.249158,0.5718908,-0.001607484,0.3806697,1.482385,0.1872084,-0.2706841,1.297771,0.2728104,295.5945,318.7713,296.8237,True
5,2.344445,-0.02290655,0.1082541,0.01268502,4.469513,1.516019,-1.84071,0.0831863,1.328026,0.3579154,-0.3726476,1.121969,12.38727,64.79537,-0.02465113,0.02220099,-0.05613377,-0.1126863,-2.964437,-0.9730858,0.2072265,1.459155,0.3017523,0.05712485,0.03612375,0.09889347,-1.247127,0.5731695,-0.003343066,0.3800566,1.482482,0.1871173,-0.2708519,1.294027,0.2719143,296.2874,317.0398,298.1283,True
5,2.355556,0.004901279,0.08181452,0.0298423,4.468657,1.517562,-1.841132,0.08310208,1.328405,0.3600514,-0.3575315,1.362916,12.62599,62.63124,-0.01297698,0.0265193,-0.06045842,-0.1136078,-2.966292,-0.9714258,0.206806,1.45909,0.3016639,0.07416897,0.04784698,0.09983369,-1.246179,0.5741091,-0.004901282,0.3794365,1.48248,0.187,-0.2710775,1.28992,0.2709995,296.7885,316.0495,299.1845,True
5,2.366668,0.009242604,0.06697099,0.04586589,4.468149,1.518562,-1.841166,0.08263728,1.328328,0.3600187,-0.3434759,1.263639,12.78515,60.12428,-0.02575622,-0.02140725,-0.09350147,-0.1133271,-2.991642,-0.9455127,0.2063422,1.459037,0.3014991,0.08993518,0.05003177,0.07413907,-1.246225,0.5748038,-0.006700247,0.3789557,1.482474,0.1868503,-0.2714646,1.285414,0.2697782,297.3761,315.3473,300.1896,True
5,2.377779,0.002912764,0.05414492,0.0437922,4.467964,1.519068,-1.840981,0.08190635,1.327858,0.3586521,-0.3300392,1.207858,12.78515,57.18877,-0.03942461,-0.06194568,-0.0913775,-0.1122544,-3.010543,-0.9258213,0.2057945,1.459178,0.3013198,0.06506054,0.01707988,0.02740811,-1.247484,0.5737011,-0.006207296,0.3784941,1.48246,0.186657,-0.2715846,1.280688,0.2683356,298.1838,313.7628,301.5103,True
5,2.38889,-0.00446162,0.03818633,0.0523361,4.467678,1.519146,-1.840713,0.08165413,1.32868,0.3598652,-0.3146189,1.38933,12.70557,53.88901,-0.02423472,-0.04389128,-0.03070224,-0.1112994,-2.995742,-0.9408056,0.2052646,1.459126,0.3011353,0.03709506,0.00434689,-0.005409334,-1.248691,0.5732624,-0.005495166,0.3779781,1.482436,0.1865749,-0.2712143,1.275913,0.2670352,299.0495,311.788,302.8921,True
5,2.400001,-0.007568742,0.02118138,0.06837536,4.467638,1.520552,-1.840172,0.08125886,1.328723,0.3598573,-0.2988962,1.415226,12.59947,50.41782,-0.01060678,0.01581218,-0.02747329,-0.1131961,-2.986761,-0.9501328,0.2047594,1.458988,0.3009329,0.00296818,0.02564367,-0.009350517,-1.248839,0.5743537,-0.004763064,0.377569,1.482447,0.1865854,-0.2709023,1.271058,0.2657729,299.7826,310.6036,304.1035,True
5,2.411112,-0.007561127,0.01800688,0.06840415,4.466893,1.52141,-1.839851,0.08085796,1.328743,0.3602257,-0.2831452,1.417611,12.46684,46.94665,-0.02980522,0.0465935,-0.009190438,-0.1142027,-2.975941,-0.9598733,0.2041787,1.45888,0.3006933,0.01062054,0.07140184,0.01623694,-1.247778,0.5768004,-0.006007292,0.3770753,1.482483,0.1866031,-0.2707485,1.266135,0.26431,300.5449,309.5693,305.2956,True
5,2.422223,-0.0139698,0.01793117,0.05349743,4.466693,1.5214,-1.839495,0.08031836,1.328851,0.3602507,-0.267595,1.399313,12.36074,43.5826,-0.08211514,0.03790093,-0.03447824,-0.1148653,-2.984898,-0.9484638,0.2036673,1.458722,0.3005352,0.02988756,0.07884546,0.0278096,-1.247078,0.577979,-0.007383348,0.3765986,1.482536,0.1866262,-0.2703591,1.261397,0.2628866,301.4621,308.0111,306.5768,True
5,2.433334,-0.02560901,-0.001323307,0.04612815,4.467273,1.522003,-1.838792,0.07938674,1.328665,0.3594351,-0.2520549,1.398514,12.25464,40.28284,-0.1065327,0.02713154,-0.02690331,-0.1148376,-2.986075,-0.9453862,0.2031327,1.458564,0.3005259,0.08300583,0.06504654,0.009230252,-1.247658,0.5780758,-0.01019272,0.3761154,1.482567,0.1866605,-0.2701204,1.257441,0.2621255,301.6252,306.2552,308.3508,True
5,2.444445,-0.0413654,-0.05033626,0.06335289,4.469041,1.523871,-1.837325,0.07865843,1.328884,0.3596706,-0.2362581,1.422124,12.17507,37.15449,-0.09896454,-0.001602709,-0.0269998,-0.1142102,-2.993318,-0.9373198,0.2025545,1.458571,0.3005195,0.07097779,0.0736338,-0.02687137,-1.24908,0.579253,-0.01087582,0.3757067,1.482547,0.1866784,-0.2697015,1.256355,0.2620763,301.433,307.0211,307.7788,True
5,2.455556,-0.05185561,-0.09189606,0.0667156,4.470714,1.525566,-1.835872,0.07812798,1.32928,0.3604865,-0.2205667,1.41231,12.12201,34.51897,-0.05406747,-0.03977304,-0.0273384,-0.1131178,-3.004371,-0.9271673,0.2021241,1.4586,0.3005219,0.04529106,0.08216766,-0.04049086,-1.24991,0.5804613,-0.01079965,0.3752564,1.482528,0.1866477,-0.2692915,1.255881,0.2621685,301.2859,307.8566,307.0134,True
5,2.466667,-0.05702782,-0.1302823,0.062587,4.473249,1.526877,-1.834736,0.07746741,1.329597,0.3607392,-0.2048493,1.41512,12.28117,32.11913,-0.008848764,-0.1057082,0.008494481,-0.1095987,-3.013914,-0.9191155,0.2016326,1.458551,0.3003786,0.0218762,0.08428045,-0.03816266,-1.250234,0.5814682,-0.01065744,0.3748497,1.482489,0.1866746,-0.2689175,1.255552,0.2619977,301.0091,308.3327,306.622,True
5,2.477778,-0.08562631,-0.178401,0.04255809,4.476515,1.527894,-1.832506,0.07663879,1.330066,0.3610611,-0.1898663,1.348154,12.62599,29.8693,-0.01514391,-0.08555551,0.03946261,-0.1085137,-3.003258,-0.9292565,0.2011596,1.458453,0.3001153,0.02287392,0.06725366,-0.04672353,-1.250996,0.5816696,-0.01099939,0.3744127,1.482491,0.1867118,-0.2685478,1.255272,0.2617862,300.6497,308.5781,306.3432,True
5,2.488889,-0.1121695,-0.1998208,0.04373404,4.479122,1.529343,-1.830053,0.07566649,1.33065,0.3615162,-0.1754736,1.294998,13.1565,27.72659,-0.04782715,-0.09218708,0.09397048,-0.1058591,-2.989758,-0.9410099,0.200561,1.458448,0.2998626,0.03241219,0.06726958,-0.05319542,-1.251832,0.5824479,-0.01199701,0.3739873,1.482486,0.1867735,-0.2682258,1.255011,0.2617517,300.3931,308.9009,305.8965,True
5,2.5,-0.1439793,-0.2340439,0.04602031,4.482669,1.531041,-1.827049,0.07446477,1.330927,0.3608203,-0.1601012,1.385296,13.81963,25.45532,-0.09161188,-0.01466966,0.1305881,-0.1062351,-2.956493,-0.9716045,0.1998852,1.458338,0.299763,0.04205345,0.08430858,-0.04578824,-1.252103,0.5841278,-0.01329503,0.3734951,1.482481,0.1868579,-0.2679669,1.254708,0.2618146,300.2567,309.3444,305.3324,True
5,2.511111,-0.1587734,-0.2607307,0.05145919,4.486229,1.532947,-1.824476,0.07337835,1.331315,0.3599923,-0.1461207,1.257637,14.48276,23.09835,-0.09622401,0.02904287,0.1008742,-0.1076812,-2.946835,-0.9799991,0.199329,1.458394,0.2996316,0.03999977,0.1173096,-0.03506202,-1.252224,0.5866258,-0.014482,0.3729476,1.48254,0.1869414,-0.2678542,1.254411,0.261923,300.2357,309.6502,304.8752,True
5,2.522222,-0.1692806,-0.2916188,0.0664876,4.490132,1.535353,-1.821674,0.0724726,1.332204,0.3603806,-0.1324694,1.229225,15.09284,20.6771,-0.07156918,-0.01878533,0.09318107,-0.1056551,-2.954188,-0.9728405,0.1987454,1.458598,0.2995763,0.04113133,0.1215607,-0.02653863,-1.252263,0.5882587,-0.01543275,0.3724238,1.482639,0.187001,-0.2678674,1.254135,0.2619635,300.2854,309.8005,304.6375,True
5,2.533333,-0.1916304,-0.2980918,0.06543794,4.493294,1.536404,-1.818774,0.07202181,1.333452,0.3616662,-0.1202263,1.100861,15.64987,18.19156,-0.03717292,-0.03258242,0.1366321,-0.1033243,-2.934184,-0.9933926,0.1982234,1.458851,0.2994184,0.0518513,0.1087662,-0.01919639,-1.252279,0.5890459,-0.01663197,0.3718475,1.48278,0.1870642,-0.2679119,1.25387,0.2616842,300.2363,309.7614,304.7937,True
5,2.544444,-0.2236185,-0.2907632,0.06651655,4.496,1.537903,-1.814918,0.07106593,1.334156,0.3620446,-0.1079954,1.101248,16.1008,15.72745,-0.006688863,-0.1050215,0.1991705,-0.09772097,-2.916106,-1.012456,0.1976612,1.458733,0.2991409,0.04335982,0.1012977,-0.01594796,-1.252472,0.5898951,-0.01714117,0.3712855,1.482803,0.1871009,-0.2682643,1.253676,0.260976,300.1676,310.9078,304.1451,True
5,2.555555,-0.2607909,-0.3186098,0.06772818,4.499984,1.539911,-1.810259,0.06968245,1.334616,0.3619854,-0.09599257,1.080705,16.33952,13.45618,-0.05598462,-0.09873877,0.1525948,-0.09721284,-2.921864,-1.004255,0.1969765,1.458678,0.2989883,0.02857003,0.1023337,-0.0009104032,-1.25203,0.5912376,-0.01738165,0.3706588,1.48282,0.1871684,-0.2684514,1.2535,0.2604097,300.3755,311.1395,303.5898,True
5,2.566666,-0.3330585,-0.3583293,0.06900942,4.505109,1.541945,-1.804015,0.06800064,1.334782,0.3608804,-0.08418252,1.063907,16.39257,11.63488,-0.07945634,-0.09456684,0.1495423,-0.09571934,-2.914436,-1.009848,0.1961718,1.458648,0.298794,0.0138697,0.1022836,0.02478842,-1.25078,0.5925331,-0.01746554,0.3699406,1.482847,0.1872733,-0.2685292,1.253363,0.2605536,300.5833,311.1463,303.3976,True
5,2.577777,-0.3927222,-0.3542865,0.07758836,4.508516,1.543953,-1.797245,0.06664029,1.335459,0.3612494,-0.07325557,0.9837854,16.20689,10.28498,-0.09531771,-0.1095614,0.1581235,-0.09306576,-2.903732,-1.019166,0.195228,1.458627,0.298712,0.03944781,0.1086844,0.02671928,-1.250456,0.5940334,-0.01919793,0.3692714,1.482853,0.1874228,-0.2687773,1.253178,0.2608793,301.0283,311.2935,303.1084,True
5,2.588888,-0.4482133,-0.3342768,0.07115318,4.51122,1.544509,-1.790283,0.06531593,1.336655,0.3621297,-0.06218428,0.9981543,15.88859,9.363616,-0.0995904,-0.1521297,0.1261102,-0.09016292,-2.918446,-1.003274,0.1941493,1.458579,0.2985768,0.07758484,0.1428329,0.001964044,-1.251333,0.5968486,-0.02227601,0.3685287,1.482837,0.1875539,-0.2692689,1.252954,0.2609558,301.3872,311.4693,303.1362,True
5,2.599999,-0.443868,-0.3577306,0.06057248,4.515798,1.545902,-1.785155,0.06387243,1.337766,0.362642,-0.05283339,0.8412791,15.57029,8.806512,-0.11408,-0.1317607,0.02928443,-0.09125907,-2.952888,-0.9672028,0.1932028,1.458468,0.2984843,0.07388665,0.1546651,-0.0576421,-1.253918,0.5990682,-0.0236036,0.3678001,1.482808,0.1877182,-0.2701744,1.252778,0.2601024,301.8933,311.8409,302.7804,True
5,2.61111,-0.4169344,-0.4300301,0.06285653,4.522529,1.547404,-1.781541,0.0625734,1.339363,0.3639574,-0.04479011,0.7241313,15.25199,8.61367,-0.09956613,-0.09256026,0.1720316,-0.08783957,-2.88518,-1.03408,0.1923222,1.458331,0.2983053,0.05004048,0.1302437,-0.1086279,-1.256721,0.5995822,-0.02356338,0.3669831,1.482759,0.1879404,-0.2711641,1.252721,0.2591782,302.5597,311.5562,302.7299,True
5,2.622221,-0.4134814,-0.4928721,0.06199393,4.529775,1.549683,-1.776698,0.0610747,1.34062,0.3645325,-0.04029256,0.4016283,14.96021,8.3994,-0.111104,-0.120328,0.1837633,-0.08471941,-2.875377,-1.042275,0.1914016,1.458164,0.2980313,0.03397749,0.1195991,-0.1191717,-1.258265,0.6004958,-0.02373782,0.3661645,1.482721,0.1881843,-0.2723031,1.252762,0.2584423,303.5428,311.018,302.6605,True
5,2.633332,-0.4336476,-0.5110915,0.05675778,4.535709,1.551434,-1.770931,0.05934769,1.341184,0.3637419,-0.0363644,0.3527333,14.66844,8.120848,-0.1163133,-0.08634834,0.2285993,-0.08303736,-2.836462,-1.07954,0.1905238,1.458196,0.2978461,0.03950276,0.1461823,-0.09359913,-1.258469,0.6030374,-0.02510882,0.3651564,1.482704,0.1885033,-0.27341,1.252791,0.2577622,304.5509,310.5361,302.4204,True
5,2.644443,-0.4763949,-0.4825534,0.04179901,4.54004,1.552238,-1.764051,0.0577493,1.342229,0.3642373,-0.03041383,0.5381652,14.45623,7.670878,-0.09401712,-0.08304092,0.2178237,-0.08141177,-2.817442,-1.098225,0.1895005,1.458329,0.2975423,0.09208775,0.2078943,-0.04491487,-1.257554,0.607482,-0.02921994,0.3641128,1.482721,0.1887546,-0.2743023,1.252772,0.2570772,305.508,309.9055,302.016,True
5,2.655554,-0.496792,-0.444278,0.03845111,4.543298,1.552522,-1.757949,0.05624083,1.34377,0.3657169,-0.02494583,0.4928281,14.27056,6.813797,-0.08295536,-0.1107938,0.269903,-0.07748148,-2.780857,-1.134028,0.1884223,1.458392,0.2973223,0.1380592,0.2334373,-0.02393763,-1.257276,0.6109274,-0.03325836,0.3631995,1.482813,0.1889672,-0.2752078,1.252725,0.2560741,306.237,309.3048,301.798,True
5,2.666665,-0.5234247,-0.4454507,0.03631622,4.548337,1.553371,-1.75127,0.05471286,1.344996,0.3666666,-0.01998809,0.447248,14.13793,5.678166,-0.09553832,-0.0460171,0.3510651,-0.07649823,-2.693744,-1.219332,0.1872399,1.458374,0.2970927,0.1772734,0.2324321,-0.0487633,-1.258725,0.6134843,-0.03733752,0.3621902,1.482857,0.1890826,-0.2763304,1.252722,0.2547013,306.7656,308.8243,301.9125,True
5,2.677776,-0.5457754,-0.4487173,0.04274435,4.553196,1.554965,-1.744214,0.05309644,1.346216,0.3672347,-0.01760349,0.2127769,14.08488,4.26398,-0.1108125,-0.03105913,0.2989851,-0.07616694,-2.674626,-1.23665,0.1861635,1.458328,0.2968943,0.1545541,0.1898984,-0.09232943,-1.261211,0.614197,-0.03840971,0.3611108,1.482849,0.1891778,-0.2776623,1.25283,0.2534661,307.5935,308.0693,302.0882,True
5,2.688887,-0.5426001,-0.4444491,0.04167409,4.557907,1.556263,-1.738085,0.05128011,1.346725,0.3660851,-0.01472675,0.2600216,14.11141,2.635524,-0.1003182,-0.02990093,0.2722963,-0.07514961,-2.650757,-1.259656,0.1850316,1.458397,0.2967069,0.1193516,0.1398249,-0.1006518,-1.262523,0.6139134,-0.03845072,0.3600089,1.48284,0.1892996,-0.2791318,1.252973,0.2525583,308.77,307.2585,302.027,True
5,2.699998,-0.5223781,-0.4422636,0.03312094,4.562709,1.557211,-1.732809,0.04977858,1.347948,0.3666012,-0.01231499,0.2170774,14.16445,0.8785067,-0.06679046,-0.06928533,0.3316922,-0.07160547,-2.579396,-1.331275,0.1839219,1.45831,0.2964745,0.08445916,0.07796745,-0.07171345,-1.26222,0.6126086,-0.03774977,0.3588729,1.482835,0.189393,-0.2806749,1.253084,0.2516989,309.9745,306.5908,301.8517,True
5,2.711109,-0.5192009,-0.4369546,0.02884994,4.567505,1.558274,-1.72704,0.04796758,1.348711,0.3657238,-0.01136744,0.08385673,14.24403,0,-0.05487017,-0.06717951,0.3689153,-0.06977002,-2.504944,-1.405297,0.1828486,1.458351,0.2962422,0.08793406,0.06618441,-0.03874306,-1.261598,0.6130088,-0.03906271,0.3576272,1.48283,0.1894782,-0.2822764,1.253199,0.2505581,310.9572,306.0244,301.8599,True
5,2.72222,-0.5245572,-0.4305954,0.02563909,4.572003,1.559105,-1.720875,0.04616049,1.349905,0.3663421,-0.01065797,0.06329819,14.35013,0,-0.06305635,-0.09709813,0.4061991,-0.0672086,-2.423379,-1.48558,0.1816743,1.458311,0.2960978,0.08920923,0.08531122,-0.01208284,-1.260934,0.614781,-0.04060016,0.3562956,1.482803,0.1896186,-0.2838493,1.253329,0.2490276,311.6324,305.434,302.1186,True
5,2.733331,-0.5532731,-0.4413653,0.03105094,4.577442,1.560653,-1.713416,0.043982,1.350374,0.3649385,-0.008817727,0.1668891,14.45623,0,-0.0572226,-0.1387325,0.464676,-0.06397765,-2.316134,-1.59213,0.180412,1.458247,0.2959175,0.09462743,0.1065969,-0.0003701225,-1.260733,0.6167997,-0.04246543,0.3549114,1.482713,0.1897683,-0.2853381,1.25349,0.2474298,312.2119,304.7892,302.336,True
5,2.744442,-0.5895006,-0.4415349,0.02470214,4.582322,1.561391,-1.705528,0.04181385,1.351453,0.3655744,-0.007081878,0.1565105,14.53581,0,-0.05859917,-0.1758534,0.3847238,-0.06100876,-2.289761,-1.617781,0.1791253,1.458017,0.2957044,0.1053723,0.1129773,0.01127093,-1.26031,0.6184193,-0.04447079,0.3535957,1.482727,0.18995,-0.286933,1.253636,0.2458348,312.8654,304.1319,302.5349,True
5,2.755553,-0.620411,-0.4438642,0.00771521,4.587601,1.56171,-1.697517,0.03965795,1.352138,0.3646991,-0.005088768,0.1807489,14.61538,0,-0.08903563,-0.189606,0.2708833,-0.05831258,-2.316163,-1.589279,0.1776147,1.457841,0.2954543,0.1330386,0.1268442,0.00787168,-1.260402,0.620362,-0.04752757,0.3521517,1.482686,0.1901288,-0.2887157,1.253761,0.2443524,313.7117,303.5298,302.6227,True
5,2.766664,-0.6610133,-0.4292076,-0.02856246,4.591968,1.559899,-1.689039,0.03781265,1.353741,0.3661346,-0.00417051,0.08258467,14.66844,0,-0.1102213,-0.1407856,0.3265095,-0.05921752,-2.208551,-1.69471,0.1759871,1.457821,0.2952046,0.1435657,0.1311444,-0.007123291,-1.261151,0.6220695,-0.04993613,0.3508395,1.482653,0.190309,-0.2907087,1.253923,0.2428326,314.5581,302.7318,302.9637,True
5,2.777775,-0.6705408,-0.4495502,-0.04765992,4.597723,1.559332,-1.681441,0.03562376,1.354869,0.3668327,-0.004113519,0.005040909,14.66844,0,-0.1161175,-0.07359576,0.2744671,-0.06067107,-2.196403,-1.705479,0.1741613,1.457692,0.2949913,0.1446457,0.1332762,-0.00499858,-1.261217,0.6237267,-0.05202405,0.349321,1.482549,0.1905079,-0.2938186,1.254176,0.2412349,313.885,301.8185,302.778,True
5,2.788886,-0.6439059,-0.4472886,-0.03489114,4.602858,1.560246,-1.675182,0.03345582,1.355366,0.3657386,-0.004001133,0.01098861,14.64191,0,-0.1237991,-0.07780499,0.2318935,-0.0600953,-2.169868,-1.730411,0.1723728,1.457414,0.2948689,0.1299179,0.1577224,0.01860368,-1.26034,0.6264164,-0.05375244,0.3478204,1.482524,0.1907952,-0.2979372,1.254962,0.2394425,312.707,300.1269,303.3862,True
5,2.799997,-0.6203396,-0.4834622,-0.04971346,4.609514,1.559972,-1.669185,0.03149495,1.356386,0.3662231,-0.005960687,-0.1782617,14.58886,0,-0.1841401,-0.1054869,0.09369799,-0.05714504,-2.228819,-1.667697,0.1705269,1.45689,0.2945976,0.1257214,0.2067101,0.02938399,-1.259859,0.6307315,-0.05625901,0.3462874,1.482606,0.1910846,-0.3021472,1.255835,0.2380092,312.4921,298.3967,303.5901,True
5,2.811108,-0.6055442,-0.4611284,-0.07322678,4.614286,1.55888,-1.663098,0.0293591,1.356883,0.3648283,-0.008790029,-0.2561452,14.50928,0,-0.2320747,-0.06418866,0.1238821,-0.05827209,-2.186558,-1.705662,0.1688243,1.456528,0.2944479,0.1471543,0.2407716,0.0463139,-1.259053,0.6345939,-0.05979622,0.3446723,1.482678,0.1913598,-0.306878,1.256463,0.2372363,310.2477,295.5286,306.1136,True
5,2.822219,-0.5960613,-0.437656,-0.07010528,4.618519,1.558734,-1.65668,0.02730688,1.357131,0.3634341,-0.01040657,-0.1446637,14.45623,0,-0.2181989,0.03054301,0.194294,-0.06255499,-2.119403,-1.770986,0.1672677,1.456373,0.2943413,0.178179,0.2418196,0.06203856,-1.257995,0.6375111,-0.06374542,0.3430882,1.482673,0.1916046,-0.312366,1.257365,0.2382074,306.0914,292.4533,310.4975,True
5,2.83333,-0.57376,-0.4108271,-0.0382617,4.622043,1.559692,-1.650997,0.02561298,1.357838,0.3639514,-0.01172483,-0.1182369,14.42971,0,-0.166543,0.06568645,0.3091163,-0.06642669,-2.014445,-1.875723,0.1658719,1.456299,0.2942455,0.2435128,0.2066115,0.101913,-1.255556,0.6386439,-0.06914179,0.3414857,1.482659,0.1918576,-0.3170003,1.259721,0.241648,305.0917,290.4707,313.3917,True
5,2.844441,-0.5524774,-0.4052471,-0.004193254,4.625625,1.561202,-1.644999,0.02436873,1.358885,0.3660233,-0.01315282,-0.128262,14.45623,0,-0.1057001,-0.0639123,0.2392719,-0.0611824,-1.98157,-1.909488,0.1648158,1.45551,0.2940798,0.2903694,0.1160999,0.0949595,-1.254657,0.6368232,-0.07348035,0.3398965,1.482498,0.1920927,-0.3216464,1.261758,0.2478518,302.4364,288.516,318.8451,True
5,2.855552,-0.5620369,-0.4181326,-0.02331472,4.630878,1.560651,-1.638355,0.02255955,1.359569,0.3666196,-0.01594701,-0.2528576,14.53581,0,-0.07953604,-0.07464394,0.3349788,-0.0627787,-1.86912,-2.021711,0.1634716,1.454957,0.2940607,0.2623832,0.06715774,0.05781433,-1.255316,0.6359815,-0.07512831,0.3382381,1.48238,0.1924601,-0.3252979,1.26371,0.2559286,300.5808,287.3051,324.037,True
5,2.866663,-0.5597976,-0.4492218,-0.04669998,4.638881,1.559466,-1.632167,0.01957229,1.358457,0.3581178,-0.01800563,-0.1843365,14.64191,1.907005,-0.05809709,-0.06822152,0.3625526,-0.06489964,-1.796366,-2.094292,0.1619478,1.45483,0.2943027,0.2177341,0.09161001,0.06994708,-1.254188,0.6380625,-0.07669611,0.3365671,1.482213,0.1927431,-0.3277694,1.26624,0.264015,300.0576,288.6862,325.4128,True
5,2.877774,-0.4787821,-0.458471,-0.03609433,4.644588,1.560025,-1.629675,0.01797125,1.358864,0.3580437,-0.01964188,-0.14626,14.69496,3.899721,-0.04037367,-0.09780909,0.2750347,-0.06314036,-1.780793,-2.109919,0.1606485,1.454839,0.2944937,0.194433,0.1448343,0.0894195,-1.252685,0.641951,-0.07911693,0.3350602,1.481928,0.1929796,-0.3295757,1.269186,0.271113,299.6661,289.8915,326.0996,True
5,2.888885,-0.3828936,-0.4516004,-0.008527225,4.649222,1.561334,-1.628656,0.01633,1.359147,0.35833,-0.02271304,-0.277454,14.66844,5.956715,-0.06147245,-0.1710194,0.07579478,-0.05635036,-1.831336,-2.05803,0.1592724,1.454032,0.2944317,0.2261528,0.1310461,0.05930367,-1.253134,0.6427645,-0.08310607,0.3335567,1.481842,0.1932752,-0.3322174,1.272166,0.2761716,298.8145,291.4945,327.049,True
5,2.899997,-0.3904884,-0.4261802,-0.04053529,4.653395,1.560334,-1.623972,0.01493952,1.359072,0.3584189,-0.02940929,-0.6078057,14.58886,7.906577,-0.03018571,-0.09442867,0.1972023,-0.06065083,-1.750645,-2.139235,0.1578524,1.453289,0.2944467,0.2628193,0.1067092,-0.01668493,-1.255961,0.6429329,-0.08738471,0.3320726,1.481819,0.1935973,-0.3359865,1.274801,0.277489,297.5804,293.0031,328.151,True
5,2.911108,-0.3884024,-0.4176877,-0.05121514,4.657821,1.559683,-1.619713,0.0131776,1.359354,0.3586922,-0.0340368,-0.4161411,14.37666,9.385041,-0.01551194,-0.02407762,0.2057755,-0.06408418,-1.731948,-2.158188,0.1564096,1.452659,0.2944238,0.2605404,0.1099338,-0.03476711,-1.257042,0.6442144,-0.09053949,0.3304664,1.481665,0.1938643,-0.3388838,1.27728,0.275533,296.7498,292.6735,328.1506,True
5,2.922219,-0.3681601,-0.4272938,-0.08103602,4.663115,1.557976,-1.616488,0.01148543,1.35937,0.359066,-0.0330951,0.09123022,14.11141,10.64924,-0.03601903,0.03230628,0.1996065,-0.06671165,-1.727439,-2.161545,0.1549241,1.452401,0.2943907,0.2707117,0.1076816,0.03545542,-1.254352,0.6457669,-0.09434115,0.3288507,1.481544,0.1940947,-0.3408034,1.279367,0.2714683,296.2212,291.4517,327.3283,True
5,2.93333,-0.3512354,-0.3909133,-0.0545336,4.666106,1.558638,-1.613026,0.009878278,1.359488,0.3593733,-0.03612205,-0.2754978,13.84615,11.76344,-0.06955585,0.02914903,0.1092483,-0.06580938,-1.751989,-2.134998,0.1534742,1.452029,0.2943707,0.2806712,0.09588015,0.07903223,-1.252086,0.6466108,-0.0981809,0.3271597,1.481446,0.1943574,-0.3422034,1.281029,0.2667152,296.0653,289.6345,326.6556,True
5,2.944441,-0.3117895,-0.3916889,-0.0322455,4.669634,1.55904,-1.610858,0.008668989,1.360225,0.361268,-0.04039802,-0.3860807,13.55437,12.74909,-0.07304269,0.06007015,0.08162712,-0.06636491,-1.767648,-2.118374,0.1521362,1.451658,0.2944438,0.2819373,0.08837405,0.1024457,-1.250292,0.6475375,-0.1017269,0.3255727,1.481463,0.1945138,-0.343658,1.282444,0.262482,296.0517,287.6112,326.487,True
5,2.955552,-0.2287961,-0.3925254,-0.07280964,4.673891,1.556887,-1.610747,0.008040458,1.359965,0.3617399,-0.04358263,-0.285752,13.34218,13.88472,-0.02754432,0.07524772,0.03878005,-0.06712924,-1.787835,-2.099365,0.1508403,1.451388,0.2945445,0.2408425,0.08187491,0.1560362,-1.247079,0.6487995,-0.1035277,0.3241028,1.481358,0.194649,-0.3453451,1.283719,0.2596181,295.9393,285.988,326.5883,True
5,2.966663,-0.1500221,-0.384825,-0.09422369,4.677966,1.55548,-1.611596,0.00707522,1.359968,0.3621075,-0.04792838,-0.3929993,13.23607,15.23462,0.008903829,0.07531169,0.07905667,-0.06881449,-1.76543,-2.12296,0.14964,1.451022,0.2945762,0.2325085,0.07543787,0.1784654,-1.24441,0.6497493,-0.1061379,0.3225895,1.48126,0.1948066,-0.3470165,1.285068,0.2584358,295.8689,285.002,326.737,True
5,2.977774,-0.09364771,-0.3611412,-0.08691838,4.681331,1.554891,-1.612316,0.005942255,1.359852,0.3624892,-0.05294737,-0.4535811,13.12997,16.60596,-0.009174353,0.03266759,0.05457282,-0.06787119,-1.754351,-2.133227,0.1484865,1.450241,0.294574,0.2402208,0.01147645,0.205978,-1.240924,0.6480443,-0.1086338,0.321294,1.481117,0.1948049,-0.348371,1.286613,0.2591252,295.6176,284.3777,327.0402,True
5,2.988885,-0.04566284,-0.3705114,-0.07733974,4.685868,1.554862,-1.613376,0.004769742,1.359554,0.3629818,-0.05687873,-0.3538363,13.02387,17.913,0.003646575,0.107178,0.1132303,-0.07236394,-1.748145,-2.139903,0.1472582,1.449239,0.2946911,0.2335414,-0.01402953,0.1697639,-1.240193,0.6471038,-0.1107958,0.3198519,1.481032,0.1949396,-0.3494915,1.288069,0.2614951,294.9819,284.5202,327.3375,True
5,2.999996,-0.04461948,-0.3694928,-0.0911978,4.690136,1.553454,-1.612826,0.003407329,1.359196,0.3633375,-0.05934801,-0.2214268,12.89124,19.11292,-0.01346854,0.1783941,0.1518111,-0.0779177,-1.742686,-2.14466,0.1459625,1.448896,0.2948766,0.2229147,-0.01191138,0.174124,-1.238025,0.6473514,-0.1128738,0.3184367,1.480922,0.1950285,-0.3506645,1.289146,0.265034,294.3352,285.2284,327.6469,True
5,3.011107,-0.02988192,-0.3279232,-0.09879373,4.692573,1.552465,-1.612863,0.002305776,1.358645,0.363801,-0.06201437,-0.2405109,12.67905,19.97,-0.02244097,0.1529764,0.05593203,-0.07679544,-1.779392,-2.107454,0.1446368,1.44872,0.2951145,0.2306552,-0.00452435,0.2081703,-1.234386,0.6479714,-0.1159793,0.317066,1.480762,0.1951785,-0.3519993,1.289667,0.2690412,293.8476,286.0451,328.1376,True
5,3.022218,0.007198616,-0.2776736,-0.08942048,4.693996,1.551804,-1.614211,0.00125742,1.358104,0.3642461,-0.06245646,-0.03726406,12.44032,20.4414,-0.05144724,-0.0108923,-0.1018969,-0.06851408,-1.816974,-2.068418,0.1433628,1.448605,0.2953146,0.2464558,-0.0204455,0.1856365,-1.233021,0.6474018,-0.1190766,0.3157814,1.480789,0.1954186,-0.3534957,1.289536,0.2728734,293.5084,286.5295,328.9165,True
5,3.033329,0.08694225,-0.2379445,-0.09177478,4.695255,1.550989,-1.617944,0.0004564822,1.357389,0.3645759,-0.06470576,-0.204311,12.20159,20.46282,-0.0002203807,0.04885839,-0.04241649,-0.07159216,-1.813674,-2.073408,0.1420558,1.448384,0.2955744,0.23736,-0.007533304,0.1175608,-1.233903,0.6476896,-0.1214468,0.3144733,1.480741,0.1955688,-0.3551345,1.288864,0.2761245,293.4648,286.6723,329.7516,True
5,3.04444,0.1540118,-0.2248778,-0.08656721,4.697533,1.550487,-1.621808,-0.0005147159,1.356509,0.3648458,-0.06765867,-0.2672628,11.96286,20.11999,0.04280223,0.1237242,-0.1032426,-0.07376903,-1.879629,-2.009662,0.1406728,1.447828,0.2956624,0.2105359,0.03297687,0.09655221,-1.233752,0.649574,-0.1235147,0.3132126,1.480622,0.1956756,-0.3565769,1.287871,0.2785587,293.6038,286.7397,330.3283,True
5,3.055551,0.1889537,-0.1736216,-0.0921107,4.697795,1.549278,-1.625163,-0.001401693,1.355461,0.3650379,-0.07136473,-0.3359871,11.75066,19.45575,0.004857838,0.2301897,-0.1422228,-0.07849774,-1.950068,-1.938087,0.1393164,1.447256,0.2959356,0.1594918,0.07874454,0.1098487,-1.232188,0.6524594,-0.1245025,0.3119594,1.480458,0.1957045,-0.3576648,1.286677,0.2800504,293.7513,286.7585,330.655,True
5,3.066662,0.2356666,-0.1286045,-0.06674872,4.697781,1.549455,-1.628968,-0.002280504,1.354199,0.3651431,-0.0725477,-0.1050104,11.64456,18.7058,-0.09647912,0.07875821,-0.2718962,-0.07210881,-2.021334,-1.862635,0.1379957,1.446516,0.2958302,0.1417432,0.04669172,0.1514866,-1.228957,0.6520813,-0.1254541,0.3107083,1.480331,0.1957932,-0.358361,1.285185,0.2806192,293.735,286.6507,330.8099,True
5,3.077773,0.2589824,-0.09330213,-0.05092011,4.697701,1.54941,-1.632592,-0.003191799,1.353024,0.3653235,-0.07258818,-0.002812006,11.59151,17.84872,-0.09821659,0.1211851,-0.1737837,-0.07548571,-2.013829,-1.869064,0.1366732,1.445576,0.2957859,0.1534257,-0.0001562685,0.1449123,-1.227344,0.65069,-0.1271308,0.3094461,1.480288,0.1958132,-0.3589088,1.283232,0.2804191,293.7201,286.312,330.9265,True
5,3.088884,0.2696209,-0.09116751,-0.06270867,4.69895,1.547493,-1.636188,-0.003762901,1.352126,0.365447,-0.07345105,-0.07863829,11.53846,16.92736,-0.06986293,0.2352697,-0.1641409,-0.08168394,-2.054305,-1.829053,0.1354931,1.444504,0.2956836,0.1748706,0.008347549,0.1618015,-1.225122,0.6515512,-0.1300821,0.3081198,1.48016,0.1959262,-0.3594114,1.280826,0.2797051,293.9026,285.9762,330.8781,True
5,3.099995,0.2687441,-0.1466591,-0.09021929,4.702557,1.545759,-1.639149,-0.004696459,1.351048,0.3657701,-0.07370351,-0.02215123,11.45889,15.92029,-0.07866934,0.3108759,-0.1596776,-0.08714715,-2.090035,-1.792219,0.134329,1.443803,0.2958302,0.1945933,0.02847061,0.2287919,-1.220515,0.6532732,-0.1334923,0.3067815,1.479967,0.1960208,-0.3598828,1.278028,0.2786735,294.2209,285.5723,330.8698,True
5,3.111106,0.2816612,-0.1785517,-0.0858671,4.705741,1.545156,-1.642725,-0.005599231,1.349996,0.3661478,-0.07395119,-0.02237043,11.32626,14.99893,-0.05913484,0.1874223,-0.1845319,-0.08469918,-2.117412,-1.764834,0.1331685,1.443361,0.2960467,0.1950431,0.01344884,0.2820303,-1.215425,0.6534959,-0.1357911,0.3054331,1.479726,0.1961677,-0.3603169,1.274985,0.2775678,294.6816,284.9481,331.0372,True
5,3.122217,0.2967469,-0.2124589,-0.04847867,4.70938,1.546418,-1.646375,-0.006706148,1.348707,0.3665688,-0.07362416,0.03028373,11.19363,14.35612,0.01681873,0.05145823,-0.2257064,-0.07995342,-2.1572,-1.727751,0.1318652,1.442421,0.2962053,0.2076826,0.01455695,0.2648831,-1.213171,0.6540213,-0.1386402,0.3040683,1.479586,0.1963511,-0.3607023,1.27187,0.2767633,295.1566,283.9908,331.4676,True
5,3.133328,0.2881896,-0.2156705,-0.04738811,4.711219,1.546162,-1.648711,-0.007502347,1.347253,0.367099,-0.07447051,-0.07752312,11.00796,14.09899,0.04471412,0.09618656,-0.1597359,-0.0826789,-2.158099,-1.728246,0.1306354,1.441682,0.2964356,0.2061643,0.0700532,0.2128011,-1.212955,0.656934,-0.1418794,0.3027335,1.479314,0.1964681,-0.3612677,1.268782,0.2765926,295.549,282.9125,332.1112,True
5,3.144439,0.2721915,-0.21687,-0.06546706,-1.569459,1.545004,-1.651178,-0.008839339,1.346558,0.3671579,-0.07486092,-0.03487394,10.82228,14.20613,0.04229608,-0.02074341,-0.2920451,-0.07816324,-2.247479,-1.639349,0.1291662,1.441037,0.2963579,0.21684,0.1009431,0.2170319,-1.210736,0.6596529,-0.1456209,0.3014513,1.479033,0.1966302,-0.3619435,1.265813,0.27712,295.8102,282.1956,332.7369,True
5,3.15555,0.2562797,-0.2415139,-0.08880059,-1.565824,1.543544,-1.65353,-0.009871453,1.345729,0.3675151,-0.07376317,0.1007362,10.66313,14.61324,-0.03962061,0.02569994,-0.2403472,-0.07973717,-2.260506,-1.623337,0.1277948,1.440149,0.296252,0.2360354,0.08177586,0.2179045,-1.208086,0.6602488,-0.1492044,0.3000885,1.478719,0.1967452,-0.3623567,1.263368,0.277773,296.293,283.3346,331.4062,True
5,3.166661,0.229711,-0.2662094,-0.112109,-1.56182,1.542069,-1.655132,-0.01086292,1.345035,0.3677144,-0.07400285,-0.02263745,10.5305,15.34176,-0.06083013,0.1489905,-0.136657,-0.08593914,-2.242335,-1.640026,0.1265821,1.439749,0.296299,0.250377,0.06166954,0.1474362,-1.208906,0.6600384,-0.1523781,0.2988268,1.478382,0.1969287,-0.3625306,1.262291,0.2784584,296.5956,284.8109,329.7405,True
5,3.177772,0.2094449,-0.2577454,-0.1057202,-1.559212,1.541361,-1.656691,-0.01173148,1.344258,0.3680005,-0.07418448,-0.01613887,10.45093,16.11313,-0.03722122,0.1511531,-0.1058972,-0.08726113,-2.246918,-1.636054,0.1254365,1.439369,0.2963552,0.2597953,0.06065193,0.127117,-1.20827,0.6609644,-0.1558208,0.2976282,1.478098,0.1971264,-0.3628526,1.261806,0.2788878,296.761,285.5639,328.6448,True
5,3.188883,0.22855,-0.2266752,-0.07501287,-1.557721,1.541087,-1.660155,-0.01206604,1.343917,0.3680332,-0.07370245,0.0443605,10.39788,16.84165,0.007764176,0.1150814,-0.08918395,-0.08719242,-2.255275,-1.629229,0.124532,1.438891,0.2963192,0.2764826,0.05114774,0.08328129,-1.208727,0.6610432,-0.1594509,0.2965518,1.477858,0.1972411,-0.3636052,1.261501,0.2790876,296.4354,286.2474,327.6924,True
5,3.199994,0.2551727,-0.2233588,-0.07080157,-1.55532,1.540594,-1.663888,-0.01271442,1.343211,0.3680875,-0.07386383,-0.01496085,10.37135,17.42018,0.0004465058,-0.01797848,-0.1586491,-0.08225439,-2.301016,-1.583456,0.1235895,1.437952,0.2962306,0.2421643,0.06184012,0.05588299,-1.209168,0.6621103,-0.1614981,0.2954939,1.477827,0.1973848,-0.3645906,1.261269,0.2792503,296.1404,286.5517,327.0496,True
5,3.211105,0.2392758,-0.2458327,-0.08241434,-1.551722,1.539725,-1.666043,-0.01388377,1.342335,0.3683329,-0.07599171,-0.194299,10.3183,17.63445,-0.04658902,0.07869773,-0.1177171,-0.08628535,-2.304916,-1.577297,0.1221931,1.437351,0.2963228,0.1974441,0.08312449,0.05948184,-1.208641,0.6639607,-0.1629319,0.2943772,1.477728,0.1974854,-0.3654514,1.261013,0.2793375,295.9389,286.9688,326.3807,True
5,3.222216,0.2050977,-0.2257535,-0.08883277,-1.549761,1.538675,-1.667068,-0.01479024,1.341488,0.3682771,-0.07655469,-0.04975647,10.23872,17.48446,-0.04790258,0.1766481,-0.09195694,-0.09165589,-2.305292,-1.576451,0.1209955,1.436896,0.2963209,0.1339767,0.1106924,0.1154569,-1.205932,0.6667642,-0.1632635,0.2932294,1.477559,0.1974945,-0.3657759,1.260711,0.2792749,295.9433,287.3368,325.7181,True
5,3.233327,0.1675848,-0.165014,-0.04317145,-1.550575,1.539847,-1.66706,-0.01553634,1.340251,0.3684556,-0.07502338,0.1402898,10.15915,17.1202,-0.05602491,0.2779027,-0.1353923,-0.0981556,-2.337032,-1.543998,0.1199659,1.436673,0.2963972,0.1261978,0.09667955,0.2039219,-1.20102,0.668302,-0.1651879,0.2920349,1.477403,0.1975508,-0.3659706,1.260255,0.2791415,295.7765,287.8545,324.8788,True
5,3.244438,0.1663975,-0.111521,0.02696873,-1.55129,1.542613,-1.668982,-0.01646963,1.339699,0.3682797,-0.07383081,0.1078256,10.1061,16.5631,-0.01124337,0.1638749,-0.0250776,-0.09587806,-2.302115,-1.580156,0.1192835,1.436473,0.296495,0.1574028,0.06573121,0.2398269,-1.19716,0.6686778,-0.1681096,0.2909775,1.477268,0.1975827,-0.3663382,1.259749,0.2791133,295.7389,288.5334,323.7618,True
5,3.255549,0.2238668,-0.0877634,0.05557589,-1.551249,1.544078,-1.673413,-0.01699153,1.339082,0.3680568,-0.07289764,0.0847516,10.07958,15.96315,0.01700437,0.0127364,-0.03725411,-0.09094162,-2.314228,-1.569178,0.118801,1.435912,0.2964292,0.2127957,0.009299066,0.2360697,-1.194602,0.6672304,-0.1719244,0.2900367,1.477231,0.1975806,-0.3668094,1.259273,0.279064,295.8422,289.5481,322.35,True
5,3.26666,0.2558969,-0.1197368,0.01409791,-1.548677,1.543137,-1.6772,-0.01749894,1.338501,0.367805,-0.07498876,-0.1916565,10.07958,15.53461,0.004029281,0.04360195,-0.04883483,-0.09282608,-2.323423,-1.559631,0.11813,1.435374,0.2963324,0.2125112,-0.03112549,0.1997737,-1.193353,0.6655538,-0.1736067,0.2892522,1.477191,0.1975813,-0.3672939,1.258898,0.2787409,296.0129,290.6264,321.0707,True
5,3.277771,0.2590714,-0.1208575,-0.006142823,-1.547243,1.542533,-1.680116,-0.01801214,1.337868,0.3676202,-0.07787509,-0.2620263,10.07958,15.23462,-0.02199045,0.1032218,-0.0858617,-0.09610709,-2.349298,-1.532774,0.1173496,1.435329,0.2961888,0.1750562,-0.02257431,0.1798554,-1.192147,0.665998,-0.1743374,0.2884635,1.477072,0.1975775,-0.3676965,1.25867,0.2779404,296.0165,291.1696,320.4983,True
5,3.288882,0.2685726,-0.09201809,0.007549196,-1.547079,1.542464,-1.683526,-0.01821843,1.337586,0.36724,-0.07745431,0.04049778,10.05305,15.02035,-0.07400221,0.1306062,-0.03331111,-0.0983042,-2.333007,-1.546473,0.1165268,1.435007,0.296047,0.07484114,0.04131144,0.1733529,-1.190698,0.6690372,-0.1730748,0.2878672,1.476922,0.1976211,-0.3678978,1.258414,0.2769352,295.6314,291.1639,320.3787,True
5,3.299993,0.2568623,-0.07589826,0.06396925,-1.547109,1.54509,-1.686076,-0.01885715,1.336916,0.3670716,-0.07633898,0.1012705,9.999999,14.91322,-0.1418617,0.1039777,-0.181055,-0.09891406,-2.401031,-1.47505,0.1157531,1.434481,0.2959821,0.03949437,0.06584051,0.1523869,-1.189913,0.6708327,-0.1730437,0.2872202,1.476769,0.1977789,-0.3680904,1.258042,0.276214,295.2066,291.3158,319.8868,True
5,3.311104,0.2109223,-0.03767674,0.07882408,-1.548033,1.546527,-1.686887,-0.01977631,1.336269,0.3669655,-0.07661542,-0.0261562,9.920423,14.84894,-0.1312765,0.08808465,-0.2035211,-0.09962673,-2.432424,-1.442735,0.1149027,1.434037,0.2959085,0.02413115,0.08297999,0.09821347,-1.190845,0.672162,-0.1735289,0.2866581,1.476744,0.1979737,-0.368334,1.257604,0.2758391,295.0518,292.3208,318.5457,True
5,3.322215,0.1587471,-0.04965845,0.06188145,-1.547075,1.546604,-1.68692,-0.0205358,1.335781,0.3668454,-0.07569662,0.08430404,9.787797,14.69895,-0.09167495,0.1073263,-0.1589735,-0.1013738,-2.431653,-1.444111,0.1140683,1.433519,0.2959263,0.03767399,0.1022293,0.06298485,-1.191537,0.673913,-0.1749881,0.2860607,1.476625,0.1982,-0.3685552,1.25717,0.275502,295.0748,293.8305,316.8528,True
5,3.333326,0.08955123,-0.06917974,0.04073903,-1.545478,1.546588,-1.685526,-0.02143443,1.335481,0.366787,-0.0739432,0.1595675,9.655171,14.46325,-0.1179528,0.1624185,-0.05858627,-0.1048044,-2.401575,-1.471768,0.1133419,1.433463,0.2960296,0.06212804,0.1267481,0.05856477,-1.191377,0.6763275,-0.1773785,0.28533,1.476475,0.1983931,-0.3688549,1.256743,0.2749308,295.1447,295.0038,315.5807,True
5,3.344437,0.05653947,-0.06280149,0.07273436,-1.545129,1.548806,-1.685247,-0.02213678,1.335213,0.3666749,-0.07323001,0.0640354,9.522545,14.07757,-0.1154257,0.09208152,-0.0395602,-0.1034105,-2.400701,-1.471406,0.112756,1.433466,0.296097,0.1047153,0.1171851,0.05500062,-1.190952,0.6775509,-0.180459,0.284664,1.476315,0.1985636,-0.3693527,1.256432,0.2741872,295.2443,295.4789,314.9438,True
5,3.355548,0.06615216,-0.05732089,0.1089183,-1.545021,1.55116,-1.686357,-0.02257463,1.334977,0.3665173,-0.07210349,0.1028628,9.416446,13.58474,-0.087243,-0.01967629,-0.03567861,-0.09915854,-2.408954,-1.463352,0.1124823,1.433417,0.296133,0.1396866,0.07995445,0.03120747,-1.191215,0.6769611,-0.1828388,0.2841113,1.476264,0.1987896,-0.3700215,1.256285,0.273459,295.3304,295.4855,314.5944,True
5,3.366659,0.0672566,-0.06689731,0.1089548,-1.544206,1.552545,-1.687273,-0.02286026,1.334782,0.366241,-0.07344466,-0.1231358,9.363397,13.0705,-0.0707871,-0.1406929,-0.2224386,-0.09484901,-2.514658,-1.357831,0.1119893,1.43311,0.2959206,0.1361462,0.09067965,-0.0102836,-1.192802,0.6780974,-0.1847517,0.2836114,1.476298,0.1989272,-0.3708239,1.256275,0.2727573,295.4961,295.3792,314.2934,True
5,3.37777,0.0500731,-0.05334534,0.04075088,-1.543796,1.55083,-1.687257,-0.0232493,1.33464,0.3660619,-0.07529449,-0.16779,9.416446,12.49196,-0.07500758,-0.001362309,-0.1177514,-0.09910475,-2.478572,-1.392859,0.1113124,1.432849,0.2956443,0.09220076,0.1184231,-0.04076079,-1.194608,0.6803704,-0.1850284,0.283164,1.476305,0.1990356,-0.3714722,1.256306,0.2718494,295.5409,295.3838,314.0308,True
5,3.388881,0.02763813,-0.04704487,0.03223493,-1.543934,1.550874,-1.686442,-0.02339384,1.334022,0.3661273,-0.07546014,-0.01370292,9.522545,11.89201,-0.1151265,0.1114866,-0.1599265,-0.1049648,-2.500465,-1.368456,0.110512,1.432646,0.2954764,-0.002346538,0.1545387,-0.006882321,-1.194216,0.6837437,-0.1830481,0.2828895,1.476369,0.1989069,-0.3718532,1.256292,0.2707309,295.3406,295.4121,313.8882,True
5,3.399992,0.004137455,-0.03116149,0.03114545,-1.544137,1.551184,-1.685681,-0.02393398,1.333895,0.3660452,-0.07470593,0.06898287,9.734747,11.27062,-0.1529486,0.1526394,-0.03925327,-0.1070543,-2.464521,-1.401293,0.1099898,1.432976,0.2955046,-0.01266297,0.1161144,0.03255289,-1.19245,0.6840883,-0.182797,0.2824967,1.476328,0.1988914,-0.3721455,1.256221,0.2696685,295.0706,295.3699,313.8076,True
