loc,t,aDotS,bDotS,gDotS,aS,bS,gS,xS,yS,zS,qE,qDotE,emgA,emgB,aDotSH,bDotSH,gDotSH,aSH,bSH,gSH,xSH,ySH,zSH,aDotUB,bDotUB,gDotUB,aUB,bUB,gUB,xUB,yUB,zUB,xHand,yHand,zHand,aHand,bHand,gHand,enable
2,0,-0.09939027,-1.478485,0.247817,-1.362402,-4.359051,-2.937899,0.2902815,1.188145,0.4233382,-1.342879,-0.01973809,11.83024,14.54896,-0.3893276,0.4926515,0.4113777,-0.8723376,-3.248262,-0.6381142,0.2803238,1.377456,0.3361592,-0.4672798,0.1541123,0.1806805,-0.7005898,0.8247386,-0.3969972,0.4410002,1.499974,0.2235565,0.03231259,1.101563,0.3321296,293.3238,215.5223,55.70378,True
2,0.01111111,-0.1207301,-1.46042,0.2499863,-1.361992,-4.342777,-2.939269,0.2882893,1.188378,0.4214852,-1.342209,0.06146513,11.90981,14.69895,-0.3925914,0.4947777,0.4028859,-0.872189,-3.239255,-0.6395395,0.2795315,1.377744,0.3345163,-0.4631279,0.1413528,0.1710295,-0.6999277,0.8274878,-0.3938773,0.4410684,1.500104,0.2226803,0.03083994,1.101461,0.3296832,294.8132,213.5831,58.53488,True
2,0.02222222,-0.1314186,-1.446593,0.2553274,-1.361769,-4.326585,-2.94086,0.2862084,1.188666,0.4196815,-1.341721,0.04403448,11.96286,14.78466,-0.3893769,0.4884065,0.4017917,-0.8718603,-3.230337,-0.6411009,0.2787161,1.378022,0.3329508,-0.454758,0.1339192,0.154956,-0.6995549,0.8302966,-0.3909835,0.4408062,1.500135,0.221853,0.02934663,1.101424,0.3270968,296.4554,211.8423,61.14728,True
2,0.03333334,-0.1452896,-1.426373,0.2606962,-1.361832,-4.310894,-2.942072,0.2842863,1.188911,0.4178491,-1.341704,0.0014233,11.98939,14.87037,-0.3679496,0.4682125,0.4111947,-0.8704771,-3.221982,-0.6431987,0.2781176,1.378385,0.3313479,-0.4485145,0.1264727,0.1367899,-0.6991522,0.8324493,-0.3879227,0.4408326,1.500205,0.2210305,0.02781238,1.101458,0.3244582,298.1538,210.453,63.38517,True
2,0.04444445,-0.1527741,-1.410421,0.2681824,-1.362039,-4.294734,-2.94353,0.2822806,1.189207,0.4160306,-1.342088,-0.03504758,11.98939,14.93465,-0.3604806,0.458648,0.4090029,-0.8697304,-3.213487,-0.6449422,0.2774315,1.378685,0.3298323,-0.4400269,0.1200643,0.1356487,-0.6981232,0.835066,-0.3851304,0.440631,1.500196,0.2202516,0.02713965,1.100302,0.3195983,303.9606,205.6021,66.15334,True
2,0.05555556,-0.1581103,-1.396575,0.2756391,-1.362345,-4.278789,-2.944839,0.2804382,1.189459,0.4141634,-1.341983,0.01003216,11.93634,14.9775,-0.3392101,0.442733,0.3981739,-0.869145,-3.205672,-0.6468203,0.2768233,1.379096,0.3283858,-0.4337096,0.106211,0.1291925,-0.697255,0.8368086,-0.3818123,0.4406855,1.500268,0.2193902,0.02551026,1.101121,0.3168459,304.1716,206.1042,68.79402,True
2,0.06666667,-0.1634842,-1.37744,0.284108,-1.362467,-4.262893,-2.946327,0.2785624,1.189529,0.4120617,-1.342232,-0.02286897,11.85676,14.99893,-0.3210121,0.3863371,0.3873294,-0.8675082,-3.199941,-0.6475705,0.276346,1.379451,0.3269966,-0.4284453,0.09129262,0.1269899,-0.6962904,0.838515,-0.3782757,0.4406782,1.500242,0.2185993,0.0245507,1.100596,0.3133604,308.2391,204.5827,68.74166,True
2,0.07777778,-0.1688821,-1.348722,0.2734299,-1.362349,-4.248079,-2.947529,0.2768707,1.189843,0.4101636,-1.342265,-0.002673957,11.77719,15.02035,-0.3178477,0.3735847,0.3776988,-0.8668025,-3.192867,-0.6486787,0.275765,1.379727,0.3255355,-0.4274456,0.08490938,0.1195198,-0.695525,0.840235,-0.3749299,0.4407197,1.500307,0.2177689,0.02376637,1.100172,0.3095537,311.166,203.7324,69.99514,True
2,0.08888889,-0.173215,-1.31041,0.2617736,-1.362514,-4.233826,-2.948501,0.2752842,1.190195,0.4082634,-1.342541,-0.0252168,11.67109,15.04178,-0.3084065,0.3533985,0.3509722,-0.8663151,-3.187141,-0.6493261,0.2754101,1.380109,0.3239005,-0.4222257,0.07639486,0.1077497,-0.6950755,0.8414723,-0.3713261,0.4408922,1.500311,0.2168057,0.02291872,1.100158,0.3062996,313.1621,203.5703,70.90195,True
2,0.1,-0.1807604,-1.278521,0.2500291,-1.362288,-4.219296,-2.949293,0.2737366,1.190509,0.4063735,-1.342576,-0.00288194,11.59151,15.04178,-0.3031411,0.3513047,0.341336,-0.8659812,-3.180179,-0.6506031,0.2750411,1.38033,0.3224492,-0.4116423,0.05933577,0.1023275,-0.6941886,0.8421574,-0.3676683,0.4411179,1.500339,0.2159181,0.02193473,1.100352,0.3035645,314.3954,203.9801,71.38605,True
2,0.1111111,-0.189434,-1.231687,0.2318907,-1.361876,-4.206728,-2.949495,0.2723494,1.190819,0.4045854,-1.34252,0.005198292,11.48541,14.89179,-0.2894067,0.3417813,0.3231012,-0.8658139,-3.174108,-0.6517608,0.2745931,1.380777,0.3208547,-0.402123,0.05932164,0.09373283,-0.6936725,0.8434569,-0.3644099,0.441326,1.500313,0.214962,0.02098596,1.10059,0.3011762,315.2441,204.5057,71.6065,True
2,0.1222222,-0.1981281,-1.180612,0.2127109,-1.361347,-4.194424,-2.949605,0.2709683,1.191349,0.4027362,-1.342337,0.01664907,11.37931,14.67752,-0.2702613,0.3301425,0.3144158,-0.8654101,-3.168023,-0.6532963,0.2742382,1.381104,0.3194242,-0.3872658,0.04757881,0.08934719,-0.6928895,0.8441638,-0.3610807,0.4414986,1.500388,0.2140005,0.02013729,1.100764,0.2988738,316.0133,204.9229,71.78689,True
2,0.1333333,-0.1950693,-1.133747,0.1998667,-1.361006,-4.183038,-2.949899,0.2696952,1.191724,0.4010801,-1.342211,0.0114383,11.24668,14.39897,-0.2531247,0.3120784,0.3195973,-0.8641462,-3.162024,-0.6549674,0.2738656,1.381672,0.3178704,-0.3809001,0.03478193,0.08928326,-0.691934,0.8445914,-0.3574061,0.4416778,1.500444,0.2130725,0.01939484,1.100814,0.2964823,316.8988,205.1449,72.05473,True
2,0.1444445,-0.185569,-1.104993,0.1891321,-1.360519,-4.170971,-2.950746,0.268424,1.192074,0.3993738,-1.342249,-0.003479256,11.14058,14.05614,-0.2476914,0.2993081,0.3280685,-0.8628013,-3.155711,-0.6564758,0.2736352,1.38204,0.3164887,-0.3873715,0.02734187,0.08078898,-0.6914168,0.8448473,-0.3529887,0.4419102,1.500468,0.21227,0.01873112,1.100815,0.2940296,317.8707,205.2349,72.35167,True
2,0.1555556,-0.1611751,-1.068753,0.1731077,-1.360069,-4.159523,-2.952214,0.267188,1.192489,0.3977087,-1.342703,-0.04137716,11.03448,13.71331,-0.2369008,0.2759062,0.3364865,-0.8610596,-3.14996,-0.6579438,0.2734502,1.382326,0.3150482,-0.389452,0.0369283,0.08507753,-0.6906275,0.8464764,-0.3498232,0.4421316,1.500492,0.2113841,0.01814815,1.102962,0.2851654,311.0948,205.6567,68.48357,True
2,0.1666667,-0.1325718,-1.02933,0.1474399,-1.359064,-4.148589,-2.953978,0.2660852,1.192924,0.396215,-1.343196,-0.04471068,10.95491,13.3919,-0.2231407,0.2759577,0.3246642,-0.8603747,-3.144183,-0.6596717,0.2732328,1.38258,0.3136487,-0.3786761,0.0518049,0.09673262,-0.6896746,0.8488675,-0.3479521,0.4424326,1.500467,0.2104669,0.019743,1.101772,0.2787507,312.7459,201.9819,70.50607,True
2,0.1777778,-0.1274284,-0.9761149,0.1175027,-1.357569,-4.139009,-2.95481,0.2651905,1.193258,0.3948007,-1.343959,-0.06942358,10.87533,13.04907,-0.2116923,0.3154249,0.3033119,-0.8612663,-3.136901,-0.6625231,0.2730009,1.382883,0.3123541,-0.3680564,0.03900182,0.09557352,-0.6887036,0.8494295,-0.3446511,0.442743,1.500491,0.2095652,0.02022398,1.100099,0.274035,317.4748,198.2357,74.60558,True
2,0.1888889,-0.1318207,-0.9367424,0.09728141,-1.356473,-4.129513,-2.955116,0.2642162,1.193667,0.3933179,-1.344329,-0.0333451,10.82228,12.68481,-0.2075353,0.3367481,0.2979722,-0.8615784,-3.129725,-0.6650286,0.2728071,1.383176,0.3110034,-0.3542667,0.01447999,0.09331751,-0.6875062,0.8489051,-0.3408535,0.4430611,1.500585,0.208715,0.02034733,1.101315,0.2660303,313.4789,198.9502,71.19593,True
2,0.2,-0.1299375,-0.8590463,0.05774681,-1.354471,-4.122276,-2.955467,0.2635276,1.194036,0.3921385,-1.343576,0.06903521,10.74271,12.42768,-0.2020839,0.344213,0.3171083,-0.8609121,-3.122109,-0.6678982,0.2728317,1.383453,0.3097851,-0.3416641,-0.002564162,0.07296457,-0.6871361,0.848112,-0.3369184,0.443352,1.500662,0.2078781,0.02123643,1.100972,0.2625067,316.0629,196.8892,72.88115,True
2,0.2111111,-0.126887,-0.8143271,0.04174542,-1.353205,-4.114425,-2.955784,0.2626824,1.194388,0.3908823,-1.342892,0.06182862,10.68966,12.23484,-0.1999035,0.3420824,0.3234766,-0.8601813,-3.115345,-0.6701334,0.2727065,1.383785,0.3084788,-0.3288915,-0.004722357,0.0717997,-0.6864132,0.8482885,-0.3338991,0.4436907,1.500734,0.2071397,0.02095168,1.100665,0.260302,317.1958,197.0011,73.13914,True
2,0.2222222,-0.1143159,-0.741904,0.0192751,-1.351737,-4.108293,-2.956291,0.2620361,1.194937,0.3897915,-1.343312,-0.03895257,10.66313,12.06342,-0.1774035,0.3069921,0.3264729,-0.858568,-3.11008,-0.6724458,0.2727712,1.384083,0.3074651,-0.3181962,0.006968021,0.07492568,-0.6857038,0.8494447,-0.3315899,0.444031,1.500821,0.206362,0.02071511,1.103323,0.2525746,308.0472,197.6159,68.79151,True
2,0.2333333,-0.09857079,-0.6683947,-0.007486515,-1.349874,-4.103477,-2.956784,0.2615452,1.195353,0.3888185,-1.343173,0.01319052,10.66313,11.89201,-0.1571933,0.2836245,0.3124453,-0.8577099,-3.105478,-0.6744735,0.2728361,1.384455,0.3064034,-0.3118017,0.005886227,0.07594346,-0.6848606,0.8499334,-0.3287057,0.4444414,1.500802,0.2056255,0.02253282,1.102969,0.246196,307.444,194.9866,68.92637,True
2,0.2444444,-0.0976211,-0.6119788,-0.0203006,-1.348602,-4.09799,-2.957018,0.2611936,1.195875,0.3877265,-1.343657,-0.04449537,10.74271,11.72059,-0.1285221,0.2528463,0.2876944,-0.8571187,-3.101788,-0.6764722,0.2728778,1.384728,0.3054531,-0.2960042,-0.01649991,0.05661931,-0.6845698,0.84828,-0.3246878,0.4449043,1.500795,0.2048676,0.02414549,1.101115,0.2417652,311.6052,191.4274,71.40031,True
2,0.2555556,-0.09468114,-0.5171789,-0.03533997,-1.347231,-4.095711,-2.956608,0.2609686,1.1963,0.3869672,-1.343906,-0.02236536,10.82228,11.52775,-0.1115367,0.2294746,0.2704994,-0.8563192,-3.097935,-0.6783423,0.2730157,1.385147,0.3044672,-0.2748598,-0.03356341,0.03833513,-0.6844057,0.8467597,-0.3212321,0.4454013,1.500783,0.2041585,0.02439532,1.100482,0.2391757,313.7688,190.7133,72.3674,True
2,0.2666667,-0.1066888,-0.4096544,-0.05569812,-1.345723,-4.094644,-2.955338,0.2609072,1.196702,0.3863018,-1.343425,0.04402523,10.95491,11.48489,-0.09038617,0.2167758,0.2447622,-0.8561125,-3.094228,-0.6803519,0.2733529,1.385377,0.3037748,-0.2739229,-0.02395076,0.01809635,-0.684932,0.8466683,-0.3181439,0.4458227,1.500767,0.2033308,0.02396426,1.101478,0.2378962,312.6481,191.3356,71.92487,True
2,0.2777778,-0.1133125,-0.3372667,-0.07811868,-1.343997,-4.093373,-2.95397,0.2608125,1.197261,0.3856611,-1.343359,0.005615532,11.08753,11.46347,-0.07234648,0.2083234,0.2318324,-0.8558079,-3.090229,-0.6827599,0.2736283,1.385647,0.302948,-0.2547128,-0.02186298,0.02222007,-0.6845389,0.8466119,-0.3158986,0.4463038,1.500781,0.2025633,0.02325087,1.102476,0.2371065,311.0074,192.519,70.71948,True
2,0.2888889,-0.1094083,-0.2340142,-0.1251212,-1.341218,-4.094327,-2.952717,0.2608565,1.197833,0.3852386,-1.342737,0.05681231,11.19363,11.35633,-0.04457244,0.179644,0.2305342,-0.8544902,-3.087138,-0.6852806,0.2740251,1.38595,0.302283,-0.2302761,-0.04961675,0.02093381,-0.6837709,0.8442686,-0.3123092,0.4466768,1.500696,0.2018557,0.02286195,1.102899,0.2362486,309.7704,193.1154,69.74731,True
2,0.3,-0.1172229,-0.1222543,-0.1689175,-1.338449,-4.096829,-2.950751,0.2610264,1.198525,0.3848441,-1.342543,0.01734019,11.27321,11.14206,-0.01988515,0.1381665,0.2388305,-0.8522525,-3.08459,-0.6875334,0.2744491,1.386164,0.3014014,-0.2080805,-0.07520516,0.003696322,-0.6837528,0.84146,-0.3085293,0.4472164,1.50065,0.2011073,0.02289091,1.102889,0.2350048,309.2105,192.8529,69.40192,True
2,0.3111111,-0.1261142,0.0001930576,-0.2020731,-1.335893,-4.101715,-2.947929,0.2613584,1.199069,0.3847222,-1.343171,-0.05752718,11.29973,10.86351,-0.0007329211,0.1254438,0.2301564,-0.8510674,-3.081643,-0.6902016,0.2748633,1.386496,0.3007739,-0.1815411,-0.08271047,-0.008233011,-0.6839141,0.8392347,-0.305683,0.4478137,1.500599,0.2003386,0.02312372,1.102782,0.2333903,309.159,192.1113,69.46123,True
2,0.3222222,-0.1337926,0.08002934,-0.2181318,-1.333692,-4.105323,-2.945378,0.2616006,1.199576,0.3844554,-1.342897,0.02558315,11.27321,10.62781,0.03949685,0.1021607,0.1882922,-0.8507265,-3.080597,-0.6925361,0.2754686,1.386753,0.3002367,-0.1592868,-0.09871829,-0.02013365,-0.6840026,0.836489,-0.302496,0.4484794,1.50057,0.1996095,0.02336331,1.102826,0.2317734,309.152,191.3462,69.50223,True
2,0.3333333,-0.1416581,0.2205903,-0.2502484,-1.331298,-4.113552,-2.941606,0.2621898,1.200248,0.3847692,-1.342575,0.02916225,11.27321,10.45639,0.07236852,0.08843108,0.1624655,-0.8503479,-3.079236,-0.6953093,0.2760688,1.387153,0.2999291,-0.1434049,-0.1200559,-0.02880774,-0.684001,0.8328763,-0.2985926,0.449126,1.500588,0.1988897,0.02344917,1.103105,0.2304228,308.8572,190.8949,69.20795,True
2,0.3444445,-0.1375661,0.2738238,-0.2673748,-1.328864,-4.118582,-2.938941,0.2626514,1.200903,0.3847513,-1.34257,0.0003163526,11.24668,10.30641,0.09896539,0.07466879,0.1526715,-0.8493993,-3.077515,-0.6982904,0.2766867,1.387692,0.2995172,-0.11794,-0.1605823,-0.03223996,-0.6835371,0.8278098,-0.2942335,0.4498466,1.500677,0.1981452,0.02337221,1.103548,0.2294397,308.1412,190.8063,68.56538,True
2,0.3555556,-0.135671,0.3494342,-0.2909144,-1.326226,-4.126024,-2.935712,0.2632743,1.201714,0.385114,-1.342503,0.006138104,11.22016,10.09213,0.1395588,0.03963151,0.1534052,-0.8475276,-3.076794,-0.7016985,0.2774558,1.388268,0.2993786,-0.09985545,-0.1872534,-0.02920745,-0.6828329,0.8231602,-0.2901839,0.4505382,1.500763,0.1974163,0.02322223,1.103986,0.2286719,307.2333,190.8788,67.73939,True
2,0.3666667,-0.1336663,0.4494976,-0.3177823,-1.323745,-4.133582,-2.932514,0.2641333,1.202655,0.3856192,-1.342909,-0.03707181,11.24668,10.00643,0.1588452,0.01305221,0.156437,-0.8455888,-3.075987,-0.7047342,0.2783028,1.388977,0.2991688,-0.06691712,-0.2235406,-0.03270306,-0.682346,0.8169044,-0.2858554,0.4512781,1.500787,0.1967115,0.02311918,1.104439,0.2281538,306.1836,190.9035,66.83787,True
2,0.3777778,-0.1329329,0.4921001,-0.3379726,-1.320793,-4.142094,-2.928988,0.2649831,1.203728,0.3861864,-1.343003,-0.008362002,11.27321,10.02785,0.1791507,-0.01671255,0.1530646,-0.8435339,-3.075979,-0.707486,0.2792793,1.38974,0.2992926,-0.02975166,-0.2289191,-0.04789053,-0.6825618,0.812339,-0.283334,0.4521102,1.500865,0.1960914,0.02305967,1.104812,0.2276436,305.1952,190.8472,66.03526,True
2,0.3888889,-0.1288229,0.5314894,-0.3604063,-1.317732,-4.150198,-2.925556,0.2657774,1.204857,0.3867884,-1.343089,-0.007714636,11.27321,10.13499,0.212244,-0.05070002,0.1485263,-0.8413165,-3.076462,-0.7106235,0.2803476,1.390564,0.2995274,-0.00124231,-0.2438577,-0.08009268,-0.6838129,0.8063481,-0.2796601,0.4530668,1.500836,0.1956398,0.02307514,1.105186,0.2271942,304.2825,190.6361,65.30177,True
2,0.4,-0.1333066,0.5814896,-0.4020002,-1.313644,-4.159557,-2.921634,0.2667727,1.206122,0.3876357,-1.343018,0.00652249,11.27321,10.30641,0.2603543,-0.1016898,0.1502558,-0.8382028,-3.077665,-0.7143376,0.2814544,1.391284,0.2997484,0.0228352,-0.2800614,-0.1271921,-0.685674,0.7986902,-0.2744167,0.4538102,1.501116,0.1948893,0.02311957,1.105631,0.2268577,303.359,190.3866,64.57462,True
2,0.4111111,-0.1569723,0.634641,-0.4435567,-1.309498,-4.16974,-2.916403,0.267795,1.20732,0.3885987,-1.34302,-0.000370935,11.19363,10.47782,0.3073278,-0.1590679,0.1402718,-0.8348344,-3.080247,-0.7175611,0.2826684,1.3921,0.3000755,0.03755671,-0.2939072,-0.150767,-0.6871952,0.791976,-0.270061,0.4548495,1.500946,0.1943552,0.02309598,1.106139,0.2266313,302.4261,190.2802,63.69905,True
2,0.4222222,-0.187025,0.6845605,-0.4818987,-1.30524,-4.18014,-2.91062,0.268941,1.20867,0.3896549,-1.342879,0.01302388,11.08753,10.64924,0.350003,-0.2270994,0.1207224,-0.8312983,-3.084198,-0.7201211,0.2838846,1.392928,0.300473,0.07233125,-0.3461252,-0.1894339,-0.6889491,0.7821845,-0.2644024,0.4560245,1.501014,0.1937912,0.02303759,1.10667,0.2264549,301.5461,190.2427,62.74115,True
2,0.4333333,-0.1945931,0.7026184,-0.5085353,-1.300822,-4.190184,-2.90553,0.269967,1.209951,0.3907216,-1.341845,0.09432402,11.00796,10.82066,0.3787967,-0.280264,0.1034181,-0.8276838,-3.088619,-0.7222706,0.2852063,1.393822,0.3010135,0.090287,-0.3706445,-0.2045305,-0.6906781,0.773518,-0.2592268,0.45702,1.501186,0.1931543,0.02301447,1.107216,0.2263453,300.7405,190.1211,61.7796,True
2,0.4444444,-0.20328,0.7302229,-0.5447859,-1.296135,-4.200734,-2.900286,0.2711615,1.211495,0.3919559,-1.341401,0.03997261,10.92838,10.99207,0.3969352,-0.3025724,0.09793781,-0.8244752,-3.091727,-0.7250342,0.2865678,1.394616,0.3014221,0.111402,-0.3951614,-0.2249644,-0.6925689,0.7644771,-0.2541199,0.4580335,1.501258,0.1926179,0.02313042,1.107865,0.2258389,299.09,190.6148,59.38406,True
2,0.4555556,-0.2130004,0.7503968,-0.5778122,-1.290988,-4.211691,-2.894595,0.2723368,1.213073,0.3933477,-1.342166,-0.07009907,10.90185,11.18491,0.4299341,-0.3077952,0.09235792,-0.8214483,-3.094599,-0.7289884,0.2880884,1.395559,0.302104,0.12728,-0.4196846,-0.2325662,-0.6939687,0.7551408,-0.2488655,0.4591851,1.501294,0.1920357,0.02357201,1.108501,0.2246991,297.0952,191.1011,56.79619,True
2,0.4666667,-0.2227247,0.7620171,-0.6172271,-1.285459,-4.222462,-2.88888,0.2737638,1.214741,0.3947563,-1.342402,-0.02079529,10.90185,11.35633,0.4630457,-0.320487,0.09849784,-0.8177897,-3.097264,-0.7333602,0.2898003,1.396589,0.302779,0.1611408,-0.4676689,-0.248851,-0.6955676,0.7438725,-0.2427839,0.4603844,1.50122,0.1913044,0.02556566,1.108984,0.2232738,295.8962,194.4682,51.25978,True
2,0.4777778,-0.2281184,0.7673022,-0.6385265,-1.280106,-4.233256,-2.883077,0.275023,1.216345,0.3961878,-1.342223,0.01652034,10.95491,11.48489,0.4877486,-0.3555714,0.111069,-0.8132495,-3.10082,-0.7370613,0.2914767,1.39765,0.3035841,0.1843528,-0.5113668,-0.2682458,-0.6973786,0.731982,-0.2363952,0.4616563,1.501236,0.1907067,0.02796866,1.109287,0.2222781,296.298,194.7094,49.20063,True
2,0.4888889,-0.24854,0.8012652,-0.671551,-1.274534,-4.245265,-2.87622,0.2767681,1.218061,0.3978307,-1.342268,-0.004338814,11.00796,11.5706,0.5317465,-0.4034026,0.1341454,-0.8074987,-3.104955,-0.7414805,0.2933351,1.398828,0.3044438,0.1896106,-0.5284113,-0.2757984,-0.6995682,0.7209213,-0.2301975,0.4629246,1.501325,0.1903732,0.03028178,1.109885,0.2220794,296.5356,195.8334,46.54978,True
2,0.5,-0.2592738,0.816121,-0.6832733,-1.269456,-4.256986,-2.869537,0.2783978,1.219743,0.399364,-1.342341,-0.006552652,11.08753,11.61346,0.5628544,-0.4416638,0.1477436,-0.8019758,-3.108974,-0.7457991,0.2951694,1.399984,0.3053057,0.217044,-0.5763701,-0.2995207,-0.7021328,0.7073285,-0.2230179,0.4644414,1.501435,0.1899545,0.03216514,1.110608,0.2225443,295.9566,197.7177,43.37311,True
2,0.5111111,-0.2796012,0.8405587,-0.6939082,-1.26444,-4.269538,-2.861983,0.2799697,1.221429,0.4010789,-1.341804,0.0492402,11.11406,11.54917,0.6173779,-0.4958338,0.1515538,-0.7956417,-3.114765,-0.7505051,0.2970841,1.401168,0.3063505,0.2328542,-0.6008808,-0.3167099,-0.7045201,0.6945912,-0.2164426,0.4658188,1.501445,0.1894383,0.03367591,1.111301,0.2234579,295.2148,200.2674,39.63406,True
2,0.5222223,-0.2913816,0.8703551,-0.6917803,-1.260049,-4.282313,-2.854644,0.281702,1.223139,0.4028127,-1.342019,-0.01992229,11.06101,11.46347,0.6365386,-0.549032,0.1290065,-0.7898659,-3.122102,-0.7528983,0.2992117,1.402424,0.307462,0.2508433,-0.6200753,-0.3285843,-0.70691,0.6818438,-0.2101687,0.4673796,1.501382,0.1889534,0.03503572,1.111903,0.2247164,294.8122,202.9779,35.82183,True
2,0.5333334,-0.3074592,0.902258,-0.6971038,-1.255803,-4.295994,-2.84648,0.283551,1.224979,0.4048166,-1.341624,0.03640262,10.98143,11.37776,0.6557249,-0.595835,0.111783,-0.7837097,-3.129893,-0.7554456,0.3013777,1.403683,0.3086569,0.2655682,-0.6413751,-0.3489892,-0.7102906,0.6685373,-0.2034945,0.4689522,1.501304,0.1884451,0.03603866,1.112501,0.2263568,294.2544,207.5626,30.36215,True
2,0.5444446,-0.3160544,0.9160587,-0.705628,-1.25087,-4.3092,-2.838376,0.2853872,1.226843,0.4064965,-1.342061,-0.04012829,10.90185,11.29205,0.6621233,-0.6139277,0.1074731,-0.7777533,-3.13646,-0.7582566,0.3035123,1.404888,0.3097851,0.2823581,-0.6765326,-0.3758003,-0.7138332,0.6534078,-0.1957133,0.4704502,1.501206,0.1880381,0.03694871,1.113005,0.2279637,294.0363,211.5406,25.18976,True
2,0.5555557,-0.3353169,0.9436986,-0.7130742,-1.246496,-4.323589,-2.829368,0.2873019,1.228654,0.4082835,-1.341763,0.02773127,10.8488,11.22777,0.6879048,-0.6958723,0.1029577,-0.7696594,-3.146678,-0.7596233,0.3058735,1.406283,0.3111417,0.301302,-0.7138262,-0.3983549,-0.7171919,0.6379593,-0.1881119,0.4720951,1.501148,0.1876276,0.03801424,1.113496,0.2293877,294.1158,214.9024,20.53277,True
2,0.5666668,-0.3578147,0.974502,-0.7279856,-1.241915,-4.338345,-2.819831,0.289387,1.230495,0.4100091,-1.341837,-0.006930544,10.82228,11.22777,0.7115557,-0.7394848,0.1144833,-0.7616971,-3.155136,-0.7622529,0.308321,1.407631,0.3123851,0.3118208,-0.724479,-0.414423,-0.7207633,0.6237493,-0.1813139,0.4737192,1.501078,0.1872208,0.03910205,1.114119,0.2309343,294.677,216.2781,18.04853,True
2,0.577778,-0.3759724,0.9914987,-0.7300938,-1.237863,-4.35289,-2.810251,0.2913565,1.232218,0.4117749,-1.34153,0.02818898,10.82228,11.27062,0.7146817,-0.7596961,0.09741385,-0.7550339,-3.163906,-0.7639722,0.3107803,1.408901,0.313678,0.3233765,-0.7372731,-0.4347274,-0.7243292,0.6095563,-0.1746946,0.4751449,1.501031,0.1866422,0.03962261,1.11548,0.2331382,295.2891,215.9552,17.87653,True
2,0.5888891,-0.4080119,1.041512,-0.7141004,-1.235337,-4.368885,-2.799428,0.2935542,1.233868,0.4135659,-1.341328,0.01845596,10.8488,11.35633,0.7051175,-0.7959383,0.08576775,-0.7476159,-3.17394,-0.7642327,0.3133102,1.410202,0.3148742,0.3328341,-0.7575157,-0.4476042,-0.7281327,0.5945212,-0.1674995,0.4768237,1.500964,0.1862845,0.03944397,1.117943,0.2363183,295.5566,215.5682,18.29446,True
2,0.6000003,-0.4229994,1.060646,-0.7066538,-1.23215,-4.384098,-2.789015,0.2959101,1.235726,0.4152169,-1.341453,-0.01148773,10.92838,11.46347,0.6955847,-0.8172745,0.08475722,-0.7401404,-3.183571,-0.7646329,0.3158185,1.411424,0.3161738,0.3444845,-0.7713704,-0.4615431,-0.7320705,0.5795728,-0.1611266,0.478369,1.500948,0.1859531,0.03861909,1.121606,0.2405709,295.4315,215.2222,19.19919,True
2,0.6111114,-0.4411625,1.095774,-0.6928074,-1.23005,-4.400272,-2.77808,0.298139,1.237412,0.4169116,-1.340959,0.04544411,10.98143,11.5706,0.6913434,-0.8247528,0.08478528,-0.7327949,-3.192821,-0.7654404,0.318468,1.412723,0.3175666,0.3475443,-0.7873368,-0.4764997,-0.736404,0.5643207,-0.1538159,0.4800707,1.500893,0.1856251,0.03729191,1.126349,0.2457984,294.9473,214.8597,20.56183,True
2,0.6222225,-0.4624622,1.119195,-0.6767973,-1.228375,-4.416066,-2.76704,0.3002146,1.239031,0.4185877,-1.341329,-0.03395769,11.03448,11.67774,0.6924548,-0.8215525,0.09224303,-0.725632,-3.20102,-0.7670772,0.3210589,1.413951,0.3189139,0.354915,-0.7979878,-0.4957197,-0.7409558,0.5489886,-0.1472227,0.4816234,1.500856,0.1854517,0.03573356,1.131962,0.2517996,294.2158,214.6054,22.19539,True
2,0.6333337,-0.4869734,1.141531,-0.6586557,-1.227153,-4.431992,-2.755473,0.3024288,1.240625,0.4201877,-1.341419,-0.00787826,11.03448,11.8063,0.6998616,-0.8172819,0.09007572,-0.7187227,-3.209821,-0.7683433,0.3240132,1.415292,0.3204618,0.3738908,-0.8192947,-0.5203848,-0.7460878,0.5332742,-0.1404991,0.4833438,1.500708,0.1852646,0.03422675,1.138142,0.2582283,293.383,214.158,24.2368,True
2,0.6444448,-0.5072272,1.155343,-0.6501001,-1.225809,-4.44796,-2.74378,0.3046809,1.242206,0.4218023,-1.341427,-0.0004133143,11.08753,11.91343,0.7084441,-0.8406996,0.09002449,-0.710786,-3.219923,-0.7688908,0.3268583,1.416632,0.321897,0.387664,-0.8320958,-0.5279505,-0.7507983,0.5179026,-0.1340119,0.4850178,1.500655,0.1850352,0.03279635,1.144544,0.2647135,292.474,213.5305,26.44129,True
2,0.655556,-0.5370812,1.17979,-0.6362092,-1.225296,-4.464506,-2.731112,0.306896,1.243746,0.4233453,-1.341169,0.02369676,11.14058,12.02057,0.7257927,-0.9322599,0.09410296,-0.7006393,-3.233487,-0.7672623,0.32985,1.417874,0.3234413,0.4003258,-0.84277,-0.5408183,-0.7556661,0.5025219,-0.127697,0.4868699,1.500458,0.1845982,0.03151225,1.15085,0.2709444,291.5703,212.7972,28.64114,True
2,0.6666671,-0.5765415,1.195666,-0.6308208,-1.224613,-4.480955,-2.717788,0.3092351,1.245347,0.4248631,-1.341264,-0.008706228,11.22016,12.19199,0.7258854,-0.9663676,0.09732643,-0.6913918,-3.245945,-0.7654447,0.3327975,1.419217,0.3247604,0.402354,-0.852335,-0.555773,-0.7611746,0.4871207,-0.121271,0.4887421,1.500331,0.184427,0.03052921,1.156831,0.2767221,290.7829,212.0129,30.71027,True
2,0.6777782,-0.6213049,1.199813,-0.6328403,-1.223821,-4.497247,-2.703827,0.311446,1.246776,0.426497,-1.340744,0.04774223,11.27321,12.34197,0.7248841,-0.9908722,0.09625626,-0.6824377,-3.25828,-0.7639824,0.3356962,1.420424,0.3262241,0.4108115,-0.8587334,-0.5632978,-0.7665297,0.4718727,-0.1151439,0.4904484,1.500182,0.1842513,0.02989505,1.162369,0.2819566,290.1642,211.1846,32.55947,True
2,0.6888894,-0.6671341,1.202909,-0.634818,-1.223397,-4.513522,-2.689382,0.3135675,1.248592,0.428798,-1.340287,0.04164622,11.27321,12.51339,0.7044184,-0.971784,0.07613499,-0.6751529,-3.270354,-0.7618193,0.3385803,1.421622,0.3278689,0.4224133,-0.8587341,-0.5804158,-0.7723631,0.4570392,-0.1096152,0.4921286,1.500016,0.1841092,0.02952579,1.16749,0.2866519,289.706,210.5096,34.01125,True
2,0.7000005,-0.6873215,1.186893,-0.6304812,-1.222972,-4.528788,-2.675981,0.3156353,1.250143,0.4304414,-1.339895,0.03568345,11.24668,12.64195,0.6808576,-0.9430801,0.07101679,-0.6682212,-3.280423,-0.7606292,0.3413993,1.422838,0.3293195,0.4319576,-0.8598021,-0.5868744,-0.777895,0.4426913,-0.1044502,0.4938785,1.49978,0.183908,0.02938921,1.17232,0.290904,289.3857,209.8237,35.27488,True
2,0.7111117,-0.711763,1.173001,-0.6154906,-1.223063,-4.543712,-2.662218,0.3177139,1.251979,0.4321299,-1.339751,0.0131586,11.19363,12.70623,0.6745856,-0.9388647,0.09025314,-0.6598956,-3.290689,-0.7596992,0.3443048,1.424082,0.3307681,0.4457456,-0.8640801,-0.5944341,-0.7837246,0.4279322,-0.0993929,0.4954972,1.499597,0.1837571,0.02937355,1.177029,0.2948887,289.17,209.0104,36.41881,True
2,0.7222228,-0.7287674,1.155918,-0.6079692,-1.223117,-4.558458,-2.648508,0.3197417,1.25359,0.4336803,-1.340814,-0.09698824,11.11406,12.79194,0.6970982,-0.9729046,0.09647772,-0.6506145,-3.303514,-0.7580912,0.3472959,1.425341,0.3322077,0.4575315,-0.8598517,-0.5859889,-0.7889652,0.4139005,-0.09493876,0.497137,1.499439,0.1835749,0.02938778,1.181869,0.298874,288.9829,208.2195,37.44183,True
2,0.7333339,-0.7425667,1.129241,-0.6153558,-1.222511,-4.572877,-2.634872,0.3215843,1.255368,0.4352241,-1.340766,0.005422125,10.98143,12.85623,0.725141,-1.022909,0.1228707,-0.6400385,-3.31672,-0.7565106,0.3500876,1.426645,0.3335483,0.4639817,-0.8502771,-0.5849366,-0.7942564,0.400435,-0.09094749,0.4986522,1.499219,0.1833344,0.02937894,1.18695,0.302933,288.6996,207.3617,38.74258,True
2,0.7444451,-0.7521262,1.110031,-0.6259732,-1.221845,-4.587715,-2.621301,0.323773,1.257226,0.4367824,-1.341009,-0.02206829,10.87533,12.89908,0.7307428,-1.029323,0.1569194,-0.6299883,-3.327734,-0.7559431,0.3530766,1.42786,0.3348734,0.4585565,-0.8630374,-0.5955678,-0.8002975,0.385743,-0.08557962,0.5002555,1.499031,0.1831365,0.02937881,1.192341,0.3070877,288.3474,206.4166,40.28888,True
2,0.7555562,-0.7670145,1.092935,-0.6333846,-1.221287,-4.602246,-2.607357,0.325736,1.259186,0.4383099,-1.341252,-0.02191408,10.79576,12.9205,0.7161579,-0.9835906,0.2188493,-0.6203014,-3.334094,-0.758235,0.3559391,1.429123,0.3360543,0.4382046,-0.8842979,-0.6061065,-0.80646,0.3703317,-0.07903383,0.5019794,1.498727,0.1828401,0.02937515,1.198021,0.311306,287.9276,205.0941,42.30035,True
2,0.7666674,-0.7882724,1.082247,-0.6322575,-1.221395,-4.616925,-2.592983,0.3276291,1.261087,0.4398909,-1.341701,-0.04070772,10.76923,12.96336,0.7089584,-0.9634113,0.2615367,-0.6102357,-3.341934,-0.7594709,0.3588195,1.430379,0.3372455,0.4233196,-0.8928006,-0.5996208,-0.8121134,0.3555885,-0.07303773,0.5035231,1.498514,0.1826744,0.02940925,1.203939,0.3155797,287.5251,203.4331,44.64443,True
2,0.7777785,-0.8116816,1.070475,-0.6321843,-1.221621,-4.631395,-2.578291,0.3295191,1.262844,0.441524,-1.341465,0.02200697,10.79576,13.02764,0.7028899,-0.9155462,0.3137653,-0.600162,-3.347089,-0.7635278,0.3617975,1.431691,0.3386846,0.4084672,-0.8842376,-0.5920684,-0.8178536,0.3422439,-0.06778464,0.5051918,1.498342,0.1825633,0.02964322,1.210028,0.31996,287.1484,201.5783,47.16081,True
2,0.7888896,-0.8276384,1.053378,-0.6406448,-1.221439,-4.645531,-2.563755,0.3312285,1.26469,0.4431076,-1.341247,0.01983665,10.79576,13.0705,0.7081225,-0.862273,0.3222843,-0.5919499,-3.352306,-0.7671704,0.3646474,1.432883,0.3398798,0.4150249,-0.8533779,-0.572911,-0.8229637,0.3305237,-0.06443278,0.5066297,1.498199,0.1824493,0.02991231,1.216264,0.3244133,286.781,199.6448,49.75956,True
2,0.8000008,-0.8446624,1.040553,-0.6491113,-1.221402,-4.659935,-2.548989,0.333148,1.266488,0.4447548,-1.341054,0.01768504,10.82228,13.13477,0.711317,-0.8643956,0.3169233,-0.5826219,-3.360963,-0.7682594,0.3675354,1.433975,0.3411133,0.4206495,-0.8342514,-0.5430558,-0.8271155,0.3184202,-0.06134485,0.5075245,1.498334,0.1823356,0.03016978,1.222605,0.3289219,286.3968,197.5622,52.52708,True
2,0.8111119,-0.8702208,1.018089,-0.6692607,-1.220689,-4.674041,-2.533588,0.3347835,1.268493,0.4463065,-1.341301,-0.02260472,10.8488,13.17763,0.7070744,-0.8761251,0.3148173,-0.5731501,-3.369946,-0.7684325,0.3703111,1.435216,0.3422868,0.4197182,-0.8257763,-0.5301758,-0.8314527,0.305661,-0.05748087,0.5088191,1.498073,0.1822314,0.03042919,1.228986,0.3334506,286.0289,195.2765,55.52972,True
2,0.8222231,-0.8819784,1.014873,-0.6681654,-1.2213,-4.688775,-2.518155,0.3367561,1.270408,0.4479685,-1.341409,-0.009516581,10.82228,13.19906,0.6965375,-0.8804162,0.3287597,-0.5632953,-3.377647,-0.7692661,0.3731505,1.436468,0.3434401,0.4133019,-0.8310884,-0.5322681,-0.8368968,0.2925178,-0.05302167,0.5101667,1.497953,0.1821299,0.03071519,1.235344,0.3379515,285.7368,192.8529,58.66818,True
2,0.8333342,-0.8830407,1.012739,-0.669225,-1.221836,-4.703134,-2.503354,0.3384641,1.27248,0.4495583,-1.340905,0.04633057,10.79576,13.19906,0.6935616,-0.895354,0.3522101,-0.5525575,-3.385733,-0.7700506,0.3759031,1.437805,0.3445866,0.3950509,-0.8289285,-0.5565817,-0.8430865,0.2792239,-0.04798377,0.5115134,1.497827,0.1821449,0.0311193,1.241635,0.3424221,285.5248,190.4454,61.75922,True
2,0.8444453,-0.8926284,1.016992,-0.6702812,-1.222784,1.565293,-2.488162,0.3402842,1.274576,0.451159,-1.341261,-0.03280339,10.74271,13.19906,0.6979573,-0.896425,0.3713821,-0.5419719,-3.393087,-0.7716999,0.3789533,1.439212,0.3457141,0.3812546,-0.8139752,-0.5596806,-0.8492405,0.2672493,-0.04415388,0.5127675,1.49772,0.1821299,0.03154854,1.247914,0.3468242,285.4034,188.2362,64.61126,True
2,0.8555565,-0.8958763,1.019118,-0.6745351,-1.223895,1.550314,-2.472741,0.342131,1.276641,0.4528337,-1.342013,-0.06823659,10.71618,13.19906,0.7110749,-0.9209059,0.4064346,-0.530091,-3.40078,-0.7734613,0.3817165,1.44061,0.3468397,0.3641725,-0.7990447,-0.565926,-0.8554228,0.2554908,-0.03977245,0.5142087,1.497573,0.182075,0.0321418,1.254234,0.3512083,285.2824,186.1336,67.31497,True
2,0.8666676,-0.9086538,1.01482,-0.6766295,-1.224972,1.53607,-2.457406,0.3435961,1.278752,0.4544199,-1.341973,0.004298677,10.71618,13.22048,0.7187874,-0.9262299,0.4383326,-0.5185196,-3.407322,-0.7759775,0.384405,1.441923,0.3479621,0.3427413,-0.7957856,-0.5860111,-0.8622373,0.2436574,-0.03522776,0.5155953,1.497369,0.1821191,0.03279962,1.260643,0.355574,285.1774,183.9089,70.14296,True
2,0.8777788,-0.9107198,1.008458,-0.6776954,-1.226084,1.521877,-2.442694,0.3451628,1.280882,0.4559698,-1.34192,0.004777848,10.74271,13.24191,0.7198942,-0.9294251,0.4425842,-0.5076613,-3.415187,-0.7771075,0.3870751,1.443194,0.3490641,0.3170865,-0.7882671,-0.5975367,-0.8688701,0.2324264,-0.03044472,0.5171047,1.497407,0.1821027,0.03356065,1.267152,0.359962,285.1078,181.5291,73.11483,True
2,0.8888899,-0.9245706,1.005221,-0.681919,-1.227403,1.507595,-2.427114,0.3466234,1.282933,0.4575815,-1.341871,0.004584772,10.79576,13.28477,0.7091624,-0.9336981,0.4298909,-0.4972915,-3.424413,-0.7765549,0.3896784,1.444453,0.3500428,0.2724254,-0.7647548,-0.5918712,-0.8750859,0.2221734,-0.02531681,0.5183333,1.497283,0.182162,0.03436453,1.27378,0.3644063,285.0713,178.9484,76.29697,True
2,0.900001,-0.9384024,1.012672,-0.6851115,-1.229205,1.492844,-2.411485,0.3481853,1.285007,0.4591515,-1.342573,-0.06412561,10.8488,13.37047,0.6974545,-0.9220061,0.4353168,-0.4869792,-3.431767,-0.7773421,0.3923133,1.445624,0.3510504,0.2438403,-0.7444789,-0.5703402,-0.8804075,0.2122382,-0.0206925,0.5195876,1.496967,0.1821933,0.03507694,1.280538,0.3688657,285.0582,176.2509,79.6521,True
2,0.9111122,-0.9597459,1.025398,-0.6872088,-1.231483,1.478096,-2.395191,0.3495396,1.286992,0.4607136,-1.341896,0.06251012,10.87533,13.45618,0.670938,-0.8848166,0.4653669,-0.4766099,-3.435481,-0.7804846,0.3947433,1.446701,0.3519878,0.2311044,-0.7348728,-0.5659786,-0.8863565,0.2020452,-0.01632305,0.5207944,1.496757,0.1822863,0.03583301,1.287331,0.3733252,285.097,173.4137,83.16376,True
2,0.9222233,-0.9725741,1.046687,-0.6967994,-1.234108,1.462681,-2.37911,0.3508749,1.289,0.4623694,-1.34201,-0.01098144,10.90185,13.58474,0.6505642,-0.8294848,0.4687358,-0.4677384,-3.438543,-0.7842847,0.3971364,1.447623,0.3529112,0.2629529,-0.7455784,-0.5800465,-0.89287,0.1908002,-0.01321381,0.5219178,1.496484,0.1822677,0.0366322,1.294122,0.377782,285.1807,170.6631,86.56535,True
2,0.9333345,-0.9853426,1.054137,-0.6968303,-1.236807,1.447477,-2.362782,0.3522588,1.290961,0.4637864,-1.341483,0.04854703,10.95491,13.67045,0.624749,-0.7911988,0.4508419,-0.4592755,-3.443436,-0.7860085,0.3994019,1.448664,0.3538544,0.2651117,-0.7807414,-0.5630733,-0.8985255,0.1779747,-0.008361527,0.5229872,1.496277,0.1819205,0.03751114,1.300911,0.382258,285.3012,168.0225,89.8393,True
2,0.9444456,-0.9949345,1.058366,-0.6957673,-1.239789,1.432852,-2.346633,0.3535025,1.29295,0.4653182,-1.341976,-0.04548433,10.98143,13.73473,0.6001652,-0.768893,0.4467719,-0.4503246,-3.448611,-0.7873654,0.4016863,1.449814,0.3548348,0.2087458,-0.7039274,-0.5711025,-0.9050193,0.171257,-0.004647216,0.5239397,1.496204,0.1820819,0.03837245,1.307746,0.3867655,285.4527,165.4671,93.01869,True
2,0.9555568,-1.000211,1.061605,-0.6766055,-1.243584,1.418379,-2.330678,0.3547992,1.295005,0.4668031,-1.341832,0.01378616,11.03448,13.75616,0.5714257,-0.749806,0.4576692,-0.4408554,-3.452163,-0.7895503,0.4039085,1.450922,0.3558452,0.1790649,-0.6570093,-0.562318,-0.9110466,0.1640664,-0.001241832,0.5250135,1.496094,0.1822827,0.03926948,1.314636,0.3913524,285.647,162.9379,96.18721,True
2,0.9666679,-1.005498,1.060546,-0.6606133,-1.247516,1.404553,-2.314887,0.3558889,1.297093,0.4682724,-1.341895,-0.005887534,11.06101,13.73473,0.5554681,-0.7434665,0.4620804,-0.4311434,-3.456849,-0.7911692,0.4060619,1.451675,0.3563502,0.1504995,-0.6484691,-0.5365292,-0.9161338,0.1552116,0.00338541,0.5259743,1.495948,0.1825693,0.04026211,1.321561,0.3959948,285.8634,160.4837,99.35227,True
2,0.977779,-1.005576,1.058437,-0.6521041,-1.251774,1.389892,-2.298384,0.357362,1.300148,0.4714081,-1.342134,-0.02169713,11.08753,13.67045,0.5450423,-0.7445828,0.4909222,-0.4205999,-3.46015,-0.7940114,0.4083118,1.452734,0.3572524,0.1590598,-0.6442264,-0.532317,-0.921931,0.1465632,0.006654707,0.5270851,1.495575,0.1827261,0.04134384,1.328529,0.4006422,286.0874,158.0969,102.4649,True
2,0.9888902,-1.019405,1.049877,-0.6531287,-1.255504,1.376428,-2.282573,0.3582555,1.30227,0.4729598,-1.342182,-0.004026677,11.16711,13.6276,0.5516424,-0.7690757,0.5089696,-0.4097209,-3.465315,-0.7955272,0.4102411,1.453737,0.3580987,0.1644325,-0.643178,-0.5259613,-0.9275193,0.1378589,0.009915748,0.5280592,1.495391,0.1830151,0.04252328,1.335552,0.4052434,286.3097,155.7461,105.5437,True
2,1.000001,-1.044937,1.02962,-0.6583363,-1.259171,1.363043,-2.266106,0.3591867,1.304221,0.474988,-1.341795,0.03540475,11.24668,13.56331,0.5422536,-0.776574,0.532473,-0.3988478,-3.4689,-0.797834,0.4121225,1.454737,0.3589544,0.1622511,-0.6453024,-0.5323343,-0.9336249,0.1287372,0.01347586,0.5290313,1.495293,0.1834228,0.04375758,1.342673,0.4098122,286.6148,153.7413,108.05,True
2,1.011112,-1.082038,0.9794979,-0.6763101,-1.261283,1.350213,-2.249319,0.3596343,1.306293,0.4767942,-1.342142,-0.03186698,11.35279,13.52046,0.5052336,-0.7564647,0.5732484,-0.3877222,-3.468637,-0.8025963,0.4139802,1.45567,0.3597686,0.1558948,-0.6367776,-0.5301426,-0.9396133,0.1202183,0.01699709,0.5299572,1.495094,0.183928,0.04506614,1.35007,0.4146184,286.9852,151.9537,110.173,True
2,1.022224,-1.099028,0.9549484,-0.6794394,-1.264325,1.337376,-2.232527,0.360282,1.308466,0.4785392,-1.341591,0.0506693,11.45889,13.52046,0.4668748,-0.7043872,0.5906101,-0.3782802,-3.466185,-0.808915,0.4156881,1.456715,0.3605709,0.1539544,-0.5920378,-0.5172955,-0.9451281,0.1139424,0.01887143,0.5308096,1.495206,0.1854324,0.04643342,1.357626,0.4195533,287.4337,149.4299,113.4076,True
2,1.033335,-1.103123,0.9123456,-0.6741199,-1.266928,1.325364,-2.216557,0.3608761,1.310608,0.4802735,-1.34117,0.03815571,11.56498,13.52046,0.4444475,-0.682088,0.5939946,-0.3685655,-3.466227,-0.813132,0.4174326,1.457658,0.3613958,0.1519757,-0.5536958,-0.5065786,-0.9504971,0.1079464,0.02067758,0.5316516,1.495033,0.1860471,0.04784628,1.365152,0.4244925,287.9965,146.7152,116.9685,True
2,1.044446,-1.106223,0.8771867,-0.6708753,-1.269481,1.313766,-2.200596,0.3612615,1.312873,0.482012,-1.3413,-0.01208951,11.61804,13.56331,0.4114727,-0.6534382,0.6102231,-0.3588839,-3.463996,-0.8186584,0.4189193,1.458468,0.3625345,0.1415325,-0.4556742,-0.5021328,-0.9560221,0.1056847,0.02071034,0.532447,1.494944,0.1868188,0.04912184,1.37259,0.4292473,288.6051,144.4397,120.1055,True
2,1.055557,-1.118843,0.8473696,-0.6676846,-1.272115,1.301999,-2.184453,0.3617713,1.31522,0.4836223,-1.342055,-0.06870179,11.67109,13.58474,0.389119,-0.6098375,0.6295916,-0.3497535,-3.457973,-0.8278287,0.4203566,1.459289,0.3633068,0.1352355,-0.4109245,-0.5020308,-0.9616856,0.1017228,0.02156947,0.5333248,1.494979,0.1875255,0.05040164,1.379869,0.4337085,289.1599,142.6785,122.6176,True
2,1.066668,-1.136922,0.8388058,-0.6633766,-1.275498,1.29024,-2.167678,0.3621791,1.317508,0.4851403,-1.342133,-0.006408032,11.69761,13.60617,0.3764989,-0.5907598,0.6595155,-0.3394428,-3.452659,-0.8368155,0.4218501,1.460085,0.3640885,0.1235937,-0.3640419,-0.5040162,-0.9674354,0.09833109,0.02245071,0.5340853,1.494933,0.1880801,0.05173065,1.386951,0.437809,289.7296,141.1793,124.7531,True
2,1.077779,-1.140044,0.8495026,-0.6506721,-1.279783,1.278316,-2.151696,0.3627079,1.319659,0.4863923,-1.342085,0.004421721,11.69761,13.60617,0.3690541,-0.5609677,0.6745086,-0.3300972,-3.445244,-0.847636,0.4232546,1.460991,0.3648481,0.1172469,-0.3395284,-0.5039446,-0.9731244,0.09492239,0.02328934,0.5348617,1.494871,0.1888399,0.05302614,1.393893,0.4415371,290.3163,139.9148,126.5412,True
2,1.08889,-1.126243,0.8857822,-0.6294369,-1.285632,1.266565,-2.136365,0.3630715,1.32172,0.4875836,-1.34154,0.04990123,11.64456,13.60617,0.3595163,-0.5599461,0.6788295,-0.3203894,-3.440448,-0.856018,0.424596,1.461884,0.3656752,0.1183913,-0.3097094,-0.5007198,-0.9785892,0.09194683,0.02355886,0.5356048,1.494844,0.1896803,0.05433131,1.400747,0.4449347,290.9119,138.8714,128.0154,True
2,1.100002,-1.111279,0.9082367,-0.6061333,-1.291542,1.255111,-2.121604,0.3635728,1.323684,0.4887388,-1.342413,-0.0801255,11.56498,13.64902,0.3520126,-0.5748767,0.6682326,-0.3105192,-3.437923,-0.862045,0.4257821,1.462792,0.3664365,0.1215534,-0.2766795,-0.5156182,-0.9848199,0.08954786,0.02330985,0.5363204,1.49475,0.1904898,0.05567099,1.407616,0.4480789,291.4911,137.885,129.386,True
2,1.111113,-1.096355,0.9479014,-0.5591928,-1.30014,1.244031,-2.107111,0.3638557,1.325527,0.4892459,-1.343142,-0.06580988,11.48541,13.71331,0.3284004,-0.5951708,0.6353698,-0.3011801,-3.439004,-0.8639734,0.4268894,1.463596,0.3672268,0.1130034,-0.2478976,-0.5261766,-0.9910139,0.08748564,0.02352237,0.5370058,1.49479,0.1912572,0.05717298,1.414508,0.4510553,292.0905,136.7819,130.8625,True
2,1.122224,-1.082319,0.9566689,-0.4888598,-1.308413,1.235147,-2.093679,0.3640553,1.327176,0.4899879,-1.343626,-0.04372575,11.43236,13.79901,0.2942171,-0.6123222,0.6153626,-0.2916247,-3.439595,-0.8656347,0.4278772,1.464336,0.3679714,0.09808427,-0.2287044,-0.5334998,-0.9970598,0.08515085,0.02415887,0.5377033,1.494738,0.1920478,0.05883543,1.421422,0.4539834,292.7278,135.4793,132.5352,True
2,1.133335,-1.065073,0.9685479,-0.4037697,-1.317042,1.227737,-2.080938,0.3641922,1.328763,0.490649,-1.343691,-0.005735561,11.37931,13.92758,0.269614,-0.5996054,0.6070338,-0.2828975,-3.436502,-0.870676,0.4288573,1.465073,0.3686707,0.07253313,-0.1956359,-0.5418054,-1.003228,0.08388891,0.0247935,0.5383537,1.494719,0.1928275,0.06067955,1.428287,0.4569359,293.364,134.0666,134.3887,True
2,1.144446,-1.053177,0.9719308,-0.3195585,-1.326689,1.221292,-2.068215,0.3639691,1.33031,0.4914129,-1.343998,-0.02799184,11.29973,14.03471,0.2224137,-0.5507373,0.5850449,-0.2758358,-3.430953,-0.8768476,0.4297097,1.465791,0.3693857,0.05239731,-0.1561994,-0.5352278,-1.008943,0.08354829,0.02514184,0.5389797,1.494711,0.1937139,0.0625943,1.435121,0.4599026,293.9344,132.4389,136.5837,True
2,1.155557,-1.04674,1.008234,-0.2599722,-1.337213,1.214167,-2.05508,0.363995,1.331811,0.4920022,-1.344154,-0.01403003,11.19363,14.16327,0.1923983,-0.5305736,0.568239,-0.2681867,-3.426885,-0.881807,0.4305663,1.46655,0.3699985,0.04608673,-0.1391516,-0.5287723,-1.014622,0.08245014,0.02532533,0.5396618,1.494649,0.1945667,0.06458256,1.441757,0.4627748,294.5173,130.7017,138.9324,True
2,1.166668,-1.063805,1.092498,-0.1832429,-1.351154,1.207409,-2.041523,0.363568,1.333075,0.4924161,-1.343758,0.03624677,11.08753,14.24898,0.1146602,-0.4764888,0.5944301,-0.2607608,-3.413032,-0.8935579,0.4312577,1.467248,0.3704364,0.0397746,-0.1157092,-0.523377,-1.020146,0.08217437,0.0252702,0.5402599,1.494596,0.1953945,0.06651177,1.448127,0.4654317,295.0972,128.985,141.2138,True
2,1.17778,-1.075626,1.238536,-0.08328515,-1.368465,1.200928,-2.028192,0.3631032,1.333856,0.4924986,-1.343305,0.04099503,10.90185,14.29184,0.08267939,-0.43076,0.6074889,-0.25391,-3.399136,-0.9071184,0.4320691,1.467984,0.3709526,0.03570148,-0.06246191,-0.5105158,-1.025426,0.08350741,0.02425501,0.5406989,1.494586,0.1961808,0.06820942,1.454281,0.4678438,295.6265,127.3886,143.2454,True
2,1.188891,-1.073659,1.361113,-0.02694157,-1.386633,1.193644,-2.014938,0.362415,1.334857,0.4925838,-1.342632,0.06108459,10.74271,14.24898,0.04966998,-0.3690887,0.6322781,-0.2475089,-3.378429,-0.9265183,0.4326698,1.468592,0.3714249,0.0199194,-0.02197437,-0.4922531,-1.030318,0.08494512,0.02382837,0.5412027,1.494556,0.1969998,0.06973335,1.460276,0.4700732,296.0714,125.9829,144.9563,True
2,1.200002,-1.05174,1.643564,0.04617402,-1.413075,1.183993,-2.002616,0.3614452,1.334882,0.4921455,-1.342655,-0.00243885,10.61008,14.14185,0.003609568,-0.3489685,0.6102705,-0.2411993,-3.366542,-0.9363408,0.4332938,1.469322,0.3718951,0.006223947,-0.01132608,-0.4740329,-1.034947,0.08516749,0.02405687,0.5417701,1.494448,0.1978042,0.07108791,1.466305,0.4722651,296.4357,124.3416,146.8315,True
2,1.211113,-1.055747,2.026033,0.0596886,-1.446358,1.169695,-1.988742,0.3605951,1.334504,0.4916503,-1.342826,-0.01542726,10.47745,13.949,-0.05081293,-0.4045066,0.5754904,-0.233017,-3.365398,-0.9352276,0.4337541,1.470066,0.3724527,-0.01168478,-0.01665508,-0.4430181,-1.038764,0.08480077,0.02504783,0.5422047,1.494422,0.19859,0.0724572,1.472401,0.4745374,296.7949,122.4209,149.0091,True
2,1.222224,-1.079668,2.294492,0.1052353,-1.478834,1.158136,-1.97482,0.3597781,1.334252,0.4911129,-1.343997,-0.1071564,10.45093,13.73473,-0.1025775,-0.4685923,0.6120706,-0.2221476,-3.355952,-0.9414424,0.4341796,1.470813,0.3729825,-0.05109021,-0.04002804,-0.4353154,-1.043394,0.08342126,0.02765773,0.542505,1.494397,0.1993656,0.07386547,1.478698,0.4770893,297.2483,120.4366,151.2537,True
2,1.233335,-1.145205,2.603354,0.1860081,-1.517349,1.147352,-1.959307,0.3583983,1.334014,0.4904933,-1.342909,0.1004804,10.50398,13.52046,-0.1072623,-0.5432217,0.6663852,-0.2096451,-3.344433,-0.9515051,0.4343696,1.471122,0.3736131,-0.09792179,-0.04847737,-0.4264783,-1.047854,0.08260247,0.03076191,0.5428044,1.494283,0.2002523,0.0755274,1.485153,0.4803883,297.8494,118.0311,153.8404,True
2,1.244446,-1.233625,2.681011,0.2499757,-1.548617,1.140211,-1.942607,0.3565892,1.334385,0.4898641,-1.341936,0.08738119,10.55703,13.22048,-0.08721489,-0.4728774,0.6694513,-0.2034218,-3.322923,-0.9724301,0.4343619,1.471319,0.3742099,-0.1274529,-0.03887107,-0.3868521,-1.050868,0.08265547,0.03298192,0.542962,1.49427,0.2010715,0.07764466,1.491824,0.4850678,298.4873,115.3933,156.791,True
2,1.255558,-1.235384,2.525491,0.2596877,-1.570454,1.135207,-1.929068,0.3546172,1.335551,0.4898601,-1.339979,0.1788399,10.58355,12.74909,-0.07709804,-0.3599086,0.641745,-0.200063,-3.297049,-0.9972335,0.4343975,1.471658,0.3749771,-0.1271822,-0.01973201,-0.3527433,-1.053608,0.08326732,0.03409219,0.5431407,1.494226,0.2020602,0.08036116,1.498729,0.4912495,299.121,112.4704,160.4892,True
2,1.266669,-1.192436,2.346581,0.2586845,4.692839,1.131007,-1.917217,0.3527021,1.336694,0.489779,-1.338434,0.1402572,10.61008,12.14913,-0.1040666,-0.2789326,0.4885892,-0.1998425,-3.297561,-0.9945628,0.4341605,1.47206,0.3758621,-0.08293685,0.02059684,-0.2816311,-1.054355,0.08520198,0.032412,0.5432329,1.494258,0.203126,0.08356019,1.506109,0.4987923,299.8553,109.0341,165.2928,True
2,1.27778,-1.168765,2.294504,0.2905828,4.668452,1.12678,-1.905125,0.3512363,1.337489,0.4895875,-1.341637,-0.2934168,10.61008,11.65631,-0.1298126,-0.3418318,0.4429355,-0.1925519,-3.299602,-0.9901739,0.4340615,1.472576,0.3765988,-0.01528554,0.05555455,-0.2138859,-1.054517,0.08720002,0.02925323,0.5433016,1.494259,0.204247,0.08714828,1.513818,0.5068012,300.8627,105.9779,170.3963,True
2,1.288891,-1.165596,2.341427,0.3310078,4.640538,1.122642,-1.892484,0.3498288,1.33817,0.4892826,-1.3438,-0.1950757,10.6366,11.5706,-0.1846864,-0.4613251,0.4645798,-0.1813229,-3.300947,-0.9850591,0.4339306,1.473213,0.3772137,0.02521491,0.06399983,-0.2130916,-1.056887,0.0883806,0.02705931,0.5433896,1.49431,0.2053368,0.09094486,1.521379,0.5141556,302.2311,103.9227,174.6299,True
2,1.300002,-1.186842,2.383008,0.3671516,4.61191,1.118721,-1.878969,0.3484977,1.338848,0.4893162,-1.343647,0.01529988,10.71618,11.93486,-0.1999404,-0.464634,0.5626954,-0.1716381,-3.270414,-1.01219,0.4340248,1.473847,0.3777173,0.02291967,0.05976238,-0.236521,-1.060497,0.08892854,0.02669153,0.5435483,1.494301,0.2063668,0.09475126,1.528305,0.5201645,303.7278,102.3449,177.8265,True
2,1.311113,-1.212142,2.24231,0.3439273,4.591726,1.115764,-1.864827,0.3470806,1.34011,0.4895265,-1.342895,0.06853935,10.82228,12.70623,-0.1399119,-0.3995289,0.6357886,-0.1649983,-3.22779,-1.054724,0.4340542,1.474422,0.3782077,-0.03085116,0.05247607,-0.3075332,-1.066296,0.08948248,0.02862659,0.5436309,1.494309,0.2074964,0.09843016,1.534508,0.5248501,305.0818,100.7591,180.2113,True
2,1.322224,-1.158231,1.903608,0.2727844,4.582056,1.113641,-1.854056,0.3456076,1.341814,0.490063,-1.341866,0.09352579,10.95491,13.84187,-0.07171577,-0.3610107,0.6544671,-0.158669,-3.19447,-1.088982,0.434137,1.475129,0.3786767,-0.07056093,0.0643094,-0.3541177,-1.071528,0.09081379,0.02992701,0.5437454,1.494314,0.2084987,0.1018441,1.54027,0.5286687,306.2549,99.23663,181.9721,True
2,1.333336,-1.042421,1.509648,0.1962494,4.578013,1.11218,-1.846411,0.3443595,1.343894,0.4908502,-1.341266,0.05403389,11.19363,14.93465,-0.05688214,-0.3630949,0.6447698,-0.1517661,-3.167019,-1.115768,0.4341094,1.475821,0.3792436,-0.07806301,0.07178906,-0.3625806,-1.075836,0.09216761,0.03040904,0.5438799,1.49433,0.2095351,0.1049558,1.545908,0.5321074,307.3055,98.02952,183.3078,True
2,1.344447,-0.9619326,1.180565,0.1399857,4.575591,1.111407,-1.838315,0.3434943,1.345946,0.4915428,-1.344724,-0.3165014,11.48541,16.41311,-0.05903536,-0.4493753,0.6074404,-0.142093,-3.157874,-1.124235,0.4341003,1.476555,0.3797922,-0.05361527,0.112246,-0.3818674,-1.080233,0.09524795,0.02855894,0.5439874,1.494377,0.2104883,0.1077182,1.551547,0.5351544,308.2835,97.4947,184.3036,True
2,1.355558,-0.9240963,0.8961709,0.09871085,4.574071,1.111076,-1.829253,0.3426216,1.3479,0.4925904,-1.348106,-0.3066866,11.80371,18.40583,-0.07683998,-0.5037736,0.6277795,-0.1320065,-3.130294,-1.15006,0.4340709,1.477161,0.38026,-0.03459981,0.1335475,-0.4107398,-1.085744,0.09793761,0.0270159,0.5441042,1.494409,0.2114391,0.1100655,1.556885,0.537413,309.2761,97.66315,184.7876,True
2,1.366669,-0.9067457,0.7214513,0.06370427,4.571738,1.110107,-1.819697,0.3418247,1.349806,0.4934037,-1.34758,0.05010747,12.09549,20.56996,-0.04272276,-0.4323365,0.6573936,-0.1266306,-3.076964,-1.203694,0.4340587,1.477561,0.380794,-0.02109593,0.1378352,-0.4598033,-1.092014,0.1000893,0.0259328,0.5442038,1.494327,0.2123916,0.1118422,1.561595,0.5386472,310.179,98.07438,184.7988,True
2,1.37778,-0.8679088,0.4668968,0.02345509,4.574804,1.109905,-1.811405,0.3410325,1.351774,0.4947314,-1.346043,0.13954,12.28117,22.71266,0.02187788,-0.3565052,0.6388493,-0.1231589,-3.031308,-1.251136,0.433964,1.478102,0.3813081,-0.03836614,0.1069889,-0.4852601,-1.097886,0.1003137,0.02686623,0.5441749,1.494327,0.2133691,0.1129417,1.565633,0.5389345,310.8063,98.41224,184.46,True
2,1.388891,-0.8238001,0.22938,-0.01683769,4.580144,1.109795,-1.803549,0.3403544,1.35359,0.495887,-1.344902,0.1028566,12.51989,24.29826,0.05245727,-0.3755636,0.5885288,-0.1169405,-3.005714,-1.278223,0.4338849,1.478677,0.3818839,-0.07142147,0.06762249,-0.4786792,-1.103007,0.09981754,0.02910729,0.5441222,1.494289,0.2143474,0.1133434,1.569264,0.5386146,311.1285,98.69077,183.8236,True
2,1.400002,-0.7959415,0.1196829,-0.0583213,4.582526,1.108172,-1.795786,0.3396023,1.355363,0.4970877,-1.345857,-0.08838541,12.78515,25.21962,0.04759824,-0.4458227,0.4873098,-0.1091129,-3.009938,-1.274154,0.433579,1.479373,0.3823211,-0.08184862,0.07507562,-0.4476839,-1.106543,0.1014225,0.02959251,0.5439332,1.494115,0.2152698,0.1132579,1.572716,0.5380242,311.2227,99.01561,183.0314,True
2,1.411114,-0.7723172,-0.01456286,-0.1104191,4.587778,1.106259,-1.788192,0.3390748,1.356965,0.4983399,-1.346093,-0.02094894,13.10345,25.73388,0.03683662,-0.4714109,0.4617949,-0.1019618,-2.987783,-1.296252,0.4332926,1.480056,0.3828232,-0.08593214,0.1080903,-0.4305772,-1.110736,0.104085,0.02948785,0.5437993,1.494096,0.2160625,0.1129183,1.575931,0.5372397,311.2919,99.5879,182.0806,True
2,1.422225,-0.7370378,-0.09653477,-0.1391689,4.591741,1.104532,-1.781288,0.3386983,1.358646,0.4993994,-1.345641,0.04116966,13.50132,26.18384,0.03050029,-0.4437505,0.4821029,-0.0966099,-2.93598,-1.347817,0.4332284,1.480814,0.3831275,-0.08587155,0.124069,-0.4252186,-1.115045,0.1065007,0.02938106,0.5436943,1.49395,0.216857,0.1124884,1.578863,0.5363088,311.3725,100.2623,181.0473,True
2,1.433336,-0.6826938,-0.1081355,-0.1445834,4.593663,1.103085,-1.775815,0.3381332,1.360194,0.500246,-1.345395,0.02196592,13.95225,26.2267,0.06062388,-0.2306843,0.6002709,-0.0997178,-2.821,-1.463853,0.43312,1.481339,0.3834224,-0.1083426,0.1358383,-0.4410125,-1.120163,0.1087526,0.03044659,0.5434169,1.493808,0.2175477,0.1120884,1.581674,0.5355528,311.4661,100.9098,179.9967,True
2,1.444447,-0.6763768,-0.08150244,-0.1574198,4.593841,1.100887,-1.768793,0.3376693,1.361966,0.5013556,-1.345773,-0.03503171,14.35013,25.96957,0.09386209,-0.1784359,0.6469336,-0.0986094,-2.734721,-1.551965,0.43308,1.481872,0.3837197,-0.1436127,0.1167311,-0.4514383,-1.125416,0.1096281,0.03287699,0.5430956,1.493833,0.2183201,0.1119203,1.584295,0.5350666,311.5495,101.5751,179.0458,True
2,1.455558,-0.6219313,-0.1058307,-0.1255529,4.595813,1.100715,-1.763651,0.3369098,1.363817,0.5023174,-1.346919,-0.1046751,14.64191,25.41247,0.1046847,-0.1613794,0.6766901,-0.09748395,-2.649166,-1.638535,0.4329914,1.482382,0.384007,-0.1742803,0.09011884,-0.4129165,-1.12891,0.1098324,0.03567118,0.5425364,1.493896,0.2189927,0.1120732,1.586849,0.5349386,311.6569,102.0769,178.3937,True
2,1.466669,-0.5876949,-0.1515514,-0.1000106,4.599103,1.101033,-1.75821,0.336191,1.365475,0.5035052,-1.345019,0.1742985,14.82759,24.7268,0.08741677,-0.2103948,0.6267099,-0.09397124,-2.592335,-1.695573,0.4329398,1.482771,0.3844557,-0.1719148,0.06984037,-0.3724655,-1.131578,0.1102404,0.03726668,0.5422523,1.493839,0.2197614,0.1125103,1.589442,0.5352601,311.8917,102.3969,178.034,True
2,1.47778,-0.6025594,-0.1504708,-0.07122899,4.600961,1.101433,-1.750825,0.3355672,1.367076,0.504463,-1.346549,-0.1416649,14.77454,24.4054,0.07450414,-0.2477054,0.5990801,-0.09094749,-2.524382,-1.763472,0.4327893,1.483227,0.3848839,-0.1535889,0.02608927,-0.3321759,-1.134218,0.1089726,0.03868801,0.5418969,1.493841,0.2203879,0.113141,1.592337,0.5361454,312.1553,102.5777,177.9409,True
2,1.488891,-0.5992262,-0.1930629,-0.04670246,4.604414,1.102268,-1.744082,0.3348899,1.368552,0.5056279,-1.345878,0.06199276,14.61538,24.57681,0.08705652,-0.2934461,0.5499429,-0.08733357,-2.46382,-1.825306,0.4325681,1.483732,0.3852663,-0.1386916,-0.01762505,-0.3216677,-1.137536,0.1072599,0.0405192,0.5415037,1.493725,0.221092,0.1139204,1.595305,0.5372937,312.5986,102.7014,178.1379,True
2,1.500003,-0.593836,-0.2239326,-0.04668386,4.607996,1.102194,-1.737804,0.3342908,1.370032,0.5066729,-1.343056,0.2566426,14.35013,25.21962,0.1045959,-0.3391395,0.4592309,-0.08273695,-2.425627,-1.86501,0.4322379,1.484155,0.3856256,-0.131323,-0.07090345,-0.3186409,-1.141994,0.1044003,0.04306092,0.5409324,1.493699,0.2217865,0.1147001,1.598092,0.5383844,313.1025,102.8125,178.3847,True
2,1.511114,-0.5553478,-0.2952344,-0.05412513,4.613674,1.102187,-1.73298,0.3335416,1.371464,0.5077379,-1.342601,0.03866258,13.97878,26.2267,0.1203963,-0.3294903,0.4378094,-0.0810826,-2.365681,-1.926698,0.4318808,1.484582,0.3858316,-0.1280677,-0.07944369,-0.3069529,-1.145037,0.1033089,0.04490329,0.5404995,1.49354,0.2224877,0.1153742,1.600748,0.5392407,313.4894,102.8858,178.5754,True
2,1.522225,-0.5073013,-0.3654814,-0.07862265,4.620231,1.101556,-1.729002,0.3327152,1.37294,0.5087934,-1.341879,0.0648353,13.60743,27.27662,0.1020956,-0.2975726,0.4262472,-0.08087647,-2.306291,-1.986262,0.4312913,1.484876,0.3860621,-0.1289919,-0.03791387,-0.2984517,-1.148971,0.1044504,0.04585591,0.5401908,1.493326,0.2232144,0.115891,1.603231,0.5397041,313.8347,103.075,178.5421,True
2,1.533336,-0.4763483,-0.3920462,-0.07651052,4.625523,1.101641,-1.724864,0.3318856,1.374392,0.5097146,-1.341879,-0.001813924,13.28912,28.1337,0.0275805,-0.2520006,0.4502677,-0.08232843,-2.235775,-2.054124,0.4306012,1.485315,0.3863504,-0.1365404,0.003666796,-0.3217928,-1.153274,0.1063364,0.04689747,0.5397594,1.493189,0.2239506,0.1161751,1.605535,0.5397381,314.1585,103.4145,178.259,True
2,1.544447,-0.4390771,-0.3727821,-0.06703473,4.629057,1.101534,-1.72122,0.3309895,1.375611,0.5104191,-1.340972,0.08160269,13.28912,30.59781,-0.02477401,-0.1775805,0.4603038,-0.08551144,-2.182085,-2.105367,0.4299029,1.485754,0.3865831,-0.1654241,0.06020819,-0.354615,-1.159101,0.109412,0.04853531,0.5394193,1.493076,0.2247527,0.1160924,1.607576,0.5393288,314.5225,103.8998,177.752,True
2,1.555558,-0.4295691,-0.3354721,-0.07030215,4.631602,1.100914,-1.716911,0.3301346,1.376902,0.5111189,-1.338824,0.1939393,13.63395,35.26891,-0.02737196,-0.1306984,0.4166739,-0.08683343,-2.151326,-2.135859,0.4291751,1.486154,0.3868999,-0.1824926,0.1231069,-0.3714697,-1.163538,0.1135571,0.04969911,0.5389301,1.492981,0.2254977,0.1154861,1.609345,0.5385737,314.8202,104.4285,177.0568,True
2,1.566669,-0.4061863,-0.3024136,-0.06721504,4.634162,1.100417,-1.713123,0.3291751,1.378023,0.5118356,-1.33696,0.1670867,14.29708,41.91129,-0.03075558,-0.09447824,0.4039395,-0.08912375,-2.114038,-2.172695,0.4282882,1.486639,0.3872001,-0.1868862,0.156152,-0.3980868,-1.169357,0.1166012,0.05081045,0.5385247,1.493007,0.2261868,0.1143522,1.610879,0.5376375,314.9348,104.8176,176.3347,True
2,1.577781,-0.3432616,-0.329967,-0.06088822,4.638823,1.100646,-1.711443,0.3280112,1.379397,0.5125058,-1.333868,0.2795812,15.17241,50.28926,-0.04141954,-0.09238876,0.4050806,-0.09090434,-2.065458,-2.220174,0.4275452,1.486959,0.3874285,-0.1827219,0.1668178,-0.4162557,-1.175052,0.1191534,0.05164961,0.5379977,1.492972,0.2269058,0.1128112,1.612184,0.5367209,314.8821,105.1204,175.6185,True
2,1.588892,-0.2771608,-0.3490178,-0.0599223,4.64368,1.100516,-1.710409,0.3268675,1.380456,0.513304,-1.331807,0.1842703,16.04774,58.30298,-0.05418766,-0.1020181,0.401968,-0.0923776,-2.018018,-2.266564,0.4266593,1.487311,0.3877311,-0.1773114,0.1593378,-0.402452,-1.178954,0.1210307,0.05269624,0.5373432,1.492973,0.227659,0.1110256,1.613392,0.5360476,314.6806,105.4156,174.9205,True
2,1.600003,-0.2409306,-0.3595952,-0.06422199,4.64801,1.100281,-1.708772,0.325657,1.381515,0.5139902,-1.331254,0.04712587,16.87002,66.05956,-0.06600513,-0.1254787,0.382853,-0.09297841,-1.97297,-2.310083,0.4255987,1.487581,0.3880448,-0.1889369,0.1391001,-0.3853757,-1.183019,0.1221693,0.05470772,0.5366694,1.492896,0.2283578,0.1091783,1.6145,0.5356975,314.4773,105.6857,174.3915,True
2,1.611114,-0.2612575,-0.3330584,-0.09087703,4.651385,1.098554,-1.705149,0.3245381,1.382188,0.5147123,-1.328986,0.2046424,17.63926,73.92329,-0.09420136,-0.1169823,0.3180824,-0.09309345,-1.954586,-2.326525,0.4243668,1.488053,0.3884845,-0.2006231,0.1231294,-0.3746529,-1.186757,0.1233227,0.05703479,0.5359241,1.492911,0.2290366,0.1072801,1.615403,0.5355777,314.3891,105.9553,174.0479,True
2,1.622225,-0.2880061,-0.265968,-0.0706892,4.651991,1.098473,-1.700867,0.3233367,1.382944,0.5152555,-1.324939,0.3655832,18.32891,81.52988,-0.1203693,-0.04564489,0.2650644,-0.09535342,-1.95699,-2.321955,0.4232099,1.488498,0.3887959,-0.2269547,0.1135396,-0.3297567,-1.18904,0.1243931,0.06005188,0.5350875,1.492806,0.229764,0.1052844,1.615933,0.5356301,314.356,106.218,173.752,True
2,1.633336,-0.2646347,-0.21369,-0.04311631,4.652756,1.098945,-1.698622,0.3222107,1.383615,0.5157521,-1.319124,0.5258554,18.70027,86.8438,-0.1165771,0.01725503,0.2267399,-0.0979239,-1.962259,-2.315418,0.4220081,1.488886,0.3890707,-0.2499532,0.1167085,-0.2656784,-1.190018,0.1259947,0.06301732,0.5341216,1.492802,0.2304549,0.1031153,1.616169,0.5358786,314.2455,106.4642,173.4587,True
2,1.644447,-0.2146218,-0.1816113,-0.03471595,4.65371,1.098969,-1.697889,0.3210825,1.384367,0.5162001,-1.314531,0.4127942,18.80636,89.15792,-0.1049124,0.04071324,0.2277355,-0.1004086,-1.949239,-2.327738,0.4210062,1.489207,0.3891952,-0.2463898,0.1422185,-0.216663,-1.190578,0.1286724,0.06486422,0.5332403,1.492707,0.2310565,0.1008543,1.616271,0.5364036,313.9467,106.6774,173.1493,True
2,1.655559,-0.170975,-0.1751456,-0.04544753,4.6559,1.098315,-1.697388,0.3199038,1.3851,0.5165644,-1.312376,0.1905795,18.64722,88.64367,-0.09419197,0.03434198,0.2351053,-0.1024475,-1.929839,-2.346321,0.419834,1.489421,0.3893828,-0.2089704,0.1613152,-0.2041222,-1.192364,0.1314102,0.0648256,0.5323423,1.492614,0.2316203,0.09866996,1.616513,0.5372244,313.5159,106.6242,173.1269,True
2,1.66667,-0.1497051,-0.1612687,-0.05083823,4.657601,1.097637,-1.696289,0.3187231,1.385829,0.5169578,-1.30928,0.2779555,18.38196,86.09386,-0.08328184,-0.03062315,0.2445561,-0.1027895,-1.891894,-2.383567,0.4187524,1.48968,0.3895833,-0.1834981,0.1463638,-0.2139024,-1.194956,0.1328056,0.06549592,0.5315183,1.492536,0.2321844,0.09670345,1.616788,0.5381874,313.1956,106.495,173.3242,True
2,1.677781,-0.1412325,-0.1228838,-0.03705395,4.657742,1.097733,-1.695153,0.3172509,1.386239,0.5173187,-1.304059,0.4706179,18.19629,83.39404,-0.07781338,-0.06258067,0.2530152,-0.1038947,-1.858146,-2.416355,0.4174024,1.489931,0.3898482,-0.1658151,0.08991487,-0.2598839,-1.199353,0.1320291,0.06713749,0.5305046,1.49231,0.2327251,0.09485909,1.616977,0.5391832,313.0734,106.4554,173.5519,True
2,1.688892,-0.1424156,-0.04828588,-0.00734747,4.6561,1.098234,-1.693378,0.3158687,1.386451,0.517555,-1.297207,0.6177621,17.93103,79.90144,-0.05562573,-0.06356409,0.2272797,-0.1046319,-1.842833,-2.431774,0.4161577,1.489978,0.3902504,-0.1661417,0.06545502,-0.3003892,-1.204107,0.1322277,0.06893139,0.5295684,1.492195,0.2332463,0.09293149,1.616987,0.5401443,313.052,106.5299,173.6792,True
2,1.700003,-0.1467807,0.01565334,0.01174341,4.653745,1.098668,-1.691683,0.3143713,1.386836,0.5177879,-1.290232,0.6272876,17.66578,75.95886,-0.0401682,-0.0283173,0.170737,-0.1052236,-1.849933,-2.424695,0.4148669,1.490202,0.3905919,-0.1801714,0.05697475,-0.3215995,-1.208361,0.1329276,0.07140095,0.5285293,1.492132,0.2338004,0.09074471,1.616835,0.5410994,312.9951,106.5685,173.7338,True
2,1.711114,-0.1511795,0.08489728,0.03079185,4.650708,1.098963,-1.689518,0.3129648,1.386698,0.5178621,-1.28217,0.7264581,17.37401,71.67345,-0.02749357,-0.03572365,0.1525258,-0.1057206,-1.838372,-2.436348,0.4136203,1.490253,0.3910141,-0.2077234,0.07086484,-0.3032709,-1.210692,0.1347884,0.07421138,0.5272992,1.492119,0.2342806,0.08823215,1.616452,0.5420922,312.8585,106.4281,173.8566,True
2,1.722225,-0.1482222,0.2053145,0.05191228,4.644279,1.099447,-1.687935,0.3112464,1.386994,0.5180047,-1.274147,0.7215723,17.10875,67.6666,-0.03723343,-0.05277503,0.1270147,-0.1053808,-1.825233,-2.448493,0.4123947,1.490329,0.3913345,-0.2041453,0.08784513,-0.2542661,-1.21159,0.1364831,0.07568304,0.5261639,1.49202,0.2348447,0.08540091,1.615865,0.5431823,312.5454,106.1407,174.0789,True
2,1.733337,-0.1420093,0.2852241,0.05072085,4.638371,1.099258,-1.686583,0.3097099,1.387141,0.5180421,-1.265005,0.8234603,16.79045,64.36683,-0.03918886,-0.09966338,0.1333862,-0.1050931,-1.794939,-2.47804,0.4112094,1.490446,0.3915801,-0.1505906,0.08663689,-0.210958,-1.212382,0.1375127,0.07531366,0.5249974,1.491972,0.2353048,0.08229492,1.615122,0.5444149,312.1151,105.8354,174.3412,True
2,1.744448,-0.1537978,0.3182254,0.05281964,4.633627,1.099377,-1.684448,0.3082145,1.387255,0.5181503,-1.256155,0.7953631,16.4191,61.6456,-0.03048687,-0.1422598,0.1407396,-0.1047357,-1.761842,-2.511029,0.4099107,1.490535,0.3918717,-0.103717,0.07696526,-0.2091501,-1.214458,0.1382565,0.07447104,0.5238206,1.491867,0.235826,0.07904043,1.614176,0.5458204,311.6086,105.4726,174.6412,True
2,1.755559,-0.1772885,0.3522851,0.07196341,4.628756,1.100181,-1.681535,0.3065954,1.387295,0.5183392,-1.246343,0.883199,16.02122,59.43861,-0.03169179,-0.1486345,0.1204982,-0.1041818,-1.744411,-2.527858,0.4084032,1.490454,0.3922298,-0.05614825,0.05029313,-0.2531634,-1.218547,0.1382597,0.0736894,0.5224967,1.49178,0.2363029,0.07561585,1.613325,0.5476062,311.0691,104.9378,175.0944,True
2,1.76667,-0.2103644,0.3852611,0.09538536,4.623525,1.101407,-1.677994,0.30492,1.387129,0.5185509,-1.234846,1.03593,15.62334,57.70302,-0.02556524,-0.09960072,0.1023844,-0.1049445,-1.745707,-2.526584,0.4069,1.490539,0.3924804,-0.08498076,0.06633808,-0.265725,-1.221782,0.13986,0.07514215,0.5212153,1.491786,0.236829,0.07219166,1.612362,0.549744,310.5367,104.3967,175.6835,True
2,1.777781,-0.2242337,0.3937572,0.09752927,4.618749,1.102081,-1.674941,0.3031712,1.387475,0.5186751,-1.222738,1.090182,15.33157,56.24598,-0.02676826,-0.08148506,0.09175605,-0.1053211,-1.739191,-2.532611,0.4054907,1.490502,0.3927538,-0.1093009,0.08447526,-0.2452807,-1.223434,0.1417109,0.076478,0.5199322,1.491667,0.2373357,0.06881689,1.611219,0.5521245,310.0101,103.842,176.4106,True
2,1.788892,-0.2317218,0.3969066,0.08898231,4.614522,1.102109,-1.67204,0.3014648,1.387559,0.5188754,-1.210346,1.115577,15.03979,55.66745,-0.04800292,-0.04747658,0.1132465,-0.107147,-1.733127,-2.537439,0.4040542,1.490558,0.3931539,-0.123903,0.1249429,-0.2089111,-1.224218,0.144762,0.07748067,0.518604,1.491543,0.2378933,0.06548099,1.609934,0.554618,309.5084,103.1741,177.2981,True
2,1.800003,-0.2295651,0.3841248,0.08686794,4.61064,1.102615,-1.669508,0.2997811,1.387815,0.5190926,-1.198601,1.055998,14.80106,55.23891,-0.05318318,-0.0357978,0.1377997,-0.1090245,-1.719409,-2.550296,0.4028288,1.490637,0.3935502,-0.1183826,0.1685957,-0.1929042,-1.225292,0.148378,0.07724765,0.517261,1.491385,0.2383909,0.06213658,1.60862,0.5571073,309.0056,102.4047,178.3092,True
2,1.811115,-0.2060608,0.3511449,0.09111428,4.608131,1.103283,-1.667928,0.2981334,1.388124,0.5194099,-1.18622,1.114455,14.56233,54.66039,-0.03606572,-0.06770717,0.1355152,-0.1092919,-1.698394,-2.571333,0.4015655,1.490688,0.3938942,-0.06729939,0.1621146,-0.1985954,-1.22769,0.1501305,0.07569742,0.5159615,1.491319,0.2388885,0.05868543,1.607444,0.5595103,308.5059,101.7302,179.243,True
2,1.822226,-0.1591053,0.2968735,0.0591766,4.606707,1.102768,-1.667782,0.2965593,1.3886,0.5196824,-1.173739,1.122736,14.32361,53.95329,-0.005127981,-0.1325878,0.118177,-0.1078037,-1.667328,-2.603082,0.4001915,1.490765,0.3942726,-0.04288921,0.1397088,-0.2072973,-1.229967,0.1511243,0.07491659,0.5144916,1.491295,0.2394426,0.05517533,1.606256,0.5617357,308.0428,101.1812,179.9771,True
2,1.833337,-0.1494642,0.2702473,0.05598228,4.604703,1.102824,-1.666354,0.2950378,1.388861,0.5199597,-1.161485,1.101787,14.11141,53.20334,0.01319256,-0.1602518,0.1371909,-0.1083662,-1.636794,-2.634017,0.3988872,1.490812,0.3946369,-0.05674541,0.1471955,-0.2093202,-1.232152,0.1533231,0.07540954,0.5131726,1.491214,0.239881,0.05157939,1.605019,0.5637506,307.5945,100.6382,180.627,True
2,1.844448,-0.1408245,0.2148601,0.04859886,4.604117,1.103072,-1.665058,0.2934791,1.389306,0.5203316,-1.149387,1.087661,13.92573,53.09621,0.03770247,-0.1782898,0.1306023,-0.10829,-1.610775,-2.661129,0.3975067,1.49086,0.3949695,-0.06873479,0.1674999,-0.2539516,-1.236032,0.1563639,0.07569236,0.5117085,1.49108,0.2403126,0.04784196,1.603634,0.5655118,307.1504,100.1867,181.1555,True
2,1.855559,-0.153568,0.1881716,0.03265062,4.602983,1.102572,-1.662823,0.2920091,1.389528,0.5206966,-1.134623,1.331381,13.84615,52.92479,0.03219552,-0.1644416,0.1136056,-0.1082239,-1.59688,-2.674886,0.396073,1.490894,0.3953094,-0.02964328,0.1141932,-0.2841074,-1.240249,0.1563374,0.07499648,0.5103911,1.490961,0.2407382,0.04389657,1.601977,0.5670522,306.6746,99.88352,181.4732,True
2,1.86667,-0.1972789,0.1965821,0.01882865,4.600285,1.101859,-1.659098,0.2904555,1.389802,0.5210884,-1.120906,1.233481,13.84615,52.11056,0.03519031,-0.13459,0.0965625,-0.1084269,-1.591167,-2.681111,0.3945718,1.491098,0.3957186,-0.008188203,0.07470166,-0.2533989,-1.241976,0.1557759,0.07440313,0.5089246,1.49096,0.2412517,0.03972797,1.600048,0.5684638,306.074,99.48325,181.7927,True
2,1.877781,-0.2121231,0.1592554,0.001846869,4.599586,1.101081,-1.656448,0.2884327,1.390183,0.5218077,-1.106319,1.314334,13.92573,50.13928,0.03624463,-0.1228742,0.1008266,-0.1091491,-1.577157,-2.69537,0.3930809,1.491327,0.3960314,-0.02924202,0.0938873,-0.2233964,-1.242969,0.1578011,0.0747789,0.5072318,1.49093,0.2418256,0.03533394,1.597936,0.5697995,305.3567,99.0846,182.0914,True
2,1.888893,-0.1896354,0.09642065,-0.0193887,4.600664,1.100238,-1.655148,0.2869337,1.390702,0.522429,-1.091308,1.352508,14.13793,49.08935,0.04696354,-0.08877263,0.1220844,-0.111188,-1.57033,-2.703084,0.3915212,1.49144,0.3963623,-0.05478168,0.12057,-0.2263855,-1.245433,0.1604279,0.07546786,0.5057002,1.490898,0.2422888,0.03083104,1.595726,0.5711595,304.526,98.66568,182.3482,True
2,1.900004,-0.1724751,0.03678905,-0.02996196,4.602239,1.099795,-1.65381,0.2854529,1.391213,0.5229888,-1.079112,1.095082,14.2175,48.38226,0.04700411,-0.06428406,0.1380806,-0.1130938,-1.564037,-2.709743,0.3899982,1.491561,0.3966722,-0.07689656,0.1312261,-0.1910604,-1.246117,0.1625057,0.07662074,0.5041214,1.490946,0.2428677,0.02629908,1.593721,0.572736,303.6623,98.17169,182.6793,True
2,1.911115,-0.1595396,-0.03883682,-0.04797826,4.60524,1.098807,-1.6526,0.2840583,1.391802,0.5239072,-1.067608,1.034113,14.11141,47.67517,0.0440717,-0.04302305,0.1807315,-0.1164228,-1.553333,-2.720867,0.3884475,1.49159,0.3971012,-0.07455447,0.1130738,-0.1559368,-1.246585,0.1630408,0.07715071,0.502488,1.490885,0.24335,0.02183503,1.591948,0.5745264,302.9134,97.80538,183.013,True
2,1.922226,-0.1668729,-0.1017174,-0.06493649,4.608361,1.097379,-1.650652,0.2824302,1.392872,0.5240531,-1.054817,1.152129,13.81963,46.7538,0.0471717,-0.02916459,0.1732653,-0.1179173,-1.547427,-2.727334,0.3870077,1.491811,0.3975396,-0.06180465,0.09494026,-0.156045,-1.248282,0.1635883,0.07719545,0.5008981,1.490861,0.2439201,0.01767277,1.590118,0.5763174,302.2321,97.5455,183.3582,True
2,1.933337,-0.1828062,-0.1294708,-0.0776567,4.610904,1.096247,-1.648175,0.2808886,1.393587,0.524663,-1.042118,1.142858,13.31565,45.27534,0.04812974,-0.03021418,0.1583428,-0.1189171,-1.540366,-2.734918,0.3855037,1.492005,0.3979471,-0.03320214,0.08317915,-0.1743585,-1.250791,0.1641695,0.07633419,0.4991726,1.490887,0.2446425,0.01378968,1.588177,0.5780059,301.6122,97.33868,183.6834,True
2,1.944448,-0.213674,-0.1380412,-0.07123338,4.612476,1.095576,-1.644659,0.2793439,1.394059,0.5255818,-1.028825,1.197505,12.67905,44.01114,0.0577469,-0.05149294,0.1539908,-0.1197655,-1.52457,-2.751616,0.3840491,1.492323,0.3983448,-0.01300122,0.09060648,-0.1808856,-1.25292,0.1657518,0.07545055,0.4975841,1.490972,0.2453198,0.01001842,1.586254,0.5796021,301.0034,97.20614,183.9708,True
2,1.955559,-0.2264541,-0.1327232,-0.05844288,4.613766,1.095497,-1.641704,0.2777507,1.394927,0.5262427,-1.016001,1.154272,11.96286,42.7898,0.06850997,-0.05893935,0.1666902,-0.1215227,-1.50969,-2.76747,0.382531,1.492719,0.3987224,-0.01412576,0.1087326,-0.1947074,-1.255339,0.1678532,0.07494854,0.4960259,1.491006,0.2459013,0.006207574,1.584544,0.5810539,300.3505,97.07507,184.3013,True
2,1.966671,-0.2328201,-0.1348311,-0.0435318,4.615121,1.095429,-1.639004,0.2761599,1.395858,0.5271938,-1.002989,1.172129,11.11406,41.18277,0.07838233,-0.07066485,0.2006963,-0.1241816,-1.491222,-2.787021,0.3809726,1.49322,0.3990421,-0.0164526,0.1343418,-0.22982,-1.258966,0.1706704,0.07432856,0.4945367,1.49117,0.2463336,0.002432442,1.582999,0.582359,299.7469,96.99413,184.3847,True
2,1.977782,-0.2349179,-0.1401229,-0.02755066,4.616616,1.095505,-1.636388,0.2745489,1.396913,0.5279739,-0.9917484,1.010158,10.2122,38.46154,0.06571119,-0.07710353,0.213568,-0.1264496,-1.475581,-2.802844,0.3794365,1.493683,0.3994138,-0.02393863,0.1354315,-0.2350862,-1.261467,0.1725386,0.07417623,0.4929926,1.491269,0.246954,-0.001254707,1.581659,0.5836138,299.176,96.77116,184.4735,True
2,1.988893,-0.23596,-0.1454364,-0.01795321,4.618388,1.095753,-1.633718,0.2729315,1.397972,0.5285661,-0.9805583,1.007108,9.522545,35.54746,0.0253758,-0.07297309,0.2341085,-0.1293034,-1.46212,-2.815114,0.3779528,1.494152,0.3998275,-0.04429145,0.1205539,-0.2445455,-1.264362,0.173535,0.0752295,0.4914325,1.491563,0.2477944,-0.004847339,1.580602,0.5848461,298.6313,96.47602,184.6736,True
2,2.000004,-0.2551403,-0.1422673,-0.009402266,4.619776,1.096185,-1.630054,0.2711687,1.399326,0.5291526,-0.9693464,1.009144,8.992041,32.5691,-0.001202792,-0.06133915,0.2449816,-0.1323058,-1.452109,-2.824215,0.3765868,1.494589,0.4001682,-0.05921961,0.08542582,-0.2380847,-1.266831,0.1734743,0.07640503,0.4898778,1.49164,0.2484202,-0.008330706,1.57979,0.5860751,298.1506,96.25362,184.8324,True
2,2.011115,-0.2913503,-0.142335,-0.0008372162,4.621357,1.096548,-1.625533,0.2695248,1.400558,0.5296903,-0.9581446,1.008286,8.647213,29.54789,-0.0002579689,-0.05492775,0.2290047,-0.1340976,-1.444631,-2.831904,0.3752088,1.495161,0.4006598,-0.0377652,0.05873241,-0.2094969,-1.268079,0.1733798,0.07619064,0.4884099,1.491785,0.248946,-0.01168077,1.579134,0.5872507,297.7363,96.04844,185.0442,True
2,2.022226,-0.3094582,-0.1402299,0.007711357,4.622775,1.097094,-1.621397,0.2678142,1.401732,0.5302601,-0.9461812,1.078084,8.381961,26.5481,0.02753197,-0.07402984,0.2341095,-0.1363001,-1.428064,-2.849586,0.3737922,1.495763,0.4010532,-0.00372304,0.05015168,-0.2139943,-1.270406,0.1739144,0.0749094,0.4868761,1.49204,0.2494729,-0.01494285,1.578583,0.5883123,297.3599,95.82684,185.3197,True
2,2.033337,-0.3244056,-0.1178635,0.022602,4.623163,1.09785,-1.617258,0.2661214,1.403032,0.5308139,-0.9345772,1.044882,8.090186,23.67688,0.04344571,-0.1080653,0.212654,-0.1371198,-1.407394,-2.871104,0.3722538,1.496511,0.4014781,0.01221976,0.06824487,-0.22474,-1.273104,0.175622,0.07370564,0.4853365,1.492358,0.2500355,-0.01822416,1.578247,0.5892622,296.9505,95.55638,185.6252,True
2,2.044448,-0.3329546,-0.1040383,0.02261294,4.623746,1.098386,-1.613326,0.2643938,1.404368,0.5313618,-0.9245739,0.899151,7.771884,21.44847,0.04773033,-0.1463928,0.200867,-0.1380529,-1.383744,-2.895221,0.3708254,1.497383,0.4016759,-0.01249321,0.08643709,-0.2575684,-1.276826,0.1776097,0.07418368,0.4838949,1.492607,0.2506213,-0.0214289,1.578091,0.5900385,296.5288,95.34713,185.817,True
2,2.055559,-0.3019773,-0.1540731,-0.0007740594,4.627204,1.097787,-1.611166,0.2629274,1.405995,0.5320323,-0.9145364,0.9035696,7.533155,19.7343,0.03214556,-0.1763029,0.2435671,-0.1414075,-1.356739,-2.921759,0.3691799,1.498101,0.4018328,-0.03284864,0.08115915,-0.2734102,-1.280237,0.1784792,0.07490221,0.4824799,1.492957,0.2511489,-0.02452108,1.578103,0.5906538,296.1692,95.1697,185.9053,True
2,2.06667,-0.2496349,-0.2317597,-0.02948054,4.6323,1.096642,-1.610346,0.2614274,1.407522,0.5327911,-0.9048921,0.8677666,7.427056,18.47011,0.01311868,-0.1540092,0.2714243,-0.1450027,-1.344788,-2.933111,0.3676172,1.49878,0.4021361,-0.07126431,0.07378112,-0.2806023,-1.283516,0.1793498,0.07673286,0.4809786,1.493322,0.2517395,-0.0275118,1.578307,0.5911826,295.8622,94.92912,186.0082,True
2,2.077781,-0.223959,-0.2860613,-0.04753032,4.637345,1.095778,-1.608897,0.2598195,1.409065,0.5334356,-0.8969404,0.7133934,7.453578,17.61303,-0.008176148,-0.08592265,0.2993553,-0.149692,-1.347388,-2.929692,0.3659655,1.499682,0.402277,-0.08611758,0.06741203,-0.2698447,-1.285921,0.1802015,0.07789294,0.4794794,1.493552,0.2523792,-0.03040399,1.578659,0.5916745,295.5839,94.86578,185.958,True
2,2.088892,-0.2356153,-0.3298155,-0.07941047,4.642644,1.093887,-1.605893,0.2582758,1.410579,0.5343206,-0.8889807,0.7156943,7.612731,17.01307,-0.0667262,-0.02539827,0.3296584,-0.1544335,-1.351599,-2.922732,0.3640453,1.500524,0.4024942,-0.1029268,0.06208352,-0.2356408,-1.287302,0.180861,0.0793598,0.4778691,1.493967,0.2529843,-0.03318099,1.578969,0.5921436,295.3418,95.35118,185.4085,True
2,2.100003,-0.259003,-0.3533071,-0.08039919,4.647311,1.093251,-1.602137,0.2565342,1.412148,0.5351465,-0.8792719,0.8755069,7.877984,16.77737,-0.1000453,0.04908945,0.3182506,-0.1582301,-1.365996,-2.906182,0.3621632,1.501475,0.4027898,-0.1325243,0.06530477,-0.2045346,-1.288387,0.1818875,0.08155026,0.4762946,1.494369,0.2536054,-0.03593341,1.579015,0.592652,295.1741,96.08437,184.633,True
2,2.111114,-0.2696168,-0.3693011,-0.07397861,4.652104,1.092706,-1.59874,0.2549151,1.41373,0.5357509,-0.8686528,0.9575848,8.169763,17.05592,-0.08864297,0.103468,0.2958389,-0.1612757,-1.380397,-2.891486,0.3603745,1.502425,0.4030752,-0.1589208,0.0845001,-0.1766255,-1.289367,0.1835883,0.08361474,0.4747038,1.49485,0.2540877,-0.03884694,1.578775,0.5932933,294.9326,96.64728,184.0313,True
2,2.122225,-0.2599156,-0.4311009,-0.07709634,4.659391,1.091759,-1.595918,0.2533344,1.414768,0.5362842,-0.8594255,0.8302959,8.541114,17.69873,-0.07286467,0.09394738,0.2648197,-0.1631932,-1.381306,-2.890502,0.3586878,1.503278,0.4033298,-0.1584717,0.1132097,-0.1201354,-1.288601,0.1859064,0.084729,0.4731855,1.495283,0.2547083,-0.04200166,1.57839,0.5941814,294.4695,97.04758,183.585,True
2,2.133336,-0.2556084,-0.4588112,-0.09090596,4.665535,1.09041,-1.593293,0.2518633,1.416325,0.537008,-0.851779,0.6871777,8.912464,18.42726,-0.08877513,0.09495427,0.2734568,-0.166699,-1.381549,-2.888764,0.3571434,1.504085,0.4035697,-0.1433571,0.1280718,-0.09572503,-1.288635,0.1879591,0.08522195,0.4716536,1.495717,0.2552638,-0.04530343,1.578033,0.5952454,293.8429,97.13538,183.5419,True
2,2.144447,-0.2427301,-0.5035467,-0.1121445,4.672487,1.088748,-1.591229,0.2505165,1.418661,0.5382659,-0.8448468,0.6233026,9.28382,19.26291,-0.085589,0.09389471,0.2712992,-0.1697483,-1.383029,-2.886487,0.3556968,1.504932,0.4037368,-0.1008734,0.1194837,-0.1120127,-1.290473,0.1891199,0.08459451,0.4701335,1.496411,0.2558625,-0.04763856,1.578388,0.5958981,293.7376,96.08028,184.3806,True
2,2.155558,-0.2181317,-0.5525075,-0.1206063,4.680362,1.087408,-1.589629,0.24914,1.420546,0.5390556,-0.8378677,0.6282766,9.655171,20.22713,-0.04145649,0.07371137,0.3263426,-0.1749676,-1.375421,-2.894969,0.3542927,1.505833,0.4039278,-0.07546332,0.09282809,-0.128205,-1.292431,0.1895959,0.08446428,0.4686887,1.4968,0.2563922,-0.04958407,1.579034,0.5959964,293.8893,96.39234,183.9715,True
2,2.166669,-0.1839427,-0.5886285,-0.10674,4.688066,1.086902,-1.588747,0.2479175,1.422424,0.5397847,-0.8314778,0.5744599,9.999999,21.34133,-0.008246526,0.04715488,0.3409852,-0.1790006,-1.367397,-2.903896,0.352972,1.506661,0.4041517,-0.0681534,0.08111431,-0.1453119,-1.294477,0.1903878,0.08487707,0.467249,1.497263,0.2569551,-0.05162121,1.579993,0.5959158,293.8878,97.57945,182.616,True
2,2.17778,-0.1583347,-0.6002682,-0.09396466,4.695029,1.086462,-1.587843,0.2466498,1.424276,0.5403857,-0.8253956,0.5470347,10.3183,22.5841,0.00430645,0.04187227,0.3089173,-0.1810875,-1.365555,-2.906057,0.3515263,1.507692,0.4043725,-0.08410884,0.07688121,-0.1409423,-1.295821,0.1913337,0.08607869,0.4658319,1.497939,0.257535,-0.05393152,1.58122,0.595951,293.7557,98.80491,181.113,True
2,2.188891,-0.1914144,-0.5726348,-0.0865097,4.700464,1.085796,-1.584554,0.2453772,1.425903,0.5408995,-0.8198531,0.498065,10.68966,23.71973,-0.003194243,0.03225034,0.3014972,-0.1839403,-1.36116,-2.909865,0.3502226,1.508717,0.4044626,-0.09025094,0.08538118,-0.1067979,-1.295733,0.1926649,0.08706033,0.4645172,1.498518,0.2579312,-0.05621943,1.58234,0.5959748,293.6825,99.86481,179.8604,True
2,2.200002,-0.2128083,-0.5289919,-0.075905,4.705035,1.085258,-1.58145,0.2440986,1.427421,0.5414476,-0.8138269,0.5428439,11.14058,24.83394,-0.03216065,0.03539205,0.2750796,-0.1861731,-1.361014,-2.908689,0.348865,1.509667,0.404609,-0.08368354,0.0896001,-0.0834006,-1.295759,0.1937438,0.08741347,0.463272,1.499142,0.2583115,-0.05829736,1.583264,0.5959111,293.6729,100.91,178.7466,True
2,2.211113,-0.2011383,-0.5044533,-0.06956676,4.709841,1.084731,-1.579584,0.2428098,1.42894,0.5419831,-0.8056765,0.7369134,11.59151,25.7553,-0.05700157,0.05559503,0.2369271,-0.1877465,-1.365938,-2.902396,0.3474667,1.51049,0.4046204,-0.07285395,0.08102923,-0.05685635,-1.29557,0.1942981,0.08764117,0.4621166,1.499698,0.2585769,-0.06020379,1.584056,0.5958033,293.6976,101.9623,177.6946,True
2,2.222224,-0.1660087,-0.4819885,-0.05261131,-1.568448,1.084616,-1.578902,0.2418085,1.430159,0.5426009,-0.8003497,0.4775475,11.96286,26.50525,-0.06013428,0.07155151,0.2508156,-0.1912746,-1.368564,-2.899167,0.3461929,1.511311,0.4046319,-0.07491497,0.04905626,-0.03876307,-1.295427,0.1937026,0.08869152,0.4609579,1.500274,0.2587855,-0.06156428,1.584608,0.5956864,293.2552,103.1399,176.5392,True
2,2.233335,-0.1489613,-0.4798172,-0.05050275,-1.563133,1.08417,-1.577906,0.2405598,1.431567,0.5430367,-0.7967443,0.3228058,12.14854,27.21234,-0.07178126,0.0832202,0.2668921,-0.1950201,-1.370579,-2.895919,0.3448843,1.511976,0.4045904,-0.08453102,0.03522684,-0.03870685,-1.295893,0.1936709,0.09006065,0.4597634,1.500867,0.2591431,-0.06309287,1.585328,0.5957723,293.1363,103.5087,176.1308,True
2,2.244446,-0.1362169,-0.4734251,-0.06651333,-1.558015,1.082777,-1.576742,0.2395289,1.432771,0.5432606,-0.7933663,0.3031638,12.22811,27.59803,-0.07071043,0.09387048,0.2711541,-0.1983405,-1.373406,-2.892445,0.3436502,1.512716,0.4046173,-0.120727,0.02996531,-0.03312888,-1.296094,0.1939695,0.09264977,0.4585181,1.501276,0.2593403,-0.06511943,1.586025,0.5960154,293.1967,103.3357,176.1653,True
2,2.255557,-0.13845,-0.4329698,-0.07935698,-1.554488,1.081553,-1.575155,0.2386675,1.433761,0.5434415,-0.7885972,0.4304843,12.20159,27.70516,-0.0508187,0.1163346,0.2337383,-0.2001057,-1.381765,-2.884235,0.3425264,1.513365,0.404547,-0.1291646,0.03743389,-0.02347872,-1.296047,0.1947676,0.09406418,0.4574023,1.501716,0.2595856,-0.06775303,1.586104,0.5965112,293.0433,103.8825,175.6656,True
2,2.266668,-0.1438291,-0.4052833,-0.07619714,-1.550833,1.080896,-1.573391,0.2377121,1.434873,0.5439551,-0.7839947,0.4142681,12.09549,27.61946,-0.03610166,0.08871533,0.1952503,-0.2008663,-1.380909,-2.885239,0.3414226,1.514225,0.4045501,-0.1098871,0.06295733,-0.01506346,-1.295723,0.1963912,0.09418642,0.4563243,1.502221,0.2598627,-0.07008306,1.586182,0.5967488,292.8661,103.8471,175.5429,True
2,2.277779,-0.1417402,-0.373363,-0.07835081,-1.547598,1.079942,-1.571747,0.2369265,1.435808,0.5441251,-0.7793735,0.4163992,11.88329,27.27662,-0.02978252,0.08554117,0.1845529,-0.2028679,-1.381701,-2.884255,0.3403876,1.514953,0.4044533,-0.07468238,0.09698121,-0.01847526,-1.295854,0.1985697,0.09308653,0.4552851,1.502599,0.2600951,-0.07197533,1.586272,0.5967889,292.6938,104.3808,174.9078,True
2,2.28889,-0.1279581,-0.3647983,-0.08693548,-1.543625,1.078685,-1.570824,0.2360687,1.43703,0.5443442,-0.7751673,0.3785063,11.59151,26.65524,-0.02452127,0.1079329,0.1834711,-0.2053095,-1.389011,-2.877044,0.3393382,1.515804,0.4041996,-0.06298101,0.1236014,-0.02705226,-1.296238,0.2008964,0.09289505,0.4543719,1.502954,0.2602975,-0.07350095,1.586388,0.5968022,292.5182,105.0005,174.1853,True
2,2.300001,-0.1045656,-0.361589,-0.1114773,-1.539697,1.07659,-1.570347,0.2354956,1.438068,0.5442209,-0.7714661,0.3327859,11.27321,25.96957,-0.01602141,0.1196672,0.1866161,-0.2078635,-1.394373,-2.871742,0.3383601,1.516548,0.4039595,-0.07794196,0.1151134,-0.03121325,-1.296536,0.2019338,0.09403382,0.4535559,1.503321,0.2603488,-0.07493481,1.586539,0.5969182,292.3193,105.3277,173.7408,True
2,2.311112,-0.09605073,-0.3658602,-0.129585,-1.535535,1.074673,-1.569549,0.2347316,1.439171,0.5444205,-0.7683795,0.2768488,11.03448,25.71245,-0.01919802,0.1270983,0.1930453,-0.2105831,-1.397819,-2.867971,0.3373989,1.517581,0.4036119,-0.09614666,0.1045042,-0.04174789,-1.297261,0.2028382,0.09544823,0.4527013,1.503578,0.2604296,-0.07628424,1.586705,0.5970773,292.1202,105.4566,173.5448,True
2,2.322223,-0.05027201,-0.3647345,-0.153086,-1.531427,1.072149,-1.570372,0.2341876,1.440288,0.5446069,-0.765017,0.3024804,10.82228,26.09813,-0.01600128,0.1164618,0.1887528,-0.2127376,-1.39984,-2.865978,0.3364322,1.518391,0.4032695,-0.1378426,0.0886097,-0.05744731,-1.298318,0.2033513,0.09827784,0.4520082,1.503778,0.2603381,-0.07766235,1.586856,0.5972463,291.9233,105.6697,173.3155,True
2,2.333334,0.009413924,-0.3901963,-0.1733513,-1.526326,1.069662,-1.572256,0.2336368,1.441298,0.5448532,-0.7607623,0.3837245,10.66313,27.21234,-0.01590798,0.1164487,0.201536,-0.2156527,-1.402202,-2.8635,0.3354163,1.519202,0.4030125,-0.1924208,0.08874223,-0.09327427,-1.300265,0.2044931,0.1016971,0.4512503,1.504014,0.2602336,-0.07891073,1.586947,0.5973697,291.7909,106.0883,172.8552,True
2,2.344445,-0.00117809,-0.4211291,-0.185013,-1.520685,1.067167,-1.571737,0.2332057,1.442273,0.545083,-0.7583234,0.2169481,10.5305,28.94793,-0.0320035,0.1717894,0.2070425,-0.219323,-1.415334,-2.84967,0.3344953,1.519672,0.4026773,-0.2181429,0.0930704,-0.1154522,-1.302005,0.205955,0.1045821,0.4505192,1.504292,0.2602069,-0.08019465,1.587021,0.5975504,291.6609,106.516,172.3087,True
2,2.355556,-0.03864058,-0.3423657,-0.1744304,-1.51999,1.065741,-1.56971,0.2328662,1.44331,0.5451498,-0.7554041,0.2623333,10.39788,30.57638,-0.01855989,0.2112857,0.166503,-0.2208075,-1.431208,-2.834446,0.333669,1.520439,0.402324,-0.245871,0.08140314,-0.1173882,-1.30314,0.206573,0.107927,0.4496583,1.504575,0.2601323,-0.08136607,1.587017,0.5977841,291.6121,106.9014,171.7463,True
2,2.366668,-0.03024321,-0.3050914,-0.1968623,-1.517924,1.062939,-1.569494,0.232563,1.444437,0.5451231,-0.7489075,0.5887908,10.29178,31.94772,0.01656829,0.2167051,0.1641349,-0.2232475,-1.439471,-2.827941,0.333088,1.521598,0.4018106,-0.2745296,0.05054061,-0.09377316,-1.303319,0.206153,0.1120762,0.4489239,1.50474,0.2601569,-0.08236828,1.586881,0.5980449,291.7016,107.2296,171.229,True
2,2.377779,-0.01535691,-0.3008202,-0.2118014,-1.514758,1.060063,-1.569703,0.2323858,1.445645,0.5451956,-0.7430246,0.5300201,10.18567,33.01907,0.06690185,0.1763417,0.1839697,-0.2260523,-1.437188,-2.83285,0.3325818,1.522646,0.4011436,-0.3126938,0.05165878,-0.06900616,-1.303315,0.2068553,0.1163748,0.4480112,1.504841,0.2601826,-0.08318619,1.586837,0.5983487,291.6814,107.5361,170.787,True
2,2.38889,0.01449486,-0.3231564,-0.2352336,-1.51047,1.056832,-1.570658,0.232564,1.447078,0.545136,-0.7408317,0.1936245,10.1061,33.6833,0.07782254,0.1582303,0.2137003,-0.2297163,-1.436928,-2.834394,0.3320161,1.523532,0.4005873,-0.3413506,0.09752345,-0.06555857,-1.30365,0.2097083,0.1203307,0.4473102,1.505108,0.2601888,-0.08398607,1.587043,0.5988104,291.4306,107.4032,170.8694,True
2,2.400001,0.0187938,-0.3551076,-0.2586671,-1.505966,1.05347,-1.57095,0.2324693,1.448431,0.5451832,-0.737523,0.2984079,10.05305,33.57617,0.06019067,0.1719545,0.2852173,-0.235955,-1.43871,-2.83267,0.331291,1.523827,0.4000864,-0.3092577,0.1283571,-0.05616318,-1.303608,0.2123681,0.1218045,0.4467219,1.505353,0.2600911,-0.08482606,1.587273,0.599359,291.163,107.1197,171.0803,True
2,2.411112,0.00603739,-0.3626212,-0.2575192,-1.501484,1.050613,-1.570283,0.2323238,1.449638,0.5453277,-0.7342623,0.2926418,10.02653,32.59053,0.03784738,0.1942568,0.2971221,-0.2404126,-1.446066,-2.825102,0.3306917,1.524473,0.3997619,-0.1953863,0.1292267,-0.07188943,-1.30482,0.2139576,0.1198593,0.4461631,1.505727,0.259846,-0.08554888,1.587439,0.5999001,290.9367,107.1991,170.9039,True
2,2.422223,-0.04084183,-0.3531139,-0.2457655,-1.498081,1.048243,-1.568163,0.2320857,1.450794,0.5455096,-0.7294409,0.4353779,10.02653,30.72638,0.01628966,0.1846498,0.2599805,-0.2423828,-1.451535,-2.818929,0.3301281,1.524987,0.3996103,-0.08278272,0.04808313,-0.09513863,-1.306832,0.2120218,0.1178635,0.4457008,1.506076,0.259558,-0.08601532,1.587509,0.6004235,290.7095,107.8831,170.2016,True
2,2.433334,-0.08990071,-0.3222994,-0.2255013,-1.495569,1.046531,-1.565415,0.2318236,1.451907,0.545733,-0.7240506,0.486086,10.05305,28.26227,0.04045985,0.1411073,0.1969078,-0.2423455,-1.45227,-2.81951,0.3298276,1.525586,0.3993642,-0.01787214,-0.02981118,-0.08609257,-1.307838,0.2093063,0.1167245,0.4451769,1.506427,0.2592301,-0.08664308,1.587524,0.6011819,290.7832,109.2603,169.0034,True
2,2.444445,-0.1315479,-0.2733652,-0.2148793,-1.494144,1.044391,-1.562595,0.2317696,1.452976,0.5458481,-0.7181608,0.5314416,10.07958,25.90529,0.1159585,0.04336885,0.1408615,-0.2410645,-1.441913,-2.833315,0.329593,1.52644,0.3990412,-0.06058805,-0.1011095,-0.08159437,-1.308871,0.2061817,0.1197064,0.4446149,1.506802,0.2590036,-0.08715097,1.587586,0.6019651,290.5533,109.0809,169.1459,True
2,2.455556,-0.1528826,-0.2584991,-0.2138082,-1.491742,1.042038,-1.560102,0.2317898,1.45419,0.5459278,-0.7130949,0.4558931,10.13263,23.71973,0.1608205,-0.02042925,0.1330042,-0.2412675,-1.429741,-2.848591,0.3293049,1.527273,0.3985713,-0.1287655,-0.1084364,-0.08004856,-1.309843,0.2049707,0.1235691,0.4439372,1.507138,0.2587249,-0.08798059,1.587727,0.6029597,290.5155,109.9387,168.5196,True
2,2.466667,-0.1699425,-0.2574888,-0.2255124,-1.48888,1.038992,-1.557494,0.231974,1.455503,0.5460041,-0.708771,0.3887137,10.2122,21.76987,0.1838407,-0.07795966,0.1977462,-0.2446838,-1.414273,-2.866597,0.3290357,1.528031,0.3980627,-0.213719,-0.07421781,-0.04957781,-1.309348,0.205387,0.1287234,0.4434019,1.50742,0.2583675,-0.08870652,1.588,0.6039282,290.137,109.9999,168.5826,True
2,2.477778,-0.178403,-0.288423,-0.2371617,-1.48462,1.035961,-1.555046,0.2321237,1.456834,0.546052,-0.7048333,0.3538578,10.3183,19.94857,0.1552592,-0.0322752,0.2416724,-0.2488436,-1.414662,-2.866858,0.3285132,1.528514,0.3976738,-0.2080862,-0.03058147,-0.01868036,-1.308398,0.2063545,0.1304992,0.4428118,1.507698,0.2580426,-0.08941457,1.588287,0.6049922,289.8556,111.18,167.7278,True
2,2.488889,-0.1890143,-0.3172351,-0.2520063,-1.480258,1.032718,-1.552295,0.2321652,1.45818,0.5460849,-0.7004257,0.3969781,10.39788,18.23441,0.1201254,0.02086225,0.2654129,-0.2525865,-1.418125,-2.863703,0.3282564,1.5291,0.3972096,-0.1697538,-0.03597176,-0.02001572,-1.308742,0.2057549,0.131129,0.4423609,1.507985,0.2577567,-0.08992191,1.588578,0.6060668,289.4756,112.0891,167.0814,True
2,2.5,-0.200694,-0.3300255,-0.2445148,-1.476386,1.030125,-1.549446,0.2321555,1.45939,0.5462396,-0.6960939,0.389621,10.45093,16.88451,0.08193006,0.06865144,0.3051595,-0.2578041,-1.422107,-2.859472,0.3280547,1.529301,0.3969405,0.01968114,-0.07678526,-0.0352479,-1.309893,0.203653,0.1256554,0.4421079,1.508183,0.2573171,-0.09035076,1.588846,0.6072348,289.1986,113.0743,166.3581,True
2,2.511111,-0.2102762,-0.3247085,-0.2349175,-1.472973,1.027804,-1.546669,0.2319645,1.460421,0.5464015,-0.6912666,0.4348823,10.47745,15.85601,0.06463093,0.03243561,0.2562426,-0.2588337,-1.41667,-2.864988,0.3282172,1.529733,0.3967369,0.1633923,-0.1036804,-0.04481887,-1.310844,0.2016564,0.1199371,0.4418556,1.508387,0.2568574,-0.09073232,1.589073,0.6084134,288.9644,113.968,165.7292,True
2,2.522222,-0.2209905,-0.2906215,-0.2232439,-1.470948,1.025615,-1.543681,0.2319235,1.461268,0.5465426,-0.6864756,0.4312525,10.45093,15.10606,0.1318855,-0.05562972,0.09479493,-0.253615,-1.407777,-2.877383,0.3282384,1.530732,0.3964396,0.1480356,-0.152607,-0.09376182,-1.313743,0.1987458,0.1198817,0.4415249,1.508665,0.2564917,-0.09114585,1.589277,0.6096194,288.7381,115.0914,164.9174,True
2,2.533333,-0.2008455,-0.2330084,-0.1967296,-1.470236,1.024234,-1.541947,0.2321855,1.462077,0.5464201,-0.6818609,0.4151454,10.39788,14.57039,0.2143556,-0.1407107,0.1238988,-0.2547058,-1.392582,-2.896239,0.3283459,1.531413,0.3960133,-0.02612787,-0.1884453,-0.1575459,-1.318113,0.1958526,0.1265385,0.4411586,1.508887,0.2560127,-0.09157875,1.589453,0.610848,288.5269,116.2797,164.0836,True
2,2.544444,-0.1593437,-0.2009124,-0.174465,-1.469042,1.022921,-1.541385,0.2324717,1.462999,0.5462227,-0.6769601,0.4413733,10.26525,14.12042,0.2283657,-0.1193472,0.1526211,-0.2578441,-1.384731,-2.907481,0.3283563,1.531926,0.3954747,-0.1554174,-0.1009237,-0.08409424,-1.316388,0.1974458,0.1319285,0.4408477,1.508877,0.2555225,-0.09199081,1.58959,0.6120743,288.3373,117.2851,163.4324,True
2,2.555555,-0.1252785,-0.1966038,-0.1894144,-1.4669,1.020445,-1.540815,0.2327656,1.463869,0.5458853,-0.6734783,0.3116081,10.18567,13.73473,0.2037855,-0.06721546,0.1613638,-0.2598926,-1.387871,-2.905784,0.3281763,1.53213,0.3949676,-0.1815997,-0.04019769,-0.03697452,-1.31503,0.19893,0.1341525,0.4405275,1.508978,0.2549889,-0.09222671,1.589749,0.6131075,288.1132,117.0582,163.8083,True
2,2.566666,-0.1146606,-0.1891437,-0.2022263,-1.46509,1.017666,-1.539524,0.2328752,1.464691,0.5456326,-0.670128,0.3006479,10.1061,13.24191,0.1569884,-0.0396665,0.1819791,-0.2626559,-1.387148,-2.906676,0.3279957,1.532385,0.3944354,-0.1366396,-0.0616224,-2.665073E-05,-1.314112,0.1972707,0.1345035,0.4403451,1.509089,0.2544014,-0.09228478,1.589914,0.6137812,287.865,115.9685,164.8559,True
2,2.577777,-0.1179008,-0.1667853,-0.2033131,-1.464008,1.015479,-1.537937,0.2326673,1.46526,0.545465,-0.6656811,0.4008695,9.999999,12.49196,0.04590241,0.01757384,0.1647383,-0.264535,-1.393616,-2.897055,0.3276289,1.532588,0.3941078,-0.02599333,-0.1715571,0.006531518,-1.314625,0.1915451,0.1324984,0.4402452,1.509321,0.2538166,-0.09236081,1.589995,0.6141008,287.7913,115.8872,164.9597,True
2,2.588888,-0.1115588,-0.1219783,-0.168231,-1.464002,1.014888,-1.536917,0.2325537,1.465837,0.5454645,-0.660482,0.4689595,9.8939,11.44204,0.04979353,0.02403181,0.116776,-0.2643294,-1.395389,-2.896247,0.3274799,1.533106,0.393683,0.01523148,-0.2206041,-0.02576884,-1.316571,0.1875936,0.1320624,0.4400417,1.509361,0.2532861,-0.09248675,1.590005,0.6142129,287.7743,116.6206,164.2267,True
2,2.599999,-0.0966884,-0.07711615,-0.1214505,-1.464579,1.014951,-1.536337,0.2324884,1.466317,0.5453966,-0.6557757,0.4236342,9.840847,10.15642,0.08906953,0.0209665,0.0962451,-0.2646783,-1.39552,-2.898406,0.3274768,1.53363,0.3931684,-0.0223823,-0.1991852,-0.07768419,-1.319549,0.1864185,0.1339056,0.4396689,1.509429,0.2527044,-0.09267548,1.590006,0.6143718,287.7079,117.5134,163.3144,True
2,2.61111,-0.08178717,-0.05893414,-0.09805579,-1.464449,1.014641,-1.53586,0.232642,1.466775,0.545105,-0.6520782,0.3319552,9.867373,8.935076,0.1210983,0.00613755,0.1002617,-0.2660232,-1.392537,-2.903648,0.327431,1.534036,0.3926747,-0.1095252,-0.1574977,-0.05784756,-1.319398,0.1863018,0.1384426,0.4394555,1.509422,0.2521665,-0.09294109,1.590017,0.6147276,287.6155,118.1434,162.7512,True
2,2.622221,-0.0583825,-0.04502957,-0.09704376,-1.464384,1.013512,-1.535867,0.2327942,1.467281,0.5444229,-0.6487008,0.3037327,9.973473,7.799442,0.1328953,-0.005554795,0.1065554,-0.2672312,-1.38956,-2.908456,0.327404,1.534422,0.3920324,-0.2355337,-0.07958136,0.0304849,-1.3157,0.1876253,0.1451761,0.4391868,1.509318,0.251591,-0.09317197,1.590061,0.615227,287.5121,118.2147,162.7936,True
2,2.633332,-0.04132735,-0.05033139,-0.1034376,-1.463631,1.012249,-1.535915,0.2329227,1.467825,0.543983,-0.6452983,0.3062824,10.13263,6.792371,0.1138749,0.006082594,0.1333465,-0.26984,-1.389327,-2.909019,0.3273171,1.534719,0.3913755,-0.2268314,-0.05831271,0.0496101,-1.314701,0.1874611,0.1472717,0.4389895,1.509301,0.25107,-0.09332792,1.590104,0.6157196,287.4676,117.9226,163.2574,True
2,2.644443,-0.03276004,-0.07696351,-0.1183202,-1.461986,1.010315,-1.535669,0.2330331,1.468424,0.543431,-0.6427236,0.2310125,10.26525,5.956715,0.05749386,0.0272155,0.1518935,-0.2724787,-1.391356,-2.905864,0.327279,1.534837,0.3908975,-0.1342392,-0.08830705,0.04572837,-1.314658,0.1852629,0.1461681,0.4388853,1.50924,0.2504714,-0.09340408,1.59015,0.6160481,287.4971,117.6265,163.7389,True
2,2.655554,-0.04124559,-0.08762402,-0.109767,-1.460723,1.009384,-1.534828,0.23301,1.468978,0.5430682,-0.6400721,0.2389396,10.45093,5.356761,0.02235885,0.01433574,0.1510694,-0.2739434,-1.388873,-2.907205,0.3271811,1.535127,0.3904352,-0.01431662,-0.134298,-0.007378457,-1.317092,0.1822115,0.1430043,0.438951,1.509208,0.2498987,-0.09345481,1.590191,0.6161768,287.4933,117.6039,163.8484,True
2,2.666665,-0.05613708,-0.08762643,-0.0927073,-1.459843,1.008875,-1.533631,0.232885,1.469618,0.5430374,-0.6374542,0.2359263,10.61008,4.971073,0.002076425,-0.01872462,0.1320065,-0.2744318,-1.383083,-2.912179,0.3271506,1.535313,0.3901207,0.0450535,-0.152478,-0.0429727,-1.319035,0.1802423,0.1411433,0.4389595,1.509245,0.2492728,-0.0935517,1.590219,0.6161976,287.4789,117.991,163.5245,True
2,2.677776,-0.0902018,-0.06523971,-0.03410328,-1.459847,1.010659,-1.531711,0.2325026,1.469901,0.5429075,-0.6346909,0.2495433,10.68966,4.842509,0.05906885,-0.02702471,0.05807129,-0.2725106,-1.381934,-2.915578,0.3272369,1.535693,0.3896017,0.03056896,-0.1587576,-0.1313024,-1.323743,0.1788467,0.1415784,0.4389111,1.509255,0.2485478,-0.0936437,1.590259,0.6161379,287.4074,118.3691,163.1486,True
2,2.688887,-0.1019095,-0.05563911,-0.009597809,-1.459491,1.011338,-1.53039,0.2323769,1.470319,0.5426171,-0.6325306,0.1945366,10.71618,4.863938,0.0696477,-0.02272495,0.04947625,-0.2727338,-1.381351,-2.917269,0.3272046,1.536025,0.3890924,-0.0269651,-0.1447978,-0.1351367,-1.325413,0.1779884,0.1441297,0.4388803,1.509228,0.2479653,-0.09382408,1.590345,0.6161199,287.2835,118.8837,162.6887,True
2,2.699998,-0.08912978,-0.0459953,0.006347567,-1.45927,1.011876,-1.529904,0.2323243,1.470661,0.542115,-0.6301609,0.2143579,10.66313,4.799656,0.06334388,-0.01322602,0.07081978,-0.2738672,-1.378353,-2.920004,0.3274335,1.536495,0.388304,-0.1351646,-0.1212271,-0.07681365,-1.324226,0.1771868,0.1494555,0.4387433,1.509218,0.2472825,-0.0941543,1.590471,0.6162537,287.1394,119.6361,162.1328,True
2,2.711109,-0.07315714,-0.04703581,-0.001127645,-1.458727,1.011572,-1.529636,0.2323697,1.471081,0.5416043,-0.6296837,0.04127519,10.5305,4.713949,0.05292869,0.00161691,0.1092633,-0.2764356,-1.378161,-2.920404,0.327416,1.536757,0.3876977,-0.1965985,-0.1222361,-0.02738395,-1.323269,0.1753855,0.1538484,0.4385702,1.50914,0.2466524,-0.09451917,1.590618,0.6163834,286.9622,120.1645,161.9188,True
2,2.72222,-0.04334447,-0.05874429,-0.0362947,-1.457686,1.01002,-1.529974,0.2325852,1.471583,0.5409675,-0.6296608,0.001312662,10.34483,4.606814,0.04885045,0.007973082,0.1359325,-0.2788335,-1.377641,-2.921427,0.3273389,1.537003,0.3871212,-0.2283209,-0.142456,0.01117346,-1.322107,0.1727616,0.1582706,0.4383324,1.509111,0.2460763,-0.0948422,1.590769,0.6163873,286.8343,120.7284,161.6653,True
2,2.733331,-0.04654771,-0.06945108,-0.06289944,-1.45659,1.00848,-1.529147,0.2325386,1.472062,0.5405135,-0.6291601,0.04521027,10.18567,4.478251,0.02763138,-0.009140335,0.1424564,-0.2803329,-1.373742,-2.924716,0.3266897,1.537068,0.3866553,-0.174803,-0.1393957,0.04488005,-1.320943,0.1710093,0.1585207,0.4381543,1.508909,0.2456756,-0.0950772,1.590878,0.6162478,286.7869,121.4292,161.2372,True
2,2.744442,-0.05396588,-0.1036092,-0.09479468,-1.454387,1.006215,-1.528008,0.2325556,1.472728,0.5401387,-0.62907,0.00730057,10.05305,4.456822,0.01149802,0.01214184,0.1287485,-0.2814754,-1.376441,-2.921753,0.3265124,1.537302,0.3861482,-0.1023211,-0.1139612,0.04545991,-1.320395,0.1705061,0.157485,0.4379534,1.508849,0.245151,-0.09525199,1.590965,0.6160615,286.7715,122.2346,160.6069,True
2,2.755553,-0.06134109,-0.1441301,-0.1053591,-1.451408,1.004739,-1.526899,0.2324767,1.473438,0.5398746,-0.6272042,0.1700506,10.02653,4.778228,0.01996758,0.05263624,0.137254,-0.2835137,-1.382213,-2.916707,0.326272,1.537519,0.3855999,-0.08660931,-0.08092833,-0.001502223,-1.322121,0.1708267,0.157857,0.4377721,1.508842,0.244637,-0.0953483,1.591028,0.6158993,286.7513,122.8236,160.0603,True
2,2.766664,-0.07830449,-0.1697083,-0.08825382,-1.448709,1.004206,-1.525433,0.2325014,1.473962,0.5396342,-0.6262146,0.08862457,10.05305,5.163915,0.03064475,0.05905318,0.1425182,-0.2856059,-1.383631,-2.916115,0.3261256,1.537691,0.3849735,-0.09104114,-0.05958715,-0.03021161,-1.323359,0.1710568,0.1591039,0.4376436,1.50876,0.2440052,-0.0954726,1.591132,0.6158724,286.627,123.2246,159.6432,True
2,2.777775,-0.0878557,-0.1803874,-0.08608349,-1.446311,1.003366,-1.524132,0.2324513,1.474538,0.539361,-0.6256554,0.05022024,10.05305,5.506749,0.04673852,0.03779989,0.1508872,-0.2872438,-1.382137,-2.9185,0.3257247,1.537773,0.3844502,-0.1018321,-0.04143624,-0.05462868,-1.32489,0.1713799,0.1605396,0.4374778,1.508694,0.2434454,-0.09563279,1.591293,0.6159381,286.4044,123.4939,159.3275,True
2,2.788886,-0.107007,-0.1964403,-0.09880821,-1.44357,1.00173,-1.522111,0.2324739,1.475167,0.5389636,-0.6248127,0.07642133,10.02653,5.785301,0.04890025,0.02928223,0.1519271,-0.2889716,-1.380845,-2.920355,0.3255942,1.537958,0.3839509,-0.100743,-0.04464014,-0.04931021,-1.325264,0.1707535,0.1618928,0.4372857,1.508627,0.2428,-0.09582739,1.591455,0.6159858,286.192,123.8229,159.0095,True
2,2.799997,-0.1144687,-0.2007386,-0.1105099,-1.441257,0.9999537,-1.520343,0.2325395,1.475903,0.5386443,-0.6246775,0.01155746,9.973473,5.978143,0.0688577,0.0134124,0.1048894,-0.288382,-1.380246,-2.922508,0.3256996,1.538475,0.3833482,-0.126472,-0.07867123,-0.06407254,-1.326721,0.1688238,0.1645088,0.4369473,1.508849,0.2422912,-0.09605823,1.591605,0.6159421,286.0292,124.4722,158.4739,True
2,2.811108,-0.1070257,-0.1975376,-0.1190447,-1.439316,0.998308,-1.519281,0.2328148,1.476661,0.5382504,-0.6238684,0.07384589,9.814323,6.106707,0.09246366,0.01239147,0.1324268,-0.2909152,-1.378903,-2.925143,0.3260346,1.538684,0.3827055,-0.1562696,-0.08820971,-0.05747971,-1.327444,0.1676136,0.1675384,0.4368244,1.508836,0.2418153,-0.0963227,1.591753,0.6158143,285.8843,125.4069,157.6828,True
2,2.822219,-0.08890653,-0.2017583,-0.1201283,-1.436984,0.996785,-1.518678,0.2330765,1.477573,0.5378647,-0.6239163,-0.005117542,9.70822,6.299549,0.09686705,0.01985131,0.1536984,-0.2933184,-1.379719,-2.925637,0.3259581,1.539025,0.382122,-0.1475369,-0.07653306,-0.0308972,-1.326954,0.1670673,0.1690247,0.4366266,1.508832,0.2412641,-0.09662688,1.59195,0.61567,285.7097,126.5818,156.617,True
2,2.83333,-0.08033551,-0.2230586,-0.1254188,-1.433837,0.9952245,-1.517904,0.2332436,1.478451,0.5374942,-0.6244932,-0.05269649,9.602121,6.535248,0.08963037,0.007017568,0.1803735,-0.2961105,-1.376435,-2.929422,0.3258981,1.539495,0.3815618,-0.1102437,-0.08512354,-0.02904571,-1.327389,0.1659828,0.1690364,0.4365945,1.508858,0.2407188,-0.09693311,1.592197,0.6155861,285.5078,127.7444,155.5194,True
2,2.844441,-0.08563581,-0.2379998,-0.1339117,-1.43079,0.9932281,-1.51648,0.233442,1.47934,0.5372036,-0.6248261,-0.03014573,9.549072,6.599526,0.06739105,-0.01009783,0.1911732,-0.2984669,-1.372403,-2.933348,0.3258962,1.539833,0.3809106,-0.09238343,-0.1160228,-0.05476622,-1.3292,0.1638971,0.1701832,0.4364987,1.508895,0.2400999,-0.09717654,1.592456,0.6155611,285.3094,128.5819,154.7096,True
2,2.855552,-0.100565,-0.2348492,-0.138144,-1.428373,0.9916228,-1.514558,0.233594,1.480211,0.5369151,-0.6244894,0.0308697,9.575595,6.835225,0.08097782,0.02512258,0.1687421,-0.2998134,-1.376599,-2.930546,0.3259639,1.540374,0.3803267,-0.08407316,-0.1437131,-0.07828189,-1.331151,0.161603,0.1713108,0.4362021,1.509022,0.2395086,-0.09738917,1.59269,0.6155635,285.1113,129.209,154.1208,True
2,2.866663,-0.1144618,-0.2135727,-0.1370988,-1.426863,0.9900458,-1.512589,0.2338341,1.481165,0.5367231,-0.6236921,0.07247368,9.655171,7.456608,0.1117706,0.03374054,0.1568069,-0.3012056,-1.377961,-2.931641,0.3260377,1.540951,0.3796508,-0.1235428,-0.1414538,-0.08982693,-1.332496,0.160279,0.1736637,0.4360345,1.509038,0.2389994,-0.09758552,1.592886,0.6155416,284.9254,129.8797,153.4782,True
2,2.877774,-0.1198159,-0.2040016,-0.1403,-1.425029,0.9882962,-1.510824,0.2340406,1.482059,0.5363953,-0.6229698,0.0653824,9.840847,8.506535,0.1279629,0.01138788,0.1779734,-0.303725,-1.373808,-2.937502,0.3261148,1.541585,0.3789418,-0.156475,-0.1286677,-0.07561748,-1.33315,0.1594983,0.1774525,0.4358106,1.509149,0.2384319,-0.09678399,1.593011,0.6160512,284.9959,132.3879,151.4808,True
2,2.888885,-0.1230287,-0.202964,-0.1509521,-1.422912,0.9860471,-1.509003,0.234402,1.483257,0.5360975,-0.622834,0.01189699,10.05305,9.963574,0.1336136,0.03052181,0.2290874,-0.3081405,-1.373932,-2.939114,0.3262503,1.542042,0.3782921,-0.1793944,-0.0690299,-0.01893277,-1.331231,0.160321,0.1798973,0.4355609,1.509185,0.2379341,-0.0966915,1.593214,0.6168671,284.7811,135.7645,148.6932,True
2,2.899997,-0.1230054,-0.2200357,-0.1647644,-1.419956,0.9836429,-1.507271,0.2348185,1.484393,0.5356827,-0.6230673,-0.02133411,10.29178,11.8063,0.1347536,0.06672652,0.2525485,-0.3118647,-1.378428,-2.936391,0.3262668,1.542329,0.3777549,-0.1537602,-0.05736054,-0.01164779,-1.33132,0.1600489,0.1808577,0.4354079,1.509283,0.2373784,-0.09657666,1.593641,0.6179886,284.3715,137.2997,147.6996,True
2,2.911108,-0.1304894,-0.2168758,-0.1775372,-1.417893,0.9811698,-1.505152,0.2352014,1.485577,0.5352693,-0.623112,-0.003925121,10.4244,13.56331,0.117677,0.05598128,0.2526489,-0.3142818,-1.375392,-2.939181,0.326834,1.542897,0.3771179,-0.07513276,-0.1150182,-0.02611671,-1.332688,0.156927,0.1798092,0.4353834,1.509401,0.2367833,-0.09628932,1.594317,0.6190621,284.0644,137.9448,147.4738,True
2,2.922219,-0.1411625,-0.2062415,-0.1722168,-1.416057,0.9792814,-1.502943,0.2354025,1.486691,0.5348814,-0.6232159,-0.009523966,10.47745,15.10606,0.1081216,0.03039813,0.2463023,-0.316693,-1.372225,-2.943193,0.3269876,1.543368,0.3765402,-0.01887856,-0.160912,-0.04360671,-1.334357,0.1537063,0.1788046,0.4353122,1.509577,0.2361727,-0.09578079,1.595312,0.6199025,283.9135,138.6144,147.1575,True
2,2.93333,-0.1540016,-0.1710823,-0.1498818,-1.415319,0.9783896,-1.500683,0.2355098,1.487617,0.5345988,-0.6228446,0.03400085,10.50398,16.45597,0.1112107,-0.006886125,0.2238546,-0.3178323,-1.365875,-2.950002,0.3271516,1.543985,0.3759816,0.02145307,-0.2206357,-0.04927303,-1.335742,0.1494547,0.1783194,0.435187,1.50979,0.2354729,-0.09504633,1.596612,0.6203966,283.9568,139.2413,146.8247,True
2,2.944441,-0.1668278,-0.14552,-0.1349969,-1.414607,0.9772691,-1.498242,0.2356398,1.488621,0.5343029,-0.6226423,0.0182714,10.50398,17.54875,0.1207955,-0.01750273,0.218455,-0.3201183,-1.363124,-2.954356,0.327235,1.544492,0.375313,-0.01156414,-0.2056584,-0.05115119,-1.336621,0.1478522,0.1800529,0.4351107,1.509917,0.2347198,-0.09422866,1.598268,0.6205698,284.1227,139.5042,146.7697,True
2,2.955552,-0.1839556,-0.102918,-0.1179974,-1.415,0.9766227,-1.495462,0.2357773,1.489408,0.5339546,-0.6224633,0.01623465,10.55703,18.17013,0.114103,0.01018025,0.1950907,-0.3214878,-1.364534,-2.953348,0.3273547,1.545045,0.3746886,-0.09426733,-0.1640029,-0.007900223,-1.335274,0.1472378,0.1839147,0.4348849,1.510121,0.2339523,-0.09346927,1.600239,0.6204449,284.4096,139.3293,147.0887,True
2,2.966663,-0.1925424,-0.07096002,-0.1105848,-1.415375,0.9756242,-1.492942,0.2359439,1.490118,0.5334935,-0.6223658,0.008852976,10.5305,18.27726,0.1128441,0.03790295,0.1770298,-0.3232257,-1.368267,-2.95114,0.3274994,1.545464,0.3739142,-0.1621034,-0.1702246,0.06177709,-1.333567,0.1451885,0.1877411,0.4347634,1.510256,0.23318,-0.09284072,1.6024,0.6200309,284.7631,138.8271,147.6528,True
2,2.977774,-0.1723755,-0.03787988,-0.1042683,-1.416066,0.9747949,-1.491501,0.2362764,1.490818,0.5329719,-0.6220286,0.03081966,10.4244,17.89158,0.1221789,0.05815989,0.1577962,-0.3241349,-1.370579,-2.949857,0.3276706,1.546217,0.3731282,-0.1937538,-0.1990734,0.092918,-1.33136,0.1408843,0.1924528,0.4346478,1.510486,0.2325308,-0.09234001,1.604614,0.6193683,285.1335,138.4069,148.044,True
2,2.988885,-0.1372351,-0.03250003,-0.09683111,-1.416043,0.9739298,-1.490533,0.2365594,1.491668,0.5324078,-0.6224052,-0.03462122,10.29178,17.14163,0.116169,0.04528999,0.2068363,-0.3281089,-1.367991,-2.953365,0.3278656,1.546878,0.372159,-0.2161264,-0.2182123,0.09732052,-1.3309,0.1375825,0.1962039,0.4344702,1.510569,0.2320294,-0.09195035,1.606152,0.6190515,285.1854,138.8788,147.69,True
2,2.999996,-0.1137531,-0.04624915,-0.09686346,-1.415037,0.9728543,-1.490345,0.2368053,1.492675,0.5318341,-0.623552,-0.1044691,10.1061,16.30598,0.09404068,0.0536997,0.2411075,-0.3320802,-1.367904,-2.954129,0.3279376,1.547308,0.3715649,-0.2054174,-0.1670938,0.093035,-1.330018,0.1372757,0.1982673,0.4344391,1.51058,0.2314498,-0.09158253,1.607667,0.6184907,285.2742,138.3497,148.1718,True
2,3.011107,-0.1008893,-0.08992087,-0.1117174,-1.412695,0.9708899,-1.489224,0.2371495,1.493573,0.5313258,-0.6241075,-0.04996364,9.867373,15.53461,0.06323705,0.07916983,0.2626559,-0.3358981,-1.371474,-2.950537,0.3281786,1.547604,0.3709402,-0.1691917,-0.1266861,0.08108819,-1.329553,0.137015,0.1989815,0.4345502,1.510564,0.230859,-0.09106927,1.60906,0.6177664,285.4177,137.9037,148.5199,True
2,3.022218,-0.1072235,-0.1176488,-0.1201812,-1.410644,0.9691346,-1.487518,0.2374283,1.494473,0.5309055,-0.6248271,-0.06557801,9.655171,14.78466,0.04512596,0.07479547,0.2670107,-0.3383695,-1.369502,-2.951801,0.3286558,1.54803,0.3704004,-0.1268347,-0.1309787,0.047757,-1.330537,0.1355241,0.1993091,0.4347146,1.510635,0.2302544,-0.09060522,1.610384,0.61698,285.5762,138.0192,148.3557,True
2,3.033329,-0.1317143,-0.1144869,-0.1052391,-1.409552,0.9684059,-1.485145,0.2375193,1.495188,0.5305977,-0.6239344,0.08201371,9.469496,14.03471,0.01747437,0.03743267,0.2597054,-0.3407845,-1.365425,-2.955003,0.3286597,1.548051,0.3700533,-0.0155848,-0.1588057,-0.03189479,-1.333924,0.1332455,0.1963344,0.4349906,1.510766,0.2296996,-0.090318,1.611346,0.6164196,285.6614,138.6542,147.7741,True
2,3.04444,-0.1594312,-0.09319993,-0.08074113,-1.409262,0.9682102,-1.482488,0.2376105,1.495724,0.5303414,-0.623094,0.07598562,9.336869,13.32762,0.03185458,-0.002873823,0.1668723,-0.3395072,-1.362694,-2.95863,0.3289148,1.548377,0.3696218,-0.003150612,-0.1673041,-0.07886595,-1.336574,0.1316171,0.1964686,0.4351571,1.510819,0.2290523,-0.0901643,1.611902,0.6161948,285.6278,139.6283,146.8525,True
2,3.055551,-0.170123,-0.07083028,-0.06691083,-1.409215,0.9679862,-1.480192,0.2379451,1.496315,0.5299647,-0.622173,0.0836436,9.310343,12.70623,0.080697,-0.01542833,0.1334963,-0.3401064,-1.363207,-2.961196,0.3286418,1.548543,0.3692033,-0.07685915,-0.1564907,-0.111363,-1.339249,0.1306488,0.1999648,0.4352794,1.510837,0.2285216,-0.09009074,1.612379,0.6161575,285.5207,140.2846,146.2127,True
2,3.066662,-0.1605231,-0.06437518,-0.04456436,-1.408723,0.9681489,-1.478797,0.2382651,1.496828,0.529577,-0.6217938,0.03408368,9.389919,12.21341,0.1076126,-0.01007323,0.1727355,-0.343576,-1.362167,-2.964476,0.3288377,1.548749,0.3685036,-0.1540269,-0.1127425,-0.0372619,-1.337147,0.1303786,0.204351,0.4353471,1.510693,0.227967,-0.09003289,1.613015,0.6161779,285.3815,140.5287,146.0346,True
2,3.077773,-0.1434213,-0.08990481,-0.04667221,-1.406935,0.9673604,-1.47765,0.2386883,1.497385,0.5291045,-0.6222492,-0.04177116,9.549072,11.89201,0.09498017,0.01437461,0.2005679,-0.3470839,-1.363958,-2.96365,0.3289567,1.548756,0.3679702,-0.1597711,-0.04676016,0.03634715,-1.334147,0.1312841,0.2059896,0.4353965,1.510498,0.2274277,-0.08989691,1.613788,0.6161622,285.2217,140.5505,146.1401,True
2,3.088884,-0.1284691,-0.1111931,-0.05517734,-1.405027,0.9662054,-1.476518,0.2390359,1.497877,0.5285668,-0.6232196,-0.0882954,9.787797,11.69916,0.06737674,0.01960357,0.2103748,-0.3499148,-1.363136,-2.964693,0.329385,1.54873,0.3674541,-0.1224128,-0.04897501,0.04674307,-1.333476,0.1303344,0.2061438,0.4354684,1.510443,0.2268841,-0.08959748,1.614644,0.6159904,285.0931,140.6755,146.1508,True
2,3.099995,-0.1177775,-0.1346312,-0.06899603,-1.402812,0.9647659,-1.475337,0.2393603,1.498147,0.5281239,-0.6237139,-0.0444482,10.05305,11.54917,0.03499915,-0.007000104,0.1381321,-0.3490754,-1.361616,-2.965829,0.3295152,1.548863,0.3669345,-0.04712829,-0.11619,0.01417965,-1.335185,0.1269767,0.2048714,0.4357352,1.510352,0.2263396,-0.08916707,1.615424,0.6156542,285.0619,141.0986,145.8855,True
2,3.111106,-0.1199548,-0.1197369,-0.07647391,-1.402154,0.963605,-1.473637,0.239658,1.498387,0.5277686,-0.6237618,-0.004174528,10.26525,11.54917,0.0526211,-0.0153771,0.06554846,-0.3473481,-1.361398,-2.96729,0.329816,1.549054,0.3664277,-0.07341443,-0.1586736,-0.07623692,-1.33978,0.12451,0.2072123,0.4358482,1.510183,0.2257462,-0.0886898,1.615997,0.6152371,285.1044,141.8216,145.2903,True
2,3.122217,-0.1146425,-0.1090548,-0.06797769,-1.401389,0.9630701,-1.472461,0.2400003,1.498769,0.527456,-0.6236729,0.008082848,10.45093,11.72059,0.07075774,-0.003594406,0.07075487,-0.3485204,-1.362913,-2.967555,0.3300112,1.549398,0.365768,-0.123456,-0.1319473,-0.07905201,-1.340872,0.124153,0.2103719,0.4360297,1.510003,0.2251842,-0.08820838,1.616491,0.614745,285.3047,142.2053,144.931,True
2,3.133328,-0.09223751,-0.1153714,-0.05307137,-1.399848,0.9630091,-1.4722,0.2403819,1.49909,0.5270391,-0.6230322,0.05846448,10.61008,12.10628,0.07749835,0.01552643,0.1261369,-0.3520795,-1.36358,-2.968038,0.3304074,1.549464,0.3651142,-0.1730612,-0.07011563,-0.02857474,-1.338994,0.1253542,0.2137964,0.4361053,1.509685,0.2246521,-0.08775052,1.61698,0.6141948,285.5355,142.4,144.6591,True
2,3.144439,-0.07301337,-0.1398388,-0.05838035,-1.3975,0.9619066,-1.471849,0.2407992,1.499486,0.5265763,-0.6233459,-0.02920103,10.76923,12.64195,0.05523,0.0410048,0.148704,-0.3547011,-1.365926,-2.965824,0.3307125,1.549421,0.3646634,-0.178184,-0.02857561,-0.009318467,-1.338197,0.1263193,0.2157549,0.4362219,1.509469,0.2241426,-0.08734786,1.617586,0.6136407,285.6818,142.3384,144.5884,True
2,3.15555,-0.07511917,-0.1569142,-0.07112437,-1.395266,0.9605419,-1.470675,0.2411068,1.49984,0.5261436,-0.6241645,-0.07457484,10.87533,13.28477,0.04242915,0.02287515,0.1381286,-0.3559208,-1.364332,-2.967487,0.3311453,1.549407,0.3642459,-0.1355678,-0.07128773,0.0009794123,-1.338549,0.1239013,0.2162772,0.4364429,1.509335,0.2236443,-0.08691771,1.618318,0.6130661,285.7946,142.2978,144.5628,True
2,3.166661,-0.08150151,-0.1643992,-0.07749654,-1.393255,0.9592088,-1.469297,0.2415143,1.500305,0.525774,-0.6242215,-0.004701553,10.95491,13.92758,0.04766018,0.004808813,0.1167641,-0.3564226,-1.362477,-2.970104,0.3314816,1.549459,0.363785,-0.08358153,-0.1331568,-0.01222947,-1.339823,0.1203801,0.2164655,0.4365897,1.509157,0.2231467,-0.08643754,1.618986,0.6124459,285.9763,142.395,144.5052,True
2,3.177772,-0.08257864,-0.1548145,-0.07537603,-1.391903,0.9584018,-1.468316,0.2418976,1.500814,0.5253961,-0.623324,0.08198713,11.00796,14.67752,0.07750302,-0.013212,0.1090846,-0.3575075,-1.359991,-2.974618,0.3319383,1.549613,0.3632414,-0.05920324,-0.1257252,-0.03264763,-1.341233,0.1194833,0.2164886,0.4368335,1.508973,0.222614,-0.08598365,1.619504,0.6118504,286.1935,142.7815,144.1637,True
