loc,t,aDotS,bDotS,gDotS,aS,bS,gS,xS,yS,zS,qE,qDotE,emgA,emgB,aDotSH,bDotSH,gDotSH,aSH,bSH,gSH,xSH,ySH,zSH,aDotUB,bDotUB,gDotUB,aUB,bUB,gUB,xUB,yUB,zUB,xHand,yHand,zHand,aHand,bHand,gHand,enable
0,0,0.3663908,-0.381205,0.4923975,-1.450761,-4.695409,-2.545422,0.3581542,1.25346,0.4833462,-0.8822664,0.1694658,9.867373,14.67752,-0.4187384,0.3373913,-0.1947992,-0.4475607,-3.483267,-0.6706447,0.3959363,1.443946,0.4068859,-0.0313977,0.5003761,0.3042828,-1.035573,0.270361,-0.04386413,0.5376966,1.492095,0.243773,0.05496797,1.117005,0.4147103,296.9,278.8732,340.9672,True
0,0.01111111,0.3525631,-0.4175885,0.4275083,-1.449684,-4.689029,-2.549854,0.3568372,1.253173,0.4825988,-0.8834323,-0.1078643,9.867373,14.46325,-0.3800836,0.2948574,-0.1706234,-0.4498132,-3.481287,-0.6694793,0.3945359,1.44382,0.4063349,-0.02106455,0.4439479,0.2775444,-1.033314,0.2746225,-0.04584898,0.5369895,1.492365,0.2438643,0.05448447,1.115206,0.4116848,296.791,270.9017,348.6626,True
0,0.02222222,0.326994,-0.4390624,0.3785791,-1.448711,-4.682928,-2.553437,0.3557069,1.252987,0.4817712,-0.8833413,0.009701832,9.999999,14.27041,-0.3553611,0.291704,-0.142045,-0.4521861,-3.476776,-0.6705051,0.3934417,1.44379,0.4058459,-0.03088611,0.4045635,0.2530844,-1.031465,0.278419,-0.04714727,0.5363291,1.492563,0.2439332,0.05430783,1.114711,0.4090346,296.9026,264.8933,354.792,True
0,0.03333334,0.2992752,-0.4338399,0.3604861,-1.449183,-4.677294,-2.556624,0.3545503,1.252777,0.4810295,-0.8844481,-0.1010712,10.1061,14.14185,-0.3628365,0.302331,-0.1409076,-0.4557579,-3.472082,-0.6703949,0.392269,1.443578,0.4053986,-0.04807839,0.3907908,0.2372085,-1.029433,0.2837044,-0.04855795,0.5355878,1.492752,0.2440467,0.0541976,1.114556,0.4073119,297.0918,261.663,358.1961,True
0,0.04444445,0.2405808,-0.4009976,0.3477067,-1.450153,-4.672661,-2.557827,0.3535717,1.25273,0.480211,-0.8839974,0.04228104,10.1061,14.03471,-0.3606178,0.2959372,-0.1313413,-0.4585697,-3.468269,-0.6699003,0.3913116,1.443515,0.404887,-0.07057038,0.3705956,0.2245657,-1.02755,0.2877632,-0.04908419,0.5350353,1.492917,0.2440321,0.05420639,1.114419,0.406391,297.1914,260.4703,359.6852,True
0,0.05555556,0.1765128,-0.3532571,0.3306269,-1.45142,-4.669173,-2.558075,0.3526578,1.252444,0.4789052,-0.8838302,0.01493222,10.07958,13.99186,-0.3326017,0.2650976,-0.1006849,-0.4599274,-3.465186,-0.6699672,0.3903708,1.44355,0.4044154,-0.07520519,0.3482778,0.1787738,-1.027111,0.2917743,-0.04999552,0.5344398,1.49312,0.2440181,0.05421702,1.11427,0.4058732,297.236,260.2827,0.1830504,True
0,0.06666667,0.1092445,-0.3066257,0.3018493,-1.452379,-4.666028,-2.557702,0.3515668,1.252476,0.47823,-0.8822712,0.1426043,9.973473,13.99186,-0.3100721,0.2385195,-0.08915552,-0.4615903,-3.462832,-0.6693341,0.3894397,1.443476,0.4038889,-0.05415756,0.3173945,0.1487877,-1.026361,0.2953575,-0.0519122,0.5339061,1.49314,0.2439299,0.05416754,1.114126,0.4054105,297.3222,260.3527,0.4502372,True
0,0.07777778,0.05687558,-0.2642304,0.265596,-1.452867,-4.663651,-2.556914,0.3505945,1.252284,0.4771414,-0.8817151,0.0499659,9.840847,13.99186,-0.2884542,0.2119179,-0.05844363,-0.4621857,-3.459698,-0.6697919,0.3885611,1.443554,0.4032528,-0.04365972,0.2939502,0.1316576,-1.025591,0.2983811,-0.05334178,0.5333871,1.493275,0.2438626,0.05393423,1.114047,0.404644,297.4768,260.2605,0.8264151,True
0,0.08888889,0.0311986,-0.2366578,0.2400052,-1.453396,-4.661079,-2.556829,0.3495487,1.252254,0.4763608,-0.8816118,0.009517676,9.761274,14.01328,-0.2744557,0.2087435,-0.03937364,-0.4633272,-3.455534,-0.6710383,0.3877713,1.443536,0.4027314,-0.0438405,0.2854419,0.1071516,-1.025474,0.3016593,-0.05455698,0.532909,1.493391,0.2437453,0.05364465,1.114036,0.4036996,297.8491,259.3194,2.10447,True
0,0.1,-0.01262164,-0.1942138,0.2154616,-1.454159,-4.659643,-2.55541,0.3486101,1.252138,0.4755464,-0.8818195,-0.01862386,9.734747,14.05614,-0.2520318,0.1970784,-0.03634591,-0.4646385,-3.452674,-0.6715329,0.3871793,1.443647,0.402189,-0.0569047,0.2620697,0.07313629,-1.025887,0.3045246,-0.05473648,0.5324378,1.493623,0.24351,0.05321772,1.114111,0.4027677,298.3037,258.2496,3.421876,True
0,0.1111111,-0.05644377,-0.1485676,0.1898479,-1.45511,-4.658816,-2.553646,0.3476786,1.25229,0.4747896,-0.8830137,-0.1086452,9.734747,14.07757,-0.2370392,0.167292,-0.03647954,-0.4655254,-3.451825,-0.6701674,0.3865629,1.443762,0.4016695,-0.06021403,0.2429346,0.06356448,-1.025426,0.3074765,-0.05532158,0.5319996,1.493656,0.2433143,0.05261407,1.114197,0.4017688,298.6302,257.7426,4.083883,True
0,0.1222222,-0.0831668,-0.1220392,0.1738468,-1.456002,-4.657653,-2.551951,0.3468013,1.252341,0.4741011,-0.8823766,0.05945418,9.840847,14.09899,-0.2240864,0.1396157,-0.02381347,-0.4656921,-3.450691,-0.6691706,0.3858905,1.443912,0.4012394,-0.06145579,0.2013986,0.04757024,-1.025496,0.3083566,-0.05505713,0.5316203,1.49372,0.2430425,0.05198761,1.114248,0.4008199,298.9263,257.2145,4.696799,True
0,0.1333333,-0.1162944,-0.09128205,0.151445,-1.45667,-4.657124,-2.549781,0.3457661,1.252576,0.4734383,-0.8824443,-0.006519623,9.973473,14.09899,-0.2109716,0.1033992,0.008024633,-0.4644915,-3.449104,-0.6686494,0.3852823,1.444052,0.4007323,-0.06682512,0.1577539,0.05291498,-1.024613,0.309225,-0.05448614,0.5312495,1.493784,0.2427828,0.05129519,1.114316,0.399956,299.2288,256.8912,5.081098,True
0,0.1444445,-0.1355241,-0.08500305,0.1216277,-1.45655,-4.656341,-2.547718,0.3449051,1.252831,0.472883,-0.882921,-0.04315888,10.13263,14.09899,-0.1872208,0.09171274,0.04619122,-0.4632968,-3.445475,-0.6706995,0.3847514,1.444206,0.4001913,-0.07540886,0.1332677,0.04976394,-1.024173,0.309981,-0.05375537,0.5308846,1.493834,0.2424848,0.0505219,1.114426,0.3991585,299.5542,256.7613,5.261592,True
0,0.1555556,-0.1472923,-0.08826059,0.0992281,-1.455733,-4.655784,-2.545452,0.3442236,1.253246,0.4722261,-0.88297,-0.003790721,10.26525,14.12042,-0.1658714,0.09708981,0.05349869,-0.4634998,-3.441877,-0.6728548,0.3841965,1.444397,0.3996606,-0.08292679,0.125842,0.04449237,-1.023801,0.3117848,-0.0533796,0.530408,1.493904,0.2422736,0.04970078,1.11454,0.398382,299.8842,256.7098,5.356681,True
0,0.1666667,-0.1622453,-0.08943404,0.06622516,-1.454758,-4.655178,-2.543203,0.343545,1.253687,0.471812,-0.8834105,-0.04005985,10.39788,14.1847,-0.1627758,0.1109542,0.04496454,-0.4644047,-3.438635,-0.6740831,0.3836932,1.444587,0.3990977,-0.09463379,0.1237291,0.04670115,-1.02328,0.3133611,-0.05271594,0.5300509,1.493952,0.2419753,0.04880547,1.114673,0.3976218,300.2467,256.642,5.429068,True
0,0.1777778,-0.1825688,-0.07995194,0.03103274,-1.453442,-4.655885,-2.540257,0.3428924,1.254315,0.4715216,-0.8836134,-0.01796478,10.45093,14.22755,-0.1702449,0.1386177,0.0525081,-0.46516,-3.433275,-0.6767606,0.3833115,1.444893,0.3985155,-0.09784095,0.1152262,0.04778695,-1.02272,0.3148695,-0.05224563,0.529807,1.494045,0.241688,0.04794746,1.114819,0.3968854,300.5558,256.5314,5.516499,True
0,0.1888889,-0.2039407,-0.07049146,-0.003049061,-1.452239,-4.656178,-2.537281,0.3422301,1.254973,0.4712212,-0.8839351,-0.02907794,10.45093,14.27041,-0.156329,0.1567412,0.06840789,-0.4654753,-3.427504,-0.6805871,0.3830559,1.445234,0.3981142,-0.08618889,0.1056237,0.04024566,-1.022587,0.315863,-0.05222725,0.5295135,1.494142,0.2413599,0.04714174,1.114983,0.3961778,300.8134,256.3688,5.62905,True
0,0.2,-0.2167801,-0.06954011,-0.04352208,-1.450308,-4.656704,-2.534369,0.341406,1.255347,0.4711044,-0.8836997,0.0219882,10.47745,14.27041,-0.1252829,0.140833,0.08307958,-0.4650145,-3.42369,-0.6836755,0.3828028,1.445531,0.3975928,-0.07150574,0.0630074,0.01775385,-1.023136,0.3150266,-0.05141632,0.5293831,1.494304,0.2410038,0.04633555,1.115159,0.3955607,301.0634,256.1806,5.695448,True
0,0.2111111,-0.2275005,-0.06321894,-0.07125513,-1.448334,-4.657812,-2.53123,0.3408416,1.256038,0.4708934,-0.8838643,-0.01510361,10.50398,14.27041,-0.08449735,0.09404701,0.1061796,-0.4630412,-3.422111,-0.6856492,0.3827857,1.44584,0.3971062,-0.0758844,0.02361563,0.009239398,-1.023215,0.3141285,-0.04996996,0.5293088,1.494261,0.2404838,0.04543763,1.115366,0.3950967,301.3611,256.1687,5.521634,True
0,0.2222222,-0.2564119,-0.03892737,-0.1351863,-1.445521,-4.660249,-2.527163,0.3402532,1.256902,0.4709897,-0.8842366,-0.033686,10.61008,14.22755,-0.04261099,0.03767746,0.131391,-0.4602747,-3.421474,-0.6872306,0.3827322,1.446258,0.3966668,-0.09311711,-0.008305088,-0.01090213,-1.023911,0.3128327,-0.047706,0.5291462,1.494272,0.2400656,0.04400871,1.115581,0.3947307,301.3297,256.2624,5.318561,True
0,0.2333333,-0.2767913,-0.01453147,-0.1693527,-1.443081,-4.663239,-2.522701,0.3396736,1.25755,0.4708657,-0.8843506,-0.009977652,10.74271,14.1847,-0.01661479,-0.007031612,0.1727148,-0.4567518,-3.41919,-0.6898743,0.3826373,1.446691,0.3962719,-0.1027935,-0.02424948,-0.02042169,-1.024254,0.3122454,-0.04595604,0.528977,1.494288,0.2396235,0.04190468,1.115735,0.3943473,300.9559,256.5918,5.006021,True
0,0.2444444,-0.3163284,0.006567385,-0.2183484,-1.440182,-4.666314,-2.517449,0.3390754,1.258456,0.4710798,-0.8838222,0.04853534,10.95491,14.16327,0.01551193,-0.01761247,0.1916474,-0.4543342,-3.415904,-0.6939745,0.3826148,1.447022,0.3958638,-0.1093424,-0.04127363,-0.03956229,-1.02529,0.3109539,-0.04383457,0.5288098,1.494272,0.2392368,0.03941557,1.11592,0.3930506,300.1241,259.8773,1.090048,True
0,0.2555556,-0.362275,0.03083255,-0.2737405,-1.43688,-4.670007,-2.511395,0.3382646,1.259279,0.4714715,-0.8837008,0.01087683,11.16711,14.12042,0.03457696,-0.01009506,0.179797,-0.4532162,-3.413192,-0.6973746,0.3825238,1.447313,0.3954751,-0.1105336,-0.04656896,-0.05659172,-1.026302,0.3105114,-0.04234133,0.5285958,1.494296,0.2389932,0.03676068,1.116154,0.3891258,299.2628,266.0723,352.4541,True
0,0.2666667,-0.3911555,0.05517375,-0.3142351,-1.433774,-4.674148,-2.505439,0.3376407,1.260256,0.4718087,-0.8832203,0.04405339,11.43236,14.09899,0.05252596,-0.0004462004,0.1615714,-0.4524636,-3.410748,-0.7006878,0.3825659,1.447655,0.3950613,-0.09466401,-0.05191304,-0.07161645,-1.027625,0.3095303,-0.04136448,0.528428,1.494334,0.2386582,0.03519614,1.116835,0.3842975,299.224,265.4392,350.7345,True
0,0.2777778,-0.4478328,0.1017501,-0.385638,-1.430005,-4.680299,-2.497752,0.3369742,1.261491,0.4724703,-0.882798,0.03851603,11.56498,14.12042,0.04836334,-0.004728623,0.1733174,-0.4505483,-3.40758,-0.7039297,0.3826236,1.448086,0.3947718,-0.0756536,-0.07003042,-0.09199308,-1.029188,0.308128,-0.04044676,0.5283068,1.494327,0.2382727,0.03411241,1.118151,0.3798482,299.3023,263.522,350.4665,True
0,0.2888889,-0.4767161,0.1303558,-0.4229454,-1.426739,-4.685654,-2.490942,0.3362371,1.262715,0.472976,-0.8832954,-0.04550486,11.69761,14.16327,0.05698929,-0.02282505,0.1806976,-0.448136,-3.405782,-0.706436,0.3827241,1.448494,0.3944926,-0.06821439,-0.08282358,-0.09098606,-1.03011,0.3065977,-0.03904833,0.5281264,1.494328,0.2379212,0.03301567,1.120178,0.376728,299.2387,262.0894,350.1918,True
0,0.3,-0.5163336,0.1791395,-0.4783912,-1.423226,-4.693025,-2.482794,0.3355204,1.264102,0.4737639,-0.882301,0.09160655,11.77719,14.20613,0.0891182,-0.0589685,0.1900228,-0.444938,-3.405539,-0.7088456,0.382919,1.449022,0.3942764,-0.06718798,-0.1062563,-0.09100619,-1.031058,0.3043876,-0.03717294,0.5280074,1.49425,0.2375758,0.03167263,1.122911,0.3755232,298.9628,261.1555,350.0875,True
0,0.3111111,-0.5495155,0.2077549,-0.5168073,-1.419318,-4.700564,-2.474168,0.3349532,1.26578,0.4745419,-0.8833625,-0.09757683,11.85676,14.24898,0.1234119,-0.09723288,0.2035895,-0.441338,-3.405359,-0.7115663,0.3830771,1.449479,0.3941047,-0.07469431,-0.1275476,-0.09309183,-1.031989,0.3019017,-0.03476863,0.527773,1.494207,0.2372336,0.02979651,1.126303,0.3765382,298.5571,260.6275,350.3105,True
0,0.3222222,-0.6221408,0.2265275,-0.6179533,-1.41321,-4.709681,-2.463278,0.334133,1.26766,0.4758668,-0.8828459,0.04844433,11.96286,14.27041,0.1373408,-0.115309,0.2077323,-0.4381875,-3.405047,-0.7139218,0.3833087,1.449898,0.393929,-0.08339253,-0.147765,-0.1132833,-1.033813,0.299091,-0.0319811,0.5275382,1.494114,0.2369423,0.02745227,1.130254,0.3796271,297.9532,260.4987,350.9321,True
0,0.3333333,-0.6701429,0.2188207,-0.6785992,-1.407247,1.565928,-2.453151,0.3334092,1.269304,0.4769883,-0.8827287,0.01048024,12.06897,14.27041,0.1554513,-0.09821992,0.2140041,-0.4360095,-3.401672,-0.7193081,0.3837345,1.450382,0.3939083,-0.08032879,-0.1616091,-0.1292911,-1.035694,0.2965511,-0.02991848,0.5272846,1.493989,0.2365544,0.02478455,1.134655,0.384453,297.282,260.7008,351.7951,True
0,0.3444445,-0.7724965,0.2162802,-0.7466364,-1.400515,1.557222,-2.439589,0.3326799,1.271398,0.478446,-0.8811899,0.1409394,12.12201,14.29184,0.18532,-0.08430049,0.2244469,-0.433625,-3.397696,-0.7260198,0.3843132,1.451134,0.3940394,-0.06666359,-0.1903835,-0.1496401,-1.037968,0.2928993,-0.02777677,0.527043,1.493884,0.2363188,0.0219976,1.139427,0.3905134,296.6044,260.9228,352.9643,True
0,0.3555556,-0.8716717,0.2436654,-0.7731988,-1.3959,1.548401,-2.425429,0.3318844,1.273628,0.4798589,-0.8821039,-0.084445,12.14854,14.29184,0.2399267,-0.1512804,0.2367742,-0.4287838,-3.399751,-0.7286105,0.3851755,1.452153,0.3943303,-0.04009221,-0.2245054,-0.1498373,-1.039432,0.2889021,-0.0261091,0.5270133,1.493838,0.2360897,0.01902425,1.144509,0.3973602,295.9471,260.9291,354.4377,True
0,0.3666667,-0.9228727,0.2669607,-0.7774404,-1.39188,1.539691,-2.411987,0.3311141,1.275901,0.4812205,-0.8796192,0.2284004,12.14854,14.29184,0.2828524,-0.2151004,0.2555769,-0.4232381,-3.40243,-0.7306614,0.3859556,1.453062,0.3944809,-0.02103469,-0.2437046,-0.1627605,-1.041559,0.2849686,-0.02455221,0.5268354,1.493789,0.2358403,0.01612448,1.14983,0.4044099,295.2053,260.8889,356.036,True
0,0.3777778,-0.9996545,0.2890975,-0.7965591,-1.387762,1.53042,-2.39707,0.3302916,1.278765,0.4828873,-0.8795132,0.00819956,12.06897,14.29184,0.3841933,-0.3810996,0.3569552,-0.411542,-3.408216,-0.7327679,0.3870511,1.454098,0.3948181,0.00191015,-0.2959007,-0.2225963,-1.045765,0.2793539,-0.02241077,0.5268451,1.493831,0.2356808,0.01323048,1.155449,0.4111954,294.6379,260.8873,357.4543,True
0,0.3888889,-1.029506,0.2900576,-0.8093087,-1.383083,1.52147,-2.383219,0.3294779,1.281357,0.4842865,-0.8810269,-0.1375825,12.01592,14.29184,0.4315948,-0.4545128,0.4012879,-0.4025911,-3.411563,-0.7356929,0.3879857,1.455008,0.3950303,0.005887002,-0.324645,-0.2577905,-1.049505,0.2742805,-0.02000646,0.5267473,1.493773,0.2353981,0.01033365,1.161533,0.4173185,294.1168,261.0247,358.5641,True
0,0.4,-1.079575,0.2696037,-0.8486147,-1.376979,1.512275,-2.367878,0.3285439,1.284308,0.4858875,-0.8805385,0.04628984,11.96286,14.33469,0.4950153,-0.5332137,0.4486893,-0.3923763,-3.416394,-0.7386727,0.3891017,1.45612,0.3952758,0.009644628,-0.3821449,-0.3185705,-1.054938,0.2671005,-0.01669136,0.5266775,1.493656,0.2351587,0.007533066,1.168138,0.4225211,293.4897,260.9757,359.5471,True
0,0.4111111,-1.146695,0.2544511,-0.8783249,-1.371021,1.502949,-2.351339,0.3278183,1.287351,0.4874201,-0.882122,-0.1449157,11.96286,14.4204,0.5071059,-0.5406768,0.4954718,-0.3831122,-3.415686,-0.7452345,0.3901588,1.457078,0.3954949,0.01255125,-0.4290011,-0.3495092,-1.059578,0.2600139,-0.01336933,0.5266787,1.49354,0.2348666,0.004774868,1.175307,0.426803,292.7928,260.4873,0.5678816,True
0,0.4222222,-1.212795,0.2755899,-0.8761514,-1.366964,1.493227,-2.333848,0.3271334,1.290357,0.4889867,-0.8814675,0.06150682,11.96286,14.48468,0.5095201,-0.5460278,0.5316703,-0.3736202,-3.414835,-0.7517552,0.3913469,1.458234,0.3957994,0.0326229,-0.4844225,-0.3613937,-1.063904,0.2515775,-0.01030324,0.5265868,1.49346,0.2347195,0.002080331,1.182921,0.430297,291.8704,259.3905,1.884561,True
0,0.4333333,-1.253327,0.3010606,-0.8697782,-1.36367,1.483279,-2.31685,0.3265749,1.293256,0.4904633,-0.8808171,0.05918751,12.04244,14.57039,0.5119339,-0.6056876,0.5475793,-0.3630837,-3.42018,-0.7524479,0.3923987,1.459346,0.3960936,0.03984141,-0.5312884,-0.3859653,-1.068706,0.2432939,-0.007017429,0.5264972,1.493444,0.2345858,-0.0006047776,1.190866,0.4332967,290.9324,257.7532,3.476606,True
0,0.4444444,-1.314187,0.3446326,-0.8611975,-1.361411,1.47252,-2.297973,0.325951,1.29625,0.4920235,-0.8805588,0.02363337,12.12201,14.63467,0.5059647,-0.6621988,0.5837954,-0.3512656,-3.424638,-0.7536865,0.3935593,1.460378,0.3963625,0.04926556,-0.5611264,-0.4041549,-1.073692,0.2350827,-0.003977165,0.5264148,1.493415,0.2344909,-0.003203995,1.199127,0.4361088,290.0335,256.0067,5.100074,True
0,0.4555556,-1.33764,0.3616265,-0.8527122,-1.358737,1.462256,-2.28033,0.3253596,1.299185,0.4935977,-0.8817465,-0.1081798,12.20159,14.63467,0.5082902,-0.6611567,0.6104096,-0.3408068,-3.424414,-0.7595983,0.3946715,1.461439,0.3967083,0.0576694,-0.5728455,-0.4191326,-1.07882,0.227494,-0.001348625,0.5262934,1.493325,0.2343276,-0.005706005,1.207712,0.4389817,289.1151,254.4936,6.582905,True
0,0.4666667,-1.333375,0.3627045,-0.8505961,-1.355758,1.452117,-2.26334,0.3246025,1.302131,0.4952388,-0.8807947,0.08840697,12.20159,14.59181,0.4934672,-0.6420381,0.6297119,-0.3306368,-3.422406,-0.7664809,0.3956623,1.46245,0.3969991,0.05861998,-0.5824274,-0.4340657,-1.084249,0.2197549,0.001565939,0.5261676,1.493209,0.2342651,-0.008042685,1.21655,0.4420749,288.1088,252.9877,8.201967,True
0,0.4777778,-1.31738,0.3606125,-0.8506222,-1.352579,1.442023,-2.247173,0.323889,1.304997,0.4968157,-0.8823942,-0.1466671,12.14854,14.52753,0.4839125,-0.601605,0.6489948,-0.3212582,-3.41671,-0.7768952,0.3966728,1.463381,0.397315,0.03936064,-0.5855862,-0.4456555,-1.08973,0.2122112,0.005258145,0.5259848,1.493094,0.2343314,-0.01033163,1.225616,0.4455134,287.1218,251.4597,9.970506,True
0,0.4888889,-1.313151,0.372328,-0.855984,-1.350053,1.431323,-2.230429,0.3232198,1.30783,0.4985266,-0.8836981,-0.1175995,12.01592,14.4204,0.4839751,-0.5515565,0.67567,-0.3121736,-3.407231,-0.7912906,0.3975082,1.464256,0.3976054,0.03318489,-0.5578876,-0.4189687,-1.093515,0.2063182,0.00792903,0.525907,1.49298,0.2344337,-0.01249306,1.234814,0.4493213,286.0842,249.5016,12.30182,True
0,0.5,-1.319733,0.41287,-0.8560609,-1.349154,1.418694,-2.212016,0.3231158,1.311854,0.5023739,-0.8849573,-0.1140608,11.83024,14.33469,0.4789041,-0.5590697,0.7076561,-0.3013473,-3.401228,-0.8021862,0.3983601,1.465251,0.3981495,0.04186141,-0.5248851,-0.4040949,-1.097494,0.2011291,0.009534916,0.5256979,1.492891,0.234493,-0.01453541,1.243967,0.4534758,285.019,247.1241,15.16982,True
0,0.5111111,-1.325117,0.4416257,-0.8518677,-1.3484,1.407443,-2.194613,0.3223179,1.314438,0.5041938,-0.8848432,0.01143281,11.59151,14.22755,0.4651663,-0.5708472,0.7194732,-0.2905067,-3.396968,-0.8109317,0.3992616,1.46627,0.398602,0.0685451,-0.4929669,-0.404265,-1.102169,0.1962787,0.009952766,0.5254983,1.492857,0.234633,-0.01638475,1.252868,0.4579082,283.9846,244.445,18.41752,True
0,0.5222223,-1.305989,0.4672714,-0.8380992,-1.348299,1.396355,-2.178292,0.3215271,1.316954,0.5060692,-0.8837658,0.09847058,11.35279,14.14185,0.4418546,-0.5581453,0.7409641,-0.2801097,-3.387792,-0.8238515,0.3996849,1.46691,0.3991206,0.07066703,-0.4982969,-0.4042824,-1.106755,0.1899171,0.01192936,0.525167,1.492714,0.2349131,-0.01801767,1.261466,0.4626743,283.2401,241.9146,21.2386,True
0,0.5333334,-1.256945,0.4652774,-0.8317882,-1.347197,1.38589,-2.163783,0.3205533,1.319156,0.5078645,-0.8845828,-0.07529207,11.19363,14.07757,0.432083,-0.5336649,0.7250735,-0.2712339,-3.38029,-0.8356459,0.400021,1.467496,0.3997972,0.04312861,-0.5078591,-0.3785297,-1.110184,0.1830767,0.01548309,0.5248259,1.492524,0.2351353,-0.01949918,1.270044,0.4681295,282.7313,239.9633,23.35813,True
0,0.5444446,-1.193083,0.4591445,-0.8275948,-1.346717,1.374174,-2.14907,0.3200909,1.323262,0.5137351,-0.8858963,-0.1192492,11.14058,14.03471,0.4221721,-0.5017042,0.693215,-0.2633994,-3.372829,-0.8472386,0.4002492,1.467977,0.4004235,0.02419055,-0.4908002,-0.3474978,-1.11307,0.177651,0.01829885,0.5244424,1.492361,0.235486,-0.02104683,1.278586,0.4740331,281.96,237.8954,26.28693,True
0,0.5555557,-1.157942,0.4677675,-0.8223358,-1.346404,1.363352,-2.134987,0.3193856,1.325149,0.515897,-0.887712,-0.1650496,11.14058,14.05614,0.4013523,-0.4441898,0.6358889,-0.2578717,-3.36579,-0.8578524,0.4002173,1.468413,0.4011829,0.01183841,-0.4204928,-0.3004997,-1.114773,0.1753664,0.0195761,0.5239701,1.492303,0.2360537,-0.02254968,1.286917,0.4799763,281.0338,235.2031,30.15775,True
0,0.5666668,-1.130262,0.5062827,-0.784125,-1.348298,1.352964,-2.120963,0.318609,1.326683,0.5181229,-0.8878239,-0.009124155,11.19363,14.12042,0.366681,-0.3962878,0.5754675,-0.2529071,-3.35978,-0.8665583,0.399963,1.468675,0.4020996,0.01012194,-0.3011907,-0.2684617,-1.116736,0.1760665,0.0190653,0.5234045,1.492195,0.236788,-0.02394234,1.294832,0.4857783,280.3726,231.4639,34.47556,True
0,0.577778,-1.103649,0.5330598,-0.7479976,-1.350485,1.343148,-2.107551,0.3179087,1.328327,0.520236,-0.8880258,-0.01863386,11.29973,14.16327,0.3222896,-0.3547866,0.4938064,-0.249225,-3.357821,-0.870593,0.3997657,1.469116,0.4029663,0.009138495,-0.2639053,-0.2652386,-1.119595,0.1742686,0.01978303,0.5228602,1.492101,0.2373867,-0.02520129,1.302499,0.4919963,280.0022,227.8399,38.05806,True
0,0.5888891,-1.03647,0.5578444,-0.6927752,-1.353253,1.334565,-2.096912,0.3170897,1.329173,0.5215845,-0.8877658,0.02378169,11.43236,14.1847,0.2931837,-0.3420484,0.4514212,-0.2440553,-3.355193,-0.8755797,0.3995022,1.469373,0.4039001,0.02210999,-0.2458364,-0.2418751,-1.12152,0.1715984,0.02028476,0.522296,1.492108,0.2380905,-0.02619251,1.30971,0.4983817,279.3275,223.9021,42.76926,True
0,0.6000003,-0.9469642,0.5655916,-0.6630826,-1.355714,1.325603,-2.087585,0.3163534,1.330264,0.5236883,-0.8879703,-0.01901107,11.59151,14.20613,0.2908413,-0.3398997,0.4237421,-0.2388632,-3.353027,-0.8808248,0.3991749,1.46963,0.4048591,0.04246148,-0.2394853,-0.227095,-1.12358,0.1689422,0.02028956,0.5215581,1.492044,0.2388947,-0.02700473,1.316314,0.5045388,278.5576,220.3012,47.52171,True
0,0.6111114,-0.8318663,0.5659287,-0.6419442,-1.357756,1.316626,-2.080171,0.3154778,1.331223,0.5256548,-0.8901659,-0.2007789,11.80371,14.22755,0.2972775,-0.3420197,0.4300824,-0.2326282,-3.346757,-0.8904463,0.3986498,1.469671,0.4059601,0.05753212,-0.2246146,-0.2069561,-1.1254,0.1665956,0.02024934,0.5209505,1.491799,0.2395654,-0.02769516,1.32225,0.5100666,277.8867,216.9803,52.00829,True
0,0.6222225,-0.6954264,0.5332395,-0.6463187,-1.358335,1.307641,-2.074723,0.3145707,1.332009,0.5277762,-0.8913004,-0.1023336,12.01592,14.29184,0.2841372,-0.3270977,0.3875799,-0.2283022,-3.344981,-0.8949859,0.3976674,1.469689,0.4070632,0.05784366,-0.1926767,-0.1685892,-1.125938,0.165482,0.02004721,0.5201164,1.491649,0.2404974,-0.0282949,1.327353,0.5146601,277.3311,212.8529,57.01375,True
0,0.6333337,-0.6155356,0.5184848,-0.6581403,-1.359506,1.297563,-2.068449,0.3137721,1.330005,0.522908,-0.8926319,-0.1216174,12.20159,14.33469,0.2786894,-0.3217752,0.3748415,-0.2233529,-3.3415,-0.9011738,0.39706,1.469826,0.4080336,-0.0005379021,-0.1617023,-0.1468765,-1.127024,0.1646112,0.02227574,0.5191643,1.491451,0.241488,-0.02899307,1.331596,0.5184664,277.0378,208.6742,61.49092,True
0,0.6444448,-0.5249527,0.5091494,-0.6582502,-1.361065,1.288164,-2.063644,0.3129119,1.330281,0.5248849,-0.893906,-0.1161373,12.36074,14.35612,0.2139856,-0.2419803,0.2976169,-0.2229572,-3.339537,-0.9032699,0.3955605,1.46988,0.4092469,-0.07277611,-0.1232478,-0.1271964,-1.127875,0.164427,0.02539697,0.5181947,1.491319,0.2426214,-0.02989303,1.334973,0.5218073,276.958,204.7204,65.39752,True
0,0.655556,-0.4269205,0.514787,-0.6296424,-1.36344,1.279834,-2.060456,0.3122765,1.330617,0.52667,-0.8925318,0.1258395,12.49337,14.33469,0.1709758,-0.1728236,0.2692304,-0.2220357,-3.331042,-0.9120064,0.3943743,1.469877,0.4104955,-0.1099214,-0.08698261,-0.1141456,-1.128787,0.1646318,0.02780314,0.5172136,1.491234,0.2437575,-0.03072893,1.337291,0.5247481,276.7501,200.1835,70.57795,True
0,0.6666671,-0.3396059,0.5406425,-0.6053334,-1.366812,1.270913,-2.057446,0.3118147,1.330703,0.5285227,-0.8928141,-0.02753679,12.59947,14.27041,0.1279937,-0.07917607,0.2536521,-0.2224741,-3.315943,-0.9266586,0.3930222,1.46964,0.4117539,-0.1085953,-0.02840757,-0.08962145,-1.128931,0.1665245,0.02805853,0.5160926,1.491168,0.2451096,-0.03125777,1.338193,0.5265319,276.5212,196.7344,75.19632,True
0,0.6777782,-0.2746644,0.563206,-0.5937541,-1.370068,1.261942,-2.054685,0.3111329,1.330661,0.5305789,-0.8933861,-0.05249916,12.67905,14.20613,0.1040243,-0.02380159,0.2027448,-0.2232363,-3.30973,-0.9331059,0.3916115,1.469281,0.41308,-0.05726927,0.008783702,-0.07077776,-1.129103,0.1679781,0.02616636,0.5149219,1.491238,0.2465763,-0.03227052,1.338203,0.527967,276.6911,198.1578,73.37681,True
0,0.6888894,-0.2448048,0.5493997,-0.5980433,-1.371439,1.253212,-2.050834,0.3103565,1.330846,0.5323601,-0.8928391,0.04980619,12.75862,14.12042,0.08773336,0.02092129,0.1773394,-0.2238962,-3.301261,-0.9417939,0.3902414,1.468986,0.4144456,-0.02530605,0.02257895,-0.07418489,-1.130086,0.1686463,0.02496394,0.5136983,1.491249,0.248008,-0.03355686,1.337759,0.5297868,276.9482,202.0674,68.55086,True
0,0.7000005,-0.1978326,0.5079617,-0.6033411,-1.372001,1.245053,-2.048623,0.3094282,1.330653,0.5345047,-0.8921558,0.0614136,12.7321,13.949,0.09689207,0.06678896,0.1357623,-0.225737,-3.29487,-0.9494483,0.3886441,1.468568,0.4159751,0.02686318,0.07469997,-0.09049251,-1.131735,0.171369,0.0218009,0.5122312,1.491429,0.2496252,-0.03487696,1.337222,0.5325618,277.1451,205.969,64.00238,True
0,0.7111117,-0.1604851,0.4835414,-0.604398,-1.372845,1.236958,-2.046385,0.3085492,1.330459,0.5365891,-0.890201,0.1776561,12.65252,13.69188,0.1199478,0.06689785,0.08445521,-0.2268284,-3.296264,-0.9503261,0.3870673,1.468258,0.4175539,0.04400352,0.1002271,-0.08207832,-1.132396,0.1733613,0.02008583,0.5108868,1.491582,0.2511132,-0.036143,1.336852,0.5365393,277.2318,209.1512,60.78597,True
0,0.7222228,-0.1060754,0.4570673,-0.5958906,-1.373611,1.229265,-2.045644,0.3074493,1.329955,0.5388002,-0.8908934,-0.06531154,12.51989,13.32762,0.1652936,-0.03515971,-0.01398022,-0.2256081,-3.319649,-0.9309202,0.3850788,1.467723,0.4194162,0.05167188,0.1332264,-0.05867491,-1.132175,0.176286,0.01795769,0.5093718,1.491718,0.2527683,-0.03726115,1.336833,0.5415776,277.2824,211.6827,58.81196,True
0,0.7333339,-0.05277286,0.4540321,-0.5767655,-1.375326,1.221966,-2.045396,0.3063307,1.32929,0.541255,-0.8903805,0.04719082,12.33422,13.0705,0.177836,-0.07024163,-0.0588559,-0.2253988,-3.332988,-0.9202771,0.3832366,1.467322,0.4212823,0.03260861,0.1438985,-0.04469453,-1.13224,0.1782422,0.01745649,0.5078328,1.491795,0.2544498,-0.03810261,1.337129,0.5473896,277.2164,212.4171,58.93938,True
0,0.7444451,-0.01437071,0.4424646,-0.5522876,-1.376985,1.214934,-2.045068,0.3051748,1.328495,0.5435245,-0.8911411,-0.0703702,12.17507,12.87765,0.1975829,-0.1255075,-0.1453412,-0.2256582,-3.357815,-0.8989143,0.3808977,1.466822,0.4232943,0.004978649,0.1652424,-0.04023477,-1.132515,0.1809457,0.01709004,0.5061404,1.491837,0.2562685,-0.03867485,1.337649,0.553643,276.9954,212.2054,60.16608,True
0,0.7555562,0.01885285,0.4306433,-0.5215954,-1.378407,1.208261,-2.044668,0.304055,1.32788,0.545964,-0.8910292,0.01044272,12.06897,12.68481,0.1854163,-0.1212247,-0.2038484,-0.2274249,-3.37566,-0.8831841,0.3784544,1.466316,0.4252388,-0.02449157,0.1929945,-0.01228461,-1.13241,0.1838613,0.01686447,0.5043925,1.491964,0.2580969,-0.03911141,1.338185,0.5600345,276.6769,210.5815,62.81578,True
0,0.7666674,0.05501725,0.4257041,-0.4894649,-1.380437,1.202816,-2.045845,0.3027683,1.326843,0.5482838,-0.8902606,0.06969814,11.98939,12.53482,0.1786907,-0.08499148,-0.2357294,-0.2299544,-3.386202,-0.874662,0.3761573,1.465724,0.4271171,-0.02750153,0.228115,0.02500539,-1.130196,0.1883707,0.01541278,0.5023596,1.492137,0.2601924,-0.03953888,1.338509,0.5663127,276.3077,208.5294,65.82395,True
0,0.7777785,0.09876556,0.4163043,-0.4554142,-1.382466,1.197146,-2.047291,0.3014457,1.32588,0.5503571,-0.8894936,0.06913431,11.96286,12.38483,0.1491048,0.02471972,-0.3067923,-0.2368259,-3.394156,-0.8676278,0.3735811,1.465019,0.4290464,0.01778041,0.3409357,0.07802749,-1.127473,0.1965602,0.01028753,0.5001934,1.492488,0.2624323,-0.04007436,1.338466,0.5722415,276.0051,207.2785,67.93903,True
0,0.7888896,0.1382451,0.4047367,-0.4309237,-1.384297,1.191704,-2.049104,0.3000464,1.325031,0.5526276,-0.8902617,-0.07107975,12.01592,12.34197,0.122246,0.1364965,-0.2969097,-0.2425778,-3.389584,-0.872605,0.3710709,1.464241,0.4309967,0.05532262,0.3909313,0.1033711,-1.125599,0.202986,0.005634716,0.4982775,1.492864,0.2645199,-0.0407988,1.338029,0.5776721,275.8061,207.3079,68.61061,True
0,0.8000008,0.2011847,0.3943422,-0.3873096,-1.386569,1.187184,-2.052717,0.2984714,1.323857,0.554585,-0.8901584,0.009776746,12.12201,12.38483,0.1052578,0.201405,-0.2658314,-0.246981,-3.384449,-0.8782943,0.3685757,1.46341,0.4328935,0.1301464,0.4376711,0.1295241,-1.123246,0.2102231,-0.001451423,0.4961262,1.493231,0.2666807,-0.04171402,1.337117,0.582469,275.6074,207.6479,68.83759,True
0,0.8111119,0.2598326,0.3967268,-0.337319,-1.389521,1.183279,-2.056712,0.2968508,1.322493,0.5562758,-0.8899363,0.01977303,12.25464,12.49196,0.08608788,0.1885764,-0.269959,-0.2502466,-3.390045,-0.8732572,0.3660779,1.462614,0.4348307,0.1984285,0.4332916,0.1450342,-1.121393,0.2151716,-0.00794634,0.494063,1.493511,0.2688136,-0.04287435,1.335725,0.5866228,275.4831,209.1059,67.74838,True
0,0.8222231,0.2886212,0.4021911,-0.3086075,-1.392484,1.178877,-2.060157,0.2951283,1.321048,0.5580962,-0.8910005,-0.09784808,12.41379,12.51339,0.05972989,0.1426795,-0.2495625,-0.2516666,-3.396972,-0.866354,0.3633918,1.461597,0.4367497,0.2229657,0.4151373,0.1544462,-1.119413,0.2196718,-0.01324044,0.4919925,1.493852,0.2708797,-0.04430672,1.333928,0.5902566,275.4482,211.5511,65.46629,True
0,0.8333342,0.3333767,0.4205104,-0.2618279,-1.396406,1.175207,-2.064592,0.293062,1.3189,0.5599742,-0.8908029,0.01852569,12.44032,12.51339,0.04664877,0.1299004,-0.2942233,-0.255575,-3.408396,-0.8554489,0.3606699,1.460785,0.4386413,0.2185506,0.3821284,0.1384788,-1.118455,0.2231196,-0.01694942,0.4897061,1.494099,0.2729533,-0.04589315,1.331694,0.5934305,275.3792,213.9557,63.172,True
0,0.8444453,0.3482938,0.4419195,-0.2267299,-1.400542,1.171381,-2.068343,0.2913003,1.317024,0.5617638,-0.8897264,0.09778967,12.41379,12.55624,-0.01611003,0.1468876,-0.4183835,-0.2631789,-3.428464,-0.8338214,0.3576428,1.460252,0.4405751,0.151148,0.3502984,0.1037631,-1.118553,0.2263248,-0.01768312,0.4873276,1.494395,0.2751522,-0.04760491,1.329004,0.5962216,275.296,216.9404,60.25247,True
0,0.8555565,0.3780573,0.5231907,-0.1214849,-1.408969,1.169054,-2.073187,0.2896101,1.314768,0.5628715,-0.8899469,-0.02138507,12.30769,12.68481,-0.1069798,0.1946039,-0.4432346,-0.2698187,-3.434834,-0.8234774,0.3545977,1.459605,0.4426208,0.1014525,0.3748609,0.1541813,-1.115295,0.2320727,-0.01960672,0.4848995,1.494606,0.277451,-0.0495417,1.325943,0.5988433,275.2677,220.3035,56.85358,True
0,0.8666676,0.4078709,0.5617446,-0.06087992,-1.41585,1.166546,-2.078278,0.2877717,1.312848,0.5641093,-0.8888673,0.09868605,12.17507,12.87765,-0.1541032,0.2498889,-0.4566887,-0.2767557,-3.437467,-0.8179162,0.3515747,1.458871,0.4445093,0.08714062,0.4472939,0.2267677,-1.110438,0.2405295,-0.02402225,0.4822649,1.494936,0.2798746,-0.05165085,1.322515,0.6014555,275.2066,223.9042,53.17702,True
0,0.8777788,0.4920641,0.5898314,0.01670936,-1.423693,1.165288,-2.086294,0.2861032,1.310956,0.564929,-0.8891581,-0.02773582,12.01592,13.13477,-0.1584643,0.2871629,-0.4566234,-0.2834274,-3.439882,-0.8137131,0.3489025,1.458028,0.4463322,0.1033869,0.4930602,0.255447,-1.10684,0.2484567,-0.02923565,0.479899,1.495268,0.282135,-0.05366612,1.318823,0.6040911,275.1569,230.3344,46.75764,True
0,0.8888899,0.5496371,0.5825713,0.04115909,-1.429372,1.163349,-2.093898,0.2843528,1.309124,0.5660117,-0.8890878,0.006618178,11.85676,13.41333,-0.1490063,0.3074369,-0.4662656,-0.2900811,-3.444256,-0.8083144,0.3461703,1.45703,0.4481544,0.1694856,0.5227903,0.2550209,-1.104439,0.2561227,-0.03690928,0.4774431,1.495639,0.2844245,-0.05543831,1.315013,0.6066083,275.043,239.4476,37.87646,True
0,0.900001,0.5923364,0.5507307,0.04436573,-1.433966,1.16136,-2.101753,0.2824974,1.30713,0.5667226,-0.8913286,-0.2053789,11.69761,13.58474,-0.1425244,0.2265101,-0.483431,-0.2940535,-3.459439,-0.7924481,0.3434634,1.455915,0.4497991,0.2567337,0.497084,0.2448284,-1.102351,0.2612633,-0.04493445,0.4750854,1.495912,0.2866066,-0.05709647,1.311245,0.6089288,275.1022,248.6037,29.04215,True
0,0.9111122,0.5614867,0.5293258,0.03701389,-1.438455,1.158932,-2.106383,0.280435,1.304992,0.5677402,-0.8906958,0.05926381,11.51194,13.69188,-0.1744895,0.1880872,-0.4981416,-0.298869,-3.471991,-0.7774321,0.3406487,1.454752,0.4516141,0.3067482,0.4639779,0.2455435,-1.099741,0.2658253,-0.05190075,0.4727484,1.496211,0.2887337,-0.05854874,1.307487,0.6108958,275.1732,255.834,22.10091,True
0,0.9222233,0.5200287,0.5047621,0.05843583,-1.443294,1.157665,-2.110599,0.2782829,1.302755,0.5686662,-0.8902521,0.03935659,11.37931,13.69188,-0.2334777,0.2177936,-0.5402886,-0.3066156,-3.480472,-0.7646534,0.3378294,1.453763,0.4533458,0.3555796,0.4287549,0.2281489,-1.098047,0.2698371,-0.05943696,0.4703853,1.496411,0.2907503,-0.0600291,1.303677,0.6126138,275.2724,260.6376,17.45214,True
0,0.9333345,0.5010415,0.4814563,0.1458838,-1.449485,1.159337,-2.115887,0.2763159,1.300407,0.5696604,-0.8866105,0.332368,11.22016,13.54189,-0.2616971,0.2816784,-0.5868988,-0.3162578,-3.485931,-0.7556264,0.3350684,1.452984,0.4551554,0.3395649,0.4085413,0.2271785,-1.095913,0.2744706,-0.06465836,0.4681182,1.496646,0.2926185,-0.06167584,1.29973,0.6141908,275.3745,264.0222,14.12886,True
0,0.9444456,0.522482,0.464614,0.2130074,-1.45582,1.16088,-2.12265,0.2743244,1.298286,0.5704241,-0.8854702,0.1012852,11.11406,13.34904,-0.2373356,0.2359653,-0.6233422,-0.3227219,-3.500938,-0.7397489,0.332469,1.452055,0.4568567,0.3130686,0.4107015,0.2465349,-1.092812,0.2799739,-0.06979106,0.4658043,1.496924,0.2945278,-0.06371403,1.29575,0.6158201,275.6216,267.9902,10.15829,True
0,0.9555568,0.580147,0.4414416,0.268388,-1.461785,1.162998,-2.13133,0.272579,1.296225,0.5707393,-0.8860933,-0.05743943,10.98143,13.13477,-0.2255068,0.1593068,-0.6362797,-0.3277084,-3.51832,-0.721175,0.3300533,1.451019,0.4582734,0.278056,0.4128851,0.2670168,-1.08952,0.2855501,-0.07429527,0.4636436,1.497285,0.2962761,-0.06593807,1.291861,0.6173934,275.9626,272.7976,5.427564,True
0,0.9666679,0.6100737,0.4063727,0.2726871,-1.466101,1.163806,-2.139101,0.2707342,1.294299,0.5712028,-0.8876374,-0.1405693,10.90185,12.9205,-0.2263818,0.151832,-0.6139145,-0.3332334,-3.526503,-0.710941,0.3274395,1.450036,0.4597445,0.2664144,0.4150278,0.2777515,-1.086527,0.2910091,-0.07939256,0.4614312,1.497561,0.2980046,-0.06803954,1.288095,0.6185908,276.3018,278.2129,0.1913881,True
0,0.977779,0.6251522,0.330709,0.2440758,-1.467873,1.164613,-2.146635,0.2690248,1.292377,0.5713513,-0.8894495,-0.1647073,10.79576,12.74909,-0.2520483,0.1890484,-0.6136919,-0.3404628,-3.531967,-0.7021877,0.3249446,1.449085,0.4609759,0.2772596,0.3936932,0.3117614,-1.082227,0.2955894,-0.08497828,0.4592005,1.497797,0.2996144,-0.06991252,1.284423,0.6191911,276.6058,282.9243,355.6674,True
0,0.9888902,0.6113561,0.3083015,0.2420215,-1.471781,1.165357,-2.152947,0.2671645,1.290183,0.5718436,-0.8885392,0.08429647,10.76923,12.72766,-0.2937993,0.2571187,-0.616526,-0.3492587,-3.533771,-0.6958771,0.322395,1.44811,0.4621971,0.2955456,0.3670173,0.3435841,-1.077698,0.2997622,-0.09093683,0.4568696,1.497895,0.3012714,-0.07150441,1.280687,0.6190935,276.8162,286.1315,352.5023,True
0,1.000001,0.5879575,0.3040204,0.261239,-1.476331,1.166552,-2.158706,0.265639,1.288237,0.5719733,-0.8878569,0.06123284,10.74271,12.81337,-0.3152062,0.3092508,-0.6109936,-0.3573936,-3.534711,-0.6908919,0.3200849,1.447183,0.4632361,0.2946046,0.3382392,0.3680744,-1.073231,0.3033866,-0.09592014,0.454733,1.4981,0.302803,-0.07311388,1.276815,0.6185594,277.0378,287.4215,351.0084,True
0,1.011112,0.5602983,0.3104111,0.2932218,-1.481931,1.16802,-2.164337,0.2639367,1.286464,0.572252,-0.8863757,0.1348272,10.74271,13.02764,-0.3311042,0.3539271,-0.5831395,-0.3651173,-3.533195,-0.6881291,0.3177721,1.44628,0.4645281,0.2850401,0.3318669,0.3723984,-1.069347,0.3079468,-0.101006,0.4526311,1.498272,0.3045058,-0.07480758,1.272752,0.6178325,277.3052,287.5094,350.5471,True
0,1.022224,0.545444,0.2944204,0.3060609,-1.486361,1.169673,-2.170078,0.2623495,1.28476,0.5724535,-0.8855506,0.07426494,10.74271,13.28477,-0.3285309,0.3624011,-0.5213668,-0.3707418,-3.530784,-0.6868894,0.3156319,1.445477,0.465549,0.2861946,0.3382501,0.3841217,-1.065052,0.3130999,-0.106751,0.4505749,1.498508,0.3059938,-0.07667357,1.268576,0.6171973,277.725,288.7581,348.8844,True
0,1.033335,0.5254215,0.2145263,0.3211704,-1.488545,1.17291,-2.17549,0.2606107,1.28386,0.5726337,-0.8853636,0.0166581,10.71618,13.54189,-0.3165345,0.3442962,-0.4905767,-0.3761997,-3.531541,-0.6830489,0.3135917,1.444753,0.466588,0.3001808,0.3382267,0.404263,-1.060325,0.3182111,-0.1131135,0.4487267,1.498761,0.3073909,-0.07850944,1.264445,0.6166604,278.3449,290.8066,346.5794,True
0,1.044446,0.5244414,0.1761653,0.3159297,-1.491102,1.175221,-2.18146,0.2590432,1.282371,0.5728297,-0.8855191,-0.01431323,10.68966,13.75616,-0.2883559,0.253792,-0.4589045,-0.3790829,-3.539483,-0.6734343,0.3117455,1.444095,0.4674504,0.2936879,0.3222597,0.3925837,-1.056692,0.3221807,-0.1181732,0.446898,1.498934,0.3087473,-0.08033655,1.260555,0.6162345,279.0146,292.7498,344.5162,True
0,1.055557,0.520269,0.138821,0.298976,-1.492976,1.177351,-2.187546,0.2576017,1.280862,0.5729301,-0.8851601,0.03304737,10.66313,13.92758,-0.2687616,0.1792463,-0.4292857,-0.3816608,-3.54725,-0.6638358,0.3098642,1.443404,0.4683144,0.2367374,0.2669938,0.3332846,-1.055059,0.32379,-0.1197219,0.4453697,1.499005,0.3097293,-0.08205692,1.257015,0.6158273,279.6267,293.9518,343.2915,True
0,1.066668,0.5032604,0.1174427,0.2862676,-1.495222,1.179255,-2.192723,0.2562084,1.279412,0.5730555,-0.8858308,-0.06146865,10.6366,14.07757,-0.2451817,0.1782279,-0.410288,-0.386136,-3.549434,-0.6598511,0.3081046,1.442826,0.4691229,0.1949102,0.2468517,0.2984047,-1.05303,0.3267503,-0.1219153,0.4436896,1.499086,0.3110113,-0.08317325,1.255244,0.615577,279.5854,293.6666,343.7725,True
0,1.077779,0.4457606,0.1034263,0.278921,-1.497396,1.181226,-2.195764,0.2548801,1.278298,0.573138,-0.886079,-0.0221677,10.6366,14.20613,-0.2374872,0.1973947,-0.3719766,-0.3902149,-3.547684,-0.6591241,0.3062553,1.442146,0.4698896,0.1499153,0.2501395,0.2603584,-1.051837,0.3302296,-0.123698,0.4422218,1.499084,0.3120797,-0.0841411,1.25437,0.6153991,279.0271,295.1388,342.4278,True
0,1.08889,0.3839951,0.09792869,0.2747592,-1.499979,1.183105,-2.198297,0.2533843,1.277148,0.5732017,-0.8852369,0.07712013,10.68966,14.35612,-0.2310471,0.1974099,-0.3645668,-0.3947337,-3.549213,-0.6552263,0.3044141,1.441505,0.4707053,0.1476938,0.2831826,0.2390946,-1.05015,0.3356129,-0.1281276,0.4408225,1.499105,0.3130474,-0.08502489,1.253606,0.6152206,278.3562,296.9412,340.6969,True
0,1.100002,0.3382042,0.08178964,0.256748,-1.501589,1.184721,-2.20059,0.252077,1.276406,0.5732903,-0.8831372,0.1913519,10.71618,14.48468,-0.236154,0.1718112,-0.3443093,-0.3978177,-3.552154,-0.6497226,0.3028548,1.441053,0.4712663,0.1528516,0.2991698,0.2103052,-1.049323,0.3403019,-0.1323397,0.4394507,1.499182,0.3141093,-0.08585418,1.252908,0.6151021,277.7781,299.2518,338.457,True
0,1.111113,0.3041358,0.05820116,0.230225,-1.502487,1.186278,-2.203078,0.2506078,1.275645,0.5733998,-0.8827149,0.03728004,10.68966,14.52753,-0.2345837,0.1557856,-0.2825426,-0.3993053,-3.551085,-0.6481175,0.3014156,1.440674,0.4718254,0.1566386,0.2992063,0.1399717,-1.050602,0.3439568,-0.1360545,0.4381664,1.499279,0.315007,-0.08676852,1.252393,0.6150473,277.4143,301.8675,335.953,True
0,1.122224,0.2785989,0.04106603,0.2196447,-1.503578,1.188036,-2.205394,0.2492626,1.275006,0.5735481,-0.8828624,-0.01333954,10.66313,14.54896,-0.2193083,0.1227708,-0.2464678,-0.4006896,-3.553136,-0.6443851,0.3001431,1.440344,0.4723184,0.1433415,0.2673038,0.07079957,-1.05239,0.3457593,-0.1380836,0.4370467,1.499279,0.3158967,-0.08787601,1.252019,0.6149837,277.1785,304.158,333.7853,True
0,1.133335,0.240323,0.007914513,0.2048527,-1.503844,1.190063,-2.207038,0.2479207,1.274524,0.5737405,-0.88346,-0.05422779,10.61008,14.50611,-0.1998504,0.1025589,-0.2157364,-0.4021634,-3.554262,-0.6417502,0.2988955,1.440134,0.4728217,0.1324681,0.2492295,0.04210043,-1.053158,0.3481718,-0.1403808,0.4358894,1.49933,0.3167896,-0.08908236,1.25176,0.6148538,276.9745,305.3246,332.694,True
0,1.144446,0.2009246,-0.009270445,0.187903,-1.504195,1.191724,-2.207985,0.2466659,1.274238,0.5738654,-0.8836693,-0.01845394,10.47745,14.44182,-0.1666326,0.07387361,-0.2000288,-0.4036329,-3.557152,-0.6382495,0.297732,1.440049,0.4732585,0.1312249,0.2460506,0.01654032,-1.054181,0.3511463,-0.143277,0.4348548,1.499413,0.3174667,-0.09037005,1.251508,0.614669,276.7239,305.866,332.1769,True
0,1.155557,0.1636122,-0.003000494,0.174091,-1.505353,1.192715,-2.208771,0.2456443,1.273937,0.5740004,-0.883305,0.03364879,10.37135,14.39897,-0.1493722,0.03768593,-0.1842082,-0.4043637,-3.561116,-0.6335282,0.2965387,1.439923,0.47364,0.1236798,0.2407368,0.005930707,-1.054886,0.3538872,-0.1456667,0.4338511,1.499518,0.3180695,-0.09160958,1.251255,0.6144593,276.4691,306.2513,331.8065,True
0,1.166668,0.1326967,9.015948E-05,0.1634752,-1.506328,1.193835,-2.209296,0.244451,1.273746,0.5740645,-0.8829263,0.03457424,10.3183,14.35612,-0.1383489,0.005724028,-0.1459669,-0.4040931,-3.563698,-0.6299034,0.2954955,1.439868,0.4738536,0.1034848,0.218388,0.01776871,-1.054519,0.3558537,-0.1471133,0.4330471,1.499604,0.3184855,-0.09279498,1.251055,0.6142485,276.2706,306.5207,331.5629,True
0,1.17778,0.08792399,0.004194278,0.1443593,-1.507222,1.194492,-2.208935,0.2435679,1.273856,0.5740597,-0.8831345,-0.01906631,10.3183,14.31326,-0.1337528,0.01954135,-0.09591885,-0.4039312,-3.561264,-0.6307915,0.294489,1.439889,0.474,0.06189676,0.1779706,0.02122262,-1.054237,0.3565702,-0.1467002,0.4322016,1.499726,0.3188348,-0.09390376,1.25095,0.6140555,276.1566,306.476,331.6262,True
0,1.188891,0.07197437,-0.01078582,0.1337599,-1.507349,1.195775,-2.209382,0.2424373,1.27396,0.5741427,-0.8832533,-0.01041286,10.39788,14.29184,-0.1399648,0.04186815,-0.06389415,-0.4044745,-3.55806,-0.6319857,0.2934542,1.439899,0.4742663,0.01608613,0.1418229,0.03003325,-1.053734,0.3572035,-0.1456483,0.4314546,1.499798,0.3191338,-0.09492209,1.250897,0.613915,276.1078,306.5844,331.5281,True
0,1.200002,0.04324872,-0.03220795,0.1125449,-1.506813,1.196846,-2.209195,0.2415108,1.274058,0.5742753,-0.8827702,0.04451349,10.50398,14.29184,-0.1374816,0.07271576,-0.005293112,-0.4040468,-3.551299,-0.6368055,0.2927118,1.440109,0.4743066,-0.005091041,0.1184063,0.05466537,-1.052431,0.3580234,-0.145276,0.4306909,1.499913,0.3193846,-0.09593573,1.250888,0.6138123,276.133,306.9471,331.1969,True
0,1.211113,0.01023135,-0.04191362,0.09876633,-1.50661,1.197841,-2.208351,0.2406962,1.274568,0.5743241,-0.8838344,-0.09743375,10.6366,14.35612,-0.1298839,0.06952499,0.01275727,-0.4038828,-3.549007,-0.6377235,0.2917958,1.440199,0.4745746,-0.003947973,0.1002956,0.0695674,-1.051233,0.3590668,-0.1460166,0.42992,1.499996,0.3197119,-0.09690527,1.250971,0.6137086,276.2278,306.6818,331.4906,True
0,1.222224,-0.01638503,-0.04516798,0.1041375,-1.506907,1.199257,-2.207343,0.2397799,1.274839,0.5744169,-0.8836502,0.01796885,10.74271,14.46325,-0.114756,0.04824227,0.03393545,-0.4029134,-3.547764,-0.6381049,0.2912034,1.44042,0.4747255,-0.008164883,0.07366282,0.08236482,-1.049847,0.3591508,-0.1458299,0.4292847,1.500065,0.3199236,-0.09795229,1.251049,0.61356,276.2639,306.1928,331.9878,True
0,1.233335,-0.04407171,-0.05056865,0.1031236,-1.507014,1.200595,-2.205994,0.2388752,1.275334,0.5745194,-0.8832613,0.03554323,10.8488,14.59181,-0.0879174,0.002494462,0.04541538,-0.401333,-3.549493,-0.6363645,0.2906847,1.440626,0.4749675,-0.02211452,0.04919145,0.07391576,-1.049442,0.3590317,-0.1450054,0.428775,1.500051,0.3201559,-0.09894168,1.251143,0.6133683,276.2966,304.9407,333.213,True
0,1.244446,-0.06853411,-0.05701275,0.106379,-1.50729,1.202195,-2.20495,0.2379809,1.275483,0.5746415,-0.8833551,-0.008654762,10.82228,14.67752,-0.06750468,-0.02942082,0.05695616,-0.3996819,-3.55082,-0.6350566,0.2901491,1.440785,0.4751225,-0.03617321,0.04709402,0.0441746,-1.050067,0.3594062,-0.1442911,0.4284268,1.500032,0.320344,-0.09988054,1.251335,0.6131717,276.4185,303.3296,334.8112,True
0,1.255558,-0.09944271,-0.05711727,0.09577008,-1.507182,1.203139,-2.202889,0.237223,1.275823,0.5746994,-0.8833658,-0.0006318231,10.76923,14.7418,-0.04285231,-0.0687744,0.06313374,-0.3976877,-3.553684,-0.6327684,0.2897434,1.441015,0.4751642,-0.0149893,0.04280904,0.02698435,-1.050335,0.3598092,-0.14499,0.4281175,1.499945,0.320446,-0.1008926,1.251554,0.612966,276.5725,302.1142,336.0469,True
0,1.266669,-0.1207798,-0.05293937,0.08300816,-1.507114,1.203766,-2.200855,0.2363637,1.276213,0.5747335,-0.8839633,-0.05440747,10.68966,14.78466,-0.04155944,-0.069858,0.09295344,-0.3957021,-3.551892,-0.6339913,0.2893541,1.441151,0.4751697,-0.003519474,0.02576452,-0.006125155,-1.051349,0.3593588,-0.1451495,0.4277027,1.499913,0.3206081,-0.1019686,1.251789,0.6127268,276.7324,300.7159,337.4617,True
0,1.27778,-0.1612795,-0.05308585,0.06070641,-1.506834,1.204072,-2.198031,0.2357123,1.276457,0.5749445,-0.8833476,0.05698629,10.68966,14.84894,-0.05413832,-0.04861706,0.1282212,-0.3937217,-3.547478,-0.6370332,0.2890847,1.441325,0.4751194,-0.01666301,0.01516267,-0.05718347,-1.053736,0.3587564,-0.1442152,0.4275738,1.499708,0.3205869,-0.1030364,1.251963,0.6124342,276.8286,299.2292,338.9489,True
0,1.288891,-0.1655455,-0.05310072,0.05858228,-1.506741,1.204916,-2.196164,0.2349348,1.276865,0.5749712,-0.8836187,-0.02514374,10.76923,14.89179,-0.05510321,-0.04224043,0.1431524,-0.3919475,-3.544694,-0.6390785,0.288895,1.44156,0.4750652,-0.02861709,0.005610325,-0.09013411,-1.055695,0.3581803,-0.1431966,0.4273903,1.499622,0.3205831,-0.1040644,1.25218,0.6121525,276.9732,297.5765,340.5756,True
0,1.300002,-0.1751078,-0.05523996,0.06500059,-1.506828,1.206165,-2.194178,0.2345021,1.277291,0.5749533,-0.883207,0.03819632,10.95491,14.89179,-0.04867578,-0.06139655,0.1409574,-0.3899731,-3.545152,-0.6383443,0.2886382,1.441755,0.475044,-0.05881711,-0.007097715,-0.142138,-1.059023,0.3570057,-0.1409182,0.4273731,1.49954,0.3205318,-0.1050958,1.25243,0.6119292,277.1523,296.0469,342.0294,True
0,1.311113,-0.1719085,-0.053082,0.07244681,-1.50705,1.207287,-2.192454,0.2341331,1.277576,0.5749042,-0.8843746,-0.1069159,11.11406,14.89179,-0.04550272,-0.06883753,0.134539,-0.3883432,-3.545375,-0.6378716,0.2885324,1.442068,0.474946,-0.08773394,-0.01130277,-0.1632533,-1.061408,0.3563449,-0.1386351,0.4273396,1.499502,0.3203466,-0.1060973,1.252694,0.6117001,277.431,296.1142,341.7671,True
0,1.322224,-0.1676752,-0.03920987,0.07667005,-1.507675,1.208012,-2.190836,0.2337365,1.277853,0.5748138,-0.8845999,-0.01947607,11.27321,14.91322,-0.04448787,-0.06776378,0.1281405,-0.3869685,-3.544984,-0.6377805,0.2883561,1.442259,0.4748979,-0.1014766,-0.0123557,-0.1471842,-1.062452,0.3559917,-0.1369126,0.4273418,1.499452,0.32025,-0.1070498,1.252926,0.6112469,277.7535,297.2653,340.3819,True
0,1.333336,-0.1549321,-0.03068917,0.06065737,-1.507736,1.208151,-2.189673,0.2333418,1.278264,0.574688,-0.8850478,-0.04078157,11.37931,14.95607,-0.04247526,-0.06881247,0.1110835,-0.3858622,-3.545672,-0.6368289,0.2883706,1.442473,0.4747417,-0.09601536,-0.0113061,-0.1269831,-1.063214,0.3558609,-0.1359405,0.4273092,1.499364,0.3200691,-0.1078016,1.253146,0.6104707,278.0374,297.7682,339.6208,True
0,1.344447,-0.1464176,-0.03174818,0.0531904,-1.507605,1.208641,-2.188376,0.2330292,1.278571,0.5745945,-0.885353,-0.02747187,11.40584,14.99893,-0.03184821,-0.05600424,0.1120838,-0.3846206,-3.544056,-0.6383376,0.2882415,1.442676,0.474638,-0.09173859,-0.01557612,-0.1238189,-1.064462,0.3552982,-0.1348119,0.427281,1.499296,0.3199389,-0.108452,1.253325,0.6093701,278.2863,298.3634,338.6657,True
0,1.355558,-0.1337139,-0.009382449,0.03394959,-1.507982,1.20802,-2.187351,0.2327867,1.278827,0.5744984,-0.8859458,-0.05392807,11.37931,15.04178,-0.0007756427,-0.06978617,0.1310167,-0.382202,-3.543326,-0.640102,0.2882232,1.442861,0.4744546,-0.08854338,-0.03901908,-0.1185282,-1.065477,0.3537305,-0.133186,0.4272718,1.499204,0.3197203,-0.109129,1.253491,0.608085,278.5099,298.5244,338.0667,True
0,1.366669,-0.1273627,0.004479002,0.03071623,-1.508571,1.207948,-2.18613,0.2326024,1.279052,0.5744607,-0.8858819,0.00630325,11.32626,15.08464,0.003529154,-0.07297936,0.136316,-0.3801982,-3.542626,-0.6407949,0.2881973,1.442996,0.4743197,-0.08633404,-0.06140445,-0.1015164,-1.06593,0.3519921,-0.1314206,0.42738,1.499062,0.319443,-0.1098474,1.253661,0.6067795,278.7012,298.2158,337.8882,True
0,1.37778,-0.1188745,0.01621509,0.02854795,-1.509198,1.207798,-2.185082,0.2324605,1.279153,0.5743494,-0.8862116,-0.03025013,11.29973,15.10606,0.004377626,-0.07188629,0.1075468,-0.3795031,-3.543856,-0.6397568,0.2881701,1.443109,0.4741635,-0.09483963,-0.06458865,-0.09826463,-1.066825,0.3508745,-0.1295433,0.4274238,1.498951,0.3192272,-0.110548,1.253815,0.6055745,278.8713,297.8649,337.7497,True
0,1.388891,-0.1135873,0.0332708,0.02638068,-1.510145,1.207548,-2.184099,0.232274,1.279326,0.5742362,-0.8860102,0.01868868,11.27321,15.10606,0.003132135,-0.06335051,0.08625886,-0.3790147,-3.544322,-0.6393073,0.2882032,1.443296,0.4739954,-0.1011648,-0.04966772,-0.09075653,-1.067592,0.3507448,-0.1280206,0.4275238,1.498909,0.3190074,-0.1111687,1.253942,0.6046115,279.032,297.7653,337.4002,True
0,1.400002,-0.09658461,0.04394799,0.01674541,-1.510736,1.206931,-2.183563,0.2322639,1.279423,0.5740824,-0.8861498,-0.0129576,11.35279,15.12749,-0.0001695156,-0.06228179,0.07243508,-0.3783356,-3.545222,-0.6383491,0.2881901,1.443441,0.4738221,-0.1022187,-0.03475166,-0.09287232,-1.068673,0.3506624,-0.1268338,0.4276186,1.498835,0.31879,-0.1116448,1.254053,0.6039509,279.1855,297.8855,336.9722,True
0,1.411114,-0.07422117,0.04398687,0.007134515,-1.511071,1.20659,-2.183523,0.2324385,1.279718,0.5739346,-0.8862228,-0.006564781,11.40584,15.12749,-0.0002108365,-0.03246364,0.07778944,-0.3777832,-3.542135,-0.6412135,0.2882617,1.443649,0.4736652,-0.09794605,-0.02623227,-0.09289694,-1.069711,0.3505303,-0.1257995,0.4277028,1.49877,0.3185747,-0.1119774,1.25414,0.6035708,279.3285,298.2849,336.4208,True
0,1.422225,-0.06250083,0.03974284,0.0007351185,-1.511199,1.206229,-2.18319,0.2324935,1.279931,0.573796,-0.886658,-0.0397847,11.45889,15.10606,0.005083241,-0.02286721,0.07669355,-0.3770653,-3.540716,-0.6427901,0.2884164,1.443828,0.4734786,-0.08935907,-0.02625087,-0.08336708,-1.070266,0.3501142,-0.1248964,0.4277831,1.49874,0.3183875,-0.1121946,1.25424,0.6034394,279.4617,298.6934,335.9805,True
0,1.433336,-0.03370223,0.025959,-0.003530013,-1.510943,1.206314,-2.183844,0.2326661,1.280079,0.5737517,-0.8871043,-0.04051259,11.45889,15.04178,0.002857573,-0.02392744,0.06392212,-0.3766658,-3.540991,-0.64244,0.2885087,1.444163,0.4733708,-0.08297814,-0.04330537,-0.08022022,-1.070809,0.3487898,-0.1234295,0.4279068,1.498778,0.3182306,-0.1121769,1.254392,0.6035139,279.5335,298.8279,335.9009,True
0,1.444447,-0.007069119,0.02389086,-0.00781864,-1.511075,1.206057,-2.18461,0.2328558,1.2803,0.5736232,-0.8867463,0.03295632,11.37931,15.02035,0.01356538,-0.05266669,0.06061765,-0.3752825,-3.543701,-0.6404167,0.2886801,1.44437,0.4732325,-0.08836453,-0.04968755,-0.0865804,-1.071914,0.3477224,-0.1216247,0.4281115,1.498755,0.3179684,-0.1116571,1.254487,0.6037737,279.5169,298.0582,336.7971,True
0,1.455558,0.01211392,0.01753607,-0.01422419,-1.510843,1.205769,-2.185359,0.2330806,1.280511,0.5735343,-0.8875325,-0.07229999,11.29973,15.04178,0.02844612,-0.04516751,0.05838774,-0.3745587,-3.54329,-0.6416277,0.2888286,1.444593,0.4730489,-0.08186295,-0.05290303,-0.06958093,-1.072085,0.3468939,-0.120536,0.4282443,1.498817,0.3177471,-0.111465,1.254776,0.6041142,279.566,298.9033,336.137,True
0,1.466669,0.01745363,0.005815512,-0.02272691,-1.510293,1.205526,-2.185586,0.2331916,1.280781,0.5734546,-0.8875911,-0.004792767,11.19363,15.12749,0.0336672,-0.02703942,0.05090558,-0.3744916,-3.54209,-0.6432415,0.2889319,1.444716,0.4728916,-0.07855027,-0.04758751,-0.05362371,-1.072195,0.3465445,-0.1195898,0.4283652,1.498813,0.3174746,-0.1111608,1.255063,0.6044574,279.4931,299.4949,335.695,True
0,1.47778,0.01961838,-0.01018734,-0.03547281,-1.509329,1.205321,-2.186035,0.2334369,1.280946,0.5734138,-0.8873834,0.01879766,11.14058,15.2132,0.02075046,0.004890477,0.04463773,-0.3749491,-3.539127,-0.6458062,0.2891045,1.444916,0.4727509,-0.06454524,-0.04868767,-0.03028177,-1.071679,0.3459702,-0.1190627,0.428511,1.498808,0.3172317,-0.1108118,1.255289,0.6047485,279.4171,299.9029,335.4247,True
0,1.488891,0.01749599,-0.0165906,-0.03971858,-1.508748,1.205021,-2.186092,0.2336461,1.281127,0.5733976,-0.8866803,0.06399854,11.11406,15.29891,0.02285853,0.001697578,0.04035764,-0.3745688,-3.53909,-0.6461257,0.2893781,1.445071,0.4726353,-0.04954954,-0.06043328,-0.01441339,-1.071303,0.3449053,-0.1183746,0.4286933,1.498814,0.3169906,-0.1106135,1.254655,0.6049013,279.7383,299.7011,335.6592,True
0,1.500003,0.01964791,-0.02403967,-0.03864022,-1.508104,1.205019,-2.18638,0.2339072,1.281328,0.5734205,-0.8867133,-0.003624525,11.19363,15.47032,0.02711439,-0.01106974,0.03498812,-0.3740681,-3.539961,-0.6457476,0.2896457,1.445254,0.472497,-0.04959612,-0.07107683,-0.01975097,-1.071659,0.3436987,-0.117313,0.4289215,1.498731,0.3167207,-0.1103106,1.254695,0.6052328,279.7084,301.4266,334.0794,True
0,1.511114,0.01749528,-0.0219123,-0.04077333,-1.507794,1.204626,-2.186268,0.2343261,1.281702,0.5733938,-0.886267,0.04086442,11.29973,15.68459,0.04435747,-0.03341137,0.05295587,-0.372336,-3.540395,-0.6464834,0.2900241,1.445374,0.4723294,-0.05175984,-0.081728,-0.02080625,-1.071767,0.342227,-0.1158286,0.4291657,1.498682,0.3164611,-0.1103337,1.254502,0.6052953,279.7715,302.2335,333.1921,True
0,1.522225,0.001542227,-0.04116684,-0.05775325,-1.506247,1.204249,-2.185727,0.2346623,1.282045,0.573472,-0.8863757,-0.01035049,11.40584,15.98457,0.05726343,-0.03765095,0.06777054,-0.3709751,-3.539458,-0.6484259,0.290389,1.445503,0.4721622,-0.04437573,-0.07534374,-0.03363941,-1.072493,0.3413967,-0.1152262,0.429437,1.498595,0.3161955,-0.1103394,1.254487,0.6051459,279.7019,301.3344,334.0268,True
0,1.533336,-0.01761001,-0.05508727,-0.0672833,-1.504758,1.204001,-2.184883,0.2349866,1.282323,0.5735273,-0.8859879,0.03556128,11.48541,16.28455,0.05719429,-0.03231282,0.06031426,-0.3706497,-3.539063,-0.6494214,0.2906877,1.445565,0.4720349,-0.03391861,-0.07002106,-0.06353699,-1.074092,0.3404758,-0.1147239,0.4297628,1.498535,0.3159149,-0.1099714,1.254548,0.6049299,279.8282,298.648,336.6144,True
0,1.544447,-0.03889472,-0.0647461,-0.07361541,-1.503338,1.203863,-2.183789,0.2353145,1.282502,0.5736575,-0.885516,0.04281646,11.48541,16.60596,0.05822027,-0.03230974,0.05498556,-0.3699935,-3.539135,-0.6499863,0.2911035,1.445724,0.4719024,-0.0191489,-0.07642379,-0.08281587,-1.075417,0.3391189,-0.1142387,0.4301182,1.498459,0.315604,-0.109591,1.254654,0.6048015,279.8773,297.4454,337.7879,True
0,1.555558,-0.05166,-0.06795909,-0.06612039,-1.502527,1.204116,-2.182839,0.2356868,1.282753,0.5737443,-0.8852118,0.02752884,11.48541,16.92736,0.06673662,-0.03015608,0.0549241,-0.3693581,-3.538694,-0.6514127,0.2915497,1.445898,0.4717648,-0.01601088,-0.09027471,-0.08817142,-1.076393,0.3373268,-0.1133146,0.4304563,1.498382,0.3153152,-0.1092394,1.254769,0.6048033,279.9543,296.7968,338.38,True
0,1.566669,-0.04632426,-0.06365931,-0.05654772,-1.501986,1.204155,-2.182655,0.2360539,1.282967,0.5737092,-0.8850195,0.01742569,11.45889,17.22734,0.08918351,-0.04608026,0.05899215,-0.3681905,-3.539917,-0.6520547,0.2920867,1.446052,0.4716918,-0.01394825,-0.1019945,-0.09564763,-1.07746,0.3354312,-0.1123146,0.4308088,1.498372,0.315037,-0.1089536,1.254855,0.6048905,280.0464,296.4813,338.6264,True
0,1.577781,-0.04741951,-0.05301154,-0.05763451,-1.501394,1.203746,-2.182058,0.2365867,1.283264,0.5737162,-0.8852273,-0.01899584,11.48541,17.50589,0.1072857,-0.07265428,0.04818103,-0.3670294,-3.543402,-0.6505911,0.2926729,1.446202,0.4715009,-0.02138688,-0.1041152,-0.09240261,-1.078237,0.3339324,-0.1111276,0.4312187,1.498331,0.3146629,-0.1086623,1.25494,0.6050167,280.1248,295.9058,339.1691,True
0,1.588892,-0.04852659,-0.04451052,-0.06723233,-1.500658,1.203051,-2.181359,0.2371776,1.283575,0.5736957,-0.8861077,-0.08030078,11.53846,17.76302,0.09984793,-0.08119659,0.04823228,-0.3658709,-3.545006,-0.6498414,0.2932063,1.446404,0.4713359,-0.03093618,-0.1072966,-0.0870093,-1.078806,0.3324707,-0.1098655,0.4315743,1.498322,0.3143084,-0.1083213,1.255052,0.6051432,280.2242,295.2555,339.8595,True
0,1.600003,-0.05816665,-0.03178022,-0.08002965,-1.499944,1.201941,-2.180315,0.2377652,1.283911,0.573684,-0.8858467,0.0245501,11.61804,17.913,0.09656316,-0.06521849,0.04404058,-0.36526,-3.545185,-0.6505327,0.2937623,1.446624,0.4711483,-0.03937986,-0.1168785,-0.07310835,-1.078973,0.3305944,-0.1082295,0.4319963,1.49831,0.3139033,-0.1079218,1.255141,0.6052256,280.2942,294.8131,340.3732,True
0,1.611114,-0.05501074,-0.01900733,-0.08964738,-1.499375,1.200791,-2.179847,0.2383903,1.284333,0.5735588,-0.8857391,0.009555558,11.72414,17.97729,0.09663701,-0.05990436,0.05466558,-0.3644163,-3.54427,-0.6524838,0.2943487,1.446961,0.4709687,-0.03930369,-0.1296726,-0.06033299,-1.079016,0.3283525,-0.1068913,0.4324451,1.498324,0.3135569,-0.1074118,1.255253,0.6052933,280.3901,294.4486,340.7446,True
0,1.622225,-0.05608499,-0.0179541,-0.09390934,-1.498538,1.199894,-2.17911,0.2390336,1.284757,0.5735464,-0.8854531,0.02615611,11.83024,17.95586,0.09885117,-0.05564851,0.06743669,-0.3631604,-3.543236,-0.6546494,0.2949918,1.44722,0.4707277,-0.03709135,-0.1371407,-0.0465029,-1.078815,0.3262785,-0.1055672,0.432916,1.498315,0.3131344,-0.1068626,1.255367,0.6054107,280.4788,293.8262,341.3612,True
0,1.633336,-0.06571598,-0.01055842,-0.1120268,-1.497724,1.198502,-2.178131,0.239739,1.285313,0.5735362,-0.8860422,-0.05406104,11.90981,17.87015,0.1084767,-0.0375248,0.07909761,-0.3622847,-3.540807,-0.6584581,0.2957874,1.447477,0.4704502,-0.03390329,-0.1392809,-0.05079276,-1.079354,0.3244171,-0.1045573,0.4334491,1.498265,0.3126929,-0.1062797,1.255524,0.6056301,280.6249,293.1536,342.0248,True
0,1.644447,-0.07851165,-0.008473013,-0.1151968,-1.496837,1.197347,-2.176624,0.2404169,1.285792,0.5736351,-0.8858462,0.01843744,11.90981,17.72016,0.1139025,-0.03219871,0.09397228,-0.3609824,-3.538714,-0.6619037,0.2965475,1.447743,0.4701765,-0.03617433,-0.1445896,-0.06782629,-1.080645,0.3221964,-0.1030076,0.4339637,1.498254,0.3122079,-0.1056295,1.255747,0.6059404,280.7335,292.9852,342.2369,True
0,1.655559,-0.1062344,-0.004306478,-0.1247538,-1.495947,1.19586,-2.174392,0.2411914,1.286372,0.5737107,-0.8856294,0.01956697,11.83024,17.52732,0.1214538,-0.0385797,0.1045661,-0.3593222,-3.537378,-0.6647074,0.2974066,1.448077,0.469846,-0.03200965,-0.1627033,-0.07745244,-1.081596,0.3192403,-0.1013564,0.4345798,1.498201,0.3116148,-0.1049515,1.256099,0.6063963,280.773,292.6338,342.7263,True
0,1.66667,-0.116905,-0.001152853,-0.1311371,-1.495074,1.194402,-2.17259,0.241906,1.286895,0.5737751,-0.8851197,0.04653623,11.67109,17.27019,0.1321855,-0.0534687,0.1098011,-0.3575113,-3.537472,-0.6664555,0.2982712,1.448367,0.4695523,-0.0256577,-0.1669737,-0.08175042,-1.082264,0.3168962,-0.1001434,0.4351654,1.498186,0.3110211,-0.1042063,1.256682,0.6070411,280.7649,291.9545,343.5771,True
0,1.677781,-0.1520993,0.006167334,-0.15028,-1.49398,1.192261,-2.169546,0.242698,1.287612,0.5738444,-0.8844784,0.05831609,11.45889,16.99164,0.1662325,-0.06721659,0.09888539,-0.3561536,-3.539076,-0.668095,0.2992184,1.448739,0.4692068,-0.009753257,-0.1595348,-0.09463762,-1.083607,0.3149874,-0.09971435,0.4358709,1.498226,0.3103511,-0.1034061,1.257615,0.6078984,280.6562,291.5164,344.2334,True
0,1.688892,-0.1713247,0.01247131,-0.1694433,-1.492872,1.189889,-2.166754,0.2437239,1.288473,0.5738647,-0.8849929,-0.04740198,11.24668,16.71309,0.1748777,-0.07998425,0.1105276,-0.3540689,-3.539078,-0.670364,0.3001698,1.449112,0.4688323,-0.01720661,-0.1563276,-0.09564479,-1.08445,0.3130322,-0.09838116,0.4365093,1.498229,0.3097186,-0.1025118,1.259093,0.6088985,280.411,291.8168,344.1719,True
0,1.700003,-0.1884218,0.0251817,-0.1822299,-1.492097,1.187419,-2.163877,0.2447096,1.289319,0.5739536,-0.8840422,0.0875156,11.06101,16.41311,0.1686238,-0.06936809,0.1329552,-0.3520023,-3.535768,-0.6751177,0.3012839,1.449507,0.4684584,-0.04388233,-0.197834,-0.0922916,-1.085013,0.3087949,-0.09497259,0.4371953,1.498191,0.309051,-0.1015186,1.26121,0.6098381,279.9752,293.7241,342.3982,True
0,1.711114,-0.2044245,0.02511023,-0.1960568,-1.490874,1.185099,-2.160914,0.2457816,1.290097,0.5739553,-0.8844007,-0.0333938,10.90185,16.11313,0.1697487,-0.0640462,0.1425385,-0.350236,-3.533438,-0.679211,0.3024872,1.449834,0.468013,-0.06617545,-0.2233738,-0.07511169,-1.084939,0.3049736,-0.09170169,0.43793,1.498031,0.3083212,-0.1004909,1.263757,0.6107073,279.4679,294.2039,342.0552,True
0,1.722225,-0.2150942,0.02505646,-0.2077597,-1.489618,1.182697,-2.157994,0.246864,1.291018,0.5740757,-0.8845834,-0.01619592,10.76923,15.85601,0.1965395,-0.06079908,0.1647125,-0.347909,-3.530165,-0.6853541,0.3038354,1.450316,0.4675641,-0.05225325,-0.2223362,-0.06455202,-1.085033,0.3022324,-0.09033921,0.4386546,1.497973,0.3075922,-0.09934039,1.266559,0.6115085,278.9272,294.1176,342.2442,True
0,1.733337,-0.2406952,0.02599223,-0.2332889,-1.487942,1.179813,-2.154414,0.2482904,1.292119,0.5742202,-0.8846819,-0.008790162,10.68966,15.62031,0.2447505,-0.09158686,0.189894,-0.3444011,-3.529316,-0.6904181,0.3052859,1.450842,0.4671698,-0.01087885,-0.2223928,-0.09039337,-1.086687,0.2993349,-0.09049128,0.4395406,1.497874,0.3067307,-0.09812275,1.269425,0.6122891,278.3552,294.1482,342.3131,True
0,1.744448,-0.2513721,0.02806681,-0.2460617,-1.486526,1.176958,-2.151036,0.2494597,1.293078,0.5743384,-0.8849029,-0.02001832,10.61008,15.42747,0.2779458,-0.130917,0.1981315,-0.340834,-3.531069,-0.6929575,0.3066638,1.45143,0.4666879,0.00911057,-0.2575555,-0.1193064,-1.088562,0.294672,-0.08900071,0.4404835,1.497789,0.3059013,-0.0968523,1.272159,0.6130466,277.8059,294.1135,342.4616,True
