loc,t,aDotS,bDotS,gDotS,aS,bS,gS,xS,yS,zS,qE,qDotE,emgA,emgB,aDotSH,bDotSH,gDotSH,aSH,bSH,gSH,xSH,ySH,zSH,aDotUB,bDotUB,gDotUB,aUB,bUB,gUB,xUB,yUB,zUB,xHand,yHand,zHand,aHand,bHand,gHand,enable
7,0,0.232963,-0.3649718,0.2007067,-1.524136,1.454385,-2.954858,0.3650061,1.167534,0.4365945,-1.544739,0.2307454,9.442968,17.84872,-0.2218474,0.3125293,-0.2378359,-0.9199474,-3.496444,-0.5844374,0.3078645,1.368142,0.3763297,0.09197539,0.3716415,0.3085731,-0.7972716,0.6838201,-0.4571814,0.4479593,1.497361,0.2426765,0.06862241,1.123507,0.3961793,279.2183,291.7169,336.0411,True
7,0.01111111,0.2191509,-0.3767266,0.2018198,-1.525461,1.459275,-2.957044,0.3641456,1.166659,0.4359989,-1.541907,0.2554053,9.336869,17.3559,-0.2122691,0.3082926,-0.2400371,-0.9239848,-3.49481,-0.5833761,0.3068246,1.367055,0.3758876,0.09726584,0.374824,0.3032144,-0.7962846,0.6911734,-0.4635786,0.4468494,1.497118,0.2429726,0.06783096,1.119645,0.3934061,281.1388,295.5321,330.9482,True
7,0.02222222,0.1818776,-0.3747158,0.2018797,-1.526963,1.463876,-2.958321,0.3632333,1.165812,0.4352314,-1.539379,0.2272465,9.257293,17.0345,-0.2036005,0.3093649,-0.2198646,-0.9274267,-3.492322,-0.5828285,0.3059018,1.366149,0.3754542,0.08743301,0.3556692,0.2723882,-0.7960774,0.6965078,-0.4679241,0.4460047,1.496887,0.24313,0.06696591,1.113829,0.3887112,282.8036,292.5684,332.455,True
7,0.03333334,0.1477532,-0.3609597,0.2061622,-1.528673,1.467815,-2.958996,0.3623837,1.165012,0.4345639,-1.536737,0.2379368,9.23077,17.07735,-0.2159034,0.3050195,-0.156922,-0.9289559,-3.488678,-0.5822882,0.3050056,1.365556,0.3749356,0.06795901,0.3141581,0.2384212,-0.7957072,0.6999474,-0.4704354,0.4451162,1.496651,0.2432206,0.06608844,1.107249,0.3830865,284.3785,287.639,335.9174,True
7,0.04444445,0.1306938,-0.3524696,0.213646,-1.530861,1.471947,-2.960123,0.3615153,1.164195,0.4340785,-1.533266,0.3135681,9.257293,17.48446,-0.2187486,0.2964606,-0.1132338,-0.9306544,-3.485438,-0.581717,0.3040445,1.364893,0.3745515,0.0593569,0.2949956,0.2310249,-0.7947714,0.7048935,-0.4743433,0.4442787,1.496335,0.2434368,0.06604027,1.105664,0.3799007,283.7639,275.9576,347.6152,True
7,0.05555556,0.1189614,-0.339684,0.2285472,-1.533256,1.475761,-2.961144,0.3606029,1.163536,0.4333804,-1.530048,0.2897789,9.257293,18.17013,-0.2130639,0.2900459,-0.06747223,-0.9316355,-3.48174,-0.5817404,0.3032068,1.364299,0.3740587,0.05078045,0.2886183,0.2246913,-0.7941163,0.7100328,-0.4782031,0.4434686,1.49612,0.243525,0.06611597,1.105211,0.3789645,283.5795,275.0085,349.1747,True
7,0.06666667,0.1179325,-0.3439364,0.2338969,-1.535368,1.480274,-2.962835,0.359641,1.162867,0.4326782,-1.527888,0.1933502,9.28382,18.8558,-0.2001288,0.2815491,-0.05053496,-0.9334374,-3.478842,-0.5817446,0.3024018,1.363645,0.3735051,0.03149897,0.2886513,0.2099066,-0.7940438,0.7152196,-0.4814652,0.4427211,1.495832,0.2435074,0.06603554,1.104806,0.3791104,283.5605,278.315,346.4257,True
7,0.07777778,0.1158227,-0.3524731,0.2307259,-1.53706,1.484967,-2.964239,0.3586195,1.162293,0.4319034,-1.525255,0.23739,9.336869,19.54146,-0.1916377,0.25708,-0.06340178,-0.9355062,-3.477541,-0.5806788,0.3015558,1.36306,0.3730073,0.01861936,0.2790858,0.1982757,-0.7937093,0.7198984,-0.4844902,0.4420842,1.495614,0.2434931,0.06588741,1.104397,0.3795951,283.6539,282.5237,342.6224,True
7,0.08888889,0.101967,-0.353584,0.2264991,-1.538798,1.489327,-2.964994,0.3576629,1.161694,0.4310176,-1.523211,0.1829799,9.336869,20.14142,-0.2057336,0.2432636,-0.09741338,-0.9393198,-3.476323,-0.578135,0.3008363,1.362581,0.3724117,0.007921875,0.2769735,0.1930234,-0.7933573,0.7250001,-0.4877468,0.4413946,1.495396,0.2434747,0.06568881,1.103947,0.3798162,283.737,285.7642,339.8319,True
7,0.1,0.07743123,-0.3451467,0.2233212,-1.540509,1.493302,-2.9651,0.3566557,1.161199,0.4301829,-1.520236,0.2686678,9.336869,20.65567,-0.2185163,0.240035,-0.09838585,-0.9416757,-3.474436,-0.5763416,0.3000318,1.362087,0.3718381,-0.01020962,0.2674254,0.1920777,-0.7928199,0.7298121,-0.4902975,0.4408627,1.495011,0.2432108,0.06550971,1.103506,0.3795815,283.6572,287.4068,338.6913,True
7,0.1111111,0.04970429,-0.3335191,0.2222813,-1.542479,1.497144,-2.964942,0.3555914,1.160696,0.4293838,-1.516782,0.311558,9.336869,20.95564,-0.2309515,0.2527694,-0.04290834,-0.9427553,-3.469759,-0.5755656,0.2994498,1.361968,0.3711643,-0.03807259,0.2536329,0.1709629,-0.7929237,0.7338822,-0.4918472,0.4404464,1.495005,0.2431262,0.06531601,1.103119,0.3789826,283.4412,287.7241,338.9023,True
7,0.1222222,0.02624686,-0.325071,0.22123,-1.544256,1.500865,-2.964617,0.3545926,1.16023,0.4286036,-1.513327,0.3113135,9.310343,20.7628,-0.230746,0.265527,-0.01093972,-0.9437886,-3.465558,-0.5754631,0.2987986,1.361698,0.3705463,-0.04240927,0.2429881,0.1624684,-0.7926984,0.7377459,-0.4939253,0.4399337,1.494845,0.243012,0.0650573,1.102794,0.3782186,283.1866,287.3055,339.8414,True
7,0.1333333,-0.03342932,-0.315654,0.2276945,-1.546412,1.50457,-2.962296,0.3535835,1.160036,0.4277592,-1.510298,0.272555,9.310343,20.5271,-0.2230813,0.2623343,0.0167028,-0.9444107,-3.461717,-0.5754912,0.29802,1.361353,0.3699405,-0.06605344,0.2068101,0.1413236,-0.7924507,0.7394779,-0.4935266,0.4398458,1.49496,0.2427306,0.06461167,1.102541,0.3774706,282.9301,286.7753,340.8527,True
7,0.1444445,-0.06966176,-0.31257,0.2298693,-1.54829,1.50849,-2.960442,0.3525885,1.159827,0.4269433,-1.507423,0.2587549,9.336869,20.46282,-0.2097027,0.2101318,0.07726921,-0.9423462,-3.45928,-0.5751211,0.2975316,1.361367,0.3692937,-0.08333893,0.1791438,0.1126749,-0.792676,0.741069,-0.4931631,0.4396988,1.494868,0.2423625,0.06388609,1.102346,0.3768095,282.575,286.6258,341.4504,True
7,0.1555556,-0.1122656,-0.3158987,0.2288807,-1.550102,1.512544,-2.957751,0.3514665,1.159697,0.4261615,-1.502777,0.4208408,9.363397,20.78423,-0.1912056,0.1717978,0.1154513,-0.9404677,-3.456869,-0.5750335,0.2970864,1.361363,0.3686581,-0.1048956,0.1482896,0.08405606,-0.7929962,0.7418762,-0.4917665,0.4395582,1.494844,0.2420218,0.06307333,1.10218,0.3762082,282.3977,286.3828,342.1237,True
7,0.1666667,-0.1474151,-0.3266931,0.2172513,-1.551413,1.516972,-2.955028,0.3503312,1.159765,0.4253838,-1.500458,0.2066886,9.496022,21.44847,-0.1741127,0.1388319,0.1121,-0.9400969,-3.45546,-0.5742399,0.2966972,1.361447,0.3678813,-0.119798,0.1419216,0.08735856,-0.7926254,0.7445121,-0.4918424,0.4392222,1.494919,0.2416768,0.06215701,1.102104,0.3756177,282.3461,286.0116,342.9434,True
7,0.1777778,-0.1751085,-0.3342658,0.204531,-1.552489,1.521141,-2.952345,0.3491422,1.15979,0.4246771,-1.497146,0.2995924,9.628648,22.027,-0.1730733,0.1335125,0.1067614,-0.9399686,-3.453463,-0.5735407,0.296237,1.361445,0.3672438,-0.1219298,0.1312713,0.0895018,-0.7922025,0.7465667,-0.491856,0.4390232,1.494934,0.2413113,0.06114392,1.102091,0.3749602,282.1895,285.4121,343.9945,True
7,0.1888889,-0.1931861,-0.3513807,0.1992812,-1.553728,1.525988,-2.94955,0.3479595,1.159855,0.4238915,-1.494475,0.2398685,9.787797,22.49839,-0.1698907,0.1484451,0.1120705,-0.940245,-3.449976,-0.5735639,0.2958257,1.361567,0.3664916,-0.1219047,0.1110349,0.09695774,-0.791272,0.7483115,-0.4918225,0.4389026,1.494817,0.2408404,0.06003077,1.102136,0.3742068,282.0885,284.1399,345.7078,True
7,0.2,-0.2314828,-0.3738848,0.1940733,-1.554797,1.531208,-2.945797,0.3466235,1.160149,0.4232459,-1.491952,0.2268853,9.973473,22.88408,-0.1677668,0.1686891,0.1184625,-0.9403723,-3.446207,-0.5739365,0.2954403,1.361786,0.3658736,-0.1304519,0.1153082,0.09276117,-0.7910947,0.7507179,-0.4917748,0.4388043,1.49486,0.2404506,0.05884851,1.102229,0.3733188,281.9871,282.0361,348.1338,True
7,0.2111111,-0.2527682,-0.3824798,0.190933,-1.555877,1.536053,-2.942363,0.3453534,1.160341,0.4225645,-1.489219,0.2461974,10.13263,23.1412,-0.1591381,0.1974711,0.1450461,-0.9402306,-3.441015,-0.575234,0.295191,1.362152,0.3652425,-0.1380159,0.1131921,0.07789889,-0.7913514,0.7523921,-0.4911466,0.4387421,1.494891,0.2400603,0.0576288,1.102336,0.3723337,281.8882,279.5361,350.9094,True
7,0.2222222,-0.2975018,-0.385824,0.1878213,-1.557036,1.540796,-2.937751,0.3440765,1.160532,0.4219029,-1.485608,0.3262337,10.23872,22.92693,-0.1374608,0.1804783,0.1895975,-0.9385027,-3.436925,-0.5766625,0.2949681,1.362555,0.364619,-0.1404278,0.09296174,0.04275853,-0.7921072,0.7522668,-0.4893652,0.4387501,1.494886,0.2396054,0.05643658,1.102455,0.371272,281.9139,276.8026,353.9254,True
7,0.2333333,-0.3476035,-0.3753278,0.1868088,-1.558221,1.544989,-2.932281,0.3427944,1.160791,0.4213016,-1.4832,0.2156668,10.26525,22.28412,-0.1233529,0.1581231,0.2161073,-0.9362657,-3.433631,-0.5777222,0.2947105,1.36288,0.3640931,-0.1503322,0.04504548,0.007661413,-0.7925818,0.7501166,-0.4858594,0.4388613,1.494996,0.2391007,0.05515292,1.102633,0.3701762,281.985,274.1175,356.8792,True
7,0.2444444,-0.4041094,-0.357412,0.1825878,-1.559269,1.548792,-2.926358,0.3413814,1.161058,0.4206507,-1.479447,0.3396586,10.23872,21.19134,-0.111523,0.1251326,0.2191877,-0.934321,-3.431616,-0.5780964,0.2945164,1.363355,0.3636444,-0.1536871,0.02374825,-0.01042941,-0.7929466,0.7492737,-0.4834338,0.4389012,1.495081,0.2385592,0.05378909,1.102821,0.3690213,282.0072,271.4093,359.8062,True
7,0.2555556,-0.4371458,-0.3521816,0.1847588,-1.560529,1.552936,-2.920406,0.339998,1.161382,0.4200735,-1.475893,0.3201842,10.2122,20.05571,-0.09867726,0.07511932,0.2115848,-0.9324121,-3.43097,-0.5775177,0.2943567,1.363817,0.3631539,-0.1528093,-0.007142529,-0.03068334,-0.7933594,0.7471725,-0.480287,0.4390047,1.495215,0.2380204,0.05233241,1.103012,0.3677426,282.1617,268.6774,2.665725,True
7,0.2666667,-0.478664,-0.3619685,0.1795216,-1.561346,1.558367,-2.914023,0.338623,1.161877,0.4193599,-1.47284,0.2747959,10.18567,19.07007,-0.07825276,0.01341821,0.2166921,-0.9298081,-3.430849,-0.5770639,0.2943538,1.364316,0.3626781,-0.1485775,-0.03378116,-0.02858803,-0.7929536,0.745628,-0.4776582,0.439233,1.495214,0.237474,0.05072212,1.103289,0.3659509,282.3506,269.8628,1.186094,True
7,0.2777778,-0.5137736,-0.3823526,0.1657839,-1.561533,1.563454,-2.907385,0.3371747,1.162371,0.4188755,-1.470265,0.231463,10.1061,18.25584,-0.063333,-0.009969123,0.2091054,-0.9276829,-3.430208,-0.5772204,0.2942408,1.364876,0.3622816,-0.1497088,-0.04443074,-0.03603791,-0.7931069,0.744266,-0.4750675,0.4393687,1.495286,0.2368741,0.0488776,1.103529,0.3631644,282.5344,273.3513,356.8057,True
7,0.2888889,-0.5435832,-0.3942142,0.1477889,-1.56178,1.56845,-2.900527,0.3356428,1.163199,0.418669,-1.4673,0.2674679,9.973473,17.63445,-0.05268863,-0.02270304,0.205814,-0.9257947,-3.429175,-0.5772591,0.294139,1.365423,0.3617635,-0.1550637,-0.04335395,-0.04025895,-0.7934153,0.7434742,-0.4726086,0.4395178,1.495335,0.2362959,0.04703866,1.103691,0.3591363,282.8371,276.8647,351.924,True
7,0.3,-0.5648734,-0.4028209,0.1424883,-1.562032,-4.70979,-2.893691,0.3341384,1.163806,0.4182546,-1.464456,0.2560128,9.840847,17.16306,-0.04730813,-0.02482101,0.2121633,-0.9234878,-3.42775,-0.5777685,0.2940315,1.366101,0.361367,-0.1530836,-0.05613559,-0.05838347,-0.7940359,0.7414119,-0.4694543,0.439677,1.49546,0.2356315,0.04381207,1.104072,0.353523,282.7164,284.7921,341.7896,True
7,0.3111111,-0.5936143,-0.4221214,0.1265997,-1.561499,-4.704455,-2.886128,0.3325343,1.164629,0.4179161,-1.461647,0.2529565,9.681698,16.73452,-0.03548243,-0.01521677,0.2291316,-0.9209365,-3.425423,-0.5791981,0.2939072,1.366753,0.3608418,-0.1564103,-0.08382028,-0.07115047,-0.7942989,0.7384435,-0.4655309,0.4399032,1.49556,0.2349899,0.04104288,1.104187,0.3461743,282.9181,285.5826,338.2727,True
7,0.3222222,-0.6180555,-0.4477951,0.1160576,-1.561055,-4.698608,-2.87867,0.330945,1.165514,0.4175856,-1.45905,0.2335722,9.522545,16.58453,-0.02781694,-0.0226548,0.2567596,-0.9177914,-3.423299,-0.5800881,0.294141,1.367728,0.3603141,-0.159714,-0.1200294,-0.07859087,-0.7941504,0.7348954,-0.461157,0.4401408,1.495663,0.234262,0.03902379,1.104514,0.33836,283.4149,284.2007,336.8015,True
7,0.3333333,-0.6424894,-0.4745273,0.1065761,-1.560262,-4.692484,-2.870867,0.329226,1.166505,0.4172668,-1.455704,0.3021393,9.389919,16.60596,-0.02440614,-0.02799155,0.2833633,-0.9141636,-3.421034,-0.5813169,0.2941156,1.368557,0.3599021,-0.1630017,-0.1466553,-0.08603139,-0.7941104,0.7310671,-0.4565793,0.4403893,1.495825,0.2334938,0.03786466,1.104742,0.330299,284.3593,285.0654,332.9643,True
7,0.3444445,-0.652038,-0.4830813,0.1076887,-1.560079,-4.686797,-2.863609,0.3275996,1.167366,0.4169254,-1.453094,0.2343064,9.310343,16.69166,-0.01353326,-0.0322431,0.3109776,-0.9102008,-3.418436,-0.5831428,0.2942465,1.369388,0.3594971,-0.1630336,-0.1594309,-0.08816361,-0.7941285,0.7279923,-0.4526591,0.4407181,1.495988,0.2327578,0.03709007,1.105019,0.3228095,285.0812,283.6994,331.7074,True
7,0.3555556,-0.6754654,-0.4884895,0.1034782,-1.559459,-4.681122,-2.855396,0.3259004,1.168453,0.4165804,-1.450115,0.2686116,9.28382,16.86308,0.03056344,-0.07583627,0.350036,-0.9044846,-3.4173,-0.5858549,0.2943363,1.370314,0.3590181,-0.1642531,-0.1881885,-0.1041417,-0.7943118,0.7231202,-0.4473807,0.441013,1.496154,0.2319331,0.03647912,1.105339,0.3161837,285.9195,282.6942,330.4091,True
7,0.3666667,-0.707442,-0.4822316,0.09499146,-1.558736,-4.675956,-2.846856,0.324263,1.169487,0.416203,-1.447942,0.1945644,9.336869,17.0345,0.0465972,-0.09924051,0.3488358,-0.9002401,-3.416747,-0.5871444,0.2944838,1.371191,0.3585687,-0.1675632,-0.2116124,-0.1147791,-0.794438,0.7184158,-0.442015,0.4414198,1.4963,0.2311425,0.03571825,1.105689,0.3105779,286.719,281.6914,329.5185,True
7,0.3777778,-0.7341089,-0.4748812,0.08649276,-1.55789,-4.670983,-2.837874,0.3225872,1.170527,0.4158368,-1.44433,0.3267799,9.442968,17.14163,0.04655552,-0.107757,0.3403075,-0.8965154,-3.41587,-0.5882174,0.29459,1.372083,0.3581605,-0.1718773,-0.2222577,-0.1200784,-0.7945973,0.7139125,-0.4368093,0.4417607,1.496454,0.2303455,0.03460483,1.106382,0.3064216,287.0725,280.1245,329.9285,True
7,0.3888889,-0.7618447,-0.4728738,0.07480691,-1.556648,-4.665833,-2.82829,0.3212072,1.171655,0.4153876,-1.441194,0.282038,9.602121,17.18449,0.03166126,-0.1120649,0.3404182,-0.8925585,-3.414714,-0.588859,0.2948667,1.373109,0.3576415,-0.1740765,-0.2339669,-0.1275225,-0.7948391,0.7093412,-0.431618,0.4421922,1.49665,0.2295399,0.03311776,1.107683,0.3038091,287.2003,279.1041,330.4109,True
7,0.4,-0.7852719,-0.4847081,0.06103276,-1.555102,-4.660085,-2.818759,0.3193876,1.172967,0.4151077,-1.438043,0.2839736,9.761274,17.05592,0.01906276,-0.1057212,0.3671493,-0.8879442,-3.412128,-0.5903459,0.2950319,1.37415,0.3572016,-0.1710089,-0.2329008,-0.1456565,-0.7958191,0.7048068,-0.4265953,0.4426439,1.496789,0.2287364,0.03135714,1.1097,0.3025804,287.0821,278.8358,330.6436,True
7,0.4111111,-0.7787859,-0.5187912,0.05471527,-1.553267,-4.653345,-2.810332,0.3175326,1.174381,0.4148235,-1.434739,0.2979379,9.8939,16.64881,0.02355397,-0.08336511,0.4054826,-0.882987,-3.408185,-0.5932506,0.2952579,1.375252,0.356827,-0.1701877,-0.2414025,-0.1776187,-0.797532,0.699546,-0.4209571,0.4430325,1.497054,0.2278252,0.02949058,1.112428,0.3023911,286.738,279.2125,330.6132,True
7,0.4222222,-0.7978447,-0.5636043,0.051627,-1.550839,-4.64583,-2.800864,0.3156628,1.175835,0.4143586,-1.432203,0.2277856,10.02653,16.19884,0.03649738,-0.07695643,0.4288158,-0.8781939,-3.40499,-0.5961257,0.2956263,1.37633,0.3565104,-0.164969,-0.2552543,-0.1904481,-0.798478,0.6939119,-0.4153314,0.4435153,1.497289,0.2271273,0.02768007,1.115797,0.3027639,286.2342,279.95,330.4393,True
7,0.4333333,-0.8307513,-0.5999274,0.05282506,-1.548698,-4.638269,-2.79079,0.3138154,1.177447,0.4139977,-1.430847,0.1205794,10.1061,15.74888,0.04813997,-0.09822275,0.4106095,-0.8738694,-3.404084,-0.5977241,0.2960605,1.377607,0.356106,-0.1564786,-0.2616581,-0.1937046,-0.7992908,0.6886508,-0.410203,0.4440209,1.497497,0.2262807,0.02578568,1.119697,0.3031865,285.6117,280.8099,330.1546,True
7,0.4444444,-0.8647828,-0.6192036,0.05611389,-1.546734,-4.631085,-2.780261,0.3120191,1.17925,0.4136875,-1.427491,0.3042189,10.15915,15.27748,0.05981205,-0.1567624,0.3838533,-0.869014,-3.40566,-0.5977271,0.2963663,1.378977,0.3556895,-0.1575835,-0.2744387,-0.1958291,-0.799881,0.6831095,-0.4044138,0.4445249,1.497729,0.2255225,0.02395573,1.123912,0.3031894,284.8585,281.7512,329.6949,True
7,0.4555556,-0.8807451,-0.6267112,0.05402618,-1.544673,-4.62423,-2.770231,0.3101646,1.180818,0.4133284,-1.424435,0.2751513,10.15915,14.82751,0.06328082,-0.2142902,0.399768,-0.8625649,-3.406735,-0.5978624,0.2967085,1.380318,0.3554273,-0.1716529,-0.3180894,-0.218114,-0.8008562,0.6750624,-0.3964288,0.4451676,1.497932,0.2247009,0.02223249,1.128229,0.3023891,284.0982,282.4914,329.2014,True
7,0.4666667,-0.8924683,-0.626745,0.05617258,-1.542756,-4.617605,-2.760141,0.308263,1.182464,0.41295,-1.421729,0.2437581,10.15915,14.44182,0.06908333,-0.2558597,0.4476386,-0.854888,-3.40626,-0.5991814,0.2971988,1.381695,0.3549945,-0.1911719,-0.3564146,-0.2584681,-0.8026277,0.6660509,-0.3873307,0.4457574,1.498042,0.2238746,0.0206447,1.132555,0.3006376,283.4478,282.7719,328.7843,True
7,0.4777778,-0.8956562,-0.6288775,0.05831225,-1.540773,-4.610873,-2.750392,0.3063214,1.184065,0.4125822,-1.420077,0.147605,10.18567,14.12042,0.06726333,-0.2729341,0.4827965,-0.8474983,-3.405335,-0.6004747,0.2976042,1.382948,0.3546166,-0.1986731,-0.3564019,-0.264808,-0.8040578,0.6593685,-0.3802507,0.4463605,1.498217,0.2230957,0.01918649,1.136865,0.2980127,282.8762,282.53,328.5207,True
7,0.4888889,-0.9191151,-0.6279192,0.04664128,-1.538289,-4.604371,-2.73972,0.3043349,1.185738,0.4122379,-1.417988,0.1884417,10.2122,13.84187,0.05999365,-0.2569925,0.5126972,-0.8408116,-3.402721,-0.6026726,0.2980388,1.384201,0.3541026,-0.2039641,-0.3265701,-0.265825,-0.8057948,0.6546899,-0.3746215,0.4470162,1.498225,0.2222617,0.01782604,1.141091,0.2947376,282.2781,281.9749,328.3037,True
7,0.5,-0.9382738,-0.6301411,0.04241638,-1.535782,-4.597698,-2.729163,0.3025156,1.18737,0.4117539,-1.416461,0.1369951,10.2122,13.60617,0.05681628,-0.2335722,0.5233901,-0.8347598,-3.399958,-0.6050244,0.298386,1.385469,0.3536723,-0.2008092,-0.3063305,-0.2765007,-0.8080201,0.6494896,-0.3689653,0.4477876,1.498361,0.2215054,0.01650886,1.145196,0.2911003,281.7102,281.1977,328.1697,True
7,0.5111111,-0.9671087,-0.6099914,0.03921406,-1.533589,-4.592035,-2.717736,0.3005531,1.18912,0.4112794,-1.413985,0.2243197,10.18567,13.32762,0.03769535,-0.1942307,0.5448724,-0.8287315,-3.395787,-0.6076007,0.2988334,1.386795,0.3531518,-0.1997258,-0.3159217,-0.2711812,-0.8092234,0.6431415,-0.3623934,0.4485507,1.498521,0.2207503,0.01521155,1.14916,0.2873861,281.1719,280.222,328.2116,True
7,0.5222223,-1.00235,-0.5813414,0.04026075,-1.531621,-4.586779,-2.705639,0.2986991,1.190935,0.4106941,-1.412659,0.1186324,10.13263,13.02764,0.01329789,-0.1911115,0.5599731,-0.8220102,-3.392878,-0.6089094,0.299246,1.38807,0.3527019,-0.2125747,-0.3265603,-0.2774914,-0.8109506,0.6361818,-0.3547328,0.4493458,1.49866,0.2199376,0.01388805,1.153037,0.2838395,280.7051,279.0094,328.5714,True
7,0.5333334,-1.018414,-0.5493968,0.05192309,-1.53027,-4.581752,-2.693903,0.2966899,1.192823,0.4101114,-1.410753,0.1727117,10.13263,12.74909,-0.0206883,-0.1922843,0.5730155,-0.8150386,-3.390168,-0.6094474,0.2996175,1.389585,0.3522425,-0.237233,-0.3275833,-0.2996919,-0.8135478,0.6294289,-0.3466008,0.4501401,1.498799,0.2192581,0.01257781,1.156915,0.2806206,280.2834,277.8343,329.0425,True
7,0.5444446,-1.031247,-0.522782,0.06784495,-1.529049,-4.576512,-2.682347,0.2946006,1.19478,0.4094584,-1.409157,0.1439907,10.15915,12.49196,-0.05238062,-0.2104905,0.6020128,-0.8070236,-3.387415,-0.6097534,0.300004,1.391054,0.3516867,-0.2574955,-0.3073189,-0.3070019,-0.8160384,0.6240318,-0.3393895,0.451004,1.498939,0.2185349,0.01112526,1.160948,0.2778285,279.9158,276.8563,329.4657,True
7,0.5555557,-1.036579,-0.516394,0.07529593,-1.527517,-4.57104,-2.670765,0.29252,1.196734,0.4088471,-1.408803,0.03092899,10.18567,12.29912,-0.06607974,-0.2020281,0.624491,-0.7995161,-3.383483,-0.6112961,0.300389,1.39251,0.3512475,-0.2649957,-0.2817377,-0.318662,-0.8190057,0.6192468,-0.3328936,0.4518517,1.499092,0.2179248,0.009526113,1.165301,0.2754902,279.5503,276.2365,329.7096,True
7,0.5666668,-1.045097,-0.5089602,0.08488527,-1.526087,-4.565351,-2.659175,0.29036,1.198786,0.4082067,-1.408469,0.03001598,10.23872,12.17056,-0.07880801,-0.1669233,0.6437976,-0.7926606,-3.377771,-0.6140885,0.3009838,1.39419,0.3507407,-0.2746491,-0.2806588,-0.3292461,-0.821729,0.6133565,-0.3256178,0.4527591,1.499221,0.2173634,0.007775596,1.170083,0.2735478,279.0978,276.2443,329.489,True
7,0.577778,-1.051501,-0.5036393,0.08914202,-1.524554,-4.560075,-2.64757,0.2882516,1.200806,0.4075539,-1.407966,0.04548678,10.3183,12.19199,-0.09561744,-0.1797701,0.670549,-0.7844378,-3.373709,-0.6153061,0.3014368,1.395749,0.3503613,-0.2843429,-0.2923596,-0.3419655,-0.8245717,0.6068453,-0.3177196,0.4536327,1.499336,0.2167838,0.005974315,1.175289,0.2718664,278.5027,276.9017,328.7492,True
7,0.5888891,-1.06959,-0.5068817,0.09344342,-1.522878,-4.554525,-2.635396,0.2861333,1.202865,0.4068694,-1.407516,0.04054831,10.39788,12.29912,-0.1092811,-0.2352116,0.6759392,-0.7755519,-3.372921,-0.6142603,0.3021141,1.397309,0.3498995,-0.3005258,-0.2923327,-0.3716822,-0.8283662,0.6004642,-0.3095677,0.4545284,1.499488,0.2163079,0.004240565,1.180832,0.2702847,277.7785,278.0561,327.5538,True
7,0.6000003,-1.086604,-0.5175979,0.09139971,-1.520712,-4.548701,-2.622951,0.2838849,1.204999,0.4061806,-1.407151,0.03279776,10.5305,12.51339,-0.1208481,-0.2799906,0.6802571,-0.7665829,-3.372002,-0.6132213,0.3025401,1.398926,0.3495038,-0.3048757,-0.2784742,-0.3876255,-0.832159,0.5951036,-0.3024512,0.4554877,1.499639,0.2157958,0.002605249,1.186615,0.2686419,276.9853,279.7097,325.8304,True
7,0.6111114,-1.099389,-0.5155194,0.09244235,-1.518645,-4.543198,-2.61061,0.2818293,1.207201,0.4054124,-1.406272,0.07996335,10.68966,12.77051,-0.1206716,-0.2853305,0.7015609,-0.7577386,-3.368761,-0.61426,0.3030435,1.400437,0.3490102,-0.3016366,-0.2593051,-0.3855121,-0.8354874,0.590587,-0.2962216,0.456506,1.499704,0.2151692,0.001106665,1.192512,0.2668408,276.154,281.8121,323.5868,True
7,0.6222225,-1.10791,-0.513434,0.09673598,-1.516833,-4.537495,-2.598061,0.2798207,1.20931,0.4046893,-1.405713,0.05031762,10.79576,13.0705,-0.1195387,-0.2661698,0.7175454,-0.7493123,-3.364313,-0.6161876,0.3036053,1.401962,0.3485723,-0.303783,-0.2433203,-0.3908192,-0.8392451,0.5860019,-0.2896435,0.4576147,1.499724,0.2146516,-0.0003001462,1.198442,0.2647953,275.3443,284.2198,320.9615,True
7,0.6333337,-1.127166,-0.4878953,0.1020236,-1.51548,-4.532868,-2.584913,0.2776418,1.211565,0.4039307,-1.405663,0.004071009,10.90185,13.34904,-0.1332009,-0.2620001,0.7442724,-0.7401207,-3.360158,-0.6173101,0.3040977,1.403805,0.3483036,-0.3188729,-0.2454332,-0.4152157,-0.8437134,0.5800804,-0.2815478,0.4587825,1.499792,0.2140718,-0.001646304,1.204367,0.2624592,274.5781,286.6996,318.1787,True
7,0.6444448,-1.141053,-0.4730497,0.1041351,-1.513784,-4.527996,-2.571885,0.2756507,1.213903,0.4030955,-1.405359,0.02787263,10.92838,13.49904,-0.1426831,-0.2865433,0.7517837,-0.7305887,-3.357843,-0.6170043,0.3047237,1.405385,0.3477881,-0.3382384,-0.2571196,-0.4406495,-0.8483174,0.5736921,-0.2729226,0.4599431,1.499912,0.2136462,-0.002819173,1.210247,0.2598774,273.8539,289.634,314.8568,True
7,0.655556,-1.144318,-0.4549616,0.09770243,-1.512076,-4.523795,-2.559241,0.273624,1.216233,0.4022474,-1.404741,0.05614657,10.87533,13.49904,-0.1744536,-0.3100801,0.7690564,-0.7206333,-3.355163,-0.6160206,0.3053784,1.406933,0.3473387,-0.3522291,-0.2730744,-0.4576012,-0.8528512,0.5670787,-0.2641568,0.4610838,1.500005,0.2131925,-0.003861279,1.216078,0.2571115,273.1747,293.6878,310.3223,True
7,0.6666671,-1.157187,-0.4252771,0.08171301,-1.510337,-4.520189,-2.546272,0.2716931,1.218511,0.4012785,-1.404783,-0.004308915,10.79576,13.30619,-0.1935298,-0.3122865,0.780921,-0.7109916,-3.351569,-0.616003,0.3059868,1.40859,0.3467104,-0.3554728,-0.2762708,-0.4650432,-0.8573014,0.5611048,-0.2562933,0.4622564,1.499989,0.2126431,-0.004946467,1.221947,0.2542621,272.5683,299.0646,304.4207,True
7,0.6777782,-1.17111,-0.4029523,0.07633045,-1.508619,-4.516537,-2.533202,0.2696803,1.220961,0.4003778,-1.405226,-0.04032383,10.68966,13.09192,-0.2094049,-0.3283152,0.789558,-0.7010819,-3.348678,-0.6152936,0.3064551,1.410347,0.3462,-0.3640052,-0.2581469,-0.470306,-0.8620354,0.5564138,-0.2488575,0.4634184,1.49999,0.2121992,-0.005982339,1.227886,0.2514455,271.991,307.1779,295.8166,True
7,0.6888894,-1.175447,-0.3816745,0.0773425,-1.507131,-4.512981,-2.520011,0.2678565,1.223447,0.3994105,-1.404971,0.02358616,10.58355,12.85623,-0.2092787,-0.3357862,0.8034057,-0.6910482,-3.345309,-0.615627,0.3069323,1.411975,0.3454452,-0.3768367,-0.2357556,-0.4819336,-0.8672158,0.552209,-0.2415508,0.4645401,1.49998,0.2116847,-0.006973393,1.233896,0.2487639,271.4565,323.5624,278.9825,True
7,0.7000005,-1.172284,-0.3710378,0.07730996,-1.505525,-4.509307,-2.507298,0.2659569,1.225897,0.3985147,-1.404827,0.01294152,10.5305,12.53482,-0.2122035,-0.3368945,0.8396562,-0.6801106,-3.340458,-0.6168978,0.307321,1.413738,0.3448458,-0.394998,-0.2229422,-0.4913887,-0.8723461,0.547806,-0.2336857,0.4656663,1.500006,0.211241,-0.007944899,1.239968,0.2462872,271.1804,354.2147,247.9436,True
7,0.7111117,-1.162792,-0.3508126,0.05806922,-1.503605,-4.506715,-2.494853,0.2640322,1.22845,0.3976841,-1.404714,0.01032212,10.47745,12.14913,-0.2268836,-0.3327142,0.8738569,-0.6691331,-3.335217,-0.6178856,0.3078586,1.415365,0.3441899,-0.4077658,-0.2133239,-0.4912995,-0.8771995,0.5437,-0.2261301,0.4668822,1.500031,0.2108712,-0.008923816,1.24613,0.2440396,271.3502,26.37655,215.4698,True
7,0.7222228,-1.16711,-0.3412747,0.04526404,-1.501483,-4.503755,-2.481853,0.2621717,1.230913,0.3968604,-1.405184,-0.04305957,10.50398,11.76344,-0.2428651,-0.3178366,0.8793153,-0.6593321,-3.329843,-0.6188566,0.3085126,1.416888,0.3435316,-0.4268891,-0.1909239,-0.4879615,-0.8820432,0.5405457,-0.2186865,0.4680688,1.49998,0.2104006,-0.009831354,1.252385,0.242009,271.8344,45.69752,195.9287,True
7,0.7333339,-1.177881,-0.315784,0.023908,-1.499434,-4.501924,-2.468528,0.2602927,1.233378,0.3960974,-1.405553,-0.03339168,10.58355,11.46347,-0.2447206,-0.290195,0.925154,-0.6484627,-3.321753,-0.6225195,0.3089458,1.418414,0.342778,-0.4481041,-0.1674627,-0.4814274,-0.8869493,0.5376427,-0.2112321,0.4693912,1.499789,0.2099681,-0.01068294,1.25871,0.2401468,272.4874,56.75549,184.6811,True
7,0.7444451,-1.186505,-0.2967144,-0.002749328,-1.49701,-4.500434,-2.455118,0.2584905,1.235756,0.3953691,-1.404966,0.05394189,10.68966,11.27062,-0.2371947,-0.2965916,0.9346672,-0.6377014,-3.316554,-0.6242516,0.3095663,1.420233,0.342159,-0.4544608,-0.1578675,-0.4803308,-0.8919459,0.5342207,-0.2039851,0.470635,1.499745,0.2094867,-0.01152224,1.265056,0.2384482,273.2368,63.72118,177.5234,True
7,0.7555562,-1.189839,-0.2744929,-0.04859622,-1.493878,-4.500044,-2.441771,0.2565042,1.238236,0.3946793,-1.40464,0.02929219,10.79576,11.12063,-0.2362114,-0.2688903,0.9336147,-0.6280751,-3.309117,-0.6276296,0.3099972,1.421669,0.3414288,-0.4685284,-0.1461204,-0.5143206,-0.8984461,0.5309106,-0.1962489,0.4718458,1.499651,0.2090435,-0.01234835,1.271371,0.2368893,274.0217,67.97513,173.0929,True
7,0.7666674,-1.169677,-0.2766472,-0.09231067,-1.489868,-4.498804,-2.429656,0.2546212,1.240808,0.3940306,-1.40458,0.005210998,10.8488,10.92779,-0.2458988,-0.259335,0.9273011,-0.6184606,-3.302752,-0.6296184,0.3104253,1.422996,0.3404968,-0.4825002,-0.1418406,-0.531265,-0.9044638,0.5274547,-0.1882304,0.4730636,1.499548,0.20859,-0.0132089,1.27765,0.2354741,274.8044,70.97651,169.9231,True
7,0.7777785,-1.15696,-0.2714256,-0.1317449,-1.485947,-4.498297,-2.417282,0.2527293,1.243448,0.3934729,-1.404764,-0.01674929,10.82228,10.79923,-0.2543741,-0.2678824,0.9305544,-0.6080689,-3.29662,-0.6315159,0.3108115,1.424462,0.3398192,-0.5060183,-0.1173001,-0.5481409,-0.9109971,0.5253393,-0.1804478,0.474223,1.499449,0.2082074,-0.01410809,1.283879,0.2342132,275.5892,73.49611,167.2597,True
7,0.7888896,-1.174074,-0.2608763,-0.1530511,-1.482409,-4.498006,-2.403673,0.2508409,1.246155,0.3929963,-1.405947,-0.107988,10.79576,10.60639,-0.2531562,-0.2796394,0.9454569,-0.5967494,-3.290247,-0.6341357,0.3114066,1.42579,0.3390167,-0.5199576,-0.07999536,-0.5693422,-0.9179661,0.5241826,-0.1735337,0.4754625,1.499368,0.2078791,-0.01511737,1.290073,0.2331114,276.3626,75.83284,164.8147,True
7,0.8000008,-1.192209,-0.2684762,-0.1710993,-1.478405,-4.496934,-2.389578,0.2492014,1.248817,0.392452,-1.405798,0.01442522,10.74271,10.37069,-0.237284,-0.2593384,0.9389678,-0.5872579,-3.282411,-0.6384993,0.3119563,1.427101,0.338356,-0.5200065,-0.04803315,-0.5831833,-0.924952,0.5234737,-0.1673656,0.476588,1.499273,0.207505,-0.01608584,1.296139,0.2321562,277.1327,77.75004,162.84,True
7,0.8111119,-1.217825,-0.2686411,-0.2019491,-1.473959,-4.497047,-2.37524,0.2474022,1.251559,0.3920803,-1.404489,0.1194063,10.66313,10.09213,-0.2086324,-0.242223,0.9302375,-0.5780945,-3.274733,-0.6435313,0.3125784,1.428561,0.3378634,-0.4912109,-0.009733737,-0.587642,-0.931659,0.5234016,-0.1629604,0.4777104,1.4993,0.2072306,-0.01705955,1.302081,0.2313141,277.8516,79.23748,161.29,True
7,0.8222231,-1.23921,-0.2591891,-0.2243144,-1.469775,-4.497375,-2.360575,0.2457094,1.254318,0.3916948,-1.403828,0.05945209,10.61008,9.770729,-0.1831239,-0.2400288,0.9236739,-0.5682062,-3.267276,-0.6485354,0.3130727,1.429989,0.3371711,-0.4666947,-0.004452318,-0.5835344,-0.9378066,0.522137,-0.1576559,0.4788257,1.499209,0.2067823,-0.0180358,1.307991,0.2305569,278.4765,80.30957,160.193,True
7,0.8333342,-1.252046,-0.2518115,-0.2413587,-1.465627,-4.497872,-2.346067,0.2439148,1.257133,0.391408,-1.403759,0.006058781,10.61008,9.449324,-0.1454253,-0.284701,0.9627753,-0.5558949,-3.260419,-0.6540039,0.3137525,1.43147,0.3366945,-0.4380417,-0.01834044,-0.5965208,-0.9447346,0.5199293,-0.1524897,0.4798698,1.499063,0.2064064,-0.01887243,1.313946,0.2298089,279.0781,81.38776,159.1387,True
7,0.8444453,-1.253155,-0.2422821,-0.2488017,-1.461973,-4.498009,-2.332213,0.2422172,1.259879,0.3911161,-1.40361,0.01369501,10.6366,9.149346,-0.1281763,-0.3187511,0.9775453,-0.5440673,-3.253991,-0.6585414,0.314391,1.432829,0.3360734,-0.4275396,-0.0492475,-0.6115108,-0.9516279,0.5166305,-0.1461617,0.4808476,1.49898,0.2060318,-0.01962122,1.320073,0.2290444,279.7383,82.71712,157.7671,True
7,0.8555565,-1.248948,-0.2284344,-0.2541688,-1.45846,-4.498775,-2.318597,0.240533,1.262656,0.3908293,-1.403926,-0.02886754,10.68966,8.870793,-0.09394538,-0.3719245,0.9772494,-0.5320362,-3.250085,-0.6620416,0.3151062,1.434268,0.3356354,-0.4222819,-0.06630448,-0.6158022,-0.9582086,0.5138515,-0.1399206,0.4818417,1.498664,0.2055602,-0.02025568,1.326437,0.2283009,280.4679,83.82488,156.5607,True
7,0.8666676,-1.247971,-0.2104004,-0.2712249,-1.454892,-4.499895,-2.304789,0.2389948,1.265468,0.3905394,-1.404701,-0.07051498,10.71618,8.635095,-0.06177521,-0.435774,0.9854935,-0.5190639,-3.247007,-0.6649146,0.3158655,1.43565,0.3351679,-0.4180581,-0.07594666,-0.6179545,-0.9648079,0.5114582,-0.1339376,0.4829392,1.498531,0.2052138,-0.02076684,1.33305,0.2276184,281.2919,84.5572,155.7097,True
7,0.8777788,-1.243772,-0.1998228,-0.2861763,-1.450835,-4.501143,-2.290959,0.2375459,1.268221,0.3901439,-1.405139,-0.03947151,10.74271,8.506535,-0.05316377,-0.4751655,0.9832686,-0.5064832,-3.243959,-0.6673155,0.3165396,1.437055,0.3347123,-0.4180935,-0.08015476,-0.6222233,-0.9716282,0.5091066,-0.1280701,0.4838801,1.498389,0.2047973,-0.02108029,1.339803,0.2270202,282.2111,84.85207,155.3216,True
7,0.8888899,-1.232168,-0.1742617,-0.3043695,-1.447318,-4.503436,-2.277286,0.236033,1.271018,0.3899353,-1.405032,0.01007942,10.76923,8.635095,-0.04358125,-0.4879181,0.9768112,-0.4944345,-3.239328,-0.6711597,0.3174071,1.438482,0.3341956,-0.417015,-0.08015717,-0.6190286,-0.9781806,0.5070669,-0.1222868,0.4848734,1.498252,0.2044351,-0.02124185,1.346596,0.2265062,283.187,85.04154,155.0608,True
7,0.900001,-1.226899,-0.164739,-0.3139584,-1.443603,-4.505106,-2.263479,0.2346669,1.273804,0.3894999,-1.405007,0.002213027,10.79576,9.042211,-0.01821065,-0.4814294,0.9531981,-0.4835459,-3.234527,-0.6760147,0.3180296,1.439818,0.3337543,-0.4115772,-0.0865607,-0.6020253,-0.9841147,0.5047651,-0.1166129,0.4857981,1.498039,0.2040548,-0.02127815,1.353338,0.2260744,284.1646,85.27158,154.8003,True
7,0.9111122,-1.212056,-0.146595,-0.3204205,-1.440404,-4.507441,-2.250213,0.2331796,1.27655,0.389327,-1.405283,-0.02528841,10.87533,9.706447,-0.002319932,-0.4867072,0.938175,-0.4721454,-3.230095,-0.6804885,0.3187304,1.441068,0.3331697,-0.3933502,-0.09938005,-0.580839,-0.9895742,0.5021698,-0.1113097,0.4866394,1.497875,0.203675,-0.02124868,1.359969,0.2256931,285.1276,85.62095,154.428,True
7,0.9222233,-1.196143,-0.1295841,-0.3289829,-1.437086,-4.509605,-2.237122,0.2317634,1.279262,0.3889499,-1.405093,0.01760673,10.95491,10.52068,0.0008512139,-0.4941593,0.9328222,-0.4603578,-3.225629,-0.6845496,0.3193973,1.442269,0.332664,-0.3730226,-0.1004818,-0.5692584,-0.9953793,0.499986,-0.1066788,0.4875183,1.497679,0.203294,-0.02125729,1.366484,0.2253946,286.0444,85.9556,154.0549,True
7,0.9333345,-1.183421,-0.1146433,-0.3354335,-1.434007,-4.512263,-2.223939,0.230343,1.281893,0.3888144,-1.405662,-0.05223203,11.08753,11.69916,-0.006933987,-0.4494161,0.9041618,-0.4509403,-3.218552,-0.6905478,0.3200057,1.443439,0.3320458,-0.3611735,-0.08878524,-0.5501444,-1.000668,0.4986521,-0.1022718,0.4883983,1.497519,0.2029154,-0.02130209,1.372862,0.2251515,286.8929,86.21925,153.7979,True
7,0.9444456,-1.162227,-0.08798434,-0.3440478,-1.431319,-4.515373,-2.211117,0.229136,1.284395,0.3885124,-1.405821,-0.01414214,11.19363,12.9205,-0.01237535,-0.4185451,0.8999709,-0.4408011,-3.210362,-0.6976275,0.3206754,1.444655,0.3316281,-0.3653172,-0.07065413,-0.5351889,-1.006124,0.4980007,-0.09756171,0.4893035,1.497329,0.2025943,-0.0214096,1.37909,0.2249834,287.7172,86.4543,153.5704,True
7,0.9555568,-1.128251,-0.055889,-0.3463801,-1.42892,-4.519068,-2.1988,0.2280875,1.286987,0.3881838,-1.405719,0.009366301,11.27321,14.05614,-0.02320439,-0.397256,0.8840879,-0.4312989,-3.202792,-0.7038801,0.3212404,1.445837,0.331095,-0.3630451,-0.06107371,-0.5170921,-1.011244,0.4969735,-0.09301969,0.4900838,1.497164,0.2022557,-0.02155787,1.385132,0.2248726,288.5102,86.67527,153.3904,True
7,0.9666679,-1.10278,-0.02917922,-0.3496849,-1.427002,-4.522699,-2.186766,0.2269442,1.289498,0.3879993,-1.406034,-0.02900584,11.29973,15.06321,-0.0008371472,-0.3897328,0.8860714,-0.4208109,-3.194631,-0.712023,0.3219606,1.446987,0.3305948,-0.3544048,-0.0664132,-0.4990401,-1.016134,0.4953292,-0.08849631,0.4911304,1.497016,0.2018926,-0.02170911,1.390967,0.2248543,289.2577,86.92923,153.1723,True
7,0.977779,-1.079469,0.007114157,-0.3519457,-1.425789,-4.526846,-2.174895,0.2259025,1.291937,0.3878031,-1.406533,-0.04544162,11.24668,15.79173,0.01834291,-0.3737069,0.8923317,-0.4106701,-3.184743,-0.7219188,0.3225189,1.448207,0.3300471,-0.3458669,-0.07601447,-0.4948411,-1.021407,0.4933961,-0.08389837,0.4918768,1.49685,0.2015905,-0.02180549,1.396594,0.2249477,289.9392,87.16559,153.0212,True
7,0.9888902,-1.036162,0.1094448,-0.3725329,-1.426589,-4.533406,-2.164139,0.2252226,1.294155,0.3873897,-1.406687,-0.01387435,11.14058,16.28455,0.004636586,-0.3801614,0.9094814,-0.3996739,-3.175359,-0.7301237,0.3231803,1.449446,0.3294296,-0.3533005,-0.09200011,-0.4873211,-1.026253,0.4910026,-0.07846498,0.4925196,1.496731,0.2013688,-0.02186087,1.402075,0.2251569,290.5767,87.42882,152.8615,True
7,1.000001,-1.00763,0.1776791,-0.3770292,-1.427259,-4.539078,-2.15325,0.2245014,1.296377,0.3869176,-1.406735,-0.004471087,11.00796,16.47739,-0.01865733,-0.3674705,0.9224411,-0.389392,-3.164122,-0.7398973,0.323756,1.45033,0.3291421,-0.3521632,-0.08454856,-0.4787968,-1.03104,0.4898069,-0.07407183,0.4931913,1.496593,0.2011344,-0.02192293,1.407467,0.2254955,291.209,87.61323,152.7653,True
7,1.011112,-0.9844317,0.2470007,-0.3783062,-1.429016,-4.545437,-2.142049,0.223815,1.298625,0.3867486,-1.40795,-0.1111982,10.90185,16.34883,-0.01893127,-0.3131279,0.9054391,-0.3812166,-3.150203,-0.752535,0.324399,1.451386,0.3286593,-0.3488841,-0.05794281,-0.4692093,-1.035864,0.4895768,-0.07002223,0.4939296,1.496375,0.2009528,-0.02199353,1.412801,0.226011,291.8247,87.71211,152.7769,True
7,1.022224,-0.972841,0.2843052,-0.3826926,-1.430024,-4.551255,-2.131035,0.2230966,1.300902,0.3863397,-1.407511,0.04092421,10.76923,15.83458,-0.01157683,-0.2907537,0.899003,-0.372508,-3.137456,-0.7646186,0.3248603,1.452763,0.3281097,-0.33929,-0.0441213,-0.4692612,-1.040865,0.489023,-0.06630152,0.4946565,1.49615,0.2007105,-0.02205284,1.418031,0.2268295,292.4583,87.71003,152.9663,True
7,1.033335,-0.9527623,0.3365997,-0.3722027,-1.432657,-4.557429,-2.120249,0.2225043,1.303154,0.3860643,-1.406916,0.0537107,10.74271,15.34176,0.02255785,-0.3109015,0.8976648,-0.362501,-3.126225,-0.7765597,0.3255217,1.453806,0.327673,-0.3040692,-0.02925931,-0.4631166,-1.045848,0.4888516,-0.06398564,0.4953353,1.495949,0.2005036,-0.02216585,1.423182,0.2279325,293.0541,87.61528,153.323,True
7,1.044446,-0.9561086,0.3780895,-0.3776139,-1.434935,-4.563786,-2.108751,0.2217722,1.305245,0.3855135,-1.406708,0.01838516,10.74271,14.91322,0.04602504,-0.381139,0.8750642,-0.3513125,-3.121545,-0.7823427,0.3261667,1.454668,0.3269448,-0.2913234,-0.03035068,-0.4674554,-1.051045,0.4879181,-0.06058878,0.4959777,1.495767,0.2001889,-0.02237373,1.428339,0.2293119,293.5939,87.48608,153.7735,True
7,1.055557,-0.9604386,0.4015294,-0.3702081,-1.437478,-4.569836,-2.097171,0.2210487,1.307504,0.3851783,-1.406734,-0.002657201,10.76923,14.52753,0.05865616,-0.3938771,0.8504585,-0.3418231,-3.113424,-0.7910388,0.3268546,1.455693,0.3265588,-0.2806752,-0.03356197,-0.4675318,-1.056152,0.4870041,-0.05743506,0.496657,1.495602,0.1999328,-0.02264089,1.433535,0.2308627,294.103,87.33218,154.3497,True
7,1.066668,-0.9733165,0.4441785,-0.3362079,-1.441549,-4.57518,-2.085296,0.2204006,1.309725,0.3846467,-1.405855,0.08032002,10.79576,14.1847,0.05445623,-0.38857,0.8590241,-0.332109,-3.100512,-0.8037004,0.3276028,1.456802,0.3260202,-0.2797599,-0.04954424,-0.4867184,-1.062034,0.4853005,-0.05366669,0.4972377,1.495412,0.1997404,-0.02289614,1.438774,0.2325415,294.6229,87.07618,155.0641,True
7,1.077779,-0.990422,0.4751153,-0.303227,-1.445948,-4.580483,-2.072899,0.219817,1.312114,0.3842752,-1.405491,0.03247071,10.79576,13.90615,0.05117679,-0.3992199,0.8441261,-0.322406,-3.090724,-0.813454,0.3284713,1.457885,0.3255732,-0.2990747,-0.06656855,-0.500419,-1.067876,0.4834506,-0.04865116,0.4978694,1.495134,0.1995101,-0.02314346,1.444082,0.2342318,295.1794,86.81497,155.818,True
7,1.08889,-1.038456,0.5165688,-0.2744883,-1.451247,-4.585834,-2.059065,0.21917,1.314738,0.3837295,-1.404996,0.04502303,10.79576,13.71331,0.01951754,-0.4142297,0.8731297,-0.3112884,-3.076463,-0.8263161,0.3295615,1.45892,0.3250256,-0.3118876,-0.07188034,-0.5045906,-1.07364,0.4819633,-0.04399888,0.4984536,1.495034,0.199338,-0.02331677,1.449492,0.2358733,295.7031,86.53167,156.5396,True
7,1.100002,-1.113122,0.5493677,-0.2691419,-1.456133,-4.59189,-2.043621,0.2186846,1.317213,0.3829401,-1.4044,0.05419115,10.76923,13.52046,0.02631754,-0.3982788,0.9327489,-0.3000834,-3.054351,-0.8478887,0.3305628,1.460047,0.3245275,-0.2649198,-0.04530986,-0.4963965,-1.078847,0.4821723,-0.04268781,0.4991574,1.494852,0.1990058,-0.02333196,1.45506,0.237416,296.1803,86.10432,157.3567,True
7,1.111113,-1.244248,0.6001757,-0.2200508,-1.463265,-4.596427,-2.024951,0.2177951,1.320121,0.3822556,-1.40298,0.1294384,10.76923,13.26334,0.08582848,-0.4302589,1.037708,-0.2856661,-3.027754,-0.8766969,0.3316401,1.461436,0.3242118,-0.2031053,-0.03261243,-0.4957618,-1.084185,0.4820675,-0.04255066,0.4999397,1.49458,0.198828,-0.02316112,1.460906,0.2388408,296.6551,85.69875,158.0939,True
7,1.122224,-1.288997,0.611786,-0.2040284,-1.468818,-4.601098,-2.009219,0.2170345,1.322893,0.3816159,-1.401524,0.1321995,10.79576,12.89908,0.08694154,-0.4718277,1.023811,-0.273611,-3.013394,-0.8916346,0.3325524,1.46267,0.3236144,-0.1935063,-0.04541013,-0.4915713,-1.089441,0.4807033,-0.04003477,0.5006001,1.494442,0.1985967,-0.02280757,1.467207,0.2401388,297.188,85.318,158.8083,True
7,1.133335,-1.331589,0.6052446,-0.2050066,-1.473742,-4.605874,-1.992726,0.2159788,1.325927,0.3809836,-1.398425,0.2826698,10.87533,12.44911,0.0562464,-0.4996239,1.04,-0.2611453,-2.993331,-0.9105539,0.333513,1.464065,0.323087,-0.209696,-0.0730765,-0.5148997,-1.095823,0.4784503,-0.03597425,0.5013855,1.494313,0.1984606,-0.0221825,1.474038,0.2413293,297.8295,84.9823,159.4495,True
7,1.144446,-1.354992,0.5998496,-0.2028272,-1.478645,-4.610567,-1.976916,0.215067,1.328982,0.3805172,-1.401633,-0.2951183,10.95491,11.87058,0.06405425,-0.5326642,1.072941,-0.247781,-2.968168,-0.9358931,0.3344568,1.465174,0.3224828,-0.2311947,-0.08476275,-0.5403119,-1.102599,0.4767171,-0.03187697,0.5020981,1.494194,0.1982057,-0.02130206,1.481715,0.2424355,298.5154,84.46542,160.192,True
7,1.155557,-1.405135,0.6177695,-0.210247,-1.484499,-4.615827,-1.959195,0.2140874,1.332104,0.3798978,-1.401771,-0.009521635,11.03448,11.18491,0.09426224,-0.5826787,1.104628,-0.2334468,-2.942579,-0.9628118,0.3353146,1.466478,0.3218679,-0.2570884,-0.09005047,-0.5827296,-1.110358,0.4751961,-0.02736584,0.503001,1.494102,0.1981075,-0.01985508,1.489863,0.2435398,299.5608,84.04713,160.8451,True
7,1.166668,-1.434978,0.6209456,-0.2176467,-1.490464,-4.621336,-1.941562,0.2134635,1.335124,0.3801024,-1.402769,-0.09113955,11.08753,10.37069,0.09854805,-0.577345,1.109938,-0.2213966,-2.911818,-0.9939993,0.3363181,1.467616,0.3211377,-0.272056,-0.08043823,-0.5911347,-1.116954,0.4744741,-0.02362437,0.5037253,1.49389,0.197855,-0.01797763,1.498297,0.2446548,300.8524,83.73573,161.3353,True
7,1.17778,-1.470182,0.6389539,-0.2091084,-1.496964,-4.62595,-1.923663,0.2124911,1.338304,0.3794701,-1.401356,0.1301792,11.14058,9.449324,0.06857848,-0.5550465,1.099532,-0.2105852,-2.878547,-1.026214,0.3370336,1.468958,0.3204474,-0.3009509,-0.05589134,-0.6143609,-1.124536,0.4745601,-0.01939633,0.5044373,1.493706,0.1976795,-0.01577381,1.50676,0.2458563,302.2603,83.44669,161.7424,True
7,1.188891,-1.492637,0.662306,-0.2165785,-1.503829,-4.631192,-1.906199,0.2116593,1.341568,0.3789811,-1.401659,-0.02855519,11.08753,8.677952,0.04501486,-0.565761,1.079464,-0.1991192,-2.847198,-1.056587,0.337863,1.470199,0.3197205,-0.3297818,-0.05159707,-0.6248008,-1.131674,0.4738758,-0.01452009,0.5052242,1.493585,0.197463,-0.01344547,1.515204,0.2472379,303.586,83.21839,162.0337,True
7,1.200002,-1.499002,0.6463097,-0.2324725,-1.509296,-4.636349,-1.888989,0.2108613,1.344969,0.3792086,-1.401764,-0.008959848,11.00796,8.056565,0.04395616,-0.5710896,1.078402,-0.1877406,-2.808948,-1.094595,0.3385412,1.471587,0.3189464,-0.3683069,-0.04621171,-0.6500919,-1.139769,0.4734319,-0.008826248,0.5058508,1.493374,0.1973479,-0.01100294,1.523516,0.248985,304.8181,83.02473,162.3162,True
7,1.211113,-1.486162,0.6303788,-0.2335254,-1.514601,-4.64078,-1.872693,0.2099757,1.348197,0.3786817,-1.4026,-0.07601193,10.90185,7.6066,0.03678298,-0.5413125,1.126438,-0.1770166,-2.748839,-1.15383,0.3394033,1.473042,0.318248,-0.373878,-0.01318572,-0.6894445,-1.148586,0.4743575,-0.004985438,0.5064931,1.493161,0.1973226,-0.008685463,1.531887,0.2509943,306.0082,82.6836,162.9775,True
7,1.222224,-1.474517,0.6410103,-0.2676714,-1.520658,-4.647028,-1.856355,0.2091764,1.351492,0.3781135,-1.403214,-0.05541721,10.76923,7.328047,0.03350186,-0.5104289,1.12649,-0.16794,-2.690806,-1.211271,0.3401371,1.474203,0.3173134,-0.3567248,0.0538975,-0.6895671,-1.156383,0.4773924,-0.00292495,0.5071938,1.492924,0.1972375,-0.006455923,1.540199,0.2532275,307.1493,82.443,163.6073,True
7,1.233335,-1.471438,0.6569039,-0.3103371,-1.526879,-4.654113,-1.839507,0.2085299,1.354591,0.3775733,-1.404322,-0.1007153,10.66313,7.220912,0.01308513,-0.4540182,1.121373,-0.1607718,-2.625802,-1.274891,0.3409702,1.475456,0.3163924,-0.3351686,0.1124626,-0.6662689,-1.162995,0.4809565,-0.001364604,0.5077752,1.492686,0.1970997,-0.004256624,1.54831,0.2556645,308.2622,82.30224,164.1613,True
7,1.244446,-1.453194,0.6346953,-0.34145,-1.53142,-4.661556,-1.823537,0.2081502,1.358331,0.3782785,-1.404585,-0.02315653,10.61008,7.328047,0.007817149,-0.3901368,1.151304,-0.1550764,-2.543807,-1.355749,0.3416725,1.476832,0.315449,-0.3296949,0.1295102,-0.6524625,-1.169803,0.4830658,0.001163801,0.5082877,1.492444,0.1968956,-0.002114236,1.556136,0.2581185,309.3928,82.10651,164.9036,True
7,1.255558,-1.398826,0.5803035,-0.3582966,-1.534874,-4.666955,-1.809608,0.2074451,1.361474,0.3778822,-1.404165,0.03854773,10.55703,7.628025,0.0216651,-0.3719944,1.157606,-0.1493149,-2.461993,-1.43727,0.3423307,1.478039,0.3145511,-0.3456581,0.1273892,-0.6470134,-1.176823,0.4844583,0.005135107,0.508914,1.492167,0.196744,-9.434693E-05,1.563677,0.2605102,310.4605,82.04364,165.5229,True
7,1.266669,-1.348568,0.5475767,-0.3583941,-1.538657,-4.67205,-1.796125,0.2068061,1.364511,0.3774447,-1.405034,-0.07973119,10.50398,8.099419,0.0249095,-0.3794492,1.142671,-0.1434347,-2.379716,-1.519609,0.3430388,1.479423,0.313921,-0.3562482,0.110356,-0.6352244,-1.183582,0.485162,0.009235577,0.5095003,1.491908,0.1965535,0.001849403,1.570939,0.2628968,311.3339,82.1982,165.7758,True
7,1.27778,-1.266543,0.5991629,-0.3407968,-1.545772,-4.678122,-1.784842,0.2064377,1.367011,0.377007,-1.40703,-0.1818675,10.45093,8.592241,0.03551495,-0.436923,1.115907,-0.1364455,-2.297125,-1.602212,0.3436423,1.480534,0.3130372,-0.3753598,0.09973846,-0.6255084,-1.190353,0.4860508,0.01367986,0.510272,1.491626,0.1963506,0.00379134,1.578031,0.2654197,312.0948,82.4744,165.8406,True
7,1.288891,-1.266896,0.7249597,-0.3016833,-1.557359,-4.682838,-1.770627,0.2061334,1.369337,0.3765886,-1.407461,-0.03805145,10.37135,8.956501,0.03319943,-0.4848459,1.070079,-0.1301045,-2.213477,-1.685615,0.3442765,1.481529,0.3119454,-0.402104,0.1093698,-0.6423582,-1.198117,0.4879188,0.01836037,0.510972,1.491409,0.1962368,0.005815448,1.584717,0.2678881,313.0186,82.50732,166.3713,True
7,1.300002,-1.291488,0.7611434,-0.2836289,-1.566404,-4.687216,-1.755186,0.2057515,1.371758,0.3761334,-1.409336,-0.1715303,10.3183,9.213628,0.04850477,-0.4325405,1.002894,-0.12857,-2.139263,-1.76022,0.3449735,1.482332,0.3108809,-0.4352223,0.1317897,-0.6602356,-1.206183,0.4904678,0.02338895,0.5115401,1.491126,0.1960087,0.007874827,1.590903,0.270111,313.9547,82.44207,166.9997,True
7,1.311113,-1.306378,0.7429233,-0.3059388,4.709772,-4.692656,-1.740005,0.2054819,1.374045,0.3756566,-1.406154,0.2921981,10.3183,9.427898,0.0509519,-0.3493813,0.9358302,-0.1292421,-2.074877,-1.824697,0.3455828,1.483209,0.3099604,-0.4510171,0.1328763,-0.6334771,-1.212138,0.492297,0.02825188,0.512069,1.490902,0.1958399,0.009905041,1.596488,0.2722073,314.8121,82.34836,167.4082,True
7,1.322224,-1.286008,0.7110453,-0.3069322,4.703771,-4.697033,-1.726677,0.2049987,1.376154,0.3752215,-1.404315,0.1654868,10.39788,9.599312,0.04208791,-0.3110154,0.9071771,-0.1297886,-2.000906,-1.898093,0.3462391,1.484208,0.3090398,-0.4462135,0.1488375,-0.5610663,-1.215745,0.4947914,0.03216459,0.5124663,1.490682,0.1956358,0.01175044,1.601926,0.2744222,315.4207,82.0811,167.8527,True
7,1.333336,-1.286346,0.8058044,-0.3369639,4.692587,-4.703594,-1.712458,0.2050059,1.378385,0.3746405,-1.404387,-0.007871783,10.5305,9.685022,0.02316791,-0.2887377,0.948891,-0.131819,-1.906449,-1.991247,0.3469633,1.485066,0.3082807,-0.40222,0.1498312,-0.5166333,-1.219893,0.4967179,0.03443547,0.5129917,1.490381,0.1954372,0.01353707,1.60745,0.2767669,315.937,81.92949,168.399,True
7,1.344447,-1.243796,0.8422446,-0.3051421,4.682195,-4.707295,-1.700282,0.2049137,1.380526,0.3739643,-1.406251,-0.1703203,10.6366,9.513605,0.0542441,-0.3270024,0.9582161,-0.1323575,-1.814669,-2.083958,0.3479604,1.485987,0.307497,-0.3520652,0.1412314,-0.5042166,-1.225235,0.4981857,0.03617798,0.5136625,1.490141,0.1951969,0.0155249,1.612949,0.2791492,316.5422,81.98173,168.9189,True
7,1.355558,-1.209981,0.9468528,-0.2628344,4.668363,-4.710564,-1.68837,0.2050518,1.382299,0.3731303,-1.405435,0.07604999,10.68966,9.406469,0.1161839,-0.4067211,0.9491478,-0.1317732,-1.721311,-2.17985,0.3489936,1.486677,0.3068221,-0.3095485,0.1070825,-0.5109184,-1.231054,0.4984427,0.03812874,0.5143244,1.489897,0.1948719,0.01779356,1.618322,0.2815044,317.2904,82.02076,169.37,True
7,1.366669,-1.169733,1.054715,-0.2090004,4.654025,1.569666,-1.676992,0.2054711,1.384465,0.3722355,-1.407225,-0.1644528,10.71618,9.577887,0.1822529,-0.4736357,0.9283446,-0.1319128,-1.629974,-2.274495,0.3499689,1.487212,0.3061078,-0.266212,0.06441125,-0.550655,-1.238391,0.4980851,0.03994262,0.5149618,1.489638,0.1945229,0.02029622,1.623804,0.2840492,317.9964,81.95116,169.7994,True
7,1.37778,-1.090798,1.076471,-0.168896,4.64219,1.566512,-1.66792,0.2054771,1.386209,0.371563,-1.407457,-0.01969258,10.71618,10.13499,0.1970197,-0.5119187,0.8962421,-0.1329413,-1.545867,-2.360429,0.3507717,1.487888,0.3054771,-0.2558065,0.02711237,-0.578431,-1.245619,0.4974634,0.04263668,0.5155734,1.489377,0.1942029,0.02311252,1.62921,0.2868412,318.8041,81.6679,170.4574,True
7,1.388891,-1.007721,1.08957,-0.14558,4.629947,1.564466,-1.659755,0.2053706,1.387381,0.3706074,-1.40766,-0.01872635,10.61008,10.79923,0.167447,-0.5545212,0.7760416,-0.1311032,-1.481215,-2.425367,0.3514315,1.488445,0.3048515,-0.2869275,-0.0346129,-0.5952533,-1.25268,0.4954318,0.0476578,0.5162127,1.489016,0.1938748,0.02619819,1.634486,0.2899284,319.6445,81.21852,171.3285,True
7,1.400002,-0.9757273,1.120698,-0.1202691,4.616933,1.561882,-1.650385,0.2052833,1.388731,0.3700516,-1.409547,-0.1728319,10.4244,11.20634,0.1254137,-0.578015,0.7049705,-0.1307122,-1.412694,-2.493268,0.3520146,1.489003,0.3042436,-0.3136092,-0.0526882,-0.5993297,-1.25945,0.494553,0.0522941,0.5168233,1.488709,0.1935894,0.029447,1.6397,0.2932834,320.5532,80.82372,172.2848,True
7,1.411114,-0.9619823,1.173084,-0.05968422,4.602074,1.56206,-1.640259,0.2053753,1.389333,0.3689709,-1.410184,-0.0572077,10.13263,11.27062,0.1078839,-0.525825,0.6636008,-0.1333684,-1.361199,-2.544875,0.3528802,1.489556,0.3036263,-0.3508762,-0.04091316,-0.5979916,-1.265974,0.4950473,0.05728779,0.5174167,1.488495,0.1934988,0.03273819,1.644392,0.296743,321.7114,80.57159,173.1991,True
7,1.422225,-0.9609231,1.184853,-0.03514642,4.588567,1.561789,-1.629816,0.205262,1.389921,0.3681982,-1.408395,0.1635734,9.814323,11.07778,0.09734565,-0.4597213,0.5646702,-0.1343543,-1.331425,-2.575152,0.353493,1.489638,0.3029671,-0.3505895,0.02938303,-0.5713423,-1.271185,0.4981672,0.06011873,0.5180732,1.488223,0.1932681,0.03579647,1.648345,0.3001463,322.9069,80.27732,174.0943,True
7,1.433336,-0.926803,1.185033,-0.003220886,4.575446,1.562082,-1.62066,0.2053944,1.3906,0.3671856,-1.407229,0.1048162,9.549072,10.67066,0.05590707,-0.3628137,0.4745244,-0.1357632,-1.31799,-2.587712,0.3542701,1.489962,0.3024383,-0.3213719,0.09324771,-0.5214716,-1.275094,0.5016515,0.06164259,0.5185174,1.487977,0.1931031,0.03837305,1.6518,0.3035051,323.8078,79.90435,174.9483,True
7,1.444447,-0.8668372,1.172703,0.01338923,4.561925,1.562514,-1.611449,0.2061516,1.390883,0.3659098,-1.406474,0.06819762,9.496022,10.32783,0.03148395,-0.3533137,0.4917678,-0.1392546,-1.269332,-2.635359,0.3550532,1.49025,0.3019903,-0.2485734,0.1044411,-0.4752116,-1.27933,0.5036624,0.06276432,0.5190063,1.487705,0.1928275,0.04059709,1.654694,0.3067764,324.43,79.34629,175.9739,True
7,1.455558,-0.8255438,1.148085,0.01715235,4.550099,1.562622,-1.60423,0.2064525,1.391469,0.365046,-1.407506,-0.09511349,9.628648,10.34926,0.0677017,-0.3617338,0.4882869,-0.1420988,-1.224147,-2.681957,0.3559836,1.490454,0.3015764,-0.1685866,0.08025509,-0.4565136,-1.283342,0.5039291,0.06083805,0.5194834,1.487412,0.1926024,0.04253319,1.657293,0.3098965,324.8609,78.82703,177.0051,True
7,1.466669,-0.7484494,1.059929,0.009720817,4.541516,1.561596,-1.599128,0.2066945,1.392933,0.3641989,-1.407328,0.01698148,9.867373,10.75637,0.1537878,-0.418979,0.4417665,-0.1424994,-1.171946,-2.738144,0.356766,1.490681,0.3012142,-0.1311524,0.05358586,-0.4344201,-1.287679,0.5039751,0.06094378,0.5200542,1.487089,0.1923795,0.04441021,1.659627,0.3127617,325.157,78.30791,178.0492,True
7,1.47778,-0.6456549,0.8929585,-0.0112819,4.536686,1.560691,-1.595424,0.2066694,1.393639,0.3635936,-1.408896,-0.1438536,10.18567,11.78487,0.1907465,-0.4476003,0.3892629,-0.142845,-1.125693,-2.787234,0.3575519,1.490958,0.3007953,-0.1407632,0.0418703,-0.4354194,-1.292642,0.5043569,0.06289507,0.5205655,1.486805,0.1921074,0.04647087,1.661687,0.3153208,325.4105,77.83417,178.9903,True
7,1.488891,-0.5930506,0.7546002,-0.02272554,4.532891,1.559977,-1.590678,0.2071022,1.394038,0.3632293,-1.410522,-0.1477335,10.6366,13.22048,0.1999047,-0.4326104,0.3391322,-0.1433846,-1.093151,-2.821803,0.3582043,1.491005,0.3004675,-0.1941229,0.04195943,-0.4478184,-1.298107,0.5054168,0.06672177,0.5211328,1.48653,0.1918168,0.04859311,1.663879,0.3176022,325.8407,77.54109,179.7053,True
7,1.500003,-0.569261,0.6407129,-0.007560372,4.529131,1.560429,-1.584813,0.2076633,1.394341,0.3629084,-1.411434,-0.08284103,11.06101,14.80608,0.1620807,-0.3570407,0.295808,-0.1448999,-1.079027,-2.836268,0.3587517,1.490938,0.3000293,-0.2354655,0.04520914,-0.4198233,-1.301846,0.506316,0.07049201,0.5215825,1.486275,0.1915116,0.05060123,1.666277,0.3194982,326.4616,77.48761,180.2122,True
7,1.511114,-0.543398,0.5459679,-0.01157915,4.525908,1.56047,-1.57977,0.2079442,1.39462,0.3623312,-1.409791,0.1502934,11.43236,16.43454,0.1392964,-0.2782422,0.2715439,-0.1467769,-1.072453,-2.843407,0.3593582,1.490926,0.299726,-0.2223153,0.04731615,-0.369855,-1.30438,0.5071706,0.07219244,0.5220865,1.486001,0.1911781,0.05245971,1.668156,0.3207811,327.1572,77.56709,180.4594,True
7,1.522225,-0.498304,0.4545483,-0.01042566,4.523938,1.559609,-1.576331,0.2087271,1.395313,0.3619761,-1.408091,0.1536941,11.69761,17.913,0.1336548,-0.161089,0.2727614,-0.1505357,-1.077658,-2.839601,0.3600435,1.490703,0.2996006,-0.187901,0.03766637,-0.3232315,-1.306462,0.5073864,0.07299831,0.5225087,1.485779,0.1908925,0.05412954,1.669387,0.3214418,327.5746,77.59159,180.5194,True
7,1.533336,-0.3795469,0.2716045,-0.03460941,4.527469,1.558428,-1.576581,0.2091505,1.395829,0.3619258,-1.408224,-0.01367221,11.72414,18.57724,0.1356355,-0.1269875,0.2653179,-0.1529682,-1.070838,-2.847866,0.3607632,1.490552,0.2994075,-0.1223709,0.006679431,-0.2406152,-1.306482,0.5065305,0.07231308,0.5230302,1.485499,0.1905584,0.0556216,1.670271,0.3216213,327.7336,77.52813,180.5377,True
7,1.544447,-0.2971178,0.1343966,-0.04925619,4.52962,1.557553,-1.576092,0.2095192,1.396015,0.3619027,-1.409262,-0.09498782,11.72414,18.87722,0.1332449,-0.1301712,0.2312473,-0.1537688,-1.056418,-2.863453,0.3616109,1.49045,0.2992454,-0.08486254,-0.01575773,-0.2057329,-1.307685,0.5055434,0.07218578,0.5234653,1.48526,0.190274,0.05694102,1.671123,0.3214501,327.7776,77.50591,180.5228,True
7,1.555558,-0.2425679,0.05892078,-0.04806677,4.531443,1.55705,-1.575272,0.2100407,1.396605,0.36181,-1.412411,-0.2874917,11.69761,18.72723,0.159851,-0.2323406,0.1915463,-0.1529794,-1.015867,-2.906206,0.3627041,1.490448,0.2992432,-0.0655975,-0.04987351,-0.1867029,-1.309423,0.5039557,0.07274025,0.5239555,1.484995,0.190114,0.05815601,1.672045,0.3210168,327.7769,77.64351,180.3913,True
7,1.566669,-0.1933973,0.00475166,-0.03944692,4.532788,1.557191,-1.574658,0.2106976,1.396917,0.3618023,-1.41129,0.104244,11.53846,18.19156,0.1970358,-0.3355253,0.1400401,-0.1517416,-0.9712865,-2.953753,0.363631,1.490551,0.2990663,-0.08072147,-0.09245676,-0.2079107,-1.312665,0.5018192,0.07476692,0.5244459,1.484805,0.189887,0.05921594,1.672618,0.3201936,327.9743,77.9762,180.0492,True
7,1.577781,-0.1602132,-0.05162078,-0.04254337,4.535498,1.556635,-1.574246,0.2112761,1.397298,0.3617518,-1.410086,0.1083241,11.32626,17.80587,0.2171535,-0.3503658,0.118567,-0.151561,-0.9416572,-2.986186,0.3643796,1.490679,0.2988358,-0.09695376,-0.09243022,-0.244018,-1.316656,0.500997,0.07651102,0.5248929,1.484585,0.1897309,0.05993599,1.672892,0.3190976,328.12,78.21288,179.6088,True
7,1.588892,-0.1484236,-0.07928328,-0.05424115,4.537027,1.554933,-1.573046,0.2123531,1.397448,0.3617785,-1.409632,0.04026312,11.16711,17.69873,0.2141533,-0.2939482,0.1655082,-0.1548442,-0.9312195,-2.998592,0.3647414,1.490697,0.2985284,-0.1185707,-0.06897008,-0.2896528,-1.321266,0.5013208,0.07874834,0.5253404,1.484285,0.1893497,0.06026779,1.673156,0.317924,328.0213,78.31472,179.2175,True
7,1.600003,-0.1526446,-0.07283241,-0.03832358,4.53751,1.554182,-1.571736,0.2126037,1.397878,0.3617578,-1.409098,0.04815692,11.06101,17.67731,0.1778614,-0.1758325,0.1989186,-0.1587319,-0.9398466,-2.990742,0.3652548,1.490529,0.2982674,-0.1402094,0.01309673,-0.3534015,-1.327257,0.5048565,0.08017606,0.5257004,1.484159,0.1892512,0.06036795,1.673327,0.3168013,327.7623,78.3677,178.9108,True
7,1.611114,-0.1781877,-0.06962352,-0.004217228,4.538177,1.555333,-1.568676,0.2128604,1.39813,0.3616102,-1.407576,0.138427,11.03448,17.63445,0.1252828,-0.09713438,0.1770109,-0.1599745,-0.9473847,-2.983008,0.3656414,1.490398,0.2980378,-0.1294249,0.03864208,-0.3374872,-1.330173,0.5064114,0.08092494,0.5260244,1.483954,0.1894252,0.06037457,1.673394,0.315777,327.4259,78.48808,178.6388,True
7,1.622225,-0.2016097,-0.06750221,0.01710602,4.53884,1.556193,-1.565469,0.2128978,1.398644,0.3613977,-1.407113,0.04095875,11.00796,17.44161,0.06420137,-0.07277696,0.140208,-0.1599974,-0.9456145,-2.983282,0.3660015,1.49053,0.297864,-0.08869837,0.0225969,-0.3004934,-1.332145,0.5061824,0.08052041,0.5262576,1.483805,0.1893718,0.06045409,1.67345,0.3150114,327.0725,78.66775,178.3283,True
7,1.633336,-0.2037189,-0.05679651,0.02768673,4.539094,1.556083,-1.563719,0.2132693,1.399252,0.3613703,-1.405434,0.153072,10.92838,16.73452,0.02796406,-0.0600968,0.1426242,-0.1615964,-0.9414836,-2.986447,0.366472,1.490498,0.2977698,-0.05977547,0.001244742,-0.2719404,-1.334212,0.5054857,0.08048552,0.5265608,1.483689,0.1893179,0.06059577,1.673771,0.3146482,326.9341,78.72419,178.1665,True
7,1.644447,-0.184601,-0.03221428,0.0372124,4.538376,1.556952,-1.562298,0.2129973,1.399353,0.3611782,-1.404956,0.04232054,10.8488,15.83458,0.04618032,-0.07922944,0.1499282,-0.16337,-0.9300259,-2.998922,0.3669947,1.4906,0.2976277,-0.01865456,-0.003058667,-0.1848802,-1.333192,0.5056561,0.0789558,0.5267135,1.483723,0.189363,0.0609141,1.67433,0.3145893,326.9274,78.58707,178.3065,True
7,1.655559,-0.1740459,-0.0002585321,0.02434001,4.537261,1.556769,-1.560782,0.2131503,1.399819,0.3608525,-1.406162,-0.1104892,10.74271,16.09171,0.0752202,-0.1388269,0.1656354,-0.1652491,-0.9049568,-3.025715,0.3672786,1.490678,0.2975919,-0.01484002,0.02355189,-0.1039372,-1.331257,0.5067604,0.0786996,0.5268617,1.483643,0.1892128,0.0614543,1.675215,0.3146888,326.9856,78.48719,178.5257,True
7,1.66667,-0.1698757,0.02849886,0.01363103,4.535778,1.556676,-1.559022,0.213151,1.400235,0.3608553,-1.406678,-0.04629078,10.58355,17.89158,0.06670354,-0.1409789,0.1656926,-0.1668252,-0.8947888,-3.036102,0.3677108,1.490718,0.2974906,-0.03693757,0.0299726,-0.06755891,-1.330989,0.5074156,0.07973851,0.5270839,1.483604,0.1890059,0.06227622,1.676175,0.314866,327.1712,78.53466,178.5915,True
7,1.677781,-0.179538,0.05404422,0.01891401,4.534392,1.557273,-1.556497,0.2133147,1.400578,0.3606734,-1.406267,0.0378461,10.34483,21.14849,0.0528651,-0.1452762,0.1657947,-0.1684556,-0.8837357,-3.047035,0.3680574,1.490741,0.2973714,-0.07002679,0.003384009,-0.07159239,-1.332062,0.5065249,0.08183335,0.5273192,1.483451,0.1888976,0.06325039,1.676969,0.3150816,327.5544,78.54494,178.6317,True
7,1.688892,-0.1922919,0.0583274,0.03376512,4.533863,1.55735,-1.554185,0.2138259,1.401323,0.3605316,-1.405831,0.03933261,10.02653,26.01243,0.05060209,-0.1431373,0.1498204,-0.1692828,-0.8741134,-3.057039,0.3682525,1.490644,0.2972195,-0.09680264,-0.02959745,-0.08418705,-1.333517,0.5051931,0.08414897,0.5274999,1.483258,0.1887445,0.06420354,1.677749,0.3153468,327.8856,78.56673,178.6591,True
7,1.700003,-0.2168575,0.08386155,0.04864386,4.532093,1.558566,-1.550572,0.2139795,1.40167,0.3603137,-1.40505,0.0710846,9.734747,31.28348,0.008679196,-0.0952851,0.1182295,-0.1696647,-0.8768218,-3.053052,0.3685267,1.490738,0.2970827,-0.1085358,-0.03171445,-0.08623554,-1.334591,0.5047986,0.08577323,0.5276264,1.483137,0.1886938,0.06505051,1.678528,0.3157091,328.1305,78.57657,178.6671,True
7,1.711114,-0.2094586,0.114836,0.07306032,4.529776,1.560242,-1.548279,0.2139977,1.402002,0.3601592,-1.405057,-0.00126671,9.363397,36.27598,-0.007300973,-0.07509319,0.1258239,-0.171261,-0.8752125,-3.053962,0.3689168,1.490898,0.2970476,-0.1022459,-0.005084563,-0.1054461,-1.336289,0.5059643,0.08641984,0.5277131,1.483016,0.1887658,0.06583232,1.679325,0.316124,328.23,78.48766,178.8246,True
7,1.722225,-0.1754065,0.1341452,0.09324341,4.527696,1.562276,-1.547122,0.2139979,1.402377,0.3599486,-1.403749,0.1193546,8.938992,40.88279,0.001311168,-0.06443381,0.141752,-0.1735236,-0.8717805,-3.057676,0.3693211,1.491025,0.2969723,-0.07232232,0.03215038,-0.10033,-1.337159,0.5076723,0.08575192,0.5278994,1.482946,0.1888118,0.06661571,1.680222,0.316509,328.2643,78.42055,179.0174,True
7,1.733337,-0.151988,0.1384513,0.08575546,4.526039,1.563048,-1.546099,0.2142034,1.402838,0.3597634,-1.40459,-0.078403,8.408487,44.6111,0.02473573,-0.1367822,0.1138106,-0.1733372,-0.8473465,-3.083082,0.3698438,1.491256,0.296838,-0.03093456,0.04701139,-0.124054,-1.339139,0.5089533,0.08443339,0.52816,1.483007,0.1887836,0.06745934,1.681133,0.3168362,328.3806,78.3024,179.1725,True
7,1.744448,-0.1530683,0.1394682,0.0676626,4.524403,1.563416,-1.544245,0.2143908,1.403175,0.3596752,-1.40509,-0.04583191,8.037136,46.32526,0.03026153,-0.1634184,0.1307938,-0.1752946,-0.8304503,-3.100212,0.3703161,1.491494,0.2967296,-0.01295819,0.03526295,-0.1412347,-1.341386,0.5089574,0.08389277,0.528406,1.482911,0.1887665,0.06832309,1.681992,0.3171101,328.6267,78.15293,179.2912,True
7,1.755559,-0.1658495,0.1254878,0.02829232,4.52342,1.562353,-1.542147,0.2146111,1.403392,0.3596766,-1.403837,0.1137411,7.851457,46.58239,0.05489916,-0.2155487,0.1294919,-0.176779,-0.8066824,-3.125031,0.3705448,1.491676,0.2965779,-0.01848884,0.01503824,-0.1657003,-1.344096,0.5085164,0.08458306,0.528604,1.482781,0.1886759,0.06907313,1.682724,0.3172966,328.917,78.01812,179.4044,True
7,1.76667,-0.1923758,0.08802706,-0.01852721,4.523927,1.559744,-1.540061,0.2151782,1.403839,0.3596766,-1.401345,0.2255573,7.851457,45.61817,0.05802895,-0.1889104,0.1305605,-0.1782747,-0.7998464,-3.132464,0.3707123,1.49188,0.2964003,-0.04201934,0.01294397,-0.1783161,-1.346525,0.5087858,0.08585925,0.5288475,1.48269,0.1886001,0.06958297,1.683326,0.3173986,329.1075,77.98438,179.4355,True
7,1.777781,-0.2104222,0.06239886,-0.02377549,4.524149,1.559281,-1.537177,0.2153367,1.403986,0.3597732,-1.398898,0.2203841,8.01061,43.86115,0.04186499,-0.08562817,0.1435486,-0.1801549,-0.8154359,-3.116931,0.3706345,1.491863,0.2963498,-0.1027335,0.01303165,-0.1768139,-1.348309,0.5092332,0.08922468,0.5290059,1.482509,0.1884305,0.0698135,1.683797,0.3174837,329.1662,78.01701,179.3802,True
7,1.788892,-0.2284562,0.02514298,-0.0034045,4.524678,1.56021,-1.533344,0.2156557,1.403259,0.3599677,-1.396508,0.2150519,8.249334,42.51125,0.03833836,-0.02915504,0.1212475,-0.1806364,-0.8245488,-3.108149,0.3706272,1.491901,0.2964089,-0.1186765,0.00772047,-0.1713762,-1.350025,0.5092121,0.09103271,0.5291293,1.482438,0.1883037,0.0697981,1.684147,0.3176197,329.0798,78.12611,179.3043,True
7,1.800003,-0.2006681,-0.01102994,-0.007589208,4.526164,1.560184,-1.532103,0.2152851,1.403966,0.3601694,-1.393691,0.2538435,8.541114,41.91129,0.02363666,0.02735148,0.02979499,-0.1778949,-0.8380933,-3.094445,0.3707212,1.491801,0.296448,-0.1164363,-0.02210943,-0.1490211,-1.350914,0.5080392,0.09242874,0.5292171,1.482376,0.1883237,0.06962969,1.684426,0.3178232,328.8906,78.28602,179.2397,True
7,1.811115,-0.1173991,-0.08759661,-0.04154541,4.529599,1.558564,-1.534164,0.2153909,1.404272,0.360255,-1.390272,0.3084614,9.071617,42.01843,0.04796002,-0.01303025,-0.008779468,-0.1764856,-0.8292194,-3.104583,0.3709971,1.491955,0.2963533,-0.1022058,-0.04664239,-0.09159977,-1.350016,0.5065245,0.0932591,0.5291828,1.48238,0.1882899,0.069456,1.684418,0.3180555,328.755,78.2789,179.2524,True
7,1.822226,-0.06514627,-0.1312899,-0.1032513,4.532198,1.555554,-1.535569,0.2155856,1.404815,0.3603568,-1.389459,0.06921227,9.814323,42.74695,0.05243104,-0.04926046,0.006076802,-0.1773218,-0.8181385,-3.11618,0.3713942,1.491954,0.2961719,-0.08464222,-0.02110778,-0.02460226,-1.347968,0.5071538,0.09345751,0.5291342,1.482268,0.1882071,0.06934452,1.68414,0.3182424,328.6922,78.16032,179.3811,True
7,1.833337,-0.04068797,-0.129195,-0.1437607,4.533485,1.552519,-1.536504,0.216021,1.405025,0.3605905,-1.388979,0.04069342,10.66313,43.86115,0.05904416,-0.05033854,0.03479257,-0.1787508,-0.8142689,-3.120856,0.3717066,1.492129,0.2959988,-0.07152157,0.01721621,0.01472884,-1.346314,0.5085332,0.09350039,0.5291739,1.482193,0.1881061,0.06898833,1.684254,0.3183274,328.7509,78.17628,179.5214,True
7,1.844448,-0.03434589,-0.1164192,-0.1544332,4.534039,1.550828,-1.536519,0.2164456,1.405349,0.3608387,-1.383935,0.4572698,11.56498,44.86822,0.08171626,-0.03753537,0.07830381,-0.1809964,-0.814376,-3.122494,0.3719389,1.492205,0.2958651,-0.0673137,0.03638737,0.002988726,-1.346676,0.5095559,0.09388362,0.5293507,1.482127,0.1880076,0.06830361,1.68424,0.3180965,328.8109,78.39959,179.4847,True
7,1.855559,-0.003399771,-0.1322903,-0.1437706,4.535999,1.549535,-1.537796,0.2167417,1.40556,0.361191,-1.378432,0.4954471,12.36074,45.53246,0.09671231,0.01574151,0.1080688,-0.1831882,-0.8245373,-3.114058,0.3721666,1.492256,0.295711,-0.06436102,0.02253247,-0.02899889,-1.348185,0.5092708,0.09452118,0.5294616,1.482027,0.1878667,0.06712001,1.684112,0.3176358,328.646,78.68314,179.2022,True
7,1.86667,0.02431484,-0.1342995,-0.1267333,4.537395,1.54887,-1.539133,0.2171149,1.405675,0.3614867,-1.37241,0.5426091,13.02387,45.78959,0.1083759,0.05836608,0.1208359,-0.184662,-0.8331774,-3.10708,0.3724059,1.492306,0.2957399,-0.06240867,-0.001960518,-0.04818908,-1.349287,0.5086674,0.09537339,0.5296747,1.481996,0.1878333,0.06550767,1.683758,0.3171712,328.2092,78.85989,178.8332,True
7,1.877781,0.02318692,-0.1214464,-0.1011746,4.538014,1.548935,-1.538685,0.2178115,1.405216,0.3617256,-1.368025,0.3923183,13.60743,45.66103,0.09764843,0.04877433,0.1027615,-0.1853731,-0.8360898,-3.10497,0.3725776,1.492294,0.2957497,-0.06047291,-0.05309406,-0.06525912,-1.350839,0.5063962,0.09647727,0.5298522,1.48191,0.1876483,0.06358706,1.683287,0.3168814,327.6107,78.86164,178.6405,True
7,1.888893,0.01245262,-0.08736236,-0.09484863,4.537693,1.548122,-1.538632,0.2179287,1.405223,0.3618832,-1.362196,0.5252576,14.13793,45.14677,0.07070698,0.01573259,0.0507281,-0.1839818,-0.8309824,-3.109757,0.3726626,1.4923,0.29582,-0.07853434,-0.08716023,-0.0512799,-1.350885,0.5042934,0.09847997,0.5299494,1.481879,0.1874347,0.06149069,1.682574,0.3167354,327.0321,78.81249,178.6301,True
7,1.900004,0.008099133,-0.05115497,-0.09600177,4.536993,1.546943,-1.538824,0.2178445,1.405445,0.3619392,-1.353986,0.7413718,14.48276,44.39682,0.08740403,-0.008673862,-0.003751589,-0.182157,-0.826238,-3.115927,0.3728795,1.4924,0.2958958,-0.09552156,-0.09672759,-0.0415715,-1.351101,0.5029512,0.1003783,0.5300096,1.481827,0.187284,0.05933056,1.681498,0.3166756,326.4482,78.68068,178.741,True
7,1.911115,0.01861408,-2.063811E-06,-0.1003899,4.535141,1.545921,-1.539634,0.2181212,1.405697,0.3619695,-1.347206,0.6087171,14.53581,43.64688,0.09583084,-0.01821767,-0.01981032,-0.1813836,-0.8242619,-3.119299,0.3730708,1.492453,0.2959089,-0.1146044,-0.1052186,-0.02652174,-1.351053,0.5016742,0.1026563,0.5301179,1.481756,0.1872194,0.05722447,1.68015,0.3167005,325.835,78.49217,178.9174,True
7,1.922226,0.03987978,0.008561097,-0.1068195,4.534689,1.544602,-1.540948,0.2181834,1.406026,0.3620496,-1.340328,0.618882,14.29708,42.96122,0.08314964,-0.01400524,-0.004795259,-0.1819019,-0.8240151,-3.119954,0.3733659,1.49247,0.2958419,-0.1112356,-0.08924159,-0.005235583,-1.350434,0.5012981,0.1038196,0.5302455,1.481625,0.1871185,0.05502247,1.679106,0.3169101,325.3396,78.37272,179.084,True
7,1.933337,0.08359616,-0.008376583,-0.1110827,4.535366,1.543195,-1.54363,0.218502,1.406311,0.3623049,-1.333608,0.6040611,13.84615,42.44697,0.07494184,-0.002354272,0.04002301,-0.1841874,-0.8266513,-3.117878,0.3736246,1.492479,0.295805,-0.0780736,-0.0562668,0.007316835,-1.349816,0.5017359,0.1034896,0.5302947,1.481599,0.1870487,0.05269754,1.678461,0.3173338,324.8918,78.24774,179.2719,True
7,1.944448,0.08577168,-0.03183188,-0.1206023,4.536391,1.541803,-1.544783,0.2188725,1.406479,0.3625214,-1.326452,0.6438536,13.31565,42.33984,0.0697042,0.001879938,0.05285569,-0.1851845,-0.8270588,-3.118171,0.3738429,1.492589,0.295711,-0.04505727,-0.04671887,0.003890935,-1.349885,0.5016136,0.1028508,0.5302749,1.481664,0.1869235,0.05035121,1.677996,0.3179546,324.4446,78.08,179.531,True
7,1.955559,0.02931247,-0.03519146,-0.1269232,4.53687,1.54015,-1.543546,0.2191737,1.406444,0.3627443,-1.319884,0.5895072,12.78515,42.12556,0.07083958,0.002939217,0.06243598,-0.186148,-0.8270204,-3.119021,0.3739979,1.492765,0.2956543,-0.01966883,-0.03716149,-0.02292272,-1.35105,0.5016457,0.1021533,0.5303324,1.48162,0.1868205,0.04801003,1.677473,0.3186468,324.0377,77.95022,179.8302,True
7,1.966671,-0.04430455,0.007243693,-0.1194822,4.535254,1.539211,-1.540539,0.2195028,1.406383,0.3630416,-1.310323,0.863539,12.22811,41.73987,0.08577166,0.02321206,0.07192818,-0.1872437,-0.8318943,-3.115691,0.3741426,1.492846,0.2956088,-0.03273306,-0.0318002,-0.06330989,-1.353135,0.501775,0.1029874,0.5305064,1.481617,0.1866655,0.04569617,1.676605,0.3192501,323.6413,77.8668,180.1012,True
7,1.977782,-0.05913028,-0.0108601,-0.1055845,4.5358,1.538259,-1.540062,0.2197501,1.406805,0.3632858,-1.299518,0.9748222,11.61804,41.13992,0.08539014,0.07969777,0.04215591,-0.1867744,-0.8473777,-3.101402,0.3743501,1.492942,0.2956138,-0.06791582,-0.03281862,-0.06731844,-1.353994,0.5013683,0.1049895,0.530613,1.481548,0.1865513,0.04335884,1.675419,0.319683,323.179,77.78313,180.3278,True
7,1.988893,-0.05797379,-0.04279745,-0.09804918,4.537331,1.537383,-1.539616,0.2199176,1.407086,0.3636448,-1.289555,0.8973233,10.95491,40.21855,0.08195918,0.07971589,0.01129166,-0.1858977,-0.8520091,-3.097642,0.3746359,1.493126,0.2956791,-0.08500704,-0.04450566,-0.0703897,-1.354821,0.5006429,0.1067499,0.5306967,1.481469,0.1863394,0.04101032,1.67418,0.3200102,322.5813,77.66708,180.4638,True
7,2.000004,-0.06426072,-0.08436559,-0.09900055,4.539744,1.536223,-1.538976,0.2203279,1.407372,0.3640311,-1.283882,0.5058817,10.4244,38.93293,0.09403455,0.0360423,0.04312165,-0.1875387,-0.8452386,-3.105608,0.3750176,1.49324,0.2956507,-0.06789787,-0.0551877,-0.0598579,-1.355179,0.4996387,0.1070375,0.530809,1.481419,0.1861987,0.03876363,1.673249,0.320397,321.8875,77.44836,180.6376,True
7,2.011115,-0.07917598,-0.08869912,-0.1106828,4.540767,1.534651,-1.537851,0.2206019,1.407744,0.3642991,-1.275996,0.711347,10.02653,37.5616,0.1113299,-0.009733975,0.05999395,-0.1887963,-0.836349,-3.116092,0.3754322,1.493234,0.2956321,-0.02630402,-0.08187607,-0.0484453,-1.355505,0.4979207,0.106188,0.5308315,1.481435,0.1861203,0.03670213,1.672635,0.3207785,321.3622,77.3243,180.8424,True
7,2.022226,-0.08448157,-0.1239215,-0.1350661,4.542936,1.532548,-1.536647,0.2211377,1.40781,0.3647444,-1.267338,0.7796869,9.734747,36.19027,0.1501103,-0.04908922,0.1022807,-0.1913572,-0.8256928,-3.129532,0.3757854,1.493317,0.2955959,-0.00508111,-0.1000133,-0.05713041,-1.356755,0.496321,0.1058649,0.5308635,1.481334,0.1860354,0.03485065,1.672073,0.3210186,320.9998,77.29526,180.9737,True
7,2.033337,-0.06732684,-0.1707741,-0.144557,4.546309,1.530491,-1.536784,0.2213464,1.408229,0.3651979,-1.258382,0.806599,9.522545,34.99036,0.168358,-0.02775145,0.1277207,-0.19346,-0.8288676,-3.128932,0.3758432,1.49332,0.2954965,-0.02112922,-0.09466179,-0.06766699,-1.357934,0.4955502,0.1067411,0.5308881,1.481266,0.185868,0.03317112,1.671481,0.3210543,320.6762,77.33524,180.9825,True
7,2.044448,-0.0363618,-0.195177,-0.1370706,4.549171,1.529116,-1.537549,0.221143,1.408924,0.3656092,-1.249879,0.7652229,9.363397,34.3904,0.1522703,-0.002224818,0.1225341,-0.1943671,-0.8333194,-3.125591,0.3759177,1.493441,0.2954912,-0.04992472,-0.0818385,-0.07384631,-1.358985,0.4951891,0.1084919,0.5308021,1.481228,0.1857777,0.03158644,1.670891,0.3209687,320.3384,77.41213,180.8633,True
7,2.055559,-0.02352453,-0.2121697,-0.1285198,4.551988,1.527902,-1.537903,0.2212435,1.40937,0.3659251,-1.242977,0.6191163,9.310343,33.85472,0.1124682,0.01475376,0.07810944,-0.1937338,-0.8373926,-3.121428,0.3758802,1.493637,0.2954457,-0.08070897,-0.06475266,-0.06190241,-1.359292,0.4951384,0.1105081,0.5307872,1.481195,0.1856754,0.03010978,1.67018,0.3208238,319.9821,77.57076,180.6493,True
7,2.06667,-0.03948574,-0.2185887,-0.1242121,4.554445,1.526751,-1.537125,0.2212046,1.409799,0.3662598,-1.235572,0.6662312,9.389919,33.3619,0.0929728,0.02112813,0.03778049,-0.1927021,-0.8392771,-3.120083,0.3758645,1.493929,0.2954416,-0.09136944,-0.07539611,-0.06076542,-1.360051,0.4938499,0.1120661,0.5307118,1.481114,0.1855609,0.02850224,1.66956,0.3206563,319.7172,77.76986,180.4337,True
7,2.077781,-0.07461681,-0.2293337,-0.1241398,4.557204,1.525296,-1.535247,0.2214791,1.410273,0.3665478,-1.226915,0.7802281,9.575595,32.93336,0.08881545,0.04559734,0.0602069,-0.1941988,-0.8462415,-3.114075,0.3760006,1.494031,0.2953694,-0.0753928,-0.07329132,-0.06194611,-1.360956,0.4930855,0.1124957,0.5306472,1.481068,0.1855018,0.02656131,1.669048,0.3204634,319.4872,77.86844,180.3098,True
7,2.088892,-0.1033038,-0.2592405,-0.1240308,4.561105,1.523735,-1.533426,0.2216985,1.410783,0.3666954,-1.217455,0.8527095,9.787797,32.31198,0.08903617,0.07325669,0.09964621,-0.1970196,-0.8551791,-3.106339,0.3760884,1.493999,0.2953546,-0.04432322,-0.05948596,-0.0397919,-1.36064,0.4929294,0.1120781,0.5305827,1.48105,0.1854172,0.02433629,1.668376,0.3201959,319.1284,77.89186,180.2516,True
7,2.100003,-0.1234952,-0.2635103,-0.1069804,4.564235,1.522557,-1.53188,0.2220567,1.411618,0.3668981,-1.208045,0.8477576,9.999999,31.41204,0.08301098,0.0550905,0.1412231,-0.200119,-0.8545104,-3.107715,0.3763852,1.494096,0.2952847,-0.02081076,-0.05419473,-0.03037209,-1.360702,0.4924909,0.1116131,0.5305187,1.48102,0.1853206,0.02187919,1.667567,0.3198788,318.5715,77.87788,180.2148,True
7,2.111114,-0.1276806,-0.2772847,-0.07285141,4.567808,1.522801,-1.530261,0.222113,1.412354,0.3671243,-1.199972,0.725687,10.18567,30.06214,0.08539855,-0.006704763,0.1528655,-0.2020018,-0.8423778,-3.120606,0.3766511,1.494363,0.2953095,0.003702952,-0.06701603,-0.02522054,-1.360881,0.4912505,0.1111481,0.530534,1.481013,0.1852016,0.01939811,1.666679,0.3195224,317.8314,77.87398,180.2149,True
7,2.122225,-0.1362291,-0.2591414,-0.05263083,4.569976,1.522934,-1.528481,0.2221286,1.41295,0.367336,-1.192379,0.682872,10.29178,28.24084,0.1056363,-0.02368805,0.1463033,-0.2033856,-0.8381549,-3.12654,0.3769248,1.494544,0.295229,-0.00285197,-0.08404912,-0.0443527,-1.362207,0.4898159,0.111796,0.5305008,1.480965,0.1850591,0.01705659,1.665849,0.3190924,317.0632,77.90559,180.2196,True
7,2.133336,-0.145832,-0.2463453,-0.03773729,4.572258,1.522937,-1.526522,0.2222207,1.413625,0.3675313,-1.184721,0.6892877,10.26525,26.09813,0.1143369,-0.03540078,0.1654033,-0.2058059,-0.8348086,-3.131395,0.3771378,1.494682,0.2949557,-0.02857645,-0.0872042,-0.06547448,-1.363745,0.4888718,0.1131641,0.5304953,1.480905,0.1849144,0.01494818,1.66526,0.3186059,316.3826,77.90501,180.2039,True
7,2.144447,-0.1703363,-0.2432056,-0.03238248,4.5749,1.522648,-1.523851,0.2223077,1.414301,0.3675709,-1.176819,0.7114331,10.13263,24.08399,0.0997615,-0.03654802,0.2102615,-0.2097761,-0.8334847,-3.133074,0.3772446,1.49483,0.2948484,-0.04886498,-0.09250848,-0.07065306,-1.36475,0.487694,0.1146222,0.5304538,1.480814,0.1847792,0.0131207,1.664881,0.3180233,315.9207,77.86862,180.1623,True
7,2.155558,-0.209709,-0.2656922,-0.03866591,4.578578,1.521847,-1.52019,0.2223269,1.415255,0.3677547,-1.168976,0.7061171,9.920423,22.15556,0.08681008,0.0007082224,0.2018701,-0.2115839,-0.8387972,-3.128307,0.3773641,1.494986,0.2948186,-0.05738379,-0.1010193,-0.06846292,-1.365595,0.4863681,0.1158073,0.5304193,1.480758,0.1846681,0.01155573,1.664662,0.3173827,315.6043,77.84618,180.0425,True
7,2.166669,-0.2480086,-0.2871045,-0.04176208,4.582478,1.52104,-1.516225,0.2223757,1.416303,0.3679233,-1.160708,0.7450576,9.655171,20.24855,0.05374099,0.002751648,0.1967897,-0.2133437,-0.8391197,-3.127699,0.3775699,1.495319,0.294627,-0.06372675,-0.10741,-0.06095999,-1.366118,0.484894,0.116912,0.5303704,1.480739,0.1845951,0.01021122,1.664567,0.316729,315.3492,77.88494,179.8764,True
7,2.17778,-0.2575717,-0.2902784,-0.02573545,4.585563,1.52144,-1.513103,0.2224311,1.417386,0.3680203,-1.152234,0.763669,9.363397,18.32012,0.02815086,-0.02500702,0.1841792,-0.2150673,-0.8328964,-3.13324,0.3777578,1.495731,0.2944682,-0.05723065,-0.09677378,-0.04928394,-1.366326,0.4841109,0.1174097,0.5303774,1.480682,0.1844966,0.009017202,1.664623,0.316074,315.114,78.00475,179.6853,True
7,2.188891,-0.2149185,-0.3093602,-0.03213165,4.589575,1.52068,-1.51215,0.2225001,1.418523,0.3680804,-1.144769,0.6714288,9.045091,16.3274,0.02065951,-0.02289788,0.1799781,-0.2169486,-0.8312386,-3.134972,0.3780055,1.496414,0.2942259,-0.0669203,-0.07331561,-0.06838768,-1.367745,0.4843186,0.1183458,0.530432,1.480737,0.1844864,0.007900363,1.664968,0.3154313,314.8511,78.20867,179.4355,True
7,2.200002,-0.1701715,-0.3156611,-0.04175834,4.593276,1.51967,-1.511876,0.2226526,1.419558,0.3681636,-1.138886,0.5278487,8.832892,14.50611,0.03401834,-0.04742923,0.2469722,-0.2218482,-0.8249828,3.141351,0.3783544,1.497025,0.2937772,-0.09160689,-0.06369764,-0.09697093,-1.369828,0.4840157,0.1201403,0.5304314,1.48075,0.1843801,0.006916431,1.665579,0.3147967,314.587,78.38913,179.1952,True
7,2.211113,-0.1350527,-0.3070472,-0.04499016,4.596032,1.519208,-1.511519,0.2230861,1.42047,0.3681247,-1.134192,0.4202892,8.726789,12.9205,0.04747027,0.01322576,0.3555908,-0.2293131,-0.834015,-3.134148,0.378658,1.497159,0.2932956,-0.1377424,-0.03698375,-0.1477693,-1.373118,0.4849608,0.1229949,0.5304839,1.480609,0.1841681,0.006117405,1.666319,0.3141371,314.4195,78.49443,179.0323,True
7,2.222224,-0.1542704,-0.290049,-0.04394349,4.598634,1.518591,-1.5092,0.2233262,1.421379,0.3681481,-1.128288,0.5319135,8.726789,11.61346,0.0505248,0.05797815,0.3534813,-0.2332322,-0.843079,-3.125933,0.3788786,1.497432,0.2929332,-0.1452495,-0.04443268,-0.1530397,-1.374885,0.4843323,0.1248511,0.530456,1.480479,0.1840186,0.005428621,1.666932,0.3134014,314.3873,78.739,178.7616,True
7,2.233335,-0.2033037,-0.2763152,-0.04070598,4.601111,1.518219,-1.505324,0.2233923,1.422283,0.3681045,-1.12166,0.5969914,8.859415,10.49925,0.04081053,0.07287644,0.3418414,-0.2362352,-0.848526,-3.120764,0.3791149,1.497682,0.2927134,-0.1536785,-0.07425761,-0.1348734,-1.375967,0.4825704,0.1270653,0.5303979,1.480448,0.1838422,0.004725838,1.667217,0.3126158,314.3453,78.98727,178.4253,True
7,2.244446,-0.2363525,-0.2593175,-0.02579258,4.603456,1.518233,-1.501641,0.2233802,1.423243,0.3681126,-1.11324,0.7605745,9.045091,9.513605,0.03423323,0.04625821,0.3077759,-0.238354,-0.8460799,-3.123312,0.3794396,1.49794,0.2924392,-0.1514148,-0.09450238,-0.1125234,-1.376685,0.4809909,0.128946,0.5304097,1.480476,0.1837389,0.003900125,1.667162,0.3118398,314.1822,79.11701,178.1673,True
7,2.255557,-0.2352892,-0.2560936,-0.01619421,4.606135,1.518364,-1.499081,0.2233265,1.424346,0.3680429,-1.105545,0.6933692,9.257293,8.592241,0.03062956,-0.03357176,0.2256993,-0.2380999,-0.8326557,-3.136562,0.3796348,1.498488,0.2922091,-0.1424314,-0.0806869,-0.05186886,-1.375349,0.4803012,0.1302669,0.5303658,1.480456,0.1835518,0.002811941,1.667067,0.3111481,313.8571,79.18863,177.993,True
7,2.266668,-0.2384633,-0.2678362,-0.02255216,4.609415,1.517679,-1.496437,0.2233734,1.425335,0.3680377,-1.100127,0.4861785,9.522545,7.692307,0.03488198,-0.06763712,0.2117859,-0.2401053,-0.8253216,3.138865,0.3798088,1.498958,0.2918496,-0.1282803,-0.04342234,-0.01787535,-1.374389,0.4811128,0.1309732,0.5303861,1.480443,0.1834025,0.001525924,1.66718,0.3105644,313.4075,79.21523,177.9154,True
7,2.277779,-0.2438102,-0.2625369,-0.0278853,4.61209,1.516976,-1.493623,0.2234606,1.426434,0.3679528,-1.096185,0.3533477,9.787797,6.856653,0.01922782,-0.06559607,0.2555903,-0.2444633,-0.8220989,3.136029,0.3800546,1.499404,0.2914722,-0.1293213,-0.02318355,-0.01892658,-1.374601,0.4815063,0.1323077,0.5303724,1.480403,0.1832242,0.0002352747,1.667576,0.3100638,312.957,79.21432,177.9101,True
7,2.28889,-0.2331813,-0.2561137,-0.02577483,4.614733,1.516608,-1.491353,0.2235955,1.427656,0.3677146,-1.091273,0.4430447,10.02653,6.042425,0.00112547,-0.02198093,0.2717497,-0.2479808,-0.8269643,3.141201,0.3803308,1.499893,0.2910147,-0.1454542,-0.03273388,-0.03798703,-1.375764,0.4810603,0.1345575,0.530423,1.480356,0.1830559,-0.0008859031,1.668148,0.3095656,312.6312,79.2738,177.89,True
7,2.300001,-0.2310845,-0.2390448,-0.0183637,4.616799,1.516476,-1.488871,0.2236481,1.428742,0.3675871,-1.086442,0.4349371,10.23872,5.14249,-0.0008617193,-0.003902987,0.2973524,-0.2520773,-0.8288698,-3.140067,0.3804739,1.500304,0.2905674,-0.1508623,-0.03911636,-0.04753161,-1.376575,0.4804922,0.1365523,0.5304449,1.48028,0.1828971,-0.001736843,1.668764,0.3090259,312.4034,79.44328,177.7452,True
7,2.311112,-0.2257867,-0.2389885,-0.01195493,4.619006,1.516579,-1.486122,0.2238197,1.429658,0.3676498,-1.082703,0.3356492,10.66313,5.892437,-0.01243602,0.02373478,0.3262255,-0.2564331,-0.8329965,-3.135578,0.3806249,1.500684,0.2901156,-0.1543048,-0.02845131,-0.08372556,-1.378679,0.4807867,0.1383379,0.5304633,1.480246,0.1827292,-0.002323948,1.669502,0.3084584,312.2208,79.59454,177.5874,True
7,2.322223,-0.2183345,-0.2347095,-0.01089723,4.621596,1.516357,-1.484018,0.2236257,1.430723,0.3673971,-1.078828,0.3492911,11.06101,7.070924,-0.02312411,0.02157657,0.3209813,-0.2598915,-0.833204,-3.134797,0.3808228,1.501093,0.2896388,-0.1426822,-0.003963958,-0.1008441,-1.380144,0.4817926,0.1393792,0.5305239,1.480214,0.1825414,-0.002653607,1.670382,0.3078449,312.1136,79.71931,177.4482,True
7,2.333334,-0.2183732,-0.216586,-0.005616855,4.623397,1.516297,-1.481572,0.223555,1.431622,0.3672922,-1.075332,0.3149682,11.37931,8.120848,-0.04343018,-0.01041876,0.300867,-0.2625461,-0.8283246,-3.1384,0.3809614,1.50163,0.2891068,-0.1320462,0.01412694,-0.1073084,-1.381435,0.4827467,0.1402461,0.5305235,1.480207,0.1823435,-0.002733636,1.671346,0.307202,312.0856,79.84711,177.2439,True
7,2.344445,-0.2216209,-0.2006272,-0.008839469,4.625108,1.516042,-1.478905,0.2234732,1.432538,0.3669906,-1.073145,0.1957297,11.59151,9.235053,-0.04341869,-0.04130311,0.2912495,-0.2654373,-0.8223937,3.139537,0.3810646,1.50205,0.288641,-0.1310263,0.01519873,-0.1137097,-1.382893,0.4831596,0.1416586,0.530512,1.480235,0.1821964,-0.002597684,1.672368,0.306554,312.1381,80.0025,177.0107,True
7,2.355556,-0.2131427,-0.1910625,-0.02271554,4.626973,1.515229,-1.47692,0.2234157,1.433457,0.3667355,-1.070492,0.2396808,11.75066,10.24212,-0.04152018,-0.01464313,0.2699501,-0.2676045,-0.8254497,-3.140367,0.3810906,1.502461,0.2882142,-0.1575946,0.01416077,-0.1050019,-1.383834,0.4832718,0.1441982,0.5305182,1.480159,0.1819983,-0.002416628,1.673505,0.3058806,312.2971,80.20517,176.7739,True
7,2.366668,-0.1769534,-0.1878393,-0.03661612,4.629326,1.514187,-1.476277,0.2233057,1.434128,0.3657889,-1.068161,0.209919,11.93634,11.91343,-0.02252229,-0.01349882,0.2474301,-0.2695391,-0.8257166,-3.140492,0.3811207,1.50291,0.2877302,-0.1766632,0.02377845,-0.09100875,-1.384207,0.4840879,0.1467617,0.5304809,1.480107,0.1818471,-0.002221209,1.674656,0.3052082,312.4444,80.36709,176.5451,True
7,2.377779,-0.1204474,-0.2100898,-0.04301916,4.632337,1.513365,-1.476788,0.2232592,1.435008,0.3656085,-1.06701,0.1024752,12.20159,14.44182,-0.03208567,-0.002880096,0.2549697,-0.2726353,-0.8265869,-3.138924,0.3810921,1.503236,0.2872529,-0.1913997,0.05361438,-0.07278869,-1.384157,0.4856311,0.1490547,0.5304033,1.480047,0.1816072,-0.002048667,1.675819,0.3045475,312.5426,80.52576,176.3464,True
7,2.38889,-0.08846913,-0.2142578,-0.03666115,4.634855,1.512934,-1.476888,0.2231462,1.435759,0.3654101,-1.066829,0.01492136,12.41379,17.18449,-0.03949516,0.01093638,0.2656953,-0.2760057,-0.8287134,-3.13623,0.3810439,1.503447,0.2868016,-0.1944945,0.06853403,-0.06104147,-1.384248,0.4870033,0.151058,0.5303178,1.480006,0.1814101,-0.001887896,1.676893,0.3038869,312.6554,80.72272,176.2044,True
7,2.400001,-0.05225131,-0.2130442,-0.0185941,4.636907,1.513263,-1.477155,0.2230525,1.436251,0.3652349,-1.066647,0.01557623,12.44032,18.98436,-0.04394697,0.02586041,0.2465612,-0.2779073,-0.831853,-3.13254,0.3807373,1.503679,0.286397,-0.1934443,0.03763163,-0.05679832,-1.384917,0.4863228,0.1533366,0.5302489,1.479999,0.181175,-0.001763207,1.677692,0.3031118,312.81,80.95464,176.0878,True
7,2.411112,-0.1140865,-0.1886916,-0.01217867,4.638602,1.513181,-1.473923,0.2227538,1.436279,0.3647971,-1.064975,0.1519194,12.49337,20.97707,-0.04186296,-0.00927192,0.2273339,-0.2796894,-0.8268817,-3.136993,0.3803329,1.503855,0.2860372,-0.2007862,0.01314189,-0.03650892,-1.384768,0.4856524,0.1558975,0.5300115,1.480014,0.1809344,-0.001819322,1.678221,0.3022469,312.9047,81.21761,175.7822,True
7,2.422223,-0.194064,-0.1440906,0.008065323,4.638665,1.514004,-1.468927,0.2224859,1.43631,0.3643506,-1.063877,0.09813528,12.65252,22.96979,-0.06473224,0.005643152,0.1678576,-0.2796159,-0.8293126,-3.133121,0.3798023,1.503792,0.2856624,-0.1964023,0.0248398,-0.02162928,-1.3845,0.4862091,0.1578506,0.5298331,1.480011,0.1807332,-0.002125773,1.678492,0.3013537,312.8842,81.38609,175.4715,True
7,2.433334,-0.2647071,-0.002541741,0.02166446,4.6339,1.515308,-1.463564,0.2219883,1.43633,0.3637052,-1.059372,0.4105473,12.97082,25.02678,-0.09441122,0.04401701,0.06158783,-0.2767664,-0.8359212,-3.124712,0.3794173,1.503833,0.2853618,-0.1842137,0.07488582,0.03475738,-1.381879,0.4884939,0.1592307,0.5295175,1.479938,0.1805334,-0.002635444,1.678437,0.3004693,312.8126,81.46916,175.265,True
7,2.444445,-0.1848733,0.05104082,0.06934641,4.631933,1.517882,-1.464087,0.221334,1.436532,0.362978,-1.056697,0.2408838,13.3687,26.95522,-0.1019569,0.0461367,0.04992827,-0.2771307,-0.8377024,-3.121806,0.3793023,1.503906,0.2851326,-0.1659865,0.08550031,0.0484718,-1.380826,0.4894666,0.1602653,0.5293121,1.479893,0.1803639,-0.003293461,1.67826,0.2996129,312.5858,81.47082,175.189,True
7,2.455556,-0.1039201,0.07583743,0.1064561,4.630629,1.520503,-1.465363,0.2208446,1.436895,0.362205,-1.055967,0.06491741,13.7931,28.00514,-0.0953523,0.009920131,0.06475807,-0.2783334,-0.833649,-3.124849,0.3792005,1.503945,0.2847946,-0.118017,0.09928636,0.05026166,-1.379961,0.4909622,0.159738,0.5290772,1.479871,0.1803029,-0.003922949,1.678383,0.2988738,312.2095,81.29759,175.231,True
7,2.466667,-0.06993803,0.1313696,0.1275702,4.627599,1.522936,-1.465432,0.2205108,1.437041,0.3614013,-1.061695,-0.5242934,14.19098,28.69081,-0.0907862,-0.05399707,0.08170402,-0.2798263,-0.8235202,-3.133791,0.3791667,1.503917,0.2843177,-0.07349778,0.09816061,0.02010717,-1.380678,0.4920178,0.1590512,0.5290096,1.479849,0.1801317,-0.004312799,1.679118,0.2984234,311.9233,80.89899,175.4881,True
7,2.477778,-0.07337781,0.2272396,0.1273361,4.622232,1.525043,-1.464092,0.2204151,1.436932,0.3604956,-1.062567,-0.07539563,14.58886,29.20506,-0.08832538,-0.05403098,0.1253645,-0.2826844,-0.8218246,-3.134433,0.3789828,1.503878,0.2839408,-0.05360513,0.08001705,-0.02478956,-1.382393,0.4924,0.1589739,0.5289074,1.479746,0.1799717,-0.004301139,1.680035,0.2981014,312.1059,80.5573,175.8853,True
7,2.488889,-0.08419599,0.3018169,0.1399417,4.616594,1.527668,-1.462542,0.2200598,1.436847,0.3596804,-1.060651,0.1747934,14.96021,29.76216,-0.1137856,-0.06050395,0.1362072,-0.2846434,-0.8187156,-3.135477,0.3786314,1.503814,0.2834904,-0.05269071,0.07043216,-0.04290325,-1.38324,0.4930353,0.1595798,0.528787,1.479642,0.1797612,-0.004051915,1.68081,0.2977,312.5175,80.26987,176.2689,True
7,2.5,-0.1078246,0.3891545,0.1557283,4.609445,1.530799,-1.460185,0.2195472,1.436655,0.3588698,-1.058434,0.200707,15.38462,30.94065,-0.1481217,-0.04245944,0.1109155,-0.2849055,-0.819399,-3.131933,0.3781957,1.503819,0.2831967,-0.0772941,0.0619337,-0.05551524,-1.384266,0.4934469,0.1612453,0.5285509,1.479544,0.1795835,-0.003731555,1.681357,0.2972076,312.8518,79.93827,176.5507,True
7,2.511111,-0.1261037,0.4647544,0.1630031,4.602374,1.533462,-1.458043,0.2191045,1.436674,0.3580973,-1.057701,0.06516419,15.62334,31.99057,-0.1444406,-0.001912393,0.0491346,-0.2832442,-0.8242601,-3.125767,0.377917,1.503965,0.2830462,-0.09540038,0.05876243,-0.05431953,-1.384736,0.4940901,0.1628435,0.5283571,1.479488,0.1794071,-0.003418287,1.681787,0.2967743,313.0058,79.5294,176.7833,True
7,2.522222,-0.1464228,0.5019894,0.1682327,4.596191,1.535741,-1.45573,0.2186513,1.436732,0.3573992,-1.056702,0.09079774,15.67639,33.53332,-0.111448,-0.03696576,0.0328666,-0.2831345,-0.8178991,-3.131763,0.3776587,1.504005,0.282759,-0.1198245,0.05773605,-0.0434904,-1.384626,0.4948619,0.1648601,0.5280075,1.479414,0.1793058,-0.003205691,1.682294,0.2965318,313.1164,79.06317,177.0588,True
7,2.533333,-0.1720592,0.525373,0.1660839,4.589652,1.538484,-1.452281,0.2182287,1.436093,0.3567319,-1.056418,0.02482894,15.59682,35.76173,-0.08138518,-0.06673019,0.05284763,-0.2844176,-0.8117834,-3.13763,0.3775526,1.504026,0.2825446,-0.11958,0.08010799,-0.01365547,-1.383369,0.4965273,0.1658872,0.5277669,1.479313,0.1790986,-0.00311712,1.682989,0.296571,313.2255,78.49464,177.4834,True
7,2.544444,-0.1634793,0.4987466,0.159743,4.585071,1.540543,-1.450455,0.2179873,1.436064,0.3562021,-1.055661,0.06854165,15.35809,38.52582,-0.04610814,-0.06771058,0.06855594,-0.2856895,-0.8092737,-3.140634,0.3774953,1.50395,0.2823198,-0.09178258,0.09497252,-0.003202926,-1.382846,0.4979385,0.1656279,0.5276637,1.479298,0.1789446,-0.00311274,1.683871,0.2969069,313.3519,77.96104,177.9946,True
7,2.555555,-0.1527287,0.4486526,0.1396255,4.581801,1.542014,-1.448962,0.2175094,1.43616,0.3557847,-1.053714,0.1765375,15.01326,41.28991,-0.03322043,-0.0762082,0.07910267,-0.2869466,-0.8052603,3.138628,0.3773898,1.50387,0.2821174,-0.04917435,0.08958507,-0.003509507,-1.382813,0.4986878,0.1645304,0.5275566,1.479228,0.1787598,-0.003068798,1.684703,0.2974738,313.5524,77.50971,178.5148,True
7,2.566666,-0.1302295,0.3708258,0.09505214,4.58025,1.541743,-1.448275,0.2172828,1.436409,0.3555658,-1.054017,-0.03015081,14.42971,43.49689,-0.03770346,-0.1198486,0.03433364,-0.2856357,-0.7957355,3.130175,0.3771132,1.503869,0.2819829,-0.02264683,0.08102879,-0.0164871,-1.383353,0.4994009,0.1637021,0.5274205,1.479187,0.178601,-0.002858267,1.685259,0.2981828,313.772,77.01691,179.1076,True
7,2.577777,-0.1001977,0.2599804,0.04523596,4.580646,1.540756,-1.448271,0.2169864,1.43662,0.3554504,-1.053006,0.0916425,13.63395,44.97536,-0.02177533,-0.1198021,0.02782332,-0.2858158,-0.7908491,3.125273,0.3769275,1.503955,0.2818127,-0.01650768,0.04587087,-0.04530078,-1.384853,0.4989585,0.1637474,0.527288,1.479135,0.1785393,-0.002629959,1.685729,0.2989112,313.9956,76.65989,179.6523,True
7,2.588888,-0.07014553,0.1416851,-0.001373822,4.582763,1.53891,-1.448712,0.2168116,1.436774,0.3555264,-1.051724,0.1147963,12.59947,45.98243,0.01525952,-0.1111445,-0.002278969,-0.2848693,-0.7878938,3.120981,0.3766539,1.504078,0.2815726,-0.05723554,0.05978785,-0.08121926,-1.386596,0.500474,0.1654979,0.5271199,1.479129,0.1784365,-0.00257026,1.686188,0.2995389,314.2221,76.4856,180.031,True
7,2.599999,-0.05935238,0.07775453,-0.01719441,4.583549,1.538376,-1.448468,0.2166287,1.436844,0.3555384,-1.050104,0.1453758,11.48541,46.94665,0.01523922,-0.09623872,0.0009365603,-0.2850983,-0.7855787,3.118677,0.3763697,1.504146,0.2812948,-0.0871636,0.08113244,-0.09911515,-1.38805,0.5023641,0.1670843,0.5269352,1.47911,0.1782653,-0.002754572,1.68654,0.2999952,314.3847,76.53835,180.1544,True
7,2.61111,-0.04853486,-0.007529262,-0.04788465,4.58636,1.536444,-1.448525,0.2164833,1.436864,0.3554382,-1.04778,0.2090814,10.39788,46.79666,0.01201546,-0.03021944,0.02020427,-0.2860437,-0.7926907,3.125384,0.3760183,1.504071,0.2809706,-0.1030837,0.09287471,-0.09260294,-1.388546,0.5039892,0.1684966,0.5266914,1.479059,0.1780267,-0.003239883,1.686606,0.3002223,314.4827,76.74713,180.0777,True
7,2.622221,-0.03132141,-0.08209635,-0.06049257,4.589439,1.535142,-1.448952,0.216298,1.436841,0.3554204,-1.044219,0.3215006,9.602121,45.51104,0.005592979,0.04750345,0.04589467,-0.2873455,-0.8041665,3.136702,0.3756377,1.504009,0.2807322,-0.07941848,0.07898086,-0.05869821,-1.388143,0.5041788,0.1684881,0.5264485,1.479122,0.1778381,-0.004059334,1.686263,0.3002052,314.4379,76.97018,179.901,True
7,2.633332,-0.01840906,-0.1417558,-0.07419593,4.592685,1.533631,-1.449381,0.2161397,1.436849,0.3555291,-1.040933,0.2951396,9.204244,43.15406,0.0002391757,0.05814141,0.04594485,-0.2878094,-0.80757,3.140138,0.3753698,1.503962,0.2805431,-0.04288729,0.0714755,-0.01527948,-1.386792,0.5046749,0.1676029,0.5261174,1.479105,0.177773,-0.005221008,1.68558,0.2999779,314.2213,77.02357,179.845,True
7,2.644443,-0.01406931,-0.1811947,-0.08582012,4.595723,1.531908,-1.449528,0.215983,1.43697,0.3555212,-1.037693,0.2911131,9.204244,39.98286,0.01926443,0.01561877,0.01060095,-0.2865428,-0.8023968,3.134218,0.375157,1.503932,0.280401,-0.02457,0.07571118,0.01228858,-1.385608,0.505569,0.1671181,0.5257767,1.479158,0.1776228,-0.00667739,1.684585,0.2995133,313.8731,77.17186,179.7493,True
7,2.655554,-0.002296987,-0.2025024,-0.09538711,4.598538,1.529953,-1.450332,0.215948,1.437163,0.3555517,-1.033659,0.3633298,9.734747,36.66167,0.05447399,-0.0013326,0.01137813,-0.2866552,-0.80002,3.130119,0.3749729,1.503967,0.280283,-0.02217574,0.07995209,0.04742652,-1.383858,0.506171,0.167173,0.5254819,1.479123,0.1774421,-0.008379277,1.683349,0.298831,313.4324,77.34248,179.5662,True
7,2.666665,0.003050317,-0.2067321,-0.08792792,4.600871,1.528957,-1.450675,0.215841,1.43721,0.3555217,-1.028884,0.4302167,10.50398,33.40475,0.05872815,-0.01090404,0.0060104,-0.2866264,-0.7984242,3.127737,0.3747102,1.503905,0.2800307,-0.02638023,0.0725056,0.05704757,-1.382762,0.5066783,0.1675554,0.5251293,1.479151,0.1772132,-0.01030036,1.68201,0.2980162,312.9104,77.5083,179.3097,True
7,2.677776,-0.01401388,-0.184334,-0.06344314,4.602066,1.529171,-1.449907,0.2154991,1.43721,0.3554006,-1.024653,0.3796725,11.37931,30.36211,0.04906156,0.01144484,0.003973346,-0.2865242,-0.8016304,3.130641,0.3744806,1.503935,0.2798178,-0.03401604,0.05227078,0.03579834,-1.383049,0.5065164,0.1681554,0.5247937,1.479219,0.1770537,-0.01238063,1.680712,0.297177,312.3124,77.66308,179.0399,True
7,2.688887,-0.02583162,-0.127829,-0.03694133,4.601659,1.52964,-1.4492,0.215215,1.437194,0.3553357,-1.019219,0.4899398,12.25464,27.5766,0.02353168,0.04224981,0.01911523,-0.2872608,-0.8069887,3.136233,0.3741707,1.503989,0.2796633,-0.0320093,0.03842434,0.02193516,-1.383209,0.5065678,0.1684953,0.5244629,1.479253,0.176856,-0.01448079,1.679442,0.2964193,311.7242,77.80778,178.7807,True
7,2.699998,-0.01628636,-0.09363671,-0.007208619,4.601649,1.530625,-1.449215,0.2148249,1.437253,0.3551857,-1.012812,0.5777555,12.97082,25.32676,0.01513933,0.05605806,0.04156002,-0.2883788,-0.8109022,3.140124,0.3739774,1.503953,0.2795026,-0.02148187,0.03627654,0.004810369,-1.383721,0.5069453,0.1682553,0.5242128,1.479329,0.1766844,-0.0165126,1.678185,0.2957907,311.2248,77.81409,178.68,True
7,2.711109,0.02638352,-0.1041264,0.01512803,4.603329,1.531347,-1.450936,0.2144384,1.437334,0.3549962,-1.007242,0.500531,13.2626,23.33405,0.01511294,0.05393222,0.03729736,-0.2886733,-0.8127318,3.141681,0.3737462,1.503931,0.2793734,-0.01404324,0.02454609,0.004758778,-1.383532,0.506771,0.1682761,0.5239047,1.479332,0.1765409,-0.01846555,1.677065,0.2953032,310.7881,77.62911,178.7795,True
7,2.72222,0.03809487,-0.09767891,0.02362518,4.604255,1.531859,-1.451658,0.2141857,1.437343,0.3546834,-1.002298,0.4439448,13.31565,22.43411,0.001165113,0.0006693879,0.005390719,-0.2875665,-0.806529,3.136188,0.3734791,1.503929,0.2791598,-0.009776374,0.01175609,0.007921137,-1.383402,0.5064144,0.1682987,0.5235845,1.479361,0.176383,-0.02028371,1.676117,0.2949838,310.4106,77.36259,178.979,True
7,2.733331,0.02521454,-0.05294571,0.03204997,4.603306,1.532664,-1.45141,0.2139507,1.437243,0.3542435,-0.9980516,0.3803288,13.23607,22.84122,-0.01799767,-0.01429494,0.002322811,-0.2874888,-0.8042831,3.134928,0.3731215,1.503976,0.2789583,-0.008638615,-0.005282457,0.02176116,-1.382736,0.5058066,0.1685528,0.5232487,1.479317,0.1762636,-0.0219579,1.675261,0.294755,310.161,77.14154,179.2378,True
7,2.744442,0.01445508,-0.008229833,0.02982467,4.601711,1.533132,-1.451115,0.213611,1.437172,0.353873,-0.9909521,0.6415281,13.0504,24.44826,-0.03499389,0.004820412,0.01526242,-0.2881743,-0.806675,3.138048,0.3727789,1.504063,0.2787313,-0.01495599,5.515502E-05,0.0313976,-1.381987,0.5059772,0.168972,0.5228432,1.479329,0.1762173,-0.02353936,1.674265,0.2944511,310.0421,77.0556,179.4394,True
7,2.755553,0.01761857,0.01632806,0.04787197,4.600938,1.53448,-1.451318,0.2132614,1.437055,0.353492,-0.9835342,0.6682803,13.0504,26.89094,-0.06161975,0.04308759,0.03041405,-0.2889216,-0.8131358,-3.137361,0.3723376,1.504073,0.2785757,-0.02135487,0.01178273,0.02825047,-1.381689,0.5064937,0.1693416,0.5225229,1.479359,0.1761007,-0.02514887,1.673094,0.2940105,309.8615,76.9132,179.6231,True
7,2.766664,0.01124964,0.01528329,0.06173293,4.600934,1.535677,-1.451096,0.2129135,1.437026,0.3531954,-0.9769865,0.5887752,13.2626,30.7478,-0.05962143,0.04097873,0.01228314,-0.2883879,-0.8142285,-3.135756,0.3720165,1.504031,0.2784953,-0.01928104,0.03627845,0.01545365,-1.381855,0.5078285,0.1691983,0.5222653,1.479528,0.176023,-0.02687054,1.671878,0.2934954,309.5542,76.63733,179.8229,True
7,2.777775,-0.002606328,0.002468292,0.05434063,4.601111,1.536097,-1.450188,0.2129213,1.4369,0.3532579,-0.9711627,0.5232087,13.687,35.14035,-0.05036638,0.04637736,-0.02933053,-0.2866019,-0.8166953,-3.133164,0.3717777,1.503955,0.278368,-0.01188233,0.04373738,0.006882098,-1.381849,0.5087529,0.169017,0.521991,1.479489,0.1759887,-0.028721,1.670696,0.2929977,309.1815,76.33388,180.0145,True
7,2.788886,-0.02711302,-0.007228669,0.0352266,4.60149,1.535818,-1.449122,0.2128296,1.43695,0.353065,-0.9644095,0.608835,14.29708,39.83287,-0.02270179,0.01876958,-0.04448256,-0.2856171,-0.8141316,-3.136365,0.3716787,1.504044,0.278218,0.01358077,0.03305504,-0.005025569,-1.382351,0.508873,0.168062,0.5217645,1.479526,0.1757712,-0.03062367,1.669467,0.2924888,308.8187,76.03049,180.2618,True
7,2.799997,-0.04519687,-0.01579409,0.03421301,4.601897,1.536152,-1.448122,0.2125258,1.437244,0.352891,-0.957286,0.6419008,15.01326,44.71823,-0.003306588,0.002823262,-0.02015309,-0.2861726,-0.8124474,-3.138443,0.3714694,1.504029,0.278024,0.01886804,0.02451856,-0.009331757,-1.382659,0.5087658,0.1676748,0.5214074,1.479511,0.1756017,-0.03252597,1.668172,0.2919314,308.4005,75.79803,180.4367,True
7,2.811108,-0.05472139,-0.04245649,0.03004249,4.603172,1.536319,-1.447304,0.2123796,1.437613,0.352767,-0.9507773,0.5855894,15.67639,48.85365,0.01943531,-0.001416747,0.02653795,-0.2880017,-0.8123318,-3.139531,0.371345,1.504098,0.2776961,0.01031826,0.02134384,-0.01246487,-1.382825,0.5091036,0.1678252,0.5211759,1.479507,0.1752839,-0.03431058,1.666831,0.291399,307.8911,75.66083,180.472,True
7,2.822219,-0.02372913,-0.08714073,0.02372145,4.605601,1.536099,-1.448067,0.2122508,1.43809,0.352715,-0.9447777,0.53964,16.12732,52.47482,0.01335793,-0.007866804,0.06493287,-0.2900395,-0.8113158,-3.140508,0.3712631,1.5042,0.2773721,-0.00557205,0.02455465,-0.0006393585,-1.382526,0.5093977,0.1684005,0.5209506,1.47945,0.1750009,-0.0360288,1.665685,0.2909639,307.4028,75.55595,180.5191,True
7,2.83333,-0.002343147,-0.1265391,0.01420387,4.608429,1.535583,-1.448837,0.2120464,1.438577,0.3525438,-0.9389949,0.5202602,16.39257,55.6246,-0.007741034,0.002694469,0.09706567,-0.2921269,-0.8125363,-3.138453,0.371078,1.504273,0.2770581,-0.01624226,0.01285407,-0.000561933,-1.382517,0.5091849,0.1689866,0.520695,1.479464,0.1748197,-0.03769694,1.66486,0.2906253,306.9977,75.40223,180.6665,True
7,2.844441,0.0201056,-0.164899,-0.005994624,4.611623,1.534054,-1.450213,0.2120386,1.439342,0.3524938,-0.9346619,0.3879268,16.4191,58.15299,-0.001355954,0.01229627,0.09915808,-0.2932433,-0.814094,-3.137235,0.3709553,1.504313,0.2767701,-0.0237795,-0.02549453,-0.004783113,-1.383145,0.5074573,0.1697531,0.52048,1.47945,0.1744895,-0.03920733,1.664251,0.2903027,306.6667,75.32249,180.801,True
7,2.855552,0.04356281,-0.1872713,-0.02834154,4.614156,1.532699,-1.451539,0.2118046,1.439967,0.3525186,-0.9288169,0.5271329,16.28647,59.76002,0.02101097,0.02300989,0.1032604,-0.2944902,-0.8161681,-3.136195,0.3708072,1.504445,0.2764125,-0.02706583,-0.04891779,-0.01221818,-1.383704,0.5063363,0.1704439,0.5202816,1.479466,0.1741118,-0.04055953,1.663684,0.289905,306.4738,75.4227,180.7865,True
7,2.866663,0.0712838,-0.2085601,-0.04750223,4.617051,1.531171,-1.453442,0.2116797,1.440539,0.3525062,-0.9232322,0.5019493,16.07427,61.25991,0.04019793,0.04116142,0.1105916,-0.2960151,-0.8197234,-3.133973,0.3706504,1.504667,0.2760634,-0.03660011,-0.05529828,-0.003627645,-1.383619,0.5054343,0.1713347,0.5200419,1.479527,0.1737454,-0.04188748,1.663075,0.2893798,306.3091,75.6021,180.6567,True
7,2.877774,0.04787095,-0.223553,-0.05595112,4.619938,1.529909,-1.453297,0.2115861,1.440889,0.3524792,-0.9171405,0.5485912,15.67639,62.56696,0.03809564,0.03582393,0.1127366,-0.297392,-0.8201165,-3.133876,0.3704138,1.50487,0.2757292,-0.05243893,-0.04782604,0.01459646,-1.382941,0.5050506,0.1725182,0.5198509,1.479643,0.173419,-0.04332505,1.662404,0.2887779,306.0771,75.874,180.3461,True
7,2.888885,-0.05137306,-0.1620489,-0.07194133,4.619377,1.528676,-1.449188,0.211433,1.441005,0.3524368,-0.9115548,0.5019245,15.03979,63.72402,0.02105497,0.01554234,0.1053894,-0.2982943,-0.817918,-3.135641,0.3701705,1.505093,0.2753947,-0.07455336,-0.04459701,0.0499165,-1.381108,0.5045498,0.1742426,0.5195448,1.479606,0.173033,-0.04495904,1.661604,0.2881992,305.7979,76.09518,180.0201,True
7,2.899997,-0.0823487,-0.1291337,-0.08159383,4.619552,1.527148,-1.447519,0.2112362,1.441492,0.3524947,-0.9033735,0.7395407,14.24403,64.64538,0.008249253,0.04639004,0.114046,-0.2999209,-0.8232747,-3.130157,0.3699266,1.505276,0.2750554,-0.0968206,-0.04137531,0.06392223,-1.380076,0.5040296,0.1762184,0.5193007,1.479564,0.1727412,-0.04676212,1.66051,0.2876843,305.468,76.27438,179.7765,True
7,2.911108,-0.04921243,-0.1684529,-0.06875286,4.62303,1.526463,-1.448263,0.2109586,1.441726,0.3520012,-0.8930809,0.9305695,13.42175,65.20248,0.02962604,0.07306203,0.133087,-0.3021175,-0.8291262,-3.125624,0.3697419,1.505361,0.2747045,-0.09564,-0.02539014,0.0767022,-1.378713,0.5042471,0.1771828,0.51898,1.479536,0.1725085,-0.0487169,1.659169,0.2872705,304.9928,76.3106,179.681,True
7,2.922219,-0.02783667,-0.190736,-0.058066,4.625761,1.525962,-1.448792,0.2106559,1.441935,0.3519483,-0.8889675,0.3641343,12.83819,65.54532,0.03171064,0.07200651,0.1266789,-0.3032446,-0.8311084,-3.124154,0.3695866,1.505406,0.2743611,-0.0785556,-0.01476941,0.07977392,-1.377828,0.5041541,0.1773633,0.5184522,1.47955,0.1722,-0.05077608,1.658015,0.2871263,304.278,76.06987,179.8242,True
7,2.93333,-0.03208026,-0.2035528,-0.06654947,4.628334,1.524583,-1.448408,0.2105922,1.442187,0.3518615,-0.8852352,0.3338912,12.44032,65.22392,0.02961151,0.04856777,0.1224122,-0.3045282,-0.829886,-3.125512,0.3695141,1.505508,0.2740686,-0.05405597,-0.01479582,0.07959715,-1.376986,0.5039411,0.1770816,0.5181384,1.479646,0.171783,-0.05271661,1.657125,0.2872632,303.6982,75.93579,180.0784,True
7,2.944441,-0.05130307,-0.1854948,-0.06869659,4.62959,1.523573,-1.447185,0.2106048,1.442441,0.3517392,-0.8782424,0.6313271,12.14854,64.17399,0.02083826,0.04538045,0.08732284,-0.3043652,-0.8310122,-3.124498,0.3693682,1.505621,0.2738056,-0.03073645,-0.02334002,0.06450832,-1.377046,0.5034524,0.1764517,0.5180671,1.479689,0.1715555,-0.05437851,1.656097,0.2873586,303.4787,76.00996,180.3506,True
7,2.955552,-0.05350454,-0.1567331,-0.06876014,4.630144,1.522846,-1.446608,0.2104637,1.44266,0.3516603,-0.8696643,0.7733746,11.93634,62.6741,0.0271786,0.0454016,0.08088231,-0.3051098,-0.8326362,-3.123436,0.3692403,1.505803,0.2735238,-0.02662616,-0.04358801,0.04742617,-1.377437,0.502175,0.1768464,0.5180086,1.479797,0.1712561,-0.05595179,1.654846,0.2872649,303.347,76.09432,180.4737,True
7,2.966663,-0.06208977,-0.1333285,-0.07306993,4.630623,1.521811,-1.445703,0.2103941,1.442931,0.3516061,-0.8607816,0.7999244,11.85676,61.15277,0.03042432,0.02942801,0.08084513,-0.3060718,-0.831591,-3.124982,0.3691213,1.506023,0.2731926,-0.04155912,-0.04568834,0.04540709,-1.377009,0.5016732,0.1779876,0.5177498,1.479876,0.171066,-0.05758508,1.653422,0.286994,303.0492,76.15157,180.4526,True
7,2.977774,-0.06850824,-0.1280374,-0.08159143,4.631762,1.5205,-1.444809,0.2103667,1.443411,0.3515363,-0.8530435,0.6949025,11.93634,60.18856,0.03363378,0.0400896,0.08722209,-0.3072808,-0.8346366,-3.122493,0.3688952,1.506273,0.2728615,-0.0639714,-0.02648963,0.03598676,-1.37687,0.5018766,0.1795106,0.5174633,1.479911,0.1707525,-0.05934608,1.651965,0.2866531,302.5792,76.08575,180.4366,True
7,2.988885,-0.05887897,-0.1407822,-0.07411707,4.633795,1.519653,-1.444529,0.2103063,1.4439,0.3514082,-0.8439654,0.8179833,12.12201,59.88858,0.03576286,0.07736085,0.1000286,-0.3089091,-0.8416396,-3.116366,0.3688698,1.506417,0.2725382,-0.06724428,-0.004107584,0.02216925,-1.376861,0.5027536,0.1803823,0.5172548,1.479891,0.1703467,-0.0612591,1.650518,0.2863425,302.0951,75.95941,180.459,True
7,2.999996,-0.03861511,-0.1428272,-0.06135474,4.635364,1.51928,-1.444838,0.2103923,1.444379,0.351326,-0.8346608,0.8371581,12.33422,60.16713,0.04329054,0.0965418,0.1170297,-0.3107355,-0.847281,-3.111678,0.3688548,1.506561,0.2722318,-0.05776128,-0.01584279,0.009314612,-1.377318,0.5021135,0.180716,0.5168165,1.479907,0.1700206,-0.06331339,1.649071,0.2861275,301.5829,75.83371,180.531,True
7,3.011107,-0.01309402,-0.1267979,-0.06569044,4.636102,1.518368,-1.445573,0.2104021,1.444941,0.3513308,-0.8256636,0.8088225,12.36074,61.04564,0.06700893,0.05503415,0.1381115,-0.3129992,-0.8441568,-3.116266,0.3689081,1.506746,0.2720017,-0.0407272,-0.06380086,0.01663786,-1.377343,0.4997575,0.180985,0.5165368,1.479918,0.169718,-0.06547065,1.647616,0.2860106,301.0471,75.75452,180.6541,True
7,3.022218,-0.03552174,-0.1173223,-0.08805529,4.63689,1.516513,-1.444613,0.2104433,1.445235,0.3513558,-0.8161971,0.851522,12.25464,61.94558,0.07572663,0.006050035,0.1454539,-0.3148464,-0.8389924,-3.122345,0.3688572,1.50688,0.2716544,-0.05224443,-0.07657598,0.04654549,-1.37614,0.498051,0.1822217,0.5162652,1.479911,0.1694241,-0.06764171,1.646027,0.2859088,300.5335,75.65594,180.8601,True
7,3.033329,-0.07504377,-0.08444241,-0.1061922,4.636522,1.514724,-1.442512,0.2104316,1.445583,0.3513412,-0.8060036,0.9173543,12.06897,62.90979,0.06398368,0.01241186,0.1444855,-0.3164315,-0.8405099,-3.121185,0.368738,1.506997,0.271378,-0.06596022,-0.0616439,0.06262863,-1.374941,0.4976419,0.1835728,0.516048,1.479898,0.1691027,-0.06981131,1.644227,0.2857694,300.0148,75.4616,181.1189,True
7,3.04444,-0.1038392,-0.07279587,-0.1083033,4.636662,1.513538,-1.440362,0.2103513,1.445941,0.3514469,-0.7932907,1.146919,11.80371,63.91686,0.05935573,0.0635668,0.1147465,-0.3167708,-0.8485915,-3.113997,0.3685758,1.507117,0.2711763,-0.07545725,-0.03926182,0.07122204,-1.373776,0.4978691,0.1847946,0.5159187,1.47996,0.168715,-0.07209361,1.642224,0.2856488,299.4857,75.28796,181.277,True
7,3.055551,-0.1080253,-0.1026331,-0.1092811,4.638702,1.512089,-1.439393,0.2102614,1.446391,0.351562,-0.7808053,1.124088,11.53846,64.45254,0.06879993,0.07212782,0.09977114,-0.3174642,-0.8515186,-3.112262,0.368504,1.507175,0.2709401,-0.06385096,-0.03608254,0.05515689,-1.373877,0.4976244,0.1851224,0.5157394,1.479898,0.1683574,-0.0745225,1.640052,0.285661,298.8511,75.11485,181.394,True
7,3.066662,-0.1037087,-0.1303402,-0.1166716,4.640841,1.510228,-1.438533,0.2102854,1.446879,0.3518047,-0.769293,1.035326,11.29973,64.32397,0.092365,0.05087899,0.1080953,-0.3189615,-0.8508517,-3.114784,0.368507,1.507372,0.2706583,-0.05119108,-0.05740036,0.04121819,-1.374072,0.49621,0.1853837,0.5153847,1.479982,0.168159,-0.07709145,1.637901,0.2859145,298.1064,74.77061,181.7103,True
7,3.077773,-0.09723131,-0.1772356,-0.1314645,4.643969,1.50794,-1.437742,0.2104499,1.447386,0.3521082,-0.7587415,0.9479759,11.11406,63.35976,0.1117733,0.02108805,0.1281524,-0.3210627,-0.8484051,-3.118934,0.3684531,1.507496,0.2704108,-0.05557145,-0.07124072,0.02739802,-1.374475,0.4949772,0.1863837,0.5151411,1.48,0.1678827,-0.07967222,1.635818,0.2863849,297.3749,74.386,182.1993,True
7,3.088884,-0.09181374,-0.2220004,-0.1420074,4.647714,1.505497,-1.437056,0.2105541,1.447954,0.3521864,-0.7468542,1.07048,10.95491,61.53846,0.1073773,0.03706269,0.1154217,-0.3219581,-0.8510776,-3.117579,0.3684471,1.507697,0.2700813,-0.07264151,-0.06055893,0.02219421,-1.374492,0.4947312,0.18789,0.5149521,1.480014,0.1676502,-0.08216368,1.633708,0.2869409,296.7415,74.21043,182.5981,True
7,3.099995,-0.08218288,-0.2369352,-0.1483671,4.650851,1.503401,-1.436767,0.2107935,1.448533,0.3520167,-0.734478,1.113891,10.82228,59.2672,0.09995162,0.05726705,0.1272144,-0.3236971,-0.8552385,-3.114434,0.3684253,1.507909,0.2698112,-0.0831961,-0.05095924,0.0339914,-1.373742,0.494348,0.1892778,0.5147039,1.480038,0.1673803,-0.08453476,1.631488,0.2875143,296.1417,74.15229,182.8562,True
7,3.111106,-0.06406471,-0.2368777,-0.1430678,4.653306,1.501652,-1.436775,0.2109304,1.449035,0.3521867,-0.7219079,1.131187,10.79576,57.48875,0.1086278,0.06898087,0.1505995,-0.326299,-0.8584609,-3.113007,0.3683652,1.508142,0.269546,-0.07783467,-0.03712527,0.03608258,-1.373212,0.494318,0.1899497,0.5145292,1.479978,0.1670682,-0.08680874,1.629116,0.2880616,295.5359,74.18764,183.0137,True
7,3.122217,-0.04918681,-0.229404,-0.1526868,4.655234,1.499487,-1.43681,0.2108045,1.449343,0.3523488,-0.7094592,1.119843,10.95491,55.71031,0.09892599,0.07429183,0.1378984,-0.3274293,-0.8612564,-3.111153,0.3682909,1.50828,0.2693026,-0.06407308,-0.03180955,0.02320213,-1.373355,0.4942994,0.1901931,0.514276,1.480025,0.1668842,-0.0890725,1.626615,0.2885066,294.9059,74.1848,183.2514,True
7,3.133328,-0.04281911,-0.2219447,-0.1580024,4.65717,1.497811,-1.436682,0.2108402,1.449401,0.3522205,-0.6967394,1.144607,11.14058,53.8033,0.09135287,0.06683107,0.1209026,-0.3281755,-0.8626346,-3.110484,0.3681989,1.508419,0.2691097,-0.0565639,-0.04247962,0.03273513,-1.372871,0.4931788,0.1908493,0.5140536,1.480153,0.166656,-0.09133939,1.623971,0.288777,294.2405,74.04984,183.5771,True
7,3.144439,-0.0364358,-0.2198043,-0.1601484,4.659266,1.495657,-1.436611,0.2108048,1.449742,0.3523438,-0.683521,1.189835,11.32626,51.68202,0.1085981,0.05300668,0.1420637,-0.330534,-0.8627039,-3.112255,0.3680688,1.508552,0.2689538,-0.05226565,-0.05634229,0.04015964,-1.37233,0.4917789,0.1915263,0.5137422,1.48023,0.1663802,-0.09370748,1.621192,0.2889141,293.5827,73.88717,183.7836,True
7,3.15555,-0.03429395,-0.2229736,-0.1526761,4.661627,1.494057,-1.436265,0.2107218,1.450108,0.3524201,-0.670006,1.216558,11.40584,49.21791,0.1158293,0.04879731,0.1111104,-0.330722,-0.863897,-3.112606,0.3679182,1.50868,0.2688,-0.06190301,-0.06378026,0.03490703,-1.372195,0.4908662,0.1927226,0.5134237,1.480215,0.1660612,-0.09623719,1.618219,0.2890034,292.9476,73.69894,183.9623,True
7,3.166661,-0.0556042,-0.2090957,-0.134604,4.662884,1.49255,-1.434947,0.2106483,1.450999,0.3537304,-0.6565576,1.210223,11.45889,46.71095,0.1060013,0.03708681,0.07495598,-0.3302847,-0.863755,-3.113604,0.3676946,1.508784,0.2686203,-0.07463509,-0.0659024,0.04244744,-1.371846,0.4898493,0.1942092,0.5131296,1.480211,0.1658218,-0.09884457,1.614952,0.2890593,292.2377,73.40182,184.2808,True
7,3.177772,-0.08547579,-0.1867482,-0.1186613,4.663999,1.491212,-1.432948,0.2105748,1.451504,0.3539762,-0.6427869,1.239725,11.48541,44.20398,0.07950867,0.05616019,0.1018069,-0.3324046,-0.8675777,-3.109848,0.3674592,1.508796,0.2684207,-0.07777022,-0.05950196,0.04993437,-1.371022,0.4893688,0.1953557,0.5127812,1.480203,0.1656232,-0.1016043,1.611516,0.2891489,291.3836,73.06499,184.6357,True
7,3.188883,-0.1014942,-0.1568999,-0.09634449,4.664692,1.490782,-1.431308,0.2104327,1.451914,0.3540812,-0.6283654,1.299103,11.51194,41.71844,0.06892065,0.07422207,0.1168241,-0.3343061,-0.8717605,-3.106336,0.367292,1.508898,0.2682328,-0.05746893,-0.03822772,0.05405059,-1.370262,0.4894816,0.195219,0.5124595,1.480249,0.1653996,-0.1044941,1.60805,0.2893465,290.3611,72.61617,184.9895,True
7,3.199994,-0.1079201,-0.1398479,-0.0889101,4.665531,1.490066,-1.429916,0.210376,1.45231,0.3541758,-0.6143103,1.265251,11.48541,39.27576,0.06784719,0.07422417,0.1157687,-0.3355609,-0.8741147,-3.104861,0.3671714,1.508983,0.2680159,-0.03190843,-0.04251995,0.05386223,-1.369817,0.4888322,0.1948094,0.5121968,1.480336,0.1651571,-0.107451,1.604824,0.2898864,289.2316,71.88634,185.5371,True
7,3.211105,-0.1207348,-0.1206823,-0.07616651,4.66635,1.489401,-1.428151,0.2101744,1.452833,0.3539703,-0.6014824,1.153482,11.35279,36.98307,0.08300994,0.04334974,0.1369265,-0.3377341,-0.8720542,-3.108262,0.367062,1.509069,0.267843,-0.01712584,-0.05211967,0.03777674,-1.370036,0.4879989,0.1947224,0.5118622,1.480348,0.1650145,-0.1101757,1.60185,0.2907009,288.2901,70.84435,186.7102,True
7,3.222216,-0.1313632,-0.1260523,-0.07402678,4.668193,1.488071,-1.426561,0.2101475,1.453365,0.3536949,-0.5886385,1.155845,11.45889,34.99036,0.08099571,0.02096397,0.1443795,-0.3396841,-0.8700984,-3.110894,0.366957,1.509127,0.2676408,-0.01077716,-0.05212874,0.0313392,-1.369987,0.4873648,0.1947586,0.5115128,1.480415,0.1648116,-0.1125245,1.599112,0.2915861,287.6053,69.70396,188.181,True
7,3.233327,-0.1355693,-0.1462888,-0.06863701,4.670324,1.487206,-1.424947,0.2098109,1.454097,0.3537946,-0.5752977,1.201377,11.56498,33.12621,0.06174245,0.002818026,0.1263974,-0.340385,-0.8681535,-3.112802,0.3667446,1.509277,0.2673907,-0.02037202,-0.04466711,0.02821168,-1.369876,0.4869482,0.1952861,0.5112145,1.480417,0.1646066,-0.1145312,1.596585,0.2923548,287.0938,68.71449,189.5303,True
7,3.244438,-0.1408362,-0.1643836,-0.0579287,4.672679,1.486577,-1.423244,0.2095915,1.454894,0.353878,-0.5625475,1.14705,11.61804,31.30491,0.05138195,-0.01854677,0.1573437,-0.3429922,-0.865419,-3.115525,0.3664005,1.50952,0.2672257,-0.03103282,-0.04251627,0.02722771,-1.369613,0.4865895,0.1960939,0.5108708,1.480414,0.1643894,-0.1163571,1.594296,0.2928574,286.6462,67.9128,190.6483,True
7,3.255549,-0.1428591,-0.1984333,-0.04079148,4.676013,1.486227,-1.421599,0.2093023,1.455887,0.3539867,-0.5499593,1.133043,11.64456,29.50503,0.03339455,-0.01967867,0.1745248,-0.3455047,-0.8647255,-3.115873,0.3661844,1.5096,0.2670119,-0.02783656,-0.04252608,0.02720438,-1.36941,0.4859688,0.1963961,0.5105227,1.480456,0.1642017,-0.1180741,1.59219,0.2930248,286.1776,67.58102,191.1467,True
7,3.26666,-0.2109564,-0.2294741,-0.03527308,4.679561,1.485572,-1.417033,0.2089861,1.456573,0.3540723,-0.537501,1.121335,11.56498,27.66231,0.01867202,-0.02507436,0.1970049,-0.3483393,-0.8631276,-3.11719,0.3659096,1.509825,0.2667651,-0.0172011,-0.05105847,0.02712981,-1.369192,0.4850987,0.196479,0.5101849,1.480399,0.163975,-0.1185344,1.591604,0.2929155,286.0171,68.39527,190.2003,True
7,3.277771,-0.2940657,-0.2168545,-0.02345921,4.681318,1.485358,-1.41103,0.2085794,1.457463,0.3541367,-0.5255024,1.079696,11.43236,25.88386,0.001981303,-0.01560096,0.2493407,-0.3527218,-0.8629486,-3.116661,0.3655542,1.509864,0.2666259,-0.01084427,-0.06172784,0.02388037,-1.369349,0.4838589,0.1965634,0.5097619,1.4804,0.1638222,-0.1187017,1.591362,0.2926824,285.9638,69.49485,189.0258,True
7,3.288882,-0.3206787,-0.2158253,-0.007436797,4.683931,1.485441,-1.406685,0.2081091,1.458277,0.353756,-0.5109019,1.31821,11.29973,24.6411,0.002774388,-0.008105114,0.2163175,-0.3541232,-0.8632671,-3.116389,0.3652441,1.510009,0.2664571,-0.03105101,-0.05849999,0.02829212,-1.368942,0.4833489,0.1977621,0.5093871,1.4804,0.1637456,-0.1188837,1.591206,0.2924069,285.9686,70.38945,188.0436,True
7,3.299993,-0.3408091,-0.2477633,0.01824364,4.687854,1.485768,-1.402303,0.207638,1.459485,0.3537102,-0.4980671,1.155215,11.14058,24.01971,0.01863341,-0.00698901,0.2023442,-0.355745,-0.8626314,-3.117601,0.3649033,1.51022,0.2662542,-0.05019406,-0.05102114,0.03055687,-1.368687,0.4829218,0.1989456,0.5089746,1.480417,0.1636012,-0.1191611,1.591196,0.2921142,285.8827,71.12949,187.2027,True
7,3.311104,-0.3535573,-0.2659176,0.01298393,4.69137,1.485141,-1.397943,0.207271,1.460625,0.3537455,-0.4889654,0.8157555,10.90185,23.95543,0.02945828,-0.03360553,0.213953,-0.3585595,-0.8588212,-3.121972,0.3646631,1.510471,0.2659929,-0.05663037,-0.04248259,0.02315365,-1.368609,0.4827989,0.1997957,0.5085266,1.480463,0.1633563,-0.1196319,1.591391,0.2918416,285.6486,71.28111,186.9967,True
7,3.322215,-0.3726409,-0.3139359,-0.0006978996,4.696212,1.483893,-1.393169,0.2070093,1.46187,0.3537412,-0.4788577,0.9108176,10.74271,24.42683,0.03639269,-0.06455367,0.2756576,-0.3637665,-0.853361,-3.127502,0.3645605,1.510626,0.2656105,-0.05254588,-0.02756473,-0.003502427,-1.369361,0.4832231,0.2002311,0.5080156,1.48058,0.1633317,-0.1202178,1.591631,0.2914634,285.4605,71.44657,186.8689,True
7,3.333326,-0.3820849,-0.3821665,-0.0111504,4.702549,1.482319,-1.38852,0.2066992,1.463349,0.3537979,-0.468849,0.9007793,10.66313,25.34819,0.0356099,-0.06460205,0.3161333,-0.3683967,-0.8512307,-3.129542,0.3641201,1.510725,0.2653058,-0.0589529,-0.02222852,-0.006652957,-1.369569,0.4831646,0.2010934,0.5075018,1.480625,0.1632278,-0.1209037,1.591946,0.2909504,285.2743,72.24433,186.0688,True
7,3.344437,-0.3766489,-0.4268872,-0.008905351,4.70866,1.481222,-1.3845,0.2063472,1.464769,0.3538346,-0.4588275,0.9025401,10.58355,26.67667,0.006816834,-0.0412502,0.3195762,-0.3719978,-0.8518443,-3.12827,0.3637238,1.510898,0.2650781,-0.06527421,-0.02222004,0.002980817,-1.369224,0.4828583,0.2021219,0.5069857,1.480556,0.1631944,-0.1227294,1.592494,0.2904921,285.8859,73.50011,184.8924,True
7,3.355548,-0.3808007,-0.469492,-0.003465936,-1.568086,1.480098,-1.380121,0.2059069,1.466349,0.3539209,-0.4496987,0.8211232,10.55703,28.41226,-0.004769593,-0.02853806,0.3452471,-0.3767265,-0.8515431,-3.127805,0.3633316,1.511234,0.2648151,-0.06957439,-0.01049847,-0.00444461,-1.369484,0.4831053,0.2029997,0.5064909,1.480603,0.1631026,-0.1261387,1.591904,0.2900534,285.7718,73.35609,185.0555,True
7,3.366659,-0.418088,-0.454608,0.01892234,-1.563419,1.480168,-1.37422,0.2053821,1.467814,0.3538933,-0.4415718,0.7305565,10.50398,30.23356,-0.01408163,-0.007310525,0.3879524,-0.3824539,-0.8527175,-3.126461,0.3629324,1.511382,0.2647181,-0.05898106,-0.004115148,-0.01410951,-1.369941,0.4834554,0.2031749,0.5059637,1.48059,0.163028,-0.127202,1.592496,0.2898075,285.3658,73.72768,184.4803,True
7,3.37777,-0.4809861,-0.4173853,0.05088191,-1.559947,1.481076,-1.366813,0.204808,1.469337,0.3538539,-0.4328686,0.7841997,10.4244,31.43347,0.0034163,-0.04248048,0.4378513,-0.3889951,-0.8477438,-3.131441,0.3626646,1.511528,0.2645237,-0.03658485,-0.0126773,-0.01001923,-1.370111,0.4828842,0.2028165,0.5055473,1.480626,0.1629689,-0.1288547,1.59275,0.2895143,285.3353,74.6406,183.5531,True
7,3.388881,-0.5416999,-0.412167,0.0648087,-1.55547,1.481311,-1.35883,0.204141,1.470993,0.3538516,-0.4232668,0.866048,10.26525,31.99057,-0.008340061,-0.06593359,0.4229999,-0.3930495,-0.8435233,-3.134975,0.362282,1.511655,0.2643232,-0.008796748,-0.03721214,0.006819893,-1.369666,0.4816473,0.202262,0.5050516,1.48068,0.1628408,-0.1299619,1.592991,0.2891918,285.0342,75.39001,182.8086,True
7,3.399992,-0.5671983,-0.4356391,0.07450356,-1.549717,1.481256,-1.351762,0.2036123,1.4727,0.3538175,-0.4141104,0.8251464,9.999999,32.05486,-0.005207211,-0.09253616,0.4080371,-0.396975,-0.8386004,-3.139181,0.3618904,1.511842,0.2641799,-0.0002049925,-0.04894426,0.01847345,-1.369265,0.4805929,0.2021699,0.5044686,1.48072,0.1627865,-0.1310845,1.593305,0.2888185,284.6273,76.03851,182.2659,True
7,3.411103,-0.573466,-0.4846452,0.07996467,-1.542542,1.480707,-1.345229,0.2029881,1.474591,0.3537502,-0.4064389,0.6901668,9.655171,31.84058,0.01118407,-0.1330093,0.4451527,-0.4031898,-0.8315558,3.136555,0.3614996,1.512213,0.2639534,-0.01411454,-0.04891959,0.01005594,-1.369473,0.4801907,0.2028769,0.5038524,1.480768,0.1627345,-0.1323877,1.59377,0.2883849,284.0542,76.71613,181.7678,True
7,3.422215,-0.5722961,-0.5315232,0.07689688,-1.535115,1.479809,-1.338921,0.2024831,1.476473,0.3536243,-0.4007397,0.5112663,9.363397,31.24062,-0.02311116,-0.1341672,0.4219528,-0.4068154,-0.8272609,3.134422,0.3611281,1.512383,0.263689,-0.03119856,-0.03824142,0.002725177,-1.369706,0.480196,0.2037947,0.5032817,1.480783,0.1626871,-0.133934,1.594326,0.2878799,283.3445,77.79361,180.8618,True
