loc,t,aDotS,bDotS,gDotS,aS,bS,gS,xS,yS,zS,qE,qDotE,emgA,emgB,aDotSH,bDotSH,gDotSH,aSH,bSH,gSH,xSH,ySH,zSH,aDotUB,bDotUB,gDotUB,aUB,bUB,gUB,xUB,yUB,zUB,xHand,yHand,zHand,aHand,bHand,gHand,enable
2,0,0.4095177,-0.2894899,0.4120197,-1.469138,1.524196,-2.813919,0.3645014,1.198,0.4689076,-1.494911,-0.04203403,13.5809,14.09899,-0.4227902,0.56698,-0.3970124,-0.6788637,-3.639797,-0.5282806,0.3500341,1.402366,0.4005928,0.1387812,0.3981761,0.4605748,-1.05291,0.4659936,-0.2525204,0.4985792,1.493876,0.2521226,0.06504038,1.167208,0.4011462,277.934,262.854,356.8939,True
2,0.01111111,0.4084412,-0.2702979,0.4226387,-1.473169,1.528147,-2.818808,0.3635744,1.196727,0.4676535,-1.49514,-0.02045913,13.28912,14.14185,-0.4066303,0.5212093,-0.3886591,-0.6845123,-3.637127,-0.5263679,0.3484016,1.401307,0.4001107,0.1491628,0.3768615,0.4274794,-1.050134,0.4710885,-0.2569934,0.4970672,1.493853,0.252311,0.06467353,1.165594,0.3995538,278.1397,269.1443,350.4485,True
2,0.02222222,0.4073581,-0.2468396,0.4321831,-1.477542,1.531607,-2.823568,0.3629715,1.195424,0.4665451,-1.496049,-0.08274397,13.10345,14.22755,-0.3541498,0.4243996,-0.3848774,-0.6887265,-3.638632,-0.5230299,0.3470329,1.400361,0.3996193,0.1564598,0.3704712,0.4050497,-1.047516,0.4768066,-0.2619038,0.4956903,1.493892,0.2525988,0.06419852,1.162921,0.3969294,278.6072,270.9575,348.3161,True
2,0.03333334,0.4073052,-0.2266288,0.4172166,-1.48078,1.534596,-2.828312,0.3622069,1.194241,0.4653511,-1.496166,-0.009889432,12.9443,14.37754,-0.3242494,0.3946485,-0.3861863,-0.6941913,-3.637306,-0.521448,0.3454815,1.399382,0.3991592,0.164935,0.3789944,0.3985879,-1.044596,0.4832467,-0.2671326,0.4941787,1.493904,0.2528062,0.06368853,1.159492,0.393497,279.3024,271.312,347.3978,True
2,0.04444445,0.4040567,-0.2213638,0.390578,-1.48339,1.537838,-2.83299,0.3615403,1.193085,0.4642258,-1.496209,-0.003879896,12.86472,14.57039,-0.2795478,0.3819985,-0.3961056,-0.7002777,-3.635816,-0.5209916,0.3439493,1.398456,0.3986397,0.1767231,0.3758015,0.4080875,-1.041008,0.4895174,-0.2726736,0.492737,1.493981,0.2529986,0.06317564,1.15563,0.3895856,280.1524,271.4374,346.4877,True
2,0.05555556,0.4051025,-0.2320386,0.3735452,-1.48595,1.541637,-2.837702,0.360932,1.191855,0.4632227,-1.496349,-0.01266974,12.81167,14.76323,-0.2679061,0.3926872,-0.4036472,-0.7069302,-3.633066,-0.5204304,0.342443,1.397305,0.3980412,0.191776,0.354496,0.4303528,-1.036532,0.4950579,-0.2780979,0.4913406,1.49394,0.2531245,0.06280521,1.151662,0.385582,281.0507,271.3781,345.6758,True
2,0.06666667,0.4082835,-0.2384582,0.3586369,-1.488444,1.545436,-2.842698,0.3602357,1.190674,0.4621437,-1.496371,-0.001821168,12.78515,14.89179,-0.2775578,0.4267514,-0.4003451,-0.7136403,-3.628551,-0.5204206,0.3410037,1.396162,0.397445,0.1984329,0.3214735,0.4718574,-1.030937,0.5000132,-0.2829952,0.4899996,1.493872,0.2532134,0.06248087,1.14789,0.3818257,281.8817,270.9992,345.2566,True
2,0.07777778,0.423147,-0.2395566,0.3341207,-1.490527,1.548916,-2.84814,0.3596331,1.189614,0.4613297,-1.496443,-0.006556924,12.7321,14.95607,-0.2851144,0.4757156,-0.3959989,-0.7209081,-3.62291,-0.5211897,0.3395222,1.395171,0.396836,0.200746,0.3076279,0.4984763,-1.025576,0.5054596,-0.2881378,0.4885833,1.493851,0.2532957,0.06226532,1.144512,0.3785571,282.5539,270.6583,344.9516,True
2,0.08888889,0.4252586,-0.2449152,0.318147,-1.492524,1.552559,-2.85325,0.359013,1.188477,0.4604049,-1.496803,-0.03286589,12.65252,15.06321,-0.2819259,0.4980843,-0.3885399,-0.7275096,-3.617863,-0.5219777,0.3380939,1.394057,0.3962493,0.2063822,0.2916621,0.5431861,-1.01928,0.5112533,-0.2936172,0.4871809,1.493734,0.2533731,0.06215461,1.141621,0.3758732,283.0251,270.724,344.4573,True
2,0.1,0.42947,-0.2428423,0.2872409,-1.493949,1.555637,-2.85849,0.3585083,1.187389,0.4597034,-1.497344,-0.04911225,12.54642,15.17034,-0.2732605,0.5161957,-0.363009,-0.733409,-3.611931,-0.5237516,0.3367773,1.393029,0.3956518,0.2043394,0.2831558,0.5559869,-1.013845,0.5169151,-0.2988112,0.4858207,1.493712,0.2534206,0.06207404,1.139214,0.3737494,283.3199,271.093,343.8649,True
2,0.1111111,0.4188056,-0.2386307,0.2712663,-1.495717,1.558771,-2.863175,0.3578936,1.186322,0.458884,-1.497046,0.02755392,12.41379,15.29891,-0.2613345,0.5268474,-0.3311234,-0.7387044,-3.605999,-0.5257487,0.335646,1.391953,0.3950911,0.1947213,0.2650588,0.5539304,-1.00885,0.5217153,-0.303198,0.4845572,1.49357,0.253408,0.06204558,1.137188,0.3721336,283.4601,271.5609,343.3073,True
2,0.1222222,0.3835551,-0.2302131,0.2404732,-1.496597,1.561566,-2.866451,0.3575538,1.185345,0.4581275,-1.497167,-0.01133412,12.25464,15.44889,-0.2409824,0.5364584,-0.3152958,-0.7443684,-3.600587,-0.5279584,0.3345547,1.391188,0.3943934,0.1817642,0.2469571,0.5337908,-1.004487,0.5259756,-0.3070076,0.4834244,1.493501,0.2532532,0.06203283,1.135396,0.3708945,283.4979,272.1342,342.7575,True
2,0.1333333,0.3622224,-0.2164188,0.2297917,-1.498169,1.563883,-2.869851,0.3572538,1.184533,0.4573371,-1.496631,0.04913382,12.06897,15.59888,-0.2141698,0.5098811,-0.3016512,-0.7491509,-3.596722,-0.5293919,0.3335511,1.390362,0.3940644,0.1719416,0.2363151,0.5018935,-1.001026,0.5302079,-0.3109195,0.4822542,1.493377,0.2531762,0.06203068,1.133682,0.3699214,283.5035,272.6838,342.27,True
2,0.1444445,0.3408765,-0.2058514,0.2159237,-1.499132,1.56621,-2.873,0.3570073,1.183525,0.4565046,-1.495262,0.1248077,11.90981,15.7703,-0.1798922,0.4545553,-0.2945084,-0.7532693,-3.595076,-0.5296425,0.3326272,1.389531,0.3936939,0.1661082,0.2309788,0.4337567,-0.9994093,0.5337744,-0.3144565,0.4813312,1.493288,0.2529743,0.06198842,1.131938,0.3690616,283.559,273.2904,341.7794,True
2,0.1555556,0.3301474,-0.1888837,0.1935056,-1.49968,1.567976,-2.876291,0.3568984,1.182851,0.4557409,-1.495441,-0.01729573,11.75066,15.85601,-0.1209957,0.3630888,-0.2885941,-0.755942,-3.59611,-0.5297853,0.3319463,1.38891,0.3934255,0.1538809,0.2213999,0.3635206,-0.9986082,0.5369827,-0.3176368,0.4805428,1.493278,0.2528126,0.06198336,1.130154,0.3681901,283.7419,273.6616,341.507,True
2,0.1666667,0.3258366,-0.172919,0.1828549,-1.501347,1.569838,-2.879722,0.3567013,1.182066,0.4552522,-1.495429,0.00152856,11.64456,15.89886,-0.07368425,0.2470834,-0.2720152,-0.7577668,-3.599182,-0.5282521,0.3311855,1.388309,0.393141,0.1375882,0.1958377,0.3252985,-0.9967738,0.539307,-0.319839,0.4796708,1.493099,0.2527084,0.06202789,1.128392,0.3672241,283.9793,273.9629,341.272,True
2,0.1777778,0.3151347,-0.1559226,0.1636749,-1.502434,-4.711854,-2.88306,0.3565849,1.181755,0.4547338,-1.49579,-0.03295665,11.59151,15.92029,-0.04564093,0.2215455,-0.2338837,-0.7596645,-3.598021,-0.5295781,0.3305566,1.387652,0.3925555,0.1149016,0.1638944,0.287118,-0.9951019,0.5408903,-0.3211852,0.4788038,1.49307,0.2525368,0.06215285,1.126657,0.3661026,284.1997,274.0916,341.1498,True
2,0.1888889,0.3044342,-0.1400181,0.1412711,-1.502754,-4.710628,-2.886368,0.3563356,1.181454,0.4541512,-1.49612,-0.02974743,11.56498,15.92029,-0.03619516,0.246091,-0.2445772,-0.7642639,-3.59554,-0.5311581,0.3297985,1.387185,0.3920763,0.1020881,0.1756247,0.2818903,-0.9929032,0.5447931,-0.3240201,0.478018,1.49298,0.2522972,0.06236951,1.124993,0.3648571,284.4375,274.0079,341.1024,True
2,0.2,0.2755755,-0.1230902,0.100819,-1.502636,-4.709837,-2.888471,0.3562987,1.181176,0.4536781,-1.496203,-0.007319106,11.61804,15.89886,-0.03523576,0.25676,-0.2552194,-0.768567,-3.593864,-0.5319965,0.3291693,1.386541,0.3913424,0.1105415,0.2043814,0.2668977,-0.9916616,0.5494559,-0.3281739,0.4773706,1.492968,0.2519462,0.06260484,1.123432,0.3635734,284.6993,274.0654,340.8189,True
2,0.2111111,0.2446261,-0.1050823,0.07422566,-1.502684,-4.709034,-2.890444,0.3560477,1.180763,0.4531951,-1.496298,-0.00849804,11.69761,15.85601,-0.04587695,0.3035882,-0.2359144,-0.772665,-3.589205,-0.5344416,0.3287805,1.386136,0.390758,0.1145936,0.1947812,0.2402429,-0.9905159,0.5521701,-0.3310584,0.4766861,1.492894,0.2516055,0.06280703,1.122039,0.3623233,284.9911,273.9811,340.6954,True
2,0.2222222,0.1923236,-0.07858758,0.03593059,-1.502199,-4.709239,-2.890733,0.3560669,1.180718,0.4528613,-1.495257,0.09528244,11.75066,15.83458,-0.03496683,0.3099617,-0.1965686,-0.7752696,-3.585429,-0.5370376,0.3284169,1.385917,0.3902481,0.09938632,0.1330084,0.2084068,-0.9891886,0.5521833,-0.3317343,0.4762633,1.492889,0.2511401,0.06293456,1.120824,0.3611766,285.2074,273.6704,340.8236,True
2,0.2333333,0.1571063,-0.0605901,0.01144317,-1.501378,-4.709258,-2.891398,0.3560192,1.180762,0.4524209,-1.495191,0.005305865,11.83024,15.87744,-0.0207485,0.3014213,-0.1476754,-0.7768031,-3.58192,-0.5398174,0.3279898,1.385731,0.3897617,0.07577458,0.09894577,0.1872769,-0.9879001,0.5530155,-0.3324158,0.4756535,1.492821,0.2507079,0.06301382,1.119798,0.3602178,285.3561,273.3425,340.9854,True
2,0.2444444,0.08032016,-0.02664959,-0.009799648,-1.5009,-4.710262,-2.889595,0.3560817,1.181184,0.4522159,-1.493847,0.1230996,11.90981,16.02742,0.01384786,0.2886493,-0.07975409,-0.7770337,-3.577635,-0.5440489,0.3279312,1.385796,0.3893826,0.04791391,0.05955181,0.1704481,-0.9864429,0.5527702,-0.3318781,0.475273,1.492863,0.250097,0.06299236,1.118966,0.3594905,285.4582,273.1538,341.0514,True
2,0.2555556,0.03445328,-0.01182712,-0.025727,-1.500404,-4.710698,-2.888376,0.3561372,1.181437,0.4518881,-1.49439,-0.05036369,11.93634,16.19884,0.0726057,0.2504421,-0.07062324,-0.7781613,-3.576109,-0.5479422,0.3280155,1.385941,0.3889894,0.03619805,0.04571676,0.1737425,-0.9844077,0.5538139,-0.3324277,0.4748397,1.492954,0.2495034,0.06293713,1.118409,0.3590521,285.6189,272.9234,341.2232,True
2,0.2666667,-0.0444736,0.01568798,-0.0597447,-1.498921,-4.712238,-2.885057,0.3561149,1.182052,0.4517031,-1.492471,0.176242,11.90981,16.28455,0.100278,0.2239002,-0.08362959,-0.7803349,-3.575162,-0.5504909,0.3280349,1.386094,0.3885822,0.02540044,0.0190961,0.1567793,-0.9831581,0.5535848,-0.332298,0.47462,1.492994,0.2488086,0.06287241,1.118204,0.3588962,285.7626,272.6738,341.4896,True
2,0.2777778,-0.1297769,0.04103765,-0.1022463,-1.497154,1.569502,-2.881207,0.3559614,1.182677,0.451596,-1.493265,-0.07381219,11.85676,16.30598,0.1389908,0.1515351,-0.05947765,-0.7797256,-3.576199,-0.5526847,0.3282985,1.386538,0.3883011,0.01459878,-0.02990324,0.1430247,-0.9814649,0.5519025,-0.3312456,0.4745753,1.493088,0.2480698,0.06274083,1.11849,0.3590288,285.9074,272.5522,341.6906,True
2,0.2888889,-0.2310886,0.05889782,-0.151129,-1.494215,1.567567,-2.875298,0.3558086,1.183603,0.4515808,-1.491892,0.1267113,11.80371,16.2417,0.1738149,0.07803857,0.01689852,-0.7764201,-3.576087,-0.5557975,0.3286421,1.387162,0.3880346,0.0005659461,-0.08315948,0.1250312,-0.9798403,0.5490127,-0.329156,0.4744441,1.493109,0.2472847,0.0625641,1.119301,0.3593639,285.8704,272.5239,341.891,True
2,0.3,-0.3270714,0.08956775,-0.1904596,-1.491551,1.564835,-2.86851,0.3554091,1.184537,0.451587,-1.491784,0.009137657,11.77719,16.07028,0.2190347,0.01738742,0.0623285,-0.7735141,-3.576426,-0.5593794,0.3291025,1.387768,0.3878012,-0.02223651,-0.150258,0.07514714,-0.9794686,0.5442489,-0.3254817,0.4744889,1.493189,0.2463148,0.06219324,1.120666,0.3598648,285.7309,272.3126,342.2646,True
2,0.3111111,-0.3761336,0.102239,-0.2138539,-1.489032,1.562383,-2.862644,0.3551124,1.18547,0.4516613,-1.490458,0.1218063,11.72414,15.81315,0.2448182,-0.01345848,0.08129002,-0.771661,-3.57668,-0.5627515,0.3294867,1.388352,0.3874841,-0.03751402,-0.199259,0.03266113,-0.9792486,0.5395053,-0.3218681,0.4746375,1.493272,0.2453895,0.06161042,1.122582,0.3605071,285.4594,271.964,342.7594,True
2,0.3222222,-0.4433327,0.1148138,-0.2638623,-1.485318,1.559572,-2.855278,0.3544083,1.186745,0.4519384,-1.490271,0.01657452,11.69761,15.47032,0.2706659,-0.05389175,0.1055662,-0.7691065,-3.577457,-0.5660269,0.3299793,1.38914,0.3870492,-0.04207167,-0.230153,-0.004587896,-0.9794446,0.5351157,-0.31897,0.4748996,1.493378,0.2444434,0.06078155,1.125067,0.3612902,285.1195,271.4146,343.4338,True
2,0.3333333,-0.5318617,0.1220917,-0.2934965,-1.481974,1.556648,-2.846195,0.3537903,1.188216,0.4522247,-1.49195,-0.1529562,11.67109,15.10606,0.2729437,-0.04219267,0.1311325,-0.7671347,-3.575647,-0.5703301,0.3306502,1.390082,0.3867543,-0.04332983,-0.2514673,-0.02800857,-0.9793631,0.530631,-0.3159721,0.4750351,1.493433,0.2434931,0.05970094,1.128123,0.362231,284.6647,270.943,344.0489,True
2,0.3444445,-0.6533672,0.1516623,-0.3274864,-1.478414,1.552974,-2.835047,0.3530238,1.189855,0.4526434,-1.491379,0.05404845,11.67109,14.72038,0.2678156,-0.01774782,0.1684784,-0.7648396,-3.57249,-0.5753214,0.3315977,1.391063,0.3865237,-0.05426042,-0.2759661,-0.06307957,-0.9800843,0.5254348,-0.3121941,0.4754347,1.493469,0.2423859,0.05858123,1.131623,0.3633062,284.0482,270.5342,344.6357,True
2,0.3555556,-0.7546571,0.1855384,-0.3529753,-1.475035,1.548508,-2.8229,0.3523321,1.191497,0.4530072,-1.490311,0.09753025,11.64456,14.39897,0.2711874,-0.02308941,0.1908227,-0.7621578,-3.570754,-0.5797864,0.3325396,1.392038,0.386225,-0.07477917,-0.3111072,-0.09700793,-0.9808225,0.5194311,-0.3074417,0.4759226,1.49362,0.2413154,0.05728196,1.13546,0.3645036,283.4147,269.8579,345.4746,True
2,0.3666667,-0.9284559,0.2501535,-0.4061089,-1.470753,1.541944,-2.8063,0.3515314,1.193419,0.4535735,-1.48905,0.1151641,11.64456,14.16327,0.2943054,-0.1030091,0.2662158,-0.7554429,-3.571187,-0.5835388,0.3341047,1.39362,0.3860326,-0.08163154,-0.3984768,-0.1470053,-0.9816726,0.5098181,-0.3008616,0.4766507,1.493846,0.2400653,0.05583962,1.139631,0.3658183,282.8366,269.0768,346.4168,True
2,0.3777778,-1.14597,0.3178662,-0.465585,-1.465923,1.534158,-2.785879,0.3503665,1.195715,0.454179,-1.488957,0.008225786,11.64456,14.01328,0.3301902,-0.1967335,0.3340456,-0.747741,-3.572726,-0.5872204,0.3354367,1.395202,0.3859205,-0.08082777,-0.4453568,-0.1768313,-0.9826186,0.5014749,-0.2954306,0.4772487,1.494021,0.2389874,0.05420196,1.144218,0.3672701,282.2847,268.1589,347.5038,True
2,0.3888889,-1.235533,0.3517853,-0.4868304,-1.462077,1.527429,-2.768843,0.3494943,1.197768,0.4548023,-1.485828,0.2869554,11.67109,13.92758,0.3702759,-0.3138569,0.3847696,-0.7391822,-3.576559,-0.5897589,0.3368183,1.396873,0.3858404,-0.09191096,-0.5039512,-0.2268009,-0.9843757,0.4914947,-0.2884699,0.478049,1.494232,0.2377555,0.05244311,1.149285,0.3688993,281.6678,267.0085,348.8289,True
2,0.4,-1.341091,0.3984647,-0.5027475,-1.458706,1.519597,-2.749792,0.3482482,1.200302,0.4556406,-1.483179,0.240614,11.69761,13.88472,0.3940691,-0.3830667,0.4090329,-0.7312406,-3.580156,-0.5922101,0.3382211,1.398467,0.3856709,-0.1103329,-0.5337712,-0.2650088,-0.9865425,0.482164,-0.2814969,0.4788293,1.494398,0.2365403,0.05030498,1.155047,0.3708322,281.0817,265.309,350.6774,True
2,0.4111111,-1.395465,0.4207473,-0.5123016,-1.455141,1.512255,-2.731745,0.3471925,1.202822,0.4563534,-1.487708,-0.4148,11.80371,14.07757,0.4254467,-0.4746318,0.4427981,-0.7217742,-3.585214,-0.5942895,0.3399232,1.400327,0.3855333,-0.1394907,-0.5646473,-0.3137881,-0.9894949,0.4720997,-0.273345,0.4798437,1.49458,0.2352607,0.04774076,1.161844,0.373163,280.4651,263.2771,352.9498,True
2,0.4222222,-1.462653,0.4504331,-0.531436,-1.451665,1.50405,-2.712372,0.3458516,1.205689,0.4572728,-1.487684,0.006994035,11.85676,14.27041,0.4482363,-0.5449122,0.4755985,-0.7118683,-3.590181,-0.5962133,0.3415492,1.40219,0.3851705,-0.1675286,-0.5848722,-0.3572492,-0.9927817,0.4621891,-0.2651915,0.4808913,1.494801,0.233979,0.04539144,1.169643,0.3758432,279.4757,261.2525,355.3579,True
2,0.4333333,-1.523444,0.4630714,-0.5707907,-1.446922,1.49565,-2.692614,0.3447424,1.208718,0.4581594,-1.489694,-0.1833906,11.88329,14.39897,0.4507593,-0.5630594,0.5234896,-0.7021728,-3.592322,-0.5996999,0.3431247,1.404009,0.3849528,-0.1881677,-0.6029811,-0.4082316,-0.9968745,0.4518701,-0.2568672,0.482029,1.494911,0.2326851,0.0432106,1.178332,0.378799,278.2503,259.012,358.0856,True
2,0.4444444,-1.571434,0.4672008,-0.6005536,-1.442367,1.487392,-2.672394,0.3434738,1.211672,0.4590976,-1.489698,0.00183721,11.88329,14.44182,0.4524624,-0.5972483,0.5990874,-0.6900479,-3.594123,-0.6036843,0.3447607,1.406121,0.3849404,-0.2012095,-0.6253492,-0.4400882,-1.000756,0.4411845,-0.2484,0.4830933,1.495009,0.231457,0.04136357,1.187642,0.3818853,276.8151,255.3994,2.25454,True
2,0.4555556,-1.636492,0.469138,-0.6611845,-1.436213,1.478362,-2.650889,0.342297,1.214952,0.4601765,-1.49024,-0.04905178,11.80371,14.39897,0.4464586,-0.6239439,0.6438455,-0.6782634,-3.596582,-0.6065586,0.3463551,1.408126,0.3846629,-0.2057844,-0.6477324,-0.4783928,-1.005157,0.430079,-0.2400038,0.4842538,1.495019,0.2301364,0.03965055,1.197361,0.3850286,275.389,249.0933,9.085866,True
2,0.4666667,-1.702629,0.4828044,-0.7079912,-1.430764,1.468508,-2.628398,0.3411595,1.218334,0.4612989,-1.490702,-0.04129466,11.72414,14.35612,0.4225779,-0.6379446,0.7249711,-0.6649514,-3.596718,-0.6103894,0.3480362,1.410345,0.3841665,-0.212517,-0.655202,-0.5230829,-1.010481,0.4192973,-0.2316415,0.4854621,1.495115,0.2289205,0.03813667,1.20725,0.3881594,274.1147,237.1751,21.50718,True
2,0.4777778,-1.766614,0.4901034,-0.7409328,-1.425558,1.458846,-2.605437,0.339995,1.221905,0.4624798,-1.490418,0.02693018,11.67109,14.35612,0.3910408,-0.6018823,0.7976761,-0.6525879,-3.593169,-0.6162233,0.3497043,1.41245,0.3838184,-0.2363392,-0.6541308,-0.5751054,-1.016753,0.4090132,-0.22295,0.4867098,1.49518,0.2276771,0.03673017,1.217118,0.391225,273.2204,216.4596,42.68687,True
2,0.4888889,-1.809237,0.5007002,-0.7515539,-1.42132,1.449205,-2.583148,0.3388921,1.225475,0.4636378,-1.490367,0.004946866,11.61804,14.33469,0.3870885,-0.5827681,0.8477963,-0.640348,-3.590296,-0.6225898,0.3513893,1.414615,0.3833144,-0.2546465,-0.6551821,-0.6005389,-1.022508,0.3988776,-0.2141349,0.4879352,1.495271,0.2264857,0.03538227,1.226887,0.3942326,273.104,189.7713,69.76323,True
2,0.5,-1.836975,0.5123477,-0.7664496,-1.417022,1.439151,-2.560348,0.3377029,1.229211,0.4648349,-1.490735,-0.03308207,11.56498,14.1847,0.4002631,-0.6040834,0.8945473,-0.6269294,-3.589562,-0.6281438,0.3534262,1.416584,0.3828485,-0.276261,-0.6679629,-0.6397887,-1.029079,0.387795,-0.2046591,0.489307,1.495362,0.2251999,0.03406867,1.236612,0.397245,273.602,168.9647,90.91591,True
2,0.5111111,-1.838108,0.5261418,-0.7770859,-1.4132,1.428892,-2.538686,0.3367999,1.232714,0.466028,-1.492233,-0.1360714,11.59151,14.1847,0.4274333,-0.6616275,0.9486068,-0.611654,-3.589991,-0.6333665,0.3555507,1.418724,0.3824005,-0.291367,-0.6881925,-0.6620464,-1.035296,0.3765152,-0.195068,0.4906756,1.49535,0.2239923,0.03283538,1.246393,0.4002742,274.3624,155.5939,104.6656,True
2,0.5222223,-1.845623,0.5666229,-0.8006389,-1.409628,1.416985,-2.516275,0.3358153,1.236444,0.4671683,-1.492621,-0.03388405,11.64456,14.27041,0.4395162,-0.7031605,0.985781,-0.5965284,-3.590288,-0.6382979,0.357353,1.420815,0.3819575,-0.3084956,-0.7126807,-0.6693673,-1.041151,0.364977,-0.1852639,0.4919704,1.49531,0.2227912,0.03178583,1.256259,0.4032957,275.2645,146.128,114.5573,True
2,0.5333334,-1.875653,0.6251259,-0.8358543,-1.406331,1.402779,-2.491812,0.3352486,1.240382,0.4683199,-1.494356,-0.158139,11.67109,14.44182,0.4410223,-0.7479522,1.031539,-0.5802964,-3.590487,-0.6430543,0.3592797,1.422961,0.3815026,-0.3189968,-0.7456893,-0.6447815,-1.045634,0.3530714,-0.1754309,0.4932925,1.495288,0.2216396,0.03094056,1.266227,0.406294,276.3146,139.3794,121.7426,True
2,0.5444446,-1.898117,0.6730012,-0.8508312,-1.404025,1.389304,-2.467866,0.334352,1.244054,0.4695284,-1.494483,-0.009937582,11.72414,14.67752,0.4180422,-0.7768316,1.086,-0.5636277,-3.589269,-0.6478131,0.3610885,1.424983,0.3811228,-0.3242544,-0.7403549,-0.6362211,-1.050943,0.3426885,-0.1664891,0.494503,1.495268,0.2205455,0.03045401,1.276188,0.4092838,277.5085,134.257,127.2783,True
2,0.5555557,-1.961185,0.7623821,-0.8668753,-1.403193,1.373016,-2.440568,0.3338589,1.247952,0.4707539,-1.493196,0.1179082,11.69761,14.84894,0.4065906,-0.7619977,1.131916,-0.5474367,-3.585162,-0.6553478,0.3630913,1.42697,0.3805921,-0.3346629,-0.6902736,-0.6105857,-1.05594,0.3347924,-0.1585521,0.495839,1.495216,0.2194593,0.03014408,1.286188,0.4123804,278.7468,131.0264,130.8821,True
2,0.5666668,-1.99312,0.7889894,-0.8669106,-1.402171,1.35932,-2.41542,0.3327367,1.251536,0.4719982,-1.493896,-0.06472559,11.67109,14.99893,0.3991498,-0.7343212,1.143716,-0.5324959,-3.580565,-0.6635647,0.3648691,1.428907,0.3801856,-0.3472806,-0.6178112,-0.5966586,-1.061454,0.3286268,-0.1511538,0.4971304,1.495158,0.2184901,0.02998154,1.29636,0.4157579,279.967,129.1438,133.1544,True
2,0.577778,-2.021917,0.8230565,-0.8573487,-1.402302,1.345033,-2.389259,0.3319488,1.2554,0.4731669,-1.491609,0.2100939,11.64456,15.17034,0.3884228,-0.7194306,1.141682,-0.5177324,-3.576912,-0.6706159,0.3667786,1.430926,0.3797388,-0.353575,-0.5826478,-0.588099,-1.066966,0.3215445,-0.1435023,0.4983599,1.495085,0.2175269,0.02995004,1.306779,0.419497,281.205,127.2775,135.4991,True
2,0.5888891,-2.033566,0.8305619,-0.8307427,-1.402704,1.332249,-2.364343,0.3312027,1.25917,0.4742222,-1.493608,-0.1841644,11.61804,15.32033,0.3989227,-0.7044717,1.124574,-0.5037358,-3.573328,-0.6786195,0.3687007,1.432893,0.3793845,-0.3396957,-0.5485814,-0.5882072,-1.072784,0.3146542,-0.1369445,0.4996904,1.494929,0.2166269,0.03005456,1.317614,0.4236675,282.4141,125.6165,137.7953,True
2,0.6000003,-2.055874,0.8359509,-0.7838456,-1.404458,1.320086,-2.338426,0.3305404,1.262982,0.4752314,-1.493439,0.01749069,11.59151,15.53461,0.4137391,-0.728909,1.103137,-0.4889553,-3.572228,-0.6847419,0.3705407,1.434734,0.3790784,-0.3334463,-0.5517872,-0.6063646,-1.079374,0.3063309,-0.1294749,0.500924,1.49483,0.2157221,0.03039284,1.328789,0.4280888,283.7515,123.5841,140.675,True
2,0.6111114,-2.064352,0.8594376,-0.7594138,-1.406658,1.307399,-2.313487,0.330047,1.266734,0.4761167,-1.494781,-0.1227111,11.64456,15.66317,0.4018016,-0.7555196,1.062721,-0.4749513,-3.573082,-0.6880884,0.3722905,1.436741,0.3787229,-0.3367959,-0.5571063,-0.6244494,-1.086114,0.2981774,-0.1217818,0.5022129,1.494754,0.2148864,0.03113773,1.340172,0.4325321,285.0861,121.6631,143.5475,True
2,0.6222225,-2.078219,0.9031551,-0.7296525,-1.410573,1.294059,-2.287543,0.3294006,1.270401,0.4769833,-1.494157,0.05841572,11.69761,15.64174,0.3496877,-0.7684387,1.068408,-0.4598416,-3.571227,-0.6920083,0.3741415,1.43863,0.3782613,-0.3549773,-0.5485697,-0.6349686,-1.092868,0.2906202,-0.1137002,0.5034407,1.494665,0.2141714,0.0324096,1.351573,0.4367188,286.4781,119.8494,146.3285,True
2,0.6333337,-2.090045,0.9884086,-0.696733,-1.416992,1.279734,-2.261466,0.3293219,1.274024,0.4777782,-1.495407,-0.1146402,11.72414,15.38461,0.3380578,-0.755703,1.085549,-0.4448779,-3.566683,-0.6994521,0.375955,1.4405,0.3779187,-0.3507603,-0.5261877,-0.6424624,-1.099652,0.28414,-0.106989,0.5047898,1.494591,0.213412,0.03410956,1.362957,0.4404524,287.8727,118.2775,148.7669,True
2,0.6444448,-2.116649,1.067345,-0.6265855,-1.425151,1.26695,-2.235277,0.3289708,1.277748,0.4783218,-1.494872,0.05009293,11.75066,14.91322,0.322321,-0.7259565,1.131507,-0.429447,-3.5574,-0.7109056,0.3778697,1.44218,0.3775365,-0.3401268,-0.507018,-0.6457323,-1.106327,0.2777062,-0.100574,0.5062026,1.494526,0.2127304,0.03615531,1.374262,0.4436803,289.3683,117.0922,150.6452,True
2,0.655556,-2.14009,1.120673,-0.5776534,-1.433654,1.254139,-2.208715,0.3281978,1.281343,0.4790237,-1.494994,-0.01143925,11.72414,14.22755,0.3324332,-0.7409204,1.202804,-0.4116214,-3.548297,-0.7232261,0.3799592,1.44399,0.3771582,-0.3230148,-0.4910515,-0.6384085,-1.112721,0.2714193,-0.09469216,0.5074487,1.494344,0.2120242,0.03838706,1.385535,0.4465435,290.858,116.1684,152.0397,True
2,0.6666671,-2.140068,1.137761,-0.5532045,-1.440966,1.241948,-2.183288,0.3277039,1.285001,0.4795794,-1.494831,0.01533715,11.67109,13.49904,0.3467062,-0.7814139,1.248469,-0.3934064,-3.541282,-0.7340588,0.3819419,1.445865,0.3767526,-0.3208168,-0.4857218,-0.6298929,-1.118886,0.2649379,-0.08830696,0.5088094,1.494213,0.2113748,0.04091725,1.396798,0.4492638,292.2489,115.2985,153.2747,True
2,0.6777782,-2.123992,1.132578,-0.4924956,-1.449334,1.231887,-2.158968,0.3266184,1.288544,0.4801881,-1.494612,0.02014096,11.59151,12.8348,0.334291,-0.83474,1.281531,-0.3747813,-3.535767,-0.7424645,0.3837988,1.447506,0.3763125,-0.3260888,-0.4825175,-0.6223941,-1.12504,0.2585505,-0.08168688,0.5100831,1.494005,0.210809,0.04358236,1.408229,0.4519713,293.6506,114.2945,154.7294,True
2,0.6888894,-2.114339,1.130509,-0.4819199,-1.456899,1.22074,-2.13459,0.3261558,1.292287,0.4807262,-1.495786,-0.1074192,11.53846,12.23484,0.3237244,-0.8592842,1.28691,-0.3569999,-3.529583,-0.7514822,0.3856729,1.449372,0.3759325,-0.3335649,-0.4825111,-0.6244522,-1.131503,0.2520428,-0.07491765,0.5113999,1.493783,0.2102871,0.04633843,1.419808,0.4547178,295.166,113.3961,156.1888,True
2,0.7000005,-2.086498,1.059231,-0.453055,-1.462846,1.212413,-2.111582,0.3249964,1.296092,0.4813259,-1.496817,-0.09330889,11.48541,11.82773,0.3058001,-0.9104671,1.296582,-0.3383376,-3.52538,-0.758194,0.3873267,1.451067,0.3755598,-0.3337126,-0.4708032,-0.645761,-1.138987,0.2460674,-0.06874258,0.512624,1.49359,0.2097819,0.04934302,1.431279,0.4574322,296.7667,112.6612,157.5652,True
2,0.7111117,-2.051133,0.9699705,-0.4241361,-1.46824,1.205047,-2.089467,0.3243344,1.3008,0.4830637,-1.496972,-0.01324392,11.48541,11.72059,0.2739056,-0.9531735,1.292493,-0.3198153,-3.522375,-0.7630273,0.3889802,1.452717,0.3752217,-0.3370246,-0.4612385,-0.6627724,-1.146414,0.2401059,-0.0624458,0.51377,1.493358,0.2093229,0.05249235,1.442501,0.4600537,298.3794,111.8681,158.9949,True
2,0.7222228,-1.990124,0.8007425,-0.3887351,-1.469443,1.20114,-2.069181,0.3229841,1.304974,0.4838078,-1.49793,-0.08769345,11.51194,11.78487,0.261937,-0.952103,1.258496,-0.3034225,-3.517998,-0.7696924,0.3905457,1.454313,0.3748906,-0.3434809,-0.4260886,-0.6755074,-1.153999,0.2357159,-0.05666381,0.5149792,1.493137,0.2089796,0.05579251,1.453339,0.4625281,299.9059,111.3544,160.1578,True
2,0.7333339,-1.912009,0.6263007,-0.3331492,-1.469823,1.198863,-2.050636,0.3218325,1.308846,0.4843535,-1.498678,-0.06771533,11.53846,12.042,0.2446163,-0.9137586,1.230963,-0.2885471,-3.508651,-0.7807661,0.3920218,1.456092,0.3745744,-0.3487856,-0.3951903,-0.6765424,-1.161266,0.2317641,-0.05108156,0.5161173,1.492939,0.2086382,0.05896017,1.463895,0.4647801,301.3466,111.0124,161.022,True
2,0.7444451,-1.798917,0.5765368,-0.2682518,-1.473792,1.195818,-2.034343,0.3207279,1.312429,0.4849379,-1.499978,-0.1185237,11.53846,12.3634,0.1986312,-0.8914893,1.214266,-0.273259,-3.499295,-0.7903485,0.3931983,1.457848,0.3742287,-0.3529282,-0.331265,-0.6701448,-1.168318,0.229959,-0.04645086,0.5172035,1.492838,0.208391,0.06191503,1.474243,0.4668137,302.6666,110.7574,161.6884,True
2,0.7555562,-1.699237,0.7013548,-0.2388455,-1.481123,1.190041,-2.016903,0.3196051,1.315972,0.4852662,-1.501318,-0.1218456,11.48541,12.55624,0.1296651,-0.8874425,1.261648,-0.2552294,-3.483426,-0.8047377,0.3943201,1.459395,0.3738482,-0.3580515,-0.279065,-0.6498784,-1.174763,0.2280687,-0.04158846,0.5183061,1.492562,0.2080545,0.06471068,1.48393,0.4681889,304.048,110.4137,162.6615,True
2,0.7666674,-1.636218,0.844252,-0.2189264,-1.495503,1.181101,-2.001061,0.3188276,1.318795,0.4854968,-1.503224,-0.1737777,11.43236,12.70623,0.1020381,-0.8704907,1.281047,-0.2382198,-3.464771,-0.823117,0.395559,1.461095,0.3734298,-0.376043,-0.26094,-0.6358952,-1.181253,0.2251572,-0.03567864,0.5193151,1.492332,0.207854,0.0673151,1.492624,0.4685919,305.3549,110.1037,163.4096,True
2,0.7777785,-1.58427,1.052104,-0.1916963,-1.511839,1.172117,-1.9849,0.3178286,1.321074,0.4853511,-1.501853,0.1263169,11.37931,12.70623,0.09224486,-0.8289623,1.270505,-0.2233071,-3.444106,-0.8439523,0.3962203,1.46244,0.3730609,-0.4355938,-0.2651424,-0.6215974,-1.187508,0.2216617,-0.02761991,0.520205,1.492054,0.2078216,0.06952321,1.500436,0.4682601,306.5131,109.8972,163.5675,True
2,0.7888896,-1.580268,1.252387,-0.1920934,-1.529288,1.162229,-1.967157,0.3170932,1.322978,0.4851267,-1.502788,-0.08730217,11.29973,12.49196,0.05774081,-0.7289063,1.251668,-0.2110912,-3.412831,-0.8739004,0.3970192,1.463799,0.3727324,-0.4769686,-0.249122,-0.5999742,-1.193256,0.2191643,-0.02007651,0.5211592,1.491846,0.2077382,0.07123137,1.507802,0.4678399,307.3969,109.9173,163.0973,True
2,0.8000008,-1.509216,1.455884,-0.2224094,-1.548709,1.150385,-1.952192,0.3162379,1.324893,0.4847317,-1.501804,0.09039859,11.19363,12.10628,0.01320189,-0.5798068,1.185019,-0.2031172,-3.375854,-0.9085675,0.3974664,1.464829,0.3725121,-0.4925003,-0.2064808,-0.5476808,-1.197556,0.2182262,-0.01383805,0.5218574,1.491711,0.2078934,0.07283578,1.514843,0.4681885,308.1456,109.898,162.5813,True
2,0.8111119,-1.464705,1.583683,-0.2663621,-1.566968,1.138532,-1.937409,0.3157763,1.326742,0.484344,-1.499444,0.2146035,11.14058,11.63488,-0.02191699,-0.4583676,1.085241,-0.1966862,-3.3448,-0.9376016,0.3981263,1.465748,0.3723872,-0.4525658,-0.1447167,-0.4862135,-1.200972,0.2186517,-0.0103834,0.5225421,1.491575,0.2081258,0.07463766,1.521618,0.4698365,308.8372,109.6478,162.7129,True
2,0.8222231,-1.427824,1.832926,-0.3169302,4.690928,1.123155,-1.922884,0.3155021,1.328396,0.4841065,-1.501399,-0.1808721,11.08753,11.37776,-0.04962969,-0.4029034,0.9512624,-0.1905417,-3.326446,-0.9542809,0.3984432,1.466461,0.3724234,-0.3785203,-0.09683438,-0.4207299,-1.203611,0.2189867,-0.008680307,0.5232835,1.491479,0.2083867,0.07690324,1.528266,0.4729665,309.4244,109.2717,163.5255,True
2,0.8333342,-1.517315,1.885043,-0.2977085,4.670705,1.113677,-1.903442,0.3154444,1.330426,0.4842393,-1.501127,0.02608805,11.00796,11.44204,-0.07805067,-0.379453,0.8588033,-0.1836521,-3.308615,-0.9699888,0.3991289,1.467488,0.3724556,-0.3078796,-0.07664206,-0.3807939,-1.206645,0.2187333,-0.007522631,0.523815,1.491274,0.2085795,0.07980955,1.534841,0.4775776,310.0641,108.8289,164.9318,True
2,0.8444453,-1.546951,1.791346,-0.2506168,4.65502,1.107338,-1.885353,0.3150655,1.332732,0.4844596,-1.500534,0.05342477,10.90185,11.78487,-0.1078213,-0.3335862,0.7312223,-0.1795599,-3.297565,-0.9786541,0.3997204,1.468338,0.372699,-0.2341877,-0.0564567,-0.357916,-1.21003,0.2187016,-0.007071758,0.5245149,1.4911,0.2088475,0.08347294,1.54129,0.4834888,310.7262,108.3372,166.6873,True
2,0.8555565,-1.382181,1.425381,-0.0999226,4.650736,1.110643,-1.875885,0.3147681,1.335777,0.4850109,-1.49511,0.4952969,10.76923,12.3634,-0.06579596,-0.3408618,0.647825,-0.1733995,-3.288368,-0.9884471,0.4006804,1.469217,0.3728182,-0.2160582,-0.05221152,-0.3559236,-1.213881,0.2182164,-0.005160674,0.5251583,1.490934,0.2090302,0.08795137,1.547807,0.4907287,311.4286,107.6276,168.8242,True
2,0.8666676,-1.233787,1.266959,-0.04118857,4.6413,1.109286,-1.867379,0.3144378,1.338283,0.4854026,-1.495891,-0.07523204,10.6366,13.1562,0.0183512,-0.3704691,0.6376141,-0.1654111,-3.270233,-1.009168,0.4019448,1.470275,0.3730469,-0.1851618,-0.06502905,-0.3550949,-1.217905,0.2168442,-0.003710316,0.5259432,1.490728,0.208787,0.093256,1.554582,0.4986078,312.1129,106.5093,171.7877,True
2,0.8777788,-1.033243,1.084022,-0.02089819,4.635629,1.10794,-1.862737,0.3142508,1.340705,0.4857776,-1.505032,-0.8346826,10.4244,13.88472,0.08682168,-0.4555298,0.6477044,-0.154654,-3.255065,-1.027399,0.4032052,1.471333,0.3730187,-0.1916851,-0.1086983,-0.3688863,-1.222549,0.2139737,-0.0003781689,0.5267004,1.490494,0.2090974,0.09923848,1.561506,0.5058533,313.0499,105.2235,175.3125,True
2,0.8888899,-0.9383152,0.9892838,-0.04742311,4.628205,1.104417,-1.85581,0.3141853,1.342944,0.486243,-1.506013,-0.08283609,10.18567,14.46325,0.1915741,-0.7813411,0.7371894,-0.132145,-3.257717,-1.030341,0.4045531,1.472669,0.373033,-0.225298,-0.2280031,-0.43251,-1.229472,0.2069795,0.005667207,0.5274401,1.490211,0.2090685,0.105313,1.567903,0.5109382,314.5269,104.131,178.4594,True
2,0.900001,-0.8199131,0.8380861,-0.1005685,4.624714,1.100407,-1.850913,0.3142632,1.344849,0.4867013,-1.50867,-0.2441846,9.867373,14.76323,0.2334976,-0.8973967,0.7559288,-0.1162624,-3.251561,-1.04007,0.405558,1.47356,0.3729296,-0.2458805,-0.2663472,-0.473894,-1.236215,0.2025919,0.01055331,0.5281561,1.490047,0.2095637,0.1106395,1.573596,0.5135939,316.207,103.7004,180.0919,True
2,0.9111122,-0.8102615,0.7282637,-0.1579061,4.62128,1.095749,-1.842511,0.3142686,1.34672,0.4872899,-1.505251,0.3137059,9.549072,14.54896,0.2398479,-0.9069601,0.7462867,-0.1033477,-3.236103,-1.058332,0.4064635,1.474505,0.3726456,-0.2888203,-0.2631224,-0.5172517,-1.243439,0.1999059,0.01607058,0.5287383,1.489778,0.2096827,0.1146509,1.578344,0.514115,317.7502,103.8918,180.1716,True
2,0.9222233,-0.7984493,0.6622084,-0.1673714,4.61671,1.092582,-1.83463,0.3143506,1.34848,0.4879947,-1.505654,-0.04066302,9.363397,13.84187,0.2239318,-0.8335384,0.7816225,-0.0930173,-3.179046,-1.116908,0.4072059,1.475378,0.3725474,-0.3219683,-0.2162285,-0.5393879,-1.25007,0.1992606,0.02088691,0.5292603,1.489632,0.2097855,0.1170588,1.582374,0.5133344,318.7447,104.3943,179.2205,True
2,0.9333345,-0.7749012,0.5663428,-0.1778753,4.614286,1.089609,-1.827079,0.314411,1.35005,0.4887886,-1.501241,0.4033088,9.310343,12.72766,0.2195712,-0.6280261,0.8468524,-0.08878606,-3.058116,-1.239275,0.4074619,1.475975,0.3724689,-0.3260176,-0.1448667,-0.5212615,-1.255077,0.1998645,0.02423477,0.5297384,1.489398,0.2099667,0.1180192,1.585582,0.5119265,319.2473,105.0697,177.8103,True
2,0.9444456,-0.7566475,0.4512861,-0.1925614,4.613494,1.08715,-1.819724,0.3145901,1.351621,0.489711,-1.500723,0.0435197,9.416446,11.27062,0.1985082,-0.4043447,0.8152888,-0.08918606,-2.962439,-1.335787,0.4078658,1.476257,0.3725896,-0.3118823,-0.1022561,-0.4883572,-1.259397,0.2003215,0.02707796,0.5301578,1.489245,0.2103291,0.1178244,1.588402,0.5106196,319.1702,105.6603,176.355,True
2,0.9555568,-0.7469823,0.3788368,-0.2052214,4.612345,1.084118,-1.811994,0.3145789,1.353371,0.4905684,-1.500584,0.01240045,9.655171,9.685022,0.1269066,-0.288253,0.671015,-0.08896875,-2.934351,-1.362754,0.4080098,1.476637,0.372951,-0.266524,-0.04474618,-0.4130752,-1.261327,0.2019242,0.02799249,0.5304486,1.489195,0.2108481,0.1171419,1.590974,0.5098649,318.7783,106.0287,175.2154,True
2,0.9666679,-0.7319429,0.2701539,-0.2284661,4.613705,1.081349,-1.804801,0.3148913,1.355068,0.4915323,-1.500365,0.01960301,9.920423,8.420825,0.04593438,-0.2137468,0.5416945,-0.08834238,-2.913118,-1.38172,0.4085912,1.477424,0.3732727,-0.201981,-0.03307007,-0.331545,-1.262511,0.20165,0.02824895,0.5307928,1.489042,0.2113833,0.1165312,1.593281,0.5098016,318.3412,106.3295,174.4759,True
2,0.977779,-0.7030426,0.1721954,-0.2230009,4.615531,1.079473,-1.798085,0.3150221,1.356916,0.492626,-1.499508,0.07785894,10.2122,7.220912,0.05962247,-0.2136877,0.5192211,-0.0850603,-2.858364,-1.437432,0.4090357,1.478076,0.3737888,-0.1505353,-0.02032696,-0.2914504,-1.264519,0.2017669,0.02830487,0.5309901,1.488979,0.2117534,0.1163404,1.59547,0.5104196,318.0003,106.592,174.1031,True
2,0.9888902,-0.6635054,0.1254423,-0.1920747,4.615775,1.078762,-1.792593,0.3153824,1.35862,0.4935217,-1.499636,-0.01250962,10.55703,5.999572,0.1503317,-0.262482,0.5238617,-0.08005835,-2.79131,-1.508861,0.409859,1.478629,0.3741164,-0.1217145,0.00201045,-0.2863451,-1.267461,0.2025848,0.02849556,0.5313165,1.488828,0.2121677,0.1167466,1.597806,0.5116522,317.8171,106.8008,174.065,True
2,1.000001,-0.6080063,0.07442527,-0.1643627,4.616924,1.078288,-1.788001,0.3154404,1.360201,0.4944434,-1.499895,-0.02384713,10.87533,4.756803,0.2067985,-0.3358178,0.4978237,-0.07385798,-2.732607,-1.571546,0.4103795,1.47915,0.3742728,-0.1313947,0.007307552,-0.2979863,-1.27112,0.2026138,0.03046416,0.5316371,1.488727,0.2124505,0.1178742,1.600259,0.5132167,317.8437,106.9977,174.2521,True
2,1.011112,-0.5717101,0.01694842,-0.1642866,4.618884,1.077081,-1.783114,0.3155048,1.361611,0.4953475,-1.500878,-0.08992149,11.08753,3.449752,0.2282395,-0.3677469,0.5093598,-0.06893326,-2.646117,-1.660778,0.4110906,1.47948,0.3744969,-0.1690263,-0.009733617,-0.3413799,-1.276362,0.2019719,0.03380217,0.5320167,1.488481,0.2130589,0.1196246,1.602912,0.5148546,318.0966,107.0758,174.6161,True
2,1.022224,-0.53971,-0.006439745,-0.1568353,4.620111,1.075787,-1.778301,0.3153762,1.362907,0.4962358,-1.501441,-0.05102549,11.29973,2.399828,0.2091203,-0.3326738,0.532958,-0.06745574,-2.545963,-1.762174,0.4115179,1.47987,0.3747427,-0.1755011,-0.01292824,-0.351983,-1.280617,0.2018648,0.03599262,0.5323013,1.488318,0.2134542,0.1218773,1.605629,0.5163183,318.5806,107.0215,175.1108,True
2,1.033335,-0.5108998,0.007509828,-0.1292522,4.619457,1.075332,-1.773843,0.3154328,1.363978,0.4969118,-1.500623,0.07474753,11.56498,1.714163,0.1920229,-0.3018254,0.536306,-0.0666701,-2.45026,-1.859198,0.41196,1.480315,0.3750234,-0.1679984,-0.0608719,-0.3403013,-1.284043,0.1995709,0.03827335,0.5324743,1.488133,0.2138796,0.1242911,1.608257,0.5174196,319.3143,107.0428,175.5436,True
2,1.044446,-0.4927736,0.02996056,-0.094077,4.618213,1.075328,-1.769285,0.3155695,1.364857,0.4976099,-1.500131,0.04398008,11.96286,1.264194,0.1704649,-0.2954431,0.5013031,-0.06513719,-2.375152,-1.935281,0.4123628,1.480682,0.3752158,-0.1497925,-0.08537364,-0.3265864,-1.287274,0.1980232,0.03958549,0.5325334,1.488081,0.214545,0.1265168,1.610707,0.5180801,320.1071,107.2285,175.7073,True
2,1.055557,-0.4895837,0.04702871,-0.08239115,4.617189,1.074617,-1.764058,0.3155442,1.36602,0.4982822,-1.500114,0.0009319786,12.57294,1.028495,0.1325271,-0.2784067,0.4142267,-0.06312171,-2.340705,-1.969776,0.4126906,1.480958,0.3754041,-0.1198006,-0.09284268,-0.3044378,-1.289953,0.1969007,0.04015914,0.5326655,1.487944,0.2150455,0.1283293,1.61297,0.5183714,320.778,107.4253,175.6273,True
2,1.066668,-0.4885063,0.06622949,-0.06428647,4.615685,1.074532,-1.758969,0.3154725,1.36712,0.498848,-1.499686,0.03897175,13.34218,1.221341,0.1257881,-0.2698447,0.3663349,-0.06167668,-2.28934,-2.022222,0.4129332,1.481195,0.3756671,-0.1111508,-0.08432145,-0.2885263,-1.2926,0.1963475,0.04121135,0.5327606,1.487837,0.215538,0.1297333,1.614946,0.5184118,321.2192,107.5071,175.4425,True
2,1.077779,-0.4363013,0.07270436,-0.05478025,4.614764,1.074063,-1.755945,0.3150987,1.368011,0.4994185,-1.498587,0.09985386,14.16445,1.907005,0.119444,-0.2698684,0.3727702,-0.06112647,-2.203389,-2.109174,0.4130626,1.481704,0.376019,-0.1152372,-0.06620763,-0.2671993,-1.294895,0.1963097,0.04274107,0.5327789,1.487741,0.2158124,0.1307541,1.61671,0.5183629,321.4779,107.5594,175.2168,True
2,1.08889,-0.4128425,0.07487833,-0.04415187,4.613876,1.073957,-1.75243,0.3150814,1.369029,0.4999537,-1.498437,0.01268693,14.96021,3.064064,0.1174742,-0.2869471,0.3930076,-0.06078612,-2.097815,-2.215628,0.4130908,1.482105,0.3763628,-0.1321702,-0.03955574,-0.2553638,-1.297274,0.1969539,0.04462499,0.5327469,1.487582,0.2163219,0.1314172,1.618537,0.5183793,321.5966,107.6547,174.9812,True
2,1.100002,-0.3169395,0.09637234,-0.005966596,4.61175,1.074957,-1.752447,0.3144993,1.369458,0.5002813,-1.500218,-0.1630214,15.72944,4.585385,0.1161737,-0.2826571,0.3599959,-0.06018158,-2.029343,-2.28528,0.41314,1.482258,0.3766973,-0.1534426,-0.002258517,-0.2552277,-1.300269,0.1982621,0.04670252,0.5327363,1.48747,0.2167609,0.1318937,1.620389,0.5184909,321.6919,107.7244,174.8185,True
2,1.111113,-0.3009907,0.1315629,0.002485231,4.608978,1.074851,-1.749599,0.3141863,1.369944,0.5005131,-1.499642,0.05383199,16.25995,6.085279,0.05123967,-0.1932003,0.2454911,-0.05997918,-2.056969,-2.255925,0.4128945,1.482447,0.3769844,-0.1692456,0.02333222,-0.2348822,-1.302245,0.1994512,0.04872999,0.5327671,1.487367,0.2173734,0.1322668,1.622039,0.5186901,321.8566,107.7931,174.7018,True
2,1.122224,-0.3180547,0.170994,0.02481834,4.605544,1.075259,-1.745319,0.3137446,1.370468,0.5008073,-1.50275,-0.2851072,16.5252,7.328047,0.007368863,-0.1453536,0.2341244,-0.06142741,-2.027496,-2.283955,0.4127737,1.482764,0.3773375,-0.1636509,0.03718996,-0.2008394,-1.303283,0.200444,0.05012575,0.5326494,1.487284,0.2179725,0.1326062,1.623441,0.5189824,321.9788,107.7819,174.6722,True
2,1.133335,-0.3030945,0.1902527,0.06631258,4.602604,1.076882,-1.742467,0.3134902,1.371141,0.5010211,-1.499623,0.2881149,16.55172,8.463681,-0.05682482,-0.04324291,0.2314895,-0.06540138,-2.025988,-2.282469,0.4127885,1.483038,0.3775666,-0.1208901,0.0446174,-0.1819935,-1.304841,0.2012139,0.04989832,0.5326138,1.48717,0.2185843,0.1328802,1.624319,0.5193604,322.2336,107.6669,174.7841,True
2,1.144446,-0.2785871,0.208426,0.08542261,4.599485,1.077892,-1.740136,0.3131388,1.371691,0.5012558,-1.497491,0.1918235,16.44562,9.513605,-0.04741675,-0.02934936,0.2112047,-0.06649008,-2.005129,-2.303164,0.4129821,1.483204,0.377862,-0.09102896,0.04885668,-0.1779589,-1.30669,0.2020265,0.04974492,0.5325961,1.487134,0.2191162,0.1329865,1.625016,0.5199459,322.3166,107.5309,174.9317,True
2,1.155557,-0.2370694,0.2308499,0.08532725,4.595975,1.078236,-1.738847,0.3126754,1.372216,0.5015643,-1.498931,-0.132759,16.18037,10.47782,-0.01542092,-0.06015984,0.2056243,-0.06665892,-1.964091,-2.345083,0.4130676,1.483498,0.3781004,-0.07518262,0.0349888,-0.1940529,-1.309411,0.2020949,0.05008873,0.5325617,1.487085,0.2197165,0.1330358,1.625892,0.5207529,322.1945,107.3243,175.1642,True
2,1.166668,-0.2232087,0.20101,0.06939153,4.59467,1.078408,-1.736687,0.312185,1.372836,0.5019975,-1.499853,-0.08255279,15.94164,11.31348,0.0277687,-0.1943247,0.2403309,-0.0650051,-1.845758,-2.465173,0.4131407,1.483774,0.3783216,-0.08606547,0.0200736,-0.2227277,-1.312886,0.2020106,0.0514299,0.5324325,1.486993,0.2202106,0.1332275,1.626947,0.5216114,322.0562,107.0603,175.5112,True
2,1.17778,-0.2039563,0.1189729,0.05031614,4.596237,1.07856,-1.735006,0.3116077,1.373399,0.5025055,-1.501285,-0.1299012,15.72944,12.5991,0.02890769,-0.2348012,0.2370773,-0.06466687,-1.774895,-2.536199,0.4130668,1.484048,0.3785198,-0.1032304,0.02008021,-0.2385798,-1.31605,0.202433,0.05311355,0.5323775,1.486835,0.2206202,0.1336299,1.628098,0.5224205,322.0808,106.8713,175.8218,True
2,1.188891,-0.1889881,0.06997472,0.04186185,4.597005,1.079042,-1.733414,0.3111421,1.374002,0.5029819,-1.501067,0.02150371,15.57029,14.50611,0.01070333,-0.231624,0.2265478,-0.06518672,-1.729022,-2.581274,0.4124553,1.484212,0.378813,-0.1405804,0.03289592,-0.2478937,-1.319147,0.2035156,0.05576206,0.5320646,1.486742,0.2211373,0.1342037,1.629267,0.523181,322.3151,106.7813,176.044,True
2,1.200002,-0.1814799,0.03590054,0.04934895,4.597858,1.079854,-1.731494,0.3104581,1.374369,0.5033734,-1.502201,-0.1033049,15.49072,17.09878,-0.002197534,-0.1901069,0.2245495,-0.06690446,-1.702295,-2.60743,0.4120852,1.484329,0.3791013,-0.1533993,0.04675303,-0.2531263,-1.322013,0.2046984,0.05764093,0.5318687,1.486732,0.2216396,0.1348257,1.630404,0.5238162,322.6463,106.7714,176.2415,True
2,1.211113,-0.1857468,0.04121505,0.04615759,4.597007,1.080235,-1.729308,0.3099884,1.374827,0.5037706,-1.503312,-0.0998878,15.54376,20.50568,-0.04295563,-0.06343894,0.2292333,-0.0713855,-1.730179,-2.57759,0.4115258,1.484418,0.3794572,-0.146852,0.06912848,-0.2350782,-1.324025,0.2063994,0.05861991,0.5315524,1.486669,0.222265,0.1353554,1.6314,0.5241594,322.9861,106.8319,176.3632,True
2,1.222224,-0.1953513,0.03478412,0.02701033,4.596837,1.079851,-1.726909,0.3095847,1.375224,0.5040722,-1.504102,-0.07064289,15.59682,23.65545,-0.0670656,0.000504721,0.1538299,-0.07166141,-1.762079,-2.544152,0.4110872,1.484593,0.3798652,-0.1326583,0.09576485,-0.1925834,-1.324591,0.2084177,0.05907557,0.5311829,1.486515,0.2229054,0.1357085,1.632284,0.5241799,323.2629,106.8656,176.3862,True
2,1.233335,-0.1889136,-0.005694881,0.01962065,4.598029,1.080198,-1.725105,0.3090103,1.375966,0.5046039,-1.504974,-0.07821093,15.70292,26.67667,-0.0542553,-0.03248357,0.1462435,-0.07197619,-1.733239,-2.572785,0.410701,1.484775,0.3802741,-0.1153811,0.09575276,-0.1618239,-1.325422,0.2093569,0.05955094,0.5308981,1.48641,0.2235365,0.1358504,1.633078,0.5239046,323.4702,106.8844,176.2912,True
2,1.244446,-0.1569064,-0.05146778,0.01540147,4.599937,1.080765,-1.724346,0.3084705,1.376747,0.5050991,-1.505762,-0.07070792,15.83554,29.65502,-0.02955189,-0.1016766,0.1523904,-0.07184836,-1.677261,-2.629058,0.4103363,1.484975,0.3806164,-0.08859562,0.08828092,-0.140716,-1.326167,0.2101222,0.05938902,0.5304489,1.486354,0.2242,0.1358501,1.633919,0.5234953,323.5705,106.9423,176.0491,True
2,1.255558,-0.138753,-0.08126996,0.01968231,4.601709,1.081409,-1.723319,0.3076928,1.377283,0.5056145,-1.507394,-0.14801,16.04774,32.39768,-0.01328968,-0.1368283,0.1810006,-0.07322415,-1.626505,-2.680089,0.4098237,1.485296,0.3809128,-0.08115067,0.1053182,-0.143976,-1.327878,0.2120362,0.05965774,0.530064,1.486344,0.2248688,0.1357979,1.634842,0.523062,323.6429,107.079,175.7468,True
2,1.266669,-0.1547355,-0.06423073,0.02926911,4.601697,1.082099,-1.721017,0.3068902,1.377768,0.506135,-1.509326,-0.1750355,16.25995,34.34755,-0.04518439,-0.1209445,0.1972105,-0.07521619,-1.600808,-2.704112,0.4091604,1.485436,0.3813159,-0.1068082,0.1255726,-0.158698,-1.329921,0.2142569,0.06113233,0.5295399,1.486241,0.2255211,0.135683,1.635928,0.5226586,323.7711,107.2057,175.487,True
2,1.27778,-0.177128,-0.02161394,0.05266871,4.600275,1.083235,-1.718126,0.3059975,1.378188,0.5065548,-1.509772,-0.03897507,16.36605,35.11892,-0.06351756,-0.07941994,0.1792728,-0.07669158,-1.60035,-2.703211,0.4086094,1.485568,0.3816867,-0.1216747,0.1351752,-0.153262,-1.331274,0.2162023,0.06255046,0.5290885,1.486207,0.2261684,0.1354834,1.636974,0.5222523,323.9855,107.3121,175.282,True
2,1.288891,-0.2101707,0.007126935,0.06545439,4.599048,1.084248,-1.714547,0.3051513,1.378656,0.5069883,-1.508973,0.07357784,16.28647,34.69038,-0.07120038,-0.02296807,0.1666076,-0.07858189,-1.611169,-2.691371,0.4080451,1.485727,0.3820367,-0.1098483,0.1223879,-0.1373686,-1.332245,0.2172628,0.06318616,0.5285084,1.486173,0.2268052,0.1351321,1.637846,0.5218778,324.2323,107.3913,175.0726,True
2,1.300002,-0.2251216,0.03906462,0.06967924,4.59772,1.08484,-1.711484,0.3042505,1.379167,0.5074084,-1.50882,0.01363331,16.07427,33.38333,-0.05596046,-0.03683573,0.2090968,-0.08159073,-1.580581,-2.721847,0.4075095,1.485895,0.3824437,-0.08211097,0.09786513,-0.1290443,-1.333394,0.2175929,0.06309029,0.5279904,1.486074,0.2274182,0.1346467,1.638669,0.5216714,324.3692,107.3914,174.8749,True
2,1.311113,-0.2133899,0.04122356,0.08243464,4.597213,1.085984,-1.709402,0.3032931,1.379632,0.5078924,-1.508633,0.01743278,15.78249,31.99057,-0.04509268,-0.06240774,0.2324329,-0.0840744,-1.544726,-2.757413,0.4070395,1.486046,0.382813,-0.05239464,0.05309692,-0.1388395,-1.335301,0.2167764,0.06284314,0.5275052,1.486039,0.2280095,0.1341434,1.639534,0.5217116,324.4005,107.309,174.7872,True
2,1.322224,-0.2123354,0.05081426,0.08348347,4.596212,1.086832,-1.706998,0.3023725,1.380017,0.5083451,-1.509588,-0.08714139,15.33157,30.14784,-0.02488066,-0.1166647,0.2109286,-0.08434391,-1.503827,-2.79843,0.4063929,1.486229,0.3833416,-0.05351373,0.02753682,-0.1430799,-1.33704,0.2165359,0.06359469,0.5269359,1.486002,0.228672,0.1337443,1.640511,0.5219795,324.3842,107.2282,174.8076,True
2,1.333336,-0.2443274,0.08273358,0.08560233,4.594164,1.08751,-1.703203,0.3016126,1.380284,0.5087941,-1.511148,-0.141519,14.88063,29.07649,-0.001493007,-0.1602597,0.188347,-0.08450423,-1.461272,-2.841682,0.4056377,1.486546,0.3838375,-0.07268646,0.02435866,-0.1418668,-1.338512,0.2168593,0.06504478,0.5263359,1.485923,0.2292423,0.1335337,1.641564,0.5224051,324.4422,107.1741,174.9039,True
2,1.344447,-0.2827364,0.1146265,0.07281572,4.591875,1.087513,-1.698788,0.300693,1.380479,0.5091906,-1.511236,-0.00679478,14.40318,29.14078,-0.01659299,-0.1506836,0.1639603,-0.08521583,-1.442242,-2.859965,0.4048229,1.486602,0.3843772,-0.1183979,0.06487878,-0.1330214,-1.339667,0.2189885,0.06744242,0.5256181,1.485931,0.229883,0.1334971,1.642534,0.5228787,324.6353,107.1016,175.0595,True
2,1.355558,-0.2848649,0.1306237,0.0908974,4.589837,1.088848,-1.695391,0.2996521,1.380689,0.5096095,-1.509832,0.1282271,14.00531,30.40497,-0.04155171,-0.07080527,0.1248077,-0.08580705,-1.46265,-2.838332,0.4040087,1.486605,0.3847768,-0.1331201,0.0819461,-0.1094797,-1.340013,0.2205125,0.06896948,0.5248938,1.485922,0.2305942,0.1335646,1.643389,0.5233719,324.8735,107.0213,175.1962,True
2,1.366669,-0.2592659,0.1306931,0.114299,4.588099,1.090658,-1.69305,0.2985946,1.381124,0.5099676,-1.508729,0.09921114,13.81963,33.19049,-0.0799692,0.01750254,0.1464769,-0.08903214,-1.487899,-2.811008,0.4032127,1.486461,0.3852694,-0.1338098,0.09156246,-0.06048065,-1.339091,0.2218887,0.07018894,0.5241653,1.485864,0.2313488,0.1337234,1.644215,0.5239257,325.0844,106.948,175.3051,True
2,1.37778,-0.2230096,0.1137113,0.1249295,4.587177,1.092301,-1.691567,0.297571,1.381597,0.5103762,-1.509276,-0.05139213,13.71353,37.04735,-0.09921157,0.040894,0.1445057,-0.09083829,-1.493745,-2.803516,0.4025838,1.486488,0.3857007,-0.112268,0.09049366,-0.02868114,-1.338298,0.2228184,0.07047683,0.5234106,1.485791,0.2320633,0.1339602,1.645094,0.5245584,325.3122,106.8822,175.4473,True
2,1.388891,-0.1867456,0.09139699,0.1387494,4.587068,1.094119,-1.690562,0.2965853,1.382119,0.5107572,-1.509567,-0.02695591,13.52785,41.09706,-0.0852642,-0.01446209,0.1400838,-0.09138158,-1.467149,-2.829535,0.4020864,1.486712,0.3861802,-0.04392915,0.09043775,-0.007895085,-1.337685,0.2237178,0.06830955,0.5227743,1.485723,0.2327509,0.134207,1.646007,0.5252076,325.6012,106.718,175.7109,True
2,1.400002,-0.1441399,0.08504103,0.1280352,4.586393,1.094906,-1.690345,0.2956567,1.382585,0.5112064,-1.509011,0.04969531,13.23607,45.08249,-0.0337027,-0.1453914,0.1566204,-0.09190515,-1.39537,-2.902506,0.4015171,1.486996,0.3866858,0.01345759,0.08185688,-0.02537158,-1.33862,0.2243728,0.06615186,0.5220162,1.485688,0.2334335,0.1342938,1.646936,0.525794,325.924,106.5163,176.0332,True
2,1.411114,-0.1441746,0.09353475,0.1099188,4.584922,1.095434,-1.688627,0.2948889,1.38302,0.5115573,-1.507598,0.1270037,12.78515,48.61795,-0.004832178,-0.2028496,0.1520946,-0.09253845,-1.347651,-2.950961,0.4008297,1.487196,0.3871,-0.0008353293,0.06906285,-0.08278657,-1.341428,0.2249033,0.06645413,0.5213327,1.485622,0.2340074,0.1340484,1.647758,0.5262473,326.2186,106.3678,176.2754,True
2,1.422225,-0.1581035,0.1339629,0.08962108,4.582171,1.095232,-1.686332,0.293817,1.383096,0.5119483,-1.505918,0.1506754,12.09549,50.52496,-0.008222178,-0.1857889,0.1297524,-0.09278666,-1.336315,-2.961807,0.3999949,1.487393,0.3876064,-0.04795644,0.07228719,-0.1154559,-1.343717,0.2260235,0.06851328,0.5206282,1.485572,0.2345212,0.1333386,1.648397,0.5265472,326.4063,106.2806,176.3601,True
2,1.433336,-0.1720231,0.1797149,0.07357728,4.578904,1.095093,-1.684105,0.29279,1.383161,0.5124645,-1.501681,0.3839151,11.27321,52.11056,-0.03308808,-0.0569361,0.1215536,-0.09453423,-1.370698,-2.926386,0.3988937,1.487482,0.3880515,-0.124748,0.06702928,-0.1265942,-1.345474,0.2267997,0.07247607,0.5198919,1.485515,0.2350788,0.1321239,1.648815,0.5268156,326.4358,106.2633,176.2393,True
2,1.444447,-0.1656265,0.1477,0.05454667,4.577555,1.095278,-1.682211,0.2917414,1.383366,0.5130124,-1.497829,0.3466296,10.37135,53.78187,-0.046107,-0.003686134,0.1067878,-0.09555315,-1.384224,-2.911918,0.3979405,1.487675,0.388504,-0.1352785,0.02442865,-0.1051889,-1.345798,0.2256234,0.07449554,0.5190821,1.485531,0.235671,0.1305082,1.649083,0.5272242,326.2691,106.2495,176.0363,True
2,1.455558,-0.1357094,0.06466257,0.03854762,4.580208,1.095044,-1.681819,0.2909809,1.383982,0.5136509,-1.494522,0.2969778,9.416446,55.60317,-0.06751452,0.03354989,0.1048461,-0.09690391,-1.397099,-2.897679,0.3969487,1.48784,0.3890655,-0.1192869,0.01802629,-0.1031763,-1.346916,0.2257655,0.07516852,0.518275,1.485517,0.2363434,0.1286702,1.649214,0.5279446,326.024,106.2277,175.8453,True
2,1.466669,-0.09832862,-0.02160243,0.02372156,4.583036,1.095206,-1.681945,0.2901124,1.384474,0.5142953,-1.491254,0.2936341,8.56764,58.19585,-0.0642288,0.02076437,0.1133378,-0.09850553,-1.389973,-2.904224,0.3961377,1.48802,0.3895926,-0.1085213,0.02441282,-0.08940659,-1.347391,0.226306,0.07585615,0.5173175,1.485537,0.2370014,0.1267796,1.649267,0.5290777,325.734,106.1368,175.8174,True
2,1.47778,-0.08231972,-0.06208631,0.007777832,4.584952,1.094873,-1.681526,0.2892139,1.384776,0.5148664,-1.488691,0.2289203,7.851457,60.91708,-0.04085133,0.006985368,0.09931359,-0.09901953,-1.384483,-2.910058,0.3952026,1.488157,0.3901107,-0.1095305,0.03826837,-0.08300985,-1.348012,0.2273455,0.07697894,0.5163985,1.485482,0.2375541,0.1248934,1.649273,0.530494,325.4213,106.0068,176.0515,True
2,1.488891,-0.0898112,-0.05679255,-0.01672412,4.585095,1.093873,-1.68039,0.2882633,1.384939,0.515564,-1.484844,0.3463928,7.320952,63.25262,-0.002544694,-0.03657021,0.07663052,-0.09866053,-1.365891,-2.929919,0.394299,1.488163,0.3906124,-0.1157639,0.06277639,-0.06485837,-1.34799,0.2288328,0.0781723,0.5153913,1.485414,0.2382541,0.1229509,1.64919,0.5318931,325.1242,105.9652,176.3616,True
2,1.500003,-0.1058425,-0.04834089,-0.04867585,4.585525,1.092276,-1.678904,0.2872706,1.38517,0.5163431,-1.47916,0.5128234,7.029178,65.18105,-0.008922961,-0.01422624,0.08628803,-0.1001157,-1.369221,-2.926244,0.3932874,1.488245,0.3910902,-0.09527186,0.09685934,-0.03519838,-1.347322,0.2309588,0.0781486,0.5142714,1.485368,0.2389386,0.1208536,1.648925,0.5330878,324.892,105.9459,176.578,True
2,1.511114,-0.1143439,-0.06645928,-0.05501915,4.586737,1.091764,-1.677562,0.2863351,1.385471,0.5171976,-1.472772,0.5757251,6.896552,66.3167,-0.01232032,0.0454274,0.07892507,-0.1014105,-1.393736,-2.901378,0.3922256,1.488294,0.3917205,-0.07927459,0.103237,-0.03318841,-1.347531,0.2323027,0.078302,0.5132658,1.485333,0.2395675,0.1185399,1.648516,0.534096,324.6593,105.96,176.5844,True
2,1.522225,-0.111058,-0.135678,-0.04211726,4.590464,1.092267,-1.676148,0.2853875,1.385847,0.5181208,-1.466348,0.5781568,6.816976,65.54532,-0.01020592,0.04117296,0.07570688,-0.1020939,-1.393394,-2.901654,0.3911461,1.488472,0.3923564,-0.05913208,0.0883002,-0.04505565,-1.348441,0.2328676,0.07816644,0.5121447,1.48526,0.2402017,0.1160258,1.648101,0.5351135,324.38,106.0257,176.3948,True
2,1.533336,-0.09609655,-0.15161,-0.0335829,4.592318,1.092432,-1.675831,0.2844828,1.386284,0.5190346,-1.460177,0.5546936,6.816976,63.20977,0.003524456,0.01779964,0.05001826,-0.1016518,-1.38844,-2.907082,0.3901885,1.488582,0.3929508,-0.05820787,0.05526925,-0.05996425,-1.34965,0.2324482,0.0788791,0.5111056,1.485234,0.2407944,0.1133695,1.647758,0.536282,324.036,106.1084,176.1772,True
2,1.544447,-0.07691376,-0.1729163,-0.04741019,4.594952,1.091923,-1.675676,0.2836695,1.386745,0.5197127,-1.453363,0.6134014,6.870025,59.50289,0.04078797,-0.0268304,0.03053995,-0.1009855,-1.371859,-2.925313,0.3891287,1.488831,0.3933983,-0.06898654,-0.001189219,-0.06945065,-1.350894,0.2306622,0.08048579,0.5100098,1.485142,0.2412908,0.1106351,1.647409,0.5375659,323.6581,106.1015,176.1207,True
2,1.555558,-0.05777449,-0.168659,-0.07513331,4.596569,1.090399,-1.675915,0.282736,1.387029,0.5204887,-1.446915,0.5788308,7.029178,54.9175,0.05800382,-0.02894939,0.05492288,-0.10234,-1.364832,-2.93356,0.3880578,1.488982,0.3938923,-0.08175389,-0.01928545,-0.06508438,-1.351492,0.2299827,0.08196384,0.5089278,1.485115,0.2419229,0.1077915,1.646989,0.5387985,323.265,106.0508,176.1718,True
2,1.566669,-0.04927306,-0.1547993,-0.07622592,4.597857,1.08978,-1.675693,0.2818828,1.387376,0.5211916,-1.438914,0.7206516,7.320952,50.78209,0.03903568,0.02314375,0.1030574,-0.1056849,-1.378763,-2.919503,0.3869489,1.489144,0.3943074,-0.1007918,-0.02885304,-0.04576574,-1.351486,0.2293126,0.08384563,0.5078762,1.485085,0.2424424,0.1048068,1.646496,0.5399761,322.8672,106.0141,176.1817,True
2,1.577781,-0.04928869,-0.1313416,-0.06453851,4.59845,1.089663,-1.675159,0.2806806,1.387579,0.5218327,-1.430398,0.7662084,7.533155,47.20377,0.01885642,0.06248139,0.125611,-0.1081116,-1.391116,-2.906796,0.3857673,1.489245,0.3948984,-0.1133975,-0.02883159,-0.02223256,-1.351003,0.2289639,0.08557881,0.5066394,1.485108,0.2431049,0.1016504,1.645848,0.5411129,322.4563,106.0721,176.0895,True
2,1.588892,-0.04607763,-0.1345244,-0.0602762,4.600111,1.089293,-1.674889,0.2796331,1.38783,0.5226166,-1.420672,0.8759477,7.771884,43.92543,0.01972865,0.07848267,0.1021918,-0.1088045,-1.401149,-2.897176,0.384667,1.489336,0.3954353,-0.1111577,-0.01922891,-0.009465802,-1.350657,0.2292168,0.08660121,0.5054259,1.485132,0.2436891,0.09829549,1.645016,0.5423526,322.0272,106.1703,175.8831,True
2,1.600003,-0.04926557,-0.1313073,-0.05813327,4.601194,1.089011,-1.674425,0.2784867,1.388243,0.5233994,-1.410483,0.9171807,8.01061,40.81851,0.02165416,0.09875387,0.07876002,-0.1091129,-1.416009,-2.882777,0.3835553,1.489416,0.3960156,-0.08437914,-0.01071692,0.009510634,-1.349875,0.229383,0.08665154,0.5040225,1.485206,0.2443166,0.09474204,1.64405,0.5437937,321.5294,106.1378,175.7916,True
2,1.611114,-0.04393496,-0.1259596,-0.06026107,4.60215,1.08866,-1.67444,0.2774478,1.388584,0.5239818,-1.400377,0.9090154,8.302388,37.84016,0.04407873,0.0562027,0.07110411,-0.1095443,-1.407943,-2.892061,0.3824686,1.489592,0.3965442,-0.04591612,-0.009679149,0.02413461,-1.349105,0.2292456,0.08590053,0.5026923,1.485238,0.2449234,0.09097203,1.642968,0.5454468,320.9898,106.0063,175.8712,True
2,1.622225,-0.03970343,-0.1025196,-0.0613675,4.602532,1.087977,-1.674239,0.2763669,1.388929,0.5246675,-1.389535,0.9761823,8.56764,34.73323,0.05289705,-0.005593844,0.09227437,-0.1106959,-1.385221,-2.915562,0.3813573,1.489637,0.3970597,-0.02042976,-0.0224773,0.01542977,-1.349216,0.2287216,0.08556257,0.5014114,1.485278,0.2454107,0.08698693,1.641776,0.5472634,320.3648,105.8983,175.9838,True
2,1.633336,-0.04294721,-0.06630825,-0.06461358,4.602137,1.087104,-1.673786,0.275117,1.389214,0.5253775,-1.378959,0.9510508,8.726789,31.86201,0.05297709,-0.008802384,0.1029232,-0.112102,-1.380361,-2.920983,0.3801973,1.489759,0.3975859,-0.01631526,-0.02461902,-0.003776349,-1.349937,0.2284196,0.08566484,0.5001082,1.4853,0.2459824,0.08281473,1.640557,0.5492185,319.6411,105.7612,176.1348,True
2,1.644447,-0.04935573,-0.05034648,-0.06570057,4.602475,1.08628,-1.673146,0.2739738,1.389267,0.5260575,-1.367438,1.037523,8.753316,29.33362,0.05086045,0.001835644,0.1082799,-0.1135678,-1.382162,-2.919724,0.3789649,1.48996,0.398133,-0.03982428,-0.02459503,-0.01425171,-1.350451,0.2283326,0.08688509,0.4988014,1.48531,0.2466335,0.07856387,1.639227,0.5512349,318.8676,105.6107,176.3063,True
2,1.655559,-0.05684202,-0.0269205,-0.06359783,4.602242,1.085588,-1.672309,0.2726921,1.389594,0.5267327,-1.355581,1.067412,8.700266,27.12664,0.04015132,0.02950265,0.1094488,-0.1149793,-1.389891,-2.912157,0.3776824,1.490124,0.3986897,-0.06855281,-0.03202499,-0.00870494,-1.350379,0.2277108,0.08873732,0.4974645,1.485358,0.2472808,0.07428129,1.637842,0.5533382,318.1079,105.4713,176.4415,True
2,1.66667,-0.061093,-0.02903905,-0.05399564,4.602633,1.085441,-1.671441,0.2717141,1.390122,0.5273657,-1.343762,1.063833,8.620689,25.28391,0.03470477,0.02951144,0.09243986,-0.1155759,-1.391527,-2.910702,0.3763421,1.490228,0.3992856,-0.07159714,-0.03733499,0.01156976,-1.349512,0.227098,0.0896958,0.496133,1.485427,0.2478821,0.0700346,1.636391,0.5555497,317.39,105.3136,176.5995,True
2,1.677781,-0.06214616,-0.04504712,-0.05611769,4.604237,1.084628,-1.670723,0.270468,1.390414,0.5280564,-1.331927,1.065188,8.408487,24.04114,0.03133954,0.03698492,0.07009844,-0.1157112,-1.39648,-2.906039,0.3750285,1.49041,0.3999388,-0.05882904,-0.03096002,0.008277138,-1.349506,0.2269033,0.08989607,0.4946815,1.485563,0.2484298,0.06588989,1.63482,0.5578121,316.6862,105.1355,176.8246,True
2,1.688892,-0.06639292,-0.05996208,-0.0550109,4.605346,1.084364,-1.669826,0.2693451,1.390976,0.5287578,-1.320398,1.037445,8.143235,23.46261,0.02914428,0.03485777,0.06052335,-0.1161724,-1.397896,-2.904826,0.3736609,1.49055,0.4004862,-0.0524631,-0.02457407,0.003968319,-1.349595,0.2268703,0.09026651,0.4933068,1.485662,0.2490592,0.06181853,1.633352,0.5601172,315.9387,104.887,177.1496,True
2,1.700003,-0.07489667,-0.07810119,-0.05711542,4.607138,1.083617,-1.668757,0.2681177,1.391376,0.5294585,-1.309022,1.023787,7.851457,23.56975,0.0399216,0.04338016,0.08176664,-0.117912,-1.401062,-2.902484,0.3723419,1.490758,0.401011,-0.03860611,-0.02138812,0.004929238,-1.349472,0.2267486,0.09028542,0.4918459,1.485726,0.2496502,0.057888,1.631989,0.5623324,315.2017,104.653,177.5144,True
2,1.711114,-0.07701904,-0.07703358,-0.05391088,4.607959,1.08332,-1.667943,0.2668771,1.391793,0.5301492,-1.297642,1.024434,7.533155,24.19113,0.04867052,0.0348404,0.1125927,-0.1201208,-1.397423,-2.906881,0.3710514,1.490998,0.4014699,-0.02901519,-0.02245514,0.004851629,-1.349512,0.2265489,0.0902548,0.4903323,1.485707,0.2503073,0.05407512,1.630668,0.5643476,314.5752,104.529,177.776,True
2,1.722225,-0.07914932,-0.07811586,-0.05498659,4.609115,1.082548,-1.667078,0.2655993,1.392219,0.5309064,-1.286449,1.007578,7.347479,24.9625,0.04667421,0.02096881,0.1275043,-0.1219573,-1.391725,-2.913,0.3697246,1.491207,0.4019766,-0.02900116,-0.01606438,0.005914696,-1.349397,0.2265293,0.09061086,0.4887282,1.485753,0.2509212,0.05034704,1.629467,0.5661476,313.9976,104.4135,177.9523,True
2,1.733337,-0.08659934,-0.08452257,-0.05815321,4.61031,1.082014,-1.665966,0.2641525,1.392828,0.5316916,-1.276054,0.9349415,7.347479,26.01243,0.04037585,0.01987162,0.1413946,-0.1239307,-1.389181,-2.915734,0.36829,1.491386,0.402487,-0.02999468,-0.007537806,0.01444155,-1.348943,0.226694,0.09093736,0.4872512,1.485846,0.2515318,0.04669759,1.628326,0.5677204,313.4783,104.3534,178.0139,True
2,1.744448,-0.09723752,-0.1037369,-0.0623868,4.612574,1.081135,-1.664533,0.262796,1.39345,0.5325186,-1.265671,0.9348764,7.427056,26.74095,0.03922485,0.01988132,0.1286172,-0.1249299,-1.389041,-2.916291,0.366951,1.491577,0.402988,-0.03426102,0.002055936,0.01234463,-1.348791,0.2271234,0.0913395,0.4857001,1.485964,0.2520695,0.04311728,1.627252,0.5691332,312.9996,104.2858,178.0098,True
2,1.755559,-0.1078766,-0.1229401,-0.06341587,4.614895,1.080494,-1.662907,0.2613966,1.394238,0.5332968,-1.25545,0.9201338,7.533155,26.97664,0.02639542,0.01879152,0.1212452,-0.1259819,-1.387812,-2.917428,0.3655539,1.491981,0.4034717,-0.04066668,-0.02456885,0.01346901,-1.348693,0.2259009,0.09225243,0.4841803,1.486097,0.2526603,0.03955938,1.626273,0.5704821,312.5509,104.2621,177.9484,True
2,1.76667,-0.1153326,-0.120815,-0.06126651,4.616116,1.080207,-1.661456,0.2602289,1.395054,0.534004,-1.245513,0.8946435,7.612731,26.6981,0.02860523,0.01239474,0.1308057,-0.1276714,-1.384445,-2.921153,0.3641302,1.492234,0.4039891,-0.04401058,-0.03096386,-0.005684227,-1.349534,0.2254467,0.09293047,0.4826441,1.486191,0.253253,0.03597675,1.625453,0.5718356,312.1037,104.2553,177.8928,True
2,1.777781,-0.143072,-0.1091766,-0.08043637,4.617356,1.078545,-1.659021,0.2589475,1.395681,0.5347462,-1.236149,0.8427516,7.639258,25.81958,0.03522611,-0.03022217,0.1498828,-0.1293854,-1.367526,-2.938588,0.3626093,1.492662,0.4044352,-0.05148602,-0.03095567,-0.007756414,-1.349651,0.2251661,0.09382796,0.4811473,1.486258,0.253937,0.03240746,1.624735,0.5731728,311.6219,104.2967,177.8252,True
2,1.788892,-0.1430924,-0.1113243,-0.09320419,4.618713,1.077362,-1.65746,0.2576672,1.396468,0.5354998,-1.227636,0.7657304,7.745358,25.13392,0.03001013,-0.02599909,0.1690997,-0.1318531,-1.362481,-2.943598,0.361169,1.492907,0.4049146,-0.06855458,-0.02241468,-0.01189109,-1.349876,0.2253066,0.09515262,0.4796275,1.486462,0.2545497,0.02890974,1.624144,0.5744704,311.0807,104.2956,177.788,True
2,1.800003,-0.153699,-0.1550281,-0.09312865,4.622272,1.076558,-1.65536,0.2561085,1.39719,0.5363774,-1.218258,0.8457955,7.931033,24.89822,0.01616335,0.03998165,0.1916519,-0.135467,-1.378006,-2.927982,0.3597727,1.493229,0.4053872,-0.0781234,-0.007492019,-0.01075891,-1.349908,0.2257799,0.09627806,0.4781182,1.486497,0.255223,0.02561939,1.623631,0.5757192,310.5561,104.272,177.7484,True
2,1.811115,-0.1653804,-0.1667345,-0.07605048,4.624526,1.076486,-1.653146,0.2546374,1.398036,0.5371897,-1.211124,0.6399758,8.196285,25.00535,-1.912378E-05,0.06872949,0.1726176,-0.1370116,-1.387783,-2.917723,0.3583484,1.493594,0.4059517,-0.08453277,0.01487621,-0.01604979,-1.350251,0.2267703,0.097187,0.4765573,1.486679,0.255908,0.02258329,1.62323,0.5769917,310.1021,104.3434,177.6336,True
2,1.822226,-0.1760111,-0.1784669,-0.06857236,4.627115,1.076027,-1.650806,0.2532255,1.398869,0.5380719,-1.203202,0.714276,8.461537,25.49818,0.004262906,0.0538281,0.1704401,-0.1387789,-1.385692,-2.919975,0.3569397,1.493977,0.4064369,-0.07597274,0.01806482,-0.01078971,-1.350133,0.2269607,0.09773082,0.4750952,1.4868,0.2566762,0.01979342,1.622954,0.578306,309.7993,104.448,177.563,True
2,1.833337,-0.2122187,-0.1795579,-0.05573789,4.629148,1.076039,-1.64714,0.2517834,1.400063,0.5386474,-1.195932,0.6540692,8.912464,26.89094,0.01312301,0.001608044,0.2012128,-0.1416131,-1.367038,-2.939001,0.3555542,1.494338,0.4068506,-0.04627045,0.01270597,-0.02699159,-1.351,0.2269889,0.09717129,0.4736088,1.486962,0.2573187,0.01711593,1.622775,0.5795766,309.6026,104.5501,177.5708,True
2,1.844448,-0.2239561,-0.1753092,-0.05678362,4.630906,1.075642,-1.644135,0.2502742,1.401019,0.5393817,-1.188931,0.6302102,9.442968,28.69081,0.01426542,-0.005858123,0.2097172,-0.1440696,-1.361573,-2.944594,0.3540865,1.494812,0.4073234,-0.0356677,-9.168312E-05,-0.03239962,-1.351671,0.226575,0.09730125,0.4722082,1.48712,0.2579155,0.0144823,1.622731,0.5807449,309.3887,104.5661,177.6273,True
2,1.855559,-0.2271598,-0.176398,-0.06424453,4.633129,1.074667,-1.641625,0.2487202,1.402029,0.5402341,-1.181109,0.7056861,9.999999,30.70495,0.0111264,-0.01758738,0.2139844,-0.146395,-1.354736,-2.951382,0.35261,1.495317,0.4077964,-0.05160352,-0.01498894,-0.02481648,-1.351753,0.2258592,0.09859475,0.4707277,1.487326,0.2585833,0.01186366,1.622839,0.5817824,309.1243,104.5864,177.6494,True
2,1.86667,-0.2324864,-0.183869,-0.07168426,4.635465,1.073803,-1.638935,0.2472145,1.403345,0.5410342,-1.175364,0.5153,10.5305,32.67624,-0.01970632,-0.03577984,0.2173673,-0.1487333,-1.343681,-2.960924,0.3510537,1.496019,0.4082406,-0.1004439,-0.02771249,-0.002062419,-1.350839,0.2251167,0.1015969,0.4692389,1.487632,0.2591708,0.009257476,1.623255,0.5826613,308.7997,104.5961,177.6619,True
2,1.877781,-0.2378077,-0.1945494,-0.0791288,4.638196,1.072694,-1.636207,0.2457469,1.40464,0.5419981,-1.169836,0.4973,10.87533,33.85472,-0.04958244,-0.02732512,0.2133176,-0.1508356,-1.341086,-2.961935,0.3494955,1.496829,0.4086931,-0.1484136,-0.009561818,-0.008097794,-1.351088,0.2257215,0.1047605,0.4677708,1.487919,0.2599146,0.006755059,1.623855,0.5833756,308.5978,104.7404,177.4753,True
2,1.888893,-0.2399026,-0.2190448,-0.07268783,4.641461,1.072438,-1.633443,0.2443907,1.406036,0.5427625,-1.16378,0.5456014,11.14058,34.32611,-0.04412531,0.04081452,0.2570388,-0.1556298,-1.353582,-2.949231,0.3479894,1.497542,0.409085,-0.1645958,0.02133069,-0.03888315,-1.352486,0.2271742,0.1067941,0.4662242,1.488253,0.2606111,0.004330672,1.624574,0.5840193,308.4984,104.9843,177.1376,True
2,1.900004,-0.2356013,-0.2382029,-0.06095494,4.644889,1.072256,-1.630992,0.2429688,1.407419,0.5436175,-1.157887,0.5303119,11.24668,34.17613,0.00508754,0.09307258,0.3057716,-0.1611383,-1.365091,-2.939606,0.3465905,1.498263,0.4093699,-0.1456467,0.03302063,-0.06992307,-1.354172,0.2281361,0.1075784,0.4647367,1.488636,0.2612808,0.001933879,1.625426,0.584687,308.3994,105.2371,176.7813,True
2,1.911115,-0.2153105,-0.2583962,-0.04390772,4.648456,1.072525,-1.629321,0.2415746,1.408853,0.5442894,-1.152213,0.5105948,11.27321,33.44761,0.03074635,0.09311997,0.3173207,-0.1652193,-1.366003,-2.940095,0.3452493,1.49902,0.4096899,-0.1030649,0.03511784,-0.07450377,-1.355057,0.2287352,0.1071733,0.4630532,1.489043,0.2619648,-0.0004139831,1.626316,0.5854109,308.2753,105.4764,176.4696,True
2,1.922226,-0.2046671,-0.2605266,-0.05350547,4.651405,1.071826,-1.627502,0.2402873,1.410115,0.5449071,-1.146927,0.4753259,11.14058,32.41911,0.02868463,0.02920481,0.3034164,-0.1675874,-1.349818,-2.956378,0.343858,1.499823,0.4099264,-0.07202003,0.03722809,-0.05449591,-1.354852,0.2291634,0.106874,0.4615408,1.489478,0.2625208,-0.002694662,1.627173,0.5861158,308.1182,105.6483,176.2989,True
2,1.933337,-0.2174717,-0.2648405,-0.07266244,4.654624,1.070457,-1.624701,0.2389138,1.411275,0.5456316,-1.142206,0.4239084,10.98143,31.24062,-0.02343947,-0.01246145,0.3005251,-0.1704972,-1.337422,-2.966542,0.3424655,1.500449,0.4101784,-0.05263459,0.04148801,-0.02694584,-1.354076,0.2297913,0.1066873,0.4601027,1.489871,0.2630665,-0.004958689,1.627975,0.5867488,307.97,105.7981,176.1834,True
2,1.944448,-0.2217504,-0.2659283,-0.08542395,4.657559,1.069467,-1.622162,0.2374988,1.412554,0.546339,-1.136538,0.5109717,10.79576,30.46925,-0.03631943,0.006682459,0.2910426,-0.1733713,-1.338053,-2.965349,0.3410139,1.501135,0.4104667,-0.06636306,0.03618116,-0.009793166,-1.353544,0.2299578,0.1080029,0.458676,1.490193,0.26368,-0.007242731,1.628644,0.587243,307.833,105.9526,176.0541,True
2,1.955559,-0.2281293,-0.2893988,-0.09710973,4.661816,1.06807,-1.619483,0.2361285,1.413816,0.5469692,-1.130028,0.5872517,10.6366,30.23356,-0.03214734,0.04397534,0.291056,-0.176819,-1.344373,-2.958939,0.3395739,1.501817,0.4107559,-0.1196063,0.02557731,-0.005128361,-1.353595,0.2298303,0.1113396,0.4572505,1.490682,0.2641716,-0.00957814,1.629143,0.5876577,307.6899,106.2126,175.747,True
2,1.966671,-0.2164079,-0.3128325,-0.1077415,4.666058,1.0667,-1.617415,0.2349338,1.415037,0.5475748,-1.124856,0.4643637,10.50398,30.51211,-0.02051435,0.07702947,0.2888902,-0.1803098,-1.351611,-2.952071,0.3382778,1.5025,0.4109826,-0.1291815,0.0394347,-0.005061455,-1.353548,0.2307548,0.1129031,0.4557905,1.491137,0.2646706,-0.01201309,1.629594,0.5881307,307.4894,106.5356,175.3203,True
2,1.977782,-0.1993569,-0.319206,-0.1088214,4.669829,1.065607,-1.615767,0.2338005,1.416187,0.5481541,-1.119348,0.4960609,10.37135,31.21919,0.01226976,0.09524962,0.2599289,-0.1825735,-1.358316,-2.946773,0.3368725,1.503222,0.4111001,-0.1142817,0.06711939,-0.009446669,-1.353629,0.2326146,0.1132144,0.454425,1.491625,0.2650521,-0.01452528,1.630068,0.5887172,307.2469,106.8215,174.9661,True
2,1.988893,-0.1876401,-0.3202501,-0.1056293,4.673396,1.064864,-1.614039,0.2328426,1.417466,0.5486403,-1.11447,0.4381064,10.15915,31.86201,0.01631899,0.1112548,0.2375433,-0.184629,-1.364951,-2.940317,0.3353947,1.503957,0.4112825,-0.1003483,0.06605448,0.001107994,-1.353071,0.2333725,0.1135609,0.4530289,1.492219,0.2654879,-0.01704274,1.630493,0.5893465,306.9675,107.1551,174.6508,True
2,2.000004,-0.1727342,-0.3202479,-0.1131153,4.677057,1.063372,-1.612705,0.231805,1.418699,0.5489941,-1.109378,0.4581209,9.920423,32.3334,-0.0223031,0.1165065,0.2037131,-0.1859249,-1.369351,-2.934092,0.3341268,1.504737,0.4113259,-0.1066978,0.06393074,0.007550767,-1.352687,0.2339326,0.1149468,0.4516408,1.492754,0.2658942,-0.01947545,1.630781,0.5899563,306.6761,107.4918,174.3365,True
2,2.011115,-0.156763,-0.320246,-0.1237891,4.680669,1.061785,-1.611669,0.2308808,1.419741,0.5493381,-1.103653,0.515554,9.655171,32.71909,-0.02339794,0.1473894,0.2101497,-0.1888959,-1.38017,-2.923164,0.3329725,1.505522,0.4113677,-0.1096469,0.06395327,0.0405934,-1.351069,0.2345762,0.1162081,0.4503356,1.49333,0.2661333,-0.02180199,1.630927,0.5905402,306.3756,107.7425,174.0796,True
2,2.022226,-0.1376037,-0.3106425,-0.1248981,4.683862,1.060481,-1.610763,0.2298613,1.420882,0.5496972,-1.098226,0.4879134,9.416446,33.06192,-0.008448113,0.1548734,0.2196393,-0.1919702,-1.387147,-2.916644,0.3316727,1.506248,0.4114325,-0.09046155,0.07139371,0.04044327,-1.350622,0.2356033,0.116255,0.4490597,1.493978,0.2664545,-0.02404982,1.631025,0.5910993,306.0505,107.9519,173.8844,True
2,2.033337,-0.1003523,-0.2626294,-0.105843,4.685176,1.059991,-1.610973,0.2290481,1.42172,0.5498865,-1.092713,0.4959936,9.124667,32.82622,0.01276686,0.1634585,0.2088542,-0.1943213,-1.39545,-2.90938,0.3306547,1.507141,0.4114251,-0.05422642,0.07136235,0.04230072,-1.350007,0.2363691,0.1154406,0.4479056,1.494638,0.2665718,-0.02624457,1.631081,0.5916336,305.7715,108.2526,173.6305,True
2,2.044448,-0.07377804,-0.1965214,-0.08893774,4.6853,1.059504,-1.610964,0.2282763,1.42262,0.5499699,-1.086975,0.5164643,8.779839,31.7763,0.02212233,0.1230714,0.161852,-0.1944395,-1.396683,-2.908549,0.329327,1.507896,0.4114363,-0.04356075,0.05324458,0.04648983,-1.349363,0.2362333,0.1156677,0.4467295,1.495341,0.266758,-0.02839,1.631043,0.5921634,305.5327,108.5735,173.3307,True
2,2.055559,-0.05890399,-0.1495995,-0.07624625,4.685541,1.058993,-1.61077,0.227289,1.423424,0.550139,-1.082138,0.4337506,8.355438,29.93357,0.02106327,0.09538475,0.1533069,-0.1959884,-1.395633,-2.909732,0.3282146,1.508747,0.4114921,-0.09266462,2.251938E-05,0.03941684,-1.349473,0.234384,0.118798,0.4457787,1.496123,0.2666864,-0.03053159,1.630944,0.5927368,305.2744,108.77,173.1145,True
2,2.06667,-0.0514675,-0.1186786,-0.06458494,4.685939,1.058658,-1.610447,0.2261977,1.424273,0.5502741,-1.075976,0.5556941,7.877984,27.46946,0.01765367,0.09648037,0.1224388,-0.1966947,-1.401032,-2.904475,0.3271226,1.509511,0.4116006,-0.1320582,-0.006333701,0.0429197,-1.348798,0.2340373,0.1216162,0.4445422,1.496724,0.2667542,-0.03258166,1.630647,0.5933517,304.9876,108.7484,173.0879,True
2,2.077781,-0.03018685,-0.088809,-0.05720527,4.685985,1.05819,-1.610829,0.2252538,1.425098,0.5503356,-1.069666,0.5679907,7.374006,24.89822,-0.001997706,0.08481064,0.04798752,-0.1949125,-1.406208,-2.89872,0.3260851,1.510272,0.411582,-0.1606087,-0.01801538,0.07296994,-1.347003,0.2332442,0.1245523,0.44349,1.497369,0.2668307,-0.03461659,1.630252,0.5940837,304.6672,108.6375,173.1863,True
2,2.088892,0.01135247,-0.07489357,-0.0476963,4.686421,1.05792,-1.612266,0.2244564,1.426028,0.5503321,-1.063449,0.5595704,6.949602,22.75552,-0.005330004,0.09333953,0.03097863,-0.1950563,-1.412855,-2.891985,0.3252511,1.511165,0.4114923,-0.1274818,-0.03082585,0.08764042,-1.345562,0.2322201,0.125119,0.4425769,1.498101,0.2667656,-0.03673318,1.629847,0.5949672,304.3633,108.5519,173.3279,True
2,2.100003,0.04116467,-0.06206076,-0.04242165,4.686684,1.057677,-1.613549,0.2236879,1.426731,0.5503213,-1.058071,0.4829374,6.68435,21.08421,0.000167869,0.0805464,0.05223437,-0.1966324,-1.413524,-2.89153,0.3243386,1.511989,0.4112957,-0.09246767,-0.02447148,0.06819989,-1.345457,0.2321669,0.1250503,0.4416007,1.4988,0.2668262,-0.03895631,1.629453,0.5959548,304.0253,108.4548,173.521,True
2,2.111114,0.075223,-0.04711901,-0.05314507,4.68672,1.056687,-1.615556,0.223011,1.427535,0.5500946,-1.053084,0.4477921,6.57825,19.77716,0.005697079,0.08584016,0.08416241,-0.1989296,-1.415954,-2.889422,0.3236526,1.512776,0.4110031,-0.05104728,-0.01386055,0.04976654,-1.345598,0.2323962,0.1241893,0.4408,1.49949,0.2667644,-0.04119478,1.628975,0.5969613,303.6285,108.335,173.7358,True
2,2.122225,0.0858186,-0.01835396,-0.0617144,4.685932,1.055827,-1.616681,0.2227059,1.4282,0.54988,-1.046844,0.5626085,6.68435,18.89865,0.006938735,0.09326705,0.1129317,-0.2014729,-1.419764,-2.885791,0.3228799,1.51354,0.4106395,-0.03615561,0.001038214,0.04538884,-1.345115,0.2328394,0.1241246,0.4399146,1.500171,0.266681,-0.04338773,1.628305,0.5979065,303.2234,108.2254,173.9352,True
2,2.133336,0.07620177,0.006141745,-0.06174253,4.685017,1.05509,-1.617235,0.2219833,1.428777,0.5497243,-1.041284,0.4992599,6.976128,18.6201,-0.004792713,0.09643818,0.1119515,-0.202959,-1.423899,-2.881277,0.3220444,1.514264,0.4104369,-0.03300451,0.004227536,0.03897075,-1.344867,0.2329593,0.1243981,0.4391434,1.500877,0.2665265,-0.04553669,1.627408,0.5987662,302.8048,108.1032,174.1308,True
2,2.144447,0.06449357,0.01574291,-0.04362815,4.684574,1.055235,-1.617581,0.2212839,1.42917,0.5496058,-1.034247,0.6350569,7.374006,18.74866,-0.0146266,0.09326018,0.07366147,-0.2027672,-1.428521,-2.876326,0.3213692,1.514813,0.4103458,-0.03189339,0.006358933,0.04429639,-1.344059,0.23294,0.1247315,0.4383064,1.501581,0.2663598,-0.04763629,1.62631,0.5995643,302.3294,108.0059,174.2639,True
2,2.155558,0.04850826,0.04132149,-0.02447489,4.683294,1.055421,-1.617603,0.2205879,1.429605,0.5494626,-1.02742,0.6146931,7.824934,19.1772,-0.001258977,0.08911843,0.001119979,-0.2006612,-1.435542,-2.869869,0.3206458,1.515538,0.410363,-0.02873802,-0.008559695,0.0410832,-1.343745,0.2323197,0.1251196,0.4375485,1.502206,0.2661211,-0.04963788,1.625104,0.6003696,301.7986,107.8561,174.4024,True
2,2.166669,0.04850258,0.04986115,-0.01382594,4.682436,1.055699,-1.618019,0.2199412,1.429941,0.5492594,-1.021232,0.5567309,8.302388,19.71288,0.03149431,0.05303951,-0.05240932,-0.1984428,-1.435889,-2.871018,0.3199871,1.516096,0.4102502,-0.02672373,-0.02241536,0.02722339,-1.344022,0.231615,0.1254988,0.4367121,1.502836,0.2659018,-0.05162465,1.623977,0.6012454,301.3303,107.643,174.6518,True
2,2.17778,0.05277556,0.03920935,-0.01381624,4.682506,1.055506,-1.618764,0.2193314,1.430411,0.5489326,-1.015142,0.548465,8.753316,19.82001,0.03448637,0.03711442,-0.08760643,-0.1964726,-1.438315,-2.86905,0.3192484,1.516778,0.4100378,-0.03420321,-0.03838848,0.02622117,-1.343913,0.230626,0.1263686,0.4359651,1.503398,0.2656279,-0.05355811,1.622919,0.6021017,300.9131,107.3518,175.0217,True
2,2.188891,0.05595918,0.0359998,-0.02552818,4.68225,1.054853,-1.619503,0.2187635,1.43083,0.54863,-1.009885,0.4723265,9.045091,19.6486,0.0164571,0.03706453,-0.07576983,-0.1961322,-1.441683,-2.865271,0.3184923,1.517514,0.4097457,-0.05738984,-0.04688061,0.05942047,-1.342305,0.229571,0.1278861,0.4351902,1.503999,0.2653115,-0.05542025,1.621978,0.6028826,300.509,107.0082,175.4458,True
2,2.200002,0.06128183,0.0253353,-0.03937145,4.6823,1.053828,-1.620431,0.2182079,1.431378,0.5483828,-1.004697,0.466785,9.28382,19.54146,0.004987203,0.0359336,-0.03947058,-0.1972071,-1.442798,-2.863819,0.3177497,1.518162,0.4094,-0.07006341,-0.05005945,0.07443184,-1.341047,0.2287086,0.1293074,0.4344483,1.504595,0.2650039,-0.05715474,1.621087,0.6035014,300.1544,106.7368,175.8138,True
2,2.211113,0.06983576,0.0008604154,-0.03613993,4.68293,1.053758,-1.621474,0.2177639,1.431933,0.5480978,-0.9992074,0.4943004,9.442968,19.60574,-0.01836052,0.07419398,-0.01263311,-0.1985962,-1.452003,-2.85374,0.317025,1.518718,0.4090309,-0.05717675,-0.02662912,0.0849788,-1.339682,0.2291027,0.1293455,0.4337592,1.505196,0.2646108,-0.05879575,1.620229,0.6039298,299.8455,106.6295,176.0053,True
2,2.222224,0.08159144,-0.02466879,-0.02225721,4.684,1.054166,-1.622566,0.2173784,1.432394,0.5478113,-0.9940494,0.4639275,9.575595,19.90572,-0.02365962,0.1178343,0.006633155,-0.200029,-1.464718,-2.840866,0.3164352,1.519343,0.4086387,-0.02099727,-0.006422788,0.07724114,-1.339076,0.2297108,0.1281753,0.4332527,1.505848,0.2641737,-0.06038373,1.619418,0.6042417,299.5621,106.6069,176.0316,True
2,2.233335,0.09656573,-0.05338101,-0.004125151,4.685401,1.054726,-1.624107,0.2168903,1.432846,0.5475771,-0.9890485,0.4500357,9.761274,20.56996,0.0007907823,0.1051235,-0.005265314,-0.1997957,-1.468739,-2.837784,0.315846,1.519928,0.408298,-0.001960823,-0.03201251,0.06219368,-1.339004,0.2285144,0.1279002,0.4326515,1.506484,0.2637112,-0.06194246,1.618665,0.6045241,299.2779,106.6023,176.0033,True
2,2.244446,0.1008316,-0.06828883,-0.00516457,4.686633,1.054827,-1.625175,0.2164832,1.433259,0.5472181,-0.9841051,0.4448638,9.973473,21.25562,0.01241044,0.0945209,-0.02347233,-0.1990628,-1.47352,-2.833604,0.3153247,1.520514,0.4078813,-0.01471277,-0.04798044,0.06763104,-1.338082,0.2272995,0.1286925,0.4320271,1.507064,0.2632706,-0.06342616,1.617875,0.6047322,298.9917,106.5301,176.0762,True
2,2.255557,0.1200036,-0.075748,-0.02009321,4.687755,1.054111,-1.627275,0.2159778,1.433679,0.5468304,-0.9796619,0.39931,10.15915,21.85558,0.006129406,0.07425279,-0.01386708,-0.1992902,-1.474158,-2.832803,0.314773,1.521152,0.4074392,-0.04436221,-0.06498991,0.09342952,-1.336361,0.22578,0.13055,0.4314183,1.50764,0.262768,-0.06486291,1.61699,0.6048063,298.7254,106.4449,176.1969,True
2,2.266668,0.1434483,-0.1055775,-0.0424519,4.68987,1.052925,-1.629679,0.2154791,1.434295,0.5464306,-0.9744325,0.4716579,10.34483,22.36983,-0.01821252,0.05180031,0.001189725,-0.1997765,-1.472389,-2.833652,0.3142254,1.521761,0.4070206,-0.06862538,-0.07135365,0.1255707,-1.334131,0.2243689,0.1323706,0.4308303,1.508131,0.2622709,-0.0663496,1.616005,0.6047418,298.4796,106.406,176.2574,True
2,2.277779,0.1530527,-0.1258075,-0.04456013,4.691967,1.052553,-1.631595,0.2149327,1.434785,0.5461156,-0.9706839,0.3356388,10.45093,22.73409,-0.03207763,0.04325139,-0.004055138,-0.1995991,-1.473892,-2.831372,0.3135803,1.522361,0.4066381,-0.07072417,-0.07454514,0.129848,-1.332825,0.2233034,0.1333256,0.430254,1.508646,0.2618332,-0.06792843,1.614944,0.6045836,298.1793,106.43,176.205,True
2,2.28889,0.1392245,-0.1503316,-0.04876287,4.694407,1.052137,-1.632584,0.2144984,1.435189,0.5458105,-0.9665543,0.3718998,10.50398,22.62695,-0.03860863,0.05177423,-0.02210761,-0.1990297,-1.479208,-2.825596,0.3129687,1.52299,0.4062178,-0.07303926,-0.06602591,0.1042985,-1.332566,0.2229006,0.1342468,0.4298008,1.509116,0.2613139,-0.06963068,1.613829,0.6044409,297.8585,106.5758,175.9978,True
2,2.300001,0.1296454,-0.1577971,-0.04980788,4.696315,1.051607,-1.633695,0.2140175,1.435655,0.5454862,-0.9617495,0.433337,10.5305,22.2627,-0.02922991,0.1029481,-0.03489385,-0.1991842,-1.495611,-2.809544,0.3123009,1.523656,0.4057519,-0.07964295,-0.05111787,0.07451324,-1.3328,0.222879,0.1353301,0.429278,1.509596,0.2608373,-0.07145569,1.612649,0.6043872,297.4987,106.805,175.7127,True
2,2.311112,0.1286043,-0.166303,-0.04020637,4.698332,1.051622,-1.635147,0.2136343,1.436068,0.5451126,-0.9566245,0.4621903,10.5305,21.70559,-0.03238419,0.1487236,-0.01245274,-0.2007454,-1.50941,-2.795569,0.3116177,1.524081,0.4052346,-0.09895691,-0.02128824,0.05333608,-1.332882,0.2235363,0.1369496,0.4287695,1.510094,0.2603462,-0.07333747,1.611361,0.6044082,297.096,106.9394,175.5403,True
2,2.322223,0.1317908,-0.165233,-0.04127684,4.700119,1.051231,-1.636613,0.2133405,1.436439,0.5446949,-0.9527363,0.3491679,10.5305,21.06278,-0.04503347,0.1529268,0.008947734,-0.2020924,-1.516096,-2.78809,0.3110063,1.524633,0.4047382,-0.09989766,-0.009563547,0.06824994,-1.331672,0.2236077,0.1380186,0.428202,1.510565,0.2599087,-0.07519876,1.610013,0.6044605,296.6119,107.0257,175.4445,True
2,2.333334,0.12968,-0.1716079,-0.03274499,4.702161,1.051264,-1.638013,0.2129584,1.436832,0.5441806,-0.9493546,0.3039194,10.61008,20.71995,-0.06626353,0.1432814,0.01653838,-0.2030053,-1.521448,-2.781466,0.3105139,1.524941,0.4042258,-0.0783232,0.00321395,0.1021724,-1.329379,0.2237381,0.1381225,0.4276623,1.511018,0.2594862,-0.07697102,1.60871,0.6045216,296.1022,107.0758,175.4019,True
2,2.344445,0.1265025,-0.1833329,-0.03272422,4.704695,1.051021,-1.63939,0.2124388,1.43722,0.543736,-0.9457434,0.3252496,10.66313,20.31283,-0.07920811,0.1251794,-0.01322025,-0.202266,-1.527111,-2.77459,0.3099266,1.525295,0.4037628,-0.04723367,0.007447973,0.1274952,-1.327286,0.2234893,0.1377051,0.4272174,1.511391,0.2590442,-0.07854677,1.60744,0.6045141,295.6422,107.1035,175.3966,True
2,2.355556,0.1222391,-0.1769338,-0.02953432,4.706348,1.05089,-1.640671,0.2120177,1.437659,0.5433283,-0.9421039,0.3276597,10.74271,20.22713,-0.06851253,0.1081588,-0.01331317,-0.2023832,-1.530531,-2.770895,0.3094712,1.525721,0.4032478,-0.02273164,0.005296161,0.1283787,-1.325842,0.2232543,0.1373781,0.4267997,1.511714,0.2584841,-0.0799179,1.606239,0.6044237,295.2597,107.152,175.3828,True
2,2.366668,0.1062669,-0.1737384,-0.01672888,4.708172,1.051358,-1.641228,0.2117863,1.437991,0.542881,-0.9385736,0.3177193,10.90185,20.59138,-0.03839406,0.08687822,0.02267906,-0.2039044,-1.528793,-2.77312,0.3091079,1.525874,0.4027147,0.008015603,0.00419662,0.1089676,-1.325267,0.2231899,0.1363576,0.4264839,1.512025,0.2579231,-0.0811808,1.605168,0.6042393,294.9756,107.2354,175.3669,True
2,2.377779,0.0807188,-0.1769464,-0.007103907,4.710233,1.051723,-1.641341,0.2114418,1.438243,0.5425198,-0.9350539,0.3168403,11.11406,21.34133,-0.02879613,0.082641,0.02260953,-0.2044349,-1.532349,-2.769584,0.3087217,1.526178,0.4022048,0.007753316,-0.004338138,0.07594998,-1.325497,0.2229076,0.1364899,0.4261079,1.512328,0.2573545,-0.08245018,1.604252,0.6039786,294.7575,107.4015,175.2379,True
2,2.38889,0.05406442,-0.1535279,0.002478366,4.711177,1.052039,-1.64101,0.2112183,1.438373,0.5420127,-0.9309932,0.3664103,11.29973,22.24127,-0.01827086,0.07630205,0.001218388,-0.2038895,-1.537233,-2.764923,0.3084311,1.526458,0.4016883,-0.02026424,-0.03948445,0.03781667,-1.326677,0.2213722,0.1380569,0.4258676,1.512558,0.2567863,-0.08369137,1.603439,0.6036541,294.5312,107.5017,175.0975,True
2,2.400001,0.03804239,-0.119442,0.007774889,4.711274,1.052309,-1.64087,0.211031,1.438481,0.5414522,-0.9272493,0.3371227,11.48541,23.1412,-0.02153841,0.06673709,-0.01477044,-0.2032482,-1.541661,-2.760406,0.3082526,1.526537,0.4012308,-0.05551057,-0.04371586,0.02637617,-1.326566,0.2207938,0.1400114,0.4255499,1.512794,0.2562168,-0.08482528,1.602657,0.6032287,294.2954,107.5771,174.9678,True
2,2.411112,0.04228947,-0.1045239,0.003485077,4.712016,1.052246,-1.641682,0.2108547,1.438695,0.5408845,-0.9236471,0.324508,11.61804,23.99829,-0.02381424,0.07741165,-0.0328536,-0.2027891,-1.549608,-2.75229,0.3079367,1.526756,0.4006715,-0.06384003,-0.01387026,0.04880214,-1.325131,0.2214798,0.1408208,0.425262,1.512965,0.2556751,-0.08587201,1.601923,0.6027189,294.0839,107.6916,174.7955,True
2,2.422223,0.04868564,-0.1077149,0.002420851,-1.569839,1.052413,-1.642459,0.2104973,1.438994,0.5403883,-0.9207485,0.2602963,11.75066,24.89822,-0.03118163,0.07951422,-0.01895975,-0.2033494,-1.554013,-2.747411,0.3074939,1.526918,0.4001586,-0.05407119,-0.00214833,0.07110116,-1.323477,0.2216457,0.1409795,0.4248767,1.513124,0.2551336,-0.08677192,1.601242,0.6021454,293.8709,107.6994,174.7035,True
2,2.433334,0.06359637,-0.1183638,-0.01036655,-1.568186,1.051965,-1.64365,0.2102422,1.43937,0.5398717,-0.9186723,0.1856176,11.93634,26.01243,-0.04604418,0.07627689,-0.01246619,-0.2037766,-1.557015,-2.743436,0.3072577,1.527173,0.399544,-0.03583463,-0.004287916,0.08801019,-1.321951,0.2212753,0.1408093,0.4245788,1.513285,0.25454,-0.08752244,1.600651,0.6015682,293.6868,107.6504,174.6722,True
2,2.444445,0.07955624,-0.1140979,-0.0199768,-1.567034,1.051566,-1.64504,0.2100088,1.439538,0.5394187,-0.915639,0.2737148,12.01592,26.56953,-0.04048344,0.06027453,0.01730911,-0.2049276,-1.555425,-2.744647,0.3069682,1.527385,0.3989327,-0.009282161,-0.03414368,0.08036372,-1.32155,0.2196843,0.1402873,0.4243922,1.513263,0.2539487,-0.08819878,1.600132,0.6010438,293.5906,107.728,174.5663,True
2,2.455556,0.083804,-0.1034357,-0.02106431,-1.566301,1.051382,-1.646091,0.2098732,1.439695,0.5389438,-0.9129002,0.2458786,12.04244,26.63381,-0.01999586,0.03684946,0.04590627,-0.2061574,-1.550857,-2.749581,0.3067526,1.527688,0.3983452,-0.02341377,-0.03414493,0.04318563,-1.322252,0.2194289,0.1411095,0.4242378,1.513268,0.2532804,-0.08894259,1.599665,0.6006122,293.5334,107.8723,174.4359,True
2,2.466667,0.08167358,-0.1023743,-0.02106235,-1.565137,1.051246,-1.646941,0.2097378,1.439783,0.538487,-0.909975,0.263275,12.04244,26.29098,-0.01359591,0.04750855,0.05120406,-0.2071614,-1.553456,-2.747059,0.306538,1.527907,0.3977551,-0.04386134,-0.02348562,0.01457166,-1.323026,0.219685,0.1422314,0.424178,1.513317,0.2526493,-0.08975125,1.599125,0.6002725,293.4625,108.0848,174.2288,True
2,2.477778,0.07954869,-0.101299,-0.0168018,-1.56409,1.051268,-1.647731,0.209656,1.439876,0.5380073,-0.9064884,0.3144159,12.01592,25.60531,-0.009512797,0.06991521,0.03202742,-0.2074666,-1.561562,-2.739213,0.3063161,1.527976,0.3971555,-0.08666857,-0.0202632,-0.01173913,-1.324036,0.219735,0.144624,0.4240913,1.513301,0.2520347,-0.09057606,1.598375,0.6000381,293.3517,108.1944,174.0915,True
2,2.488889,0.08167413,-0.1002348,-0.01893402,-1.563001,1.051103,-1.648696,0.2095907,1.439906,0.5375426,-0.9031174,0.3034858,11.98939,24.76966,-0.008652389,0.07208603,0.002191862,-0.2068775,-1.567537,-2.73333,0.3062033,1.528076,0.3966136,-0.1026321,-0.04048891,-0.007348936,-1.324088,0.2185121,0.1465815,0.4240028,1.513354,0.2514155,-0.09140215,1.597392,0.5999122,293.1436,108.173,174.1068,True
2,2.5,0.07632928,-0.09065987,-0.02426998,-1.562353,1.050671,-1.649352,0.2095072,1.439885,0.536958,-0.8999482,0.2851581,11.90981,23.54832,-0.009793494,0.05931842,-0.0137947,-0.206314,-1.569652,-2.731149,0.3059887,1.528247,0.3960166,-0.08865187,-0.04582052,0.01065956,-1.323388,0.2176728,0.1472211,0.4238692,1.513409,0.2508585,-0.09223726,1.596215,0.5998601,292.851,108.1472,174.1812,True
2,2.511111,0.07416884,-0.08002329,-0.03706468,-1.561881,1.049912,-1.65011,0.2094202,1.43979,0.5365105,-0.8970576,0.2598146,11.80371,21.89844,-0.01724222,0.05290671,-0.01375066,-0.2063279,-1.571177,-2.729081,0.3057976,1.528317,0.3955009,-0.05643713,-0.03305649,0.04236587,-1.321857,0.2174743,0.1466326,0.4237096,1.51349,0.2502711,-0.09307679,1.594919,0.5998318,292.5013,108.1146,174.2851,True
2,2.522222,0.06885888,-0.0960066,-0.0359598,-1.560265,1.04981,-1.650638,0.2093274,1.439792,0.5361152,-0.8937228,0.3007203,11.67109,19.94857,-0.02587823,0.05077078,-0.03073996,-0.2056839,-1.574821,-2.72489,0.3056376,1.528325,0.3950214,-0.03811672,-0.02134448,0.06885988,-1.320156,0.2174135,0.1465135,0.4236549,1.513566,0.2497127,-0.09391072,1.593564,0.5997962,292.1525,108.0955,174.3709,True
2,2.533333,0.05396377,-0.1173382,-0.0412363,-1.558215,1.049327,-1.650735,0.209244,1.439821,0.5358427,-0.8907602,0.2662413,11.53846,17.95586,-0.02478039,0.05289597,-0.02541918,-0.2058442,-1.577905,-2.721664,0.3054705,1.528267,0.3945127,-0.04983705,-0.01494269,0.0678806,-1.31947,0.217352,0.1475082,0.4235616,1.513475,0.2491744,-0.09473513,1.592225,0.5997551,291.8172,108.0767,174.43,True
2,2.544444,0.04332572,-0.1418646,-0.0486403,-1.555756,1.048746,-1.650772,0.2094694,1.439871,0.5354781,-0.8875229,0.2917562,11.43236,16.30598,-0.02486695,0.05929767,-0.03606673,-0.2054634,-1.58329,-2.716127,0.305359,1.528253,0.3939626,-0.07333043,-0.02452124,0.06165889,-1.319275,0.2165334,0.1493514,0.4234603,1.513281,0.248615,-0.09553613,1.590946,0.59974,291.5243,108.1102,174.4107,True
2,2.555555,0.04549034,-0.1759586,-0.05498262,-1.552687,1.048144,-1.651374,0.2095951,1.439799,0.5351398,-0.8840832,0.3100148,11.40584,14.95607,0.01786627,0.05937594,-0.01824676,-0.2061052,-1.58602,-2.715094,0.3053108,1.528275,0.3933799,-0.07237728,-0.02346368,0.0467375,-1.319263,0.2162834,0.1501836,0.4234154,1.513124,0.2480154,-0.09632547,1.589749,0.5997168,291.257,108.2429,174.3165,True
2,2.566666,0.04975767,-0.1844833,-0.05923678,-1.550273,1.04752,-1.652087,0.2097613,1.439716,0.5347452,-0.8810312,0.2744802,11.37931,13.77759,0.03096045,0.03698714,0.01998699,-0.2072605,-1.581493,-2.720285,0.3052659,1.528177,0.392832,-0.06607554,-0.02026485,0.0360201,-1.319441,0.2163914,0.1508217,0.4234986,1.512911,0.2474523,-0.09706869,1.588643,0.5996548,290.9804,108.5058,174.0811,True
2,2.577777,0.05185612,-0.1695841,-0.06991619,-1.548862,1.046504,-1.652722,0.2099337,1.439555,0.5342464,-0.8786471,0.2137385,11.35279,12.85623,0.01173191,0.04121214,0.01373277,-0.2074837,-1.584192,-2.717106,0.3051984,1.528006,0.3922505,-0.06947418,0.002098028,0.006206743,-1.320303,0.2173799,0.1514255,0.4235315,1.512734,0.2469356,-0.09725208,1.588047,0.5994293,290.925,109.3567,173.3592,True
2,2.588888,0.05181767,-0.1408242,-0.07102976,-1.548212,1.045661,-1.653217,0.2101253,1.439314,0.5338123,-0.875837,0.2531152,11.43236,12.38483,-0.003439933,0.05825893,-0.01810533,-0.2067508,-1.592715,-2.708074,0.3052933,1.527921,0.3916872,-0.07718286,0.005284756,-0.02676823,-1.321749,0.2177329,0.1525674,0.4236297,1.512559,0.2463813,-0.09716673,1.587712,0.5991225,291.1758,109.9102,172.8968,True
2,2.599999,0.04966863,-0.1184425,-0.06467123,-1.547664,1.045242,-1.65369,0.2102366,1.439116,0.5333216,-0.8727626,0.2768794,11.45889,12.19199,-0.003542401,0.05934132,-0.03301781,-0.2062096,-1.597656,-2.70322,0.3052758,1.527769,0.3911989,-0.07407705,-0.001114786,-0.03850975,-1.322628,0.2175938,0.1532425,0.4236351,1.512392,0.2458508,-0.09701608,1.587429,0.5988153,291.5018,110.3469,172.5419,True
2,2.61111,0.05285953,-0.1056371,-0.05509759,-1.546959,1.045171,-1.654349,0.2104629,1.438954,0.5328662,-0.8695924,0.285504,11.43236,12.14913,0.01024377,0.06790526,-0.03949242,-0.2060807,-1.603497,-2.698186,0.3053795,1.527563,0.3907003,-0.04962253,-0.008599032,-0.04402347,-1.323393,0.2172281,0.152981,0.4236307,1.512285,0.2452993,-0.09685788,1.587165,0.5985711,291.823,110.6619,172.2898,True
2,2.622221,0.05818753,-0.1077656,-0.05829464,-1.545579,1.044536,-1.655187,0.2106047,1.438843,0.5324879,-0.866541,0.2745837,11.32626,12.10628,0.02728076,0.07326727,-0.03853915,-0.2061537,-1.608339,-2.694315,0.3054835,1.527521,0.3903286,-0.02170384,-0.004346611,-0.01440592,-1.322453,0.2172904,0.1523589,0.4236686,1.512188,0.2447622,-0.09669769,1.586922,0.5984158,292.1171,110.7772,172.2282,True
2,2.633332,0.05924386,-0.09497324,-0.05405267,-1.544905,1.044142,-1.655897,0.2107539,1.438774,0.5322559,-0.8638378,0.2429815,11.08753,11.59203,0.03915267,0.03812893,-0.02800677,-0.2058959,-1.605004,-2.698422,0.3055786,1.527484,0.3898871,-0.01843652,-0.008605145,-0.004841419,-1.322225,0.2170278,0.1524535,0.4237498,1.512107,0.2442369,-0.0965495,1.586707,0.5982935,292.3824,110.7557,172.3353,True
2,2.644443,0.04643801,-0.07687826,-0.05619427,-1.544677,1.043489,-1.655996,0.2108771,1.438621,0.53196,-0.8612807,0.2299785,10.74271,10.88493,0.03716515,-0.00875574,-0.02271837,-0.2051806,-1.597523,-2.705995,0.3055419,1.527493,0.3894405,-0.03235994,-0.01818267,-0.01325228,-1.322751,0.21657,0.1535035,0.4238081,1.512014,0.2437093,-0.0964184,1.586502,0.5981312,292.6398,110.8167,172.3724,True
2,2.655554,0.02406104,-0.07691354,-0.06042626,-1.543758,1.042775,-1.655498,0.2110571,1.438505,0.531714,-0.858739,0.2291202,10.37135,10.19927,0.04341812,-0.0001950897,-0.03979401,-0.2044227,-1.601095,-2.70317,0.305522,1.527487,0.3890462,-0.06973857,-0.04265538,-0.02254842,-1.323602,0.2152877,0.1558772,0.423842,1.511893,0.2431865,-0.09618213,1.586221,0.5980051,292.9944,110.761,172.4406,True
2,2.666665,0.01021597,-0.08012907,-0.06359579,-1.542674,1.042119,-1.655216,0.2111776,1.438431,0.5314081,-0.856046,0.2430967,9.999999,9.642169,0.04648352,0.02645658,-0.04937085,-0.2041798,-1.608861,-2.696151,0.3054357,1.527418,0.3886399,-0.07915496,-0.04690358,0.000959862,-1.322932,0.2144698,0.1572503,0.4238827,1.511726,0.2427013,-0.09612638,1.586061,0.597891,293.1615,111.0112,172.2188,True
2,2.677776,0.007026556,-0.08759332,-0.06571093,-1.541401,1.041427,-1.655177,0.2113888,1.438381,0.5311122,-0.8536651,0.2147243,9.655171,9.213628,0.03691682,0.04986035,-0.0375564,-0.204845,-1.61523,-2.689932,0.3054864,1.527367,0.3882055,-0.0715106,-0.03518354,0.02433436,-1.321826,0.2142702,0.1578221,0.4239418,1.511636,0.2422366,-0.09607674,1.585932,0.5977986,293.2939,111.2078,172.0355,True
2,2.688887,0.01021233,-0.07373236,-0.0604082,-1.541025,1.041013,-1.65543,0.2117023,1.438336,0.530823,-0.8524017,0.1129805,9.416446,9.106493,0.01463711,0.04765981,-0.02462121,-0.2051923,-1.616409,-2.68819,0.3056442,1.527337,0.3878567,-0.05974215,-0.02347234,0.02956819,-1.321349,0.2144007,0.1579939,0.4239838,1.511538,0.2418203,-0.09603161,1.58585,0.5976912,293.3952,111.3633,171.8939,True
2,2.699998,0.008070654,-0.06414787,-0.05935428,-1.540586,1.04043,-1.655423,0.211922,1.43839,0.5305531,-0.8514712,0.08351726,9.310343,9.342188,0.0008571036,0.03696666,-0.01814844,-0.205212,-1.616433,-2.687699,0.3058066,1.52737,0.3874645,-0.02789856,-0.005392181,0.01227975,-1.321708,0.2151018,0.157094,0.4242034,1.511548,0.2414432,-0.09600333,1.585793,0.5975523,293.4807,111.5367,171.7629,True
2,2.711109,0.01658946,-0.06626396,-0.06042203,-1.539791,1.039866,-1.655827,0.2122699,1.438544,0.5303032,-0.8507287,0.06661609,9.28382,9.835011,0.01273899,0.01460232,-0.001209588,-0.20544,-1.612305,-2.69226,0.3061799,1.527362,0.3870797,-0.01518619,-0.01286371,0.003664036,-1.322033,0.2147327,0.156927,0.4243616,1.511459,0.2410417,-0.09611841,1.585861,0.5972759,293.3086,112.0021,171.4149,True
2,2.72222,0.01127647,-0.07905873,-0.06359228,-1.538389,1.039168,-1.655799,0.2125688,1.438666,0.53005,-0.849575,0.1043758,9.336869,10.52068,0.03518665,-0.0141085,-0.0003285082,-0.2050149,-1.60751,-2.6982,0.3064983,1.527305,0.3867362,-0.004601611,-0.02672491,-0.003868033,-1.322461,0.2139361,0.1568037,0.4245418,1.511341,0.2406347,-0.09612775,1.585743,0.5969533,293.4382,112.7951,170.5325,True
2,2.733331,-0.01108434,-0.09187779,-0.06674002,-1.536821,1.038448,-1.654872,0.2128419,1.438818,0.5297916,-0.8491468,0.03780997,9.416446,11.3349,0.03840076,-0.04179227,-0.007838318,-0.2040807,-1.601738,-2.704451,0.3067121,1.527288,0.3862979,-0.01031854,-0.03313119,-0.05495596,-1.324793,0.2137008,0.1571758,0.424732,1.511207,0.2401378,-0.09615269,1.585681,0.5968232,293.5186,112.8989,170.5725,True
2,2.744442,-0.02598603,-0.09827717,-0.06245503,-1.535547,1.037968,-1.654064,0.2130012,1.439023,0.5294907,-0.8480645,0.09825583,9.469496,12.02057,0.04794731,-0.04069695,-0.01323138,-0.2036162,-1.601005,-2.705925,0.3068548,1.527379,0.3859303,-0.014847,-0.02248955,-0.09114625,-1.326946,0.2141942,0.1574466,0.4248607,1.511168,0.2396624,-0.09595999,1.585667,0.5967992,293.6372,112.3959,171.0698,True
2,2.755553,-0.04622102,-0.09616497,-0.05497384,-1.534473,1.037684,-1.6528,0.2133139,1.439252,0.5293429,-0.8465577,0.1366144,9.549072,12.49196,0.05867398,-0.02790771,0.001626447,-0.2040956,-1.600434,-2.707536,0.3070687,1.527414,0.3855138,-0.01402091,-0.03102366,-0.1220438,-1.329482,0.2139882,0.1576501,0.4250727,1.511139,0.2393053,-0.09580614,1.585661,0.5968004,293.7361,112.0255,171.3832,True
2,2.766664,-0.05794801,-0.09618215,-0.06028889,-1.533428,1.036865,-1.651768,0.213611,1.439467,0.5290947,-0.8461555,0.03540325,9.655171,12.72766,0.05558845,-0.02367522,0.01976203,-0.2047992,-1.598257,-2.710132,0.3073012,1.52742,0.3851073,-0.01181771,-0.03528467,-0.1114118,-1.330416,0.2135156,0.1578575,0.4252029,1.511056,0.2389095,-0.09578604,1.585702,0.5967491,293.7373,111.9738,171.4647,True
2,2.777775,-0.06116305,-0.09621036,-0.0751975,-1.532219,1.035609,-1.650962,0.2139623,1.439715,0.5288997,-0.8454082,0.06798179,9.814323,12.70623,0.06221217,-0.01944348,0.05487689,-0.2063875,-1.594095,-2.71515,0.307565,1.527541,0.3847339,-0.006266996,-0.04060385,-0.08162371,-1.33043,0.2128505,0.1578376,0.4253137,1.511048,0.2385509,-0.09587357,1.585784,0.5966355,293.6586,112.2356,171.2675,True
2,2.788886,-0.06438287,-0.09730039,-0.0911758,-1.531009,1.034056,-1.650041,0.2142654,1.43997,0.5286481,-0.8453795,0.001959626,9.973473,12.44911,0.06446454,-0.03755856,0.06655684,-0.2069628,-1.58761,-2.722301,0.3077768,1.527548,0.3843613,-0.003822207,-0.03633051,-0.04116376,-1.329641,0.2124386,0.1578301,0.4254148,1.510934,0.2382045,-0.09582841,1.585902,0.5963387,293.4413,112.171,171.2774,True
2,2.799997,-0.06545269,-0.09731007,-0.09330423,-1.529762,1.033043,-1.649199,0.21454,1.440207,0.5283992,-0.845454,-0.006935535,10.15915,11.95629,0.05588032,-0.04502198,0.05488706,-0.2068024,-1.583821,-2.726332,0.3079951,1.52755,0.383986,-0.005775288,-0.02992794,-0.01878101,-1.329153,0.2122546,0.1579662,0.4255513,1.510826,0.2377245,-0.09589367,1.586009,0.5960899,293.3639,112.6401,170.7828,True
2,2.811108,-0.065459,-0.08984345,-0.09011419,-1.529018,1.032339,-1.648433,0.2150146,1.440557,0.5280731,-0.8451893,0.02413509,10.3183,11.35633,0.05154613,-0.03330433,0.04853285,-0.2069697,-1.583834,-2.726679,0.3082685,1.527588,0.3835933,-0.0088591,-0.03950425,-0.002776295,-1.328827,0.2114236,0.1583851,0.4258111,1.51081,0.237252,-0.09576938,1.586104,0.5957507,293.2133,112.6832,170.5683,True
2,2.822219,-0.0739771,-0.08770835,-0.07945373,-1.528081,1.031901,-1.647199,0.2153011,1.440794,0.5278389,-0.8450668,0.01092504,10.45093,10.67066,0.05795569,-0.02797571,0.05276067,-0.2076136,-1.581341,-2.730026,0.3086407,1.527601,0.3832076,-0.02063612,-0.06186162,-0.007999921,-1.329331,0.2100673,0.1593095,0.4261476,1.51074,0.2367537,-0.09541485,1.586143,0.5955172,293.0172,112.8918,170.4193,True
2,2.83333,-0.08782725,-0.08559678,-0.0773073,-1.527086,1.031221,-1.645724,0.2155613,1.440981,0.5276642,-0.8449842,0.007347438,10.5305,10.00643,0.05270343,-0.0258715,0.0645169,-0.208542,-1.578034,-2.733654,0.3088752,1.527569,0.3828247,-0.03666153,-0.07782757,-0.01213358,-1.329824,0.2087018,0.1605692,0.4263621,1.510602,0.2363386,-0.0949197,1.586232,0.5953477,292.9191,112.8794,170.3131,True
2,2.844441,-0.09421609,-0.0813287,-0.07091329,-1.526349,1.030691,-1.644451,0.2159988,1.441196,0.5274312,-0.844393,0.05394458,10.50398,9.406469,0.04107846,-0.01633157,0.08165178,-0.2098816,-1.575851,-2.735857,0.3091309,1.527478,0.3824325,-0.04626544,-0.07355954,-0.01419267,-1.33013,0.208065,0.1615852,0.4265383,1.510437,0.2360046,-0.0943446,1.586339,0.5951619,292.7741,112.8761,170.354,True
2,2.855552,-0.1102009,-0.06002179,-0.05387891,-1.526349,1.03068,-1.64268,0.2162185,1.441357,0.527297,-0.8440399,0.03176876,10.45093,9.106493,0.0325789,0.000679072,0.09025121,-0.2112654,-1.575543,-2.736307,0.3094135,1.527402,0.3820939,-0.04413606,-0.05012631,-0.01741493,-1.330409,0.2082952,0.161909,0.4267634,1.510316,0.235723,-0.09399839,1.586435,0.5949904,292.6427,112.9061,170.3774,True
2,2.866663,-0.1091405,-0.04935182,-0.04643386,-1.526197,1.030475,-1.641506,0.2164271,1.441464,0.527108,-0.8441816,-0.0131535,10.39788,9.127917,0.03359345,-0.005706958,0.08065288,-0.2116584,-1.572701,-2.739516,0.3096682,1.52742,0.3817337,-0.03671466,-0.04054511,-0.02280067,-1.330838,0.2082559,0.1621079,0.4269211,1.510132,0.235431,-0.09385598,1.586565,0.5947841,292.5726,112.7615,170.439,True
2,2.877774,-0.1070217,-0.03336295,-0.04006752,-1.526304,1.030268,-1.640391,0.2166771,1.441552,0.5268922,-0.8436777,0.04618526,10.37135,9.492177,0.03360392,-0.01848891,0.07744017,-0.2120499,-1.568445,-2.74409,0.3099472,1.527363,0.3814151,-0.01653399,-0.02778205,-0.03254628,-1.331477,0.2084999,0.1615346,0.4272014,1.510044,0.2351329,-0.09370445,1.586693,0.5945409,292.3973,112.9757,170.2021,True
2,2.888885,-0.107028,-0.02695695,-0.03262137,-1.526217,1.030126,-1.639088,0.2169457,1.44166,0.5266199,-0.8442317,-0.05101292,10.39788,10.19927,0.03022759,-0.01846437,0.05083546,-0.211749,-1.567784,-2.744978,0.3101904,1.527385,0.3810995,-0.01129887,-0.01926779,-0.04537039,-1.332337,0.2086921,0.1614813,0.4273586,1.510007,0.2348125,-0.09352631,1.586819,0.5943604,292.1931,113.1958,170.0237,True
2,2.899997,-0.1027603,-0.03121468,-0.03048882,-1.525616,1.0299,-1.638051,0.2172372,1.44182,0.5263739,-0.844344,-0.009847444,10.5305,11.12063,0.03013308,-0.004605684,0.0412659,-0.2120334,-1.569389,-2.743772,0.3104984,1.527367,0.3807602,-0.01667242,-0.01606847,-0.05172194,-1.333112,0.2087592,0.1618613,0.4276188,1.509938,0.2344522,-0.09332983,1.58691,0.5942314,292.0575,113.2648,170.0197,True
2,2.911108,-0.08569504,-0.04077356,-0.02304587,-1.524727,1.029801,-1.637652,0.2175921,1.442105,0.5261402,-0.8441272,0.01987343,10.66313,12.06342,0.02577514,-0.0003411509,0.0285172,-0.2120419,-1.570493,-2.742835,0.3108377,1.527576,0.3805072,-0.02087105,-0.02671665,-0.04209816,-1.333318,0.2080268,0.1624542,0.4277388,1.509848,0.2341747,-0.09306371,1.587001,0.5940857,291.9578,113.3612,169.9442,True
2,2.922219,-0.08036108,-0.03650031,-0.01665788,-1.524432,1.029977,-1.636972,0.2179087,1.442323,0.5258663,-0.8443419,-0.01984281,10.76923,12.94193,0.02686061,-0.0120556,0.02743047,-0.212083,-1.567711,-2.745896,0.3111933,1.527664,0.3802226,-0.03573618,-0.03629151,-0.03452671,-1.333569,0.2072614,0.1635093,0.4280779,1.509849,0.2339497,-0.09274244,1.58709,0.5939162,291.8341,113.5917,169.7832,True
2,2.93333,-0.08462928,-0.02478154,-0.01027695,-1.524516,1.030076,-1.635875,0.2182768,1.442474,0.5256481,-0.8449464,-0.05509047,10.8488,13.73473,0.03643153,-0.01521896,0.0230942,-0.2120856,-1.566553,-2.747817,0.3115661,1.52766,0.3799839,-0.04638884,-0.03628215,-0.03444636,-1.334014,0.2069064,0.1644845,0.428357,1.50982,0.233614,-0.09239348,1.587187,0.5937251,291.7174,113.8751,169.5641,True
2,2.944441,-0.09317493,-0.01308476,-0.01560653,-1.524706,1.029747,-1.634502,0.2187871,1.442623,0.5254445,-0.8446301,0.02927342,10.79576,14.24898,0.03754246,-0.01309478,0.03054646,-0.2125852,-1.565281,-2.7495,0.3119878,1.52769,0.3796949,-0.04099355,-0.03628713,-0.02490528,-1.334107,0.2065468,0.1649016,0.4287781,1.509786,0.2332337,-0.09203972,1.587274,0.5935208,291.6118,114.1809,169.3303,True
2,2.955552,-0.1080987,-0.0184518,-0.02729677,-1.524191,1.029112,-1.632762,0.2192415,1.442844,0.5253346,-0.8441033,0.04781692,10.79576,14.39897,0.03648965,-0.02481166,0.0284107,-0.2126076,-1.56206,-2.753013,0.3124627,1.527646,0.3793736,-0.01117761,-0.05974977,-0.02405628,-1.334602,0.205159,0.1643839,0.4290845,1.50971,0.2328796,-0.09172998,1.587358,0.5933289,291.5164,114.4049,169.1791,True
