loc,t,aDotS,bDotS,gDotS,aS,bS,gS,xS,yS,zS,qE,qDotE,emgA,emgB,aDotSH,bDotSH,gDotSH,aSH,bSH,gSH,xSH,ySH,zSH,aDotUB,bDotUB,gDotUB,aUB,bUB,gUB,xUB,yUB,zUB,xHand,yHand,zHand,aHand,bHand,gHand,enable
3,0,0.2485869,-0.8423764,0.6181762,4.691751,-4.653155,-2.660418,0.3349403,1.211784,0.47717,-1.037217,-0.0312305,10.50398,16.02742,-0.53984,0.3875329,0.07240707,-0.5645619,-3.62167,-0.4863835,0.3523749,1.420047,0.427314,-0.2429882,0.5281214,0.0671359,-1.107014,0.4810142,-0.1495216,0.5152102,1.488141,0.2792199,0.04220615,1.10793,0.4142897,291.4358,277.7947,351.5305,True
3,0.01111111,0.1986037,-0.8627763,0.6300643,4.689938,-4.640323,-2.660751,0.3331348,1.211312,0.4747479,-1.035673,0.1416583,10.55703,16.11313,-0.5355377,0.3662456,0.06805995,-0.5655622,-3.615547,-0.4856016,0.3511925,1.41999,0.4264941,-0.2333724,0.4972252,0.06807143,-1.106883,0.4860711,-0.1494989,0.514901,1.488172,0.2793102,0.04176158,1.107688,0.4107501,291.1381,269.8934,359.9687,True
3,0.02222222,0.1528343,-0.868216,0.643996,4.687747,-4.627987,-2.660637,0.3312317,1.211196,0.4729729,-1.035305,0.03255917,10.58355,16.13456,-0.5311443,0.3417388,0.0754239,-0.5659484,-3.609712,-0.4847513,0.3500111,1.420042,0.4256613,-0.2312423,0.4737935,0.0658861,-1.106892,0.4911962,-0.1492803,0.5146177,1.488161,0.279397,0.04113571,1.107809,0.406807,291.4264,261.6633,8.978363,True
3,0.03333334,0.1219329,-0.870479,0.6461795,4.685955,-4.615855,-2.660675,0.3294057,1.210794,0.4705615,-1.035029,0.02527903,10.58355,16.13456,-0.5254635,0.2852308,0.09974188,-0.5646604,-3.606055,-0.4822929,0.3489267,1.420038,0.4247646,-0.232356,0.4365156,0.0572975,-1.1072,0.4951862,-0.1483501,0.5143687,1.488105,0.2794845,0.04024517,1.108124,0.403286,292.1099,257.2216,14.29108,True
3,0.04444445,0.07188831,-0.8824825,0.6281886,4.685121,-4.60392,-2.659387,0.327401,1.210668,0.468791,-1.034929,0.009139911,10.61008,16.15599,-0.5220317,0.2564154,0.1220084,-0.5636623,-3.601287,-0.480666,0.3478238,1.419998,0.42382,-0.2345134,0.4141513,0.05195245,-1.107367,0.4994273,-0.1475876,0.5140889,1.488059,0.2795398,0.03929005,1.108356,0.4002749,292.7184,254.058,18.39739,True
3,0.05555556,0.01762297,-0.9030883,0.6006519,4.68518,-4.591683,-2.657773,0.3252885,1.210499,0.466857,-1.035454,-0.04779239,10.6366,16.15599,-0.5283978,0.2595688,0.1284499,-0.5636303,-3.59483,-0.480058,0.3465758,1.420015,0.4228184,-0.2302412,0.4077616,0.05190663,-1.10745,0.5043505,-0.1474587,0.5137432,1.48808,0.2795148,0.03819648,1.108584,0.3976254,293.2993,252.286,21.10691,True
3,0.06666667,-0.03343207,-0.9289579,0.5795342,4.685278,-4.579352,-2.655519,0.3232365,1.210467,0.4652131,-1.034563,0.08218841,10.66313,16.09171,-0.5615769,0.2988698,0.1255708,-0.5645614,-3.586151,-0.4801855,0.3453627,1.419945,0.4217658,-0.2258551,0.4247869,0.06787154,-1.107031,0.5104056,-0.1479205,0.5134697,1.488086,0.2795484,0.03707299,1.108703,0.39511,293.7988,250.9509,23.38563,True
3,0.07777778,-0.07604815,-0.9430921,0.5583469,4.685684,-4.566948,-2.652849,0.321144,1.210328,0.4628947,-1.034544,0.001368129,10.68966,15.94172,-0.5788034,0.3467532,0.1236751,-0.5659297,-3.576034,-0.4817331,0.344213,1.419941,0.4207046,-0.2129458,0.4450017,0.08697518,-1.106255,0.5168537,-0.1487642,0.5131775,1.488077,0.2795272,0.03586251,1.10879,0.3926884,294.4078,249.2811,25.85419,True
3,0.08888889,-0.0952374,-0.9432071,0.5541046,4.685349,-4.554708,-2.651023,0.3190182,1.210459,0.4610887,-1.034349,0.01819833,10.71618,15.72745,-0.5809742,0.3616515,0.1258574,-0.5667036,-3.567434,-0.4825121,0.3430975,1.419988,0.4196713,-0.2107287,0.4332682,0.09759276,-1.105512,0.5219522,-0.1487109,0.5129375,1.488132,0.2795746,0.03453624,1.108927,0.3903048,295.1175,247.618,28.27014,True
3,0.1,-0.1219589,-0.9263551,0.5359449,4.685268,-4.543605,-2.648437,0.3169796,1.21064,0.4593134,-1.034355,-0.0004522375,10.74271,15.51318,-0.5765015,0.3456179,0.1513733,-0.5657523,-3.559634,-0.4828567,0.3421076,1.420141,0.4185152,-0.219203,0.4023632,0.1008077,-1.104803,0.5260472,-0.1478395,0.5127829,1.488117,0.2794859,0.03308949,1.109133,0.3879343,295.8602,246.2939,30.39546,True
3,0.1111111,-0.1402388,-0.9009895,0.5092181,4.685377,-4.533068,-2.645862,0.3150541,1.21089,0.4577644,-1.03561,-0.1143923,10.79576,15.32033,-0.5752462,0.3199986,0.1683569,-0.5646413,-3.553087,-0.4819765,0.3412368,1.420282,0.4174547,-0.2341989,0.3821346,0.08917037,-1.104821,0.5302189,-0.1465652,0.5126922,1.48802,0.2793491,0.03151244,1.109368,0.3854555,296.6459,245.2091,32.38984,True
3,0.1222222,-0.1531168,-0.8841088,0.4857148,4.68576,-4.522758,-2.643442,0.3131486,1.211064,0.4560363,-1.035309,0.02870313,10.87533,15.19177,-0.5708665,0.3050709,0.1789427,-0.5638642,-3.546304,-0.4815195,0.3402848,1.420403,0.4163775,-0.2567833,0.3704441,0.06163447,-1.105602,0.5342755,-0.1447556,0.5126165,1.487962,0.2791953,0.02989291,1.109639,0.3830161,297.438,244.1647,34.30033,True
3,0.1333333,-0.1703143,-0.8545372,0.4504704,4.686248,-4.512939,-2.64084,0.3112958,1.211123,0.4541385,-1.035574,-0.02438351,10.95491,15.10606,-0.5590329,0.2954745,0.1937608,-0.5628772,-3.539085,-0.4816998,0.3393616,1.420508,0.4153671,-0.2634871,0.3736979,0.02440121,-1.107169,0.5389927,-0.1436283,0.5124621,1.487903,0.2790952,0.02823973,1.109955,0.3807506,298.2137,243.278,35.9439,True
3,0.1444445,-0.1821578,-0.8345294,0.4120359,4.687578,-4.503782,-2.638165,0.3095729,1.211438,0.452527,-1.03605,-0.04300569,11.06101,15.10606,-0.5130353,0.2710848,0.2093956,-0.5612814,-3.532843,-0.4828343,0.3385811,1.420684,0.4142737,-0.2615869,0.3929221,-0.003284613,-1.108812,0.5443924,-0.1432331,0.5123724,1.487757,0.2788241,0.02658052,1.110303,0.3787146,298.8766,242.7466,37.15218,True
3,0.1555556,-0.1950782,-0.8134991,0.3693271,4.689424,-4.494805,-2.635463,0.3078608,1.211675,0.4505482,-1.036156,-0.009159043,11.14058,15.17034,-0.4852718,0.2456296,0.2048971,-0.5602806,-3.527712,-0.4826551,0.3376593,1.420833,0.4131975,-0.2606514,0.4089237,-0.01711926,-1.110157,0.5499452,-0.1427318,0.5122989,1.487717,0.2785997,0.02490769,1.1106,0.3767787,299.4193,242.5006,38.09268,True
3,0.1666667,-0.2058549,-0.7924736,0.3234612,4.691268,-4.486197,-2.632823,0.3061159,1.211796,0.448478,-1.036291,-0.01212084,11.16711,15.23462,-0.4574295,0.2190639,0.2110572,-0.5585741,-3.523143,-0.4825389,0.3367925,1.421099,0.4121559,-0.2639315,0.4004221,-0.02882454,-1.11144,0.5544648,-0.1417292,0.512179,1.487638,0.278327,0.02327184,1.11082,0.3747303,299.8989,242.2123,38.97611,True
3,0.1777778,-0.2059054,-0.7840241,0.3085057,4.692866,-4.477391,-2.630347,0.3043705,1.212177,0.4468992,-1.036472,-0.01633174,11.16711,15.29891,-0.4563487,0.2509631,0.2324474,-0.5574017,-3.513751,-0.48536,0.3359602,1.421526,0.4111423,-0.2809262,0.3556606,-0.02556243,-1.111926,0.5571291,-0.1390902,0.5119908,1.487555,0.2780972,0.02182728,1.111148,0.3719257,300.115,242.4247,38.66999,True
3,0.1888889,-0.2155989,-0.7640116,0.2743672,4.694824,-4.469102,-2.627623,0.3027241,1.212632,0.4447956,-1.036717,-0.02211545,11.08753,15.34176,-0.4690737,0.2742907,0.2528496,-0.5559679,-3.504087,-0.4880402,0.3351989,1.421992,0.4102623,-0.2914281,0.3268692,-0.01061984,-1.111995,0.5601141,-0.1368913,0.5118271,1.487476,0.2778602,0.02059592,1.111563,0.3679031,300.2414,242.6445,38.09148,True
3,0.2,-0.2359399,-0.7461008,0.2498015,4.696928,-4.461497,-2.624197,0.3010988,1.213341,0.4433126,-1.037051,-0.03025245,10.98143,15.32033,-0.462607,0.2945006,0.2763017,-0.5544829,-3.49382,-0.4918123,0.3345087,1.422404,0.4091449,-0.2828071,0.3385695,0.004244722,-1.111934,0.5648633,-0.1359964,0.5116993,1.487411,0.2775273,0.01915823,1.11266,0.3608511,298.7462,246.0905,32.197,True
3,0.2111111,-0.2733435,-0.7218391,0.2305518,4.698854,-4.45431,-2.619805,0.2994503,1.214039,0.4418404,-1.036944,0.010095,10.87533,15.34176,-0.4220312,0.2946033,0.2867357,-0.5526464,-3.485274,-0.4961211,0.3340381,1.422757,0.4082506,-0.2785587,0.3407022,0.003144961,-1.112561,0.5691675,-0.1349349,0.5115971,1.487393,0.277184,0.01818392,1.113725,0.3478941,294.4886,258.7783,13.17966,True
3,0.2222222,-0.3278811,-0.6912626,0.2017653,4.700207,-4.44747,-2.613665,0.2980106,1.217755,0.4480963,-1.036347,0.05462139,10.74271,15.40604,-0.390954,0.2584601,0.2949677,-0.5502767,-3.479442,-0.497866,0.3335259,1.423042,0.4071019,-0.2658929,0.3023893,-0.01512719,-1.11359,0.5713409,-0.1334044,0.5115756,1.487364,0.276741,0.0168192,1.112612,0.3256924,293.2798,280.224,341.2422,True
3,0.2333333,-0.3630751,-0.6819082,0.1857748,4.702691,-4.44022,-2.608654,0.2962788,1.218503,0.4467745,-1.035507,0.07646471,10.61008,15.51318,-0.3886203,0.2286157,0.308729,-0.5476226,-3.473027,-0.499152,0.33292,1.423435,0.4061525,-0.2607562,0.2278698,-0.04618266,-1.115135,0.5711097,-0.1305604,0.5115172,1.487194,0.2762716,0.01848957,1.110516,0.3005422,292.7126,279.6307,332.0072,True
3,0.2444444,-0.4078936,-0.6662461,0.1591628,4.705087,-4.433417,-2.602647,0.2943456,1.219289,0.4456663,-1.033985,0.1388372,10.50398,15.70602,-0.3937872,0.2072362,0.3236179,-0.5447022,-3.466638,-0.4999909,0.33239,1.423885,0.4049857,-0.2565635,0.1884839,-0.05906348,-1.116323,0.5719961,-0.128277,0.511416,1.48721,0.2759306,0.02230927,1.10989,0.2784114,292.3221,267.2204,336.0592,True
3,0.2555556,-0.447383,-0.6568975,0.1463691,4.707852,-4.426584,-2.59634,0.2927797,1.220164,0.4443078,-1.035347,-0.1253948,10.4244,16.006,-0.3798361,0.2083045,0.340579,-0.5420529,-3.458772,-0.5030528,0.3319909,1.424354,0.4040885,-0.2521492,0.1980353,-0.0377729,-1.116234,0.5748601,-0.1268291,0.5113021,1.487179,0.275506,0.02860747,1.110167,0.2615058,295.0961,264.2788,330.4847,True
3,0.2666667,-0.4964005,-0.6486767,0.1336616,4.710186,-4.419312,-2.589494,0.2908981,1.221367,0.4432702,-1.034893,0.04301298,10.37135,16.3274,-0.351961,0.1998112,0.3659527,-0.5387852,-3.450851,-0.5068243,0.3315834,1.424813,0.4031579,-0.249704,0.2171615,0.001646582,-1.115341,0.5785892,-0.1259814,0.5112168,1.487111,0.2750556,0.03311649,1.110736,0.2499635,296.1144,260.7302,329.3907,True
3,0.2777778,-0.5592356,-0.6542626,0.1305672,-1.570157,-4.4123,-2.58101,0.2888053,1.222547,0.4420748,-1.034877,0.001281275,10.37135,16.64881,-0.3432529,0.1923151,0.3914458,-0.5351558,-3.442692,-0.5103166,0.3312696,1.425298,0.4023364,-0.2549677,0.2043582,0.009132989,-1.115164,0.5806639,-0.1238125,0.5111171,1.487036,0.2745998,0.03492531,1.111729,0.243241,296.3873,258.5699,329.6326,True
3,0.2888889,-0.6198909,-0.6673898,0.1211762,-1.567035,-4.404078,-2.572316,0.2867223,1.22388,0.4407952,-1.034721,0.01457194,10.37135,16.94879,-0.330484,0.1838492,0.3860142,-0.5324788,-3.435685,-0.5128529,0.3310335,1.425762,0.4014478,-0.2603479,0.1745521,-0.001530647,-1.115811,0.5816732,-0.1212513,0.5110599,1.486944,0.2741716,0.03408237,1.113313,0.2408709,296.2911,257.9786,330.3307,True
3,0.3,-0.7082576,-0.6837554,0.1128392,-1.56338,-4.396646,-2.561579,0.284322,1.225361,0.4395096,-1.033485,0.1130839,10.34483,17.1202,-0.3229766,0.1678996,0.3848587,-0.5294103,-3.429168,-0.515106,0.3307483,1.426298,0.4006195,-0.2445922,0.1170269,-0.03043283,-1.116814,0.5811729,-0.1184867,0.5110682,1.486866,0.2737787,0.03110318,1.11565,0.2419265,296.0281,258.4802,331.2556,True
3,0.3111111,-0.7582902,-0.6924626,0.1150723,-1.560073,-4.389239,-2.551597,0.2820503,1.226753,0.4381831,-1.033633,-0.01396277,10.34483,17.18449,-0.3100739,0.1434268,0.3911031,-0.5258177,-3.423265,-0.5170756,0.3306032,1.426926,0.3998449,-0.2296982,0.09686199,-0.0391723,-1.117648,0.5812606,-0.116762,0.5110784,1.486838,0.2734039,0.02669047,1.11884,0.2451311,295.5836,259.6146,332.4118,True
3,0.3222222,-0.800808,-0.6990584,0.1216195,-1.55738,-4.381167,-2.542145,0.2800819,1.228122,0.4369626,-1.032191,0.1324575,10.3183,17.14163,-0.2897224,0.1179239,0.3941032,-0.522248,-3.418186,-0.5190656,0.330487,1.427568,0.3991015,-0.2245437,0.08624797,-0.06160227,-1.119128,0.581701,-0.1147223,0.5111809,1.486762,0.2729928,0.02173814,1.122907,0.249075,294.8929,261.0178,333.6455,True
3,0.3333333,-0.8583104,-0.7024499,0.1291632,-1.554259,-4.373771,-2.530976,0.2779391,1.229503,0.4355595,-1.033391,-0.1104452,10.3183,17.0345,-0.2874808,0.08597311,0.3940134,-0.5184029,-3.413807,-0.5197092,0.3303968,1.428236,0.3983569,-0.2438942,0.07987577,-0.08382685,-1.120744,0.5823119,-0.1116381,0.5113381,1.486682,0.2725863,0.01675263,1.127785,0.2524244,294.0318,262.3816,334.6715,True
3,0.3444445,-0.9084957,-0.6727962,0.1354739,-1.551847,-4.367386,-2.519219,0.2759681,1.231233,0.4339764,-1.034616,-0.1105508,10.29178,16.86308,-0.288159,0.009219497,0.4119192,-0.5125893,-3.413059,-0.5171078,0.3303794,1.428918,0.3975596,-0.2591037,0.07353899,-0.1220733,-1.123408,0.582752,-0.1085398,0.5115944,1.486551,0.2721093,0.01246044,1.133315,0.2542751,292.9518,263.6308,335.1914,True
3,0.3555556,-0.9405541,-0.6516075,0.1386009,-1.549185,-4.360917,-2.507711,0.2738867,1.23284,0.4324601,-1.033502,0.1030102,10.29178,16.73452,-0.3081099,-0.04416761,0.4289497,-0.5067111,-3.411447,-0.5142655,0.3303272,1.429653,0.3967614,-0.2582795,0.06505984,-0.1519157,-1.125992,0.5829212,-0.1056881,0.5117421,1.486573,0.2716606,0.009347966,1.139179,0.2540701,291.737,264.6081,335.1413,True
3,0.3666667,-1.000343,-0.6231582,0.1225544,-1.54626,-4.355682,-2.49448,0.2715482,1.234558,0.43099,-1.033305,0.01745808,10.3183,16.60596,-0.3376585,-0.05610254,0.4685216,-0.5005646,-3.406288,-0.5139017,0.3301546,1.43034,0.3958728,-0.260768,0.04595712,-0.1988055,-1.129825,0.5823539,-0.102492,0.511932,1.486516,0.2713144,0.007225635,1.145096,0.2515529,290.6378,264.885,334.8613,True
3,0.3777778,-1.026953,-0.6329129,0.1098512,-1.542388,-4.349285,-2.482253,0.2691524,1.236379,0.4295957,-1.03408,-0.07051596,10.34483,16.45597,-0.3534529,-0.01156902,0.5241382,-0.4944798,-3.396036,-0.5184187,0.3300157,1.431044,0.3949838,-0.2566014,0.0417102,-0.2105572,-1.132452,0.5823387,-0.09970902,0.5120026,1.486434,0.2710559,0.005936392,1.150988,0.2469928,289.7364,264.4092,334.4977,True
3,0.3888889,-1.027871,-0.6543581,0.1058556,-1.539005,-4.340538,-2.471561,0.2666298,1.237978,0.4280667,-1.033004,0.09942868,10.37135,16.3274,-0.3706334,0.06712985,0.5478997,-0.4902203,-3.382871,-0.5253496,0.3299653,1.431872,0.3942375,-0.2642295,0.0609217,-0.2317834,-1.135903,0.5835344,-0.09715824,0.5121046,1.486322,0.2707562,0.005189098,1.156766,0.240969,288.8945,263.2633,334.1402,True
3,0.4,-1.041647,-0.6681935,0.1197907,-1.53546,-4.333262,-2.459772,0.26416,1.240116,0.4265947,-1.034371,-0.1254874,10.39788,16.17742,-0.3719167,0.1001935,0.532018,-0.4866288,-3.373002,-0.5298785,0.3299408,1.432653,0.3934507,-0.2613665,0.09187347,-0.2701052,-1.140212,0.5852535,-0.09502345,0.5122286,1.486218,0.2704997,0.004538534,1.162449,0.2342315,288.1558,261.532,334.0062,True
3,0.4111111,-1.045908,-0.6649611,0.1304328,-1.532217,-4.326508,-2.448249,0.261777,1.242104,0.4251432,-1.036411,-0.1850938,10.45093,15.98457,-0.3645174,0.08640993,0.5159506,-0.4823539,-3.36705,-0.5313078,0.3300397,1.433446,0.3927453,-0.2626048,0.1057637,-0.2903158,-1.144209,0.5867236,-0.09265909,0.5124493,1.486136,0.2701528,0.003909486,1.168064,0.2275545,287.3829,259.6066,334.136,True
3,0.4222222,-1.062982,-0.6586535,0.1272271,-1.528602,-4.32019,-2.43608,0.2593606,1.244189,0.4236374,-1.035824,0.05529367,10.47745,15.83458,-0.3567325,0.009712845,0.5242149,-0.4758584,-3.364809,-0.5296191,0.3301006,1.434289,0.3919923,-0.2594802,0.09619328,-0.2999426,-1.14785,0.5871453,-0.09003615,0.5126505,1.486058,0.2698216,0.003291775,1.173524,0.2214017,286.5806,258.017,334.2701,True
3,0.4333333,-1.078963,-0.6514276,0.1134988,-1.525072,-4.313331,-2.423929,0.2574555,1.246174,0.4217594,-1.036239,-0.03836382,10.55703,15.68459,-0.353273,-0.04571244,0.5357655,-0.4689502,-3.362312,-0.5279533,0.3301618,1.435137,0.3911786,-0.2595465,0.07170491,-0.309565,-1.151522,0.5866778,-0.08688057,0.5128852,1.485939,0.2694547,0.002495766,1.178865,0.2160602,285.9342,256.5708,334.5787,True
3,0.4444444,-1.109943,-0.6378267,0.08896857,-1.520713,-4.308246,-2.41071,0.2550897,1.248152,0.4202626,-1.035885,0.03289076,10.6366,15.55603,-0.3497513,-0.09583345,0.5590433,-0.4613974,-3.359916,-0.5263445,0.3302403,1.435925,0.3903775,-0.2532009,0.039764,-0.3181888,-1.155276,0.5855259,-0.08382193,0.513094,1.485822,0.2690203,0.001383434,1.184146,0.2116942,285.3301,255.3215,335.0304,True
3,0.4555556,-1.126055,-0.6167558,0.05798843,-1.516126,-4.303754,-2.397886,0.2529887,1.250111,0.4186115,-1.036059,-0.01600924,10.74271,15.49175,-0.3398359,-0.129981,0.5919213,-0.4535097,-3.355692,-0.526643,0.3302526,1.436682,0.3894925,-0.2467017,0.006730542,-0.3087166,-1.158401,0.5841396,-0.08079685,0.5133603,1.485579,0.2686117,-0.0001073016,1.189444,0.2082671,284.7425,254.4138,335.5764,True
3,0.4666667,-1.138998,-0.5860223,0.0386696,-1.512062,-4.299655,-2.384982,0.2509224,1.251992,0.4170668,-1.035341,0.06599213,10.8488,15.42747,-0.3419187,-0.1151187,0.6090184,-0.4469354,-3.348628,-0.529062,0.3302998,1.437339,0.3886018,-0.2454959,-0.009271957,-0.2927725,-1.161033,0.5832738,-0.0777936,0.5135218,1.485408,0.2681444,-0.001815114,1.19481,0.205557,284.0977,253.795,336.1988,True
3,0.4777778,-1.134853,-0.5615734,0.02469277,-1.508206,-4.29593,-2.372937,0.2488188,1.253888,0.4157684,-1.035951,-0.05613659,10.95491,15.34176,-0.3430305,-0.05979487,0.6336793,-0.4408373,-3.337141,-0.5356283,0.3302296,1.437946,0.3877556,-0.2475498,-0.007166095,-0.2820932,-1.163689,0.5830536,-0.07486838,0.5136406,1.48526,0.2677531,-0.00389531,1.200302,0.2033057,283.4188,253.0663,336.9915,True
3,0.4888889,-1.127453,-0.5552093,0.01611809,-1.503771,-4.291456,-2.360897,0.2468904,1.255821,0.4141939,-1.036217,-0.02355941,11.03448,15.27748,-0.3434428,0.005268991,0.6061662,-0.4370375,-3.325838,-0.5419496,0.3301775,1.43864,0.3868849,-0.2453414,-0.009307049,-0.2725281,-1.166419,0.5826815,-0.07210854,0.5137678,1.485195,0.2673681,-0.006142098,1.205947,0.2013884,282.6762,252.4208,337.7722,True
3,0.5,-1.103022,-0.536996,0.01706084,-1.500198,-4.287565,-2.349852,0.2449047,1.257904,0.4129117,-1.037298,-0.09859054,11.11406,15.19177,-0.3362484,0.0266833,0.576351,-0.4329155,-3.317118,-0.5463502,0.3301245,1.439294,0.3860915,-0.2420194,0.005582675,-0.255486,-1.168698,0.5831054,-0.06973247,0.5138344,1.485118,0.2670202,-0.008381277,1.211728,0.1996645,281.8927,251.9919,338.3409,True
3,0.5111111,-1.083905,-0.527399,0.006326471,-1.495861,-4.283736,-2.338775,0.2430271,1.260012,0.4113231,-1.037476,-0.01540026,11.16711,15.04178,-0.3321902,0.03316998,0.5475811,-0.4286816,-3.309997,-0.5492985,0.3301604,1.439953,0.3853059,-0.2290086,0.02579068,-0.2246604,-1.170197,0.5841404,-0.06800089,0.5138956,1.485114,0.2666972,-0.01044937,1.217571,0.1980077,281.0518,251.6827,338.7938,True
3,0.5222223,-1.066957,-0.5103923,-0.0150867,-1.491588,-4.28082,-2.327784,0.2411451,1.262169,0.410059,-1.038539,-0.09702672,11.22016,14.95607,-0.3343312,0.006576896,0.5304765,-0.423816,-3.304988,-0.5501116,0.3301244,1.440782,0.3845036,-0.2256515,0.03960823,-0.203359,-1.171742,0.5850326,-0.06598807,0.5139394,1.485044,0.2663226,-0.01223099,1.223395,0.196201,280.2261,251.2379,339.3681,True
3,0.5333334,-1.060627,-0.4903154,-0.03421398,-1.488051,-4.277201,-2.316717,0.2391831,1.26412,0.4082479,-1.03858,-0.003023355,11.27321,14.91322,-0.3469218,-0.02226961,0.5453957,-0.4175032,-3.298922,-0.551347,0.3300514,1.441579,0.3836479,-0.2327846,0.0267601,-0.1639068,-1.172293,0.5848486,-0.06307936,0.5140183,1.484904,0.2658811,-0.01371135,1.229139,0.1941347,279.4327,250.6019,339.9942,True
3,0.5444446,-1.049065,-0.4594883,-0.05675769,-1.484124,-4.275526,-2.305769,0.2373573,1.26631,0.4070461,-1.038641,-0.005642634,11.35279,14.91322,-0.3359295,-0.03195286,0.5943055,-0.4101598,-3.289598,-0.5565732,0.3300996,1.442402,0.3828282,-0.2433833,0.0107647,-0.1585203,-1.173814,0.5843228,-0.05985268,0.5140874,1.484789,0.2654626,-0.01495358,1.234738,0.1917242,278.6768,249.3458,341.0893,True
3,0.5555557,-1.048106,-0.4382565,-0.06964887,-1.480081,-4.273505,-2.294196,0.2355769,1.268595,0.4055424,-1.038433,0.0190401,11.45889,15.04178,-0.3163441,-0.02462181,0.6645173,-0.4019104,-3.276169,-0.5660413,0.3301657,1.443208,0.3819618,-0.253038,-0.01798809,-0.1680765,-1.176051,0.5829188,-0.05601054,0.5142512,1.484609,0.2650089,-0.01606285,1.240171,0.1890378,277.9653,247.5872,342.5276,True
3,0.5666668,-1.052538,-0.4032227,-0.09006201,-1.476556,-4.272772,-2.282537,0.2336706,1.270851,0.4043682,-1.038611,-0.01656222,11.56498,15.19177,-0.2980238,-0.01401742,0.7049108,-0.3944445,-3.263171,-0.5752553,0.3302318,1.444046,0.3812296,-0.2479052,-0.03498872,-0.1937125,-1.178985,0.5817026,-0.05298758,0.5143817,1.484492,0.2646182,-0.01715813,1.24544,0.1860821,277.3201,245.6765,344.0593,True
3,0.577778,-1.084673,-0.3661662,-0.1072519,-1.47309,-4.27218,-2.269324,0.2318853,1.273211,0.4029438,-1.037925,0.06285024,11.64456,15.38461,-0.2927163,-0.02037117,0.6984749,-0.3877781,-3.253157,-0.5813401,0.3303168,1.444781,0.3804748,-0.23419,-0.04027995,-0.2098075,-1.181828,0.5809693,-0.05048288,0.5144482,1.484351,0.2642322,-0.01819543,1.250579,0.1831462,276.7871,242.8673,346.3727,True
3,0.5888891,-1.111436,-0.3397016,-0.1158719,-1.469566,-4.271324,-2.255912,0.2301531,1.275531,0.4015326,-1.037859,0.005522921,11.69761,15.59888,-0.2876409,-0.01173124,0.6643802,-0.3825476,-3.243382,-0.5871655,0.33048,1.445547,0.3796544,-0.2089655,-0.04231573,-0.2526252,-1.185956,0.5803045,-0.04869564,0.5145335,1.484277,0.2639136,-0.01930794,1.255705,0.1803544,276.3518,239.5089,349.2585,True
3,0.6000003,-1.130729,-0.3099354,-0.1128019,-1.466779,-4.270627,-2.242659,0.2283279,1.277993,0.4003117,-1.03638,0.1352398,11.72414,15.81315,-0.2749439,0.01600644,0.6665076,-0.3768639,-3.229694,-0.5971366,0.330599,1.446342,0.3790569,-0.2017079,-0.03907577,-0.2771811,-1.189824,0.5797147,-0.04641197,0.514563,1.484149,0.2635796,-0.02060508,1.260943,0.1778829,275.9329,236.0085,352.3456,True
3,0.6111114,-1.141492,-0.280113,-0.1033553,-1.464379,-4.269924,-2.229828,0.2266982,1.280402,0.3988249,-1.036146,0.02039553,11.72414,15.96315,-0.255704,-0.007357195,0.6631328,-0.3702694,-3.220157,-0.6038049,0.330773,1.446962,0.3783908,-0.1921735,-0.03799385,-0.2836469,-1.193046,0.5791346,-0.04430994,0.5145773,1.484008,0.2632527,-0.0221341,1.266454,0.1757594,275.5262,232.7257,355.4391,True
3,0.6222225,-1.165082,-0.2407611,-0.09713167,-1.462736,-4.269826,-2.216179,0.2249103,1.282925,0.397568,-1.03652,-0.03413872,11.67109,16.02742,-0.2365177,-0.08599928,0.6191196,-0.3637942,-3.219605,-0.6023852,0.3310153,1.447725,0.3778424,-0.1772569,-0.04224441,-0.2837735,-1.19617,0.578335,-0.04253361,0.5145864,1.48393,0.2629445,-0.0237659,1.272348,0.1739716,275.0561,229.2372,358.9064,True
3,0.6333337,-1.182195,-0.2259444,-0.1014447,-1.460214,-4.269605,-2.202679,0.2231805,1.285417,0.3962409,-1.037158,-0.05793107,11.61804,16.04885,-0.2331756,-0.1562461,0.6018614,-0.3565089,-3.219391,-0.6000789,0.3312491,1.448528,0.3772557,-0.1686909,-0.05503057,-0.2795945,-1.198911,0.5771048,-0.04048324,0.5145357,1.483835,0.2625961,-0.02539658,1.278676,0.1724691,274.4718,225.5649,2.655963,True
3,0.6444448,-1.201425,-0.2197399,-0.1227565,-1.45715,-4.270009,-2.188657,0.2212427,1.287998,0.3949511,-1.036615,0.05026306,11.53846,16.02742,-0.2231526,-0.2553182,0.6143115,-0.3470312,-3.222725,-0.5948727,0.3314317,1.449331,0.3767281,-0.1601613,-0.06567741,-0.2796799,-1.201954,0.5758119,-0.03851916,0.5145608,1.483733,0.2622342,-0.02692231,1.285381,0.1711359,273.7442,220.834,7.526226,True
3,0.655556,-1.214305,-0.2049597,-0.139863,-1.454303,-4.270732,-2.174488,0.2193867,1.29053,0.3936665,-1.036829,-0.01990661,11.51194,15.98457,-0.2132016,-0.3011783,0.6460834,-0.3373112,-3.22114,-0.5943744,0.3315509,1.450121,0.3761423,-0.1569864,-0.08590534,-0.2839914,-1.205091,0.5740234,-0.03622778,0.5145503,1.483539,0.261853,-0.02838146,1.292413,0.1698674,272.9746,213.2438,15.20767,True
3,0.6666671,-1.231447,-0.1859318,-0.1516504,-1.451797,-4.271646,-2.160055,0.2175818,1.2931,0.392175,-1.036568,0.02413658,11.48541,15.96315,-0.2063391,-0.3524088,0.6917131,-0.3263427,-3.218506,-0.5947989,0.3314386,1.450805,0.3755531,-0.1634532,-0.1008072,-0.2946162,-1.208696,0.5721243,-0.03349884,0.5145264,1.483371,0.2615073,-0.02976019,1.299657,0.1685835,272.2648,197.7361,30.77072,True
3,0.6777782,-1.24324,-0.1711152,-0.1612972,-1.449454,-4.272661,-2.145763,0.215609,1.295701,0.3909624,-1.036595,-0.00255199,11.45889,15.94172,-0.2254128,-0.3323154,0.7185272,-0.3173838,-3.21002,-0.5997071,0.3314865,1.451554,0.3748314,-0.1752361,-0.1093258,-0.3030585,-1.212314,0.5703852,-0.03048654,0.5145524,1.483181,0.26123,-0.03114773,1.307019,0.167233,271.8914,170.6569,57.82799,True
3,0.6888894,-1.264658,-0.1456512,-0.1613891,-1.447718,-4.273788,-2.130536,0.2138139,1.298401,0.3896911,-1.036541,0.005160368,11.40584,15.92029,-0.2670716,-0.2749625,0.7328175,-0.3095627,-3.195998,-0.6084756,0.3315047,1.452088,0.3742213,-0.1775239,-0.09118286,-0.3211223,-1.216523,0.5699404,-0.02830035,0.5144668,1.483021,0.2609575,-0.03251034,1.314394,0.1658527,272.0202,140.7518,87.70023,True
3,0.7000005,-1.285002,-0.1234072,-0.1699968,-1.446042,-4.27538,-2.115262,0.2118491,1.301166,0.3885117,-1.036857,-0.02884313,11.32626,15.89886,-0.2844795,-0.2216836,0.7053738,-0.3034944,-3.184588,-0.6154997,0.3313487,1.452852,0.3734641,-0.170209,-0.06026025,-0.3360467,-1.220807,0.5702175,-0.02674426,0.5142733,1.482951,0.2607205,-0.03385044,1.321729,0.1644306,272.5289,120.109,108.3149,True
3,0.7111117,-1.294629,-0.1013734,-0.1817141,-1.443803,-4.275659,-2.101912,0.2098009,1.303696,0.3859031,-1.036151,0.0649459,11.22016,15.87744,-0.2835292,-0.2131226,0.6936695,-0.2963166,-3.176508,-0.6201815,0.3312744,1.453822,0.3726587,-0.1627791,-0.03362196,-0.3371255,-1.224505,0.5706616,-0.0253706,0.5140904,1.482792,0.2604544,-0.03514042,1.328977,0.1630278,273.2001,108.2141,120.1347,True
3,0.7222228,-1.284169,-0.06092367,-0.1968478,-1.442997,-4.278327,-2.087801,0.2078552,1.306477,0.3847513,-1.036281,-0.01231138,11.11406,15.85601,-0.2820122,-0.2781972,0.7286378,-0.2858568,-3.172863,-0.6207027,0.3310458,1.454761,0.3718827,-0.1540901,-0.002759494,-0.3137091,-1.227181,0.5717483,-0.02435008,0.5138456,1.482715,0.2602029,-0.03639183,1.336199,0.161666,273.8687,101.4443,126.8268,True
3,0.7333339,-1.271448,-0.04517767,-0.2106053,-1.441658,-4.279079,-2.07499,0.2059413,1.308514,0.3816664,-1.038223,-0.1772733,11.03448,15.85601,-0.2890295,-0.323089,0.7743622,-0.2747631,-3.16674,-0.6231432,0.33087,1.455806,0.3711963,-0.159333,0.008934069,-0.3019242,-1.230014,0.5720834,-0.02250877,0.5136374,1.482707,0.2599306,-0.03775031,1.343507,0.1602553,274.585,96.13466,132.2094,True
3,0.7444451,-1.245989,-0.03353915,-0.24799,-1.439752,-4.282633,-2.061762,0.2039073,1.311291,0.3805842,-1.038025,0.01962612,10.98143,15.85601,-0.2929274,-0.3392176,0.8233472,-0.2634852,-3.156206,-0.6299505,0.3306156,1.456748,0.3703883,-0.1838452,0.0003974065,-0.3038708,-1.233402,0.5717292,-0.01952337,0.513353,1.482586,0.2596104,-0.03916742,1.3508,0.158584,275.429,91.46252,137.05,True
3,0.7555562,-1.233268,-0.03152061,-0.2746244,-1.43749,-4.28588,-2.047838,0.2023829,1.313947,0.3793654,-1.038998,-0.08927822,10.98143,15.87744,-0.2981043,-0.3339812,0.850027,-0.2532102,-3.14278,-0.639462,0.330474,1.457465,0.3694026,-0.2084056,-0.002797049,-0.312207,-1.237335,0.5714923,-0.0162847,0.5130967,1.482409,0.2591939,-0.0404854,1.357939,0.1568727,276.2928,87.94685,140.6069,True
3,0.7666674,-1.222695,-0.02219957,-0.311924,-1.435011,-4.289227,-2.034763,0.2002865,1.316738,0.3776202,-1.038966,0.003548642,11.03448,15.89886,-0.2767752,-0.3200881,0.8616503,-0.2434342,-3.128054,-0.6514156,0.3301197,1.458392,0.3685572,-0.219025,0.01103566,-0.3067729,-1.240531,0.5721135,-0.01365802,0.5127638,1.482325,0.2588527,-0.04174649,1.364782,0.1549337,277.2212,85.19363,143.4292,True
3,0.7777785,-1.214229,-0.01369938,-0.3236994,-1.433366,-4.292878,-2.021166,0.198333,1.319541,0.3766348,-1.038129,0.07640355,11.14058,15.85601,-0.2384161,-0.3327177,0.8549941,-0.2336844,-3.117927,-0.6600677,0.3297687,1.459327,0.3676186,-0.2094507,0.04406604,-0.3057346,-1.2439,0.5738707,-0.01238636,0.5124934,1.482226,0.2585301,-0.0428107,1.371235,0.1532092,278.0027,85.11606,143.1961,True
3,0.7888896,-1.198333,-0.0009196997,-0.335494,-1.431998,-4.29669,-2.007946,0.1966769,1.322262,0.3759,-1.038838,-0.06557886,11.22016,15.66317,-0.2300311,-0.3273132,0.837905,-0.2248044,-3.107015,-0.6682854,0.3294093,1.460286,0.3668413,-0.2031111,0.07710123,-0.3099996,-1.24757,0.575938,-0.01115279,0.5121124,1.482206,0.258182,-0.04384013,1.377477,0.1518542,278.6433,85.61207,142.4505,True
3,0.8000008,-1.167523,0.01623389,-0.3409577,-1.43101,-4.300644,-1.99554,0.1947944,1.324949,0.3750443,-1.038388,0.04175203,11.29973,15.38461,-0.2215906,-0.315547,0.8314925,-0.2159674,-3.092299,-0.6804472,0.3289482,1.46118,0.365953,-0.2263823,0.07065313,-0.2895797,-1.250085,0.5764235,-0.008013718,0.5117399,1.482052,0.2579238,-0.04519751,1.383761,0.1507539,279.278,85.78595,142.1862,True
3,0.8111119,-1.137812,0.03751487,-0.3559908,-1.429916,-4.304659,-1.983356,0.1930817,1.327555,0.3739526,-1.038662,-0.02546733,11.32626,14.99893,-0.2090671,-0.2962509,0.8027002,-0.2078677,-3.078079,-0.6923268,0.3285775,1.462001,0.3649909,-0.2475093,0.0684744,-0.2681034,-1.252305,0.5770754,-0.004751079,0.5112928,1.482044,0.257669,-0.04667762,1.390087,0.1501336,279.8572,85.64754,142.2914,True
3,0.8222231,-1.104935,0.05881077,-0.3870472,-1.429038,-4.310118,-1.97134,0.1912786,1.330063,0.3732436,-1.039438,-0.0708129,11.29973,14.54896,-0.1844226,-0.3047351,0.8206338,-0.1981125,-3.061021,-0.7077543,0.3280546,1.462804,0.3640349,-0.2590812,0.08015367,-0.2488157,-1.254376,0.5784132,-0.001839712,0.5108284,1.481994,0.2573149,-0.04814725,1.396475,0.1500861,280.4569,85.14153,142.8967,True
3,0.8333342,-1.083713,0.06299356,-0.409391,-1.427943,-4.314826,-1.958898,0.1896424,1.332352,0.3723598,-1.039599,-0.01422206,11.27321,14.05614,-0.1716121,-0.2877008,0.8365743,-0.1887276,-3.037817,-0.7288877,0.3275711,1.463694,0.3631439,-0.2482875,0.1088887,-0.2296865,-1.256418,0.5806935,-0.0002897519,0.510409,1.481979,0.2569036,-0.0497075,1.402964,0.1504658,281.1512,84.11183,144.2144,True
3,0.8444453,-1.059322,0.076805,-0.4382665,-1.426941,-4.320817,-1.947162,0.1878969,1.334678,0.371829,-1.039784,-0.01694616,11.19363,13.54189,-0.143068,-0.2449572,0.8258606,-0.1814097,-3.010317,-0.755306,0.3269987,1.464393,0.3621755,-0.2366858,0.1398092,-0.2414492,-1.259493,0.5834678,0.001055144,0.5098543,1.481939,0.2565217,-0.05132084,1.409469,0.1511077,281.9257,82.99358,145.7396,True
3,0.8555565,-1.037012,0.08105755,-0.4553511,-1.425861,-4.326217,-1.935472,0.1863127,1.336977,0.3712344,-1.039083,0.06401863,11.14058,13.00621,-0.1200162,-0.218959,0.8109164,-0.1739279,-2.984804,-0.7793762,0.3265088,1.465141,0.3613145,-0.2376636,0.153637,-0.2297043,-1.261729,0.5856559,0.003019492,0.5092674,1.481869,0.2562504,-0.05296355,1.415865,0.151968,282.7563,82.08415,147.0322,True
3,0.8666676,-1.015767,0.0896101,-0.468215,-1.42505,-4.332097,-1.923908,0.1846086,1.339314,0.3707013,-1.039717,-0.05868299,11.11406,12.57767,-0.1093528,-0.2042639,0.7895299,-0.1673562,-2.957675,-0.8056688,0.3258626,1.465888,0.3603871,-0.2353883,0.1546751,-0.2116104,-1.26347,0.5875404,0.00503151,0.5087007,1.481834,0.2558842,-0.05457938,1.422065,0.1529391,283.5452,81.35886,148.1474,True
3,0.8777788,-0.9913577,0.1066701,-0.4746941,-1.424664,-4.337437,-1.913022,0.1831788,1.341819,0.3703105,-1.039578,0.0132186,11.14058,12.32055,-0.1062865,-0.2010109,0.7724724,-0.1602232,-2.931244,-0.8305126,0.3252234,1.466803,0.3595498,-0.232042,0.1589158,-0.193528,-1.265063,0.5895504,0.006873352,0.5081095,1.481795,0.2555213,-0.05618208,1.428029,0.153996,284.2897,80.97007,148.8653,True
3,0.8888899,-0.9563008,0.1249064,-0.4780321,-1.424732,-4.343212,-1.902579,0.1818828,1.344234,0.3702526,-1.039553,0.001979647,11.24668,12.25627,-0.09539533,-0.2468247,0.7850636,-0.1506625,-2.905571,-0.855092,0.3247493,1.467504,0.3588171,-0.2351869,0.154647,-0.1881819,-1.267011,0.5912358,0.009071792,0.5075064,1.481762,0.2550786,-0.05776834,1.433759,0.1550708,284.9449,80.71374,149.4583,True
3,0.900001,-0.9286422,0.133554,-0.478125,-1.424711,-4.348917,-1.89232,0.1803893,1.346435,0.369905,-1.03995,-0.03647406,11.43236,12.34197,-0.0452742,-0.2690045,0.7804298,-0.1422256,-2.877163,-0.8844891,0.324194,1.468117,0.3580611,-0.2417017,0.1354941,-0.2052056,-1.269881,0.5921717,0.01172909,0.506849,1.481708,0.254679,-0.05937018,1.439331,0.1561095,285.4944,80.58748,149.8986,True
3,0.9111122,-0.9169375,0.1335759,-0.4824055,-1.424281,-4.354679,-1.881486,0.1789533,1.348647,0.3693709,-1.040262,-0.02839483,11.61804,12.55624,-0.02053767,-0.3168954,0.7907997,-0.1324502,-2.847651,-0.9143428,0.323584,1.468852,0.3572774,-0.2438907,0.111011,-0.2148121,-1.27258,0.5927115,0.01436855,0.5061901,1.48168,0.2542753,-0.06082511,1.44475,0.1571694,285.9453,80.54587,150.2103,True
3,0.9222233,-0.9179599,0.1229017,-0.4855449,-1.423561,-4.360365,-1.870334,0.177399,1.350827,0.3690684,-1.040198,0.005896174,11.80371,12.8348,-0.01139289,-0.303901,0.7268595,-0.1263185,-2.82288,-0.939046,0.3229654,1.469253,0.3564177,-0.2236463,0.1046337,-0.2149847,-1.274998,0.5937476,0.01591372,0.505484,1.481654,0.2538998,-0.06210312,1.450035,0.1583158,286.4395,80.51453,150.4656,True
3,0.9333345,-0.9254307,0.1228496,-0.4855157,-1.423295,-4.365931,-1.858728,0.1760025,1.353139,0.3691289,-1.039372,0.07522094,11.93634,13.1562,-0.02614236,-0.3258898,0.5681618,-0.1222141,-2.836358,-0.9248306,0.3225028,1.469394,0.3553579,-0.2055696,0.1142313,-0.2183122,-1.277524,0.5954516,0.01712013,0.5047934,1.481692,0.2535288,-0.06337564,1.455254,0.1594532,287.0364,80.34258,150.9148,True
3,0.9444456,-0.9371278,0.1131432,-0.498229,-1.422493,-4.371955,-1.847089,0.1743276,1.355271,0.3689127,-1.038776,0.05377028,12.06897,13.52046,-0.04573369,-0.2704667,0.5332811,-0.1187067,-2.813983,-0.9457817,0.3215928,1.469448,0.3545129,-0.1928659,0.1419501,-0.2258274,-1.280231,0.5981174,0.01799711,0.5040123,1.481736,0.2531431,-0.06469861,1.460441,0.1604956,287.6426,80.2543,151.3132,True
3,0.9555568,-0.9849091,0.05839628,-0.5415604,-1.41927,-4.37921,-1.833132,0.1725781,1.357648,0.3697948,-1.038153,0.05640376,12.17507,13.90615,0.03453094,-0.06613445,0.710196,-0.1164451,-2.680447,-1.081387,0.320587,1.469853,0.3538353,-0.1767686,0.197321,-0.2056181,-1.281675,0.6023216,0.01831163,0.5031881,1.48181,0.2526677,-0.06601109,1.465601,0.1614838,288.1847,80.36874,151.4178,True
3,0.9666679,-1.004054,0.04868329,-0.5489341,-1.41787,-4.385411,-1.820474,0.1706364,1.359864,0.3696933,-1.03809,0.005361405,12.22811,14.22755,0.09534281,-0.02128616,0.7504243,-0.1135146,-2.598632,-1.16584,0.3196595,1.47034,0.3531096,-0.1529557,0.2206964,-0.1567668,-1.281632,0.6057106,0.01818566,0.5024168,1.481879,0.2522409,-0.06725202,1.470809,0.1625181,288.6794,80.57487,151.3692,True
3,0.977779,-1.026327,0.03375834,-0.5307186,-1.416476,-4.390476,-1.807656,0.1688544,1.362188,0.3701847,-1.03602,0.1892591,12.25464,14.48468,0.06206536,-0.1510655,0.6341536,-0.1064338,-2.596905,-1.167282,0.3190039,1.471029,0.3526363,-0.09376899,0.1886672,-0.0848459,-1.279852,0.6066193,0.01691507,0.5014729,1.481917,0.251771,-0.06847765,1.476108,0.1636519,289.2963,81.02972,151.0222,True
3,0.9888902,-1.029563,0.04334223,-0.5286313,-1.415958,-4.396321,-1.795339,0.1671524,1.364361,0.3700898,-1.037082,-0.09870322,12.22811,14.69895,0.03234512,-0.3033135,0.563605,-0.09743974,-2.59323,-1.170414,0.3183446,1.471809,0.3520634,-0.08079924,0.09916879,-0.07018043,-1.280291,0.6044424,0.0179529,0.5006511,1.481991,0.2512918,-0.06972124,1.481608,0.1650551,289.9401,81.79948,150.3211,True
3,1.000001,-0.9849477,0.06479049,-0.5373504,-1.41599,-4.402834,-1.784923,0.1661709,1.366767,0.3706899,-1.037058,0.003475019,12.22811,14.87037,0.04762995,-0.3459688,0.5985472,-0.08980285,-2.537068,-1.227339,0.3176553,1.472637,0.3515065,-0.1159929,0.01927004,-0.08174176,-1.28168,0.6019016,0.02126108,0.4997293,1.481976,0.2508345,-0.07101493,1.487401,0.1666811,290.6275,81.95841,150.3958,True
3,1.011112,-0.9370921,0.07779276,-0.5417616,-1.416129,-4.409385,-1.775,0.1650876,1.369019,0.3716228,-1.037757,-0.06399915,12.22811,15.06321,0.1470208,-0.3478808,0.6458656,-0.083366,-2.452918,-1.316007,0.3170594,1.473498,0.350944,-0.170686,0.0150421,-0.1271166,-1.284567,0.6022728,0.02484969,0.4989469,1.481962,0.2503731,-0.07214607,1.493353,0.168513,291.3156,81.7375,150.9848,True
3,1.022224,-0.8114145,0.08908373,-0.529256,-1.416329,-4.41508,-1.769438,0.1642549,1.370935,0.3717496,-1.039831,-0.1890665,12.25464,15.25605,0.1959165,-0.3253219,0.6413623,-0.07906925,-2.377645,-1.394835,0.3164725,1.4742,0.3502758,-0.1944546,0.03745893,-0.1663072,-1.287798,0.6036336,0.02748302,0.4981623,1.481994,0.2499428,-0.07300658,1.499352,0.1704506,292.0186,81.48595,151.6698,True
3,1.033335,-0.7571334,0.098903,-0.5326111,-1.416397,-4.421345,-1.761695,0.1632394,1.372919,0.3718159,-1.040378,-0.04852695,12.28117,15.36319,0.195775,-0.298669,0.6339799,-0.0761435,-2.290987,-1.483465,0.3159273,1.474846,0.3495483,-0.2107226,0.05241601,-0.2013098,-1.291085,0.6049401,0.02982341,0.4973271,1.482106,0.2495511,-0.07336409,1.505124,0.1726617,292.7433,81.4739,151.9575,True
3,1.044446,-0.6730372,0.1077428,-0.5455863,-1.416607,-4.428107,-1.756086,0.1621518,1.374714,0.3718414,-1.04424,-0.3532142,12.28117,15.32033,0.1648968,-0.2732606,0.651288,-0.07369872,-2.189478,-1.585472,0.3153122,1.475643,0.3487642,-0.1991201,0.04605633,-0.2163278,-1.29398,0.6053433,0.03155473,0.4964851,1.482197,0.2491696,-0.07341556,1.510606,0.1751447,293.5497,81.34586,152.3379,True
3,1.055557,-0.6091045,0.09839022,-0.5584463,-1.416093,-4.435019,-1.749947,0.1611267,1.376425,0.3722949,-1.042002,0.2072083,12.28117,15.14892,0.1405452,-0.2021549,0.7166215,-0.07476825,-2.054953,-1.720151,0.3147567,1.476559,0.3479936,-0.1650391,0.04289031,-0.2176692,-1.296172,0.6057247,0.03207325,0.4955837,1.482256,0.2486842,-0.07341485,1.515563,0.1776642,294.5364,80.89153,153.2271,True
3,1.066668,-0.5792967,0.1049445,-0.5532047,-1.416399,-4.44124,-1.743571,0.1600362,1.378067,0.3724158,-1.0433,-0.1212072,12.22811,14.84894,0.1253986,-0.1723244,0.6965577,-0.075311,-1.959389,-1.816316,0.3142049,1.477316,0.3472097,-0.1405068,0.04716239,-0.2135983,-1.298387,0.6064981,0.03258085,0.4947332,1.482321,0.2481906,-0.07382329,1.520048,0.1798925,295.3766,80.60076,153.9863,True
3,1.077779,-0.530408,0.1458919,-0.5066302,-1.418708,-4.445975,-1.738113,0.1592482,1.379528,0.3733113,-1.042385,0.08447938,12.17507,14.54896,0.1122448,-0.1243444,0.6658849,-0.07703833,-1.882363,-1.893608,0.313872,1.478001,0.3464789,-0.1458299,0.05355159,-0.2124756,-1.300602,0.6075441,0.03408953,0.493893,1.482284,0.247509,-0.07470265,1.523896,0.1818116,296.0476,80.64898,154.2955,True
3,1.08889,-0.5028221,0.1770564,-0.4791312,-1.421031,-4.45103,-1.732256,0.1585206,1.381086,0.3742766,-1.041377,0.09086299,12.14854,14.33469,0.1592571,-0.1008438,0.7029419,-0.07988205,-1.772898,-2.006019,0.3131324,1.478508,0.3459015,-0.1596552,0.04501592,-0.2102473,-1.302869,0.6078461,0.03627705,0.4930783,1.48233,0.246964,-0.07603765,1.52705,0.1835219,296.409,80.97667,154.2176,True
3,1.100002,-0.4624067,0.2051175,-0.4441893,-1.423647,-4.455303,-1.727839,0.1577599,1.382171,0.3744278,-1.041503,-0.01242836,12.14854,14.14185,0.2400852,-0.07284042,0.6971897,-0.0835881,-1.689194,-2.094914,0.312496,1.478984,0.3452423,-0.2126947,0.001267567,-0.1864564,-1.304169,0.6063097,0.04102892,0.4922383,1.48234,0.246238,-0.07771093,1.529649,0.1851115,296.4073,81.31574,154.0764,True
3,1.111113,-0.4443356,0.2094631,-0.4463775,-1.42533,-4.461036,-1.722299,0.1570982,1.383611,0.3751335,-1.040763,0.0675773,12.14854,14.05614,0.227149,-0.05425647,0.5130217,-0.08344483,-1.692279,-2.093905,0.3118178,1.479231,0.3445683,-0.2232285,-0.03497808,-0.1747084,-1.30582,0.6048471,0.04413284,0.4912988,1.482433,0.2456827,-0.07936376,1.531769,0.1868401,296.1398,81.55654,153.9454,True
3,1.122224,-0.4197676,0.1870999,-0.4665464,-1.42569,-4.467082,-1.71767,0.1563658,1.384593,0.3752348,-1.041589,-0.07650014,12.20159,14.16327,0.1463079,-0.07858464,0.3472669,-0.08112681,-1.699928,-2.085324,0.311069,1.479593,0.3439896,-0.2048803,-0.05844568,-0.1471944,-1.306635,0.6034223,0.04621543,0.4903877,1.482519,0.2451167,-0.0809447,1.533762,0.1887467,295.8523,81.7388,154.008,True
3,1.133335,-0.3951485,0.1519743,-0.4834599,-1.425257,-4.473277,-1.712913,0.1557822,1.385919,0.3761692,-1.040394,0.1097796,12.28117,14.37754,0.1129888,-0.05091542,0.3155988,-0.08270287,-1.673549,-2.111522,0.3104268,1.480221,0.3434875,-0.1792392,-0.06056887,-0.1378121,-1.307878,0.602912,0.04746525,0.4896385,1.482616,0.2445822,-0.08238835,1.535778,0.1907192,295.7587,81.7635,154.3885,True
3,1.144446,-0.3469278,0.09689015,-0.4651507,-1.423845,-4.477714,-1.710062,0.1551349,1.38688,0.3763747,-1.040845,-0.04258121,12.33422,14.65609,0.1730755,-0.07322818,0.371625,-0.08470716,-1.603655,-2.185067,0.3097475,1.480854,0.3430376,-0.1321726,-0.04566206,-0.1125987,-1.308249,0.6029199,0.04731159,0.488773,1.482678,0.2440064,-0.08370232,1.537978,0.192723,295.8119,81.97252,154.591,True
3,1.155557,-0.2771993,0.009031057,-0.4158148,-1.420684,-4.480145,-1.708908,0.1547304,1.387958,0.3767726,-1.040477,0.03385876,12.38727,14.99893,0.2285423,-0.05817834,0.3926372,-0.08806808,-1.547961,-2.245158,0.309339,1.481259,0.3425663,-0.1024246,-0.03922999,-0.1224142,-1.309941,0.6028714,0.04748869,0.4880432,1.482719,0.2434797,-0.08482033,1.540275,0.1947249,296.0621,82.29184,154.66,True
3,1.166668,-0.2331594,-0.05663198,-0.3793339,-1.417397,-4.48276,-1.707389,0.1542183,1.388854,0.3769855,-1.041725,-0.1147302,12.38727,15.2132,0.2459641,-0.00994584,0.3095671,-0.08970432,-1.551438,-2.244985,0.3087765,1.481597,0.3421159,-0.1047183,-0.03600325,-0.142628,-1.312245,0.6026371,0.04887433,0.4871477,1.482839,0.2429204,-0.0856961,1.542606,0.1967764,296.3557,82.62061,154.6486,True
3,1.17778,-0.1958534,-0.2616138,-0.2888659,-1.407926,-4.481697,-1.706416,0.1540862,1.389749,0.3769591,-1.042824,-0.09974223,12.36074,15.32033,0.2648841,0.01364529,0.2796898,-0.09182153,-1.540433,-2.259512,0.3082307,1.482093,0.3416448,-0.1366635,-0.04774661,-0.1413221,-1.313849,0.60177,0.05179449,0.4862578,1.482853,0.242377,-0.08627515,1.544752,0.1986915,296.7473,82.65158,155.0714,True
3,1.188891,-0.2078899,-0.4062886,-0.2358948,-1.398895,-4.481437,-1.703446,0.1538638,1.390901,0.377435,-1.042061,0.07001347,12.33422,15.34176,0.2826247,0.03407586,0.2316949,-0.09321596,-1.537725,-2.266035,0.3076074,1.482347,0.3413324,-0.1311251,-0.06269237,-0.1168859,-1.314367,0.6006652,0.05328399,0.4853463,1.482947,0.2418449,-0.08652692,1.546446,0.2001885,297.1718,82.63799,155.5588,True
3,1.200002,-0.2173581,-0.6349607,-0.1548068,-1.384326,-4.478367,-1.701145,0.1535192,1.392259,0.3772171,-1.041442,0.05555361,12.33422,15.27748,0.2340448,0.06504646,0.1447241,-0.0938482,-1.560901,-2.244065,0.3070438,1.482373,0.3408678,-0.1076056,-0.07227871,-0.1075023,-1.315319,0.5995666,0.05402142,0.4845058,1.483045,0.2413282,-0.08656615,1.547572,0.2009808,297.5483,82.78397,155.8519,True
3,1.211113,-0.1768557,-0.8366535,-0.05263758,-1.369556,-4.473837,-1.701215,0.1530866,1.393704,0.3770933,-1.039127,0.2108955,12.30769,15.14892,0.121584,0.1085165,0.07310431,-0.0949092,-1.589355,-2.213404,0.3066925,1.482479,0.340426,-0.06681846,-0.1042652,-0.07165484,-1.315045,0.5973749,0.05407788,0.4837432,1.483154,0.2407207,-0.08625732,1.54794,0.2006887,297.7831,83.40374,155.5569,True
3,1.222224,-0.07849811,-0.8847546,0.03585099,-1.35851,-4.468884,-1.704439,0.152588,1.394909,0.3764322,-1.038839,0.02445248,12.36074,15.04178,0.0470821,0.08588242,0.07137698,-0.09559789,-1.585743,-2.215039,0.3066187,1.482819,0.3400261,-0.03886962,-0.1341197,-0.04316328,-1.314684,0.5947619,0.05420971,0.4830467,1.483253,0.2401917,-0.0857726,1.547886,0.199146,297.7992,84.52057,154.4159,True
3,1.233335,5.882233E-05,-0.8096738,0.06409819,-1.353017,-4.46671,-1.707347,0.1521896,1.395653,0.376101,-1.040701,-0.1704328,12.41379,14.84894,0.04226838,0.02181952,0.1159699,-0.09580082,-1.547784,-2.25349,0.3064711,1.483246,0.3396361,-0.01512352,-0.1821007,-0.009343114,-1.313851,0.5908069,0.05454101,0.4826079,1.483289,0.2396526,-0.08504497,1.547566,0.1961849,297.7829,85.99313,152.7191,True
3,1.244446,0.2011479,-0.5341088,0.02398016,-1.356327,-4.468099,-1.716159,0.1516027,1.395905,0.3751271,-1.043554,-0.2597536,12.41379,14.61324,0.06951977,-0.00601238,0.1988172,-0.09835054,-1.500157,-2.302603,0.3062866,1.48369,0.3391619,-0.04395265,-0.2023346,-0.01980017,-1.3146,0.5879678,0.05665955,0.4822258,1.483294,0.2391503,-0.08399792,1.546966,0.1919226,297.8328,87.44341,150.6391,True
3,1.255558,0.3237709,-0.3495726,-0.03897319,-1.358511,-4.471474,-1.723225,0.1512226,1.395371,0.3745751,-1.043496,0.006875461,12.38727,14.27041,0.08746707,-0.06117889,0.1399569,-0.09630044,-1.486858,-2.317688,0.3055771,1.483998,0.3385293,-0.1060115,-0.1661117,-0.05014329,-1.316411,0.5874943,0.06013338,0.4817329,1.483204,0.2385576,-0.08277114,1.545998,0.1868116,297.9908,88.57053,148.3713,True
3,1.266669,0.1688009,0.4183158,-0.1502381,-1.388303,-4.481945,-1.717553,0.1506074,1.393356,0.3742943,-1.049256,-0.5274307,12.28117,13.88472,0.08198294,-0.03454983,0.1315347,-0.09720005,-1.483186,-2.321925,0.3043784,1.484262,0.3379366,-0.1649864,-0.1096236,-0.093261,-1.318819,0.5882367,0.06352598,0.4811211,1.483293,0.2381501,-0.08177838,1.544779,0.1817241,298.1136,89.49471,145.8557,True
3,1.27778,0.004285548,0.7563946,-0.1388952,-1.407679,-4.485937,-1.711588,0.1495635,1.392346,0.3735964,-1.047435,0.1701814,12.17507,13.34904,0.04209311,0.07506777,0.1193066,-0.1010957,-1.504968,-2.299438,0.3029556,1.484301,0.3373294,-0.1854852,-0.06059089,-0.1207132,-1.320992,0.5893992,0.0660448,0.4804454,1.48335,0.2377677,-0.08158494,1.54325,0.1777428,298.3809,89.90076,143.8486,True
3,1.288891,-0.08007035,0.8104762,-0.112406,-1.41657,-4.487669,-1.707863,0.1487484,1.392095,0.3736238,-1.034908,1.142411,12.04244,12.62053,-0.00125239,0.1496792,0.04522092,-0.1029285,-1.543372,-2.259793,0.3018602,1.484214,0.3369401,-0.1770829,0.01507167,-0.1291788,-1.322433,0.5923191,0.06686079,0.4795586,1.483457,0.2375617,-0.08270027,1.541323,0.1758108,298.4157,89.97219,142.3294,True
3,1.300002,-0.2858209,0.8781948,-0.01865181,-1.428962,-4.486392,-1.698081,0.1478548,1.391404,0.3734198,-1.031945,0.2617766,11.93634,11.76344,-0.1077439,0.1540124,-0.1160287,-0.100497,-1.606955,-2.191882,0.3003043,1.483973,0.3366637,-0.08586437,0.09595336,-0.03922898,-1.319857,0.5959973,0.06405541,0.4783972,1.483656,0.2374654,-0.0860201,1.540559,0.1769069,297.3293,88.8185,142.5108,True
3,1.311113,-0.3709669,0.8769515,0.02517012,-1.438007,-4.485822,-1.691762,0.1471856,1.391256,0.372859,-1.034183,-0.2048298,11.80371,10.75637,-0.1345529,0.1465466,-0.147844,-0.09988878,-1.633049,-2.163615,0.2993506,1.484085,0.3364511,-0.02039456,0.1204068,0.02314077,-1.317491,0.5979055,0.0617627,0.4775553,1.483888,0.2372,-0.09065115,1.541324,0.1809238,295.8996,87.47379,144.6977,True
3,1.322224,-0.372701,0.7982203,0.04688056,-1.444478,-4.485271,-1.687524,0.1466195,1.391395,0.3725231,-1.02866,0.5074265,11.77719,9.706447,-0.1549371,0.05400446,-0.2236113,-0.09495714,-1.663898,-2.130266,0.2985835,1.484196,0.3364127,0.05039622,0.1267505,0.08330612,-1.314479,0.5994424,0.05842123,0.4765792,1.484102,0.2369628,-0.0950009,1.542984,0.1869659,294.9196,86.12339,148.2579,True
3,1.333336,-0.3298523,0.7440516,0.04175274,-1.450636,-4.485927,-1.685693,0.1461299,1.391515,0.3719692,-1.032433,-0.3489366,11.77719,9.149346,-0.1226555,-0.01408696,-0.2112156,-0.09216189,-1.664945,-2.129168,0.2980723,1.484192,0.3360353,0.05804998,0.09901912,0.1055682,-1.312895,0.5993018,0.05785478,0.4758641,1.484301,0.2366443,-0.09827003,1.545681,0.1936958,294.2513,83.54652,153.3715,True
3,1.344447,-0.2848556,0.6748214,0.004746467,-1.455719,-4.48784,-1.68394,0.1457823,1.391925,0.371805,-1.035719,-0.2965688,11.83024,9.1922,-0.03630511,-0.05576256,-0.05526973,-0.0930402,-1.60864,-2.187876,0.2979355,1.484307,0.3357081,-0.001550525,0.01588204,0.1048517,-1.311879,0.5965197,0.06053125,0.4751726,1.484339,0.2362535,-0.09990567,1.549287,0.199884,294.3506,80.77743,158.4335,True
3,1.355558,-0.2632411,0.5829791,-0.05874085,-1.458928,-4.490998,-1.681313,0.145475,1.392859,0.371577,-1.038888,-0.2873393,11.90981,9.856439,0.0686406,-0.06673549,0.196518,-0.09900088,-1.518911,-2.281278,0.2978982,1.484753,0.3352454,-0.04116188,-0.02032081,0.07848017,-1.311926,0.5951715,0.06273795,0.4744566,1.484327,0.2358055,-0.09981165,1.553326,0.2046802,295.2337,78.62313,162.157,True
3,1.366669,-0.2566751,0.5327905,-0.09046304,-1.463349,-4.493612,-1.678174,0.1450144,1.393584,0.3719392,-1.03941,-0.04556848,11.98939,11.16349,0.07101913,-0.09766313,0.2166579,-0.09936573,-1.487466,-2.31327,0.2974365,1.484847,0.3348491,-0.05670755,-0.05855384,-0.003491111,-1.314856,0.5934482,0.06425702,0.4738413,1.484272,0.2354398,-0.09842183,1.557311,0.2076622,296.6219,77.27203,164.1803,True
3,1.37778,-0.2692022,0.4665499,-0.1167374,-1.466125,-4.496135,-1.674488,0.1444428,1.394686,0.3718681,-1.038563,0.07747871,12.04244,13.11335,0.07551935,-0.1179622,0.2432064,-0.1003149,-1.448539,-2.352959,0.2972226,1.485268,0.3346386,-0.02969786,-0.08608627,-0.09111067,-1.318812,0.5919212,0.06410149,0.4732708,1.484285,0.2351859,-0.09645695,1.560951,0.20885,298.0107,76.78621,164.5594,True
3,1.388891,-0.288123,0.408947,-0.121745,-1.469253,-4.498094,-1.670251,0.1438112,1.395751,0.3728075,-1.037805,0.06850136,12.09549,15.23462,0.1003239,-0.1435181,0.2759971,-0.1015975,-1.406251,-2.39689,0.2965881,1.485459,0.3343356,0.006185092,-0.08919288,-0.134017,-1.321657,0.5909834,0.06293795,0.472718,1.484342,0.2349055,-0.09460808,1.564186,0.2085716,299.0782,76.9724,163.7266,True
3,1.400002,-0.3207138,0.3128884,-0.1297244,-1.469516,-4.49974,-1.665584,0.1429555,1.397068,0.3727624,-1.037188,0.05598176,12.17507,17.44161,0.1132076,-0.1658517,0.2790502,-0.102218,-1.365794,-2.438859,0.2962691,1.485896,0.3341181,0.04000265,-0.07846382,-0.1662285,-1.324503,0.5907233,0.06146203,0.4721374,1.484396,0.2346027,-0.09325018,1.566936,0.2074788,299.7542,77.2647,162.4946,True
3,1.411114,-0.3554676,0.2156702,-0.152608,-1.468328,-4.502063,-1.660237,0.1422209,1.398736,0.3729126,-1.036609,0.05259379,12.28117,19.54146,0.1133922,-0.1957121,0.2917461,-0.1029844,-1.322039,-2.483486,0.2958788,1.486314,0.333859,0.0369146,-0.07955375,-0.1523538,-1.325543,0.5899162,0.06156083,0.4714086,1.484471,0.2343476,-0.09260772,1.56928,0.2061016,300.0552,77.68282,161.1682,True
3,1.422225,-0.3818764,0.1535903,-0.1863377,-1.46754,-4.505255,-1.654764,0.1415725,1.400285,0.3730767,-1.036249,0.03257962,12.44032,20.9985,0.1201112,-0.2107246,0.3353404,-0.1055208,-1.270103,-2.536704,0.2955634,1.48677,0.3335268,0.01571802,-0.08811155,-0.1394131,-1.326696,0.5886802,0.06240106,0.4708251,1.484517,0.2339723,-0.09261459,1.571261,0.2050314,300.0747,78.11268,160.0024,True
3,1.433336,-0.4093105,0.07438371,-0.2391575,-1.465618,-4.509765,-1.648822,0.1410722,1.401869,0.3737495,-1.035824,0.03884601,12.57294,21.94129,0.1438479,-0.2426682,0.3628008,-0.1075949,-1.21655,-2.592495,0.2952139,1.487363,0.3329911,0.01142986,-0.08385537,-0.1415053,-1.32841,0.5879115,0.06274248,0.4702362,1.48465,0.2336314,-0.09326306,1.573146,0.2043714,299.9539,78.56939,159.3083,True
3,1.444447,-0.4219116,0.01440886,-0.2910273,-1.463642,-4.514481,-1.643395,0.1405851,1.403511,0.3741961,-1.035994,-0.01576246,12.7321,22.45554,0.1301508,-0.2130135,0.404526,-0.11193,-1.178506,-2.631219,0.2948921,1.48797,0.3324876,0.007055923,-0.08170588,-0.1553159,-1.330631,0.5872184,0.06297497,0.4696715,1.484774,0.2331796,-0.09427548,1.57508,0.2042092,299.721,79.14753,158.7755,True
3,1.455558,-0.4408042,-0.06149632,-0.3268311,-1.460047,-4.519092,-1.637394,0.139987,1.405304,0.3747649,-1.03595,0.004422659,12.86472,22.56267,0.1269273,-0.155584,0.4345287,-0.1170443,-1.156432,-2.654239,0.2945184,1.48878,0.3320565,-0.02279601,-0.07320204,-0.1571941,-1.332505,0.586791,0.06427539,0.46903,1.484859,0.2327535,-0.09532256,1.577119,0.2046769,299.5171,79.76618,158.2917,True
3,1.466669,-0.4672875,-0.1000102,-0.3404419,-1.457844,-4.523178,-1.630878,0.1395887,1.407032,0.3758674,-1.036716,-0.06991051,13.02387,22.41268,0.1312226,-0.1023887,0.469799,-0.1228724,-1.138035,-2.674058,0.2941988,1.489498,0.3317471,-0.05577593,-0.06151756,-0.1505181,-1.333956,0.5866081,0.06606877,0.4684129,1.484976,0.2323258,-0.09618618,1.579351,0.2058791,299.4292,80.42912,157.8375,True
3,1.47778,-0.5032657,-0.1566764,-0.3486174,-1.453926,-4.527109,-1.623569,0.1392144,1.408867,0.3764551,-1.036426,0.02728347,13.12997,22.36983,0.1759414,-0.03414628,0.5048609,-0.1298643,-1.128126,-2.687268,0.2940088,1.490276,0.3313007,-0.0876271,-0.03811719,-0.1353079,-1.334825,0.5872496,0.06794177,0.46774,1.485067,0.2318909,-0.09683205,1.581915,0.2077108,299.5511,80.92696,157.7304,True
3,1.488891,-0.4925212,-0.1693574,-0.3390098,-1.451553,-4.530587,-1.618359,0.138853,1.410594,0.3767295,-1.036021,0.03685535,13.20955,22.43411,0.1961049,-0.01808971,0.5005212,-0.1346856,-1.111148,-2.706958,0.2939487,1.490914,0.3309417,-0.08962195,-0.02642593,-0.1182274,-1.335553,0.5874162,0.06874604,0.4671661,1.485156,0.2314775,-0.09722153,1.584835,0.209952,299.8236,81.31142,157.8283,True
3,1.500003,-0.4381431,-0.1786835,-0.3358563,-1.449096,-4.534077,-1.614963,0.1386749,1.412392,0.3771143,-1.035435,0.0534436,13.28912,22.54125,0.2134958,-0.09050608,0.514061,-0.1388849,-1.070324,-2.75038,0.2940648,1.491561,0.3306453,-0.08525581,-0.07863599,-0.1098233,-1.336604,0.5848474,0.07013488,0.4666328,1.485245,0.2310221,-0.09725334,1.588071,0.2124372,300.1736,81.4991,158.1457,True
3,1.511114,-0.3965505,-0.190277,-0.3465195,-1.446444,-4.538101,-1.611636,0.1384954,1.414277,0.3774364,-1.037656,-0.2033669,13.34218,22.69123,0.2297857,-0.1884285,0.5062319,-0.1420013,-1.020597,-2.802705,0.294223,1.492111,0.3303027,-0.09377184,-0.1574636,-0.1162717,-1.338396,0.5804964,0.07240842,0.466116,1.485285,0.2305608,-0.09694187,1.591659,0.2147962,300.6346,81.6021,158.6806,True
3,1.522225,-0.3805717,-0.1999272,-0.3731298,-1.443702,-4.543077,-1.607368,0.138266,1.416099,0.3778055,-1.039788,-0.1930136,13.39523,22.77694,0.2394782,-0.2065215,0.5125129,-0.1466592,-0.9884282,-2.837518,0.2942788,1.492748,0.3299189,-0.09807904,-0.1926178,-0.123752,-1.340312,0.5771211,0.07457064,0.46571,1.485333,0.2301438,-0.09626088,1.595379,0.2167684,301.2619,81.59766,159.2456,True
3,1.533336,-0.3709561,-0.2127966,-0.3975995,-1.44055,-4.54845,-1.602843,0.1379423,1.417941,0.3778751,-1.039986,-0.0167065,13.44828,22.88408,0.2405935,-0.2107918,0.5178183,-0.1516553,-0.9630291,-2.865306,0.294364,1.493435,0.3294485,-0.1014876,-0.1893785,-0.1503536,-1.343037,0.5754505,0.07612033,0.4652879,1.485343,0.229718,-0.09530636,1.59891,0.2182252,301.9992,81.67078,159.5135,True
3,1.544447,-0.3773764,-0.203215,-0.3923245,-1.438392,-4.552636,-1.597921,0.1376502,1.419582,0.3776305,-1.038965,0.09306564,13.42175,23.01264,0.2255096,-0.1809916,0.5084112,-0.1565747,-0.9479708,-2.882092,0.2944079,1.494098,0.3289258,-0.1081141,-0.1403439,-0.1747198,-1.345656,0.5758828,0.07746097,0.4649014,1.485295,0.2293835,-0.09437332,1.602131,0.2191303,302.7222,81.97411,159.3239,True
3,1.555558,-0.3891599,-0.1786256,-0.3647323,-1.437213,-4.55575,-1.592821,0.1374335,1.421244,0.3779488,-1.038521,0.03974871,13.34218,23.18406,0.212421,-0.1415464,0.4840902,-0.1607047,-0.9402016,-2.891554,0.2943574,1.494789,0.3283257,-0.1148863,-0.1040558,-0.2182839,-1.349413,0.5762668,0.07891745,0.4645281,1.485299,0.22891,-0.09372685,1.605047,0.2195876,303.308,82.50456,158.7651,True
3,1.566669,-0.3764271,-0.1636171,-0.3563104,-1.435621,-4.559447,-1.588589,0.1372888,1.422947,0.3780928,-1.037638,0.0800132,13.23607,23.39833,0.2187877,-0.115982,0.4947727,-0.1662968,-0.9289615,-2.905324,0.294403,1.495484,0.3277624,-0.1300819,-0.08909847,-0.2522234,-1.353252,0.5759569,0.08083013,0.46408,1.485378,0.2285004,-0.09349778,1.607693,0.2197162,303.7125,83.08141,158.1711,True
3,1.577781,-0.3499438,-0.1347941,-0.3682182,-1.434907,-4.563905,-1.584967,0.1371249,1.424525,0.3783271,-1.036772,0.07808317,13.07692,23.67688,0.1970666,-0.06163222,0.4599034,-0.1704029,-0.9295809,-2.906299,0.2943924,1.496187,0.3271708,-0.137505,-0.07526105,-0.2468155,-1.355772,0.5757758,0.08261312,0.4636527,1.485424,0.2280149,-0.09358346,1.610037,0.2196432,303.8661,83.5244,157.7001,True
3,1.588892,-0.3319678,-0.09743246,-0.3749315,-1.43455,-4.569658,-1.581308,0.137263,1.426817,0.3800087,-1.037002,-0.02233322,13.02387,23.89115,0.183173,-0.05103135,0.4589595,-0.1753244,-0.9207941,-2.916517,0.2944363,1.496905,0.3266397,-0.1596819,-0.06998944,-0.222126,-1.357386,0.5752779,0.08522488,0.4632777,1.485513,0.2276268,-0.0938089,1.612131,0.2195561,303.8098,83.92965,157.216,True
3,1.600003,-0.3216204,-0.03352982,-0.3880551,-1.436317,-4.574529,-1.577436,0.1372134,1.42833,0.3803535,-1.03689,0.009757262,13.12997,24.01971,0.144985,-0.06718871,0.475134,-0.1807961,-0.9068833,-2.93043,0.2945596,1.498015,0.3260791,-0.1562372,-0.09453498,-0.1934288,-1.358733,0.5734686,0.08725768,0.4629132,1.485609,0.2271576,-0.09409074,1.614069,0.2195907,303.7567,84.44255,156.6698,True
3,1.611114,-0.3346819,0.01851031,-0.401067,-1.438057,-4.57941,-1.572605,0.1371342,1.429701,0.3802614,-1.035934,0.08636793,13.39523,24.04114,0.1556682,-0.07034916,0.4771885,-0.1858716,-0.8952653,-2.94403,0.294738,1.498873,0.3256116,-0.1412583,-0.09986778,-0.1860984,-1.360697,0.5722606,0.08852427,0.4625956,1.485637,0.2267108,-0.09442556,1.61595,0.2199953,303.7004,85.11454,155.8241,True
3,1.622225,-0.3368522,0.03128526,-0.4054087,-1.438798,-4.58416,-1.568193,0.1371263,1.431213,0.3806791,-1.034149,0.1612406,13.87268,23.91258,0.1779214,-0.05426371,0.467504,-0.1906552,-0.8899571,-2.95198,0.2947741,1.499613,0.3250885,-0.1434519,-0.09559643,-0.1935311,-1.363171,0.5715381,0.09033469,0.4622571,1.485705,0.2262363,-0.09485696,1.618004,0.2211728,303.6205,85.7938,154.9284,True
3,1.633336,-0.3047233,-0.005880266,-0.4084793,-1.437149,-4.588891,-1.565184,0.1371098,1.432506,0.3804896,-1.031507,0.2389988,14.40318,23.91258,0.204198,-0.03806692,0.420506,-0.1935969,-0.888067,-2.957033,0.2946526,1.500284,0.324544,-0.1713675,-0.07214148,-0.2188385,-1.366542,0.5718515,0.09310304,0.461998,1.485788,0.225785,-0.09542125,1.620297,0.2231224,303.6844,85.88449,155.0944,True
3,1.644447,-0.2758668,-0.02490044,-0.4009752,-1.436056,-4.593138,-1.562403,0.1371135,1.433746,0.3802335,-1.030021,0.1324917,14.90716,24.14827,0.2006925,-0.04326671,0.3683164,-0.1957919,-0.8822387,-2.964849,0.2946507,1.500828,0.3240275,-0.2055492,-0.06788614,-0.2292098,-1.369488,0.5714689,0.09662827,0.4618177,1.485971,0.2253096,-0.09606227,1.622782,0.2255672,303.8124,85.71971,155.9177,True
3,1.655559,-0.2546328,-0.004500061,-0.388327,-1.436681,-4.597029,-1.559793,0.1371326,1.434819,0.3805885,-1.029504,0.04471086,15.43766,24.59824,0.1898905,-0.04961437,0.3406675,-0.198447,-0.8761573,-2.972529,0.294669,1.501497,0.3234828,-0.2129498,-0.06257661,-0.2216845,-1.371728,0.5711479,0.09930076,0.4615498,1.486082,0.2248499,-0.09661689,1.625268,0.2282089,304.0065,85.62196,156.8483,True
3,1.66667,-0.2474284,0.06165439,-0.3823695,-1.439578,-4.602513,-1.556497,0.1376123,1.436754,0.3836889,-1.027612,0.170919,15.91512,25.28391,0.1841016,-0.04092771,0.2725526,-0.1991538,-0.8747957,-2.975658,0.2946864,1.502136,0.3230252,-0.192713,-0.04658499,-0.2207587,-1.374146,0.5713802,0.1006443,0.4612698,1.486184,0.2243779,-0.09701853,1.627478,0.2306163,304.327,85.59563,157.7832,True
3,1.677781,-0.2402442,0.1202459,-0.3890657,-1.442944,-4.607035,-1.553503,0.1377475,1.437621,0.3840392,-1.025347,0.2039177,16.18037,26.35526,0.1954766,-0.06838356,0.2020943,-0.1986276,-0.8670475,-2.985847,0.2948155,1.502883,0.3224435,-0.1542983,-0.009289209,-0.2092917,-1.376006,0.5726942,0.1008108,0.4609541,1.486407,0.2239144,-0.09733146,1.629298,0.2325074,304.5995,85.60668,158.3995,True
3,1.688892,-0.223543,0.1969579,-0.4022699,-1.447582,-4.611973,-1.551163,0.1379187,1.438055,0.3837402,-1.022366,0.269039,16.15384,27.34091,0.2135451,-0.06937177,0.1945204,-0.2004604,-0.8608956,-2.994882,0.2950246,1.503534,0.3218985,-0.1489193,0.002418529,-0.2018604,-1.377966,0.5732722,0.1021951,0.4606985,1.486499,0.2234478,-0.09760553,1.630743,0.2340621,304.6071,85.9171,157.9921,True
3,1.700003,-0.2034867,0.2310308,-0.4237756,-1.451472,-4.617386,-1.548975,0.1383041,1.438886,0.3840966,-1.019905,0.2209132,15.86207,28.15513,0.2405309,-0.08750573,0.2401092,-0.2044024,-0.8506001,-3.008569,0.2952886,1.504051,0.3211524,-0.1475655,0.03644794,-0.1623982,-1.378199,0.5749402,0.1035056,0.4604248,1.486461,0.2229578,-0.09793633,1.63217,0.2359761,304.3911,86.41925,156.9953,True
3,1.711114,-0.1586509,0.188512,-0.4662594,-1.453598,-4.625173,-1.547135,0.1394528,1.440779,0.3890953,-1.017974,0.1729218,15.33157,28.71223,0.2204818,-0.05681685,0.2882688,-0.2095077,-0.8492469,-3.011597,0.2954668,1.504553,0.3204699,-0.1432377,0.04602552,-0.1528268,-1.379523,0.5758529,0.1048782,0.460247,1.486451,0.2223744,-0.09841839,1.633685,0.2382617,304.3839,86.37017,157.2387,True
3,1.722225,-0.1360704,0.1470923,-0.4586411,-1.453785,-4.630116,-1.545739,0.1397004,1.441616,0.3885093,-1.015497,0.2231454,14.72149,28.69081,0.2055713,0.03460139,0.3408141,-0.215675,-0.8626136,-3.000263,0.2958136,1.504859,0.3198216,-0.1219447,0.02793475,-0.1562243,-1.381397,0.5757834,0.1055512,0.4601081,1.48643,0.2218018,-0.09901363,1.635107,0.2407212,304.492,86.07136,158.1568,True
3,1.733337,-0.1134838,0.1133323,-0.4126952,-1.453903,-4.633185,-1.544912,0.1401566,1.442361,0.3890085,-1.013283,0.1985023,14.05836,28.17656,0.2182109,0.0868299,0.3472723,-0.2200842,-0.87301,-2.993057,0.2961305,1.505235,0.3192835,-0.07727242,-0.01143073,-0.1694351,-1.384051,0.574464,0.10507,0.4601032,1.486345,0.2212014,-0.09959123,1.636304,0.2434538,304.3617,86.40283,157.9646,True
3,1.744448,-0.112568,0.1530709,-0.3671078,-1.458469,-4.636702,-1.542625,0.1410468,1.443944,0.3934567,-1.010526,0.2482997,13.39523,27.10521,0.2416166,0.02098089,0.3053979,-0.2216821,-0.8624882,-3.006921,0.2963859,1.505598,0.318882,-0.04527123,-0.07319473,-0.1697939,-1.386255,0.5717937,0.1049967,0.4601011,1.48631,0.2205703,-0.1000711,1.63741,0.247114,304.1233,87.11813,157.1491,True
3,1.755559,-0.1405948,0.2350828,-0.3461743,-1.464033,-4.639726,-1.539812,0.1413987,1.44433,0.3938575,-1.007899,0.2360022,12.78515,25.51961,0.2361242,-0.04065824,0.2445315,-0.2218775,-0.8503348,-3.021204,0.2966474,1.505703,0.3185351,-0.06009572,-0.1254134,-0.1633675,-1.388223,0.568882,0.1067211,0.4601679,1.48627,0.2199693,-0.1007233,1.638614,0.2509926,304.1694,86.94533,158.2897,True
3,1.76667,-0.1631133,0.284035,-0.3432795,-1.468653,-4.644917,-1.537039,0.1418848,1.445751,0.3957791,-1.003546,0.3940298,12.25464,23.56975,0.2285462,-0.05552769,0.2168441,-0.223322,-0.8444378,-3.029251,0.2969461,1.5059,0.31813,-0.07699949,-0.1499564,-0.148359,-1.389698,0.5664935,0.1086437,0.46022,1.486212,0.2193069,-0.1013,1.63956,0.2546799,304.0908,86.75356,159.1777,True
3,1.777781,-0.1727545,0.2967869,-0.3412,-1.472534,-4.648537,-1.534405,0.142211,1.446303,0.3962224,-0.9998993,0.3281022,11.83024,21.68417,0.2326769,-0.04907095,0.1987249,-0.2248885,-0.842716,-3.033759,0.2973026,1.505987,0.3178167,-0.09593214,-0.1766393,-0.1205482,-1.390346,0.5637792,0.1108914,0.4602866,1.486122,0.2186723,-0.1017815,1.640532,0.2585486,303.7561,86.62144,159.3684,True
3,1.788892,-0.1791396,0.3118878,-0.2965365,-1.476264,-4.650231,-1.532186,0.1422552,1.446408,0.3957007,-0.9972718,0.2356618,11.48541,19.7343,0.2284491,-0.05441657,0.2008736,-0.2273498,-0.8384377,-3.040361,0.2976202,1.506139,0.3174853,-0.08068589,-0.1916063,-0.08126925,-1.390129,0.5611874,0.1116426,0.460372,1.486088,0.2180281,-0.1023349,1.641834,0.2623601,303.5581,86.21302,160.2141,True
3,1.800003,-0.1833204,0.3088685,-0.2549936,-1.479344,-4.651798,-1.529935,0.1422448,1.446313,0.3943186,-0.9944456,0.2544273,11.16711,17.72016,0.2272513,-0.09265396,0.1581635,-0.2274766,-0.8281115,-3.052935,0.2978366,1.506213,0.3171961,-0.05910765,-0.2289314,-0.05167483,-1.390193,0.5572106,0.1121827,0.4605609,1.48595,0.2173939,-0.102927,1.64352,0.26609,303.4831,86.03719,160.9424,True
3,1.811115,-0.1887306,0.3334373,-0.2369993,-1.483916,-4.653632,-1.527514,0.1424594,1.446592,0.3946323,-0.9918171,0.2363136,10.8488,15.64174,0.2035038,-0.09473115,0.1071805,-0.2269482,-0.8228118,-3.059623,0.2980924,1.506366,0.3167973,-0.05904949,-0.2481112,-0.04637883,-1.39092,0.5539314,0.1134219,0.460705,1.485865,0.2168412,-0.1033284,1.645167,0.2694196,303.6735,85.53336,162.2932,True
3,1.822226,-0.1865975,0.3527609,-0.219094,-1.488619,-4.657096,-1.525634,0.1431312,1.447581,0.3967352,-0.9889159,0.2613257,10.5305,13.52046,0.1808542,-0.08618164,0.06793091,-0.2264497,-0.8203719,-3.063271,0.2984003,1.506615,0.3164785,-0.0814856,-0.2438578,-0.05470914,-1.392097,0.5513873,0.1154323,0.4607849,1.485778,0.2163022,-0.103527,1.646463,0.2717951,304.0473,84.71515,164.1026,True
3,1.833337,-0.1737463,0.3411724,-0.2041366,-1.492162,-4.65874,-1.524007,0.1435687,1.448031,0.3971021,-0.9858586,0.2753329,10.13263,11.42061,0.1735201,-0.09477239,0.08286837,-0.2278451,-0.8139092,-3.071268,0.2987422,1.506862,0.3161407,-0.09433146,-0.2140309,-0.05881488,-1.393015,0.5501215,0.1172097,0.4608802,1.485708,0.2157319,-0.1036129,1.647262,0.2728248,304.3204,84.19919,165.2242,True
3,1.844448,-0.1512501,0.3157249,-0.1976656,-1.494668,-4.660832,-1.522843,0.1436225,1.447776,0.3956304,-0.983589,0.2031738,9.761274,9.706447,0.1810885,-0.08097568,0.1084341,-0.23012,-0.8106433,-3.076795,0.2990365,1.507047,0.3158948,-0.1040183,-0.1618316,-0.0671735,-1.393969,0.5501155,0.118585,0.4610125,1.485583,0.2153041,-0.1036403,1.647712,0.2729379,304.1634,84.35567,164.6269,True
3,1.855559,-0.095649,0.2723626,-0.1825985,-1.49626,-4.66228,-1.523541,0.1440108,1.448112,0.3958693,-0.980781,0.2530038,9.469496,8.485106,0.1745967,-0.06606406,0.1010588,-0.2309717,-0.8093706,-3.079774,0.2993549,1.507214,0.3155394,-0.09676672,-0.1213114,-0.08847082,-1.395617,0.5502781,0.1194308,0.4611411,1.485511,0.2148476,-0.1036476,1.648126,0.2730321,303.7882,84.86172,163.1848,True
3,1.86667,-0.0561896,0.2683141,-0.1698508,-1.498889,-4.663656,-1.524193,0.1440426,1.447637,0.3942273,-0.978259,0.2263972,9.257293,7.756588,0.1437448,-0.05448413,0.1130161,-0.2327507,-0.8080116,-3.081785,0.299627,1.507413,0.3152483,-0.0808568,-0.1074417,-0.09603637,-1.397058,0.5495959,0.1198606,0.461255,1.485438,0.2144315,-0.1036918,1.648569,0.273347,303.6962,84.8925,162.9028,True
3,1.877781,-0.05306096,0.2886587,-0.1518457,-1.502844,-4.66459,-1.523561,0.1442966,1.447697,0.3944297,-0.9769961,0.1114451,9.23077,7.563743,0.1213026,-0.04389691,0.1078603,-0.233776,-0.8071769,-3.083177,0.2999233,1.507549,0.3149662,-0.06925306,-0.112735,-0.1099845,-1.398873,0.5483299,0.1204998,0.4613329,1.485257,0.2140312,-0.1038326,1.648836,0.2736203,303.8466,84.69348,163.4206,True
3,1.888893,-0.072368,0.3259762,-0.1253789,-1.507452,-4.664809,-1.522038,0.1444914,1.447158,0.3930748,-0.9740182,0.2692887,9.310343,8.163701,0.1125589,-0.03957302,0.07384522,-0.2334804,-0.8058161,-3.085604,0.300233,1.507708,0.3147225,-0.08418709,-0.1276478,-0.1130873,-1.400474,0.5465847,0.1223834,0.461484,1.485206,0.2137115,-0.1040785,1.648733,0.2737987,303.9839,84.5154,163.8879,True
3,1.900004,-0.07989883,0.3367995,-0.1052015,-1.513163,-4.665984,-1.520056,0.1454257,1.44843,0.3984249,-0.9696767,0.3925914,9.469496,9.599312,0.1199756,-0.03951909,0.06633688,-0.2339747,-0.8039103,-3.089189,0.3004703,1.507723,0.3144727,-0.09795763,-0.1372635,-0.1044711,-1.401582,0.5447662,0.1242104,0.4616901,1.485037,0.2133536,-0.1045881,1.648209,0.2737368,304.0066,84.26187,164.3199,True
3,1.911115,-0.06693771,0.3070965,-0.09554204,-1.515513,-4.667799,-1.520029,0.1460038,1.449269,0.4003847,-0.9658092,0.3485068,9.681698,11.82773,0.1199547,-0.02993733,0.06849393,-0.2348098,-0.8038227,-3.090591,0.3007327,1.507759,0.3142607,-0.1042873,-0.1330241,-0.09589195,-1.402531,0.5435157,0.1258189,0.4618726,1.484868,0.2129314,-0.105377,1.647486,0.2736595,303.6889,84.00619,164.4776,True
3,1.922226,-0.05818029,0.2485846,-0.1006245,-1.517338,-4.669974,-1.519315,0.1463282,1.449845,0.4030292,-0.9630188,0.2510406,9.94695,14.65609,0.1083032,-0.02468299,0.08030427,-0.2362048,-0.8030584,-3.092267,0.3009438,1.507664,0.3141863,-0.08800115,-0.113904,-0.05657561,-1.401903,0.5427564,0.1263601,0.4620441,1.48471,0.2126348,-0.1062327,1.646755,0.2738203,302.9762,84.07166,163.8254,True
3,1.933337,-0.05906888,0.2081263,-0.0950947,-1.518284,-4.670783,-1.518581,0.1466535,1.449975,0.4036636,-0.9630193,-0.003152397,10.1061,17.69873,0.09318848,-0.01188617,0.0559326,-0.2360168,-0.8044741,-3.091374,0.3011535,1.507599,0.3140988,-0.06768874,-0.10325,-0.04606737,-1.402153,0.542016,0.1266245,0.4622583,1.484582,0.2122774,-0.1069093,1.646588,0.275397,301.9583,84.6853,162.0041,True
3,1.944448,-0.05232811,0.1400032,-0.09057928,-1.517383,-4.672953,-1.518599,0.1468515,1.45059,0.4040308,-0.960827,0.1995221,10.26525,20.56996,0.08750065,-0.007494882,0.0005841181,-0.2341318,-0.8049295,-3.091804,0.3014298,1.507671,0.3141127,-0.05485762,-0.09686154,-0.03977033,-1.402553,0.5411424,0.1269436,0.4624544,1.484453,0.2120397,-0.1073344,1.647111,0.2785232,301.5312,85.00261,161.4659,True
3,1.955559,-0.01146736,0.05071115,-0.08591133,-1.514943,-4.673871,-1.519803,0.147338,1.450958,0.4047143,-0.9591204,0.1533545,10.45093,23.22691,0.09693953,-0.007396333,-0.02291253,-0.2330372,-0.8048656,-3.093267,0.3017563,1.507754,0.3140559,-0.0558801,-0.103261,-0.03444095,-1.402891,0.539775,0.1279356,0.462687,1.484393,0.211834,-0.1074439,1.648056,0.2828996,301.6717,84.6646,162.4759,True
3,1.966671,0.006887149,0.002859257,-0.08576756,-1.513297,-4.676259,-1.520758,0.1477595,1.451621,0.4057999,-0.9586032,0.04527881,10.6366,25.54103,0.1238012,-0.05526104,-0.01468717,-0.2332807,-0.7945946,-3.105662,0.3021544,1.507838,0.3139648,-0.06014995,-0.1021991,-0.03546562,-1.403397,0.5386848,0.1289508,0.4628567,1.484242,0.2115815,-0.1072916,1.649177,0.2875619,302.1307,83.75674,164.8251,True
3,1.977782,0.04964626,-0.03429531,-0.09520736,-1.511579,-4.677725,-1.522782,0.148214,1.451886,0.4064424,-0.9585984,-0.0005733566,10.92838,27.27662,0.1460887,-0.05833564,-0.02975134,-0.232396,-0.7912422,-3.111358,0.302485,1.507792,0.3138194,-0.06784611,-0.09257114,-0.06415212,-1.405189,0.5381964,0.1300595,0.4630608,1.484068,0.2113667,-0.1070203,1.650277,0.2915991,302.6338,83.16404,166.8981,True
3,1.988893,0.06674307,-0.05019253,-0.1037087,-1.511539,-4.680194,-1.523805,0.1485765,1.452133,0.4087708,-0.9574048,0.1084245,11.29973,28.45511,0.1398171,-0.03288368,0.003385164,-0.2335912,-0.7936721,-3.110303,0.3026744,1.507807,0.3136642,-0.0520445,-0.0733486,-0.08448096,-1.406676,0.5382949,0.1300611,0.4632137,1.483885,0.2111373,-0.1065805,1.650961,0.2944872,303.012,83.01265,167.9683,True
3,2.000004,0.05830656,-0.07045742,-0.1014695,-1.510161,-4.681294,-1.52402,0.148772,1.452351,0.4095452,-0.9573345,0.004821576,11.72414,29.11935,0.1144077,-0.01283444,0.03982208,-0.2353585,-0.7958274,-3.108567,0.3028884,1.507798,0.313503,-0.03935128,-0.06799573,-0.09522843,-1.408166,0.5379358,0.1301106,0.4633837,1.483744,0.2109051,-0.106216,1.651294,0.2961749,303.187,83.1935,168.0544,True
3,2.011115,0.03292668,-0.1078136,-0.08634792,-1.507149,-4.681655,-1.523669,0.1482554,1.451335,0.4063845,-0.9555433,0.1631959,12.22811,29.31219,0.07494441,0.01683,0.04866645,-0.2361084,-0.80113,-3.102836,0.3029705,1.507681,0.3134403,-0.04575785,-0.08397057,-0.09839367,-1.409443,0.5366096,0.1310827,0.4634575,1.483531,0.2107623,-0.1059588,1.651117,0.2968743,303.2419,83.59347,167.3713,True
3,2.022226,0.03093211,-0.1290749,-0.07244129,-1.504572,-4.682887,-1.524309,0.1483296,1.451293,0.4057181,-0.9537621,0.1610069,12.78515,29.1622,0.07054074,0.0104899,0.02311606,-0.2354783,-0.8000644,-3.104525,0.3029995,1.507639,0.3133483,-0.06363267,-0.09788018,-0.07057633,-1.409498,0.5349742,0.1326912,0.463475,1.483336,0.2105985,-0.1059867,1.650593,0.2971631,303.1185,84.08726,166.2307,True
3,2.033337,0.02873791,-0.1109044,-0.05868179,-1.503961,-4.683064,-1.524544,0.1485162,1.4513,0.406276,-0.9524854,0.1150783,13.28912,29.01221,0.07992243,0.02124862,-0.003550563,-0.2344461,-0.8028405,-3.103091,0.3030773,1.507588,0.3132634,-0.07314834,-0.08404797,-0.05982339,-1.409812,0.5347162,0.1339168,0.4635535,1.483184,0.210391,-0.1064119,1.649918,0.2970168,303.0743,84.15594,166.2768,True
3,2.044448,0.01689353,-0.07256351,-0.04827437,-1.504059,-4.684245,-1.524441,0.1488878,1.451258,0.405992,-0.9530393,-0.05173568,13.74005,28.88365,0.08634786,-0.003206521,-0.01218104,-0.2339257,-0.7987108,-3.108351,0.3031577,1.507581,0.3131592,-0.06145929,-0.04142969,-0.0598494,-1.410386,0.5359433,0.1339021,0.4636331,1.483105,0.2102156,-0.1071705,1.648952,0.2957571,303.0865,84.07162,167.0787,True
3,2.055559,0.01791528,-0.06299832,-0.05364968,-1.503741,-4.685044,-1.524622,0.1491033,1.451433,0.4064677,-0.952062,0.08933502,14.11141,28.77651,0.05966092,-0.01072118,-0.02482389,-0.2331811,-0.7969981,-3.109701,0.3033114,1.507565,0.3131144,-0.03695637,-0.02755934,-0.05896107,-1.410952,0.5362867,0.1332915,0.463654,1.483052,0.2100854,-0.1080095,1.647695,0.2935567,302.6976,84.54391,166.4482,True
3,2.06667,0.03606191,-0.06933317,-0.0514946,-1.502231,-4.685357,-1.525769,0.1489089,1.450623,0.4039872,-0.9509184,0.1029971,14.40318,28.69081,0.05324337,0.007348396,-0.01834277,-0.2332428,-0.8003012,-3.106862,0.3035065,1.5076,0.3130455,-0.03262034,-0.0435516,-0.05157185,-1.411556,0.5351181,0.1336955,0.4637291,1.482951,0.2098978,-0.1087313,1.646349,0.2911247,302.0487,85.18061,164.9066,True
3,2.077781,0.04780415,-0.0735031,-0.04296006,-1.501257,-4.685566,-1.526711,0.1490979,1.450971,0.4043155,-0.9500588,0.07681485,14.61538,28.6051,0.04589432,-0.0001704581,-0.005532851,-0.2335912,-0.7991811,-3.108202,0.3037171,1.50775,0.3128731,-0.04100173,-0.05956273,-0.03554959,-1.411564,0.5338578,0.1346337,0.4637488,1.482875,0.2097008,-0.1092816,1.645221,0.2890536,301.4508,85.83587,163.35,True
3,2.088892,0.04669584,-0.06290339,-0.04513461,-1.500413,-4.685834,-1.527098,0.1489705,1.450077,0.4014139,-0.9496369,0.03682978,14.77454,28.56224,0.05046988,-0.0205008,0.0316751,-0.2352754,-0.7944473,-3.113645,0.3039792,1.507942,0.3127036,-0.05053168,-0.06064704,-0.0290825,-1.411784,0.533182,0.1355882,0.4638008,1.482798,0.2096143,-0.1096718,1.644435,0.2876639,301.2155,86.16648,162.6629,True
3,2.100003,0.00920456,-0.01819605,-0.03043339,-1.502516,-4.686053,-1.525388,0.1493537,1.450546,0.4031303,-0.9478526,0.1615196,14.82759,28.43368,0.04626435,0.0007264242,0.05306183,-0.236445,-0.7973081,-3.111237,0.3039242,1.508149,0.3125753,-0.06872255,-0.0521248,-0.03850822,-1.412549,0.5329937,0.1369424,0.4638799,1.482807,0.2094407,-0.1099562,1.643751,0.2866035,301.3184,86.14876,162.909,True
3,2.111114,0.0006078042,0.0009708721,-0.02519688,-1.503201,-4.68612,-1.525072,0.1494034,1.450814,0.4034574,-0.945273,0.2327884,14.72149,28.24084,0.03769412,0.01347932,0.05315355,-0.2370895,-0.7997739,-3.108924,0.3039896,1.508332,0.3124204,-0.07519136,-0.05104513,-0.0480395,-1.413452,0.5326231,0.1380471,0.4638601,1.48275,0.2092645,-0.1102444,1.643167,0.2858374,301.4036,86.05538,163.2337,True
3,2.122225,-0.01332952,0.02862398,-0.01572837,-1.503873,-4.685631,-1.524664,0.1489284,1.450337,0.4007206,-0.9409263,0.3938069,14.50928,27.96229,0.0343997,0.003938634,0.03184044,-0.2366272,-0.798449,-3.110534,0.3039381,1.508578,0.3122706,-0.07546847,-0.06057699,-0.08320837,-1.415818,0.5318733,0.1390972,0.463804,1.482775,0.2091379,-0.1105726,1.642498,0.2850729,301.4195,85.97051,163.4772,True
3,2.133336,-0.03465253,0.03061333,-0.02637446,-1.504388,-4.686236,-1.52349,0.1489258,1.450808,0.4009812,-0.9397534,0.1021851,14.24403,27.59803,0.0279219,-0.009878051,0.0105363,-0.2359507,-0.7957885,-3.113172,0.3038727,1.508806,0.312218,-0.06494503,-0.04882706,-0.09819432,-1.417477,0.5319117,0.1393981,0.4638355,1.482833,0.2089591,-0.1109728,1.642121,0.2848575,301.0261,86.17686,162.7159,True
3,2.144447,-0.0345527,0.01143958,-0.02524764,-1.503638,-4.687082,-1.523358,0.1491524,1.45161,0.4012015,-0.9372436,0.2269329,13.87268,27.10521,0.01842342,-0.02590731,0.01588046,-0.236379,-0.7921647,-3.116563,0.3038688,1.50896,0.3120198,-0.05632362,-0.02754045,-0.08438029,-1.417808,0.5323721,0.139637,0.4638274,1.48292,0.208833,-0.1114767,1.642121,0.2852061,300.8969,85.98867,162.9698,True
3,2.155558,-0.03023049,-0.003456831,-0.02517565,-1.503101,-4.687386,-1.523156,0.1492061,1.452093,0.4014716,-0.9337804,0.3126138,13.42175,26.44097,0.01749547,-0.02277955,0.03933202,-0.2375907,-0.791406,-3.117441,0.3039469,1.509198,0.3118138,-0.04978945,-0.003059284,-0.06415368,-1.417617,0.5333094,0.1398548,0.4638212,1.483093,0.2087386,-0.1121259,1.642265,0.2855206,301.0248,85.49583,164.1246,True
3,2.166669,-0.03338823,-0.008859418,-0.03476452,-1.502569,-4.688545,-1.522878,0.1492413,1.452484,0.400846,-0.9318342,0.1732323,12.89124,25.64816,0.02394808,-0.02384517,0.04781573,-0.238436,-0.7902063,-3.119148,0.3040405,1.509328,0.3116214,-0.04446683,0.002267482,-0.06418862,-1.418356,0.5334974,0.1401545,0.4638671,1.48324,0.2085526,-0.1128054,1.642462,0.285789,300.9149,85.46691,164.3699,True
3,2.17778,-0.04295596,-0.01752309,-0.05495456,-1.502142,-4.689912,-1.52196,0.1492905,1.452956,0.4011588,-0.9287338,0.2798505,12.30769,24.74823,0.02078639,-0.01642594,0.05744403,-0.2394256,-0.7904978,-3.118955,0.3040652,1.509525,0.3114214,-0.03695682,0.0001322534,-0.0578607,-1.418777,0.5334964,0.1402964,0.4638769,1.483371,0.2083921,-0.1133922,1.642637,0.286097,300.7268,85.69489,164.1223,True
3,2.188891,-0.0513733,-0.04212623,-0.06334296,-1.500544,-4.690823,-1.521145,0.1488802,1.452558,0.3989084,-0.9254325,0.2971344,11.75066,23.80544,0.02073567,-0.01534249,0.04999053,-0.2396472,-0.7897564,-3.119894,0.3041337,1.509724,0.3112638,-0.03268982,-0.00518683,-0.05790412,-1.419457,0.533386,0.1405113,0.4639122,1.483511,0.2082102,-0.1138944,1.642713,0.2864734,300.6393,85.76757,164.0917,True
3,2.200002,-0.05014022,-0.082651,-0.06739008,-1.497942,-4.691551,-1.520635,0.1486883,1.452124,0.3965366,-0.9214436,0.3598258,11.24668,23.03407,0.03239756,-0.02591253,0.03497292,-0.2395093,-0.7872134,-3.123145,0.3042422,1.509942,0.3110883,-0.03590909,-0.008384543,-0.06108452,-1.420357,0.5332202,0.1410365,0.4639788,1.483591,0.2080235,-0.1144289,1.642687,0.2867979,300.6165,85.80313,164.2238,True
3,2.211113,-0.03509941,-0.1134778,-0.06617966,-1.495708,-4.692374,-1.520697,0.1488005,1.452547,0.3967254,-0.9180326,0.3064964,10.8488,22.41268,0.03456781,-0.02485896,0.0424148,-0.2401665,-0.7861505,-3.124558,0.3043516,1.510172,0.3109567,-0.03800281,-0.01052149,-0.05574544,-1.420824,0.5331641,0.1416522,0.4639799,1.483689,0.2078373,-0.1150624,1.642531,0.28702,300.6548,85.76523,164.5715,True
3,2.222224,-0.02975307,-0.1187955,-0.06614468,-1.494212,-4.69294,-1.520455,0.1488129,1.452432,0.3955901,-0.9148544,0.2856365,10.55703,22.00557,0.05482584,-0.01096642,0.0529778,-0.2412052,-0.7879351,-3.124113,0.3044423,1.510404,0.3107784,-0.03475343,-0.02011737,-0.05045817,-1.421216,0.5326287,0.1419385,0.463883,1.483804,0.2076931,-0.1158415,1.642041,0.286624,300.8322,85.51242,165.5758,True
3,2.233335,-0.02233848,-0.1091993,-0.07046062,-1.493349,-4.693921,-1.520406,0.148956,1.452771,0.3956838,-0.9118813,0.2669334,10.34483,21.85558,0.05590408,-0.01947361,0.04868278,-0.2414672,-0.785795,-3.127007,0.3045649,1.510548,0.3106263,-0.03057731,-0.01476768,-0.06007247,-1.422216,0.5328566,0.1421553,0.4638749,1.483939,0.2076571,-0.1167042,1.641063,0.2853087,300.7635,85.63676,165.8258,True
3,2.244446,-0.02668176,-0.09226108,-0.08224504,-1.492606,-4.694895,-1.519777,0.1490502,1.452462,0.3934665,-0.9079366,0.3559009,10.15915,22.09128,0.04746188,-0.0184697,0.06257933,-0.2425389,-0.7853279,-3.127594,0.3045455,1.510716,0.3104661,-0.02419654,-0.007303916,-0.06010947,-1.422793,0.5331679,0.1422336,0.4638426,1.484017,0.2074816,-0.1176378,1.639776,0.2834519,300.3576,86.17871,164.9027,True
3,2.255557,-0.03098805,-0.08163654,-0.08442634,-1.492127,-4.695901,-1.51919,0.1492061,1.452732,0.3934727,-0.904377,0.3198455,9.94695,22.77694,0.04526569,-0.0152582,0.0540795,-0.2428366,-0.7850341,-3.128295,0.3046464,1.510819,0.3102658,-0.02307095,0.004401551,-0.05157725,-1.423015,0.5336756,0.1423838,0.4638346,1.484072,0.2073247,-0.1186355,1.638356,0.2813944,299.8491,86.74111,163.765,True
3,2.266668,-0.03629921,-0.07870748,-0.08234803,-1.487308,-4.696586,-1.518464,0.1476302,1.446478,0.3725371,-0.9000499,0.3903987,9.734747,23.8483,0.04510543,-0.006679725,0.03385736,-0.2423732,-0.7861004,-3.127786,0.3047193,1.511069,0.3100741,-0.01883601,0.003341146,-0.05480474,-1.423692,0.5336894,0.1424706,0.4638109,1.484128,0.2071896,-0.1196851,1.637018,0.2795422,299.3616,87.18912,162.8705,True
3,2.277779,-0.03843487,-0.07656357,-0.07809605,-1.486581,-4.697337,-1.517935,0.1477546,1.446643,0.371989,-0.8962522,0.3413511,9.496022,25.26248,0.0410178,-0.02485164,0.05087878,-0.2434736,-0.7823092,-3.13177,0.304904,1.511292,0.3098261,-0.01245777,-0.001977154,-0.05699546,-1.424407,0.5335971,0.1424205,0.4638525,1.484157,0.2070122,-0.1207162,1.63579,0.2778731,298.9702,87.46465,162.4997,True
3,2.28889,-0.04585999,-0.07870224,-0.0781756,-1.4857,-4.69958,-1.517194,0.1483825,1.447556,0.3725457,-0.8923145,0.3546239,9.151194,26.80523,0.04222728,-0.03447857,0.06788957,-0.2448441,-0.7794391,-3.135079,0.3051009,1.511529,0.3095055,-0.01144704,-0.0008964716,-0.0633937,-1.425304,0.5338253,0.1425169,0.4638419,1.484206,0.2068162,-0.1217214,1.634482,0.275791,299.4121,86.10316,165.8479,True
3,2.300001,-0.04687766,-0.09150314,-0.07916302,-1.484214,-4.700339,-1.516517,0.1484601,1.447971,0.3720739,-0.8886963,0.3252133,8.779839,27.98372,0.05185445,-0.03233381,0.07529148,-0.2459429,-0.7782241,-3.137169,0.3052412,1.511692,0.3092313,-0.02438133,0.005514581,-0.08138955,-1.426789,0.5343506,0.1431723,0.463915,1.484197,0.2065907,-0.1227857,1.631903,0.2700529,300.48,84.57877,170.8399,True
3,2.311112,-0.04472701,-0.09359303,-0.08454692,-1.483874,-4.702343,-1.516084,0.1487753,1.448907,0.3733461,-0.8848038,0.350626,8.408487,28.69081,0.05071585,-0.008909009,0.07748774,-0.2467589,-0.7811424,-3.134822,0.3053761,1.511791,0.3090253,-0.04785705,-0.004078995,-0.08654411,-1.427964,0.5341975,0.1445878,0.4640756,1.484122,0.2063727,-0.1239929,1.62878,0.2620631,299.6092,86.0303,167.928,True
3,2.322223,-0.05224653,-0.08086371,-0.08779041,-1.483447,-4.703264,-1.515022,0.1488979,1.449347,0.3730211,-0.8808736,0.3537231,8.037136,28.88365,0.04750524,0.002784222,0.08180322,-0.247797,-0.78293,-3.133489,0.3055091,1.512034,0.3087623,-0.06806801,-0.01369005,-0.08426233,-1.428833,0.5337841,0.1460009,0.4640888,1.484126,0.2061472,-0.1251971,1.626052,0.2543822,298.0412,88.73134,161.6668,True
3,2.333334,-0.05655607,-0.06911773,-0.08679484,-1.4837,-4.704297,-1.514118,0.1488299,1.449901,0.3740191,-0.8773353,0.3179094,7.771884,28.41226,0.05288602,-0.002541356,0.08707602,-0.2488894,-0.7816319,-3.13555,0.3056848,1.512259,0.3084836,-0.0744959,-0.0168817,-0.08847664,-1.42998,0.5336977,0.1471021,0.4641716,1.484167,0.2059383,-0.1263319,1.624287,0.2487903,296.9356,91.20955,156.2491,True
3,2.344445,-0.05549731,-0.06911267,-0.08572123,-1.482918,-4.705088,-1.513366,0.1489816,1.450469,0.3738062,-0.8727573,0.4132594,7.665781,27.66231,0.05398639,-0.02169953,0.08169149,-0.2496213,-0.7774678,-3.140256,0.3058979,1.512496,0.3081889,-0.07241523,-0.01580753,-0.09488246,-1.431261,0.5337289,0.1477751,0.4641964,1.484264,0.2057161,-0.127259,1.623602,0.2462643,296.4178,92.6316,153.3092,True
3,2.355556,-0.06618828,-0.06171985,-0.09425814,-1.4829,-4.706155,-1.512196,0.1490542,1.451037,0.374341,-0.8689575,0.3412761,7.745358,26.33383,0.05818678,-0.01102439,0.0784982,-0.250401,-0.7788857,-3.139632,0.3062098,1.512945,0.3078232,-0.06807795,-0.008362466,-0.0842495,-1.431764,0.5339933,0.148406,0.4642328,1.484306,0.2054849,-0.1279234,1.623783,0.2466358,296.3667,92.6884,153.2554,True
3,2.366668,-0.0716583,-0.03192906,-0.09651767,-1.483547,-4.706977,-1.510888,0.1493359,1.451524,0.374193,-0.8652211,0.3361831,8.01061,24.44826,0.05826885,-0.02807966,0.0816509,-0.2514706,-0.7752044,3.139336,0.3064142,1.513359,0.3075182,-0.07439706,-0.001989555,-0.07459925,-1.432199,0.5342857,0.1494076,0.4642883,1.484356,0.2052345,-0.1283677,1.624566,0.2493982,296.551,91.94695,154.8572,True
3,2.377779,-0.06528572,-0.03298605,-0.1039702,-1.483258,-4.708393,-1.510215,0.1495455,1.452197,0.3740978,-0.860944,0.385539,8.461537,22.24127,0.05326356,-0.03461888,0.128539,-0.2544799,-0.7725716,3.136378,0.3066694,1.513821,0.3071017,-0.08942021,0.001216587,-0.08725355,-1.433531,0.53461,0.150899,0.4643822,1.48441,0.2049944,-0.1286407,1.625643,0.2535985,296.8237,90.86833,157.3931,True
3,2.38889,-0.06303135,-0.05437659,-0.1145774,-1.481502,-4.710874,-1.509596,0.1499964,1.4533,0.3739824,-0.8568502,0.3684351,8.965518,20.18427,0.06185226,-0.01334235,0.1519737,-0.2569072,-0.7754052,3.13819,0.3068398,1.514279,0.3066916,-0.1033635,0.001213495,-0.09886029,-1.435082,0.5346938,0.1525078,0.4644024,1.484463,0.2047303,-0.1288485,1.626799,0.2583884,297.0808,89.76072,160.0336,True
3,2.400001,-0.0618107,-0.08748176,-0.1282997,-1.479172,1.569795,-1.50896,0.1502948,1.454286,0.3739347,-0.8536214,0.2895166,9.522545,18.51296,0.05328169,0.003665283,0.1542063,-0.2586015,-0.7775506,3.139941,0.3069568,1.514751,0.3062565,-0.1141496,-0.003030904,-0.1158257,-1.436999,0.5347939,0.1541099,0.4644728,1.484565,0.2043917,-0.1290499,1.627882,0.262915,297.2681,88.69282,162.6059,True
3,2.411112,-0.07344311,-0.1088741,-0.1356431,-1.477326,1.567896,-1.507607,0.1505077,1.455145,0.3738713,-0.8498962,0.3354763,10.05305,17.31305,0.05115309,0.01535955,0.1616999,-0.2605711,-0.7798945,-3.141418,0.3070554,1.515129,0.3058412,-0.1194499,-0.0349938,-0.1158361,-1.438578,0.5335916,0.1557438,0.4644647,1.484728,0.2040594,-0.129356,1.62879,0.2665126,297.3844,88.07297,164.4787,True
3,2.422223,-0.09366438,-0.1153648,-0.1387791,-1.476106,1.566422,-1.505671,0.1504357,1.455576,0.3739486,-0.8459063,0.3592495,10.5305,16.39169,0.05222872,0.005780689,0.1574073,-0.2621722,-0.7783341,3.139575,0.3072411,1.515589,0.3054614,-0.123658,-0.04459201,-0.1104903,-1.439721,0.5330421,0.1572474,0.4644105,1.484843,0.2037845,-0.1298007,1.629451,0.2688063,297.3788,88.06135,165.3269,True
3,2.433334,-0.1331095,-0.1091611,-0.1430485,-1.475263,1.564618,-1.502708,0.1505828,1.456563,0.3738768,-0.8411472,0.4293641,10.92838,15.70602,0.05875529,-0.009145282,0.1701088,-0.2644743,-0.7759839,3.136441,0.3074517,1.516081,0.3050663,-0.1341057,-0.05316127,-0.08591651,-1.439993,0.532182,0.1591668,0.4643342,1.484998,0.2034378,-0.1303742,1.629773,0.269729,297.3013,88.38901,165.3347,True
3,2.444445,-0.1437514,-0.1156236,-0.1472605,-1.473884,1.562887,-1.500466,0.1507127,1.457601,0.3738,-0.8365191,0.4169011,11.19363,15.42747,0.07158023,-0.01337302,0.1742783,-0.2666101,-0.774917,3.13418,0.3076671,1.516592,0.3046627,-0.1423523,-0.04149703,-0.05174344,-1.439543,0.5321407,0.1609037,0.4641907,1.485112,0.2030561,-0.1310541,1.629743,0.2694389,297.155,88.81911,164.7901,True
3,2.455556,-0.1479208,-0.1391418,-0.1599239,-1.471672,1.560499,-1.498427,0.1508933,1.458753,0.373702,-0.8316296,0.4410035,11.37931,15.42747,0.0898739,-0.01657672,0.2018488,-0.2697196,-0.7740667,3.131778,0.3079294,1.51718,0.3042662,-0.1379665,-0.03512742,-0.03578886,-1.439471,0.5319236,0.1623524,0.4640976,1.485221,0.2026494,-0.1318485,1.629445,0.2682632,296.8974,89.3238,163.8484,True
3,2.466667,-0.159665,-0.1508685,-0.1630524,-1.470673,1.558327,-1.495301,0.151407,1.459312,0.3742464,-0.8284658,0.2830462,11.48541,15.66317,0.09219736,-0.02622098,0.2263161,-0.2731375,-0.7721037,3.12879,0.3081957,1.517603,0.3037562,-0.1272715,-0.04471179,-0.03163134,-1.439922,0.5311681,0.1634981,0.4640501,1.4853,0.2022121,-0.1327476,1.62921,0.2665912,296.4189,90.03275,162.5819,True
3,2.477778,-0.1702759,-0.1615873,-0.1672532,-1.468684,1.556158,-1.492839,0.1516366,1.460314,0.3742228,-0.8250154,0.3106169,11.59151,16.04885,0.08918157,-0.02737391,0.2540305,-0.2769357,-0.7709596,3.126803,0.3084331,1.518023,0.303257,-0.1049721,-0.06172653,-0.04249088,-1.440965,0.5299932,0.1640409,0.464037,1.485328,0.2017691,-0.133588,1.629161,0.2648242,295.968,90.93546,161.1369,True
3,2.488889,-0.1916255,-0.1638056,-0.1693771,-1.467203,1.553696,-1.489163,0.1519415,1.460971,0.3734939,-0.8201072,0.4435133,11.72414,16.30598,0.08386326,-0.005065218,0.2679835,-0.2803579,-0.7734917,3.128531,0.3087102,1.518416,0.3027849,-0.08274403,-0.08724366,-0.0629566,-1.442668,0.5284309,0.1643679,0.4640563,1.485422,0.2013032,-0.1341749,1.629242,0.2633515,295.6852,91.93736,159.6074,True
3,2.5,-0.2119089,-0.156453,-0.1725853,-1.465901,1.551716,-1.485884,0.1518336,1.462187,0.3733954,-0.8168235,0.2938391,11.88329,17.16306,0.08488835,0.009845376,0.2701496,-0.2833427,-0.775704,3.12968,0.3089366,1.518864,0.3023026,-0.07633328,-0.09789883,-0.0619616,-1.443542,0.5270768,0.1651666,0.4640433,1.485461,0.2008407,-0.1343675,1.629404,0.2625518,295.5243,92.66437,158.4332,True
3,2.511111,-0.2278857,-0.1565245,-0.1746486,-1.464595,1.550566,-1.482758,0.152149,1.463803,0.3741398,-0.8120335,0.4331691,12.06897,18.79152,0.09344873,0.003479391,0.2722017,-0.2863058,-0.7751938,3.127913,0.3092015,1.519308,0.3018787,-0.08575089,-0.1053942,-0.04165914,-1.443521,0.5257834,0.1666617,0.4639974,1.485459,0.2003524,-0.1344509,1.629885,0.2624285,295.5075,93.04046,158.0419,True
3,2.522222,-0.2310616,-0.1629637,-0.1820573,-1.462857,1.548303,-1.479893,0.1522877,1.464991,0.3741219,-0.8087077,0.2980326,12.30769,21.14849,0.1019912,-0.008199453,0.2689202,-0.2891937,-0.7735801,3.124964,0.3094482,1.519791,0.301403,-0.1069996,-0.1054247,-0.03509483,-1.444001,0.5245644,0.1685445,0.4639357,1.485578,0.1998761,-0.1345471,1.630733,0.2627933,295.5408,93.18809,158.2014,True
3,2.533333,-0.2139321,-0.1842303,-0.1883535,-1.460385,1.545787,-1.477776,0.1525584,1.466003,0.3741024,-0.8053735,0.3002155,12.51989,24.23399,0.116931,-0.01666272,0.2677389,-0.2921445,-0.7720445,3.121669,0.3097039,1.520319,0.3009171,-0.1367298,-0.08522877,-0.02097247,-1.443835,0.5242695,0.1711025,0.4638975,1.485632,0.1993499,-0.1347918,1.632076,0.2635294,295.5284,93.34959,158.2673,True
3,2.544444,-0.201139,-0.1895263,-0.1915005,-1.458335,1.543777,-1.475663,0.1527916,1.467082,0.3738656,-0.8023625,0.2704752,12.7321,28.048,0.1211137,0.001473457,0.2656283,-0.294944,-0.7747817,3.122878,0.3099035,1.520768,0.3004138,-0.1441118,-0.08098996,-0.01131626,-1.443787,0.5234483,0.1729177,0.4638047,1.485768,0.1987913,-0.1349556,1.633742,0.2646141,295.5106,93.49456,158.315,True
3,2.555555,-0.1830454,-0.185179,-0.1894041,-1.456613,1.541539,-1.474009,0.1530963,1.46798,0.3737862,-0.7999135,0.2195795,12.75862,32.35483,0.1145619,0.01960105,0.2508052,-0.2972344,-0.7776499,3.124561,0.3101227,1.52123,0.2998841,-0.1431641,-0.0969431,-0.02732939,-1.444807,0.5220569,0.1746533,0.4637089,1.485831,0.1982088,-0.1349481,1.635468,0.2658828,295.6965,93.59789,158.6049,True
3,2.566666,-0.1735204,-0.1723586,-0.1894676,-1.455345,1.539397,-1.471988,0.1534169,1.468861,0.3736796,-0.796788,0.2818953,12.62599,37.04735,0.1198697,0.02281639,0.24971,-0.2999172,-0.7787219,3.124077,0.3103937,1.521685,0.299324,-0.1357418,-0.113971,-0.03381158,-1.445778,0.5203736,0.1760618,0.4637327,1.485851,0.1977212,-0.1347512,1.636967,0.2671371,295.9971,93.66695,159.0117,True
3,2.577777,-0.1683131,-0.144649,-0.1885182,-1.45476,1.537691,-1.470023,0.1537723,1.469765,0.3733726,-0.7942164,0.2307534,12.33422,41.88987,0.1304967,0.03562966,0.2528735,-0.3028302,-0.7817004,3.125099,0.3106611,1.522109,0.2987654,-0.123874,-0.1299688,-0.01688785,-1.445782,0.5183259,0.1772901,0.463699,1.485919,0.19717,-0.1345303,1.638185,0.2681569,296.2339,93.67932,159.4249,True
3,2.588888,-0.1608712,-0.1308044,-0.1897243,-1.453374,1.534623,-1.468529,0.1544213,1.470917,0.3732119,-0.7909657,0.2934047,11.88329,46.15385,0.134756,0.04305765,0.2582012,-0.3056292,-0.7838205,3.125411,0.3109596,1.522599,0.2982326,-0.115267,-0.1278486,-0.006299287,-1.445651,0.5169894,0.1784827,0.4636095,1.48596,0.1965213,-0.1343691,1.63905,0.2688577,296.3706,93.78683,159.5808,True
3,2.599999,-0.1427282,-0.140343,-0.1939404,-1.451623,1.532221,-1.467141,0.1546616,1.471868,0.3730826,-0.788007,0.2660569,11.37931,49.41076,0.1209282,0.04835135,0.2625536,-0.3089437,-0.7866805,3.127262,0.3112217,1.523102,0.297673,-0.1205997,-0.1193302,-0.006242536,-1.445913,0.5159497,0.1801522,0.4635904,1.48607,0.1959169,-0.134377,1.639654,0.2692291,296.3392,93.96095,159.5391,True
3,2.61111,-0.1224094,-0.1562099,-0.1885327,-1.449564,1.530279,-1.466296,0.1547913,1.472636,0.373081,-0.7856996,0.2067738,10.8488,51.57489,0.1114022,0.04722448,0.2722009,-0.3123499,-0.7884432,3.128092,0.3114143,1.523619,0.2971084,-0.1385841,-0.1161722,0.009885527,-1.445561,0.5146596,0.1825373,0.4635734,1.48623,0.1953235,-0.1345506,1.64011,0.2692975,296.1416,94.2402,159.317,True
3,2.622221,-0.1191895,-0.162579,-0.1863517,-1.447797,1.528327,-1.464699,0.1549739,1.473298,0.3730681,-0.7828154,0.2599408,10.3183,52.75337,0.1049244,0.05042678,0.2605359,-0.3149486,-0.7904728,3.12906,0.3116398,1.523944,0.2965982,-0.1585042,-0.1151882,0.04946487,-1.443963,0.5130118,0.1851968,0.463555,1.48626,0.1947458,-0.1348196,1.640482,0.2691945,295.9279,94.83304,158.7072,True
3,2.633332,-0.1234893,-0.1540962,-0.1906527,-1.446612,1.525902,-1.462882,0.1552526,1.474036,0.3730271,-0.7801512,0.2391257,9.814323,53.03193,0.1153225,0.06865793,0.2317454,-0.3163825,-0.7953538,3.132168,0.3117046,1.524307,0.2960801,-0.1647916,-0.1077545,0.06338162,-1.442943,0.5118981,0.1874213,0.4635422,1.486387,0.1941366,-0.1352101,1.64079,0.269038,295.8308,95.40971,158.0687,True
3,2.644443,-0.1192811,-0.1583187,-0.191698,-1.445442,1.523461,-1.460585,0.1558378,1.474375,0.3729653,-0.7761649,0.3601295,9.442968,52.66766,0.1141464,0.06870234,0.2147076,-0.3183037,-0.7978679,3.13333,0.3118718,1.524777,0.2955477,-0.1552668,-0.1087996,0.05584273,-1.44294,0.5106317,0.1890128,0.4635169,1.486519,0.1936204,-0.1356841,1.640922,0.2689175,295.8093,95.84547,157.5685,True
3,2.655554,-0.1139383,-0.1614709,-0.1874246,-1.443722,1.521275,-1.459224,0.1561737,1.475074,0.372921,-0.7724344,0.3354859,9.204244,51.68202,0.09800969,0.07296726,0.1924501,-0.3197114,-0.8009337,3.135677,0.3121027,1.525219,0.29509,-0.1438296,-0.1140611,0.02058566,-1.444067,0.5093567,0.1904195,0.4635286,1.486712,0.1930783,-0.1362382,1.64088,0.2688982,295.6954,96.2286,157.1519,True
3,2.666665,-0.09903277,-0.1730395,-0.1746041,-1.442013,1.519272,-1.457602,0.1566465,1.47576,0.3729045,-0.7681729,0.3840942,9.018568,50.09642,0.1012524,0.0601885,0.1923982,-0.3219746,-0.801478,3.134937,0.3123392,1.525667,0.2945809,-0.1375024,-0.1108522,0.01308053,-1.444372,0.5082178,0.1919622,0.4634685,1.486751,0.1925266,-0.1367878,1.640697,0.2690625,295.4776,96.65637,156.7398,True
3,2.677776,-0.08513589,-0.1825654,-0.1724078,-1.439808,1.517566,-1.456989,0.1567277,1.47646,0.3728075,-0.7649632,0.2872303,8.885942,48.12514,0.1172755,0.04427308,0.1901217,-0.324022,-0.8013457,3.132909,0.3125942,1.526138,0.2941377,-0.1065723,-0.1033802,0.01816874,-1.444217,0.5072187,0.192211,0.4634386,1.486851,0.192004,-0.1371995,1.640372,0.2694477,295.215,97.09415,156.3959,True
3,2.688887,-0.07334135,-0.1911054,-0.1798801,-1.437119,1.514381,-1.456622,0.1569168,1.477917,0.3726838,-0.7602974,0.4209379,8.700266,46.21812,0.1268095,0.03901561,0.1783238,-0.3255544,-0.8023739,3.132071,0.312782,1.526566,0.2936454,-0.0798877,-0.1065654,0.02433451,-1.443989,0.5058659,0.1923489,0.4633596,1.487024,0.1914701,-0.1376338,1.640092,0.27,294.9897,97.50579,156.1489,True
3,2.699998,-0.06906259,-0.1953488,-0.1798617,-1.435033,1.512099,-1.455692,0.1572215,1.478736,0.3726106,-0.7563489,0.3537942,8.514586,45.10392,0.1054451,0.05385332,0.1785015,-0.327548,-0.8060979,3.135239,0.3129124,1.527141,0.2932031,-0.1076183,-0.1246924,0.01813903,-1.444416,0.5036929,0.1948017,0.4633348,1.487244,0.1909714,-0.1381312,1.639879,0.2706461,294.8094,97.83865,156.0357,True
3,2.711109,-0.04882239,-0.1909658,-0.1724214,-1.433369,1.510518,-1.455789,0.1571152,1.479565,0.3726308,-0.7515169,0.4349172,8.381961,44.99679,0.09809472,0.03782395,0.1870233,-0.3298831,-0.8057213,3.134144,0.3130543,1.527606,0.2927823,-0.1354445,-0.1236208,0.002386451,-1.445189,0.502584,0.1974358,0.4632942,1.487363,0.1905031,-0.1388926,1.639783,0.2712767,294.6804,98.17263,155.9458,True
3,2.72222,-0.0425074,-0.1845255,-0.1724796,-1.43219,1.508086,-1.454644,0.1577881,1.479878,0.3725893,-0.7449602,0.5913523,8.275862,45.78959,0.09906115,0.0442494,0.1753199,-0.331465,-0.8076502,3.134828,0.3131497,1.528044,0.2923608,-0.1279842,-0.1481202,0.0001550466,-1.445755,0.5000226,0.1988287,0.4632754,1.487473,0.190026,-0.139947,1.639756,0.2718883,294.5103,98.71534,155.6067,True
3,2.733331,-0.04572958,-0.1621681,-0.166252,-1.430748,1.505674,-1.45431,0.1581405,1.480821,0.3724728,-0.7394384,0.4952173,8.222812,47.4609,0.09035948,0.05174261,0.1508933,-0.3322464,-0.8103011,3.136562,0.313254,1.52859,0.2919292,-0.1109461,-0.1449087,2.320483E-05,-1.446011,0.498612,0.1996641,0.4632096,1.487617,0.1895494,-0.141065,1.639515,0.2725144,294.3286,99.13126,155.3405,True
3,2.744442,-0.06079994,-0.1270812,-0.1674462,-1.430786,1.504242,-1.452829,0.1576448,1.48164,0.3725438,-0.7316684,0.7015067,8.249334,50.01071,0.07749557,0.03258429,0.1274845,-0.3329164,-0.809308,3.135211,0.3133348,1.529184,0.2914865,-0.1247755,-0.1001856,0.006592542,-1.445681,0.4990593,0.2014242,0.4631787,1.487777,0.1891341,-0.1422152,1.6389,0.2731535,294.1472,99.38013,155.2185,True
3,2.755553,-0.06297141,-0.1164106,-0.1621717,-1.430082,1.502506,-1.451783,0.1578202,1.482395,0.3724334,-0.7251686,0.5830677,8.328911,52.51768,0.06790549,0.04637748,0.1350409,-0.3346113,-0.8121698,3.137481,0.313463,1.529719,0.2909884,-0.1535612,-0.07996497,0.005792215,-1.445683,0.4988566,0.2041451,0.4631499,1.487942,0.1886897,-0.143223,1.637774,0.2738329,293.7879,99.74779,154.9915,True
3,2.766664,-0.05014202,-0.1270097,-0.1621278,-1.428481,1.50047,-1.45142,0.1579931,1.483207,0.3723342,-0.7164292,0.7889016,8.461537,54.76752,0.06796332,0.06549731,0.1553368,-0.3371162,-0.8164999,3.140792,0.3136283,1.530148,0.2904768,-0.1717048,-0.05227755,0.004920416,-1.445583,0.4991296,0.2066656,0.4632567,1.48807,0.1881149,-0.1445335,1.63657,0.2745309,293.3522,100.2557,154.6083,True
3,2.777775,-0.03517698,-0.1397674,-0.1684401,-1.426614,1.498495,-1.451361,0.1581416,1.483819,0.3722239,-0.7089068,0.675502,8.594163,56.50311,0.06475119,0.09420371,0.1703585,-0.3395605,-0.8225147,-3.137337,0.3138043,1.530527,0.2899368,-0.1493893,-0.03627276,-0.0005611926,-1.44575,0.4993463,0.2075694,0.4632363,1.488162,0.1876242,-0.1463349,1.6355,0.2752588,292.8456,100.571,154.3957,True
3,2.788886,-0.0404687,-0.1398434,-0.1737931,-1.424856,1.495864,-1.450706,0.1586753,1.484813,0.3721323,-0.7014042,0.6744936,8.700266,57.03878,0.05843261,0.08564159,0.1767574,-0.3415855,-0.8243176,-3.136087,0.3139379,1.530941,0.2895048,-0.131273,-0.05223583,-0.001795094,-1.445994,0.4981714,0.2084723,0.4632576,1.488296,0.1872408,-0.1481814,1.63434,0.276004,292.2906,101.0048,154.1503,True
3,2.799997,-0.04900417,-0.1388065,-0.1716529,-1.423546,1.493955,-1.449411,0.1588026,1.485563,0.3720753,-0.6930531,0.7516704,8.753316,56.48168,0.05200705,0.07818802,0.1671896,-0.3431009,-0.8260692,-3.134796,0.314042,1.531342,0.2890573,-0.1152968,-0.0948287,-0.006253559,-1.446758,0.49566,0.2094717,0.4632599,1.488432,0.1867373,-0.1499209,1.632984,0.2767422,291.8076,101.6294,153.7477,True
3,2.811108,-0.04152308,-0.1429883,-0.162049,-1.421995,1.492278,-1.448972,0.1589133,1.486278,0.3720198,-0.6834912,0.8614549,8.806365,55.00321,0.04673055,0.07283467,0.1725269,-0.3450402,-0.8281555,-3.133114,0.3140711,1.531794,0.288686,-0.1130672,-0.111894,0.004358772,-1.446694,0.4937173,0.2109722,0.4632348,1.488589,0.1862402,-0.1515156,1.631367,0.2774654,291.3323,102.2947,153.2645,True
3,2.822219,-0.03289267,-0.1567634,-0.1502851,-1.419549,1.490624,-1.449192,0.1589042,1.48681,0.3720539,-0.6733606,0.9124725,8.859415,52.73195,0.04562714,0.06859,0.1650682,-0.3467191,-0.8297816,-3.132,0.3140948,1.532134,0.2883542,-0.1287576,-0.1055755,0.040713,-1.445303,0.4924451,0.2131043,0.4632666,1.48868,0.1857033,-0.1530354,1.629637,0.2782066,290.7696,103.0749,152.6142,True
3,2.83333,-0.02547488,-0.1471338,-0.148207,-1.418481,1.488909,-1.448917,0.1589525,1.48738,0.3720002,-0.6645727,0.7892266,8.912464,49.96786,0.04859833,0.05381199,0.1202618,-0.3463931,-0.8302197,-3.132271,0.3141368,1.532744,0.2879229,-0.1457128,-0.1130559,0.05149831,-1.444607,0.4908693,0.2155557,0.4631748,1.488739,0.1851346,-0.1546214,1.627954,0.2789724,290.2183,103.7444,152.0732,True
3,2.844441,-0.01912842,-0.1385896,-0.1493162,-1.41751,1.487085,-1.448516,0.159068,1.487899,0.3719096,-0.6555557,0.8111633,8.992041,47.58946,0.05295383,0.03251669,0.1223017,-0.3478296,-0.8290783,-3.134174,0.3141176,1.533061,0.2874584,-0.192625,-0.1248062,0.04546309,-1.444878,0.4889293,0.2195872,0.4630925,1.488802,0.1846731,-0.1562509,1.626267,0.2797429,289.7764,104.3565,151.6226,True
3,2.855552,-0.01372279,-0.1555955,-0.1460264,-1.415434,1.48548,-1.448381,0.1589341,1.488091,0.3718097,-0.6450192,0.9494302,9.098145,45.27534,0.04539315,0.06869747,0.1267114,-0.3494163,-0.8345979,-3.129244,0.3140418,1.53325,0.2870352,-0.2052434,-0.1014127,0.06797065,-1.44356,0.4883474,0.222342,0.4630269,1.488862,0.184258,-0.1579374,1.624425,0.2805062,289.421,104.9622,151.1737,True
3,2.866663,-0.001910547,-0.1704853,-0.147069,-1.41284,1.482925,-1.448704,0.1592014,1.488717,0.3716757,-0.6344635,0.9498717,9.204244,42.93979,0.03253889,0.09846345,0.1322022,-0.3510632,-0.8407176,-3.123453,0.3140961,1.533596,0.2865584,-0.1741441,-0.07160765,0.09546862,-1.441497,0.4880856,0.2230861,0.4629243,1.488988,0.183814,-0.1597158,1.622405,0.2812864,288.9538,105.5159,150.7437,True
3,2.877774,0.008778298,-0.17786,-0.1395814,-1.410753,1.48136,-1.448928,0.1591094,1.489052,0.3715518,-0.6240777,0.9342812,9.336869,40.58281,0.003798947,0.1015402,0.13772,-0.3528321,-0.8443805,-3.119045,0.3140119,1.533737,0.2862647,-0.1123824,-0.07475132,0.09176786,-1.440801,0.4870283,0.2224155,0.4628429,1.489039,0.1834118,-0.1615509,1.620172,0.2821042,288.4424,106.1769,150.2297,True
3,2.888885,0.009770912,-0.1596369,-0.1204651,-1.409974,1.481073,-1.448885,0.1587577,1.48905,0.3716977,-0.6138815,0.9169275,9.496022,38.18298,-0.005904626,0.05901443,0.0950467,-0.3523607,-0.8417459,-3.12119,0.3139711,1.533999,0.2859631,-0.08056552,-0.08535032,0.07231857,-1.441032,0.485626,0.2224006,0.4627732,1.489086,0.1829882,-0.1634407,1.617665,0.2829329,287.9226,107.0622,149.5333,True
3,2.899997,0.007510225,-0.1275499,-0.09292117,-1.409702,1.480993,-1.448707,0.1585299,1.48915,0.3715689,-0.6026659,1.010211,9.602121,35.56889,0.001547433,0.02713137,0.07680441,-0.3526483,-0.8395221,-3.123464,0.3137641,1.534201,0.2857382,-0.07341418,-0.09167521,0.03389865,-1.442299,0.484606,0.2230352,0.462742,1.489098,0.1826382,-0.1653602,1.614909,0.2837844,287.333,108.2761,148.5023,True
3,2.911108,0.005323138,-0.1093132,-0.06635889,-1.409086,1.481343,-1.448807,0.1582217,1.489125,0.371489,-0.5909911,1.051204,9.734747,32.95479,0.007924389,0.02397197,0.07248909,-0.3533642,-0.8402982,-3.12308,0.3136225,1.5344,0.2853947,-0.09164286,-0.07036828,0.02129805,-1.442443,0.4845373,0.2248254,0.462637,1.489008,0.182189,-0.1674035,1.61195,0.2846543,286.7381,109.2879,147.634,True
3,2.922219,0.006333349,-0.0964566,-0.0525707,-1.408439,1.481172,-1.448759,0.1580095,1.489145,0.3713014,-0.5796439,1.021159,9.867373,30.4264,0.0002188599,0.04000745,0.04275388,-0.3528555,-0.843368,-3.119922,0.3133414,1.534476,0.285126,-0.1171157,-0.05336933,0.03431435,-1.441652,0.4842382,0.2269565,0.4625274,1.488905,0.1818852,-0.1695862,1.608822,0.2855109,286.0631,109.9139,147.1342,True
3,2.93333,0.0137312,-0.07926644,-0.02920445,-1.408031,1.481891,-1.449243,0.1576795,1.489059,0.3710387,-0.56875,0.9800292,9.999999,28.02657,-0.01169955,0.05281422,0.01836138,-0.3522094,-0.8464101,-3.116507,0.3130462,1.534625,0.2848783,-0.1245308,-0.04698489,0.03971444,-1.441036,0.4838393,0.2285549,0.4623191,1.488931,0.1816604,-0.1718184,1.605578,0.2862651,285.292,110.608,146.6227,True
3,2.944441,0.04247318,-0.07046966,0.000580796,-1.407438,1.483085,-1.450832,0.1573512,1.489016,0.3707447,-0.5576404,1.000128,10.13263,26.01243,-0.03309821,0.05171214,0.003581807,-0.3517551,-0.847878,-3.113934,0.3126301,1.534841,0.2846198,-0.1298704,-0.03846912,0.03870499,-1.44073,0.4835528,0.2301688,0.4620156,1.488986,0.1814587,-0.1740009,1.60224,0.2868457,284.5329,111.5908,145.8171,True
3,2.955552,0.07117249,-0.05322826,0.01539123,-1.407322,1.483748,-1.452685,0.1569832,1.4889,0.3703902,-0.5469478,0.9617534,10.29178,24.68395,-0.0556579,0.06766904,-0.01753688,-0.3509109,-0.8516022,-3.109183,0.3121889,1.534987,0.2843614,-0.105184,-0.008656964,0.06412297,-1.439024,0.484113,0.2304974,0.4616501,1.488982,0.1813509,-0.1760754,1.598871,0.2872347,283.8011,112.8037,144.7276,True
3,2.966663,0.08924238,-0.04459167,0.02067992,-1.407217,1.484331,-1.454195,0.1566915,1.48886,0.3701384,-0.5370184,0.892404,10.45093,24.08399,-0.06844449,0.07612669,-0.0131648,-0.3510877,-0.8545429,-3.10531,0.3118205,1.535066,0.2840602,-0.0978308,0.009477674,0.05344197,-1.438589,0.4847084,0.2313395,0.4615794,1.488924,0.1811614,-0.1779188,1.59563,0.2873413,283.1254,113.3339,144.1982,True
3,2.977774,0.1073901,-0.050821,0.03774468,-1.406318,1.485268,-1.456185,0.1561947,1.488734,0.3697443,-0.5265309,0.9441119,10.61008,24.1697,-0.09184459,0.07921676,-0.005550291,-0.3513146,-0.857389,-3.100785,0.3114042,1.535083,0.2838054,-0.07991251,0.04574384,0.03311339,-1.43848,0.4864749,0.2314207,0.4613664,1.488897,0.181015,-0.1779482,1.594427,0.2872633,283.1676,113.4538,143.9504,True
3,2.988885,0.1201957,-0.05490439,0.0612174,-1.405444,1.487025,-1.458013,0.1556207,1.488672,0.3694067,-0.5154772,0.9955565,10.74271,24.81251,-0.1067047,0.0791354,0.003067788,-0.3516917,-0.8597339,-3.096976,0.3110309,1.535084,0.2835906,-0.06196439,0.0511127,0.01380424,-1.438764,0.4871877,0.2314995,0.4610958,1.488829,0.1808681,-0.1782513,1.593711,0.2870598,284.0622,112.2365,145.3486,True
3,2.999996,0.1233176,-0.05157765,0.08142354,-1.405276,1.488399,-1.458681,0.1553495,1.488091,0.3690462,-0.5053263,0.9127927,10.87533,25.81958,-0.1153267,0.06531914,-0.02035059,-0.3507665,-0.8604903,-3.094707,0.3105302,1.535045,0.2833762,-0.03347867,0.02882122,-0.02268318,-1.44039,0.4870856,0.2308822,0.4608715,1.488801,0.1807303,-0.1784086,1.593141,0.2869311,284.6445,111.5939,146.0127,True
3,3.011107,0.1221552,-0.02594356,0.09515762,-1.405694,1.490175,-1.460305,0.1545713,1.487777,0.3686595,-0.4948734,0.9414194,11.03448,27.10521,-0.1122076,0.04728335,-0.04280022,-0.3494318,-0.8605683,-3.093534,0.3099563,1.535047,0.2831571,-0.01761903,0.01075319,-0.03881907,-1.441355,0.4868219,0.2306718,0.4606309,1.488824,0.1805456,-0.1787891,1.592543,0.2868298,285.1935,110.7188,146.9311,True
3,3.022218,0.1146003,-0.00464531,0.09933035,-1.406278,1.491682,-1.461383,0.1536544,1.4876,0.368289,-0.4840098,0.9790984,11.24668,28.58367,-0.1154817,0.04198565,-0.05770606,-0.3483841,-0.8615667,-3.091151,0.3093706,1.535156,0.2828858,-0.01867105,0.01607546,-0.03667143,-1.441595,0.4872506,0.2308654,0.4603561,1.488845,0.1803584,-0.1788712,1.592243,0.2867729,285.4367,111.1078,146.7398,True
3,3.033329,0.1187775,0.01672079,0.107743,-1.407079,1.493322,-1.463103,0.1528807,1.487285,0.3678935,-0.4754818,0.7655129,11.45889,30.1907,-0.1262348,0.04305612,-0.07254733,-0.347151,-0.8635023,-3.08751,0.3086728,1.535269,0.2824681,-0.05799092,0.06076551,-0.02030645,-1.440782,0.4894283,0.2326681,0.4598402,1.489034,0.1801398,-0.1786932,1.592314,0.2863836,285.795,111.9236,146.1812,True
3,3.04444,0.1401535,0.0019219,0.1131287,-1.406354,1.494699,-1.465691,0.1520355,1.487116,0.3674266,-0.4661246,0.8434067,11.75066,31.58346,-0.1371244,0.05907611,-0.1001302,-0.3452767,-0.867314,-3.082019,0.3079267,1.535455,0.2821026,-0.08444625,0.07561642,0.003369205,-1.439703,0.4904261,0.2343515,0.4595046,1.488989,0.1798923,-0.1785355,1.592329,0.2862823,286.3025,113.888,144.8223,True
3,3.055551,0.1732216,-0.008619353,0.1078489,-1.405777,1.495901,-1.468885,0.1512909,1.487021,0.3668833,-0.4581191,0.7193152,11.98939,32.50482,-0.1596904,0.1037517,-0.105189,-0.3441038,-0.8753347,-3.07196,0.3071701,1.535664,0.2817085,-0.1076214,0.09578484,0.03767942,-1.437677,0.4917815,0.2361755,0.4590371,1.489202,0.1797316,-0.1783293,1.592428,0.2861701,286.6987,114.5413,144.5875,True
3,3.066662,0.210547,-0.01805005,0.1078706,-1.405162,1.497055,-1.472651,0.1505972,1.486813,0.3664272,-0.4508364,0.6545662,12.12201,32.86908,-0.1724545,0.1153951,-0.09442449,-0.343567,-0.8802485,-3.064961,0.3063477,1.535816,0.2813919,-0.09133594,0.1138537,0.07699706,-1.435161,0.4931692,0.236342,0.4584964,1.489418,0.1797283,-0.1780504,1.592555,0.286075,287.1424,114.8951,144.6084,True
3,3.077773,0.2255088,-0.02861877,0.1121745,-1.40436,1.498401,-1.4759,0.1499049,1.486593,0.3659704,-0.4435266,0.6576375,12.22811,32.74052,-0.1926961,0.1419122,-0.07930758,-0.3434311,-0.8876708,-3.055098,0.3055759,1.536054,0.2810411,-0.06674427,0.1308969,0.08960907,-1.433293,0.4948143,0.2360346,0.4579809,1.489705,0.1795928,-0.1777901,1.592731,0.2860062,287.6464,115.0317,145.0277,True
3,3.088884,0.2383749,-0.04660203,0.1250589,-1.403233,1.500422,-1.479106,0.14907,1.486445,0.3655977,-0.436433,0.6380385,12.22811,32.14056,-0.198019,0.1567807,-0.0707081,-0.3431478,-0.8941052,-3.046839,0.3047693,1.536225,0.2808144,-0.05706064,0.1308899,0.1012454,-1.43168,0.49593,0.236216,0.4574484,1.489924,0.1794367,-0.177454,1.592858,0.2858975,288.1658,115.3644,145.0863,True
3,3.099995,0.2298657,-0.04873272,0.1325382,-1.402463,1.502181,-1.481619,0.1482578,1.486233,0.3651798,-0.4285287,0.7125615,12.09549,31.19777,-0.1937974,0.1578744,-0.07605541,-0.3423339,-0.8994004,-3.039813,0.304009,1.536345,0.2805631,-0.05483431,0.1180911,0.1118603,-1.429935,0.496419,0.2366719,0.4569757,1.490152,0.179316,-0.1782136,1.59257,0.2862945,288.6661,113.6347,146.9121,True
3,3.111106,0.208561,-0.04662884,0.1442758,-1.401906,1.504384,-1.483605,0.1474658,1.485954,0.3647583,-0.4212386,0.6559495,11.93634,29.955,-0.1863576,0.1483358,-0.08465568,-0.3411818,-0.9035269,-3.034156,0.3033184,1.536429,0.2802317,-0.04522876,0.09891853,0.1117504,-1.428681,0.4964846,0.2368251,0.4565063,1.490323,0.179095,-0.1774893,1.593476,0.2859329,289.2648,114.5764,146.6029,True
3,3.122217,0.1926207,-0.04882538,0.1517094,-1.400629,1.505519,-1.485898,0.1470131,1.48596,0.3642962,-0.4138414,0.6665333,11.72414,28.45511,-0.1747369,0.1377833,-0.1060636,-0.3393682,-0.9075603,-3.02879,0.3027042,1.536465,0.2800009,-0.04110643,0.08830567,0.09358931,-1.428112,0.4971515,0.2370701,0.4559897,1.490551,0.1790013,-0.1784047,1.593285,0.2861693,289.9703,113.5515,147.6316,True
3,3.133328,0.1852526,-0.06797357,0.1635279,-1.399096,1.507621,-1.488081,0.1463289,1.485731,0.3638728,-0.4067563,0.6380732,11.48541,26.82665,-0.1639843,0.1218233,-0.09978662,-0.338573,-0.9101555,-3.024882,0.3020668,1.536476,0.2798352,-0.03896187,0.09256511,0.09570938,-1.426757,0.4980239,0.2373172,0.4554731,1.490739,0.1789575,-0.1788909,1.594237,0.2862362,290.6276,113.4474,147.8372,True
3,3.144439,0.1874463,-0.07856482,0.173183,-1.397715,1.510009,-1.490869,0.1454065,1.485214,0.3634722,-0.4010236,0.5148445,11.35279,25.32676,-0.1533321,0.1133555,-0.1041447,-0.3373527,-0.9138981,-3.019903,0.3012627,1.536539,0.2797081,-0.03149842,0.106416,0.0977947,-1.425293,0.4993843,0.2372376,0.4549744,1.491017,0.1788454,-0.179441,1.595108,0.2862544,291.312,113.5744,147.8893,True
3,3.15555,0.1788956,-0.07002023,0.1848644,-1.397002,1.512455,-1.492983,0.1446808,1.484825,0.3630364,-0.394828,0.5582972,11.32626,23.99829,-0.1523114,0.1069973,-0.1148221,-0.33584,-0.9174539,-3.014884,0.3005467,1.536525,0.2795966,-0.006068513,0.1160487,0.08162437,-1.424546,0.5009112,0.2362269,0.4544046,1.491157,0.1788113,-0.1798353,1.596038,0.2861964,292.1142,113.6413,147.9721,True
3,3.166661,0.1681739,-0.05298379,0.1901219,-1.396974,1.514908,-1.494917,0.1438046,1.484302,0.3627021,-0.3894985,0.4787048,11.29973,22.71266,-0.130004,0.08158595,-0.1395378,-0.3334789,-0.9186617,-3.013029,0.2996698,1.536497,0.2792969,0.03304389,0.1054844,0.04293682,-1.425231,0.5018793,0.2344085,0.4537888,1.491297,0.1788204,-0.1801866,1.596958,0.2860568,293.008,113.8509,147.9569,True
3,3.177772,0.1488628,-0.02220932,0.1825237,-1.397692,1.51677,-1.496193,0.1431352,1.48378,0.362299,-0.3831378,0.5737978,11.29973,21.51275,-0.1110176,0.07961132,-0.1705582,-0.3305968,-0.9222586,-3.009025,0.2990057,1.536395,0.2790561,0.05518892,0.101286,0.01398447,-1.42587,0.503032,0.2328311,0.4532161,1.491492,0.1787124,-0.1804794,1.597927,0.2858577,294.033,114.132,147.9466,True
3,3.188883,0.1317495,-0.01811327,0.1685862,-1.397338,1.51697,-1.496617,0.1432554,1.483066,0.3618269,-0.377273,0.5276245,11.27321,20.33426,-0.09283468,0.09772632,-0.1482473,-0.3300988,-0.9280238,-3.00309,0.2983997,1.536273,0.2787466,0.08265147,0.1226513,-0.0139046,-1.426485,0.5052955,0.2306455,0.4528029,1.491662,0.1786182,-0.1807894,1.598964,0.2856923,295.029,114.3285,148.0732,True
3,3.199994,0.1307229,-0.02778406,0.1537317,-1.396501,1.518315,-1.49839,0.1423717,1.483006,0.3614609,-0.3712335,0.5441774,11.19363,19.13435,-0.09802568,0.1050926,-0.1226261,-0.3298304,-0.9326316,-2.997468,0.2977992,1.536208,0.27845,0.1061041,0.146099,-0.009795457,-1.425894,0.5077531,0.2282555,0.4523726,1.491763,0.1784518,-0.1810967,1.600053,0.2856118,295.8876,114.2373,148.4216,True
3,3.211105,0.1617737,-0.06285252,0.1443134,-1.394511,1.519737,-1.501773,0.1414217,1.482329,0.3611219,-0.3652797,0.5362453,11.00796,18.12728,-0.1063663,0.09860361,-0.09702966,-0.3297185,-0.9354947,-2.993159,0.2971217,1.535977,0.2781978,0.09455702,0.1364731,0.009458058,-1.42485,0.5086918,0.2273983,0.4518861,1.491858,0.1782746,-0.1821286,1.601129,0.2859197,296.7373,115.6126,148.6361,True
3,3.222216,0.1842885,-0.1001273,0.1274417,-1.391999,1.520434,-1.504746,0.1408813,1.481858,0.3608174,-0.3611166,0.3726861,10.68966,17.29162,-0.1055184,0.1114623,-0.1236337,-0.3276327,-0.9414639,-2.986334,0.2965701,1.535866,0.277945,0.07770246,0.1247062,0.03194753,-1.423504,0.5093744,0.227031,0.451434,1.491903,0.1780181,-0.1823539,1.602804,0.2868325,297.3195,114.7505,150.567,True
3,3.233327,0.1297827,-0.05667567,0.1272784,-1.39302,1.522203,-1.504452,0.1403124,1.481064,0.3605256,-0.3576577,0.3098228,10.23872,16.67023,-0.09605971,0.1338931,-0.1310998,-0.3261121,-0.9497016,-2.977814,0.296082,1.535787,0.2776113,0.06404625,0.1054815,0.05332629,-1.422209,0.5094895,0.226758,0.4510828,1.492003,0.1777687,-0.1839925,1.603801,0.2876641,296.1128,115.9837,150.4781,True
3,3.244438,0.1168046,-0.01415526,0.1196222,-1.394414,1.523508,-1.505294,0.139961,1.480559,0.3601496,-0.3523916,0.4754448,9.681698,16.2417,-0.08214818,0.1392311,-0.1183874,-0.3256119,-0.9552059,-2.972186,0.295819,1.535593,0.2772448,0.0673815,0.06604566,0.06601024,-1.421447,0.5086529,0.2258816,0.4507525,1.49199,0.1774538,-0.1844324,1.604543,0.2882226,295.6409,116.0749,151.0008,True
3,3.255549,0.1317414,-0.02163059,0.1036855,-1.393796,1.524325,-1.507522,0.139715,1.47996,0.3598516,-0.3439419,0.7651806,9.098145,16.04885,-0.06810582,0.11367,-0.102568,-0.3250867,-0.9567465,-2.970454,0.2954511,1.535471,0.2769301,0.06012841,0.01274296,0.08622538,-1.420223,0.5065811,0.2257341,0.4504294,1.492091,0.1770351,-0.1844027,1.604896,0.2885017,295.6561,115.9003,151.5162,True
3,3.26666,0.1338709,-0.02378191,0.09731308,-1.393366,1.525342,-1.50921,0.139412,1.479407,0.3594787,-0.340131,0.3388968,8.514586,16.09171,-0.05313364,0.09135826,-0.1059202,-0.3237994,-0.9579777,-2.969168,0.2951634,1.53537,0.2767727,0.0231269,-0.0033237,0.1195154,-1.418111,0.5054492,0.2268992,0.4500772,1.492219,0.1767988,-0.1842874,1.605023,0.2884848,295.8549,116.1267,151.5126,True
3,3.277771,0.134933,-0.02599842,0.07921317,-1.392987,1.525559,-1.510804,0.139189,1.479028,0.3591928,-0.3372324,0.2595152,7.95756,16.39169,-0.0297458,0.108482,-0.1038905,-0.3230404,-0.964051,-2.963873,0.2948558,1.535373,0.2764714,-0.009569891,0.007237324,0.1613481,-1.414887,0.5051752,0.2281756,0.449798,1.492252,0.1764233,-0.1841043,1.605097,0.2882611,296.2073,116.6835,151.1471,True
3,3.288882,0.1403381,-0.04945164,0.07081819,-1.39166,1.526246,-1.512435,0.1389418,1.478903,0.3590119,-0.3324142,0.4354868,7.427056,16.86308,-0.03291494,0.1180396,-0.09532309,-0.3225908,-0.9700591,-2.957776,0.2945015,1.535324,0.2760892,-0.004114345,0.01786353,0.1783677,-1.412385,0.505176,0.2278814,0.4494789,1.492419,0.1760514,-0.1839058,1.605168,0.2879544,296.6429,117.4564,150.6153,True
3,3.299993,0.1574827,-0.07496727,0.06667472,-1.389927,1.526801,-1.514793,0.1387733,1.478761,0.3587611,-0.3281382,0.3844567,7.029178,17.31305,-0.04889484,0.1201092,-0.09415053,-0.3218675,-0.9750147,-2.951985,0.2942245,1.535337,0.2758105,0.003199399,0.001920331,0.1591071,-1.411402,0.5044275,0.2276803,0.4493051,1.492569,0.1757278,-0.1837515,1.60541,0.2879574,296.9122,117.7768,150.69,True
3,3.311104,0.170361,-0.09839028,0.05827103,-1.388117,1.527259,-1.517233,0.1386702,1.478664,0.3584864,-0.3240263,0.3701099,6.737399,17.61303,-0.04229818,0.1062122,-0.07078914,-0.3220412,-0.9767122,-2.950194,0.2939173,1.535245,0.2754261,-0.01404571,-0.03107363,0.1325642,-1.411228,0.5028419,0.2287844,0.4490181,1.4926,0.1753094,-0.1837166,1.605488,0.2880882,296.9849,117.8817,150.8809,True
3,3.322215,0.1682946,-0.1187348,0.0392012,-1.386193,1.527002,-1.518889,0.138526,1.478655,0.3582351,-0.3208331,0.2862931,6.57825,17.72016,-0.02304134,0.10944,-0.05599003,-0.3221274,-0.9810396,-2.946538,0.2935504,1.535358,0.2751453,-0.02690534,-0.04385002,0.1219945,-1.410497,0.5016688,0.2297349,0.4487763,1.49266,0.1750474,-0.1837617,1.605521,0.2881573,296.9882,118.0681,150.888,True
3,3.333326,0.1640991,-0.1252185,0.03066924,-1.384044,1.526358,-1.521074,0.1387225,1.478929,0.3580074,-0.3171622,0.3307546,6.525197,17.63445,-0.02732174,0.1126257,-0.05701733,-0.3217546,-0.9859694,-2.941396,0.2933435,1.53542,0.2749236,-0.03963603,-0.01830855,0.1317267,-1.408459,0.5019775,0.2306574,0.4485256,1.492639,0.1748154,-0.1837736,1.605563,0.2881023,297.0821,118.4457,150.6882,True
3,3.344437,0.1491323,-0.1252947,0.0242567,-1.383161,1.525943,-1.52147,0.1387975,1.478528,0.3578925,-0.3127664,0.3966627,6.57825,17.3559,-0.05167647,0.1135339,-0.03342091,-0.3223868,-0.9893627,-2.936775,0.2933629,1.535485,0.2746956,-0.06212291,0.01258418,0.1202429,-1.407219,0.5029228,0.2319134,0.4484184,1.492754,0.1747043,-0.183774,1.605605,0.2879589,297.2406,119.0048,150.3178,True
3,3.355548,0.1289493,-0.138137,0.0296604,-1.381201,1.526329,-1.522281,0.1387313,1.478646,0.3577335,-0.3096558,0.2786805,6.68435,16.86308,-0.05574047,0.1113046,-0.003572293,-0.3235778,-0.9922627,-2.93328,0.2932125,1.535544,0.2745001,-0.060237,0.02861105,0.09148915,-1.406992,0.5037776,0.2324005,0.4483154,1.492793,0.1746113,-0.1838089,1.605629,0.2878193,297.3577,119.5589,149.9229,True
3,3.366659,0.1172494,-0.141373,0.03181585,-1.379501,1.52671,-1.523312,0.1384398,1.478904,0.3575351,-0.3043945,0.4764733,6.763926,16.41311,-0.06093194,0.09633513,0.009202879,-0.3241584,-0.993697,-2.931122,0.2930504,1.535661,0.2743454,-0.0306854,0.02549546,0.05715687,-1.407362,0.504032,0.2317033,0.4482613,1.492874,0.1744628,-0.1836933,1.605953,0.2881389,297.3636,119.0949,150.6505,True
3,3.37777,0.09914192,-0.1425077,0.03184737,-1.377972,1.527195,-1.523865,0.1381156,1.478949,0.3575099,-0.3012376,0.2825608,6.870025,16.04885,-0.05666533,0.07613991,-0.00153381,-0.3238218,-0.9944286,-2.929929,0.2929459,1.535723,0.2742677,-0.005298132,0.01170355,0.03349235,-1.407865,0.5037914,0.2309147,0.4481848,1.492929,0.1743774,-0.1836741,1.606037,0.2885691,297.2118,118.438,151.4739,True
3,3.388881,0.08202568,-0.1265881,0.03392408,-1.377153,1.527786,-1.524248,0.1376691,1.479031,0.3573601,-0.2985015,0.2460337,6.976128,15.81315,-0.04924989,0.05385436,-0.01975275,-0.3230255,-0.9950467,-2.928965,0.2928093,1.535908,0.2741368,0.01793267,0.0032373,0.00772171,-1.408674,0.5036634,0.2300327,0.4482324,1.492912,0.174206,-0.183758,1.606048,0.2888015,297.0483,118.1643,151.8217,True
3,3.399992,0.06915844,-0.106391,0.03596243,-1.376641,1.528242,-1.524658,0.1375356,1.479064,0.3571775,-0.2951896,0.298966,7.055701,15.87744,-0.04381953,0.03787325,-0.0123734,-0.3231203,-0.994783,-2.928874,0.2927616,1.535944,0.2740338,-0.007667997,0.02346438,0.005829208,-1.408454,0.5046409,0.2308923,0.4481964,1.492932,0.1741354,-0.1839611,1.606104,0.2888633,296.8779,118.3979,151.6882,True
3,3.411103,0.06593987,-0.09473149,0.03584785,-1.375191,1.527774,-1.525673,0.1377475,1.479581,0.3569455,-0.2921253,0.2757069,7.082227,16.19884,-0.04481542,0.03890297,-0.0006498396,-0.323572,-0.9961365,-2.927027,0.2926406,1.53593,0.2738886,-0.0384417,0.04046195,0.02101399,-1.407526,0.5054894,0.2320721,0.448198,1.492923,0.174094,-0.1842082,1.60612,0.2888097,296.7416,118.972,151.2386,True
3,3.422215,0.05947518,-0.09367666,0.03475964,-1.374575,1.527797,-1.525192,0.1380558,1.479307,0.3568711,-0.2893493,0.2496378,7.135277,16.69166,-0.04889268,0.03880541,0.02814502,-0.3250042,-0.9965621,-2.92598,0.2926125,1.535879,0.2736669,-0.0457601,0.0383038,0.03703531,-1.406631,0.5056871,0.2326476,0.4481775,1.4929,0.1740515,-0.184432,1.606137,0.2887027,296.6637,119.6856,150.6853,True
