loc,t,aDotS,bDotS,gDotS,aS,bS,gS,xS,yS,zS,qE,qDotE,emgA,emgB,aDotSH,bDotSH,gDotSH,aSH,bSH,gSH,xSH,ySH,zSH,aDotUB,bDotUB,gDotUB,aUB,bUB,gUB,xUB,yUB,zUB,xHand,yHand,zHand,aHand,bHand,gHand,enable
7,0,0.31324,-0.3573468,0.1818199,-1.45001,1.411161,-2.969814,0.3736839,1.175854,0.4434369,-1.574379,0.002922939,12.09549,14.01328,-0.1551632,0.5017401,-0.2153185,-0.8618394,-3.613396,-0.5511998,0.3127666,1.370027,0.3769069,0.1530988,0.2391866,0.5021076,-0.9635173,0.6315617,-0.3999519,0.4538976,1.490034,0.2386918,0.07701642,1.11892,0.4097955,283.4823,281.0432,344.6664,True
7,0.01111111,0.2994244,-0.3680223,0.1829345,-1.451285,1.415795,-2.9733,0.3723045,1.174957,0.4427373,-1.574478,-0.009069691,12.06897,13.90615,-0.1615009,0.504871,-0.2035594,-0.8663066,-3.608415,-0.5524318,0.3108789,1.369249,0.3762889,0.1359953,0.2253333,0.4926496,-0.959676,0.6361779,-0.4036628,0.4521437,1.489905,0.2384331,0.07600561,1.117683,0.4081405,283.4697,274.03,351.824,True
7,0.02222222,0.2738999,-0.3851154,0.186213,-1.452604,1.420923,-2.975998,0.3709614,1.174182,0.4418373,-1.574367,0.01030254,11.98939,13.77759,-0.1495529,0.4675801,-0.1856131,-0.8695881,-3.605029,-0.5534025,0.3094287,1.368649,0.3755918,0.120909,0.1965818,0.4703792,-0.9561462,0.6395853,-0.4064247,0.4506057,1.489772,0.2380855,0.07489893,1.115837,0.4059114,283.7552,272.6099,353.0229,True
7,0.03333334,0.2558154,-0.3957876,0.1894599,-1.454036,1.425868,-2.978776,0.3696503,1.17353,0.4410379,-1.574156,0.01932782,11.90981,13.64902,-0.1430665,0.4494692,-0.1803788,-0.8734348,-3.601701,-0.554211,0.3078295,1.367823,0.3749802,0.1090063,0.1784865,0.4480982,-0.9527938,0.6432089,-0.409408,0.4489356,1.489782,0.2378893,0.07374779,1.113478,0.4032075,284.1994,272.8065,352.3383,True
7,0.04444445,0.2345975,-0.4299221,0.1907105,-1.4555,1.432188,-2.981473,0.3681534,1.173128,0.4402692,-1.573416,0.06758229,11.83024,13.49904,-0.1161113,0.3707003,-0.1700812,-0.8754625,-3.601289,-0.5541098,0.306424,1.367375,0.3742547,0.08539551,0.151856,0.4259085,-0.9494814,0.6459434,-0.4111436,0.4475237,1.489688,0.2374406,0.07261428,1.110779,0.4001996,284.7554,272.7845,351.7711,True
7,0.05555556,0.2293174,-0.4501977,0.1844102,-1.45631,1.437938,-2.984441,0.3667369,1.172617,0.4393375,-1.573609,-0.01805554,11.77719,13.34904,-0.1180863,0.3504132,-0.1530817,-0.878334,-3.598416,-0.5544046,0.3050182,1.36707,0.3734055,0.05859268,0.151849,0.4069733,-0.9466376,0.6498129,-0.4132105,0.446148,1.489496,0.2369852,0.07161822,1.108227,0.3971932,285.334,271.8026,352.281,True
7,0.06666667,0.2187405,-0.4790085,0.1792413,-1.457351,1.444574,-2.987294,0.3652145,1.172236,0.4384785,-1.573585,0.002438473,11.72414,13.17763,-0.1286321,0.3428826,-0.1391902,-0.8811175,-3.595216,-0.5546589,0.3035287,1.366561,0.3724906,0.0287104,0.1603498,0.4008581,-0.9437268,0.6542891,-0.4152584,0.4449018,1.489428,0.2364256,0.07117178,1.107564,0.3951854,285.5392,266.8295,357.3791,True
7,0.07777778,0.2028277,-0.5024979,0.1761582,-1.458214,1.451182,-2.989867,0.3636495,1.171965,0.437582,-1.574082,-0.04532635,11.67109,12.98479,-0.1572124,0.3480175,-0.1049258,-0.883256,-3.59086,-0.5546462,0.3019733,1.366315,0.3715847,0.01372612,0.1656643,0.393547,-0.9406919,0.6586484,-0.417557,0.4436661,1.489273,0.2359397,0.07065135,1.107408,0.3941233,285.3974,265.8585,358.8977,True
7,0.08888889,0.1847188,-0.5121084,0.179408,-1.459554,1.457321,-2.991747,0.3623286,1.171789,0.436666,-1.574061,0.002383169,11.67109,12.8348,-0.1856686,0.3626778,-0.04186725,-0.8843015,-3.584817,-0.5553346,0.3006253,1.366222,0.3705199,-0.02276784,0.1560782,0.3619043,-0.9386141,0.661693,-0.4179932,0.4426993,1.489289,0.2353616,0.069693,1.107175,0.3930092,285.0962,269.1096,355.8582,True
7,0.1,0.1581248,-0.5270693,0.1848063,-1.460855,1.464049,-2.99347,0.3607963,1.17169,0.4357405,-1.573902,0.01453489,11.67109,12.70623,-0.189646,0.3763745,0.01358472,-0.8850696,-3.578504,-0.5571567,0.2992743,1.366181,0.3695354,-0.03988004,0.1486081,0.3535395,-0.9357144,0.6651182,-0.4191318,0.4415694,1.489224,0.2348347,0.06889208,1.106966,0.3919746,285.054,267.4473,357.9354,True
7,0.1111111,0.1336564,-0.5377893,0.1837863,-1.461835,1.470595,-2.994976,0.3591749,1.17157,0.4348466,-1.573399,0.04599954,11.67109,12.5991,-0.1895212,0.397602,0.04878561,-0.886578,-3.571787,-0.5591994,0.2980543,1.366112,0.3685853,-0.07199305,0.1475216,0.3367879,-0.9333777,0.6684361,-0.4193248,0.4406014,1.489198,0.2342479,0.0680099,1.106859,0.3909655,284.9607,266.3389,359.4953,True
7,0.1222222,0.09213467,-0.5453649,0.1806364,-1.463009,1.477247,-2.995307,0.3575521,1.171588,0.4339912,-1.573314,0.007481296,11.67109,12.55624,-0.1904826,0.4049891,0.07010628,-0.8877711,-3.565818,-0.5608734,0.2969033,1.366221,0.3676202,-0.09770836,0.1496439,0.3210469,-0.9313383,0.6719036,-0.4194234,0.4397011,1.489232,0.2336607,0.06714708,1.106776,0.3898872,284.9243,265.5151,0.8033724,True
7,0.1333333,0.04427321,-0.5667875,0.1817861,-1.463867,1.484378,-2.99534,0.3558329,1.171669,0.4331143,-1.573328,-0.0011077,11.67109,12.53482,-0.2019437,0.3644296,0.09243651,-0.8880343,-3.561769,-0.5606668,0.2958215,1.366384,0.3667321,-0.126596,0.1453793,0.3063949,-0.929284,0.6751614,-0.4191318,0.4389777,1.489436,0.2330537,0.06617422,1.106721,0.388652,284.9115,264.7216,2.051769,True
7,0.1444445,-0.0004108176,-0.5882025,0.1829605,-1.465052,1.491882,-2.994867,0.3541095,1.171818,0.4322896,-1.57239,0.08591958,11.61804,12.51339,-0.2037139,0.3068185,0.1200007,-0.8868827,-3.558928,-0.5601778,0.2948032,1.366652,0.3658338,-0.1578391,0.1368718,0.2672513,-0.9283066,0.6773187,-0.4177493,0.4383573,1.489631,0.2323854,0.06505035,1.106684,0.3870505,284.9004,264.4303,2.519271,True
7,0.1555556,-0.04085772,-0.601119,0.1755541,-1.465675,1.498978,-2.993945,0.3524199,1.17203,0.431406,-1.572239,0.01334817,11.59151,12.57767,-0.2001223,0.2471135,0.1539175,-0.8853424,-3.555817,-0.5599517,0.2937125,1.367041,0.3648465,-0.1912879,0.1145258,0.2185249,-0.9278075,0.6782699,-0.4151075,0.4378898,1.489713,0.2317343,0.0637672,1.106693,0.3849759,284.9372,264.2426,2.661567,True
7,0.1666667,-0.06854108,-0.6054662,0.1713184,-1.466561,1.505997,-2.993081,0.3506126,1.172217,0.4306195,-1.572041,0.01827481,11.56498,12.68481,-0.1956079,0.2246892,0.1826056,-0.8837397,-3.551845,-0.5605419,0.2926654,1.367223,0.3637676,-0.2160731,0.1038901,0.1867801,-0.9271502,0.6798337,-0.4128749,0.4372981,1.489655,0.2310128,0.06230655,1.106747,0.3822306,284.9755,264.7758,1.760487,True
7,0.1777778,-0.1079496,-0.6130579,0.1628199,-1.466927,1.513109,-2.991232,0.3488732,1.172574,0.42978,-1.571981,0.005534369,11.56498,12.85623,-0.2006942,0.2033133,0.2113336,-0.8821636,-3.547712,-0.5607001,0.2916081,1.367569,0.3627896,-0.2581951,0.1113784,0.1253875,-0.9283193,0.681102,-0.4093697,0.4370645,1.489733,0.2303941,0.06074622,1.10682,0.3786549,285.0342,265.6647,0.1446634,True
7,0.1888889,-0.1388172,-0.6206245,0.1575298,-1.467541,1.520598,-2.989505,0.3469585,1.172812,0.4289644,-1.572409,-0.03878265,11.59151,13.0705,-0.2101477,0.2160399,0.2412401,-0.8812389,-3.541476,-0.5618694,0.2906637,1.367944,0.3615742,-0.2776673,0.1305671,0.09575976,-0.9289255,0.6836051,-0.4072282,0.43666,1.48974,0.2297869,0.05829874,1.10704,0.3741454,284.5314,267.7766,356.8546,True
7,0.2,-0.183538,-0.6314182,0.1511812,-1.467837,1.528135,-2.98663,0.3449265,1.173272,0.4282377,-1.571822,0.05423432,11.64456,13.26334,-0.2099881,0.2170439,0.2678776,-0.8793215,-3.536067,-0.5630098,0.2897198,1.368395,0.3605356,-0.299383,0.1646838,0.05551979,-0.9308164,0.6866536,-0.4049725,0.4364486,1.489841,0.2291799,0.05630431,1.107073,0.3683742,284.6962,269.5118,353.3005,True
7,0.2111111,-0.2325051,-0.6411782,0.1416311,-1.46795,1.535736,-2.983336,0.3427975,1.173834,0.4274588,-1.572202,-0.03500241,11.67109,13.45618,-0.2215778,0.2212307,0.2945767,-0.8776692,-3.530195,-0.5636567,0.288818,1.369088,0.3594995,-0.3135291,0.1604493,0.0226194,-0.9320734,0.6881283,-0.4020332,0.4362826,1.49006,0.22855,0.05455356,1.107204,0.3622873,284.8862,268.2927,352.8172,True
7,0.2222222,-0.2867671,-0.6648081,0.1300238,-1.467826,1.54399,-2.979236,0.3405936,1.174426,0.4268198,-1.571484,0.06620623,11.69761,13.60617,-0.2245916,0.2254079,0.3265681,-0.8751515,-3.524036,-0.5650415,0.2879095,1.369616,0.3584857,-0.3243773,0.1540786,0.001398772,-0.9332047,0.6896992,-0.398953,0.4362338,1.490148,0.2279265,0.05311509,1.107322,0.3560093,285.2172,268.7632,350.5084,True
7,0.2333333,-0.3495369,-0.7022352,0.1323179,-1.467832,1.553101,-2.974154,0.3384628,1.175289,0.426127,-1.571392,0.008188338,11.69761,13.73473,-0.2327929,0.2252556,0.3798732,-0.8715067,-3.517325,-0.5665361,0.2868927,1.370426,0.3575907,-0.3339758,0.1466134,-0.0006529912,-0.9338028,0.69124,-0.3958515,0.4360977,1.490246,0.227267,0.05171474,1.107513,0.3499704,285.5932,268.2307,349.3476,True
7,0.2444444,-0.4133242,-0.7556052,0.1453215,-1.468121,1.563605,-2.968634,0.3360347,1.176078,0.4255078,-1.570975,0.03836132,11.61804,13.79901,-0.2261856,0.2422377,0.4299288,-0.8683689,-3.508958,-0.5690448,0.2864669,1.371409,0.3565705,-0.3607578,0.1210378,-0.019615,-0.9347339,0.6913722,-0.3910128,0.4361723,1.490448,0.2265389,0.05024473,1.107863,0.3443803,285.9839,267.7991,348.2562,True
7,0.2555556,-0.4728492,-0.8068815,0.1466377,-1.467876,-4.708791,-2.962621,0.3335214,1.176889,0.4248481,-1.570366,0.05578788,11.53846,13.82044,-0.1844036,0.2007951,0.4455608,-0.8642464,-3.503837,-0.5715823,0.2858947,1.372356,0.3557537,-0.3811912,0.08376181,-0.04504216,-0.9358529,0.6904153,-0.3854356,0.4362966,1.490647,0.2258003,0.04862469,1.108615,0.3395623,286.2243,266.6704,348.2584,True
7,0.2666667,-0.5143264,-0.8303869,0.1563371,-1.468255,-4.698372,-2.956672,0.3310416,1.177632,0.4241264,-1.57028,0.007846149,11.43236,13.84187,-0.158696,0.1465823,0.4388834,-0.8605068,-3.500575,-0.5726286,0.2851521,1.373217,0.3549216,-0.3857412,0.03799757,-0.0823476,-0.9374625,0.6882481,-0.3797401,0.4364125,1.490859,0.2250881,0.04690624,1.110001,0.3355628,286.3192,265.7973,348.4034,True
7,0.2777778,-0.6038315,-0.8284698,0.1584313,-1.468244,-4.689118,-2.947825,0.328522,1.178617,0.4233906,-1.570336,-0.004741359,11.35279,13.86329,-0.1425579,0.1242335,0.4525838,-0.8562665,-3.495894,-0.5746217,0.2845286,1.374197,0.3541489,-0.3794087,0.0199028,-0.09094596,-0.9384196,0.6872922,-0.3752314,0.4364373,1.491015,0.2243617,0.04502713,1.112109,0.3322059,286.1662,265.2806,348.5141,True
7,0.2888889,-0.6869613,-0.8116426,0.1593879,-1.468318,-4.680418,-2.938553,0.3258546,1.179659,0.4226053,-1.571009,-0.06110498,11.32626,13.949,-0.1294264,0.07840484,0.4822353,-0.8505838,-3.491804,-0.5764103,0.2838215,1.375352,0.353235,-0.3843512,0.0177156,-0.04936257,-0.9378151,0.6879175,-0.3711725,0.4367605,1.491164,0.2235878,0.04304482,1.1149,0.3292373,285.761,264.8976,348.6643,True
7,0.3,-0.7594278,-0.796931,0.1592863,-1.468264,-4.671707,-2.928872,0.3230335,1.180696,0.4217257,-1.56889,0.1946366,11.35279,14.05614,-0.146129,0.06226346,0.5291768,-0.8444964,-3.486241,-0.5779549,0.283262,1.376448,0.3523128,-0.392596,0.02405897,-0.01838381,-0.9372511,0.6888297,-0.3671093,0.4369499,1.49135,0.2228723,0.04104608,1.118244,0.3264326,285.1579,264.6604,348.7015,True
7,0.3111111,-0.8318933,-0.7907209,0.1571069,-1.468046,-4.663088,-2.918344,0.3202132,1.181944,0.4210334,-1.568965,-0.008017447,11.37931,14.1847,-0.1651096,0.07275808,0.5666108,-0.838761,-3.479406,-0.5800631,0.2827833,1.377648,0.3514073,-0.4149301,0.00378716,-0.01607264,-0.9371749,0.6880292,-0.3612764,0.4372934,1.491466,0.2220609,0.0388759,1.122085,0.323632,284.5387,264.3617,348.7512,True
7,0.3222222,-0.88196,-0.7908604,0.1549637,-1.467659,-4.654104,-2.907967,0.3173128,1.183167,0.4203203,-1.56933,-0.03258586,11.43236,14.31326,-0.1968066,0.1129858,0.6318825,-0.832453,-3.469538,-0.583432,0.2823714,1.378813,0.3504946,-0.4256877,-0.02496916,-0.03092459,-0.9375195,0.6861893,-0.3550803,0.4375504,1.491613,0.2213912,0.03649249,1.126389,0.320722,283.8543,263.9312,348.8854,True
7,0.3333333,-0.9810808,-0.7762339,0.1484597,-1.466935,-4.645604,-2.894512,0.3142676,1.184696,0.4195228,-1.569248,0.008235022,11.48541,14.44182,-0.19363,0.1544961,0.6511374,-0.8275528,-3.460054,-0.5878283,0.2821076,1.380138,0.3495867,-0.4258991,-0.0451791,-0.05652536,-0.9386599,0.683994,-0.349024,0.437984,1.491811,0.2207394,0.03398645,1.131057,0.3176125,283.0891,263.3792,349.0712,True
7,0.3444445,-1.093014,-0.753091,0.1451217,-1.466475,-4.63771,-2.879502,0.3112564,1.186282,0.4187586,-1.570033,-0.07136116,11.48541,14.50611,-0.1894887,0.1566866,0.6319451,-0.8232917,-3.453204,-0.5905712,0.2818342,1.381439,0.3487475,-0.3976427,-0.01418889,-0.1078843,-0.9416202,0.6839005,-0.3454187,0.4386086,1.492074,0.220031,0.03149482,1.136002,0.3142847,282.2903,262.6338,349.3398,True
7,0.3555556,-1.164456,-0.7266408,0.1449735,-1.466053,-4.630268,-2.864839,0.3080786,1.187795,0.417973,-1.567806,0.2047884,11.45889,14.59181,-0.2000146,0.09914875,0.6201659,-0.8173023,-3.449033,-0.5909325,0.2816188,1.383019,0.3478215,-0.3990068,-0.009888828,-0.1398268,-0.9440597,0.682864,-0.3402905,0.4391205,1.492252,0.2193134,0.02907344,1.141111,0.3107366,281.4556,261.6996,349.7214,True
7,0.3666667,-1.252964,-0.6917222,0.1426482,-1.465603,-4.623574,-2.848413,0.3046257,1.189576,0.4171081,-1.566898,0.08173668,11.43236,14.7418,-0.214644,0.06388459,0.6457492,-0.810238,-3.443277,-0.592135,0.2814187,1.384493,0.3469043,-0.4208113,-0.02582225,-0.1961136,-0.9474717,0.6802376,-0.3332941,0.4397274,1.492318,0.2186224,0.02655349,1.146429,0.3069907,280.7317,260.5232,350.2752,True
7,0.3777778,-1.341462,-0.6643078,0.1307681,-1.464646,-4.616971,-2.831606,0.3012933,1.191431,0.4161296,-1.56815,-0.1143201,11.35279,14.91322,-0.2086712,0.01365319,0.7244319,-0.8004754,-3.436768,-0.594556,0.2813145,1.38605,0.3461175,-0.4435178,-0.04923457,-0.2353519,-0.950748,0.6770968,-0.3258066,0.4403363,1.492472,0.2178943,0.02392689,1.15209,0.3031414,280.0386,259.1078,351.0151,True
7,0.3888889,-1.42257,-0.6133807,0.1283596,-1.464188,-4.611618,-2.813858,0.2979314,1.193375,0.4151089,-1.567525,0.05883043,11.27321,15.14892,-0.1890436,-0.01091567,0.7828531,-0.7912443,-3.429203,-0.59864,0.2812288,1.387611,0.3452117,-0.4609228,-0.07689975,-0.2778408,-0.9543225,0.6733152,-0.3179476,0.4409994,1.492695,0.2171936,0.02118457,1.158147,0.2993008,279.2415,257.4882,351.9493,True
7,0.4,-1.488741,-0.5646037,0.1184808,-1.463161,-4.606897,-2.795811,0.2945533,1.195163,0.4139206,-1.567957,-0.03941385,11.22016,15.42747,-0.1716167,-0.04504511,0.8274122,-0.781339,-3.422559,-0.6021157,0.2813264,1.389205,0.3444011,-0.4589524,-0.08220744,-0.2959795,-0.9577095,0.6705209,-0.3113904,0.4417414,1.49278,0.2163539,0.01825495,1.164659,0.2955581,278.3908,255.6732,353.1356,True
7,0.4111111,-1.609386,-0.4669623,0.1009392,-1.462957,-4.605009,-2.77398,0.2912108,1.197257,0.4130156,-1.568089,-0.01105127,11.16711,15.72745,-0.1958353,-0.08140174,0.853055,-0.7717596,-3.416811,-0.6032355,0.2814614,1.390919,0.3434601,-0.4558234,-0.08859061,-0.3034655,-0.9606059,0.6678337,-0.3048827,0.4424482,1.492963,0.2155676,0.01534185,1.171627,0.2919848,277.4519,253.3779,354.8839,True
7,0.4222222,-1.741764,-0.3576167,0.09178954,-1.46265,-4.60449,-2.750525,0.2878066,1.199242,0.4117165,-1.568705,-0.05564073,11.14058,15.98457,-0.2294738,-0.1146724,0.9085796,-0.7606308,-3.410053,-0.6043893,0.2815526,1.392678,0.3427029,-0.4592156,-0.1056095,-0.3268933,-0.9643173,0.6641768,-0.2976138,0.4431807,1.493056,0.2148769,0.0124785,1.179034,0.2886447,276.3987,250.5486,357.2455,True
7,0.4333333,-1.837847,-0.2758681,0.08816746,-1.463153,-4.603737,-2.727154,0.284471,1.201512,0.4106216,-1.566176,0.2323414,11.14058,16.22027,-0.2312554,-0.1488512,0.9458026,-0.7493991,-3.403645,-0.60658,0.2817301,1.394499,0.3418503,-0.4647857,-0.1236899,-0.3556275,-0.9683871,0.6601489,-0.2899956,0.4440103,1.493165,0.2142036,0.009680107,1.186786,0.2855898,275.2436,246.2661,1.087564,True
7,0.4444444,-1.951051,-0.163256,0.08120582,-1.464493,-4.605525,-2.701298,0.2808737,1.204086,0.4095855,-1.565444,0.0656254,11.11406,16.30598,-0.2019348,-0.2064138,1.005155,-0.7362277,-3.397505,-0.6099667,0.2820463,1.396294,0.3410673,-0.4671162,-0.1140742,-0.3769087,-0.9729609,0.6573937,-0.2832522,0.444813,1.493289,0.2135475,0.006714207,1.194992,0.2829565,274.1627,240.1664,6.769851,True
7,0.4555556,-2.026846,-0.09742557,0.07767586,-1.465527,-4.60615,-2.676337,0.277223,1.206727,0.4084649,-1.566577,-0.1031612,11.11406,16.30598,-0.1878815,-0.2383586,1.01992,-0.7243878,-3.39181,-0.6126655,0.282302,1.398178,0.3401403,-0.4629438,-0.09382242,-0.3833095,-0.9770893,0.6555632,-0.2771429,0.4456673,1.493419,0.2128291,0.003571546,1.203778,0.2808006,273.121,230.5226,16.18308,True
7,0.4666667,-2.090858,-0.05088544,0.05508801,-1.465739,-4.606598,-2.65113,0.2735642,1.209728,0.4072914,-1.565615,0.08974835,11.11406,16.22027,-0.1909571,-0.2756485,1.016669,-0.7126619,-3.387175,-0.6139641,0.2826425,1.400056,0.3392644,-0.4673629,-0.07995594,-0.399237,-0.9819368,0.6534701,-0.2706605,0.4465398,1.493429,0.2121067,0.0004263655,1.213205,0.2791277,272.1596,212.4989,34.09595,True
7,0.4777778,-2.173963,-0.04479796,0.03585942,-1.465334,-4.606433,-2.62387,0.2698364,1.212851,0.4061399,-1.567341,-0.1579414,11.14058,16.02742,-0.2203717,-0.3429315,1.04759,-0.698634,-3.383535,-0.613297,0.2828922,1.402062,0.3385215,-0.4781256,-0.07569344,-0.4097776,-0.9864413,0.6510748,-0.2634764,0.4476193,1.493429,0.2114544,-0.002843445,1.223399,0.2779224,271.6001,174.2711,72.33028,True
7,0.4888889,-2.252893,-0.01411311,0.03355145,-1.465845,-4.606849,-2.595848,0.2665169,1.216172,0.4048991,-1.568264,-0.0822492,11.16711,15.7703,-0.2520347,-0.3750573,1.077547,-0.6848904,-3.378271,-0.6135122,0.2833507,1.404025,0.3376241,-0.4942803,-0.09591677,-0.4309592,-0.9913244,0.6474292,-0.2553812,0.4485465,1.493382,0.2108064,-0.005942143,1.234257,0.2770662,272.1138,127.6969,119.0963,True
7,0.5,-2.287073,0.01996171,0.04829389,-1.467434,-4.607533,-2.568941,0.262993,1.21937,0.4037375,-1.567133,0.104644,11.19363,15.55603,-0.3187761,-0.3807426,1.135468,-0.6702553,-3.370638,-0.6135931,0.2839496,1.406115,0.3367939,-0.518001,-0.1214674,-0.464864,-0.9969245,0.6429479,-0.2463267,0.4495057,1.493416,0.210248,-0.00870191,1.245595,0.2763407,273.4875,106.3308,140.7479,True
7,0.5111111,-2.317071,0.082837,0.06822836,-1.470277,-4.609402,-2.541869,0.2598901,1.222742,0.4025829,-1.567232,-0.009359047,11.24668,15.36319,-0.3336434,-0.3733604,1.146231,-0.6572533,-3.363509,-0.6151047,0.2845998,1.408237,0.335907,-0.5266603,-0.1289051,-0.4796942,-1.00207,0.6395893,-0.238285,0.4506574,1.493523,0.2097139,-0.01105209,1.257294,0.2755152,275.0966,97.5768,149.7532,True
7,0.5222223,-2.351337,0.1529995,0.0583171,-1.472734,-4.612461,-2.514346,0.2566652,1.225999,0.401504,-1.569304,-0.1885739,11.32626,15.23462,-0.3140231,-0.3915563,1.208921,-0.6416492,-3.35544,-0.6187447,0.285336,1.410372,0.3350735,-0.52249,-0.1267575,-0.4893182,-1.007385,0.6364593,-0.2309227,0.451702,1.4936,0.2091713,-0.01287206,1.269292,0.274474,276.7619,92.972,154.4836,True
7,0.5333334,-2.384389,0.164608,0.05292593,-1.474366,-4.614078,-2.486538,0.2531847,1.22949,0.4004259,-1.570236,-0.08310864,11.43236,15.17034,-0.2451934,-0.4064623,1.307553,-0.6240905,-3.344376,-0.6272799,0.2861501,1.412608,0.3342273,-0.5196792,-0.1341386,-0.5319603,-1.014188,0.6327706,-0.2234027,0.4528238,1.493534,0.2085938,-0.01419422,1.281461,0.2732198,278.5388,89.91531,157.4842,True
7,0.5444446,-2.366286,0.1668013,0.05611664,-1.476152,-4.615237,-2.460633,0.2496505,1.233105,0.3994305,-1.570591,-0.03140049,11.53846,15.17034,-0.1959537,-0.4351305,1.334875,-0.6081445,-3.336658,-0.6327322,0.2869669,1.414938,0.3335335,-0.5308192,-0.1436691,-0.5851276,-1.021739,0.6284862,-0.2147712,0.4539768,1.493719,0.2082512,-0.0150567,1.293651,0.2718796,280.3761,87.98762,159.2227,True
7,0.5555557,-2.366314,0.1795083,0.04007602,-1.477584,-4.617151,-2.433974,0.2461788,1.236848,0.3984342,-1.570744,-0.01346354,11.64456,15.2132,-0.1967351,-0.5022687,1.344316,-0.5912244,-3.331708,-0.6347053,0.2876644,1.417213,0.3327649,-0.5619654,-0.136213,-0.6114644,-1.029067,0.6250958,-0.2056762,0.4552253,1.493741,0.2078474,-0.01572813,1.30578,0.2705857,282.2789,86.97064,160.0109,True
7,0.5666668,-2.366311,0.1805268,0.04009227,-1.479231,-4.618136,-2.40766,0.2432114,1.240532,0.3974066,-1.573075,-0.212697,11.75066,15.34176,-0.2188445,-0.5258591,1.372097,-0.5741376,-3.323981,-0.6379437,0.2884685,1.419332,0.3317661,-0.5750141,-0.1063367,-0.6368677,-1.036745,0.6233588,-0.1981536,0.4566351,1.493463,0.2071428,-0.0164025,1.31782,0.2693606,284.116,86.26539,160.5296,True
7,0.577778,-2.368418,0.1719815,0.03586975,-1.480519,-4.61914,-2.381271,0.2399599,1.244464,0.3964698,-1.572971,0.01155117,11.85676,15.51318,-0.2623711,-0.5281901,1.395794,-0.5574864,-3.314756,-0.6412895,0.2892698,1.421572,0.3310263,-0.5840513,-0.06686531,-0.6878706,-1.045967,0.6219122,-0.190672,0.4579317,1.493409,0.2067652,-0.01704976,1.329619,0.268241,285.887,85.67076,160.9797,True
7,0.5888891,-2.36413,0.163308,0.008233383,-1.480982,-4.620668,-2.354902,0.2369286,1.248409,0.3954642,-1.573422,-0.04137124,11.98939,15.72745,-0.2817131,-0.5409675,1.366053,-0.542307,-3.308363,-0.6428839,0.2903405,1.423826,0.3302956,-0.5833613,-0.05083664,-0.7262065,-1.054978,0.619738,-0.183083,0.4592073,1.493565,0.2066226,-0.01760756,1.341064,0.2672708,287.4985,85.23682,161.3323,True
7,0.6000003,-2.359888,0.1727889,-0.01631302,-1.481813,-4.622954,-2.328768,0.23381,1.252384,0.3945713,-1.573608,-0.01647534,12.09549,15.96315,-0.2838979,-0.5356459,1.360746,-0.5270737,-3.300162,-0.6467566,0.2913578,1.426117,0.3295267,-0.5867498,-0.04548797,-0.7464099,-1.063677,0.6175475,-0.1754195,0.4605189,1.493537,0.206275,-0.01788257,1.352093,0.2664436,288.9471,84.84019,161.7152,True
7,0.6111114,-2.343886,0.1642136,-0.03759468,-1.482084,-4.624908,-2.303191,0.2309867,1.256642,0.393672,-1.573859,-0.02278476,12.20159,16.22027,-0.2717997,-0.520853,1.431022,-0.5093732,-3.286089,-0.6563752,0.2924586,1.428341,0.3287492,-0.5880458,-0.05292577,-0.7698336,-1.072496,0.6146747,-0.1673259,0.4619671,1.49353,0.2058995,-0.01804338,1.362904,0.2656783,290.3156,84.60139,161.9695,True
7,0.6222225,-2.293709,0.1227753,-0.04164542,-1.481654,-4.625216,-2.279621,0.227984,1.260753,0.3929665,-1.574323,-0.04209965,12.30769,16.47739,-0.2267048,-0.4825341,1.509668,-0.4915354,-3.267456,-0.6717613,0.2937902,1.430438,0.327971,-0.5808148,-0.06247279,-0.7954809,-1.081916,0.6117036,-0.1597705,0.4634233,1.493484,0.2055776,-0.0180604,1.373574,0.2649491,291.6708,84.59367,161.9875,True
7,0.6333337,-2.274507,0.1141896,-0.06825927,-1.481235,-4.627106,-2.254899,0.2255258,1.264904,0.3921559,-1.574979,-0.05953147,12.44032,16.75595,-0.1753384,-0.5079918,1.535946,-0.4735947,-3.254059,-0.6833136,0.2950943,1.432792,0.3273487,-0.5616268,-0.0943246,-0.7988974,-1.090476,0.6083896,-0.1529437,0.4650504,1.493023,0.2049003,-0.01795512,1.384209,0.2642983,293.0118,84.63126,161.9211,True
7,0.6444448,-2.251095,0.1248347,-0.08215283,-1.481694,-4.629304,-2.230604,0.222821,1.268948,0.391346,-1.576871,-0.1725737,12.57294,17.05592,-0.1459864,-0.6049623,1.580292,-0.4525414,-3.244501,-0.691191,0.29639,1.435097,0.3266699,-0.5593943,-0.1337245,-0.7968733,-1.098885,0.6038051,-0.1448858,0.4665185,1.493046,0.204747,-0.01760156,1.394811,0.26373,294.3445,84.6341,161.9163,True
7,0.655556,-2.179749,0.1387861,-0.101388,-1.482287,-4.632078,-2.208533,0.220538,1.273125,0.3905618,-1.575926,0.08773849,12.70557,17.33447,-0.1458583,-0.6965091,1.550254,-0.4331594,-3.239294,-0.6944342,0.2975533,1.437411,0.3261111,-0.5849898,-0.1657176,-0.8019868,-1.107267,0.5991621,-0.1353576,0.4679543,1.492869,0.204443,-0.01688113,1.405204,0.2631856,295.7722,84.54613,162.0164,True
7,0.6666671,-2.157373,0.1377428,-0.1088332,-1.482623,-4.634145,-2.185167,0.2179172,1.27721,0.3897808,-1.576101,-0.01700981,12.78515,17.52732,-0.1501426,-0.7752399,1.493649,-0.4148566,-3.236669,-0.6952488,0.2989155,1.439651,0.3254857,-0.6042161,-0.1699938,-0.809285,-1.116263,0.5955753,-0.1264227,0.4694079,1.492752,0.2041848,-0.01583769,1.415382,0.2626358,297.1882,84.56792,161.9967,True
7,0.6777782,-2.023077,0.1198587,-0.1268301,-1.481764,-4.636094,-2.167532,0.2159335,1.281404,0.3887675,-1.57821,-0.1927252,12.78515,17.57017,-0.1510794,-0.880622,1.456128,-0.3948115,-3.238846,-0.6916842,0.2999792,1.441854,0.3248324,-0.6492193,-0.1402062,-0.8322589,-1.126093,0.5935103,-0.1166915,0.4708562,1.492598,0.2039385,-0.01461879,1.425449,0.2621159,298.5946,84.6008,161.9166,True
7,0.6888894,-1.910138,0.1212418,-0.1321931,-1.481902,-4.638454,-2.150149,0.214172,1.285471,0.3879197,-1.5768,0.1303123,12.7321,17.46304,-0.1372499,-0.8720353,1.452888,-0.3766253,-3.22935,-0.6994686,0.3011794,1.443877,0.3238721,-0.6685205,-0.08056168,-0.8394685,-1.135618,0.5933605,-0.1088535,0.4723147,1.492576,0.2037151,-0.01323168,1.435304,0.2616977,300.0283,84.63877,161.8349,True
7,0.7000005,-1.819622,0.1352961,-0.1375591,-1.482613,-4.640956,-2.132756,0.2125503,1.289352,0.3872006,-1.581903,-0.4681829,12.62599,17.24877,-0.08238399,-0.7758944,1.418682,-0.3620301,-3.214079,-0.7144864,0.3021573,1.445646,0.3230262,-0.6673408,-0.04435328,-0.8245332,-1.144367,0.593044,-0.1015035,0.4736922,1.492405,0.2034681,-0.0118131,1.444978,0.2613305,301.3937,84.58925,161.9232,True
7,0.7111117,-1.778077,0.1438985,-0.1365251,-1.48331,-4.643091,-2.114529,0.2109453,1.293085,0.3862512,-1.582091,-0.01354763,12.49337,17.05592,-0.07112336,-0.7022508,1.380446,-0.3481114,-3.198764,-0.7284566,0.3031644,1.447638,0.3220677,-0.6446726,-0.01563892,-0.787405,-1.151667,0.5928805,-0.09507858,0.474943,1.492199,0.2032564,-0.01014986,1.454044,0.2609574,302.7488,84.5915,162.0361,True
7,0.7222228,-1.720461,0.1109376,-0.1544622,-1.482223,-4.64513,-2.097191,0.2095564,1.296734,0.3855045,-1.581205,0.08013126,12.41379,16.97022,-0.1166041,-0.6095693,1.311686,-0.3364936,-3.182795,-0.7405652,0.3039827,1.449269,0.3211162,-0.629562,-0.00712885,-0.7651613,-1.15942,0.5923331,-0.08835383,0.476184,1.49199,0.2030389,-0.008421255,1.462388,0.2605771,303.9965,84.60803,162.0405,True
7,0.7333339,-1.649019,0.08665674,-0.1500824,-1.481534,-4.646576,-2.080803,0.208394,1.300118,0.3845646,-1.579495,0.155107,12.30769,16.97022,-0.199353,-0.4893402,1.258154,-0.3261914,-3.160405,-0.7566661,0.3050772,1.450947,0.3201067,-0.6122146,-0.001833111,-0.7312139,-1.166402,0.5916963,-0.08183681,0.4774518,1.491753,0.2027566,-0.00682704,1.470111,0.2602219,305.094,84.61216,162.0178,True
7,0.7444451,-1.605351,0.08895463,-0.1383611,-1.481932,-4.648111,-2.064152,0.2071197,1.303628,0.3838084,-1.579576,-0.009079497,12.28117,17.09878,-0.2210689,-0.413702,1.227583,-0.3151675,-3.136911,-0.7760127,0.3062109,1.452654,0.3191581,-0.5967092,-0.01258765,-0.667433,-1.17157,0.5904894,-0.07510034,0.4787169,1.491523,0.2024755,-0.005456889,1.477394,0.2598428,306.0047,84.63454,162.0571,True
7,0.7555562,-1.514787,0.08406581,-0.09782933,-1.482971,-4.648389,-2.05026,0.2064519,1.306848,0.382997,-1.579926,-0.03219295,12.30769,17.46304,-0.2242423,-0.3041324,1.291769,-0.30397,-3.097356,-0.8108721,0.3073808,1.454106,0.3183002,-0.582455,-0.0147578,-0.6238882,-1.177069,0.5898151,-0.06878252,0.4798873,1.491306,0.2021999,-0.004146157,1.484219,0.2593801,306.7749,84.76465,162.048,True
7,0.7666674,-1.451766,0.02161634,-0.0624785,-1.481343,-4.64781,-2.035922,0.2056638,1.310645,0.382082,-1.579132,0.07242494,12.36074,18.02014,-0.2133646,-0.3169395,1.321512,-0.2899708,-3.06711,-0.8378446,0.3085632,1.45573,0.3174436,-0.5649952,-0.02547914,-0.5771769,-1.182146,0.5886316,-0.06227855,0.4812037,1.490983,0.2018569,-0.002799002,1.490661,0.2587798,307.4583,84.8629,162.0237,True
7,0.7777785,-1.435591,-0.05713979,-0.05464073,-1.478393,-4.646668,-2.020429,0.2046355,1.314364,0.3812845,-1.581082,-0.1794291,12.36074,18.79152,-0.1911888,-0.3540314,1.269092,-0.277756,-3.045853,-0.8569378,0.3099009,1.457143,0.3166053,-0.5626208,-0.03190015,-0.5516387,-1.187412,0.5876812,-0.05567897,0.4824188,1.490724,0.2015617,-0.001398462,1.496957,0.2580802,308.0318,84.88004,161.9687,True
7,0.7888896,-1.407422,-0.2455394,-0.0409559,-1.470541,-4.642895,-2.005934,0.2036659,1.318064,0.3803422,-1.580129,0.08830364,12.33422,19.67002,-0.1743207,-0.4092249,1.207088,-0.2656003,-3.028966,-0.8718768,0.3112259,1.458744,0.3159354,-0.5453025,-0.04896542,-0.5251834,-1.192303,0.5861549,-0.04970444,0.4836565,1.490301,0.2011511,0.0002857347,1.503014,0.2573093,308.5907,84.78231,162.0508,True
7,0.8000008,-1.357075,-0.3582678,-0.02655384,-1.463483,-4.639276,-1.992835,0.2026736,1.321852,0.3794873,-1.578184,0.1764286,12.20159,20.50568,-0.1464736,-0.4730245,1.19612,-0.251559,-3.008297,-0.8912359,0.3123861,1.460345,0.3152161,-0.5261931,-0.04254434,-0.531746,-1.198489,0.5855404,-0.04423617,0.4848681,1.489961,0.2008097,0.002105387,1.509125,0.2562577,309.2216,84.76465,162.1094,True
7,0.8111119,-1.225846,-0.4534815,0.02394591,-1.457016,-4.634651,-1.984301,0.2022642,1.325876,0.3793044,-1.578255,-0.008253494,12.06897,21.29848,-0.07812595,-0.5547693,1.173158,-0.2367731,-2.990064,-0.9106051,0.3134178,1.461707,0.3144858,-0.529727,-0.02121678,-0.5646898,-1.205684,0.5856677,-0.03830105,0.486046,1.489627,0.2005024,0.004110949,1.515296,0.2547446,309.9613,84.79894,162.0983,True
7,0.8222231,-1.079959,-0.4400406,0.086795,-1.454398,-4.629888,-1.978431,0.2014904,1.328831,0.378124,-1.579234,-0.08961032,11.96286,22.027,0.01343405,-0.6140237,1.130913,-0.2233476,-2.97447,-0.9291369,0.3141646,1.462978,0.3136253,-0.5437596,-0.006281719,-0.5837255,-1.212754,0.585919,-0.03203543,0.4871852,1.48933,0.2001953,0.006483129,1.521274,0.252474,310.7848,84.87762,161.9425,True
7,0.8333342,-0.7644558,-0.09470037,0.1725836,-1.466405,-4.6305,-1.981233,0.2015642,1.329736,0.3766685,-1.583152,-0.3578224,11.88329,22.73409,0.03745294,-0.6244154,1.045518,-0.2124585,-2.961717,-0.9428362,0.3147029,1.464146,0.3126276,-0.5908922,0.01283631,-0.6088149,-1.220056,0.5863566,-0.02415221,0.4882502,1.489035,0.1998749,0.009205195,1.527001,0.2494264,311.5515,85.04065,161.3059,True
7,0.8444453,-0.6895872,0.2260928,0.1614937,-1.47888,-4.634941,-1.974861,0.2011465,1.330509,0.3746281,-1.585257,-0.1902051,11.85676,23.41975,0.0008718967,-0.5733376,1.014964,-0.202772,-2.933848,-0.9686854,0.3151997,1.465151,0.3116152,-0.6355275,0.0202086,-0.5966651,-1.226117,0.5865905,-0.01582397,0.4893045,1.488711,0.1996233,0.01226934,1.532184,0.2459193,312.3555,85.14104,160.3652,True
7,0.8555565,-0.7695605,0.7228576,0.04723656,-1.500272,-4.647342,-1.962886,0.2014996,1.32978,0.3723137,-1.593274,-0.732878,11.96286,24.04114,-0.1751658,-0.3532032,0.9185551,-0.2014095,-2.894165,-0.9996242,0.3153203,1.46547,0.3104441,-0.6435856,0.02654201,-0.5465158,-1.230621,0.5871342,-0.008643289,0.4900446,1.488385,0.1994581,0.01537976,1.536454,0.2424209,313.3094,84.96527,159.4859,True
7,0.8666676,-1.02152,1.466476,-0.06627417,-1.533934,-4.666512,-1.942549,0.2020038,1.330031,0.3720593,-1.583652,0.8842834,12.17507,24.51253,-0.2770812,-0.2245325,0.8715491,-0.1980843,-2.854259,-1.032555,0.315845,1.465906,0.3093679,-0.6024544,0.05203918,-0.4733372,-1.233433,0.5884619,-0.003767041,0.4906868,1.487987,0.1993825,0.01797366,1.539273,0.2399755,314.485,84.55429,158.823,True
7,0.8777788,-1.249064,1.718841,0.02081847,-1.560369,-4.673247,-1.921485,0.2021408,1.330369,0.3707356,-1.576277,0.6646392,12.49337,24.76966,-0.4096126,0.01815453,0.7631892,-0.2030245,-2.813282,-1.063519,0.315984,1.46578,0.3085046,-0.5465767,0.07760438,-0.4184275,-1.236199,0.5902614,-0.0002530003,0.4912758,1.487642,0.1992829,0.01898959,1.541528,0.2391147,315.2672,84.33723,158.489,True
7,0.8888899,-1.518758,1.816777,0.1137869,4.701071,-4.676058,-1.896482,0.2022513,1.331422,0.3698905,-1.567106,0.8327407,12.81167,24.85537,-0.4793045,0.1887184,0.610624,-0.2082475,-2.786609,-1.082359,0.3165793,1.466101,0.3080115,-0.4296485,0.1159677,-0.3278347,-1.236695,0.5928935,-0.0005552691,0.4919082,1.487331,0.199182,0.0183622,1.544,0.2408268,315.2588,84.53778,158.0417,True
7,0.900001,-1.50689,1.728755,0.191982,4.683843,-4.676639,-1.880154,0.2020896,1.332712,0.3687382,-1.565027,0.1837431,13.10345,24.7268,-0.4225918,0.1913297,0.4813697,-0.2093974,-2.776641,-1.08928,0.3173133,1.466534,0.3079274,-0.3191746,0.1404983,-0.2446694,-1.236608,0.5954733,-0.001577124,0.4925302,1.487036,0.1990697,0.01642746,1.54828,0.2463807,314.4057,84.47375,158.4527,True
7,0.9111122,-1.284739,1.430788,0.3756797,4.676023,-4.668332,-1.87462,0.2018774,1.334297,0.3666883,-1.561664,0.3090593,13.28912,24.1697,-0.332889,0.04367997,0.4315045,-0.2037414,-2.770304,-1.094996,0.3183064,1.466987,0.3076713,-0.2571211,0.1138875,-0.2197095,-1.238575,0.5955185,-0.0002740393,0.4935206,1.486682,0.1987932,0.01485369,1.554063,0.255302,313.552,83.10243,161.6851,True
7,0.9222233,-1.022241,1.234521,0.4236712,4.666841,-4.664951,-1.872014,0.2021515,1.335969,0.3650331,-1.570442,-0.8048381,13.39523,23.09835,-0.2017365,-0.3127505,0.4288304,-0.18769,-2.783246,-1.084255,0.3195913,1.4678,0.3074985,-0.2474595,0.0563672,-0.2187915,-1.241032,0.5941297,0.002920422,0.4945275,1.486308,0.1985273,0.01504301,1.560965,0.2660102,313.3294,80.9136,166.8141,True
7,0.9333345,-0.8846871,1.17715,0.3931246,4.655284,-4.665121,-1.867057,0.2024795,1.337363,0.3638253,-1.582011,-1.051294,13.39523,21.57703,-0.07062721,-0.6138307,0.4475826,-0.1699182,-2.800435,-1.071038,0.321372,1.468634,0.3073351,-0.2700212,-0.04056244,-0.2517223,-1.24497,0.5901192,0.008004664,0.4957204,1.485884,0.1981866,0.01779452,1.567934,0.2765054,314.4666,78.53801,172.4953,True
7,0.9444456,-0.7728676,1.235156,0.2235285,4.641602,-4.67301,-1.862521,0.202867,1.337736,0.360862,-1.584101,-0.183853,13.31565,19.6486,0.07186407,-0.7242908,0.5167726,-0.1563499,-2.787787,-1.088646,0.3229213,1.469612,0.3066823,-0.3099031,-0.1278789,-0.312175,-1.250478,0.5859241,0.01421729,0.4969705,1.485545,0.1978719,0.02283002,1.57373,0.2845217,316.8745,76.47451,177.3497,True
7,0.9555568,-0.7868646,1.374073,0.08428714,4.623695,-4.682383,-1.853922,0.2034985,1.338578,0.3602743,-1.579028,0.4617205,13.20955,17.50589,0.14276,-0.717886,0.6143487,-0.145178,-2.749642,-1.130183,0.3241393,1.47045,0.3062367,-0.3349177,-0.1629918,-0.3716432,-1.25671,0.5828183,0.01976918,0.4981562,1.485175,0.197566,0.02870331,1.57829,0.2889926,319.604,75.7161,179.588,True
7,0.9666679,-0.782375,1.305307,-0.03466859,4.613266,-4.688986,-1.846044,0.2038285,1.339439,0.3596163,-1.575693,0.298324,13.0504,16.60596,0.2113475,-0.6667467,0.7088474,-0.1358558,-2.691942,-1.191545,0.3252624,1.470955,0.3057437,-0.3711388,-0.1501063,-0.4842254,-1.265873,0.5819737,0.02528059,0.4994607,1.484788,0.1972528,0.03397772,1.581969,0.2901818,321.8931,75.91695,179.5922,True
7,0.977779,-0.7479981,1.189073,-0.07457006,4.604756,-4.693571,-1.839277,0.2038935,1.340592,0.3593252,-1.568592,0.6445142,12.89124,17.3559,0.2065005,-0.5484473,0.6793145,-0.1315666,-2.65103,-1.234254,0.325966,1.471369,0.3052576,-0.3843334,-0.1159795,-0.5245491,-1.272924,0.5820591,0.02983593,0.5005857,1.484466,0.1970971,0.03768186,1.584861,0.2891097,323.3575,76.75375,178.0956,True
7,0.9888902,-0.6642245,0.8897611,-0.09859905,4.605401,-4.694581,-1.835153,0.2039137,1.341439,0.3594887,-1.566469,0.187371,12.70557,19.71288,0.1695706,-0.4408401,0.623341,-0.1289955,-2.619214,-1.266084,0.3268279,1.471735,0.3051317,-0.394131,-0.05525005,-0.5371507,-1.278984,0.5838599,0.03402029,0.5014293,1.48421,0.1970508,0.03939188,1.587595,0.2875285,323.6633,77.5444,175.9972,True
7,1.000001,-0.5901796,0.6544918,-0.09955832,4.606498,-4.695403,-1.83124,0.2038933,1.34272,0.3596582,-1.565349,0.09952492,12.54642,23.86972,0.1086913,-0.34378,0.4801192,-0.1287766,-2.61819,-1.266102,0.3270743,1.472209,0.3049529,-0.3649172,0.005438074,-0.4808846,-1.282284,0.5860811,0.03643684,0.5022436,1.483909,0.1970334,0.03949225,1.590044,0.286388,323.3574,78.04538,174.5654,True
7,1.011112,-0.4797063,0.3277113,-0.09572639,4.613212,-4.693882,-1.829645,0.2044742,1.343685,0.3603642,-1.565786,-0.04271219,12.38727,29.69788,0.04713777,-0.3213736,0.3516517,-0.1253337,-2.628003,-1.25535,0.327543,1.472869,0.3050363,-0.3294522,0.0405957,-0.442822,-1.285842,0.5879055,0.03837855,0.5029544,1.483663,0.197001,0.03855662,1.591965,0.2860406,322.7991,78.22221,174.0721,True
7,1.022224,-0.3917861,0.0849251,-0.1158278,4.620934,-4.69378,-1.828337,0.2047539,1.344794,0.3609953,-1.56333,0.2227375,12.22811,36.01886,0.05504182,-0.2700502,0.2792799,-0.1237475,-2.62415,-1.260176,0.3280286,1.473255,0.3049219,-0.2769325,0.07470825,-0.40492,-1.288997,0.5901311,0.03893435,0.5034996,1.48341,0.197021,0.03720538,1.59286,0.2861575,322.2339,78.21807,174.2749,True
7,1.033335,-0.3510002,-0.04400846,-0.1407543,4.625663,-4.69502,-1.825692,0.2052394,1.345664,0.3615804,-1.562646,0.05821501,12.06897,42.40411,0.06450713,-0.2540032,0.2632874,-0.1208569,-2.608271,-1.277432,0.3296372,1.47367,0.3045888,-0.2585647,0.08748333,-0.3752516,-1.292218,0.5917193,0.04083904,0.5041764,1.483208,0.1970084,0.03569586,1.593077,0.2864321,321.5619,78.09941,174.7364,True
7,1.044446,-0.2952982,-0.1666273,-0.1902108,4.632859,-4.697153,-1.824622,0.2056461,1.34651,0.362186,-1.559614,0.2743498,11.85676,48.40369,0.1092271,-0.1804266,0.2972637,-0.1202886,-2.56885,-1.319541,0.3301425,1.474085,0.3042898,-0.2450939,0.07995053,-0.301874,-1.293062,0.5923538,0.04309927,0.5046241,1.482979,0.1969526,0.03442691,1.592582,0.2864468,320.8887,78.05336,175.1094,True
7,1.055557,-0.2492881,-0.2486918,-0.2206309,4.637819,-4.698857,-1.82369,0.2061931,1.347332,0.3628218,-1.554694,0.4451248,11.61804,52.56053,0.1414271,-0.1729459,0.3386259,-0.1175093,-2.527942,-1.362909,0.3307215,1.474298,0.3040917,-0.2383235,0.06180118,-0.263607,-1.294659,0.5925047,0.04547428,0.5051539,1.482734,0.1969228,0.03332596,1.591955,0.2860119,320.3167,78.23322,175.0737,True
7,1.066668,-0.2097119,-0.3125771,-0.2309349,4.643578,-4.699914,-1.823021,0.2063198,1.348073,0.3631806,-1.552638,0.1820068,11.29973,54.70324,0.1785536,-0.1334027,0.3363602,-0.1165421,-2.495744,-1.398007,0.3311509,1.474324,0.3041558,-0.2262556,0.0223657,-0.231812,-1.296247,0.5914251,0.04782771,0.5055996,1.482441,0.1968458,0.03242757,1.591582,0.2852734,319.8025,78.5565,174.6715,True
7,1.077779,-0.1883119,-0.3551093,-0.2243325,4.649375,-4.700712,-1.82176,0.2066605,1.34876,0.3636203,-1.549477,0.2851186,10.92838,54.8318,0.1791795,-0.1311143,0.2681808,-0.1151189,-2.492032,-1.403722,0.3316461,1.474319,0.3041015,-0.2155971,0.001078837,-0.2330014,-1.298971,0.5908374,0.05008154,0.5061134,1.482219,0.1967537,0.0317985,1.59146,0.284332,319.4454,79.02923,174.0269,True
7,1.08889,-0.1582826,-0.4390597,-0.1962672,4.657651,-4.700406,-1.821269,0.2070814,1.349656,0.3630962,-1.546161,0.2981697,10.50398,53.07478,0.1575621,-0.1395932,0.2150372,-0.1130379,-2.48912,-1.407514,0.3320956,1.474298,0.3042235,-0.1921835,-0.0244506,-0.2385811,-1.302059,0.5899155,0.05169329,0.5066221,1.481906,0.1966858,0.03141578,1.591576,0.2833548,319.2498,79.42889,173.3836,True
7,1.100002,-0.1369602,-0.4630967,-0.1087877,4.663301,-4.697228,-1.820283,0.2073315,1.349837,0.3631649,-1.541896,0.3848265,10.02653,49.94643,0.1199281,-0.1321485,0.1641572,-0.1118299,-2.491135,-1.405488,0.3324154,1.474206,0.3041983,-0.1718512,-0.03615302,-0.2302699,-1.304447,0.5892934,0.05315936,0.5070384,1.481592,0.1966827,0.03118319,1.59179,0.2823504,319.2388,79.74412,172.8886,True
7,1.111113,-0.1125094,-0.438351,-0.06519743,4.666637,-4.695193,-1.819942,0.2074514,1.350147,0.3633034,-1.538772,0.2796434,9.549072,46.58239,0.07154152,-0.0661884,0.1305335,-0.113325,-2.483695,-1.411889,0.3327833,1.474234,0.304213,-0.157919,-0.0425394,-0.2218812,-1.306594,0.5887347,0.05462063,0.5073975,1.481266,0.1967075,0.03106039,1.591965,0.28124,319.2353,79.96692,172.6338,True
7,1.122224,-0.09992591,-0.3581831,-0.01443871,4.667456,-4.693373,-1.819201,0.207683,1.35012,0.3631155,-1.534445,0.3903747,9.124667,43.23977,0.04046372,-0.03111726,0.1212204,-0.1139066,-2.472979,-1.421993,0.333186,1.474209,0.3042891,-0.1428299,-0.04360508,-0.2039159,-1.308302,0.5883437,0.05574502,0.5077173,1.481024,0.1968093,0.03104011,1.591912,0.2797226,319.2287,80.13191,172.5064,True
7,1.133335,-0.1096869,-0.280283,0.02036472,4.667426,-4.691734,-1.81772,0.2079455,1.350058,0.3629253,-1.530618,0.3432758,8.726789,39.98286,0.03822334,-0.04704802,0.09563233,-0.1125825,-2.472281,-1.423132,0.333688,1.474119,0.3042696,-0.117086,-0.03081479,-0.1828289,-1.309549,0.5885916,0.05621241,0.508004,1.480768,0.1968493,0.03106286,1.591504,0.2778078,319.19,80.16486,172.1413,True
7,1.144446,-0.1281722,-0.1172705,0.03343493,4.662885,-4.692085,-1.815639,0.2082101,1.349943,0.3624859,-1.525541,0.4579094,8.408487,36.94022,0.03381995,-0.06936398,0.06259077,-0.1110959,-2.478376,-1.417159,0.3342797,1.4742,0.3043561,-0.09267093,-0.03077106,-0.1915769,-1.311969,0.5884473,0.05657593,0.5083239,1.480546,0.1969569,0.03087945,1.590973,0.275755,319.1067,80.22177,171.5245,True
7,1.155557,-0.1348482,0.009606954,0.05410639,4.658397,-4.692475,-1.814025,0.2086381,1.350288,0.3620286,-1.519723,0.5243438,8.143235,34.41183,0.0342212,-0.1280271,0.09441527,-0.1073456,-2.463467,-1.432369,0.3347363,1.474249,0.3043931,-0.06823134,-0.03819064,-0.199272,-1.3145,0.5879008,0.05668245,0.5086123,1.480295,0.197052,0.03039902,1.590332,0.2738907,318.924,80.25005,170.9265,True
7,1.166668,-0.114741,0.06723814,0.06662369,4.655413,-4.691977,-1.813388,0.2086904,1.350321,0.3616993,-1.513608,0.5509018,8.037136,32.74052,0.03016917,-0.1526021,0.1082887,-0.1042649,-2.441635,-1.454776,0.3357166,1.474626,0.3044274,-0.05655582,-0.04561839,-0.2047245,-1.317113,0.5873557,0.05718659,0.5089527,1.48004,0.1971552,0.0295641,1.589736,0.2724946,318.6208,80.23888,170.4731,True
7,1.17778,-0.1041656,0.0992964,0.08245504,4.652926,-4.691076,-1.812564,0.2086953,1.350372,0.3614011,-1.508345,0.4724227,8.037136,32.03343,0.01726393,-0.1526027,0.08919501,-0.1024939,-2.440446,-1.455708,0.3359174,1.474705,0.3044248,-0.06405109,-0.02751235,-0.2067634,-1.319456,0.5878472,0.05803188,0.5092261,1.47985,0.1972761,0.02835398,1.589442,0.2719056,318.1946,80.13638,170.2937,True
7,1.188891,-0.1084713,0.1217162,0.09302907,4.650864,-4.689921,-1.811272,0.2086763,1.350072,0.3610039,-1.503425,0.4417555,8.143235,32.22627,0.003172189,-0.1334046,0.05737141,-0.1018627,-2.445182,-1.450898,0.3359712,1.474572,0.3045084,-0.07155205,-0.008344237,-0.2088013,-1.321851,0.5885931,0.05892989,0.5095007,1.479578,0.1974158,0.02691703,1.589438,0.2722221,317.7728,79.92701,170.5342,True
7,1.200002,-0.1277284,0.1568784,0.1035086,4.647594,-4.689146,-1.809098,0.208624,1.350119,0.3606617,-1.496896,0.5885338,8.381961,33.16906,-0.02495628,-0.07908376,0.01932222,-0.1030846,-2.455947,-1.438901,0.3361067,1.474588,0.3044562,-0.07369336,0.01083039,-0.2076915,-1.324012,0.5896051,0.05955441,0.50971,1.479421,0.1975052,0.02541633,1.589317,0.2732392,317.5481,79.59747,171.1664,True
7,1.211113,-0.1288582,0.183579,0.1182956,4.64422,-4.688046,-1.807561,0.2086041,1.350153,0.3603437,-1.48956,0.6607968,8.647213,34.58324,-0.05485534,-0.04086439,0.02812359,-0.1037365,-2.447548,-1.445735,0.3361802,1.474327,0.3045452,-0.06731819,0.02042728,-0.2077382,-1.326319,0.5903352,0.05995202,0.5099227,1.479292,0.1976075,0.02387703,1.588886,0.2746155,317.4247,79.15676,172.0702,True
7,1.222224,-0.1417562,0.2358168,0.1319029,4.639343,-4.687097,-1.805532,0.2086185,1.350249,0.3599293,-1.481491,0.7271023,8.912464,35.86887,-0.06315654,-0.05374013,0.05584578,-0.1025024,-2.433291,-1.458912,0.3365031,1.474347,0.3045902,-0.04362216,0.01084062,-0.1813401,-1.327459,0.5902613,0.05964469,0.5101377,1.479072,0.1976235,0.02227105,1.588117,0.2760027,317.2722,78.68337,173.0313,True
7,1.233335,-0.1332488,0.238972,0.1170095,4.636172,-4.686725,-1.804106,0.2088501,1.35009,0.3600223,-1.474729,0.6070276,9.204244,36.87594,-0.03404736,-0.0846352,0.09289284,-0.09971727,-2.408202,-1.484723,0.3366466,1.474258,0.3047299,-0.0104785,-0.01683133,-0.1720966,-1.329121,0.5892001,0.05888409,0.5103032,1.478941,0.1976895,0.02048607,1.587388,0.2772143,316.9605,78.21718,173.8769,True
7,1.244446,-0.1406678,0.2239611,0.09685403,4.633898,-4.686816,-1.802277,0.2088941,1.350714,0.3611405,-1.466766,0.7177752,9.496022,37.45446,0.004465625,-0.1377595,0.0893298,-0.09626209,-2.401863,-1.492474,0.3369962,1.474276,0.3047919,0.001289986,-0.03173251,-0.1690311,-1.33101,0.5884699,0.05860552,0.5104852,1.4788,0.1977663,0.01859403,1.586753,0.2781473,316.5644,77.76035,174.5806,True
7,1.255558,-0.1853573,0.2056712,0.08202682,4.632268,-4.686604,-1.798909,0.2087016,1.35123,0.3607817,-1.459523,0.6507891,9.70822,37.26162,0.00767751,-0.1803202,0.07110263,-0.09273925,-2.404508,-1.489804,0.3369805,1.474272,0.3050315,-0.01464093,-0.04028295,-0.1667608,-1.332717,0.5878369,0.05952804,0.5105671,1.478677,0.1977882,0.01669802,1.586199,0.2788092,316.1237,77.34247,175.1057,True
7,1.266669,-0.2044962,0.192839,0.08424918,4.630169,-4.685509,-1.796193,0.2086637,1.351745,0.3607032,-1.451214,0.7487962,9.920423,36.2117,0.001105994,-0.1898495,0.03809199,-0.09062098,-2.415554,-1.478462,0.3368483,1.474318,0.3051195,-0.03597094,-0.03923051,-0.1665594,-1.33458,0.5876979,0.0606756,0.5106978,1.47859,0.1978383,0.0149094,1.585595,0.2792941,315.6683,77.15542,175.2012,True
7,1.27778,-0.188425,0.1523741,0.08018257,4.629692,-4.684824,-1.794548,0.2086411,1.352179,0.3606405,-1.441741,0.854394,10.1061,34.36897,0.004288226,-0.1632359,0.05091291,-0.08960046,-2.405993,-1.488064,0.3369718,1.474412,0.3050983,-0.05099089,-0.02857528,-0.1770609,-1.33692,0.5879571,0.0616093,0.5108067,1.478474,0.1978705,0.01306273,1.585305,0.2798052,315.2455,77.05015,175.164,True
7,1.288891,-0.1606594,0.1247416,0.0835398,4.62893,-4.683574,-1.793864,0.2086932,1.352537,0.3604391,-1.434463,0.6529517,10.26525,31.7763,0.0170123,-0.1195446,0.06584445,-0.08973468,-2.392009,-1.502571,0.3370894,1.474509,0.3050258,-0.0456005,-0.0253776,-0.1696564,-1.338634,0.5879364,0.06192329,0.5109106,1.478345,0.1979487,0.01122462,1.585304,0.2802327,314.9117,76.79177,175.5222,True
7,1.300002,-0.1360548,0.08102001,0.06244448,4.629493,-4.683408,-1.79325,0.2086251,1.35297,0.3603232,-1.427723,0.6055599,10.45093,28.64795,0.001029253,-0.1057662,0.07343293,-0.08898047,-2.381277,-1.512695,0.3372384,1.474659,0.3049209,-0.03585612,-0.01260451,-0.1516214,-1.339725,0.5882857,0.06189799,0.5109924,1.478247,0.1980205,0.009580051,1.585372,0.2804754,314.6302,76.47749,175.9711,True
7,1.311113,-0.1456158,0.07457493,0.05396468,4.628523,-4.683187,-1.791376,0.208411,1.353303,0.3602319,-1.420855,0.6174741,10.6366,25.60531,-0.04236819,-0.08792335,0.1270154,-0.08845902,-2.34677,-1.545108,0.3374862,1.474726,0.3048618,-0.02824852,-0.007291092,-0.1346374,-1.340603,0.5884507,0.06196563,0.5110143,1.478147,0.1980832,0.008194454,1.585248,0.2804211,314.4288,76.26952,176.2742,True
7,1.322224,-0.1818291,0.07131129,0.0571689,4.627663,-4.682591,-1.788072,0.208283,1.353687,0.3601446,-1.41283,0.7229403,10.79576,23.03407,-0.02519342,-0.09004272,0.1471394,-0.08727392,-2.32254,-1.569515,0.3377031,1.474851,0.3049109,-0.01225986,-0.005141039,-0.1337194,-1.342059,0.5885987,0.0615089,0.5110905,1.478034,0.1981356,0.006958478,1.584849,0.2800334,314.2906,76.13049,176.4049,True
7,1.333336,-0.2009939,0.07021869,0.06572314,4.62673,-4.681271,-1.785276,0.2082354,1.354084,0.3599045,-1.403575,0.8347916,10.8488,21.01993,0.01101691,-0.08884579,0.1458432,-0.08638868,-2.304033,-1.58927,0.3378915,1.474858,0.3049448,-0.009083431,-0.00939408,-0.1358832,-1.343675,0.5884519,0.06160983,0.511129,1.477918,0.1981859,0.005610819,1.584281,0.2793646,314.1427,76.13697,176.2681,True
7,1.344447,-0.2201391,0.05959007,0.08177086,4.626062,-4.679619,-1.782205,0.2080963,1.354604,0.359652,-1.394289,0.8368033,10.82228,19.60574,0.01945378,-0.1175187,0.1180225,-0.08410423,-2.300966,-1.592659,0.3380803,1.475014,0.3050315,-0.01452979,-0.02429467,-0.150768,-1.345958,0.5877468,0.06210145,0.5111914,1.477801,0.1982594,0.003987139,1.583714,0.2786068,313.862,76.08388,176.0618,True
7,1.355558,-0.2350349,0.05108889,0.09352792,4.625545,-4.678236,-1.77898,0.2079786,1.355126,0.3595202,-1.387195,0.6367497,10.68966,18.79152,-0.002810821,-0.160193,0.1116753,-0.08088233,-2.2886,-1.604211,0.3382652,1.475239,0.3050685,-0.03159127,-0.03069703,-0.1527437,-1.347683,0.587376,0.06319281,0.5112508,1.477756,0.1983535,0.002164888,1.583259,0.2779006,313.3918,75.90112,176.0179,True
7,1.366669,-0.2499541,0.05645492,0.1127024,4.624301,-4.676289,-1.775749,0.2080777,1.355731,0.3592863,-1.379632,0.6812907,10.45093,18.57724,-0.002722651,-0.1793821,0.1169405,-0.07833688,-2.270926,-1.621635,0.3385239,1.47537,0.3051388,-0.04233652,-0.02217258,-0.1622245,-1.349795,0.5876163,0.06386393,0.5113288,1.477692,0.1984706,0.0003420031,1.582903,0.277272,312.8769,75.6299,176.1805,True
7,1.37778,-0.2573551,0.03195631,0.117078,4.624417,-4.674752,-1.772463,0.2079355,1.356461,0.3591306,-1.372235,0.6658657,10.2122,18.6201,-0.00172849,-0.1506302,0.1223191,-0.07764393,-2.251999,-1.64046,0.3387513,1.475583,0.305141,-0.04135864,-0.006182368,-0.1696706,-1.351932,0.5882444,0.06417499,0.5113863,1.477606,0.198595,-0.001367627,1.582689,0.2766939,312.412,75.35799,176.4054,True
7,1.388891,-0.2626561,0.02337798,0.109676,4.624263,-4.673595,-1.769359,0.2078644,1.35718,0.3589368,-1.36525,0.6285083,9.999999,18.81294,-0.0006256402,-0.1314862,0.1383331,-0.07702501,-2.22482,-1.667619,0.3390806,1.475765,0.3051155,-0.03279938,0.0002165977,-0.1654826,-1.353631,0.5885791,0.06408764,0.511399,1.477516,0.198806,-0.002845909,1.58261,0.2761711,312.0043,75.10905,176.5883,True
7,1.400002,-0.2754537,0.02970059,0.1011238,4.623615,-4.672827,-1.765738,0.2076502,1.358002,0.3587391,-1.358309,0.6248199,9.867373,19.02721,-0.01434091,-0.129458,0.1629227,-0.07588039,-2.189325,-1.702165,0.3392256,1.47611,0.3051388,-0.01893353,0.005557964,-0.1634765,-1.355386,0.5890023,0.06365621,0.5114613,1.477422,0.1989138,-0.004023224,1.582702,0.2757075,311.6874,74.84084,176.7922,True
7,1.411114,-0.2797274,0.03503707,0.1053597,4.622808,-4.671646,-1.762348,0.2074427,1.358862,0.3585622,-1.351839,0.5820271,9.840847,18.83437,-0.01710665,-0.1306872,0.2300527,-0.07511766,-2.123626,-1.767359,0.3395448,1.476406,0.3050754,-0.02967685,-0.00509023,-0.1740426,-1.357718,0.5887589,0.0644706,0.5115227,1.477263,0.199065,-0.004959819,1.583019,0.275261,311.5117,74.68681,176.9108,True
7,1.422225,-0.2871625,0.02545235,0.1096654,4.622583,-4.670287,-1.758769,0.2072196,1.359719,0.3584061,-1.344933,0.622478,9.8939,18.42726,-0.008449137,-0.1381635,0.2480896,-0.07401297,-2.076211,-1.814794,0.3399271,1.476661,0.3050206,-0.0510384,-0.01575137,-0.1813162,-1.360034,0.5884708,0.06578727,0.5115896,1.477125,0.1991227,-0.005712245,1.583533,0.2748304,311.4436,74.60624,176.934,True
7,1.433336,-0.315908,0.02217913,0.1107962,4.621976,-4.668462,-1.754308,0.2069162,1.360563,0.3582742,-1.338982,0.5347823,10.05305,17.87015,-0.009282827,-0.1308025,0.2885939,-0.0740199,-2.011945,-1.878764,0.3402778,1.476915,0.3049757,-0.06915336,-0.02855268,-0.1832945,-1.362205,0.5878444,0.06730447,0.511651,1.477027,0.1992283,-0.006400222,1.584288,0.2744601,311.4224,74.51791,176.9288,True
7,1.444447,-0.3627361,0.008283198,0.1182655,4.622169,-4.667511,-1.748868,0.2067401,1.361973,0.358083,-1.332983,0.5402922,10.26525,17.14163,-0.01883122,-0.1223393,0.3003903,-0.07419247,-1.961379,-1.92853,0.3406082,1.477254,0.3050435,-0.06278351,-0.02321602,-0.1854818,-1.364397,0.5879259,0.06768477,0.5117375,1.476913,0.1993952,-0.007030082,1.585182,0.2741606,311.4267,74.38246,176.9832,True
7,1.455558,-0.4042392,-0.01093727,0.1290064,4.62257,-4.665608,-1.742865,0.2065278,1.363124,0.3579154,-1.32656,0.5791756,10.5305,16.39169,-0.01778781,-0.1436074,0.2854206,-0.07302547,-1.915801,-1.973797,0.3410134,1.47763,0.3050241,-0.05211753,-0.02640146,-0.18452,-1.366445,0.5876514,0.06797239,0.511794,1.476815,0.199501,-0.007606816,1.586112,0.2738861,311.4424,74.23608,177.0811,True
7,1.466669,-0.4213091,0.001851797,0.1353594,4.621555,-4.663928,-1.737604,0.2063682,1.364042,0.3576975,-1.320159,0.5769951,10.74271,15.87744,0.001460165,-0.17123,0.2820393,-0.07167792,-1.86202,-2.02811,0.3413749,1.478006,0.3049655,-0.03398173,-0.02957681,-0.1825653,-1.368485,0.5873936,0.06772818,0.5119376,1.476757,0.1996255,-0.008188558,1.587172,0.2735981,311.4008,74.05084,177.2364,True
7,1.47778,-0.4352355,0.03587934,0.1288082,4.619833,-4.662962,-1.732176,0.2062695,1.365169,0.357492,-1.314741,0.4875323,10.82228,15.81315,0.01422653,-0.2116098,0.25736,-0.06944459,-1.812919,-2.077617,0.3418086,1.478365,0.3048532,-0.02769481,-0.04765949,-0.1964997,-1.371244,0.5864404,0.06795029,0.5121036,1.476625,0.199661,-0.008762885,1.588546,0.2732568,311.2604,73.93681,177.3574,True
7,1.488891,-0.4373797,0.04322857,0.105357,4.618837,-4.662592,-1.72728,0.2060601,1.366221,0.3573265,-1.310913,0.3432293,10.71618,16.2417,0.03038529,-0.2403468,0.2699756,-0.06805868,-1.743215,-2.148007,0.3422229,1.478874,0.3047228,-0.03840388,-0.05831375,-0.2038681,-1.373806,0.5856093,0.06892394,0.5123269,1.476504,0.1996169,-0.00909666,1.590074,0.2728336,311.1623,73.82255,177.4265,True
7,1.500003,-0.4213316,0.01551156,0.08625841,4.619599,-4.66274,-1.723195,0.2059643,1.367594,0.3573201,-1.306475,0.4001367,10.45093,17.07735,0.03596893,-0.2627667,0.2986503,-0.06759796,-1.660637,-2.230941,0.3426199,1.479355,0.3045731,-0.07242963,-0.05942376,-0.1971612,-1.375808,0.5850839,0.07090267,0.512531,1.476362,0.199584,-0.009107149,1.591657,0.2723853,311.1852,73.69577,177.4225,True
7,1.511114,-0.4170173,-0.007964762,0.07571577,4.620398,-4.662118,-1.718663,0.2057809,1.368818,0.3572764,-1.302793,0.3305591,10.05305,18.1487,0.01385236,-0.2256919,0.3585374,-0.07051305,-1.581455,-2.309376,0.3429513,1.479862,0.3042867,-0.1022871,-0.05945167,-0.2000747,-1.378099,0.5846213,0.07310271,0.5127041,1.476256,0.1995435,-0.008901138,1.593381,0.2720195,311.3001,73.64169,177.3247,True
7,1.522225,-0.430813,-0.03043749,0.05986411,4.621192,-4.661603,-1.713402,0.2056371,1.370064,0.3572114,-1.299709,0.2768527,9.602121,19.07007,-3.778934E-05,-0.1874243,0.3736236,-0.07294025,-1.529147,-2.361033,0.343302,1.4802,0.3041103,-0.1503828,-0.06480443,-0.2177462,-1.381203,0.5839986,0.07645749,0.5128461,1.476137,0.1995795,-0.00857213,1.595199,0.2717951,311.504,73.71991,177.1502,True
7,1.533336,-0.4509794,-0.06354144,0.0525618,4.622964,-4.661005,-1.707663,0.2054969,1.371382,0.3572745,-1.295726,0.3594864,9.098145,19.77716,-0.0267224,-0.1247222,0.3995039,-0.07724392,-1.487157,-2.401692,0.3436345,1.480603,0.303844,-0.1813272,-0.06056999,-0.2217149,-1.383863,0.5836942,0.07960854,0.5129108,1.476045,0.199631,-0.008213806,1.597051,0.271692,311.739,73.88535,176.9592,True
7,1.544447,-0.4626889,-0.06471466,0.03875161,4.623601,-4.660503,-1.702225,0.2054419,1.372509,0.3572729,-1.291497,0.3814007,8.541114,20.22713,-0.01192573,-0.07994604,0.4059023,-0.08095583,-1.452037,-2.437022,0.3440366,1.481065,0.3037863,-0.1587568,-0.02761487,-0.2059571,-1.385905,0.5842078,0.08101336,0.5130056,1.475971,0.1997323,-0.007882166,1.59885,0.2716465,311.9724,73.9565,176.8947,True
7,1.555558,-0.4563046,-0.06159414,0.01956116,4.624246,-4.660792,-1.697341,0.2053682,1.373756,0.3573425,-1.287771,0.3355204,7.95756,20.39854,0.01900509,-0.0968772,0.4024713,-0.08334736,-1.403138,-2.487003,0.3444333,1.481508,0.3036447,-0.1087317,-0.001923326,-0.1988772,-1.387442,0.5856554,0.07972998,0.513189,1.475932,0.1997192,-0.00761171,1.600633,0.2715897,312.129,73.98174,176.9038,True
7,1.566669,-0.4541568,-0.06806976,0.002575848,4.625213,-4.660861,-1.692454,0.205368,1.375021,0.3571503,-1.285066,0.2426902,7.480105,20.09856,0.05627832,-0.1393044,0.3776407,-0.08423525,-1.348315,-2.543544,0.3449211,1.482048,0.3036039,-0.0767719,0.008761447,-0.1981004,-1.389692,0.5861586,0.07945674,0.5133336,1.475903,0.1997757,-0.007350784,1.602414,0.2714621,312.2026,74.04318,176.8644,True
7,1.577781,-0.4540761,-0.1044389,-0.02921459,4.627768,-4.661973,-1.687499,0.2054002,1.376375,0.3573253,-1.282771,0.2060875,7.108754,19.24148,0.07121378,-0.1733084,0.3625537,-0.08550132,-1.294778,-2.598231,0.3453843,1.482509,0.303472,-0.06941599,0.00132763,-0.2098974,-1.392448,0.5861359,0.07995662,0.5135351,1.475848,0.1997657,-0.007026995,1.604172,0.2712876,312.2604,74.11797,176.7522,True
7,1.588892,-0.45823,-0.1492923,-0.05029187,4.631036,-4.662623,-1.682419,0.2055117,1.377632,0.3571889,-1.280104,0.2402626,6.896552,17.87015,0.091351,-0.2019335,0.3314649,-0.08623315,-1.24687,-2.647491,0.345926,1.482925,0.3033259,-0.08749658,-0.01893536,-0.2086961,-1.394917,0.5853986,0.08184133,0.5138227,1.475767,0.1997278,-0.00666811,1.605951,0.2711202,312.347,74.23456,176.5966,True
7,1.600003,-0.4518556,-0.1418505,-0.05671871,4.632496,-4.663296,-1.677623,0.2056812,1.378806,0.3573666,-1.277294,0.2532476,6.763926,16.15599,0.09137237,-0.1976881,0.3378599,-0.08872161,-1.20616,-2.688988,0.3465264,1.483391,0.3031411,-0.1096887,-0.03389186,-0.1914641,-1.396568,0.5847209,0.08389676,0.5140704,1.47561,0.1996305,-0.006268294,1.607736,0.2709377,312.4576,74.39312,176.4497,True
7,1.611114,-0.4433784,-0.1237049,-0.05253384,4.633213,-4.663539,-1.673004,0.205777,1.380021,0.3574169,-1.274637,0.2390979,6.710876,14.4204,0.0883022,-0.127521,0.3955665,-0.0946562,-1.185186,-2.710723,0.347112,1.483749,0.3029995,-0.1192603,-0.04349969,-0.1903217,-1.398683,0.5840346,0.08567256,0.5143646,1.475449,0.1995637,-0.005820017,1.609495,0.2707183,312.5684,74.6813,176.2068,True
7,1.622225,-0.432827,-0.09162355,-0.04093201,4.632526,-4.663543,-1.668131,0.2061898,1.381194,0.358186,-1.272436,0.1975577,6.710876,13.0705,0.08940941,-0.1317831,0.3998135,-0.09822803,-1.15107,-2.74571,0.3477213,1.48407,0.3028235,-0.1458121,-0.06164896,-0.1837054,-1.400626,0.5829356,0.08836901,0.5146714,1.475275,0.1994786,-0.005271864,1.611176,0.2704062,312.667,74.95647,175.9509,True
7,1.633336,-0.4190742,-0.04902101,-0.04965422,4.631729,-4.66448,-1.664001,0.206322,1.382369,0.3582788,-1.270256,0.1961711,6.737399,12.17056,0.08085904,-0.1413781,0.3902581,-0.1012662,-1.118367,-2.778882,0.3484081,1.484423,0.302747,-0.1574354,-0.07444783,-0.1750942,-1.402386,0.5819391,0.09054748,0.5150047,1.475122,0.1993854,-0.00465257,1.612841,0.2701033,312.7527,75.14169,175.6539,True
7,1.644447,-0.4223863,0.004135266,-0.06905989,4.63032,-4.665845,-1.659452,0.2064816,1.383534,0.3578181,-1.267659,0.2341525,6.790449,11.67774,0.0969243,-0.1753977,0.3847512,-0.1039549,-1.076673,-2.82202,0.3491866,1.484871,0.3026483,-0.1540938,-0.09896477,-0.1623662,-1.403915,0.5802038,0.09243566,0.5153248,1.474932,0.1993446,-0.003998161,1.614551,0.2699294,312.8093,75.24741,175.3352,True
7,1.655559,-0.4513167,0.07861549,-0.07473084,4.62701,-4.667181,-1.653557,0.2067128,1.38462,0.3578248,-1.265953,0.1524617,6.870025,11.59203,0.1163237,-0.2232917,0.3941069,-0.1072775,-1.025278,-2.875134,0.3498547,1.485197,0.302546,-0.1433919,-0.09895868,-0.1571403,-1.4056,0.57925,0.09382343,0.5156664,1.47473,0.1993105,-0.003284085,1.616336,0.2700903,312.8513,75.31234,175.0458,True
7,1.66667,-0.4898206,0.1605088,-0.09436727,4.622756,-4.670221,-1.647255,0.2072576,1.38647,0.3587039,-1.263253,0.2441033,6.923075,11.97771,0.1204528,-0.2327934,0.3663669,-0.1097174,-0.9940478,-2.907702,0.3505156,1.485463,0.3024652,-0.1338966,-0.07763657,-0.1646532,-1.407639,0.5793445,0.09495767,0.5160574,1.474485,0.1992097,-0.002613993,1.618245,0.2705924,313.0579,75.36312,175.0554,True
7,1.677781,-0.4909496,0.1923894,-0.1072867,4.62001,-4.671824,-1.642265,0.2073403,1.387357,0.3581624,-1.25962,0.3285311,6.976128,12.47054,0.1234033,-0.1986474,0.3461844,-0.1124759,-0.9794856,-2.923622,0.3511899,1.48577,0.3023741,-0.1255761,-0.05522519,-0.1838772,-1.410231,0.579842,0.09596062,0.5164844,1.474184,0.1991339,-0.002025216,1.620237,0.2713463,313.3108,75.35969,175.2684,True
7,1.688892,-0.4654287,0.2138011,-0.09673566,4.616987,-4.672781,-1.638088,0.2075443,1.388341,0.358211,-1.256831,0.2509449,7.002651,12.98479,0.1222927,-0.1879936,0.3462095,-0.1158422,-0.9600176,-2.944132,0.3518021,1.486089,0.3023248,-0.1172018,-0.06265026,-0.1999429,-1.412979,0.5791465,0.09717449,0.5169419,1.473964,0.1990502,-0.001521586,1.622456,0.2724523,313.3771,75.31949,175.3542,True
7,1.700003,-0.44418,0.2405747,-0.07662117,4.613423,-4.67319,-1.633932,0.2077363,1.389314,0.3582225,-1.256192,0.05505088,7.055701,13.3919,0.1171753,-0.2476722,0.3471696,-0.118802,-0.9124379,-2.992498,0.3525825,1.486431,0.3023217,-0.1109904,-0.07539373,-0.221326,-1.41624,0.5782535,0.09830526,0.5174286,1.473679,0.1990156,-0.001007405,1.625057,0.2741192,313.3955,75.32621,175.459,True
7,1.711114,-0.4464383,0.2897649,-0.05017262,4.607581,-4.673038,-1.628419,0.2082892,1.390323,0.3594959,-1.255138,0.09461373,7.108754,13.34904,0.1194515,-0.2679323,0.3598884,-0.1225906,-0.8774953,-3.02855,0.353151,1.486637,0.3023508,-0.1142736,-0.08817603,-0.231963,-1.419275,0.5770136,0.09993725,0.5178871,1.473465,0.1989591,-0.0002127753,1.627457,0.2760797,313.761,75.22049,176.0128,True
7,1.722225,-0.4357955,0.3197988,-0.02044253,4.603199,-4.672458,-1.623903,0.2083234,1.391194,0.3593535,-1.253115,0.1825701,7.214853,12.87765,0.1185586,-0.2711957,0.3865205,-0.1275079,-0.849587,-3.057436,0.3537993,1.486914,0.302434,-0.1217787,-0.1041519,-0.2393733,-1.422302,0.5756427,0.1016688,0.5184292,1.473206,0.198951,0.0007823685,1.629542,0.2780788,314.2472,75.01271,176.6741,True
7,1.733337,-0.4316739,0.3635322,0.003829032,4.597806,-4.671723,-1.619282,0.2084762,1.391621,0.3585436,-1.249635,0.3151292,7.347479,13.1562,0.1109606,-0.2615951,0.3695454,-0.1308432,-0.8276284,-3.080186,0.354449,1.487091,0.3024421,-0.1281723,-0.1158722,-0.2403946,-1.425105,0.5743434,0.1035504,0.5187643,1.472908,0.1988728,0.001812182,1.631396,0.2799919,314.6084,74.7741,177.1187,True
7,1.744448,-0.4338969,0.398769,0.006907418,4.591267,-4.671816,-1.613904,0.2090444,1.392868,0.3606391,-1.248409,0.1079533,7.612731,14.48468,0.1053987,-0.2455777,0.3419203,-0.1334409,-0.8094787,-3.099095,0.3551657,1.487281,0.3025525,-0.1356545,-0.1361101,-0.2456784,-1.428233,0.5724474,0.1056007,0.5192306,1.472553,0.1987789,0.002798281,1.633254,0.2819884,314.7979,74.46221,177.4511,True
7,1.755559,-0.4371603,0.4307405,0.01101997,4.585382,-4.671798,-1.608973,0.2092386,1.3934,0.3605928,-1.246332,0.1877025,7.931033,16.90593,0.1050103,-0.2209673,0.2940392,-0.134985,-0.7974458,-3.112182,0.3557174,1.487413,0.3026583,-0.1312686,-0.153166,-0.2340205,-1.430591,0.5703844,0.1072093,0.5195655,1.472281,0.1987782,0.003708872,1.635075,0.2838508,315.1707,74.09231,178.1752,True
7,1.76667,-0.4233443,0.4499273,0.01093747,4.580055,-4.671739,-1.604904,0.2093576,1.393925,0.3597295,-1.243374,0.2673608,8.302388,20.65567,0.07809874,-0.2475613,0.2355616,-0.1357211,-0.769735,-3.139677,0.356423,1.487579,0.3027606,-0.1396019,-0.1510688,-0.2136997,-1.43239,0.569033,0.1091736,0.5199378,1.472026,0.1988113,0.004550124,1.63677,0.2854229,315.4344,73.78909,178.6544,True
7,1.777781,-0.4116612,0.4670317,0.01831263,4.574214,-4.67148,-1.600654,0.2096375,1.394512,0.3596897,-1.241936,0.12823,8.700266,24.74823,0.07276735,-0.2646034,0.2259666,-0.1380071,-0.7437791,3.11719,0.3570951,1.487707,0.3028643,-0.13064,-0.1021313,-0.1604484,-1.432259,0.5695085,0.1103995,0.5203272,1.471763,0.1988509,0.005279323,1.63866,0.2871384,315.4369,73.60763,178.6086,True
7,1.788892,-0.3988079,0.4532337,0.0183208,4.569767,-4.672035,-1.596951,0.2099954,1.395671,0.3601406,-1.241288,0.0573546,9.177716,28.86222,0.08036089,-0.2678188,0.246155,-0.1416759,-0.7230999,3.095546,0.3577361,1.487877,0.3029168,-0.1007564,-0.07867438,-0.1521744,-1.43378,0.5695674,0.1104269,0.5206738,1.471464,0.1988301,0.006068523,1.640471,0.2889399,315.6831,73.32922,179.0761,True
7,1.800003,-0.3731805,0.4256548,0.03229527,4.565939,-4.671295,-1.593606,0.2102571,1.396343,0.3602128,-1.239575,0.1549766,9.681698,32.99764,0.09343293,-0.2636212,0.2940128,-0.1466779,-0.7056586,3.076847,0.3584341,1.487911,0.3030086,-0.04559073,-0.06899218,-0.1761131,-1.43672,0.5694253,0.1089694,0.5210958,1.471154,0.1987727,0.006915789,1.642092,0.2905549,316.0779,73.01675,179.8141,True
7,1.811115,-0.3549244,0.3586567,0.05178768,4.564273,-4.669933,-1.590038,0.210334,1.396443,0.3589437,-1.238242,0.1193318,10.2122,36.74738,0.09324422,-0.2678099,0.2620448,-0.1488068,-0.6853831,3.055718,0.3589755,1.487945,0.3030241,-0.05112524,-0.09879214,-0.2016691,-1.440053,0.5677572,0.1099441,0.521526,1.470997,0.1987338,0.007729263,1.643657,0.2919548,316.3279,72.76254,180.268,True
7,1.822226,-0.3517055,0.3480256,0.05503289,4.560796,-4.669266,-1.58618,0.2105522,1.397007,0.3589795,-1.236997,0.1114748,10.68966,39.08292,0.07475865,-0.2485932,0.2142667,-0.1497016,-0.6711634,3.041551,0.3595275,1.488101,0.3031061,-0.08308453,-0.122256,-0.2045986,-1.44256,0.5659401,0.112203,0.5219096,1.470685,0.1986406,0.008447856,1.645316,0.2932266,316.4573,72.63343,180.4436,True
7,1.833337,-0.3472758,0.2691737,0.05221999,4.560649,-4.668547,-1.582375,0.2107557,1.397071,0.358042,-1.234898,0.1895317,10.98143,39.87572,0.05852672,-0.2081257,0.1963513,-0.1513911,-0.6653399,3.035698,0.3599717,1.488194,0.3031373,-0.1148966,-0.1297642,-0.1893918,-1.444256,0.5644805,0.1147761,0.5223171,1.470399,0.1986225,0.009221704,1.646684,0.2942512,316.7584,72.43359,180.8518,True
7,1.844448,-0.3546132,0.2116354,0.05463739,4.560104,-4.667665,-1.57793,0.2110585,1.397032,0.356818,-1.232315,0.2329542,11.00796,39.21149,0.0583685,-0.1729601,0.1900408,-0.153543,-0.661189,3.030838,0.3605573,1.488198,0.3031669,-0.110548,-0.1116633,-0.1776877,-1.445848,0.5640965,0.1158885,0.5227042,1.470173,0.1985638,0.0100109,1.647597,0.2946758,317.1331,72.22744,181.3613,True
7,1.855559,-0.3406412,0.1519736,0.04745636,4.560292,-4.667324,-1.574516,0.2113658,1.397518,0.3569808,-1.230061,0.2024613,10.79576,37.45446,0.0591224,-0.1132616,0.1731263,-0.15476,-0.667594,3.036493,0.3611133,1.488243,0.3031769,-0.09444778,-0.08929655,-0.1618303,-1.447222,0.5639533,0.1164427,0.5230868,1.470008,0.1985505,0.01063851,1.648356,0.2945913,317.3164,72.10217,181.5364,True
7,1.86667,-0.3192343,0.1040606,0.0434325,4.560563,-4.666783,-1.571689,0.2117877,1.397768,0.3561876,-1.226991,0.2772096,10.34483,35.61174,0.04524882,-0.1175588,0.1678827,-0.15667,-0.6586058,3.027674,0.3617228,1.488299,0.3032069,-0.08577561,-0.08078438,-0.144849,-1.448287,0.563467,0.1171269,0.5234295,1.469888,0.198611,0.01120435,1.64876,0.2938772,317.4416,72.06207,181.6613,True
7,1.877781,-0.2700768,0.02736224,0.02247269,4.562924,-4.667211,-1.570436,0.212189,1.398397,0.3563824,-1.225205,0.1590254,9.840847,33.72616,0.04308775,-0.1324511,0.1550788,-0.1581619,-0.6470047,3.015827,0.3623511,1.48838,0.3032491,-0.07385592,-0.08612006,-0.1236601,-1.449116,0.5624277,0.1177162,0.5237598,1.469759,0.1985722,0.01165761,1.649039,0.2925824,317.3769,72.07465,181.5141,True
7,1.888893,-0.2284458,-0.03435816,0.000440646,4.563704,-4.667606,-1.568719,0.2132074,1.399872,0.3602583,-1.223022,0.1962507,9.363397,31.79773,0.04936567,-0.146228,0.129443,-0.1590248,-0.6333225,3.001486,0.3629621,1.488615,0.3032281,-0.07161165,-0.08294028,-0.1108942,-1.450068,0.5616879,0.1185661,0.5241506,1.469593,0.1985719,0.011942,1.649458,0.2910436,317.163,72.18475,181.0003,True
7,1.900004,-0.1995957,-0.07910596,-0.01320838,4.566103,-4.66823,-1.567558,0.2136895,1.400551,0.3606477,-1.221208,0.1616236,8.859415,29.82644,0.07738265,-0.1696654,0.1675683,-0.1627426,-0.6193089,2.985864,0.3636402,1.488837,0.3032389,-0.06951966,-0.08186783,-0.115174,-1.451649,0.5609751,0.1193522,0.5245921,1.469366,0.1986787,0.01214683,1.649892,0.2894355,316.9696,72.3265,180.485,True
7,1.911115,-0.1579122,-0.1419409,-0.02463867,4.569842,-4.668693,-1.567398,0.2139688,1.400986,0.3597345,-1.217245,0.3582828,8.461537,27.898,0.08921042,-0.1164653,0.2134231,-0.1666446,-0.6252045,2.990265,0.3641351,1.488976,0.3031781,-0.07199223,-0.07756144,-0.1513671,-1.454636,0.5605647,0.12025,0.5250383,1.469189,0.1986618,0.01218126,1.65046,0.2881501,316.5614,72.72555,179.3065,True
7,1.922226,-0.1439728,-0.182365,-0.01699419,4.573149,-4.668506,-1.566238,0.2142658,1.401464,0.3593757,-1.2138,0.309109,8.275862,26.14099,0.08912194,-0.110051,0.2027843,-0.1685749,-0.6210048,2.985177,0.3646931,1.489149,0.3031802,-0.08063365,-0.0775506,-0.1640733,-1.456927,0.5600154,0.1215049,0.5255232,1.468934,0.1986411,0.01207087,1.65132,0.2880193,316.0232,73.09305,177.9842,True
7,1.933337,-0.1492965,-0.1834311,-0.01485684,4.575248,-4.668604,-1.564406,0.2145411,1.402114,0.3596518,-1.21075,0.2733556,8.249334,24.36254,0.04803155,-0.04933351,0.1414036,-0.1678495,-0.6280493,2.993143,0.36514,1.489106,0.3032007,-0.1061308,-0.08610964,-0.157455,-1.458623,0.5589579,0.1236524,0.5258929,1.468815,0.1986544,0.01200086,1.651921,0.2887652,316.0531,73.15897,178.1046,True
7,1.944448,-0.1524766,-0.1887798,-0.02447592,4.577341,-4.670237,-1.562977,0.2150711,1.403484,0.3612173,-1.205519,0.4727706,8.328911,22.49839,0.03727807,-0.0227449,0.1404727,-0.1694708,-0.6318664,2.996861,0.3657457,1.489285,0.3032644,-0.1102335,-0.07974087,-0.1392903,-1.459462,0.5584671,0.1250852,0.526297,1.468711,0.1985791,0.01190031,1.651979,0.2896169,316.415,73.06068,179.0898,True
7,1.955559,-0.1695297,-0.1845522,-0.0244907,4.579275,-4.670542,-1.560563,0.2154095,1.40416,0.3615551,-1.200073,0.4905468,8.435014,20.5271,0.0268271,-0.03242938,0.1671501,-0.1723678,-0.6301925,2.995259,0.3663636,1.489502,0.3032548,-0.09706338,-0.06167426,-0.09571004,-1.458997,0.5583321,0.1257398,0.5266384,1.468609,0.1985843,0.0115434,1.651713,0.2900881,316.5651,72.92798,179.868,True
7,1.966671,-0.2015769,-0.1344884,-0.01085989,4.579131,-4.670026,-1.55723,0.2156455,1.404363,0.3602376,-1.195434,0.4167162,8.408487,18.40583,0.02920625,-0.06230567,0.1905015,-0.1755353,-0.6222819,2.987039,0.3670283,1.489666,0.3032899,-0.08301155,-0.04783978,-0.07238755,-1.459098,0.5582941,0.1261316,0.5270143,1.46855,0.1987228,0.01076629,1.651575,0.2901985,316.2415,72.91623,179.9048,True
7,1.977782,-0.1962524,-0.1345078,-0.01725324,4.580597,-4.670443,-1.555209,0.2160616,1.405162,0.3605807,-1.189778,0.5102434,8.355438,16.47739,0.05823591,-0.1027387,0.2115331,-0.1788867,-0.6113176,2.974708,0.3674586,1.489961,0.3032513,-0.07337429,-0.04463457,-0.06714657,-1.459789,0.5580496,0.1266421,0.5274426,1.468455,0.1987677,0.009653787,1.651784,0.2903029,315.6404,73.06749,179.4571,True
7,1.988893,-0.1535613,-0.1728814,-0.03732184,4.584074,-4.671465,-1.555284,0.2163294,1.405447,0.3597088,-1.183919,0.5279869,8.302388,14.80608,0.07016867,-0.1102236,0.2412692,-0.1827956,-0.6065983,2.968847,0.3677955,1.490199,0.30316,-0.07987428,-0.04676273,-0.07880597,-1.461107,0.5575057,0.1278357,0.5279274,1.468332,0.19875,0.00857217,1.651953,0.290376,315.2526,72.98363,179.5695,True
7,2.000004,-0.1289619,-0.225102,-0.05200003,4.588367,-4.672623,-1.55487,0.2166822,1.406013,0.3600626,-1.179966,0.3534861,8.249334,13.37047,0.05196607,-0.09854832,0.232889,-0.185168,-0.6052954,2.96763,0.3680982,1.490412,0.303107,-0.09818109,-0.04675229,-0.09994203,-1.462994,0.557249,0.1295724,0.5283077,1.468194,0.1987131,0.007689728,1.652008,0.290151,315.0166,72.71479,180.0984,True
7,2.011115,-0.1747687,-0.2208605,-0.03495647,4.590791,-4.672416,-1.551421,0.2168935,1.40597,0.3591037,-1.176839,0.2793579,8.249334,12.23484,0.004353628,-0.03247512,0.1523812,-0.183797,-0.6146286,2.978452,0.3681941,1.490656,0.3029957,-0.1399857,-0.05954592,-0.1283364,-1.465605,0.5564339,0.1327647,0.5285441,1.468111,0.1987455,0.00701922,1.652023,0.289585,314.8031,72.71638,180.2602,True
7,2.022226,-0.2056613,-0.2069316,-0.01378015,4.592276,-4.673185,-1.548596,0.2174744,1.407537,0.3611238,-1.171144,0.5146793,8.355438,11.5706,-0.01544575,0.04747882,0.09729539,-0.1827131,-0.6309323,2.99527,0.3684897,1.490802,0.3028488,-0.1750931,-0.05106911,-0.1216058,-1.466683,0.5562947,0.1358843,0.5287147,1.468064,0.1987882,0.006538662,1.651703,0.2885251,314.7287,72.99837,180.058,True
7,2.033337,-0.2110095,-0.1941134,-0.004251011,4.593993,-4.672959,-1.546066,0.2177529,1.408096,0.361325,-1.162872,0.7481748,8.541114,11.03493,-0.01873185,0.05814017,0.08881794,-0.1832234,-0.6370564,3.001606,0.3689538,1.490926,0.3027425,-0.168194,0.00212257,-0.06087528,-1.465149,0.5578915,0.1373994,0.5289054,1.467974,0.1988583,0.006024028,1.65116,0.28711,314.6035,73.31211,179.5617,True
7,2.044448,-0.2046506,-0.1748967,0.0009818878,4.595253,-4.672912,-1.544155,0.2178368,1.4085,0.361352,-1.157923,0.4427027,8.779839,10.5421,-0.002363332,0.02400617,0.1312433,-0.1864,-0.6330442,2.997002,0.3696076,1.491019,0.3026443,-0.1295457,0.04046338,-0.02495943,-1.463923,0.5594236,0.1371901,0.5291833,1.46786,0.1988389,0.005339418,1.650767,0.2855229,314.1706,73.43807,178.9701,True
7,2.055559,-0.1631934,-0.1312356,-0.01947552,4.595143,-4.673797,-1.543835,0.2182817,1.4092,0.3614621,-1.153504,0.3974382,9.071617,9.963574,0.01632881,-0.06764495,0.1735291,-0.1903031,-0.6153349,2.978784,0.3703018,1.49115,0.3024588,-0.05194822,0.04696366,-0.04271913,-1.464727,0.5604042,0.1350098,0.5295532,1.467666,0.1988206,0.00445903,1.651106,0.2844113,313.4548,73.64232,178.04,True
7,2.06667,-0.1408163,-0.1387632,-0.04180874,4.597096,-4.674891,-1.543078,0.2184732,1.409285,0.3607938,-1.149341,0.3741246,9.257293,8.999357,0.03588516,-0.1166598,0.2084409,-0.1941056,-0.6032643,2.965962,0.3706487,1.491278,0.3023303,-0.03732081,0.02358566,-0.07697607,-1.466933,0.5599843,0.1350428,0.529902,1.467518,0.1988657,0.003783132,1.6516,0.2838563,313.1145,73.73688,177.6726,True
7,2.077781,-0.1174045,-0.1270352,-0.04932785,4.598098,-4.67574,-1.542701,0.2187618,1.409647,0.3610268,-1.146216,0.2796279,9.416446,7.692307,0.05737743,-0.1358061,0.2274366,-0.1977674,-0.5949644,2.95639,0.3709454,1.491481,0.3021164,-0.05702353,-0.01044496,-0.137562,-1.470632,0.5591885,0.1363975,0.5303229,1.467317,0.1987913,0.00334818,1.65204,0.2837625,313.0651,73.73396,177.7122,True
7,2.088892,-0.1216968,-0.1110328,-0.04193913,4.598819,-4.675779,-1.54108,0.2189039,1.409683,0.3604527,-1.141364,0.4383108,9.416446,6.449537,0.04516706,-0.09311128,0.1732817,-0.1975165,-0.598273,2.959669,0.3710204,1.491604,0.3018658,-0.09251593,-0.0008561909,-0.1723793,-1.473588,0.5599155,0.1387414,0.530771,1.467266,0.1986744,0.003097434,1.652268,0.284018,313.1749,73.73154,177.9577,True
7,2.100003,-0.1398565,-0.08221987,-0.02395867,4.598667,-4.67539,-1.538819,0.2190453,1.409842,0.3606133,-1.137323,0.3628393,9.28382,5.378185,0.01670528,-0.008875079,0.09801827,-0.1955533,-0.6114265,2.973379,0.3711896,1.491687,0.3016338,-0.1532375,0.01931426,-0.1696566,-1.475273,0.5611268,0.142502,0.531121,1.467157,0.1985674,0.002917258,1.652088,0.2843337,313.3356,73.78962,178.2398,True
7,2.111114,-0.1451975,-0.07691786,-0.02397101,4.599593,-4.675465,-1.536949,0.2193213,1.409594,0.3589764,-1.132155,0.4669924,9.045091,4.585385,-0.0015065,0.007060491,0.09071806,-0.1962696,-0.6151733,2.977717,0.3715827,1.491802,0.3014569,-0.1750986,0.0213499,-0.1140466,-1.474303,0.5613933,0.1451204,0.5313964,1.467057,0.1984558,0.00260071,1.651701,0.2846393,313.3681,73.78581,178.4441,True
7,2.122225,-0.1377409,-0.08227231,-0.0292621,4.600982,-4.675788,-1.535616,0.2195985,1.409553,0.3577383,-1.127986,0.3752407,8.700266,4.328262,-0.009852409,0.006968413,0.1184695,-0.1986846,-0.6168491,2.979717,0.3719667,1.491762,0.301264,-0.1693631,0.01916759,-0.07042383,-1.473506,0.5614241,0.1468091,0.531617,1.466967,0.1983941,0.002097765,1.651234,0.2847948,313.2537,73.63869,178.7422,True
7,2.133336,-0.1121758,-0.08334381,-0.0409844,4.601935,-4.676655,-1.535294,0.2198359,1.409849,0.3576791,-1.125371,0.2344225,8.408487,4.456822,0.002972305,-0.01109289,0.115155,-0.2000705,-0.6134984,2.975906,0.3725857,1.49164,0.3010857,-0.1249804,0.04680539,0.008034911,-1.470573,0.5623545,0.1463942,0.5317603,1.466998,0.1983817,0.001501187,1.650833,0.2847585,313.0323,73.40627,179.1614,True
7,2.144447,-0.07280655,-0.05245669,-0.06462406,4.60116,-4.678932,-1.536265,0.2205382,1.411087,0.3593054,-1.123448,0.172643,8.196285,4.842509,0.02544885,-0.029145,0.1224207,-0.2016231,-0.6101946,2.9716,0.3730528,1.491766,0.3008432,-0.09717309,0.06812803,0.02165516,-1.469834,0.5638072,0.1463692,0.5320635,1.466971,0.1983328,0.001050662,1.650354,0.2841988,312.8699,73.22822,179.7699,True
7,2.155558,-0.05045809,-0.04289718,-0.07959032,4.601268,-4.680354,-1.536618,0.2208945,1.411452,0.3593581,-1.122261,0.1058432,8.063659,5.485321,0.02791311,-0.08564897,0.1446481,-0.2044791,-0.5979962,2.959224,0.3734669,1.49197,0.3006022,-0.07190774,0.07991547,-0.009459596,-1.470799,0.5653278,0.1461245,0.5325152,1.466861,0.1982205,0.0007408978,1.649965,0.2830397,312.6494,73.28902,179.8362,True
7,2.166669,-0.02808316,-0.04931764,-0.09341642,4.60216,-4.681827,-1.537085,0.2210704,1.411493,0.358808,-1.121497,0.06782041,8.01061,6.235267,0.02901836,-0.09842726,0.1435459,-0.2062645,-0.5921525,2.953167,0.3737017,1.49212,0.3004043,-0.06831349,0.06190544,-0.08302424,-1.474219,0.5657877,0.1468483,0.533053,1.466737,0.198035,0.0004539464,1.649969,0.2817064,312.2186,73.61121,178.9569,True
7,2.17778,-0.04726809,-0.04183166,-0.07959652,4.602367,-4.682274,-1.536,0.22135,1.411565,0.3589292,-1.119269,0.2020817,8.143235,6.706661,0.03285503,-0.04506186,0.1052908,-0.2058149,-0.5982459,2.958523,0.3737818,1.492222,0.3001664,-0.07925597,0.04595785,-0.1159691,-1.476651,0.5660999,0.1480742,0.533398,1.466642,0.1979117,0.0001847055,1.65048,0.2809514,311.7709,74.01653,177.7428,True
7,2.188891,-0.07603604,-0.02472245,-0.06053641,4.601746,-4.683017,-1.534387,0.2218322,1.412417,0.3605592,-1.117708,0.139953,8.355438,7.392329,0.0144641,-0.002470795,0.08419926,-0.2058336,-0.6048855,2.965519,0.3740085,1.492294,0.2999895,-0.0951644,0.03634218,-0.1094384,-1.477358,0.5663188,0.1496614,0.5337303,1.466595,0.1978188,0.0001291416,1.650955,0.2808812,311.7609,74.20699,177.3524,True
7,2.200002,-0.1143717,-0.02885919,-0.01788902,4.602273,-4.681665,-1.531575,0.2218603,1.412431,0.3604596,-1.114951,0.2502438,8.647213,8.3994,-0.01571264,0.013509,0.03755236,-0.2045579,-0.6066839,2.96847,0.3741603,1.492328,0.2998755,-0.1158691,0.04475845,-0.04424967,-1.475578,0.5668979,0.1515219,0.5339588,1.466654,0.197778,0.0002626341,1.65112,0.2812345,312.0095,74.25759,177.565,True
7,2.211113,-0.1282089,-0.02772295,0.00448737,4.602718,-4.680771,-1.529762,0.221802,1.41203,0.3593595,-1.113195,0.15787,8.992041,9.749304,-0.02329842,0.03587859,0.02912839,-0.2043699,-0.6124513,2.974635,0.3745247,1.492302,0.2998006,-0.1145519,0.05004858,-0.01655179,-1.474699,0.5675215,0.1526465,0.5341548,1.466611,0.1977205,0.0004320226,1.651215,0.2819129,312.0309,74.21694,177.708,True
7,2.222224,-0.1153853,-0.04570863,0.02587441,4.603898,-4.679744,-1.528789,0.2219786,1.41231,0.359309,-1.111415,0.1611366,9.257293,11.63488,-0.01135985,-0.01948738,0.03317988,-0.2052631,-0.6026496,2.964614,0.3749309,1.492265,0.2996893,-0.1005307,0.04791051,0.001424536,-1.474099,0.5678861,0.153218,0.5343159,1.466591,0.1976519,0.0005767541,1.651613,0.2830537,311.8876,74.13937,177.7883,True
7,2.233335,-0.08127212,-0.05414207,0.03447535,4.604846,-4.678332,-1.529075,0.2220555,1.411924,0.3580978,-1.111686,-0.02642471,9.496022,14.52753,0.00906904,-0.07694141,0.03185346,-0.2060211,-0.5897508,2.951247,0.3754198,1.492396,0.2995765,-0.07383206,0.03301256,0.006477308,-1.474031,0.5676348,0.1531616,0.5345054,1.466522,0.1976542,0.000933215,1.652024,0.2842565,312.052,73.85414,178.5484,True
7,2.244446,-0.06111393,-0.03384183,0.03012158,4.603855,-4.678224,-1.528406,0.2227544,1.411771,0.3581717,-1.112128,-0.04028949,9.761274,18.55582,0.01359278,-0.1004226,0.06052308,-0.2077511,-0.5831232,2.944485,0.3757058,1.492413,0.2993903,-0.04950323,0.0373261,-0.01185291,-1.474678,0.5682766,0.1528945,0.5347556,1.466426,0.197556,0.001520446,1.652302,0.2849927,312.3999,73.60545,179.4298,True
7,2.255557,-0.04622337,-0.0232116,0.01941303,4.603739,-4.678366,-1.528408,0.2230555,1.411983,0.3581462,-1.112947,-0.07492166,10.05305,23.65545,0.01689366,-0.07172208,0.09252744,-0.2098763,-0.5856466,2.946626,0.3759994,1.492425,0.2991202,-0.03808492,0.04803292,-0.0428401,-1.476022,0.5693867,0.1528335,0.5350749,1.466349,0.1974826,0.00221266,1.652528,0.2850271,312.6904,73.50366,179.905,True
7,2.266668,-0.0430074,-0.03603423,0.009884411,4.604539,-4.678653,-1.528094,0.2233606,1.412176,0.3582106,-1.1114,0.1415848,10.39788,29.59075,0.007194698,-0.0334082,0.09480627,-0.2106619,-0.5920038,2.953084,0.376198,1.492558,0.2989032,-0.04278991,0.05447988,-0.08966667,-1.478485,0.5706018,0.1534154,0.5354612,1.466212,0.197422,0.002994128,1.65243,0.2842196,312.92,73.49653,179.9461,True
7,2.277779,-0.0557436,-0.05839762,0.02173778,4.6063,-4.677617,-1.526888,0.2231838,1.413096,0.3582342,-1.111387,-0.0003919951,10.79576,35.89029,-0.03441278,0.003709322,0.1058047,-0.211929,-0.5990105,2.961787,0.376258,1.492549,0.2986846,-0.04406455,0.03746637,-0.1141802,-1.480601,0.570793,0.1539448,0.5357577,1.466139,0.1973264,0.003686732,1.652277,0.2829666,312.8311,73.62794,179.3561,True
7,2.28889,-0.0716719,-0.08178923,0.03890491,4.608121,-4.676522,-1.525403,0.2232133,1.413291,0.3583484,-1.110674,0.0649961,11.19363,41.37562,-0.04109552,0.03038896,0.07501562,-0.2115514,-0.6042353,2.967615,0.3764093,1.492514,0.2985137,-0.03963408,0.0193349,-0.09826794,-1.481087,0.5703506,0.1542652,0.5359267,1.466188,0.1971979,0.00410958,1.652337,0.2816544,312.6805,73.87201,178.5768,True
7,2.300001,-0.07482736,-0.1020056,0.04539295,4.609987,-4.675869,-1.524379,0.2233469,1.413454,0.3584404,-1.109524,0.1043559,11.61804,45.7253,-0.0318823,0.04013019,0.02064816,-0.2097474,-0.606218,2.969481,0.3766459,1.492614,0.2983797,-0.04249428,0.01182788,-0.06309485,-1.480595,0.5700982,0.1548463,0.5360826,1.466222,0.1970851,0.004230021,1.652671,0.2805156,312.5424,74.09054,177.9619,True
7,2.311112,-0.05983279,-0.1328745,0.04334699,4.612523,-4.676468,-1.524702,0.22364,1.413942,0.3584611,-1.108919,0.05430045,11.98939,48.83223,-0.02653635,0.03269165,0.01953027,-0.2099285,-0.606401,2.969729,0.3769821,1.492659,0.2982318,-0.07187623,0.02770505,-0.01272659,-1.478831,0.570724,0.1566562,0.5362453,1.466253,0.1969652,0.004062247,1.653381,0.2795829,312.4321,74.18095,177.6572,True
7,2.322223,-0.01184537,-0.1573729,0.04243412,4.616067,-4.675227,-1.526249,0.2236254,1.413471,0.3560572,-1.109136,-0.02029877,12.28117,50.22498,-0.009119041,-0.01100935,0.05447332,-0.2121426,-0.6000471,2.963024,0.3773738,1.492773,0.2980223,-0.08436392,0.04575744,0.0215103,-1.477316,0.5716131,0.1579422,0.5364369,1.466237,0.1968472,0.004019517,1.653929,0.2788241,312.3642,74.23966,177.4794,True
7,2.333334,0.02115728,-0.148856,0.02853062,4.617435,-4.675418,-1.527657,0.223841,1.413554,0.3558497,-1.109969,-0.07648108,12.51989,50.11785,-0.001598362,-0.02377465,0.05759225,-0.212981,-0.5974128,2.960228,0.3776495,1.492792,0.2977545,-0.07478777,0.04683486,0.02035715,-1.477026,0.5721291,0.1583987,0.5366648,1.466194,0.1967101,0.004188771,1.65424,0.2782306,312.3119,74.34869,177.3193,True
7,2.344445,0.02648203,-0.1458275,-0.007729243,4.619003,-4.677068,-1.528477,0.2242021,1.413849,0.3557341,-1.110602,-0.0580051,12.65252,48.53225,-0.01116836,-0.01743337,0.06406033,-0.2138209,-0.5984908,2.961785,0.3778272,1.492808,0.2974796,-0.04942559,0.02665476,-0.004406549,-1.478088,0.5718379,0.1580046,0.5369542,1.466095,0.1965759,0.004528644,1.654257,0.2776729,312.4458,74.44789,177.4845,True
7,2.355556,0.006219832,-0.1352366,-0.01309733,4.620154,-4.677486,-1.52794,0.224315,1.41382,0.3556345,-1.109127,0.1340697,12.67905,45.53246,-0.02300887,0.0006584749,0.05458914,-0.2140047,-0.6017864,2.965718,0.3779173,1.492816,0.2971842,-0.0422238,0.01498279,-0.03325331,-1.479463,0.5717793,0.1582117,0.5371827,1.466031,0.1964602,0.00493306,1.653702,0.276633,312.7755,74.44061,177.9148,True
7,2.366668,0.001953516,-0.130953,-0.006723922,4.621459,-4.677422,-1.527804,0.2243703,1.413846,0.3555436,-1.10662,0.2264894,12.62599,41.56846,-0.03282424,0.02943881,0.03447193,-0.2133549,-0.607911,2.972426,0.3779586,1.492827,0.2969902,-0.04652862,0.02137233,-0.03746705,-1.479863,0.572317,0.1588576,0.5374156,1.465898,0.1963089,0.004977522,1.65301,0.2752704,312.7737,74.59753,177.607,True
7,2.377779,0.02864586,-0.1595818,0.01151037,4.624257,-4.676752,-1.528984,0.2244151,1.413804,0.3554115,-1.103191,0.3098859,12.54642,37.81873,-0.04052201,0.04120127,0.002586907,-0.2121549,-0.6113564,2.976505,0.3780251,1.492927,0.2968194,-0.06577057,0.05544455,-0.04043895,-1.480161,0.5741772,0.160105,0.5375739,1.465866,0.1961794,0.004539192,1.652369,0.2739381,312.4909,74.89691,176.8909,True
7,2.38889,0.04459985,-0.1477675,0.02212002,4.62532,-4.675824,-1.529843,0.2245773,1.41334,0.35514,-1.101084,0.1880621,12.46684,35.03321,-0.03623069,0.03162945,0.00253411,-0.2121634,-0.6112651,2.976696,0.3782232,1.492884,0.2966123,-0.06892903,0.07034955,-0.03506364,-1.480115,0.5754839,0.1607718,0.5378342,1.465932,0.1960673,0.003729347,1.651775,0.2728941,312.1166,75.05099,176.3624,True
7,2.400001,0.04666754,-0.1115138,0.02833957,4.625328,-4.675282,-1.530382,0.2247793,1.413165,0.3548203,-1.099597,0.1321791,12.38727,33.38333,-0.02351853,0.04446641,-0.001779022,-0.2118854,-0.6155572,2.980736,0.3784632,1.49278,0.2963929,-0.06139053,0.06821604,-0.02661393,-1.479995,0.5762042,0.1611356,0.5379765,1.465939,0.1959088,0.002726011,1.651137,0.272174,311.7759,75.05774,176.2261,True
7,2.411112,0.03905409,-0.02192318,0.05349307,4.622399,-4.673645,-1.530241,0.2250933,1.412861,0.3543644,-1.096025,0.3228599,12.28117,32.82622,-0.02022756,0.0401876,0.01097887,-0.2124489,-0.6178515,2.983092,0.3788189,1.492639,0.2962184,-0.0314481,0.05119317,-0.01626984,-1.479961,0.5761456,0.1604789,0.5381763,1.465889,0.1957283,0.001714083,1.650173,0.2716137,311.5406,75.00793,176.353,True
7,2.422223,0.04421011,0.06560474,0.08396153,4.618606,-4.671735,-1.530318,0.2258346,1.412734,0.3541844,-1.09168,0.391369,12.14854,33.10478,-0.02226131,0.01141686,0.01092415,-0.2127099,-0.6136381,2.979326,0.3791043,1.492561,0.2960067,0.004941901,0.02032314,-0.001732115,-1.479589,0.5753149,0.1593031,0.5383772,1.46587,0.1954963,0.0007110361,1.648832,0.2711106,311.297,74.83137,176.6063,True
7,2.433334,0.0537021,0.1232226,0.09966487,4.615347,-4.669948,-1.531081,0.2258536,1.412323,0.3536587,-1.086711,0.4477761,12.04244,34.36897,-0.02963076,-0.04821655,-0.007275524,-0.2125527,-0.6014837,2.96806,0.3792117,1.492485,0.2958477,0.01996163,-0.008440583,0.00661005,-1.479495,0.5741512,0.1587761,0.5385789,1.465883,0.1952777,-0.0004076273,1.647423,0.2706695,310.9265,74.5387,176.8932,True
7,2.444445,0.03871405,0.1625763,0.09202878,4.612254,-4.669054,-1.530907,0.2258715,1.411937,0.3531823,-1.082223,0.4031007,12.04244,36.29741,-0.03185666,-0.05882514,-0.02859863,-0.2115839,-0.5966167,2.963661,0.3791749,1.492502,0.29563,0.009355002,-0.01698149,0.009898474,-1.479316,0.5737148,0.1590906,0.5387073,1.465876,0.195097,-0.001556556,1.646111,0.2703773,310.4048,74.00769,177.3117,True
7,2.455556,0.03229755,0.1753281,0.08771024,4.609923,-4.668124,-1.530947,0.225906,1.411598,0.3527775,-1.077925,0.3861148,12.17507,38.76152,-0.05451224,-0.01304807,-0.04859096,-0.2100936,-0.6020197,2.970304,0.3791447,1.492468,0.2953427,-0.04706997,-0.02024478,0.0136156,-1.479116,0.5732802,0.1614954,0.5388501,1.465881,0.1948967,-0.002603726,1.644974,0.2702999,309.9303,73.44897,177.8036,True
7,2.466667,0.03229561,0.1849479,0.09300888,4.607866,-4.66664,-1.531366,0.2251406,1.411608,0.3523724,-1.071552,0.5754758,12.41379,41.50417,-0.09412222,0.06668906,-0.0353802,-0.2095716,-0.6191258,2.98945,0.3790699,1.492425,0.295125,-0.07155997,-0.008558165,0.01705598,-1.47879,0.5735716,0.1631021,0.5389598,1.46587,0.1946378,-0.003645563,1.643958,0.2703534,309.7813,73.02101,178.3029,True
7,2.477778,0.03444125,0.1753441,0.08879206,4.606268,-4.665724,-1.53174,0.2252806,1.411356,0.3520999,-1.065888,0.5087481,12.75862,43.75401,-0.1059826,0.09649158,-0.04162852,-0.2085852,-0.628726,3.000431,0.3791537,1.49239,0.2949259,-0.06171342,0.01697884,0.04789304,-1.47709,0.5743511,0.1634382,0.5390596,1.465938,0.1944911,-0.004773407,1.642993,0.2704639,309.7171,72.67561,178.7489,True
7,2.488889,0.04621509,0.1455187,0.08467668,4.605587,-4.66473,-1.532548,0.2254888,1.411281,0.3518229,-1.060279,0.5042867,13.10345,45.10392,-0.0751586,0.07002118,-0.0663869,-0.2070283,-0.6263011,2.997884,0.3793926,1.492377,0.2948368,-0.01047363,0.02341053,0.06020601,-1.476,0.5746281,0.1618243,0.5392073,1.466083,0.1943641,-0.00610288,1.642079,0.2705528,309.6589,72.37224,179.1479,True
7,2.5,0.1006736,0.06780502,0.07437775,4.607266,-4.664083,-1.535241,0.2258071,1.411155,0.3515742,-1.053858,0.5783427,13.39523,45.4896,-0.04426686,0.05097622,-0.07728413,-0.2058133,-0.6249448,2.996014,0.3795806,1.492382,0.2946734,0.02993057,0.02879216,0.05237959,-1.475595,0.5750682,0.160097,0.5393555,1.466165,0.1942091,-0.007787954,1.641218,0.2705278,309.5504,72.01582,179.566,True
7,2.511111,0.1539896,0.04021809,0.07767859,4.607761,-4.663123,-1.538561,0.225967,1.410941,0.3513308,-1.047658,0.5572993,13.66048,44.99679,-0.02378812,0.000952702,-0.06687552,-0.2055385,-0.6166816,2.9875,0.3798787,1.492464,0.2944438,0.04892204,0.02990267,0.03303164,-1.475868,0.5754232,0.1589646,0.5395233,1.466202,0.1939948,-0.00949492,1.639994,0.2703291,309.2027,71.65156,179.9729,True
7,2.522222,0.1710371,0.04444775,0.06588745,4.607052,-4.663478,-1.541104,0.2264417,1.411206,0.3511033,-1.042644,0.4490226,13.84615,43.71116,-0.02158339,0.007315326,-0.05089349,-0.2054975,-0.6184642,2.989601,0.3800079,1.492523,0.294167,0.033924,0.02563747,0.02357751,-1.475933,0.5755714,0.1590983,0.5397491,1.466239,0.1938026,-0.01114353,1.638401,0.2698961,308.721,71.36774,180.3246,True
7,2.533333,0.1891506,0.03366616,0.03184,4.606992,-4.664237,-1.543867,0.2264989,1.410988,0.3509071,-1.036283,0.5728259,13.87268,41.97557,-0.04398879,0.05300198,-0.03147065,-0.2054378,-0.6286177,3.000746,0.3801617,1.492588,0.2938352,-0.01836968,0.002155429,0.01125095,-1.476367,0.5747883,0.1614219,0.5401235,1.46624,0.1935523,-0.01272958,1.636366,0.2691364,308.2684,71.24071,180.4952,True
7,2.544444,0.1987465,0.02833357,0.02547692,4.606723,-4.66398,-1.54625,0.2262454,1.410596,0.3506238,-1.028117,0.7367053,13.74005,39.76859,-0.05879983,0.08589808,0.002784941,-0.2061755,-0.6394135,3.012485,0.3802029,1.492595,0.2936149,-0.02680662,-0.01064691,0.01877009,-1.475941,0.5742008,0.1619463,0.5403733,1.466232,0.1932979,-0.01448998,1.634076,0.2680992,307.7664,71.02972,180.5815,True
7,2.555555,0.1870207,0.03257386,0.02546233,4.606267,-4.663679,-1.547963,0.2263309,1.410208,0.3504395,-1.020913,0.6474285,13.44828,37.13306,-0.05991932,0.1135772,0.009247508,-0.2062842,-0.6506042,3.024154,0.3802981,1.492632,0.2933993,-0.0266718,-0.01599173,0.03261122,-1.475204,0.5736905,0.1622712,0.5405484,1.46631,0.1930475,-0.01657918,1.631812,0.2669849,307.097,70.82116,180.564,True
7,2.566666,0.1410889,0.08582691,0.03269668,4.602952,-4.662858,-1.547369,0.2267502,1.409489,0.3508596,-1.013452,0.6720113,13.07692,34.24041,-0.05467056,0.08595778,-0.01854261,-0.2051747,-0.6491403,3.023041,0.380319,1.492639,0.2932177,-0.02436344,-0.02240523,0.05069796,-1.47409,0.5731032,0.1624326,0.5406766,1.466434,0.1927781,-0.01894769,1.629486,0.2659668,306.4868,70.69744,180.475,True
7,2.577777,0.1069539,0.117831,0.05493329,4.600568,-4.661417,-1.547209,0.2268039,1.409153,0.3506713,-1.005615,0.7060264,12.70557,31.51918,-0.02742717,0.07876784,-0.09436443,-0.2017627,-0.650189,3.023516,0.3803692,1.492627,0.2930818,-0.03590513,-0.02031311,0.06998433,-1.472715,0.5727167,0.1632294,0.5407866,1.466538,0.1925406,-0.02151496,1.627028,0.2651087,305.8927,70.40105,180.6208,True
7,2.588888,0.1101634,0.1157725,0.06880223,4.599469,-4.66,-1.54848,0.2267599,1.409118,0.3500795,-0.996296,0.841437,12.38727,28.86222,-0.02316394,0.03834733,-0.1157892,-0.1999294,-0.644213,3.017786,0.3804309,1.492617,0.2929094,-0.04006127,-0.01607002,0.08174771,-1.471482,0.5725329,0.1638212,0.5409228,1.466603,0.1923389,-0.02402376,1.624366,0.2644765,305.1383,69.93024,180.917,True
7,2.599999,0.1388615,0.159621,0.0941608,4.596442,-4.657915,-1.550748,0.2268388,1.408842,0.349272,-0.9897196,0.5896428,12.09549,26.26955,-0.05605781,0.01903322,-0.1060371,-0.1992721,-0.6411218,3.016464,0.3804798,1.492543,0.2927549,-0.04746256,-0.01182355,0.08821493,-1.470314,0.5723858,0.1645889,0.5409997,1.466679,0.1921866,-0.02627604,1.621732,0.2642688,304.2577,69.1858,181.4757,True
7,2.61111,0.1557938,0.2268142,0.1044875,4.591743,-4.656301,-1.552831,0.2270184,1.408402,0.3487928,-0.9843949,0.4775262,11.85676,23.71973,-0.08794215,0.04868925,-0.07806263,-0.1992598,-0.6492321,3.026467,0.3806204,1.492605,0.2925091,-0.03458785,-0.00756002,0.0976892,-1.468953,0.5722076,0.1644766,0.5410553,1.466702,0.1920702,-0.0283191,1.619552,0.2643797,303.5712,68.37166,182.4416,True
7,2.622221,0.1460758,0.3109008,0.09339091,4.585644,-4.656405,-1.554317,0.2273479,1.408497,0.3484876,-0.9786686,0.51486,11.67109,21.2342,-0.09090418,0.04859188,-0.04182193,-0.1999171,-0.6525878,3.030731,0.3807755,1.492584,0.2922819,-0.003831696,-0.002186381,0.08355966,-1.468509,0.5721887,0.1635133,0.541092,1.466839,0.1919878,-0.03009372,1.617816,0.264498,303.1976,67.65611,183.5376,True
7,2.633332,0.1215505,0.3127973,0.05291213,4.581969,-4.657095,-1.554953,0.2274045,1.408282,0.3481905,-0.9714498,0.6507079,11.51194,18.79152,-0.07907961,0.08264055,-0.006663132,-0.200715,-0.6629676,3.041471,0.3809345,1.492522,0.2921138,0.01088519,0.005314136,0.06319108,-1.468444,0.5724999,0.1628584,0.5412146,1.466912,0.1918914,-0.03151464,1.616233,0.2644091,303.0689,66.92632,184.5039,True
7,2.644443,0.1068132,0.2039662,0.02254976,4.583357,-4.657683,-1.555822,0.2272941,1.408084,0.3476758,-0.9635056,0.7159635,11.35279,17.46304,-0.04283355,0.06678808,-0.01225332,-0.2003336,-0.6631956,3.040863,0.3810391,1.492438,0.2920039,0.01801441,0.01921232,0.03011367,-1.469158,0.5732756,0.1624629,0.5414013,1.466957,0.1918151,-0.03274368,1.614722,0.2641649,302.9329,66.20849,185.1416,True
7,2.655554,0.07291814,0.09313259,0.0262871,4.58594,-4.657332,-1.55555,0.2273707,1.407986,0.3477044,-0.9554644,0.7243801,11.19363,17.48446,-0.02910218,0.0338948,-0.0486369,-0.1986707,-0.658605,3.036178,0.3809996,1.492369,0.2918723,0.02513448,0.02778959,-0.005097606,-1.470325,0.5740956,0.1618619,0.5414778,1.467004,0.1917167,-0.03403816,1.613423,0.2640047,302.6889,65.65366,185.4829,True
7,2.666665,0.0442027,0.06977247,0.05199138,4.585621,-4.655578,-1.554843,0.2275037,1.407455,0.3472023,-0.9488033,0.5985129,11.00796,18.79152,-0.03243137,0.01903178,-0.07741511,-0.196781,-0.6555347,3.03377,0.3809433,1.492417,0.2917325,0.03468797,0.02781107,-0.008387402,-1.470448,0.5744922,0.1612054,0.5415481,1.467144,0.1916039,-0.03540927,1.612156,0.2639922,302.5046,65.42271,185.7039,True
7,2.677776,0.009074341,0.05913447,0.06803901,4.585322,-4.654207,-1.553556,0.2276012,1.40732,0.3472559,-0.9411883,0.6868797,10.76923,21.40561,-0.04232492,0.05741356,-0.1049603,-0.1944843,-0.6644217,3.043296,0.3808813,1.49249,0.2914975,0.02958157,0.03629802,0.01617498,-1.469338,0.5750327,0.1609857,0.5415611,1.467259,0.1914353,-0.03679887,1.610691,0.2638868,302.3449,65.46952,185.888,True
7,2.688887,0.01772697,-0.02510248,0.04820777,4.587879,-4.654134,-1.554011,0.2278093,1.407262,0.346982,-0.9343562,0.6145675,10.50398,25.21962,-0.04013632,0.09570259,-0.07505706,-0.1944156,-0.6765667,3.055591,0.3809803,1.492517,0.291317,0.02560446,0.03732201,0.0471085,-1.467697,0.5752905,0.1608648,0.5416098,1.46742,0.1912639,-0.03811425,1.608969,0.2635129,302.0512,65.32588,186.206,True
7,2.699998,0.02310213,-0.05711236,0.03557297,4.589561,-4.654178,-1.554451,0.2279332,1.407316,0.3469985,-0.9275103,0.6167839,10.13263,29.48361,-0.03782795,0.1147968,-0.03667621,-0.1952608,-0.6873541,3.066525,0.381165,1.492524,0.2911408,0.01428954,0.02979954,0.08982126,-1.46524,0.5750182,0.1611402,0.5415545,1.467499,0.191138,-0.03931357,1.607093,0.2627999,301.6634,64.78036,186.7579,True
7,2.711109,0.0488513,-0.1777125,-0.02031164,4.595521,-4.65613,-1.556214,0.2281393,1.40759,0.3467085,-0.9230117,0.4021827,9.655171,33.919,-0.01507427,0.08280717,0.00677751,-0.1969258,-0.6855296,3.064153,0.3814389,1.492442,0.2910538,0.004996959,0.0233561,0.1207942,-1.462821,0.5746625,0.161439,0.5415434,1.467612,0.1909981,-0.04049201,1.605366,0.2618298,301.1396,64.32049,187.1025,True
7,2.72222,0.0659514,-0.2182622,-0.0424856,4.598864,-4.657079,-1.557555,0.228237,1.407687,0.3466375,-0.917231,0.5214052,9.124667,38.16156,0.01268743,0.05947065,0.004405253,-0.1965727,-0.6844953,3.062079,0.3815344,1.492539,0.2909784,0.009289395,0.02442142,0.1250218,-1.461282,0.5747499,0.1612525,0.5414718,1.467732,0.190866,-0.04158749,1.603766,0.2606415,300.6459,64.33784,186.9638,True
7,2.733331,0.06494103,-0.2534689,-0.05297123,4.602909,-4.658079,-1.558381,0.2284086,1.408027,0.3468397,-0.9125449,0.4202242,8.56764,41.24706,0.03637376,0.02009422,0.02227474,-0.1975821,-0.6784949,3.054885,0.381653,1.492696,0.2908287,0.03437707,0.02664816,0.0736547,-1.462074,0.5752915,0.1599396,0.5416655,1.467826,0.1906919,-0.04266877,1.602317,0.2593749,300.2147,64.5527,186.5836,True
7,2.744442,0.04258408,-0.259943,-0.06045981,4.606009,-4.660041,-1.558366,0.2289622,1.409264,0.348001,-0.9067659,0.5212359,8.063659,43.28262,0.02992936,0.0200917,0.01377975,-0.1971836,-0.6799045,3.056244,0.3816663,1.49281,0.2906868,0.04034969,0.01606802,0.02777469,-1.463323,0.5753796,0.1593532,0.5417315,1.467934,0.190531,-0.04374398,1.600864,0.2580542,299.8474,65.11373,185.9213,True
7,2.755553,0.01809322,-0.2642109,-0.05296999,4.609063,-4.660405,-1.557758,0.2290578,1.409707,0.3481774,-0.9008179,0.5358496,7.692308,44.35398,0.02561661,0.04882256,0.02133058,-0.19754,-0.6876794,3.063768,0.381774,1.492972,0.2905047,0.02394953,-0.006257945,-0.02004256,-1.465391,0.5748495,0.1597044,0.5418363,1.468038,0.190383,-0.04487024,1.599368,0.2568243,299.4626,65.43024,185.382,True
7,2.766664,-0.008539271,-0.2652903,-0.04449109,4.612164,-4.661484,-1.556735,0.2293829,1.411096,0.3495626,-0.8946852,0.5528921,7.400529,44.56824,0.0256138,0.06903584,0.03203003,-0.1981125,-0.6955231,3.071183,0.3818521,1.493153,0.2903006,0.02002179,-0.02015848,0.01406791,-1.464053,0.5738995,0.1597572,0.5418277,1.468213,0.1902335,-0.04610408,1.597977,0.2558556,298.8376,65.56669,184.919,True
7,2.777775,-0.01278278,-0.2737897,-0.03805702,4.615472,-4.661733,-1.556449,0.2294917,1.411807,0.3496845,-0.8891672,0.4966116,7.214853,44.16113,0.01618093,0.04766735,0.04482437,-0.1990468,-0.6948416,3.070661,0.3820632,1.493378,0.290097,0.01595318,-0.01486484,0.03541964,-1.46292,0.5737293,0.1597412,0.5418772,1.46836,0.1900666,-0.04739422,1.596957,0.2554392,298.0645,65.65631,184.5464,True
7,2.788886,-0.008546221,-0.2449781,-0.03178226,4.616985,-4.661712,-1.556942,0.22916,1.411579,0.3487759,-0.8837327,0.4894365,7.161804,43.88258,0.02092825,0.03047933,0.1118669,-0.2024343,-0.6936435,3.069128,0.3823715,1.493501,0.2898779,0.001137344,0.006411377,0.04836379,-1.461848,0.57451,0.1601156,0.5420005,1.468519,0.1898613,-0.04856288,1.596277,0.2555486,297.5013,65.64088,184.5117,True
7,2.799997,-0.04599334,-0.1480559,-0.02263536,4.615303,-4.661627,-1.555159,0.2293167,1.411927,0.348711,-0.8796266,0.3680723,7.320952,43.41119,0.02533168,0.02193362,0.1299286,-0.204306,-0.6949937,3.070009,0.3825569,1.49366,0.289633,-0.000960594,0.01279514,0.0526531,-1.46105,0.5747852,0.1601734,0.5421056,1.468623,0.1896789,-0.0495679,1.596078,0.2561832,297.0714,65.64842,184.6055,True
7,2.811108,-0.09198256,-0.03082045,0.004542868,4.611354,-4.660323,-1.552432,0.2290266,1.411747,0.3478603,-0.8754578,0.3746347,7.692308,42.68266,0.02750014,0.007031888,0.1277497,-0.2056695,-0.6933274,3.067995,0.3827036,1.493835,0.2894602,-0.01482422,-0.04046973,0.04418732,-1.461309,0.5725022,0.1609039,0.5420628,1.46871,0.1895671,-0.05023262,1.595996,0.2569886,297.1798,65.68916,185.0664,True
7,2.822219,-0.1090609,-0.01277397,-0.0008439277,4.6113,-4.660323,-1.550769,0.2289403,1.411889,0.3467712,-0.8680691,0.6687238,8.222812,41.67559,0.02331138,0.009107262,0.1405694,-0.2076616,-0.6941764,3.068773,0.3828854,1.493937,0.289361,-0.03930488,-0.05434436,0.04545158,-1.461094,0.5714111,0.1623743,0.5421333,1.468827,0.1894538,-0.05069559,1.595683,0.2575432,297.5936,65.53855,185.7268,True
7,2.83333,-0.1250224,-0.02129328,0.005596446,4.611825,-4.660082,-1.548813,0.2288773,1.412464,0.3466322,-0.8617936,0.5644463,8.806365,40.32569,0.01893922,0.01977248,0.1289032,-0.2086864,-0.6975461,3.071991,0.3830428,1.493957,0.2891684,-0.05413917,-0.009636925,0.05949797,-1.459714,0.5725089,0.1634611,0.5421456,1.468853,0.1893387,-0.05122563,1.595296,0.2577843,297.7294,64.97249,186.4698,True
7,2.844441,-0.1665707,-0.02338465,0.02159463,4.612417,-4.659441,-1.5461,0.2289691,1.41275,0.3454833,-0.8573269,0.4000718,9.257293,38.86865,-0.01631488,0.00372798,0.1045872,-0.2089719,-0.695215,3.071104,0.3832561,1.494053,0.2889216,-0.03189518,0.01809549,0.04973133,-1.459412,0.5736307,0.1629503,0.5422583,1.468881,0.1891975,-0.05192785,1.594926,0.2576258,297.7477,64.25976,187.3394,True
7,2.855552,-0.2006513,-0.02023391,0.03227737,4.612491,-4.658406,-1.542068,0.2289947,1.41335,0.3453541,-0.8516304,0.5136672,9.575595,37.34733,-0.04903629,-0.02522319,0.1366874,-0.2115642,-0.689988,3.067671,0.3835541,1.494243,0.2886693,0.00084526,0.0224331,0.01960269,-1.460107,0.5741889,0.1617436,0.5423398,1.468884,0.1891019,-0.0527481,1.594524,0.2569427,297.5807,64.07065,187.6517,True
7,2.866663,-0.2251761,-0.004214443,0.05139848,4.612122,-4.657038,-1.538592,0.2291861,1.413996,0.3452544,-0.8450221,0.5955967,9.761274,35.80459,-0.01882426,-0.01142874,0.2047083,-0.2160692,-0.6930208,3.069886,0.3839242,1.494401,0.2884383,0.0110452,-0.003056293,-0.0316634,-1.462317,0.5735198,0.1614832,0.5424829,1.468865,0.189008,-0.05364606,1.594114,0.2558339,297.2614,64.04034,187.6057,True
7,2.877774,-0.232625,-0.004151344,0.06738156,4.612194,-4.655745,-1.535654,0.2292165,1.414736,0.3451412,-0.8375934,0.6698959,9.787797,34.32611,-0.005958095,-0.00609497,0.2206188,-0.2190301,-0.6945098,3.070973,0.3842784,1.494488,0.2882223,0.01293973,-0.01367175,-0.05832864,-1.463936,0.5732614,0.1613087,0.5426033,1.468892,0.1889014,-0.05448781,1.593658,0.2543365,296.9076,63.88015,187.597,True
7,2.888885,-0.2539087,-0.0234421,0.05365277,4.613329,-4.655454,-1.532202,0.2293348,1.415378,0.3439724,-0.8317968,0.519971,9.602121,33.21191,0.005907118,-0.0241958,0.2343483,-0.2221428,-0.6918397,3.067833,0.384579,1.494627,0.2879801,0.00213437,-0.0136669,-0.07420591,-1.465206,0.573254,0.1617892,0.5426791,1.468941,0.1887658,-0.0552781,1.593361,0.2527005,296.4183,63.60619,187.4545,True
7,2.899997,-0.268786,-0.04909491,0.04099882,4.614733,-4.65549,-1.528727,0.2293286,1.416287,0.3439515,-0.8257951,0.5398017,9.310343,32.16199,0.01469922,-0.05937497,0.2576481,-0.2259554,-0.6845349,3.060214,0.3848856,1.494773,0.2877417,-0.007128026,-0.01904618,-0.04003636,-1.464474,0.5728207,0.1621953,0.5427371,1.469021,0.1887007,-0.05591061,1.593271,0.2511664,295.9822,63.3521,187.2621,True
7,2.911108,-0.2772646,-0.1109491,0.01681046,4.617162,-4.656202,-1.524774,0.2296824,1.417783,0.3462422,-0.8182754,0.6779918,8.885942,31.09064,0.006386757,-0.06799112,0.286438,-0.2299714,-0.6815351,3.057546,0.3850953,1.495003,0.287524,-0.01747798,-0.01484045,-0.00690884,-1.463454,0.572615,0.1627583,0.5427958,1.469098,0.1885662,-0.05643988,1.593371,0.249833,295.7751,63.2349,187.1647,True
7,2.922219,-0.2899196,-0.187709,0.009738114,4.621731,-4.656292,-1.52128,0.2294606,1.419104,0.3463511,-0.8109091,0.6626738,8.435014,29.93357,0.005398005,-0.07759323,0.2928185,-0.2333797,-0.6782603,3.054369,0.3852406,1.495149,0.2873173,-0.01113634,0.008616718,-0.01013889,-1.46367,0.5736295,0.1624558,0.542787,1.469196,0.1884496,-0.05693006,1.59357,0.2486141,295.6871,63.33877,187.0398,True
7,2.93333,-0.3207278,-0.242146,-0.00170462,4.626197,-4.656905,-1.516802,0.2293937,1.420363,0.3466699,-0.8029106,0.7205693,8.090186,28.49796,0.0097377,-0.06909563,0.3098558,-0.2374443,-0.6777271,3.05359,0.3854499,1.495401,0.2870479,-0.008062581,0.02035396,-0.02187083,-1.464184,0.5743079,0.1623719,0.5428638,1.469256,0.1883411,-0.05748009,1.593875,0.2477219,295.387,63.71192,186.2489,True
7,2.944441,-0.3484541,-0.2581684,-0.01652081,4.628289,-4.657752,-1.511526,0.2297601,1.422164,0.3493085,-0.7958537,0.6340311,7.851457,26.80523,0.01287359,-0.04246679,0.3141663,-0.2410725,-0.680773,3.05623,0.3857833,1.495748,0.2868509,-0.01012751,0.02566629,-0.01438623,-1.464053,0.5746674,0.1624781,0.5429682,1.469318,0.1882725,-0.05811116,1.594353,0.2476047,294.9478,64.18482,185.2496,True
7,2.955552,-0.371872,-0.2829012,-0.05687235,4.632161,-4.660027,-1.506774,0.229813,1.423474,0.3497472,-0.7873199,0.7697876,7.745358,25.06964,0.02122501,-0.03599128,0.2906913,-0.2435258,-0.6811242,3.056062,0.3861363,1.49618,0.2865486,-0.01017634,0.01608704,-0.02079043,-1.464507,0.5746071,0.1625903,0.5430936,1.469373,0.1881394,-0.05891231,1.594965,0.2480486,294.8166,64.57995,184.9973,True
7,2.966663,-0.3654411,-0.2894072,-0.08354396,4.635404,-4.662895,-1.503958,0.2300455,1.425848,0.3517246,-0.7788388,0.7638001,7.745358,23.3769,0.02865309,-0.0551112,0.275691,-0.2462231,-0.6764511,3.050976,0.3866216,1.496541,0.2862058,-0.008232566,0.01184533,-0.04106032,-1.465718,0.5746188,0.162651,0.5432303,1.469417,0.187993,-0.05975559,1.595589,0.2488695,294.5966,64.8531,184.8721,True
7,2.977774,-0.3078851,-0.3225518,-0.1292263,4.639892,-4.666261,-1.502754,0.2302978,1.42725,0.3522222,-0.7716286,0.6477832,7.824934,21.81273,0.05580619,-0.07116808,0.3489889,-0.25271,-0.6729811,3.046064,0.3870314,1.496927,0.2858603,-0.02665669,0.0097392,-0.07498263,-1.467662,0.5749875,0.1635532,0.5434235,1.469411,0.1878042,-0.06054166,1.596342,0.2502714,294.217,64.9751,184.7187,True
7,2.988885,-0.2684463,-0.3352738,-0.1259732,4.644109,-4.667539,-1.501279,0.230087,1.428116,0.3507543,-0.7660626,0.4984701,7.931033,20.59138,0.08045956,-0.04772636,0.38617,-0.2581967,-0.6765899,3.047905,0.3874106,1.4971,0.2855282,-0.06005997,0.01614662,-0.1151536,-1.470262,0.5758353,0.1651969,0.5435887,1.469497,0.1876643,-0.06132862,1.597277,0.2520745,293.9487,65.24732,184.7104,True
7,2.999996,-0.2503451,-0.3277566,-0.119627,4.647415,-4.668868,-1.499292,0.2302154,1.429271,0.3510799,-0.760243,0.5228391,8.01061,19.45575,0.070692,-0.03067267,0.3670982,-0.2615011,-0.6785663,3.049426,0.3876244,1.497324,0.285181,-0.09718215,0.01715099,-0.09775963,-1.470594,0.5762208,0.1673498,0.5437217,1.46958,0.1875257,-0.06212346,1.598389,0.2542525,293.7736,65.69633,184.6024,True
7,3.011107,-0.2727318,-0.3021961,-0.1133997,4.649749,-4.670746,-1.4958,0.2304182,1.431023,0.3520856,-0.7525821,0.6907053,8.037136,18.23441,0.04710257,-0.03708173,0.3395346,-0.2643549,-0.6771662,3.048362,0.3878749,1.49762,0.2848597,-0.1064785,0.005382909,-0.06785879,-1.470377,0.575832,0.1688929,0.5438464,1.469649,0.1873364,-0.06278853,1.599155,0.2563662,294.0784,66.10682,185.0481,True
7,3.022218,-0.3431733,-0.2234752,-0.1094622,4.649524,-4.671751,-1.489435,0.2302065,1.431251,0.3502693,-0.7444787,0.7299153,8.037136,16.99164,0.007558882,-0.03930104,0.3184758,-0.2673132,-0.6759012,3.0484,0.388135,1.497933,0.2844496,-0.09104804,-0.01383381,-0.01581779,-1.468895,0.5748747,0.1692591,0.5438995,1.469746,0.1871772,-0.06353715,1.599344,0.2576698,294.4748,66.17838,185.9733,True
7,3.033329,-0.3666785,-0.1852089,-0.1192188,4.650156,-4.673486,-1.484671,0.2302534,1.432206,0.3504817,-0.7355971,0.8011994,8.01061,15.62031,-0.009928092,-0.02643131,0.2557625,-0.2680248,-0.6768256,3.050031,0.388444,1.498209,0.2840979,-0.1068394,-0.01281307,0.004572216,-1.468258,0.5746391,0.1709472,0.5440651,1.469787,0.1869826,-0.06449839,1.599039,0.2580449,294.2632,66.19141,186.2152,True
7,3.04444,-0.3581791,-0.1777565,-0.1213782,4.652066,-4.674967,-1.481074,0.230295,1.432816,0.3495798,-0.725713,0.8925002,7.90451,13.949,0.006125972,-0.02002083,0.2706052,-0.2717426,-0.6777868,3.050228,0.3889334,1.498566,0.283731,-0.1078271,-0.003237505,0.01417728,-1.467927,0.5749404,0.1721979,0.5443201,1.469729,0.1868167,-0.0657681,1.598615,0.2577509,293.6706,66.06617,186.2478,True
7,3.055551,-0.3208842,-0.1840918,-0.1224333,4.654204,-4.676573,-1.478926,0.2304575,1.433743,0.349798,-0.7205246,0.4628287,7.745358,12.3634,0.05214262,-0.02206624,0.3022683,-0.2762007,-0.6782739,3.048591,0.3893638,1.498779,0.2833972,-0.09420207,0.001069998,-0.009381652,-1.468732,0.575289,0.1727619,0.5445291,1.469698,0.1866167,-0.06712225,1.598226,0.2568045,293.0844,65.64021,186.6406,True
7,3.066662,-0.2814931,-0.1722935,-0.1150447,4.656034,-4.677658,-1.477102,0.2307556,1.434242,0.3483334,-0.7156697,0.4362749,7.506632,10.99207,0.06606737,-0.04119474,0.3042688,-0.2798045,-0.6754999,3.044807,0.389717,1.499014,0.2831728,-0.08271419,-0.00101805,-0.03399218,-1.469996,0.5753543,0.1733049,0.5447286,1.469734,0.1864693,-0.06829191,1.598023,0.2555311,292.4663,65.60808,186.4131,True
7,3.077773,-0.2623555,-0.1466634,-0.1077127,4.656738,-4.678571,-1.474754,0.2308821,1.435009,0.3485396,-0.7110411,0.4153446,7.24138,9.942146,0.04251465,-0.04655346,0.2830994,-0.2822578,-0.6737662,3.043471,0.3900774,1.499152,0.2828884,-0.06569522,-0.005255729,-0.03735245,-1.470583,0.5752321,0.1734597,0.5449754,1.469735,0.1863112,-0.06909333,1.597925,0.2540928,292.0286,65.98522,185.7595,True
7,3.088884,-0.2560208,-0.1168585,-0.1035969,4.657742,-4.679717,-1.472018,0.2308033,1.434906,0.3449359,-0.705474,0.5015265,6.976128,9.449324,0.02758679,-0.03915372,0.2864066,-0.2854738,-0.6744424,3.044538,0.3903841,1.499427,0.2826023,-0.04855958,-0.006318344,-0.02792072,-1.470461,0.5750291,0.1734613,0.545147,1.469743,0.1861463,-0.06953534,1.597874,0.252748,291.7829,66.46471,185.007,True
7,3.099995,-0.2508039,-0.04967059,-0.09113818,4.655872,-4.680197,-1.469229,0.2309603,1.435264,0.3449109,-0.6991149,0.573345,6.790449,9.213628,0.03071135,-0.03805275,0.2757362,-0.2882243,-0.6740855,3.043735,0.390739,1.499563,0.2823408,-0.03142825,-0.01163191,-0.01956725,-1.470474,0.574816,0.1732661,0.5453219,1.469734,0.1859856,-0.06972554,1.597775,0.2514795,291.7073,66.77464,184.5686,True
7,3.111106,-0.2903711,0.04619005,-0.07879212,4.652322,-4.680388,-1.464551,0.2311865,1.43543,0.3445117,-0.6930472,0.5463032,6.737399,9.106493,0.03463189,-0.06665015,0.2063999,-0.2883974,-0.6674966,3.036845,0.3910953,1.499617,0.2820368,-0.03684988,-0.006298983,-0.02909783,-1.471098,0.5750535,0.1738376,0.5455958,1.469722,0.1858184,-0.06996568,1.597731,0.2503822,291.7539,66.79904,184.607,True
7,3.122217,-0.2926064,0.1271788,-0.06751807,4.648779,-4.681295,-1.461558,0.2316736,1.435982,0.3440886,-0.6877752,0.4742332,6.763926,9.106493,0.05804846,-0.07293438,0.1987751,-0.290504,-0.6650025,3.033005,0.3912868,1.499811,0.2818446,-0.08695649,-0.007419189,-0.03288599,-1.471519,0.5749092,0.1765742,0.5458734,1.469611,0.1855381,-0.07031944,1.59762,0.249062,291.8756,66.66317,185.0901,True
7,3.133328,-0.2254559,0.1006077,-0.07701829,4.648339,-4.682439,-1.461248,0.2318135,1.43637,0.3440187,-0.6810843,0.6047833,6.896552,9.085064,0.06962517,-0.05156328,0.1880978,-0.2922398,-0.6661317,3.032933,0.3914892,1.499919,0.2816577,-0.1147126,-0.007442239,-0.03901928,-1.472155,0.5749426,0.1787857,0.5461167,1.469573,0.1853545,-0.07070924,1.597477,0.2478633,291.6622,66.38889,185.0229,True
7,3.144439,-0.1486889,0.06550369,-0.08865692,4.649197,-4.684586,-1.462664,0.2320519,1.436737,0.3438349,-0.6780317,0.2711665,7.108754,8.635095,0.06285858,-0.05676785,0.1263369,-0.2916481,-0.6632754,3.029753,0.3916751,1.499927,0.2813501,-0.124256,-4.177913E-06,-0.03359046,-1.47223,0.5752059,0.1803242,0.5462621,1.469609,0.1851628,-0.07107264,1.59751,0.2471162,291.2567,65.70127,185.2562,True
7,3.15555,-0.09538197,0.03679541,-0.09494214,4.649704,-4.685937,-1.463639,0.2322735,1.436927,0.3436925,-0.6766352,0.1229897,7.374006,7.970859,0.01982155,-0.03122582,0.07340279,-0.2906265,-0.6644241,3.03205,0.3917857,1.49991,0.2811201,-0.1071027,-1.629815E-07,-0.02203158,-1.472104,0.5751662,0.1809759,0.5464197,1.469629,0.1850314,-0.07128985,1.597824,0.2470055,290.9561,65.29786,185.463,True
7,3.166661,-0.09539252,0.05491576,-0.09079042,4.648475,-4.687008,-1.46263,0.23267,1.437227,0.3434105,-0.6743816,0.2022594,7.665781,7.092349,-0.003809642,0.02196332,0.07155114,-0.2913573,-0.6716793,3.039802,0.3921063,1.500092,0.2808807,-0.08245711,0.003194425,-0.00627479,-1.47161,0.5750735,0.1810108,0.5465729,1.469573,0.1848633,-0.07136227,1.59817,0.2474906,291.035,65.60464,185.2723,True
7,3.177772,-0.1039782,0.1007906,-0.07395907,4.645735,-4.686936,-1.46117,0.232887,1.437296,0.3432066,-0.6702819,0.3707231,7.95756,6.14956,-0.01118668,0.01446072,0.08010317,-0.2925371,-0.6718183,3.040303,0.3924458,1.500191,0.280637,-0.05570631,0.01172889,0.007336443,-1.470927,0.5753953,0.1806081,0.5467415,1.469558,0.1847534,-0.07139214,1.598216,0.2484017,291.347,66.06535,185.1272,True
7,3.188883,-0.1147017,0.1541977,-0.04011039,4.642079,-4.685531,-1.459239,0.2330767,1.437343,0.3429468,-0.6648981,0.487071,8.143235,5.442467,-0.0108193,-0.01759169,0.1205134,-0.295548,-0.6677852,3.036458,0.3929394,1.500324,0.2805407,-0.04940786,0.007485721,-0.003380449,-1.471431,0.5753557,0.1810374,0.5470707,1.469511,0.1846268,-0.07154789,1.597834,0.2495186,291.57,65.96791,185.6075,True
7,3.199994,-0.1062981,0.2363633,-0.01598807,4.636475,-4.683947,-1.458334,0.2327863,1.436585,0.3429215,-0.6615382,0.3016166,8.355438,4.885363,0.008490056,-0.03885298,0.1299297,-0.2974495,-0.6644688,3.032513,0.3933596,1.50038,0.2803619,-0.04110011,-0.01058677,-0.0290482,-1.47269,0.5748264,0.1812529,0.5474135,1.469453,0.1845396,-0.07191834,1.597226,0.2506441,291.4729,65.18164,186.7771,True
7,3.211105,-0.09777336,0.2299193,-0.0298112,4.634025,-4.68446,-1.457569,0.2329924,1.436615,0.3428938,-0.6588826,0.2392378,8.620689,4.456822,0.02129026,-0.05583829,0.1223525,-0.2986011,-0.6606449,3.028049,0.3936914,1.500302,0.2802944,-0.02430951,-0.008402985,-0.05583676,-1.474167,0.5750182,0.1810108,0.5477872,1.469408,0.1844544,-0.07241113,1.596616,0.2516171,291.2225,63.98586,188.3054,True
7,3.222216,-0.06675684,0.1542386,-0.04656083,4.635169,-4.686516,-1.458127,0.233532,1.43685,0.3429403,-0.6580032,0.07744656,8.938992,4.135417,0.03894875,-0.0353912,0.06156216,-0.2971725,-0.6615962,3.0279,0.3937839,1.500295,0.2802594,-0.01581546,0.001189879,-0.05803775,-1.474868,0.5753785,0.1808278,0.5480869,1.46935,0.1843486,-0.07286664,1.596164,0.2522907,291.0462,62.73766,189.7697,True
7,3.233327,-0.02191291,0.09146363,-0.0452214,4.636276,-4.687113,-1.459487,0.2338242,1.436839,0.3429854,-0.6564447,0.1409586,9.336869,3.878293,0.03432812,-0.007612631,0.02010807,-0.2960615,-0.6639847,3.029958,0.3939205,1.500337,0.2802272,-0.02969788,0.0043766,-0.06109632,-1.475474,0.5757494,0.1816244,0.548231,1.469256,0.1841438,-0.07321282,1.595826,0.2526707,291.0692,61.79391,190.7311,True
7,3.244438,-0.01334166,0.0681814,-0.01740267,4.636235,-4.6861,-1.459576,0.2341184,1.436238,0.3431823,-0.6561363,0.02601446,9.840847,3.556887,0.03516397,-0.005396439,-0.01504832,-0.2949099,-0.6633996,3.029003,0.3942185,1.500338,0.2801168,-0.05306964,0.003277721,-0.05448825,-1.475859,0.575773,0.1829805,0.5484275,1.469202,0.1839738,-0.07337831,1.595598,0.2528263,290.9553,61.60174,190.8992,True
7,3.255549,-0.03999406,0.08200745,-0.01319261,4.634861,-4.685946,-1.458223,0.2344358,1.435998,0.3431525,-0.6557789,0.03164827,10.34483,3.192628,0.04456394,0.01172818,-0.03530958,-0.2937413,-0.6653511,3.030064,0.3945121,1.500354,0.2799792,-0.06136174,0.01069166,-0.02883301,-1.475283,0.5760283,0.1839515,0.548626,1.469214,0.1838832,-0.07325558,1.595362,0.2528565,290.8104,62.1814,190.2939,True
7,3.26666,-0.04317032,0.06587569,-0.03978958,4.634693,-4.687999,-1.457822,0.234889,1.435984,0.3431885,-0.653439,0.2128098,10.74271,2.806941,0.04882941,0.03089539,-0.02463803,-0.2938841,-0.6688178,3.032646,0.3947989,1.500273,0.2799408,-0.03876251,0.01600981,-0.004537072,-1.474521,0.5762314,0.1834939,0.5488629,1.469186,0.1838508,-0.07290461,1.594977,0.2527945,290.8741,62.65961,189.7473,True
7,3.277771,-0.02822917,0.01265454,-0.0406153,4.63588,-4.688792,-1.457176,0.2355328,1.435713,0.3433533,-0.6507562,0.2427965,11.03448,2.421253,0.0468692,0.04997721,0.01270465,-0.2952402,-0.6737262,3.036895,0.3952101,1.500182,0.2798662,-0.02176568,0.0160316,-0.01002271,-1.474864,0.576386,0.1831142,0.5491503,1.469122,0.183753,-0.07245325,1.594395,0.2526259,291.0021,62.54072,189.765,True
7,3.288882,0.0208922,-0.04479607,-0.03935355,4.638376,-4.690226,-1.459634,0.2358849,1.435899,0.343492,-0.6505868,0.01308641,11.11406,2.099847,0.04288867,0.007304154,0.03287044,-0.2964152,-0.6691392,3.032104,0.3954564,1.500082,0.2798574,-0.01005611,0.01392342,-0.0111925,-1.474912,0.5766096,0.1827911,0.5494671,1.469126,0.183671,-0.07217696,1.593916,0.2524042,290.9108,62.2057,190.0027,True
7,3.299993,-0.01531209,-0.06092385,-0.0573583,4.639872,-4.691496,-1.458309,0.2360998,1.435926,0.3436658,-0.6498976,0.06269677,10.98143,1.821298,0.0397073,-0.03101198,0.01362509,-0.2960471,-0.6634241,3.026233,0.3956186,1.500056,0.2798452,-0.03238143,-0.01699401,-0.00995161,-1.475059,0.575431,0.1840628,0.5497004,1.469086,0.1835434,-0.07196967,1.593569,0.2522981,290.6945,62.36813,189.7409,True
7,3.311104,-0.05147814,-0.08859267,-0.0390968,4.64204,-4.691428,-1.456478,0.2364077,1.435902,0.3437803,-0.6522896,-0.2196657,10.82228,1.628453,0.03071965,0.01168538,-0.03628946,-0.2937946,-0.6674814,3.030081,0.3957524,1.50012,0.2798071,-0.0494667,-0.02446345,-0.01512885,-1.47549,0.5749548,0.1852237,0.5499408,1.46906,0.1834724,-0.07164733,1.593276,0.2523677,290.5222,62.72782,189.3504,True
7,3.322215,-0.05358362,-0.09818979,-0.04435077,4.64279,-4.691823,-1.456036,0.2361193,1.435802,0.3440669,-0.6482283,0.3728802,10.61008,1.499893,0.03375483,0.04580903,-0.04369219,-0.2929078,-0.6735206,3.03528,0.3960216,1.500193,0.279763,-0.03990257,-0.006341973,-0.01519597,-1.475547,0.5755872,0.1852764,0.5501779,1.469058,0.1834006,-0.07141513,1.593021,0.2525816,290.5475,63.34125,188.7923,True
7,3.333326,-0.04824206,-0.1012909,-0.0262287,4.644035,-4.69164,-1.455644,0.2363341,1.435906,0.3442266,-0.6469633,0.1119728,10.47745,1.435611,0.02213404,0.03722144,-0.03298496,-0.2928774,-0.674001,3.035885,0.3963411,1.500206,0.2797048,-0.01123821,0.009681289,-0.0239649,-1.475964,0.5762964,0.1844511,0.5504569,1.469085,0.1833138,-0.07135424,1.592839,0.2529133,290.524,63.54055,188.6765,True
7,3.344437,-0.02907204,-0.1012656,-0.0251628,4.645281,-4.691849,-1.455935,0.2365128,1.436103,0.3441987,-0.6480312,-0.09842129,10.50398,1.392758,0.0363174,0.007361701,0.004133176,-0.2941499,-0.6708202,3.032065,0.396567,1.500245,0.2796659,0.004723324,0.008641685,-0.02624267,-1.476258,0.576429,0.1838604,0.550589,1.469085,0.1832261,-0.07134842,1.592798,0.2532503,290.4638,63.60616,188.7438,True
7,3.355548,0.007204077,-0.1406796,-0.03671332,4.648105,-4.692992,-1.457386,0.236766,1.436372,0.3443511,-0.6480355,0.0004274425,10.61008,1.392758,0.06317729,0.002051748,0.03697532,-0.2956865,-0.6711693,3.030813,0.3968729,1.500296,0.2796354,-0.006871215,-0.01269149,-0.01550913,-1.476246,0.5755559,0.1843589,0.5508007,1.469098,0.1831589,-0.07144178,1.59292,0.2535662,290.4813,63.68162,188.745,True
7,3.366659,0.01355418,-0.1630135,-0.03875092,4.64994,-4.694001,-1.456666,0.2375282,1.436336,0.3445077,-0.6484126,-0.03477598,10.76923,1.392758,0.05250383,-0.008617371,0.02849131,-0.2955885,-0.6698769,3.029405,0.3971815,1.500293,0.2795954,-0.02906599,-0.01700154,0.002803355,-1.475687,0.5750715,0.1854876,0.5511374,1.46912,0.1831398,-0.07139693,1.593057,0.253792,290.4767,63.70403,188.822,True
7,3.37777,-0.005622617,-0.1608974,-0.03555379,4.651615,-4.694492,-1.455963,0.2378436,1.436529,0.3445644,-0.6492409,-0.07563667,10.98143,1.435611,0.02550621,0.01695758,-0.01495649,-0.2938085,-0.6728964,3.032984,0.3974068,1.500417,0.2795711,-0.03322577,-0.001043731,0.0156472,-1.475,0.575464,0.18596,0.5513896,1.469136,0.1830959,-0.07122745,1.593177,0.2538671,290.4767,63.96727,188.6574,True
7,3.388881,-0.01422444,-0.1011719,-0.01556835,4.650794,-4.693471,-1.45528,0.2379226,1.437244,0.3443346,-0.6468717,0.2169997,11.19363,1.521318,0.01398092,0.01365271,0.01387409,-0.2948695,-0.6736623,3.034005,0.3978869,1.500585,0.279659,-0.02688256,0.001095605,0.01026386,-1.475101,0.5755764,0.1859414,0.5517476,1.469117,0.1831534,-0.07087919,1.593105,0.2538149,290.4846,64.5853,188.0501,True
7,3.399992,-0.007875465,-0.07560295,-0.0167517,4.650888,-4.693589,-1.455411,0.2380896,1.437689,0.3443263,-0.6467189,0.0122843,11.29973,1.5856,0.01336145,-0.01524276,0.06814256,-0.297653,-0.6705624,3.030865,0.3983739,1.500578,0.2796586,-0.005743014,-0.0276173,-0.01127864,-1.476214,0.574446,0.1853757,0.5520715,1.469092,0.1831613,-0.07034004,1.59287,0.2537162,290.3832,64.92497,187.6446,True
7,3.411103,-0.03132426,-0.05755531,-0.01580175,4.651543,-4.694436,-1.454664,0.2385664,1.43841,0.3441381,-0.6472334,-0.04647907,11.29973,1.564171,0.02021052,-0.08134969,0.1041709,-0.3002975,-0.6612113,3.021436,0.3987324,1.500604,0.2796113,0.009124847,-0.05528099,-0.01997663,-1.476959,0.5731105,0.1848844,0.5524255,1.469059,0.1831694,-0.06997771,1.592885,0.2535853,290.2246,64.84689,187.6951,True
7,3.422215,-0.05797583,-0.04267941,-0.01584034,4.651581,-4.694363,-1.45321,0.2385678,1.438808,0.3441563,-0.6486038,-0.1243274,11.22016,1.414183,0.006358415,-0.08352628,0.1031861,-0.3013409,-0.6586105,3.019428,0.3989629,1.500585,0.2795048,-0.004871057,-0.0371655,-0.03367214,-1.477654,0.5735078,0.1853776,0.5527631,1.469028,0.1831677,-0.06986953,1.593406,0.2533778,290.0866,64.40934,188.1455,True
