loc,t,aDotS,bDotS,gDotS,aS,bS,gS,xS,yS,zS,qE,qDotE,emgA,emgB,aDotSH,bDotSH,gDotSH,aSH,bSH,gSH,xSH,ySH,zSH,aDotUB,bDotUB,gDotUB,aUB,bUB,gUB,xUB,yUB,zUB,xHand,yHand,zHand,aHand,bHand,gHand,enable
3,0,-0.2717338,-0.5013233,0.3519045,-1.343144,-4.420326,-2.425443,0.2977415,1.27534,0.4336462,-0.7528064,-0.06644792,10.82228,13.22048,-0.3261167,0.1728141,0.1825716,-0.3766791,-3.43617,-0.6130698,0.3806511,1.448249,0.3714752,-0.2194672,0.1841325,-0.0696998,-1.184831,0.3298121,0.04569984,0.5442287,1.483364,0.2209644,0.01174955,1.125134,0.3104922,299.9757,251.0755,358.4463,True
3,0.01111111,-0.2686299,-0.4769295,0.3294202,-1.342349,-4.414467,-2.423871,0.2968889,1.275765,0.4320245,-0.7524676,0.03151787,10.79576,13.41333,-0.3017448,0.1633482,0.1600263,-0.3765816,-3.431007,-0.6151998,0.3803511,1.448546,0.3707399,-0.2087679,0.1819949,-0.06446978,-1.185285,0.3319598,0.04686125,0.5443617,1.483288,0.2205088,0.0144304,1.126631,0.2926543,297.9667,241.8985,2.224638,True
3,0.02222222,-0.2645288,-0.4269407,0.3089541,-1.342325,-4.40991,-2.422039,0.2963084,1.276156,0.4307456,-0.7523782,0.007769474,10.79576,13.6276,-0.27196,0.1453704,0.1448681,-0.3762791,-3.426981,-0.6168909,0.3801786,1.448917,0.3700824,-0.2001694,0.1510853,-0.05714796,-1.185512,0.3327304,0.04854916,0.5444835,1.48342,0.2202797,0.01794865,1.127033,0.277566,297.9369,238.206,0.8492395,True
3,0.03333334,-0.2550765,-0.386498,0.2938557,-1.342469,-4.405577,-2.420409,0.2955883,1.276556,0.4295883,-0.7521795,0.01807615,10.82228,13.82044,-0.2601407,0.1028067,0.137263,-0.3749017,-3.425375,-0.6158816,0.3801947,1.449278,0.3693697,-0.2001011,0.1073956,-0.05192515,-1.185916,0.3324581,0.05088316,0.544628,1.483336,0.2198858,0.02124711,1.126264,0.2663392,298.3165,236.3404,358.8579,True
3,0.04444445,-0.2552243,-0.3472308,0.2617183,-1.342041,-4.402115,-2.418328,0.2950776,1.276812,0.4281812,-0.7521614,0.001532046,10.79576,14.03471,-0.2610082,0.105937,0.1671067,-0.373258,-3.417943,-0.6197882,0.3802135,1.449584,0.3686583,-0.2119782,0.06374471,-0.07215698,-1.187326,0.3315325,0.05412049,0.5448482,1.483201,0.2194462,0.02354056,1.124725,0.2593834,299.0914,235.4324,357.5788,True
3,0.05555556,-0.2563779,-0.3228267,0.2403049,-1.341653,-4.39869,-2.416242,0.2945706,1.277231,0.4271195,-0.7523867,-0.02065369,10.79576,14.22755,-0.2288623,0.1315494,0.2063408,-0.3716926,-3.406936,-0.6285414,0.3803098,1.449821,0.3680208,-0.197209,0.06059754,-0.08933651,-1.188874,0.3322243,0.05558204,0.5450661,1.483102,0.2190259,0.02455132,1.122939,0.2565897,300.062,235.3849,357.0701,True
3,0.06666667,-0.2564802,-0.2910342,0.2082012,-1.340952,-4.395877,-2.41432,0.2941763,1.277463,0.4254928,-0.7521268,0.02394827,10.76923,14.44182,-0.1905094,0.148715,0.2146263,-0.370891,-3.397684,-0.6363802,0.3804727,1.450027,0.3674235,-0.1717295,0.06169057,-0.09913141,-1.190082,0.3330913,0.05633997,0.5453604,1.482927,0.2185111,0.0242075,1.121347,0.2572179,301.017,236.0086,357.3179,True
3,0.07777778,-0.270478,-0.2496789,0.17394,-1.340598,-4.394206,-2.411245,0.2939717,1.277797,0.4247878,-0.7520735,0.004610787,10.71618,14.65609,-0.1180387,0.1170365,0.2034006,-0.3696569,-3.393782,-0.6409951,0.3807928,1.450253,0.3670309,-0.1482508,0.02439183,-0.09515921,-1.191,0.3319372,0.05790138,0.5456367,1.482837,0.2180324,0.02279534,1.120297,0.2601625,301.8051,237.0252,358.1759,True
3,0.08888889,-0.2800871,-0.2465488,0.1675346,-1.339914,-4.390837,-2.40854,0.2935793,1.277826,0.4230793,-0.7523526,-0.02554778,10.68966,14.89179,-0.09883647,0.07026409,0.1829476,-0.3680137,-3.393198,-0.6410418,0.380999,1.450493,0.36657,-0.1364841,-0.007553525,-0.09212078,-1.191719,0.3309477,0.05932138,0.5459934,1.482639,0.2175653,0.020753,1.120031,0.2641889,302.3211,238.2067,359.3689,True
3,0.1,-0.2886996,-0.217844,0.159958,-1.340055,-4.38871,-2.405467,0.2935034,1.278087,0.4225137,-0.7514839,0.07964807,10.66313,15.10606,-0.07215891,0.005422231,0.1570744,-0.3660637,-3.39634,-0.6380655,0.3813372,1.450771,0.3662655,-0.1279773,-0.04164225,-0.09546407,-1.1929,0.3291939,0.06127295,0.5462192,1.482595,0.217169,0.01852708,1.120579,0.2680858,302.4757,239.2547,0.6717268,True
3,0.1111111,-0.275914,-0.2114135,0.1641936,-1.340143,-4.38533,-2.40391,0.2932042,1.278342,0.4215465,-0.7514013,0.00684974,10.68966,15.29891,-0.0220847,-0.04975108,0.1299973,-0.3641202,-3.400361,-0.6356337,0.3816403,1.45106,0.3659611,-0.1173192,-0.05122359,-0.09557868,-1.194017,0.3283114,0.06253715,0.5465496,1.482455,0.2167358,0.01652051,1.121891,0.2710128,302.3127,240.0626,1.758654,True
3,0.1222222,-0.2364871,-0.2144843,0.1663062,-1.339906,-4.382107,-2.403349,0.2931591,1.27863,0.4209766,-0.7513901,0.001107185,10.74271,15.47032,0.007825382,-0.07734025,0.1276096,-0.3619598,-3.40157,-0.6354923,0.3819675,1.4513,0.3656132,-0.1077356,-0.04378126,-0.09563814,-1.195012,0.3279262,0.06357472,0.5468009,1.482167,0.2163444,0.01490807,1.123726,0.2722085,301.888,240.4454,2.688697,True
3,0.1333333,-0.1821575,-0.2154517,0.1545546,-1.339207,-4.379121,-2.404015,0.2932492,1.278838,0.4200981,-0.7526525,-0.1153927,10.82228,15.64174,0.02491899,-0.09751423,0.1242573,-0.3598373,-3.403559,-0.6345687,0.3823216,1.451488,0.3653352,-0.1067263,-0.05761151,-0.1031374,-1.196453,0.3268592,0.06511109,0.5471342,1.481984,0.2160192,0.01407536,1.125938,0.2715954,301.3332,240.3811,3.151934,True
3,0.1444445,-0.1428541,-0.1823974,0.1362652,-1.339191,-4.37779,-2.403927,0.2935372,1.2789,0.4191461,-0.7537534,-0.09971169,10.92838,15.72745,0.01524541,-0.09433571,0.1136785,-0.3585835,-3.40397,-0.6339325,0.3825969,1.451675,0.3649828,-0.1089288,-0.0714446,-0.1106012,-1.197873,0.3255935,0.06708689,0.547505,1.481884,0.2155418,0.01399274,1.128224,0.269273,300.676,239.8776,3.329445,True
3,0.1555556,-0.1227336,-0.1483566,0.1115973,-1.339166,-4.377051,-2.403403,0.2938249,1.279004,0.4187164,-0.754921,-0.1061681,11.00796,15.74888,0.004467644,-0.06347673,0.111678,-0.3578106,-3.401341,-0.6360675,0.3828233,1.451742,0.364645,-0.10686,-0.0756865,-0.1180866,-1.199502,0.3246388,0.06855616,0.5478213,1.481742,0.2152545,0.01472075,1.130285,0.2657328,299.9862,238.9833,3.306721,True
3,0.1666667,-0.1099798,-0.1377761,0.09238005,-1.33865,-4.375328,-2.403186,0.293899,1.279057,0.4179747,-0.7543612,0.0518249,11.06101,15.72745,0.008569248,-0.008079171,0.1181399,-0.3575208,-3.394678,-0.6424445,0.3830765,1.451874,0.3644009,-0.09289315,-0.05867717,-0.1043203,-1.200262,0.3244604,0.06906962,0.5481851,1.481434,0.2149954,0.01603765,1.131787,0.2615345,299.3655,237.9431,3.127078,True
3,0.1777778,-0.09413131,-0.10164,0.06238044,-1.338428,-4.375541,-2.402588,0.2942408,1.278831,0.417824,-0.7536943,0.0602149,11.08753,15.64174,0.009490632,0.01750457,0.1107208,-0.357376,-3.390554,-0.646444,0.3832533,1.451907,0.3640957,-0.08298363,-0.02788775,-0.06492187,-1.199784,0.3249319,0.06949972,0.5485139,1.481337,0.2147696,0.01763286,1.13255,0.2573068,298.9864,237.0363,2.663985,True
3,0.1888889,-0.08461273,-0.07607466,0.0590668,-1.338725,-4.374827,-2.402264,0.2944635,1.278666,0.4171717,-0.7534812,0.01880916,11.06101,15.51318,-0.004629431,0.03986534,0.08422997,-0.3579001,-3.388256,-0.6480086,0.383552,1.451913,0.363951,-0.072171,-0.0002158061,-0.04470528,-1.19954,0.3260589,0.06950824,0.548819,1.481312,0.2144265,0.01917855,1.132595,0.2536464,298.9212,236.3255,2.07307,True
3,0.2,-0.05808448,-0.04408875,0.04718708,-1.339198,-4.375167,-2.402402,0.2947372,1.278381,0.4171014,-0.7533422,0.01253372,11.00796,15.38461,-0.0005054781,0.04204301,0.06609283,-0.3581052,-3.386964,-0.6493176,0.3837932,1.451847,0.3637922,-0.06570438,0.002963975,-0.0362273,-1.199748,0.3261007,0.0699956,0.5492935,1.481107,0.2142627,0.02040142,1.132029,0.2508855,299.0858,235.7824,1.638239,True
3,0.2111111,-0.02297845,-0.03339379,0.03539729,-1.339117,-4.374842,-2.403173,0.2950778,1.27819,0.4172473,-0.7532224,0.01074404,10.95491,15.25605,0.01964559,0.029365,0.04675997,-0.3579864,-3.387138,-0.6500694,0.3840295,1.451768,0.363709,-0.06450719,-0.003463071,-0.02133834,-1.199492,0.3257864,0.07079801,0.5496261,1.48098,0.2140889,0.02127622,1.131061,0.2493272,299.3643,235.5885,1.255998,True
3,0.2222222,0.01956782,-0.01628949,0.02249871,-1.339044,-4.375052,-2.404553,0.2954826,1.278004,0.4168572,-0.7537411,-0.04763793,10.90185,15.14892,0.02701544,0.002810586,0.02003497,-0.3579459,-3.389553,-0.6483926,0.3843436,1.451745,0.3635931,-0.06444178,-0.00989696,-0.01390068,-1.19951,0.3250714,0.0718164,0.5499424,1.480834,0.2141006,0.02174477,1.129897,0.2488832,299.7322,235.7627,1.023009,True
3,0.2333333,0.0525449,-0.002375747,0.01495431,-1.339273,-4.375422,-2.406094,0.2958843,1.277902,0.4167781,-0.7540714,-0.0299403,10.90185,15.06321,0.02375175,-0.01847104,-0.000220441,-0.3579464,-3.392781,-0.6455351,0.3846269,1.451767,0.3635159,-0.06337652,-0.0002883151,-0.01387895,-1.199529,0.3257226,0.0721445,0.5503502,1.480746,0.2140074,0.02198114,1.12873,0.2494754,300.0739,236.0559,0.9477528,True
3,0.2444444,0.09296547,0.01043141,-0.007521408,-1.33884,-4.376503,-2.408051,0.2965,1.277988,0.4169116,-0.7545705,-0.04562099,10.92838,15.02035,0.01098863,-0.04300614,-0.009751953,-0.3573525,-3.395991,-0.6421987,0.3848982,1.451793,0.3634887,-0.05616966,0.03280319,-0.03942514,-1.200623,0.3273202,0.07212373,0.5507312,1.48079,0.2140276,0.02210412,1.127673,0.2508636,300.3701,236.4456,1.063735,True
3,0.2555556,0.1238407,0.01042558,-0.02991808,-1.338149,-4.377351,-2.410249,0.2970122,1.278016,0.4169114,-0.754521,0.004692595,10.95491,15.04178,0.02274816,-0.04616763,-0.005579732,-0.356928,-3.39731,-0.6415837,0.3852062,1.451903,0.3635211,-0.05428023,0.05310939,-0.06602588,-1.202121,0.3287798,0.07214157,0.5511041,1.480676,0.2140162,0.02212478,1.126747,0.2526394,300.6124,236.9381,1.309541,True
3,0.2666667,0.1313014,0.005065871,-0.03948408,-1.33742,-4.377486,-2.41176,0.2974306,1.278018,0.4167452,-0.7547654,-0.02268196,10.98143,15.10606,0.04303215,-0.04823724,-0.00146046,-0.356364,-3.398207,-0.6420026,0.3854983,1.451969,0.3635147,-0.04820646,0.06917121,-0.1022613,-1.204301,0.3301353,0.07195701,0.5515013,1.480422,0.2142591,0.02219813,1.125988,0.2545111,300.8151,237.4118,1.532072,True
3,0.2777778,0.1238495,-0.001421674,-0.05649485,-1.336334,-4.378158,-2.412744,0.297825,1.278116,0.4167702,-0.7546504,0.01046217,11.03448,15.2132,0.03882,-0.05997483,-0.0003881399,-0.3557563,-3.400705,-0.6399203,0.3858579,1.452061,0.3635449,-0.04631034,0.06069802,-0.130005,-1.20667,0.3304253,0.07236501,0.5518815,1.480294,0.2142797,0.02243811,1.1254,0.2563052,300.9612,237.7335,1.752612,True
3,0.2888889,0.1121573,-0.01319428,-0.06069511,-1.335366,-4.378249,-2.413403,0.2981745,1.27839,0.4173002,-0.7534871,0.106057,11.03448,15.32033,0.03564359,-0.06318845,0.0006977115,-0.3551517,-3.402511,-0.6384915,0.3862123,1.451971,0.3636632,-0.03679599,0.04369467,-0.1397033,-1.208313,0.3306519,0.07237992,0.5521199,1.480338,0.2141695,0.02273583,1.124885,0.2578144,301.0411,237.9505,1.984029,True
3,0.3,0.07064235,-0.02396947,-0.06061505,-1.334468,-4.37825,-2.412753,0.2983423,1.278649,0.4173369,-0.7527553,0.06584862,11.00796,15.42747,0.04423113,-0.06211049,0.01022704,-0.3544263,-3.403206,-0.6386284,0.3865729,1.452027,0.363729,-0.02294959,0.0266614,-0.1409275,-1.209913,0.3304711,0.07226355,0.5524435,1.480182,0.2140949,0.02303063,1.124383,0.2588524,301.1335,238.0872,2.184261,True
3,0.3111111,0.04192324,-0.03897281,-0.06052585,-1.333349,-4.377917,-2.412382,0.2985614,1.27886,0.4172776,-0.7521289,0.05670243,10.95491,15.53461,0.04529762,-0.0642411,0.009156222,-0.353785,-3.404921,-0.6375906,0.3869284,1.452065,0.3638391,-0.01754905,0.02240258,-0.1335151,-1.210932,0.3309577,0.0719919,0.5527651,1.479868,0.2142966,0.02338889,1.123946,0.2594472,301.271,238.0546,2.273225,True
3,0.3222222,-0.002801385,-0.04547255,-0.05513039,-1.332624,-4.377625,-2.410851,0.298591,1.279068,0.4172423,-0.7507435,0.126242,10.87533,15.59888,0.04203416,-0.06423702,-0.0004090946,-0.3535874,-3.407207,-0.6357879,0.3872716,1.452162,0.3640192,-0.004702359,0.01066628,-0.1272575,-1.212105,0.330587,0.07172798,0.5530968,1.479803,0.2146142,0.02382004,1.123661,0.2597284,301.4309,237.9522,2.228203,True
3,0.3333333,-0.05925873,-0.04345753,-0.0433753,-1.332275,-4.377357,-2.408323,0.2985416,1.279358,0.4170158,-0.7509006,-0.01530402,10.8488,15.62031,0.03778286,-0.07489832,-0.004657933,-0.3530616,-3.410358,-0.6331421,0.387626,1.452153,0.3642282,-0.003610149,-0.003187009,-0.1251697,-1.213464,0.3301232,0.0719192,0.5533604,1.47967,0.2147062,0.02410255,1.123581,0.2596722,301.5927,237.8729,2.198152,True
3,0.3444445,-0.09440534,-0.04568307,-0.04119825,-1.331698,-4.377139,-2.406208,0.2984998,1.279588,0.4165888,-0.7499552,0.08681016,10.79576,15.62031,0.02497866,-0.07280989,-0.006690048,-0.352675,-3.412163,-0.6313308,0.3879856,1.452214,0.3644431,-0.0004062578,-0.002125248,-0.1241308,-1.214847,0.3302222,0.07180841,0.5536519,1.479425,0.2146127,0.02427172,1.123759,0.2593262,301.6516,237.7065,2.261,True
3,0.3555556,-0.1699987,-0.05758276,-0.0314978,-1.330996,-4.376357,-2.401881,0.2981068,1.28011,0.416127,-0.7491046,0.07719003,10.79576,15.57746,0.01666921,-0.0984375,0.01036899,-0.3509785,-3.415499,-0.6281174,0.3883397,1.452307,0.3645771,0.01014379,-0.01486232,-0.1370231,-1.216669,0.3298364,0.07142012,0.5540342,1.479363,0.2147319,0.02424956,1.124217,0.2587255,301.6519,237.5605,2.274188,True
3,0.3666667,-0.2125932,-0.06302121,-0.02718142,-1.330161,-4.375823,-2.398421,0.2979499,1.280469,0.4155946,-0.7497555,-0.0598962,10.82228,15.42747,0.001891658,-0.1134241,0.02216374,-0.3494706,-3.418513,-0.6248375,0.3887193,1.452431,0.3647623,0.01651232,-0.02122153,-0.1413382,-1.218154,0.3297173,0.07091945,0.5543768,1.479237,0.2149172,0.02400943,1.125016,0.2578916,301.606,237.4422,2.28546,True
3,0.3777778,-0.2860336,-0.0823725,-0.01744964,-1.32919,-4.374515,-2.393012,0.2974568,1.281016,0.415072,-0.747854,0.1747394,10.8488,15.23462,-0.02451229,-0.1412488,0.04041307,-0.3470893,-3.422703,-0.6197045,0.3889422,1.452563,0.3648126,0.02707454,-0.02331935,-0.1520877,-1.220216,0.3294957,0.07032583,0.5545945,1.479119,0.2150624,0.02359506,1.126152,0.2568687,301.4601,237.2353,2.386675,True
3,0.3888889,-0.3361084,-0.08034555,-0.006762912,-1.328844,-4.373689,-2.387825,0.2970353,1.281477,0.4146469,-0.7489725,-0.1035614,10.90185,14.99893,-0.04790103,-0.1360213,0.05017721,-0.3457065,-3.424095,-0.6170427,0.3891829,1.452742,0.3648682,0.02806178,-0.01371623,-0.1595315,-1.222187,0.329802,0.07003235,0.5547638,1.479299,0.215337,0.02294296,1.127663,0.2556515,301.3236,236.9849,2.523144,True
3,0.4,-0.4053787,-0.06770729,0.00708871,-1.329069,-4.37306,-2.380949,0.2963746,1.282061,0.4140382,-0.7474513,0.1404944,10.95491,14.7418,-0.09268147,-0.09146863,0.06761874,-0.3449965,-3.4203,-0.6180121,0.3892502,1.453013,0.3648539,0.02378937,0.004391037,-0.1594506,-1.223888,0.3306634,0.06961104,0.5549687,1.479224,0.2155163,0.02221919,1.12955,0.2543235,301.0363,236.6159,2.762626,True
3,0.4111111,-0.4501395,-0.05819023,0.02093789,-1.329483,-4.372408,-2.374635,0.2958154,1.282631,0.4133625,-0.7480937,-0.05972442,11.00796,14.48468,-0.1128943,-0.07664809,0.0795154,-0.3436756,-3.418792,-0.6174832,0.3893757,1.453277,0.3648231,0.01423556,0.01927802,-0.1539972,-1.225187,0.3313898,0.06960917,0.5551085,1.479183,0.2158084,0.02134086,1.131774,0.2528726,300.7249,236.2379,2.987936,True
3,0.4222222,-0.524716,-0.05195234,0.03588937,-1.329888,-4.371524,-2.366507,0.2948963,1.283576,0.4124758,-0.7470838,0.09339345,11.08753,14.20613,-0.1521208,-0.05768121,0.1160509,-0.3415355,-3.414677,-0.6183426,0.3894578,1.453608,0.364783,0.006787583,0.03418203,-0.1517661,-1.226725,0.3324921,0.0694382,0.5552808,1.479135,0.2159615,0.02034565,1.134313,0.2513473,300.3257,235.8974,3.168086,True
3,0.4333333,-0.5534813,-0.04880479,0.04442212,-1.330146,-4.370633,-2.359556,0.2941009,1.284493,0.4116998,-0.7480639,-0.09006274,11.16711,13.92758,-0.1752832,-0.0663478,0.1502911,-0.3386369,-3.411931,-0.6181791,0.3896104,1.454043,0.3646588,0.006802581,0.01925458,-0.1507269,-1.228268,0.332056,0.06952688,0.5554506,1.47895,0.2160678,0.01913301,1.137143,0.2497097,299.9258,235.6705,3.292859,True
3,0.4444444,-0.5971388,-0.04675757,0.05830809,-1.330611,-4.369247,-2.352062,0.2931274,1.285603,0.4107254,-0.7468782,0.1096499,11.24668,13.69188,-0.1964478,-0.09626801,0.1557188,-0.3359199,-3.414031,-0.6133875,0.3897109,1.454328,0.3646123,0.003631987,0.00328008,-0.1496692,-1.229858,0.3317275,0.06959905,0.5556527,1.478742,0.2160816,0.01780104,1.140251,0.2479576,299.4807,235.4311,3.474438,True
3,0.4555556,-0.6504463,-0.03307611,0.05616342,-1.331086,-4.368952,-2.343052,0.2921365,1.286741,0.4097679,-0.7484537,-0.1447024,11.32626,13.58474,-0.2291937,-0.135836,0.1750579,-0.3322219,-3.416676,-0.6073251,0.3898247,1.454748,0.3644152,-0.004919313,-0.008433383,-0.1538855,-1.231717,0.3313657,0.07005259,0.5558596,1.478658,0.2161427,0.01627391,1.143659,0.2460086,299.0972,235.1727,3.674937,True
3,0.4666667,-0.7122961,-0.01628181,0.03910729,-1.331325,-4.369375,-2.333176,0.2911331,1.288016,0.4092326,-0.7484782,-0.0005520353,11.40584,13.64902,-0.2481682,-0.1316997,0.206095,-0.3288567,-3.414006,-0.6064851,0.3899108,1.455081,0.3643248,-0.0124274,-0.01377153,-0.1591632,-1.23371,0.3309119,0.07074022,0.5560434,1.478612,0.2162728,0.01475342,1.14737,0.2439235,298.6082,234.7842,3.957675,True
3,0.4777778,-0.7762966,0.006896056,0.02308206,-1.33174,-4.370183,-2.322168,0.2900056,1.289422,0.4083064,-0.7476692,0.0741962,11.48541,13.84187,-0.2616401,-0.1052348,0.2722885,-0.3243597,-3.405101,-0.6114953,0.3899871,1.45546,0.3640287,-0.03163445,-0.002050791,-0.1632301,-1.235609,0.3314862,0.07135674,0.5563376,1.478427,0.2164376,0.01321097,1.15131,0.2416778,298.0706,234.3881,4.219359,True
3,0.4888889,-0.825336,0.02268892,0.01454636,-1.332424,-4.370591,-2.31161,0.2888305,1.290765,0.4070051,-0.7474045,0.02397153,11.59151,14.1847,-0.2623707,-0.09467566,0.3245171,-0.3196459,-3.396986,-0.6162933,0.3899788,1.45579,0.3637741,-0.03277816,0.007552333,-0.1695874,-1.237648,0.3321031,0.07176447,0.5564805,1.478205,0.2165391,0.01160072,1.15547,0.2393403,297.5467,233.9207,4.426349,True
3,0.5,-0.9232654,-0.009691842,-0.01504861,-1.330933,-4.370384,-2.298453,0.2875929,1.292769,0.4059782,-0.7469219,0.04436148,11.67109,14.57039,-0.27698,-0.0873539,0.3715056,-0.3147244,-3.388732,-0.6205781,0.3899229,1.456139,0.3635004,-0.03077656,0.02250153,-0.1834177,-1.240073,0.3330797,0.07171706,0.5566108,1.478042,0.2166855,0.009876558,1.159909,0.2370847,297.0443,233.404,4.593717,True
3,0.5111111,-0.9636847,-0.0354522,-0.03194845,-1.329399,-4.370203,-2.286636,0.2864855,1.294527,0.4050596,-0.7478103,-0.08116195,11.69761,14.9775,-0.2941222,-0.07355002,0.3641962,-0.3115717,-3.382632,-0.6226332,0.3898523,1.456417,0.3632879,-0.03400166,0.02994725,-0.1854972,-1.242032,0.3336018,0.07208405,0.5566818,1.478031,0.2170742,0.007855589,1.164683,0.2349064,296.5405,233.0145,4.812613,True
3,0.5222223,-1.026525,-0.04105183,-0.04891679,-1.328263,-4.370376,-2.273666,0.285203,1.296455,0.4041491,-0.7457885,0.1860337,11.72414,15.42747,-0.3317677,-0.05017784,0.3261508,-0.3100228,-3.378077,-0.6219871,0.3898381,1.456849,0.3630788,-0.04271282,0.06620796,-0.2045103,-1.244779,0.3359325,0.07209816,0.5567607,1.477938,0.2172489,0.005633384,1.169805,0.2327484,295.9713,232.5812,5.253492,True
3,0.5333334,-1.097923,-0.03489078,-0.05314511,-1.327654,-4.370842,-2.258915,0.2837684,1.298449,0.403312,-0.7475435,-0.1616196,11.72414,15.87744,-0.3457646,-0.0533852,0.3038777,-0.3074167,-3.375031,-0.6205381,0.3900453,1.457289,0.3628666,-0.04807367,0.1002785,-0.2054445,-1.246931,0.3382452,0.07210802,0.5569291,1.477849,0.2175791,0.003363302,1.175386,0.2305904,295.4767,231.8491,5.970575,True
3,0.5444446,-1.145831,-0.05002652,-0.07114066,-1.326049,-4.371153,-2.244497,0.2823198,1.300529,0.4026911,-0.7473181,0.02259858,11.67109,16.22027,-0.3218764,-0.09492049,0.346247,-0.30166,-3.37093,-0.6216665,0.3903612,1.45779,0.3626399,-0.0384312,0.08535969,-0.1981233,-1.249051,0.3388899,0.07223771,0.5572926,1.477822,0.2176259,0.001198801,1.181426,0.2284789,294.8005,230.8686,6.862975,True
3,0.5555557,-1.235188,-0.1069639,-0.1198244,-1.321769,-4.371455,-2.227449,0.2803395,1.303025,0.4018421,-0.7461698,0.1050658,11.61804,16.52025,-0.2784556,-0.1556387,0.4289232,-0.293409,-3.36639,-0.6242969,0.3907758,1.458356,0.362411,-0.03210334,0.04384353,-0.208932,-1.2518,0.3381643,0.07261242,0.5574777,1.477663,0.2176604,-0.001003124,1.187849,0.2263882,294.0279,229.9433,7.658447,True
3,0.5666668,-1.234047,-0.140087,-0.144166,-1.31837,-4.371726,-2.213769,0.2786101,1.305611,0.4015419,-0.7470012,-0.07642791,11.59151,16.7988,-0.2608441,-0.1865863,0.4926655,-0.2854514,-3.359281,-0.6287494,0.391185,1.458897,0.3621011,-0.03961375,0.02151159,-0.2185214,-1.254771,0.3381591,0.07316662,0.5577759,1.477501,0.2175775,-0.003354152,1.194648,0.2242924,293.2491,228.9974,8.464303,True
3,0.577778,-1.222134,-0.2180014,-0.1864527,-1.312181,-4.371405,-2.200559,0.2766521,1.308301,0.400753,-0.745185,0.167345,11.59151,17.07735,-0.2410648,-0.2388217,0.5510237,-0.2761421,-3.35473,-0.6310901,0.3916017,1.459447,0.3618634,-0.05568218,0.01833066,-0.2290442,-1.257718,0.3384171,0.07427077,0.5580106,1.477265,0.2175152,-0.005861145,1.201786,0.2222209,292.4526,227.6342,9.669289,True
3,0.5888891,-1.272173,-0.2439473,-0.2384817,-1.306909,-4.37293,-2.184508,0.274977,1.311014,0.4000456,-0.7489949,-0.3493645,11.64456,17.42018,-0.2117481,-0.3208083,0.5868881,-0.2664493,-3.356959,-0.6275425,0.3919266,1.459821,0.3615382,-0.05255765,0.02261171,-0.23547,-1.260683,0.3392067,0.07466172,0.5583083,1.477045,0.2177122,-0.008686072,1.209312,0.2201491,291.7936,225.8692,11.23686,True
3,0.6000003,-1.343596,-0.2368353,-0.2693453,-1.302562,-4.375005,-2.166434,0.273134,1.31372,0.3993633,-0.7502301,-0.1094296,11.67109,17.57017,-0.2084419,-0.2942155,0.6156761,-0.2588364,-3.346646,-0.6352531,0.3921965,1.460266,0.3612387,-0.05275953,0.02266874,-0.2589056,-1.264363,0.3397564,0.0750865,0.5584656,1.476881,0.2177455,-0.01140202,1.217173,0.2183226,290.9611,223.7366,13.18463,True
3,0.6111114,-1.442637,-0.2672546,-0.3383582,-1.296292,-4.378006,-2.146259,0.2709382,1.31715,0.3989871,-0.7482758,0.1794964,11.67109,17.50589,-0.213689,-0.2623257,0.6413388,-0.2514205,-3.3333,-0.645644,0.3924447,1.460742,0.3609807,-0.0580852,0.02265968,-0.2588415,-1.266999,0.3401648,0.075768,0.5584266,1.476788,0.2179468,-0.01405146,1.225078,0.2167114,290.0478,221.2029,15.66143,True
3,0.6222225,-1.464898,-0.313302,-0.3743446,-1.289194,-4.379467,-2.129229,0.2689953,1.320275,0.3983207,-0.74663,0.1492588,11.67109,17.18449,-0.2292971,-0.2167082,0.7161057,-0.2425735,-3.309849,-0.6652529,0.3927401,1.461332,0.3606918,-0.05906235,0.02795956,-0.2481669,-1.26935,0.3408634,0.07625988,0.5584944,1.47659,0.2180424,-0.01669854,1.232944,0.215302,289.2689,218.869,17.98587,True
3,0.6333337,-1.493518,-0.367813,-0.3964576,-1.281392,-4.380748,-2.11126,0.2669674,1.323796,0.3975575,-0.7452835,0.1224731,11.61804,16.64881,-0.2509047,-0.1488629,0.8559387,-0.2319251,-3.269543,-0.7008457,0.3933243,1.46184,0.3605096,-0.04302393,0.0460385,-0.2397149,-1.271253,0.3419395,0.07586733,0.5582968,1.476403,0.2182214,-0.01956933,1.240898,0.2139981,288.7328,216.8178,20.01162,True
3,0.6444448,-1.564956,-0.352091,-0.4081724,-1.276209,-4.383431,-2.090758,0.2652737,1.327457,0.3970203,-0.7485746,-0.3013992,11.48541,15.81315,-0.2188982,-0.1828219,0.8439257,-0.2231793,-3.25548,-0.7133482,0.3938276,1.462434,0.3602967,-0.03233032,0.05664921,-0.2354783,-1.27312,0.3425832,0.07551286,0.5581511,1.476355,0.2183099,-0.02272831,1.249237,0.212794,288.436,214.559,22.2598,True
3,0.655556,-1.646144,-0.2777767,-0.411615,-1.27336,-4.387574,-2.068377,0.2634811,1.33094,0.3960781,-0.7485129,0.008663143,11.37931,14.95607,-0.1878126,-0.3328311,0.795495,-0.2120515,-3.263851,-0.7042498,0.3943453,1.463315,0.3601213,-0.03012694,0.03106834,-0.2291668,-1.27555,0.34226,0.07588731,0.5581785,1.476339,0.2182565,-0.0257627,1.257973,0.2117027,287.9794,211.6369,25.34951,True
3,0.6666671,-1.746547,-0.1799212,-0.3789168,-1.27332,-4.391222,-2.044585,0.2616468,1.334766,0.3951828,-0.7468297,0.1538928,11.24668,14.12042,-0.1830378,-0.4936654,0.7834528,-0.1989371,-3.278491,-0.688197,0.3948126,1.464421,0.359925,-0.002280563,-0.02006628,-0.215659,-1.277324,0.3406081,0.07557705,0.5582601,1.476306,0.2177641,-0.02854884,1.267051,0.2105945,287.4664,208.5718,28.62488,True
3,0.6777782,-1.776519,-0.1147858,-0.3227082,-1.273516,-4.393332,-2.023206,0.2597038,1.338476,0.3937571,-0.7458268,0.09093075,11.14058,13.37047,-0.1708728,-0.5842033,0.800249,-0.1856223,-3.285834,-0.6795545,0.3952554,1.465481,0.3596473,-0.00131081,-0.05518672,-0.2296017,-1.280452,0.3389785,0.0760226,0.5583125,1.476168,0.2175941,-0.03108031,1.276583,0.2093738,286.9266,205.9113,31.44764,True
3,0.6888894,-1.738284,-0.06658915,-0.2867107,-1.273207,-4.395337,-2.005285,0.2580964,1.341966,0.3925736,-0.7449448,0.08059006,11.14058,12.98479,-0.1582515,-0.6961544,0.8660037,-0.1695779,-3.293162,-0.671263,0.3955914,1.466699,0.3591905,-0.04308796,-0.1019335,-0.2634525,-1.284686,0.3374481,0.07794593,0.558709,1.475766,0.217016,-0.03358164,1.286759,0.2078689,286.3187,203.5354,33.95933,True
3,0.7000005,-1.700041,-0.02700964,-0.275195,-1.273083,-4.398324,-1.987212,0.2564316,1.345315,0.3912935,-0.7475792,-0.2409121,11.19363,12.87765,-0.1736608,-0.7144481,0.9363928,-0.1544207,-3.285203,-0.6766789,0.3957725,1.467791,0.3586433,-0.1159937,-0.1124541,-0.3214498,-1.290174,0.3367696,0.08143307,0.558732,1.475564,0.216934,-0.03601076,1.29778,0.2059558,285.6023,201.1494,36.51695,True
3,0.7111117,-1.669406,0.0723321,-0.2351624,-1.276067,-4.401507,-1.968931,0.2551911,1.34854,0.3900015,-0.7518136,-0.3846628,11.27321,13.00621,-0.241588,-0.5210698,1.06507,-0.1426874,-3.209929,-0.7460532,0.3958001,1.468707,0.3578305,-0.1910285,-0.07930463,-0.3729507,-1.296229,0.3380722,0.085492,0.5589191,1.475041,0.2170434,-0.03803892,1.309489,0.2035486,284.6729,197.218,40.64574,True
3,0.7222228,-1.659973,0.1332176,-0.2013484,-1.27851,-4.404001,-1.949923,0.2537673,1.35165,0.3883488,-0.7525347,-0.06276014,11.35279,13.30619,-0.2801546,-0.4168671,1.084711,-0.1328662,-3.154725,-0.7964979,0.395888,1.469529,0.3571441,-0.2177593,-0.04623847,-0.3843595,-1.300692,0.339509,0.08798924,0.5588471,1.474864,0.2172065,-0.03925078,1.321316,0.2008438,283.6327,190.7404,47.0847,True
3,0.7333339,-1.668651,0.1907988,-0.1824109,-1.281868,-4.406933,-1.930278,0.2522659,1.354828,0.3869321,-0.7523755,0.01476672,11.43236,13.73473,-0.3427399,-0.2742713,1.046003,-0.1267393,-3.086653,-0.8580335,0.395831,1.469938,0.3563061,-0.2179841,0.02523085,-0.4023099,-1.305711,0.3432329,0.08967423,0.5587627,1.474736,0.2172945,-0.03986551,1.332755,0.1979963,282.7362,182.9985,54.51908,True
3,0.7444451,-1.686731,0.1746658,-0.2057455,-1.282038,-4.410283,-1.909841,0.2505568,1.358598,0.3860948,-0.7514008,0.08896413,11.43236,14.03471,-0.3613054,-0.2614726,0.9875796,-0.1183402,-3.04526,-0.8947499,0.396069,1.470633,0.3556406,-0.1838463,0.05937977,-0.3940196,-1.310024,0.3460307,0.08975013,0.5586987,1.474823,0.2178457,-0.04013171,1.34353,0.1951517,282.0272,175.6487,61.50735,True
3,0.7555562,-1.695179,0.1436567,-0.2269119,-1.281556,-4.413645,-1.889716,0.2486951,1.361976,0.3846421,-0.7508346,0.05105628,11.43236,14.16327,-0.3963299,-0.368064,0.9524816,-0.1065637,-3.020513,-0.913909,0.3959367,1.471359,0.3549242,-0.1054043,0.0858583,-0.3136604,-1.31075,0.3479847,0.08783851,0.5585064,1.474757,0.2178812,-0.04048303,1.353587,0.1922381,281.614,169.303,67.55675,True
3,0.7666674,-1.699437,0.1425578,-0.2322209,-1.28228,-4.416755,-1.869912,0.2469363,1.365562,0.3835678,-0.7502487,0.05326429,11.40584,14.14185,-0.4301509,-0.4533963,0.9472548,-0.09365325,-2.9831,-0.9453855,0.3958924,1.472239,0.3542058,-0.06003387,0.08254652,-0.2405726,-1.311281,0.3492938,0.0867594,0.5583031,1.474584,0.2181275,-0.04108264,1.363068,0.1893599,281.5033,164.3933,72.07673,True
3,0.7777785,-1.702757,0.1840989,-0.23133,-1.284828,-4.420349,-1.849846,0.2450098,1.36871,0.3823047,-0.7506865,-0.0403198,11.35279,13.97043,-0.4445096,-0.5781159,0.962045,-0.07831504,-2.948691,-0.9742706,0.395534,1.473145,0.3534498,-0.084245,0.0739219,-0.2073611,-1.312416,0.3499531,0.08830802,0.5581217,1.474361,0.2180474,-0.04203503,1.372254,0.1867143,281.7035,160.5177,75.53815,True
3,0.7888896,-1.683718,0.2288967,-0.227245,-1.288144,-4.423766,-1.830701,0.2431961,1.37187,0.3809679,-0.7511542,-0.0422575,11.32626,13.67045,-0.4237767,-0.5600717,1.041838,-0.0663681,-2.812465,-1.106084,0.3951273,1.474128,0.3526044,-0.1749454,0.07291727,-0.225778,-1.315907,0.3519431,0.09290331,0.558042,1.473934,0.2178364,-0.04330367,1.381355,0.1843969,281.9384,156.8701,78.95711,True
3,0.8000008,-1.660302,0.2396866,-0.2102534,-1.290495,-4.426295,-1.812287,0.2415466,1.375083,0.3799298,-0.751193,-0.003116785,11.35279,13.32762,-0.4027053,-0.4588209,1.061052,-0.06037439,-2.638597,-1.275636,0.3945556,1.47497,0.3517811,-0.2349049,0.07940733,-0.2625282,-1.319827,0.3539733,0.09665597,0.5575396,1.473653,0.2176681,-0.04465216,1.390515,0.1825277,282.0474,153.2118,82.53225,True
3,0.8111119,-1.607026,0.24098,-0.1943282,-1.292778,-4.428566,-1.795669,0.2397768,1.37826,0.3788352,-0.7521257,-0.085195,11.37931,13.0705,-0.4062333,-0.4108535,1.038793,-0.05521745,-2.466687,-1.442595,0.3940232,1.475794,0.3509183,-0.2478935,0.08691737,-0.2858346,-1.323684,0.3556144,0.0994704,0.5572014,1.473455,0.2176902,-0.04603373,1.399838,0.181055,282.0327,149.0743,86.7618,True
3,0.8222231,-1.553797,0.2496103,-0.2061109,-1.295182,-4.432013,-1.779088,0.2382678,1.381671,0.377928,-0.752702,-0.05194261,11.43236,12.94193,-0.4034154,-0.3671166,1.010088,-0.05192578,-2.278267,-1.626248,0.3935274,1.476656,0.3499527,-0.2363497,0.1168333,-0.3071522,-1.327365,0.3586494,0.1005037,0.5567696,1.473361,0.2177312,-0.04722171,1.409299,0.1799271,282.0473,144.476,91.57302,True
3,0.8333342,-1.527159,0.2421568,-0.2242148,-1.296922,-4.435701,-1.761996,0.2365725,1.385017,0.376828,-0.7543526,-0.1506712,11.48541,12.96336,-0.3988593,-0.3810126,1.04412,-0.04977661,-2.0135,-1.886356,0.3929568,1.477519,0.3489432,-0.1894348,0.163714,-0.2989074,-1.33008,0.3625193,0.1000283,0.5562428,1.473325,0.2177804,-0.04803704,1.418792,0.1790424,282.2155,139.5946,96.69788,True
3,0.8444453,-1.488774,0.212187,-0.2827074,-1.297157,-4.441241,-1.745137,0.2349453,1.388485,0.3757224,-0.7546397,-0.02519565,11.48541,13.17763,-0.4234868,-0.4566374,0.9940854,-0.04665752,-1.761421,-2.132545,0.3925386,1.478352,0.3478048,-0.1517377,0.2030032,-0.2479445,-1.330195,0.3659346,0.0995905,0.5556813,1.473221,0.2177334,-0.04855219,1.428204,0.1782461,282.5382,134.5352,101.9343,True
3,0.8555565,-1.454421,0.09794027,-0.367476,-1.293161,-4.447824,-1.728233,0.2330141,1.392046,0.3751214,-0.7539047,0.06707131,11.48541,13.56331,-0.4763545,-0.4537337,1.050934,-0.05137504,-1.482669,-2.403851,0.3919014,1.479183,0.3467104,-0.1533667,0.23267,-0.187128,-1.329901,0.3696068,0.1004385,0.5551512,1.47312,0.2175896,-0.04891693,1.437472,0.1774942,282.986,129.9301,106.609,True
3,0.8666676,-1.429787,0.04569793,-0.3939057,-1.29131,-4.452805,-1.711573,0.2312248,1.395417,0.3745096,-0.7542786,-0.03500476,11.48541,14.12042,-0.4396555,-0.381371,1.153075,-0.0636112,-1.28746,-2.594917,0.3913258,1.48008,0.3457327,-0.1669608,0.2602601,-0.1591771,-1.329657,0.3731185,0.101537,0.5545921,1.473028,0.2175028,-0.04939873,1.446619,0.1767,283.5598,126.0201,110.5665,True
3,0.8777788,-1.385896,-0.03526887,-0.4255601,-1.287281,-4.458255,-1.696153,0.2293318,1.39866,0.3741341,-0.7543063,-0.002378494,11.48541,14.87037,-0.3163679,-0.3396291,1.281168,-0.07943304,-1.140656,-2.742081,0.3904932,1.480872,0.3445888,-0.1807169,0.2730037,-0.1473069,-1.330443,0.3768688,0.103132,0.5540573,1.472818,0.2172146,-0.05006864,1.455586,0.1759586,284.3854,122.988,113.5881,True
3,0.8888899,-1.350718,-0.04692104,-0.431922,-1.286018,-4.463094,-1.6809,0.2276477,1.401937,0.3741107,-0.7538482,0.04150109,11.48541,15.70602,-0.286604,-0.2820532,1.304489,-0.0929912,-1.065376,-2.814852,0.3898093,1.48157,0.3435223,-0.1927606,0.2443391,-0.1867174,-1.334147,0.3789373,0.1053134,0.5534139,1.472524,0.2170007,-0.05092439,1.464244,0.1754644,285.3841,120.7772,115.7392,True
3,0.900001,-1.296442,-0.03512099,-0.4511984,-1.285376,-4.46901,-1.666822,0.2259421,1.404783,0.3737581,-0.7549114,-0.09763637,11.53846,16.52025,-0.2499776,-0.2668521,1.220093,-0.1023671,-1.008942,-2.86966,0.3888305,1.482021,0.3424256,-0.2355872,0.2113597,-0.2141359,-1.337438,0.3804218,0.1091774,0.5526996,1.472322,0.2168019,-0.0518331,1.472524,0.1752992,286.2126,118.7924,117.7782,True
3,0.9111122,-1.236974,0.01823348,-0.4749105,-1.28713,-4.475685,-1.653143,0.2246593,1.407736,0.373961,-0.7547202,0.01807966,11.56498,17.22734,-0.266412,-0.2250097,1.031725,-0.1062878,-0.9873204,-2.887168,0.3879097,1.482694,0.3415027,-0.2728356,0.2315721,-0.2074264,-1.339783,0.3843567,0.1127393,0.5520966,1.472327,0.2167113,-0.05270291,1.480308,0.1754709,286.995,117.1575,119.5497,True
3,0.9222233,-1.179557,0.05138969,-0.4846929,-1.288453,-4.481826,-1.640475,0.2231649,1.41049,0.373512,-0.7557934,-0.09854841,11.61804,17.76302,-0.295866,-0.3175394,0.8922027,-0.1099257,-0.9135798,-2.956157,0.3870001,1.483651,0.3405526,-0.2490441,0.2549139,-0.1649799,-1.339963,0.3882307,0.1135742,0.551524,1.472331,0.2165356,-0.05352889,1.487664,0.1759561,287.585,115.7506,121.1317,True
3,0.9333345,-1.060423,0.09306905,-0.5350534,-1.290204,-4.48997,-1.630469,0.22201,1.412779,0.3729992,-0.7560794,-0.0256011,11.64456,18.19156,-0.2616234,-0.4313421,0.8576552,-0.116876,-0.8261057,-3.041402,0.3861168,1.484615,0.3396075,-0.228579,0.2303613,-0.1407166,-1.340415,0.3901912,0.1149261,0.5508207,1.472214,0.2162256,-0.05436584,1.494636,0.1767223,288.1108,114.4609,122.6112,True
3,0.9444456,-0.9571759,0.1242861,-0.5288836,-1.292101,-4.495878,-1.621337,0.2206107,1.415176,0.3727114,-0.7564437,-0.03351576,11.64456,18.44868,-0.2260361,-0.4281395,0.9223907,-0.1295884,-0.7822969,-3.083511,0.3852999,1.485437,0.3386121,-0.2415294,0.2218702,-0.1608758,-1.342858,0.392536,0.1175378,0.5503129,1.472126,0.2160239,-0.05522291,1.501335,0.1778487,288.5248,113.3217,123.9445,True
3,0.9555568,-0.8559992,0.1439117,-0.4949726,-1.294098,-4.500435,-1.614071,0.2193104,1.417049,0.3725162,-0.7590638,-0.2397738,11.61804,18.57724,-0.1020075,-0.296913,1.049585,-0.1456137,-0.7852085,-3.083734,0.3844441,1.485789,0.3375216,-0.297049,0.2335871,-0.1742194,-1.344848,0.3957963,0.1218742,0.5496029,1.471933,0.2157142,-0.056239,1.507846,0.1791659,288.9648,112.0862,125.5842,True
3,0.9666679,-0.8070774,0.1782184,-0.4813105,-1.296964,-4.505487,-1.605294,0.2180454,1.419184,0.3727548,-0.7588134,0.02434599,11.59151,18.57724,-0.08666575,-0.2200555,0.9984871,-0.1546162,-0.7837896,-3.084427,0.3836891,1.486305,0.3364298,-0.3226879,0.2453154,-0.1814146,-1.346569,0.3993247,0.1254517,0.5490148,1.471774,0.2154434,-0.05729511,1.513916,0.1807024,289.528,110.7028,127.4168,True
3,0.977779,-0.757165,0.2284154,-0.4868971,-1.301046,-4.511449,-1.597041,0.2167449,1.420744,0.3725259,-0.7593679,-0.0517045,11.53846,18.44868,-0.08748132,-0.2485815,0.8706009,-0.1596096,-0.7586566,-3.108313,0.3827157,1.486731,0.3352971,-0.3300611,0.2293084,-0.1728715,-1.347947,0.4015919,0.1289055,0.5481527,1.471659,0.2152741,-0.05844369,1.519404,0.1823402,289.9997,109.2864,129.2734,True
3,0.9888902,-0.7307183,0.2849088,-0.5010195,-1.305909,-4.518037,-1.587715,0.2153917,1.422651,0.3731151,-0.7572209,0.1961645,11.51194,18.21299,-0.1090621,-0.2060229,0.856984,-0.16856,-0.7493235,-3.115217,0.3818297,1.487261,0.3342202,-0.3141129,0.2218722,-0.177288,-1.349726,0.4039484,0.1311474,0.5473599,1.471584,0.2150133,-0.05960069,1.524103,0.1839667,290.358,108.0368,130.9132,True
3,1.000001,-0.7105305,0.3020096,-0.502176,-1.309797,-4.523942,-1.578967,0.2139381,1.424448,0.3729744,-0.7570089,0.01714024,11.48541,17.99871,-0.07992727,-0.2102763,0.9068382,-0.1804654,-0.7351909,-3.129256,0.380778,1.487824,0.3332739,-0.244726,0.2655359,-0.1564651,-1.35035,0.4086746,0.1305846,0.5464162,1.471733,0.2147601,-0.06093153,1.528229,0.1854854,290.4983,107.3818,131.8547,True
3,1.011112,-0.6913942,0.3115533,-0.5256805,-1.313306,-4.530806,-1.570212,0.2124357,1.426238,0.3725493,-0.7554978,0.1377506,11.48541,17.93443,-0.1857538,-0.3393336,0.7933652,-0.1855621,-0.6887004,3.113346,0.3795998,1.488178,0.3321519,-0.2125528,0.2846617,-0.1300561,-1.350377,0.4126306,0.1309564,0.5454921,1.471739,0.2144971,-0.06248365,1.531996,0.1869395,290.5524,107.0747,132.328,True
3,1.022224,-0.6765493,0.3318343,-0.5257696,-1.317632,-4.536807,-1.561558,0.2108755,1.428041,0.3727155,-0.7552229,0.02362334,11.48541,18.04157,-0.2327034,-0.3128679,0.7969463,-0.194757,-0.6761835,3.105223,0.378517,1.488634,0.3311236,-0.1975299,0.308078,-0.1152244,-1.350861,0.417118,0.1319162,0.544486,1.471753,0.2140667,-0.06428456,1.53575,0.1885086,290.4962,107.0668,132.4206,True
3,1.033335,-0.6563558,0.3608384,-0.483299,-1.322662,-4.540863,-1.553953,0.2091381,1.429728,0.3725893,-0.7550243,0.01777206,11.45889,18.32012,-0.1131162,-0.1454239,0.9167844,-0.2089553,-0.6981282,3.124492,0.3770711,1.489036,0.3304119,-0.2164687,0.3090572,-0.0873612,-1.350439,0.420719,0.1341197,0.5432991,1.47182,0.2137017,-0.06629447,1.539728,0.1901373,290.477,106.9111,132.918,True
3,1.044446,-0.6480084,0.4248791,-0.4590684,-1.329464,-4.545146,-1.545959,0.2076371,1.431509,0.3725111,-0.7544927,0.04816713,11.43236,18.74866,-0.06019461,-0.200499,0.8417311,-0.2162167,-0.6819367,3.107654,0.3757655,1.489534,0.329551,-0.2258306,0.2919814,-0.06496641,-1.35026,0.4237541,0.1362633,0.5422132,1.471802,0.2131233,-0.06834242,1.543969,0.1917978,290.5676,106.5993,133.6611,True
3,1.055557,-0.6544799,0.4536541,-0.4517271,-1.335566,-4.54983,-1.537485,0.2059855,1.433151,0.3723471,-0.754645,-0.01449028,11.35279,19.37004,-0.09978604,-0.2237254,0.6566041,-0.2174807,-0.6661288,3.094485,0.3743451,1.489928,0.3287721,-0.1988473,0.2471526,-0.02696365,-1.349114,0.4249011,0.1373533,0.5409176,1.472,0.2128227,-0.07020666,1.548434,0.1935575,290.6972,105.911,134.6985,True
3,1.066668,-0.6522608,0.4494915,-0.459287,-1.34098,-4.55696,-1.52853,0.2051096,1.43639,0.3769419,-0.7540091,0.05813838,11.29973,20.16284,-0.1129187,-0.1853703,0.6269436,-0.2236256,-0.6626717,3.092964,0.3731935,1.490487,0.3279271,-0.1753827,0.2311855,-0.02509154,-1.349337,0.4271187,0.137981,0.5396495,1.472198,0.2125423,-0.07181749,1.553091,0.1953133,290.8382,104.6905,136.2769,True
3,1.077779,-0.6435572,0.3812273,-0.485641,-1.343143,-4.56329,-1.520235,0.2035861,1.438323,0.3770037,-0.7532762,0.06627706,11.27321,21.21277,-0.09708816,-0.2278488,0.5852039,-0.2289679,-0.646476,3.077662,0.3717798,1.491015,0.3271487,-0.1475238,0.2481927,-0.00504132,-1.348271,0.4304191,0.1378801,0.5382943,1.472453,0.212245,-0.07315073,1.557932,0.1970138,291.0233,103.3262,137.9707,True
3,1.08889,-0.6432956,0.326911,-0.4972752,-1.34477,-4.57059,-1.511818,0.2021979,1.440892,0.3786967,-0.7530775,0.01745786,11.24668,22.39126,-0.1552273,-0.2310902,0.4982615,-0.2320924,-0.6347187,3.06977,0.3705091,1.491556,0.3263025,-0.1122283,0.2406721,0.01380961,-1.347284,0.4325587,0.1377398,0.5369892,1.472674,0.2121043,-0.07408757,1.562875,0.1988964,291.3029,102.8956,138.189,True
3,1.100002,-0.6260957,0.273684,-0.5002625,-1.346153,-4.576327,-1.504184,0.2008351,1.442691,0.3788953,-0.7533641,-0.02650682,11.27321,23.6126,-0.172393,-0.2289895,0.482408,-0.2370203,-0.6257685,3.06361,0.3692399,1.492149,0.3254335,-0.09103347,0.1874384,-0.002483154,-1.34773,0.4325852,0.1381669,0.5356963,1.472752,0.211848,-0.07457056,1.568092,0.2018345,291.6758,103.0902,137.4256,True
3,1.111113,-0.5823058,0.2537624,-0.4565508,-1.348668,-4.579935,-1.498553,0.1991457,1.443806,0.3793271,-0.7533204,0.004035791,11.29973,24.68395,-0.1134803,-0.2118402,0.5374074,-0.2448755,-0.620618,3.058021,0.3679723,1.492682,0.3246262,-0.1246012,0.1503075,-0.06941769,-1.350673,0.433383,0.1405236,0.5344312,1.472813,0.2114871,-0.07525311,1.573794,0.2053967,292.3375,102.3335,138.558,True
3,1.122224,-0.5600039,0.2881015,-0.4109126,-1.353242,-4.582789,-1.492411,0.1976299,1.444961,0.3795593,-0.7533183,-0.0003145963,11.32626,25.58389,-0.05016416,-0.1500174,0.6340131,-0.2551047,-0.6256056,3.061301,0.3666192,1.493118,0.3239129,-0.1622454,0.1482593,-0.1106304,-1.352733,0.43543,0.1431982,0.5331082,1.472756,0.2110164,-0.07610013,1.579669,0.2093852,293.0928,101.2393,140.4486,True
3,1.133335,-0.5399108,0.3501727,-0.356852,-1.359298,-4.584456,-1.486852,0.1963227,1.445911,0.379513,-0.7541491,-0.07658835,11.35279,26.33383,0.001776338,-0.01459953,0.6637254,-0.2632194,-0.6454912,3.078741,0.365356,1.493577,0.32319,-0.1891226,0.147252,-0.1391667,-1.355021,0.4374078,0.1458033,0.53172,1.472837,0.2106791,-0.07701447,1.585217,0.2132746,293.8938,99.64091,143.1661,True
3,1.144446,-0.5006498,0.4154752,-0.307094,-1.365997,-4.585984,-1.482213,0.1949457,1.44651,0.3789673,-0.7526168,0.1399862,11.37931,26.93379,0.02980876,-0.03666142,0.5516183,-0.2652556,-0.6409375,3.073468,0.364181,1.49407,0.3225284,-0.1612886,0.1397697,-0.124507,-1.355396,0.4387953,0.1461149,0.5302491,1.472883,0.2102733,-0.0779383,1.5899,0.2166329,294.635,97.85383,145.9021,True
3,1.155557,-0.4558715,0.4071558,-0.2900433,-1.370513,-4.588243,-1.47814,0.1937264,1.447246,0.3788533,-0.7516538,0.08579464,11.35279,27.27662,0.01200089,-0.1110221,0.4077869,-0.265449,-0.6271679,3.060525,0.362975,1.494133,0.3217475,-0.1150853,0.1162457,-0.08021946,-1.354774,0.4392573,0.1457897,0.528778,1.473081,0.2098877,-0.07897129,1.593622,0.2191413,295.0041,96.38594,148.0035,True
3,1.166668,-0.4375949,0.3730901,-0.3081254,-1.373461,-4.593436,-1.473123,0.1929218,1.449046,0.3807158,-0.7512234,0.03770947,11.29973,27.40518,-0.03567854,-0.09608066,0.3005618,-0.2657137,-0.6243998,3.059793,0.3618077,1.494329,0.3208587,-0.09571059,0.1087402,-0.05696347,-1.354487,0.4402067,0.1461599,0.5273885,1.473201,0.209332,-0.08008482,1.596439,0.220668,295.0676,95.2968,149.4641,True
3,1.17778,-0.4032714,0.2856661,-0.3493312,-1.37417,-4.598688,-1.468791,0.1918456,1.449762,0.3807168,-0.7503738,0.07602885,11.22016,27.25519,-0.05000684,-0.03214367,0.2645626,-0.2671177,-0.6319044,3.068192,0.3605293,1.494801,0.3201492,-0.07525977,0.1065582,-0.03264167,-1.35384,0.4412166,0.146056,0.5260205,1.473399,0.2088003,-0.08128651,1.598453,0.2212248,295.0318,94.64379,150.2217,True
3,1.188891,-0.3626595,0.2431548,-0.3523904,-1.375738,-4.6027,-1.465293,0.1905476,1.450136,0.3800149,-0.7481576,0.200399,11.14058,26.93379,-0.01679245,-0.03314458,0.2930915,-0.2718613,-0.6319186,3.067249,0.3592434,1.495298,0.3194516,-0.07409877,0.09694567,-0.0220345,-1.353848,0.4420767,0.1467886,0.5246176,1.47351,0.208236,-0.08252431,1.599791,0.2211637,294.8907,95.01179,149.4301,True
3,1.200002,-0.2911496,0.2139175,-0.2596253,-1.376927,-4.602221,-1.464713,0.1894592,1.450433,0.3799205,-0.7466865,0.1311332,11.08753,26.56953,0.02343082,0.0412816,0.443156,-0.2818903,-0.6456255,3.078786,0.3581048,1.495662,0.3189082,-0.09649361,0.07776729,-0.02615529,-1.354221,0.4423413,0.1485743,0.5231845,1.473486,0.2076828,-0.08385046,1.600874,0.221228,294.6959,96.22418,147.4941,True
3,1.211113,-0.2219607,0.2754352,-0.1236294,-1.381815,-4.599274,-1.465473,0.1887125,1.451354,0.3816061,-0.7450566,0.1462826,11.06101,26.18384,0.08777812,0.04060656,0.3542773,-0.2828346,-0.6477249,3.07775,0.3569774,1.495778,0.3183596,-0.1360647,0.02665985,-0.04832372,-1.355804,0.440964,0.1517831,0.5217412,1.473433,0.2072597,-0.08538035,1.601874,0.2216347,294.7284,96.92158,146.6316,True
3,1.222224,-0.1932339,0.3121043,-0.04394016,-1.386516,-4.597812,-1.464695,0.1879843,1.452375,0.3840892,-0.7446443,0.03472312,11.11406,25.79816,0.1273037,-0.0622392,0.169505,-0.2785746,-0.6307055,3.058836,0.3557171,1.495573,0.317766,-0.1405118,-0.009501603,-0.07289162,-1.3577,0.439918,0.1536402,0.5202602,1.473655,0.206883,-0.08705357,1.602709,0.2222807,294.7689,96.77891,147.0484,True
3,1.233335,-0.2164985,0.2512723,-0.05433814,-1.387511,-4.598633,-1.461408,0.1869445,1.452739,0.383683,-0.7429591,0.1518647,11.22016,25.41247,0.1200837,-0.02159877,0.0726877,-0.2759898,-0.6336057,3.060457,0.354477,1.495664,0.3172643,-0.08625031,0.02463682,-0.07859164,-1.358596,0.4414208,0.1524883,0.5187522,1.473953,0.2064822,-0.08848984,1.603048,0.2230394,294.5853,96.23919,147.7416,True
3,1.244446,-0.2202594,0.0797205,-0.05793258,-1.382702,-4.600461,-1.458375,0.1854338,1.453065,0.3820913,-0.7387375,0.3822741,11.37931,25.04821,0.06963415,-0.02593008,0.01763976,-0.2750002,-0.6327836,3.060595,0.3533092,1.495921,0.3165729,-0.01555892,0.1182902,-0.02674802,-1.356548,0.4456303,0.1495525,0.5170841,1.474244,0.2059619,-0.08963612,1.603018,0.224065,294.1108,95.81709,147.7943,True
3,1.255558,-0.1674542,-0.1211418,0.02276835,-1.374886,-4.598518,-1.458473,0.1843348,1.454226,0.3815718,-0.7333882,0.4834387,11.59151,24.70538,-0.01542113,-0.03052814,0.0395406,-0.2760601,-0.6316072,3.062357,0.3522817,1.496125,0.315809,0.0146524,0.1576001,0.02103736,-1.354283,0.4484628,0.14775,0.5154941,1.474472,0.2054589,-0.09082457,1.603047,0.2254926,293.7065,95.62518,147.761,True
3,1.266669,-0.1233656,-0.2751671,0.07663669,-1.368391,-4.597699,-1.458218,0.1836651,1.456064,0.385417,-0.7305264,0.2554923,11.80371,24.49111,-0.05055547,-0.01470427,0.05154696,-0.2773363,-0.6321665,3.064498,0.3511669,1.49609,0.3149786,0.01619975,0.1329628,0.0752913,-1.35167,0.4485751,0.147631,0.5139338,1.474645,0.2049019,-0.09248103,1.603472,0.2267761,293.6562,95.49123,148.5965,True
3,1.27778,-0.0321229,-0.5155412,0.1074288,-1.354493,-4.596931,-1.461033,0.182555,1.457511,0.3848724,-0.7298084,0.06136797,12.01592,24.4054,-0.07403909,0.1331643,0.1180426,-0.280417,-0.6563238,3.089406,0.3502132,1.496364,0.3141923,-0.0007475913,0.04984517,0.08054539,-1.350896,0.4461395,0.1487272,0.512585,1.474885,0.2042403,-0.09446914,1.604045,0.2272573,293.8155,95.75317,149.3925,True
3,1.288891,0.02568386,-0.6122931,0.1152676,-1.344724,-4.596702,-1.463253,0.181145,1.458088,0.3829589,-0.7264667,0.3023581,12.25464,24.42683,-0.06318346,0.1299481,0.1456617,-0.2828788,-0.6614308,3.09445,0.3491788,1.496818,0.3134501,-0.01247268,-0.008737291,0.07409935,-1.350806,0.4439591,0.1496041,0.5112956,1.475136,0.203614,-0.09607728,1.604151,0.2268357,293.8272,96.83472,148.4608,True
3,1.300002,-0.0671621,-0.1799812,0.1316085,-1.35623,-4.593608,-1.460125,0.1798069,1.457448,0.3809869,-0.7257849,0.05707217,12.44032,24.51253,-0.09149842,0.03819852,0.1637992,-0.2855207,-0.6514582,3.086902,0.3481959,1.497347,0.3125999,-0.03493609,-0.06410769,0.05923104,-1.351044,0.4411663,0.1514207,0.5100918,1.475362,0.2028215,-0.09710391,1.60371,0.2261894,293.7545,98.45097,146.1696,True
3,1.311113,-0.1992985,0.2140871,0.1992559,-1.370932,-4.587446,-1.454811,0.178399,1.457106,0.380379,-0.7216639,0.3736429,12.57294,24.66253,-0.09040401,0.01689767,0.157368,-0.2869593,-0.6484744,3.085022,0.3470148,1.497754,0.3117955,-0.07470644,-0.1023653,0.01472367,-1.352751,0.4391947,0.1539494,0.5088573,1.475543,0.2020817,-0.09824468,1.602895,0.2248668,294.064,99.62949,145.0981,True
3,1.322224,-0.3402236,0.700528,0.2015294,-1.393387,-4.582224,-1.447466,0.1769107,1.455971,0.3779995,-0.7117165,0.9034353,12.7321,25.02678,-0.05165142,0.02650201,0.2178374,-0.2914563,-0.651977,3.087538,0.3456235,1.498116,0.3109207,-0.1218402,-0.1023142,-0.01576835,-1.354128,0.4382611,0.1570655,0.5074831,1.475823,0.2014053,-0.0998957,1.601659,0.2225768,294.1767,99.75556,145.1147,True
3,1.333336,-0.3633708,0.9642401,0.1003057,-1.413204,-4.581917,-1.442486,0.1751787,1.455662,0.3773594,-0.7047832,0.6237068,12.91777,25.60531,-0.02891172,0.07892081,0.1453334,-0.2905956,-0.6608025,3.095533,0.3439645,1.498126,0.3100824,-0.1525036,-0.05234439,0.0155165,-1.352767,0.4391919,0.1596349,0.5059172,1.476115,0.2008209,-0.1019904,1.600491,0.2197446,293.259,98.41404,145.7926,True
3,1.344447,-0.3400715,1.009699,-0.002210706,-1.424759,-4.58508,-1.43948,0.1739829,1.456321,0.378345,-0.6997498,0.4536894,13.12997,26.35526,-0.04441737,0.1364978,0.09015284,-0.2895996,-0.6726248,3.107948,0.342284,1.49815,0.3093863,-0.1361043,0.01783546,0.06988863,-1.34972,0.4414163,0.1599652,0.504412,1.476506,0.2003427,-0.1041363,1.60001,0.2169577,291.8826,96.68251,146.5619,True
3,1.355558,-0.2803813,0.9986451,-0.1428019,-1.43649,-4.590304,-1.437464,0.1726302,1.456455,0.3785276,-0.6998968,-0.01954831,13.39523,27.23377,-0.08781957,0.09718195,-0.04064921,-0.284963,-0.67196,3.109743,0.3406533,1.498521,0.3087864,-0.02258272,0.1412725,0.1491451,-1.344369,0.4466779,0.1552626,0.5027382,1.476846,0.2000058,-0.1061327,1.600855,0.2146457,290.7224,94.72739,147.6902,True
3,1.366669,-0.2407371,0.9198514,-0.15529,-1.443733,-4.590997,-1.436002,0.1713554,1.456291,0.3764825,-0.6994915,0.03451876,13.55437,27.74802,-0.09516254,0.02687787,-0.05883958,-0.2840208,-0.6636901,3.103135,0.3393176,1.498906,0.3081779,0.01571409,0.1636748,0.1435422,-1.343031,0.448669,0.1533826,0.5013605,1.477093,0.1995912,-0.1077295,1.603014,0.2136911,290.3683,93.83415,147.6406,True
3,1.37778,-0.2373006,0.8335195,-0.1677182,-1.450599,-4.592361,-1.433273,0.1704235,1.456695,0.3766379,-0.697304,0.1966444,13.5809,27.79087,-0.04965801,-0.02532081,0.02276855,-0.2871063,-0.6567062,3.095469,0.3380405,1.499333,0.3075371,0.01414039,0.1648955,0.0838998,-1.343804,0.4507836,0.1527363,0.4999603,1.477305,0.1990778,-0.108831,1.606008,0.2148672,290.8042,93.47019,147.3329,True
3,1.388891,-0.2260362,0.6203971,-0.1860329,-1.450683,-4.594748,-1.430744,0.1694917,1.456987,0.3748603,-0.6933956,0.3529248,13.44828,27.38376,0.0008394346,-0.0124893,0.08955103,-0.2906148,-0.6590786,3.095979,0.3369163,1.499604,0.3068559,-0.0353829,0.1426595,0.02140457,-1.345611,0.451851,0.1547952,0.498698,1.477561,0.1984196,-0.1098537,1.609366,0.2181541,291.7025,91.48686,149.6801,True
3,1.400002,-0.1957654,0.4627663,-0.1981698,-1.450805,-4.597412,-1.429228,0.1688384,1.457817,0.3750489,-0.688179,0.471343,13.20955,26.52667,0.0305867,0.03233678,0.1000785,-0.2920438,-0.6659693,3.101206,0.335887,1.499837,0.3061016,-0.06645083,0.1032852,-0.001871165,-1.346463,0.4517878,0.1566391,0.497432,1.477721,0.1977806,-0.1109311,1.612398,0.2224638,292.6001,88.56647,154.0696,True
3,1.411114,-0.0864488,0.2349482,-0.2313379,-1.44642,-4.601596,-1.431678,0.1682223,1.458076,0.3735313,-0.6843829,0.3403668,12.75862,25.09107,0.08165835,0.06233269,0.1050994,-0.2928827,-0.672225,3.104609,0.3352241,1.500019,0.3051674,-0.09113133,0.02770355,-0.02848893,-1.347816,0.449557,0.1589297,0.4962766,1.477816,0.1970265,-0.1121414,1.614754,0.2268727,293.204,86.37844,157.9709,True
3,1.422225,-0.05961905,0.1902992,-0.2525526,-1.449584,-4.606783,-1.430952,0.1681164,1.460052,0.3792548,-0.6814859,0.2593454,12.25464,23.67688,0.120607,0.05272554,0.1847056,-0.2974048,-0.6732418,3.103169,0.3343694,1.500444,0.3045182,-0.09445666,-0.03615618,-0.04886492,-1.349277,0.4473434,0.1604341,0.4949933,1.477964,0.1963174,-0.1135881,1.61626,0.2303442,293.5598,85.52917,160.4681,True
3,1.433336,-0.06700568,0.1506869,-0.2928643,-1.450627,-4.611277,-1.429434,0.1676149,1.460766,0.3797731,-0.6815866,-0.01413837,11.69761,22.45554,0.1646287,0.01234314,0.2130798,-0.3007534,-0.6698282,3.096648,0.3336507,1.500778,0.3038208,-0.07644168,-0.07445897,-0.06296805,-1.35079,0.4453502,0.1610997,0.493762,1.478093,0.1955981,-0.1151497,1.616809,0.2325781,293.6199,85.56084,161.437,True
3,1.444447,-0.08708063,0.0971956,-0.3288739,-1.45071,-4.616138,-1.427191,0.1665325,1.461284,0.3790021,-0.6746144,0.634567,11.11406,21.5556,0.2181136,-0.01626092,0.2307497,-0.303602,-0.6664992,3.089453,0.3328303,1.5011,0.3031385,-0.07216618,-0.09682819,-0.06305875,-1.351623,0.4437976,0.1620952,0.4925036,1.478343,0.1948652,-0.1167638,1.61615,0.2336555,293.4324,86.69553,160.1471,True
3,1.455558,-0.09851958,-0.00517109,-0.3444211,-1.448049,-4.620966,-1.425107,0.1658585,1.462395,0.3798723,-0.6690862,0.4970984,10.68966,21.42704,0.2501893,0.004041135,0.2571943,-0.3072883,-0.6695355,3.088538,0.3320943,1.501391,0.3024459,-0.07640786,-0.09896709,-0.06089745,-1.352413,0.4426978,0.1633197,0.491255,1.478553,0.1941037,-0.118568,1.614915,0.2350409,292.5533,88.16193,157.2687,True
3,1.466669,-0.1278227,-0.1746693,-0.3533479,-1.441485,-4.626886,-1.422545,0.1651827,1.463866,0.3808563,-0.664203,0.4396352,10.37135,21.66274,0.2522458,0.02641603,0.2572256,-0.3100782,-0.6736061,3.089692,0.3311719,1.501693,0.3017869,-0.07317948,-0.08726183,-0.05663655,-1.353031,0.4422306,0.1641016,0.4900444,1.478682,0.1933501,-0.1210247,1.61385,0.2367816,291.8087,88.76645,156.5264,True
3,1.47778,-0.1605414,-0.287683,-0.3539351,-1.435266,-4.631847,-1.419022,0.1647336,1.465196,0.3817959,-0.6603212,0.348628,10.1061,22.11271,0.2700691,0.06487137,0.2358666,-0.3118689,-0.6807945,3.092963,0.3305065,1.502117,0.3010805,-0.03568111,-0.08197865,-0.03137372,-1.352579,0.4414381,0.1633729,0.4888383,1.478826,0.1924636,-0.1240127,1.613134,0.2384978,291.2256,89.18944,156.8237,True
3,1.488891,-0.1675772,-0.4390351,-0.3650054,-1.426314,-4.637553,-1.416257,0.164206,1.466213,0.3811772,-0.6560932,0.3809806,9.8939,22.77694,0.2806373,0.05959508,0.22194,-0.3138738,-0.6817844,3.090485,0.330084,1.502491,0.3003488,-0.03147157,-0.113912,-0.04001342,-1.353701,0.4392023,0.164027,0.4876208,1.479077,0.1916029,-0.1268969,1.612616,0.2401255,290.6693,90.37746,156.2458,True
3,1.500003,-0.1214401,-0.5637754,-0.4166785,-1.417259,-4.645505,-1.415159,0.1640973,1.467575,0.3812544,-0.6512494,0.4371731,9.734747,23.44118,0.2895103,0.03611282,0.2601882,-0.318146,-0.6809474,3.086223,0.3296039,1.502933,0.299526,-0.05264661,-0.1757437,-0.02934339,-1.354404,0.4351579,0.16623,0.4865517,1.479202,0.1906672,-0.1293774,1.612336,0.2416679,290.222,92.25756,154.748,True
3,1.511114,-0.08495788,-0.6555655,-0.4770113,-1.408097,-4.654315,-1.414118,0.1638409,1.468894,0.3809767,-0.6484371,0.2511506,9.522545,23.59117,0.2855234,0.05304551,0.3071225,-0.3231134,-0.685267,3.087279,0.3291307,1.503519,0.2988496,-0.08898564,-0.2268541,-0.04621352,-1.356082,0.431149,0.1693227,0.4855077,1.479314,0.1896963,-0.1312547,1.612372,0.2430919,289.9554,93.8506,153.5866,True
3,1.522225,-0.08046621,-0.7377158,-0.5043591,-1.398585,-4.662273,-1.412016,0.163522,1.470008,0.3797808,-0.6470048,0.1265794,9.389919,23.07692,0.319145,0.08811641,0.4081493,-0.3308493,-0.6933966,3.090234,0.3286531,1.504212,0.2982204,-0.1115838,-0.2321246,-0.07267459,-1.358279,0.4289087,0.1717614,0.4844786,1.479351,0.18875,-0.1325846,1.612688,0.2440978,290.0295,95.38866,152.6672,True
3,1.533336,-0.08782033,-0.7760408,-0.493543,-1.389607,-4.669064,-1.409594,0.1633337,1.471656,0.3806565,-0.6438341,0.2865356,9.416446,21.89844,0.3584659,0.1085022,0.4047134,-0.3352835,-0.7000345,3.09119,0.3281296,1.504762,0.2975707,-0.1406838,-0.2277787,-0.1118332,-1.361286,0.42696,0.1747425,0.4834325,1.479448,0.1877813,-0.133483,1.613122,0.2447506,290.373,97.25355,151.1548,True
3,1.544447,-0.1176517,-0.7546303,-0.4553683,-1.382722,-4.675177,-1.406605,0.1634666,1.473795,0.3829474,-0.6390745,0.4301096,9.549072,20.22713,0.3846451,0.1012666,0.3363323,-0.3363114,-0.7025001,3.088315,0.3277349,1.505282,0.2969382,-0.1394446,-0.2438095,-0.0927045,-1.362074,0.4237606,0.1768467,0.4824255,1.479594,0.1868701,-0.134345,1.613604,0.2451442,290.8494,98.91847,149.7384,True
3,1.555558,-0.1380028,-0.7141221,-0.4363676,-1.377014,-4.680456,-1.40336,0.1632978,1.475287,0.3837097,-0.6349669,0.3694875,9.867373,18.42726,0.4100091,0.05990508,0.2870671,-0.3375727,-0.7008385,3.081265,0.3273923,1.505798,0.2962565,-0.1243663,-0.2608921,-0.07476673,-1.362885,0.4202817,0.178427,0.4813936,1.479759,0.1859338,-0.135345,1.614023,0.245286,291.2056,100.5866,148.2253,True
3,1.566669,-0.1488117,-0.6567175,-0.4536462,-1.37281,-4.68685,-1.40014,0.1629452,1.476308,0.3827429,-0.6309268,0.3640752,10.23872,16.73452,0.3930669,0.04386055,0.2935454,-0.3412436,-0.7014084,3.078219,0.3267998,1.506203,0.2955105,-0.1103646,-0.2747768,-0.05787008,-1.363469,0.4167932,0.1798297,0.4804052,1.479961,0.1849821,-0.1363474,1.614354,0.2455924,291.2728,102.7435,145.6889,True
3,1.577781,-0.1756021,-0.6163916,-0.4889936,-1.369582,-4.695371,-1.395261,0.1631235,1.47843,0.3867793,-0.6272693,0.3293405,10.6366,15.23462,0.3495388,0.04685888,0.3162324,-0.3453997,-0.7039142,3.078249,0.3264122,1.506846,0.2946477,-0.1122962,-0.2737741,-0.03441356,-1.363592,0.4137154,0.1817621,0.4794407,1.480087,0.184,-0.1372894,1.61484,0.2465722,291.1457,104.764,143.1984,True
3,1.588892,-0.2001468,-0.5994667,-0.5018533,-1.364749,-4.702484,-1.39077,0.1629562,1.480087,0.3876793,-0.6243653,0.2607102,11.06101,13.88472,0.3286211,0.04774398,0.3717736,-0.351305,-0.7069931,3.078244,0.3259162,1.507497,0.2938054,-0.1164779,-0.2684864,-0.02477702,-1.364131,0.4108511,0.1838204,0.4784235,1.480148,0.1830225,-0.1383403,1.615685,0.2481385,291.0927,105.7569,142.4909,True
3,1.600003,-0.1873363,-0.6068732,-0.4911602,-1.35835,-4.708789,-1.387879,0.1625425,1.481616,0.387074,-0.6201187,0.3840956,11.43236,12.74909,0.2926306,0.08586743,0.4232388,-0.3577611,-0.7148489,3.083676,0.3254409,1.508084,0.2930021,-0.1443404,-0.2641929,-0.04370482,-1.365775,0.408259,0.1869691,0.4774839,1.48025,0.1820667,-0.1394669,1.6168,0.2501069,291.1754,106.7708,141.8412,True
3,1.611114,-0.1584692,-0.6472,-0.4728717,-1.350694,1.568169,-1.385779,0.1624561,1.483534,0.3877945,-0.6171333,0.2677106,11.67109,11.99914,0.2799137,0.1209177,0.4489689,-0.3634821,-0.7229729,3.088407,0.3251517,1.508604,0.2923548,-0.167992,-0.2545522,-0.06797832,-1.367845,0.406114,0.1900778,0.4765732,1.480315,0.1810699,-0.1404455,1.618236,0.2531181,291.2413,108.3204,140.1294,True
3,1.622225,-0.1371007,-0.6748211,-0.4663538,-1.343252,1.561606,-1.38343,0.1623435,1.485271,0.3878469,-0.6156238,0.1336566,11.85676,11.59203,0.2977265,0.06252208,0.3784151,-0.3651151,-0.7193249,3.081073,0.3247564,1.509232,0.2916944,-0.1754484,-0.257752,-0.06898744,-1.369129,0.4032513,0.1927074,0.4757334,1.480428,0.1801865,-0.1415264,1.620181,0.2568126,291.339,108.9305,140.2742,True
3,1.633336,-0.1158717,-0.6428949,-0.4856644,-1.338341,1.554423,-1.3813,0.1622302,1.486865,0.3877859,-0.6135013,0.1908106,11.96286,11.54917,0.3083002,0.04555517,0.359126,-0.3682545,-0.7194961,3.077462,0.3244234,1.509899,0.2908781,-0.1572194,-0.2705589,-0.05532977,-1.369907,0.3998815,0.1945724,0.4748401,1.48062,0.179224,-0.1426518,1.622309,0.260424,291.5755,109.1105,141.5006,True
3,1.644447,-0.1212956,-0.6110012,-0.4943205,-1.33387,1.547546,-1.377947,0.1620112,1.488225,0.3874397,-0.6102548,0.2929204,12.06897,11.76344,0.2838015,0.06143442,0.3678526,-0.3726796,-0.7244427,3.079869,0.3239594,1.510521,0.2898734,-0.143393,-0.2769355,-0.05866051,-1.371286,0.3967211,0.1962523,0.4739391,1.480769,0.1783442,-0.1436136,1.62418,0.2635162,291.886,109.5989,142.198,True
3,1.655559,-0.188612,-0.5334626,-0.5063837,-1.332065,1.540796,-1.371873,0.1617536,1.48985,0.3881905,-0.6075256,0.2450971,12.25464,12.02057,0.2275279,0.06437767,0.3959564,-0.377991,-0.7273799,3.082124,0.3234288,1.511302,0.2888753,-0.1509753,-0.2662491,-0.07241815,-1.37309,0.3944265,0.1986268,0.473079,1.480991,0.1774015,-0.1445198,1.625671,0.2658044,292.1403,110.3113,142.2971,True
3,1.66667,-0.2131215,-0.5092603,-0.4787519,-1.322474,1.538089,-1.367905,0.1593316,1.484331,0.3606603,-0.603362,0.3768572,12.54642,12.27769,0.2086937,0.1046663,0.46434,-0.3851373,-0.7353243,3.087832,0.3227051,1.512082,0.2880983,-0.1841231,-0.218306,-0.08373262,-1.374561,0.3938999,0.2019083,0.4721636,1.481018,0.1765192,-0.1454827,1.626791,0.2673146,292.3039,111.1181,141.8957,True
3,1.677781,-0.2088202,-0.5240487,-0.4520559,-1.3171,1.532703,-1.364388,0.1589139,1.485975,0.3606496,-0.5978147,0.5021901,12.75862,12.42768,0.2343079,0.1707282,0.5037029,-0.3919598,-0.7471517,3.095344,0.3220721,1.512655,0.2874215,-0.2204497,-0.1756923,-0.09290004,-1.37599,0.3937112,0.2056011,0.4712188,1.48118,0.1756914,-0.1465854,1.627664,0.2681983,292.3404,112.2077,140.8481,True
3,1.688892,-0.2248003,-0.5367045,-0.414687,-1.311475,1.528554,-1.360089,0.1587733,1.487719,0.3607497,-0.5965523,0.1101513,12.91777,12.42768,0.227356,0.1570293,0.4174335,-0.3935049,-0.7508894,3.096348,0.3215316,1.513254,0.2866845,-0.2363097,-0.1778656,-0.07891802,-1.376723,0.3916718,0.2090901,0.4702101,1.481456,0.1748936,-0.1483051,1.628727,0.2675507,292.1368,110.1239,145.8777,True
3,1.700003,-0.2355079,-0.5229104,-0.4200637,-1.307361,1.522501,-1.355368,0.1586163,1.489275,0.3605378,-0.5960006,0.04846068,12.9443,12.25627,0.1943639,0.06749517,0.3780847,-0.3964834,-0.7451109,3.089948,0.3209937,1.513846,0.2859564,-0.196531,-0.2099051,-0.03885742,-1.376444,0.3880296,0.2106049,0.469277,1.481713,0.1741405,-0.1507516,1.628779,0.2608684,292.4246,107.7419,153.3962,True
3,1.711114,-0.2387415,-0.5144407,-0.4392572,-1.303868,1.516051,-1.350804,0.1584397,1.491241,0.3610885,-0.5934759,0.2298517,12.81167,11.93486,0.1582266,0.03861871,0.3750875,-0.400712,-0.7445716,3.088831,0.3204867,1.514526,0.2851846,-0.1612104,-0.2323034,-0.02110597,-1.37676,0.3844306,0.2117096,0.4684205,1.481913,0.1733296,-0.1522384,1.627189,0.2503826,292.4961,111.6296,147.6509,True
3,1.722225,-0.2163495,-0.5293492,-0.4540788,-1.298898,1.509498,-1.347259,0.1580907,1.493029,0.361347,-0.5920612,0.1264624,12.57294,11.54917,0.1325845,0.04812101,0.3688991,-0.4046929,-0.747609,3.090981,0.3199281,1.515324,0.2843947,-0.1323921,-0.22165,-0.01386008,-1.377122,0.3822994,0.2125384,0.4675343,1.482083,0.1724746,-0.1526724,1.625131,0.2394541,292.6459,117.0313,137.1956,True
3,1.733337,-0.2056777,-0.5356531,-0.4402041,-1.293896,1.50356,-1.343736,0.1577449,1.494672,0.3614426,-0.5911967,0.07750061,12.28117,11.20634,0.1391484,0.04917386,0.3944182,-0.409853,-0.7502822,3.091681,0.3193237,1.516162,0.2835298,-0.1517341,-0.1896556,-0.03065437,-1.3782,0.3815893,0.2151131,0.4667187,1.482292,0.1716485,-0.152644,1.62402,0.2309968,293.1802,121.2868,128.4346,True
3,1.744448,-0.2174342,-0.526993,-0.400801,-1.289307,1.499408,-1.339482,0.1575423,1.496351,0.3617489,-0.5912596,-0.007002704,11.90981,10.86351,0.1872231,0.07591867,0.4260821,-0.4156412,-0.7556357,3.092699,0.3187489,1.516944,0.2828493,-0.2109208,-0.1437119,-0.09714548,-1.381538,0.3822583,0.2193787,0.4658648,1.48243,0.1708829,-0.1525786,1.624533,0.2263068,293.8611,123.6171,123.4995,True
3,1.755559,-0.2111036,-0.5033426,-0.3540272,-1.285174,1.495861,-1.336338,0.1572155,1.497762,0.3616631,-0.5902886,0.08818039,11.53846,10.58496,0.2550418,0.1113771,0.3926432,-0.4188066,-0.7623344,3.093545,0.3180346,1.51744,0.2821822,-0.2119978,-0.1394486,-0.09819049,-1.382963,0.3811105,0.2220054,0.4649845,1.482635,0.1701052,-0.1526306,1.626566,0.225534,294.5452,124.1737,122.4331,True
3,1.76667,-0.1836063,-0.463691,-0.3233136,-1.282636,1.491809,-1.333348,0.1574042,1.498629,0.3615332,-0.5882353,0.1864042,11.27321,10.49925,0.2362213,0.1370547,0.306532,-0.4189706,-0.7684191,3.097306,0.3172964,1.518143,0.2814946,-0.1733489,-0.1586888,-0.06448092,-1.382958,0.3784417,0.2230373,0.464058,1.482998,0.1693506,-0.1527674,1.629656,0.2281239,295.0133,123.6111,123.9927,True
3,1.777781,-0.1549216,-0.4273937,-0.323472,-1.279976,1.487166,-1.331451,0.1568565,1.499887,0.3612137,-0.5883743,-0.0146618,11.06101,10.39211,0.173221,0.09643215,0.2664192,-0.4207097,-0.7677691,3.097038,0.3166415,1.518795,0.2808666,-0.1356575,-0.1694417,-0.01795218,-1.382116,0.3758923,0.2237532,0.4631879,1.483342,0.1685588,-0.1528989,1.633339,0.2330293,295.1718,122.5445,126.9523,True
3,1.788892,-0.1326206,-0.4017564,-0.3214514,-1.277338,1.48269,-1.329474,0.1565292,1.501001,0.360975,-0.5881895,0.01682252,10.90185,10.2207,0.1433736,0.07824773,0.2548772,-0.423278,-0.7687622,3.097325,0.3160162,1.51924,0.280071,-0.1342487,-0.1769993,0.02142948,-1.381123,0.3733897,0.2256968,0.4623107,1.483562,0.1677482,-0.1529264,1.637072,0.2390042,295.2361,121.2493,130.5633,True
3,1.800003,-0.1061038,-0.3802432,-0.2949157,-1.274913,1.479197,-1.327641,0.1561598,1.501787,0.3608446,-0.5888878,-0.06438877,10.76923,9.942146,0.119745,0.07502532,0.2262737,-0.4247364,-0.7708195,3.098654,0.3155178,1.519729,0.2793252,-0.1530537,-0.1877672,0.06418364,-1.379509,0.3705785,0.2286579,0.4613406,1.483736,0.1669958,-0.1528409,1.640412,0.2449477,295.2957,120.0256,134.0072,True
3,1.811115,-0.07634225,-0.3533419,-0.2502898,-1.272317,1.477257,-1.327307,0.15577,1.502517,0.3605168,-0.5882875,0.05505087,10.58355,9.427898,0.1079112,0.09418255,0.2189325,-0.4268003,-0.7755535,3.10208,0.31498,1.520259,0.2785716,-0.1711455,-0.2016303,0.06536674,-1.379327,0.3676859,0.2317664,0.4605854,1.483935,0.1662397,-0.1531176,1.643309,0.2499539,295.4288,119.1484,136.6865,True
3,1.822226,-0.04556485,-0.3083233,-0.2036016,-1.270581,1.476179,-1.327435,0.1548449,1.503674,0.3601167,-0.5875509,0.06642722,10.47745,8.913648,0.0811564,0.0941219,0.2020673,-0.4283865,-0.7782087,3.1045,0.314435,1.520959,0.2778215,-0.1704661,-0.1919298,0.02063643,-1.381189,0.3661602,0.2338988,0.460047,1.484141,0.1655271,-0.1536583,1.64545,0.2535228,295.5419,118.7536,138.3173,True
3,1.833337,-0.01905795,-0.2601641,-0.1675744,-1.269426,1.475381,-1.327788,0.1542735,1.504565,0.3597667,-0.5880451,-0.04612065,10.4244,8.485106,0.03108537,0.09926717,0.2045635,-0.4306704,-0.7813336,3.108692,0.313752,1.521598,0.2770996,-0.162188,-0.1598932,-0.005987942,-1.382344,0.3657368,0.2354525,0.459502,1.484519,0.1648233,-0.1543415,1.646676,0.2554146,295.5752,118.7487,139.0046,True
3,1.844448,0.001086555,-0.2258944,-0.1368131,-1.268139,1.474666,-1.328122,0.1535281,1.505433,0.3592925,-0.5878406,0.01885849,10.45093,8.142276,0.01181002,0.1300961,0.2058228,-0.4330002,-0.7875769,3.114781,0.3129044,1.522228,0.2765043,-0.1548434,-0.1343014,-0.01663808,-1.382955,0.3651007,0.2371119,0.4587874,1.484748,0.1640851,-0.155227,1.647074,0.2555546,295.53,119.0788,138.8529,True
3,1.855559,0.01687265,-0.1521396,-0.08812239,-1.268915,1.475692,-1.329188,0.152809,1.50579,0.3587365,-0.5874822,0.03219939,10.58355,7.928005,-0.002303302,0.1343754,0.1707756,-0.4336665,-0.7915179,3.118856,0.312184,1.522713,0.2758641,-0.1601517,-0.1044877,-0.01225346,-1.382997,0.3650439,0.2390685,0.4580778,1.485081,0.1634924,-0.1564835,1.646948,0.2541284,295.408,119.7716,137.8225,True
3,1.86667,0.0229932,-0.06778318,-0.05015574,-1.271258,1.476377,-1.329249,0.1525165,1.505612,0.3583229,-0.586974,0.04591165,10.79576,8.013712,-0.0175853,0.1450674,0.1240187,-0.4331669,-0.7962441,3.123803,0.3114347,1.523199,0.2753313,-0.1608993,-0.08540995,0.02615895,-1.381415,0.3642754,0.241035,0.4573957,1.485516,0.1629274,-0.1578058,1.64637,0.251635,295.2839,120.7591,136.1007,True
3,1.877781,0.01330111,-0.0273049,-0.043927,-1.272202,1.476353,-1.329044,0.1515943,1.506208,0.3578422,-0.5867567,0.01922861,11.06101,8.206554,-0.03042571,0.109918,0.09953905,-0.4335845,-0.7964268,3.124774,0.3108258,1.523543,0.2747109,-0.14565,-0.06952715,0.06655542,-1.379425,0.3634983,0.2422569,0.4567084,1.485885,0.1624222,-0.1590926,1.645563,0.248616,295.2001,121.7677,134.1754,True
3,1.888893,0.006940306,-0.03904907,-0.04600707,-1.271656,1.475575,-1.328662,0.1509799,1.506572,0.3575215,-0.5855237,0.112401,11.27321,8.420825,-0.04421678,0.09282752,0.09642068,-0.4341959,-0.7972207,3.126281,0.3101971,1.523931,0.2741475,-0.1337652,-0.06956873,0.0866919,-1.378098,0.3623551,0.2436236,0.4560187,1.486212,0.161855,-0.1600809,1.644569,0.2456015,295.1086,122.364,132.6376,True
3,1.900004,0.01246161,-0.07844093,-0.03843268,-1.268893,1.47403,-1.329673,0.1505266,1.507659,0.3572311,-0.5851125,0.03642267,11.45889,8.570816,-0.04317059,0.1013437,0.101741,-0.4358114,-0.8010123,3.130373,0.3095421,1.524201,0.2736979,-0.1070691,-0.05785267,0.09502285,-1.37684,0.3618157,0.24403,0.4553359,1.486288,0.1613543,-0.1607733,1.643618,0.2430281,294.9932,122.8032,131.3611,True
3,1.911115,0.02864671,-0.1540238,-0.03598697,-1.264954,1.472683,-1.3301,0.1500067,1.508216,0.3569956,-0.5849793,0.01188853,11.51194,8.420825,-0.01031071,0.07489768,0.06523603,-0.4353821,-0.801097,3.129491,0.3089926,1.524455,0.2732952,-0.09570225,-0.03217515,0.05557568,-1.377361,0.36242,0.2445956,0.4547596,1.486399,0.1609666,-0.1615969,1.643214,0.2411253,294.9608,123.3572,130.2221,True
3,1.922226,0.04254177,-0.1870143,-0.03693992,-1.262335,1.471013,-1.330039,0.1497125,1.508132,0.3564572,-0.5864164,-0.1315912,11.45889,8.206554,-0.008317625,0.05365356,0.03535096,-0.4347642,-0.800641,3.129131,0.3083408,1.524757,0.272799,-0.09595084,-0.02997657,0.02682005,-1.378036,0.3621635,0.245809,0.4541635,1.486493,0.1604698,-0.1623776,1.643315,0.2400795,295.0119,123.9607,129.343,True
3,1.933337,0.06067612,-0.1966159,-0.05181547,-1.26016,1.469261,-1.330791,0.149377,1.508568,0.3562226,-0.5857117,0.06540772,11.29973,7.94943,-0.001941014,0.06219444,0.03745268,-0.4352159,-0.8028509,3.13095,0.3077959,1.525099,0.2723539,-0.08993754,-0.03411678,-0.01798621,-1.379828,0.3620575,0.2466202,0.4536748,1.486639,0.1600385,-0.1630762,1.643836,0.2398991,295.1966,124.432,128.9247,True
3,1.944448,0.07458825,-0.217934,-0.06021772,-1.257219,1.468051,-1.331665,0.1485125,1.509251,0.3558929,-0.5850134,0.06298138,11.03448,7.692307,0.01396788,0.07184704,0.03310727,-0.43569,-0.8057516,3.132994,0.3072173,1.525485,0.271852,-0.09747614,-0.02770708,-0.02642769,-1.380275,0.3620581,0.2480452,0.4530413,1.486811,0.1595628,-0.1635658,1.644409,0.2404394,295.4495,124.4251,129.302,True
3,1.955559,0.0799305,-0.224383,-0.07723592,-1.25487,1.46585,-1.332091,0.1482141,1.509604,0.3557034,-0.5856195,-0.05602216,10.68966,7.456608,0.01287609,0.06865761,0.02778228,-0.4357832,-0.8072534,3.134211,0.3066773,1.525789,0.2713277,-0.1188357,-0.02770377,-0.03263799,-1.38091,0.3619066,0.2501332,0.452491,1.486935,0.1591232,-0.1638603,1.644819,0.2414276,295.5984,124.1697,130.083,True
3,1.966671,0.07451092,-0.1892169,-0.06670396,-1.253896,1.465735,-1.332534,0.1476002,1.509984,0.3553402,-0.5854789,0.01328395,10.39788,7.478036,0.006522078,0.09203801,0.04491413,-0.4368085,-0.8114239,3.138239,0.3061971,1.526012,0.2707679,-0.1134191,-0.02346948,-0.02202817,-1.380911,0.3617392,0.2511928,0.4520848,1.487057,0.1587315,-0.1643198,1.64519,0.2425888,295.656,124.0558,130.6936,True
3,1.977782,0.09045692,-0.1785542,-0.07420278,-1.252534,1.464336,-1.333577,0.147058,1.510332,0.3551698,-0.5851375,0.03090149,10.18567,7.73516,0.01212661,0.07494987,0.07574011,-0.4386993,-0.8120782,3.138511,0.3057335,1.526323,0.2702668,-0.105861,-0.02456248,-0.01037725,-1.380728,0.3613569,0.2521156,0.4514606,1.487232,0.1583083,-0.165152,1.645543,0.2436626,295.6728,124.1476,131.0662,True
3,1.988893,0.08722577,-0.1626238,-0.08064024,-1.251281,1.463215,-1.334135,0.146511,1.510529,0.3549049,-0.5843465,0.07196924,10.02653,8.206554,0.006941635,0.04828545,0.08211666,-0.4398125,-0.810989,3.137594,0.3051902,1.526538,0.269804,-0.1035674,-0.03419559,0.007689528,-1.380229,0.3604984,0.2533082,0.4508961,1.487435,0.1579568,-0.1660711,1.645669,0.2445618,295.6104,124.3973,131.1855,True
3,2.000004,0.03063447,-0.1329576,-0.08396007,-1.251356,1.461973,-1.331545,0.1465465,1.510427,0.3547101,-0.5851657,-0.07553289,9.94695,8.82794,-0.008242092,0.07916898,0.05990685,-0.4396059,-0.8156455,-3.140658,0.3046151,1.526797,0.2694914,-0.1011762,-0.02895192,0.03857476,-1.37885,0.3599156,0.2544621,0.450267,1.487593,0.1575975,-0.167087,1.645653,0.2451185,295.436,124.6245,131.2331,True
3,2.011115,0.0125417,-0.1393932,-0.08286539,-1.249874,1.460638,-1.330652,0.1461545,1.510843,0.3545549,-0.5845985,0.05248812,9.920423,9.406469,-0.005242771,0.08774775,0.03646491,-0.4392447,-0.8186243,-3.137999,0.3041033,1.527077,0.2691193,-0.09462456,-0.01089695,0.05987427,-1.377379,0.3600192,0.2553852,0.4496552,1.487753,0.1571474,-0.1680878,1.645442,0.2453351,295.3617,124.9502,131.036,True
3,2.022226,0.01470125,-0.145756,-0.07536152,-1.248024,1.459896,-1.330884,0.1455638,1.511469,0.3543041,-0.5814229,0.2898195,9.920423,9.942146,0.01176466,0.07185141,0.02352866,-0.4390727,-0.8190914,-3.138263,0.3035821,1.527428,0.2688215,-0.07783943,-0.005483627,0.02991709,-1.37806,0.3602819,0.2556946,0.4492162,1.487826,0.1567905,-0.1689402,1.644998,0.2452761,295.2931,125.3391,130.6488,True
3,2.033337,0.02211924,-0.1319501,-0.09033491,-1.247397,1.458148,-1.330817,0.1453404,1.51192,0.3540585,-0.5829654,-0.1433225,10.07958,10.39211,0.02805694,0.02393116,0.04356175,-0.4401428,-0.8159657,3.141221,0.3032377,1.52774,0.2683887,-0.06970048,-0.04054655,-0.01920677,-1.379482,0.3596397,0.2563545,0.4487292,1.487934,0.1564536,-0.1694999,1.64454,0.2450045,295.0881,125.9872,129.922,True
3,2.044448,0.02102397,-0.1224543,-0.1084628,-1.246616,1.456401,-1.330357,0.1448793,1.512468,0.3538961,-0.5842544,-0.116288,10.34483,10.71352,0.04544227,0.02283427,0.09137841,-0.4427825,-0.8166701,3.140892,0.3027504,1.527973,0.2679205,-0.07215492,-0.05318961,-0.05653982,-1.382075,0.3586757,0.2574358,0.4481924,1.48806,0.1561353,-0.170014,1.644462,0.2445301,295.0295,126.6544,129.1571,True
3,2.055559,0.01881306,-0.09262759,-0.1075227,-1.246897,1.455163,-1.330112,0.1446033,1.512939,0.3536687,-0.5844035,-0.01276325,10.74271,10.92779,0.0540126,0.06222484,0.1180315,-0.4449455,-0.8210614,-3.139167,0.3022949,1.528259,0.2674854,-0.0745327,-0.04459948,-0.08526409,-1.383991,0.3589258,0.2582912,0.4477156,1.488252,0.1557448,-0.1705143,1.64478,0.2439251,295.1218,127.0067,128.6924,True
3,2.06667,0.009104745,-0.04889314,-0.08746011,-1.247857,1.455227,-1.329807,0.1441975,1.513402,0.3534474,-0.5839849,0.03826113,11.19363,11.03493,0.05501097,0.08354042,0.1191272,-0.4461956,-0.8251088,-3.136119,0.3018317,1.528546,0.2671275,-0.07134183,-0.03181483,-0.08419249,-1.384791,0.3592792,0.2590033,0.4471946,1.488452,0.1552699,-0.1708825,1.645344,0.2433786,295.2996,127.0889,128.4467,True
3,2.077781,-0.01552787,0.001145937,-0.07914277,-1.249605,1.455146,-1.328828,0.1439346,1.513902,0.3532166,-0.5839785,0.0002586153,11.61804,11.16349,0.06003484,0.07512572,0.07220276,-0.445451,-0.8262865,-3.135883,0.3014544,1.52886,0.2667665,-0.05825382,-0.03723229,-0.0491657,-1.384438,0.3584644,0.2593477,0.4466508,1.488732,0.1548104,-0.1711995,1.646127,0.2430292,295.4875,127.0164,128.3735,True
3,2.088892,-0.03584253,0.0192105,-0.08351684,-1.251082,1.453501,-1.326946,0.1442773,1.513503,0.3531857,-0.5835263,0.04141282,11.98939,11.3349,0.06847739,0.05921867,0.05293696,-0.4453775,-0.8265682,-3.136668,0.3010492,1.529271,0.266391,-0.05482072,-0.0522075,-0.02260646,-1.384156,0.3573077,0.2600327,0.4460545,1.489025,0.154376,-0.1714118,1.647025,0.2429418,295.5911,126.7659,128.5786,True
3,2.100003,-0.04863039,0.01584015,-0.1154501,-1.251585,1.451125,-1.325067,0.1437113,1.514543,0.3529468,-0.5829105,0.05599067,12.28117,11.52775,0.07399164,0.03151166,0.06563296,-0.4466845,-0.8249477,-3.139193,0.3007023,1.529708,0.2659347,-0.05966293,-0.07899106,0.03169432,-1.382571,0.3549054,0.2612702,0.4455556,1.489316,0.1539164,-0.1715757,1.648009,0.2430455,295.5832,126.3852,129.0341,True
3,2.111114,-0.03472571,-0.005506441,-0.1313298,-1.251065,1.44903,-1.324531,0.143558,1.515387,0.3526626,-0.5825611,0.03154832,12.51989,11.78487,0.03899851,0.06646617,0.1064251,-0.4490979,-0.8293211,-3.134429,0.3003363,1.530202,0.2653553,-0.06899765,-0.09185596,0.06050421,-1.381302,0.3529686,0.2627629,0.4449992,1.489602,0.1534536,-0.1715313,1.648947,0.2432951,295.5747,126.0378,129.5161,True
3,2.122225,-0.03258959,-0.005500257,-0.1302432,-1.251295,1.448018,-1.323983,0.1431542,1.516201,0.3524728,-0.5829164,-0.03260349,12.59947,12.17056,0.04128897,0.06962891,0.1309135,-0.4512817,-0.8316008,-3.132919,0.2999658,1.530669,0.2649369,-0.07126261,-0.08755294,0.04455908,-1.381586,0.3522543,0.2636828,0.4444346,1.489842,0.1530094,-0.1712361,1.649772,0.24371,295.6468,125.8628,129.8066,True
3,2.133336,-0.03792524,-0.003478125,-0.1526223,-1.251938,1.445537,-1.322605,0.143048,1.517016,0.3522971,-0.5843151,-0.1275004,12.49337,12.68481,0.05932283,0.0675853,0.119063,-0.4522633,-0.8332115,-3.132715,0.2996685,1.531127,0.2644715,-0.08008843,-0.08000936,0.009497743,-1.382757,0.3518999,0.2649315,0.4439226,1.490125,0.1525996,-0.1713552,1.651038,0.2441801,295.7093,125.9611,129.8418,True
3,2.144447,-0.04326571,0.001761511,-0.1675353,-1.25256,1.443519,-1.321318,0.1428403,1.517879,0.3520627,-0.5841298,0.01799864,12.25464,13.32762,0.06465206,0.08569212,0.1286468,-0.4538794,-0.8364454,-3.130681,0.2994139,1.531615,0.2640445,-0.07273163,-0.07038473,-0.001192562,-1.383181,0.351577,0.2656117,0.4433767,1.490381,0.1521826,-0.1716045,1.652476,0.2447013,295.8156,125.9488,130.0495,True
3,2.155558,-0.04751969,-0.002497375,-0.1643201,-1.252786,1.441758,-1.319995,0.1428426,1.518669,0.3518951,-0.5837148,0.03769954,11.88329,14.05614,0.08289281,0.08784595,0.1487675,-0.4563076,-0.8387618,-3.130047,0.2992855,1.532031,0.2636333,-0.04416198,-0.06711214,-0.02379926,-1.38437,0.3512335,0.2651992,0.4429332,1.490645,0.1517434,-0.1719335,1.653941,0.2452109,295.8859,125.7283,130.4637,True
3,2.166669,-0.09451155,0.04317942,-0.1655598,-1.254985,1.440526,-1.317256,0.1428052,1.519188,0.3517742,-0.5836397,0.006528554,11.51194,14.78466,0.09378508,0.05482656,0.1667308,-0.4586246,-0.8375889,-3.132408,0.2990399,1.532384,0.2631066,-0.009048719,-0.07773458,-0.02944741,-1.385079,0.3500679,0.2643217,0.4424692,1.490999,0.1511962,-0.1722169,1.655335,0.245723,295.9244,125.6277,130.7227,True
3,2.17778,-0.1074262,0.08893695,-0.1689403,-1.257867,1.439272,-1.315133,0.142673,1.519762,0.3516543,-0.5835641,0.006947787,11.14058,15.42747,0.08544573,0.008978143,0.1709699,-0.4607727,-0.8339718,-3.136205,0.2988969,1.532774,0.2626655,-0.00784985,-0.1150576,-0.01677402,-1.385561,0.3474713,0.2648498,0.4420879,1.491309,0.1506836,-0.1724155,1.656651,0.2462247,295.9409,125.6097,130.8896,True
3,2.188891,-0.1384992,0.1548117,-0.1894412,-1.262254,1.437687,-1.312112,0.142618,1.520295,0.351619,-0.5820722,0.1364138,10.82228,15.98457,0.09806746,0.04099038,0.1645439,-0.4622566,-0.8373106,-3.134611,0.2987326,1.53324,0.2623215,-0.02486753,-0.1353111,-0.01455072,-1.386177,0.345419,0.2661462,0.4417345,1.491614,0.1501775,-0.1724336,1.657841,0.2466938,295.9442,125.5667,131.0651,True
3,2.200002,-0.1417554,0.1750191,-0.1948473,-1.265293,1.436063,-1.309929,0.1425969,1.520828,0.3516068,-0.5826954,-0.05803945,10.5305,16.47739,0.1245591,0.06027785,0.1548088,-0.4636936,-0.8404044,-3.134093,0.2987057,1.533592,0.2618952,-0.03767519,-0.1374406,-0.01763858,-1.38682,0.3439779,0.2672544,0.4413124,1.491896,0.149646,-0.1723358,1.659064,0.2470968,295.857,125.3947,131.3179,True
3,2.211113,-0.1278303,0.1473177,-0.2043027,-1.266631,1.433976,-1.308423,0.1427161,1.521375,0.3515449,-0.5821819,0.04771936,10.29178,16.90593,0.1583768,0.05835024,0.1151382,-0.4635695,-0.8419006,-3.135652,0.2986207,1.534006,0.2616305,-0.05566743,-0.1438738,-0.004715789,-1.386895,0.3421929,0.2687606,0.4410049,1.492112,0.149195,-0.1721898,1.660469,0.24745,295.792,125.1056,131.6193,True
3,2.222224,-0.1011484,0.1249859,-0.2116656,-1.267877,1.431597,-1.307335,0.1428752,1.521902,0.35151,-0.5831364,-0.08761242,10.1061,17.22734,0.1753409,0.04032715,0.09687375,-0.4641027,-0.841181,-3.1385,0.2986554,1.534555,0.2612259,-0.04697848,-0.165218,0.01325952,-1.386896,0.3395577,0.2694099,0.4406269,1.492294,0.1487224,-0.171964,1.66213,0.2478465,295.7567,124.7507,131.945,True
3,2.233335,-0.05851402,0.1164434,-0.2275631,-1.26839,1.429578,-1.307528,0.1430076,1.522259,0.3506465,-0.5841697,-0.09363212,10.15915,17.65588,0.1817967,0.02862556,0.1000015,-0.4652708,-0.8409775,-3.140919,0.298606,1.534813,0.2608161,-0.04264031,-0.1726946,0.02172578,-1.386947,0.3372983,0.2701356,0.440259,1.492468,0.1482224,-0.1715683,1.663937,0.2483388,295.8785,124.3508,132.3941,True
3,2.244446,-0.04052442,0.1611793,-0.2415985,-1.272459,1.427422,-1.307063,0.1432618,1.5224,0.3505487,-0.5847694,-0.05409871,10.47745,18.29869,0.1648169,0.05300485,0.1257317,-0.4674466,-0.8437003,-3.139253,0.2986365,1.535094,0.2602623,-0.04262983,-0.1428717,0.02499994,-1.38678,0.336718,0.2707087,0.4400547,1.492511,0.1476476,-0.1709916,1.665691,0.2489292,296.1449,123.9419,132.9414,True
3,2.255557,-0.04163997,0.1792683,-0.2459358,-1.275745,1.425228,-1.305933,0.1434476,1.522617,0.3504755,-0.5858869,-0.1018886,11.03448,19.11292,0.1606048,0.05404058,0.1332208,-0.469217,-0.8450948,-3.139668,0.2985841,1.535331,0.2598281,-0.04263288,-0.1322255,0.02502538,-1.386859,0.3354638,0.2713724,0.4397845,1.492605,0.1471438,-0.170358,1.667265,0.2495806,296.4116,123.4337,133.6995,True
3,2.266668,-0.04062134,0.1942137,-0.2524014,-1.279853,1.422827,-1.304748,0.1437663,1.522983,0.3520825,-0.5852078,0.06279809,11.80371,20.16284,0.1550472,0.09450155,0.1258744,-0.4701992,-0.8499503,-3.136384,0.2986036,1.535453,0.259542,-0.0341093,-0.1364757,0.02494225,-1.387028,0.3338319,0.2717783,0.4395015,1.492754,0.1466289,-0.1697969,1.668485,0.2501575,296.6277,122.876,134.5515,True
3,2.277779,-0.02566581,0.1793668,-0.2470147,-1.28196,1.4207,-1.304358,0.1439163,1.523162,0.3524237,-0.5843167,0.080808,12.7321,21.42704,0.18901,0.1063602,0.1182106,-0.471379,-0.8535956,-3.135967,0.2985986,1.535563,0.2592261,-0.02454327,-0.1449847,0.02164241,-1.387434,0.3319148,0.2720784,0.4391926,1.492853,0.1461544,-0.1693939,1.669348,0.2507801,296.6799,122.3871,135.0736,True
3,2.28889,-0.05012487,0.1632982,-0.2522689,-1.283958,1.418076,-1.302268,0.144179,1.52314,0.3527539,-0.5841564,0.01392176,13.71353,22.51982,0.2177624,0.08835196,0.1083641,-0.4719739,-0.8537591,-3.139117,0.298606,1.535648,0.2590053,-0.02028231,-0.1492382,0.02159669,-1.387648,0.3301774,0.272537,0.438913,1.492854,0.1456361,-0.1692026,1.669989,0.2516098,296.649,122.3047,134.9503,True
3,2.300001,-0.07245377,0.146208,-0.2479256,-1.285616,1.415859,-1.299979,0.1444087,1.523184,0.3530056,-0.584812,-0.06002312,14.72149,23.29119,0.2219885,0.05857365,0.09123999,-0.4725215,-0.8528954,3.141019,0.298731,1.535645,0.2587798,-0.01916463,-0.1567136,0.02689216,-1.387762,0.3280662,0.2730811,0.4386471,1.492872,0.1451793,-0.1691318,1.670551,0.2529858,296.571,122.398,134.5718,True
3,2.311112,-0.08408333,0.1185869,-0.2222423,-1.28641,1.414361,-1.298327,0.1445929,1.523188,0.3531184,-0.5832919,0.1394416,15.67639,23.69831,0.2185804,0.0373008,0.05073159,-0.4714882,-0.8511434,3.137211,0.298803,1.535718,0.2586048,-0.01913524,-0.1631073,0.03007567,-1.387813,0.3260235,0.2736907,0.4383945,1.492806,0.1447699,-0.1691709,1.67106,0.2548118,296.4749,122.3641,134.8108,True
3,2.322223,-0.06275517,0.1123606,-0.1987889,-1.287985,1.413136,-1.298107,0.1448504,1.523068,0.3532703,-0.5828477,0.03940735,16.39257,23.59117,0.2160988,0.05017211,0.008141624,-0.4699244,-0.8539261,3.137494,0.2983477,1.535494,0.258574,-0.01268691,-0.1631241,0.03641179,-1.387718,0.3240195,0.2739551,0.4382053,1.492728,0.1443386,-0.1692286,1.671522,0.2568632,296.2911,122.3454,135.3344,True
3,2.333334,-0.04579278,0.1433406,-0.1893349,-1.290976,1.412103,-1.29789,0.1450768,1.522843,0.3533301,-0.5833606,-0.04703104,16.8435,22.88408,0.2170108,0.0150985,-0.03135046,-0.4682695,-0.8518068,3.133172,0.2983727,1.535454,0.2584519,0.004415896,-0.1652565,0.0426502,-1.387538,0.3220468,0.2735761,0.4380608,1.492671,0.1439362,-0.1692349,1.672022,0.2588461,296.0624,122.3299,135.944,True
3,2.344445,0.008421008,0.1764809,-0.1980237,-1.294773,1.410251,-1.298864,0.1458866,1.522196,0.3533595,-0.5848249,-0.1333792,16.97613,21.64131,0.2223972,-0.03810699,-0.05066957,-0.4671957,-0.84698,3.126112,0.2983767,1.535415,0.2582083,-0.01069862,-0.1737175,0.0171857,-1.388754,0.3200451,0.2745818,0.4378323,1.492604,0.1435745,-0.1690924,1.672533,0.2604847,295.9016,122.2259,136.5778,True
3,2.355556,0.006356984,0.1540359,-0.2171165,-1.296757,1.407276,-1.298185,0.1460711,1.522046,0.3535511,-0.5848765,-0.003621902,16.81697,19.86287,0.212862,-0.01899937,-0.03351962,-0.4673858,-0.8478836,3.124893,0.2983942,1.535431,0.2579141,-0.03013935,-0.1587409,-0.01137027,-1.390196,0.3191952,0.2757519,0.4377202,1.492521,0.1432049,-0.1687609,1.672964,0.261672,295.8613,121.9016,137.2063,True
3,2.366668,-0.03209103,0.2158196,-0.187541,-1.301096,1.407396,-1.29723,0.1464548,1.522654,0.3536201,-0.5861292,-0.1147444,16.44562,17.72016,0.1919225,0.02977638,0.04129943,-0.4705097,-0.852603,3.127512,0.2985079,1.535496,0.2576404,-0.02600855,-0.1118327,-0.02299659,-1.390616,0.3196692,0.2758074,0.4376327,1.492504,0.1428235,-0.1682295,1.673236,0.2624533,295.8611,121.4465,137.7355,True
3,2.377779,-0.02566775,0.2073625,-0.1757794,-1.303363,1.40659,-1.296975,0.1461464,1.522684,0.3538167,-0.5847396,0.1278666,15.96817,15.62031,0.1547201,0.09559882,0.08643775,-0.4730168,-0.8595725,3.13326,0.2986708,1.535372,0.2573738,-0.0206692,-0.09052996,-0.01978962,-1.390741,0.3194229,0.2758646,0.4375352,1.492425,0.1424692,-0.1674879,1.673229,0.2630238,295.9845,121.0788,138.005,True
3,2.38889,-0.009666264,0.1999938,-0.1650981,-1.305605,1.405671,-1.297192,0.1462461,1.522635,0.3538771,-0.5833558,0.1251926,15.43766,13.67045,0.1290836,0.09127588,0.07382744,-0.4732906,-0.8615089,3.134344,0.2986952,1.535253,0.2572467,-0.02152029,-0.104436,0.003623251,-1.390277,0.3176109,0.2763778,0.4373895,1.492377,0.1421607,-0.1670862,1.673365,0.2635325,295.9929,121.0376,137.8806,True
3,2.400001,-0.005440131,0.2138749,-0.1608886,-1.308906,1.404915,-1.297116,0.1461562,1.522554,0.3539529,-0.5841771,-0.07595257,14.90716,11.87058,0.09817278,0.07201698,0.06015828,-0.4733833,-0.8615584,3.134162,0.2988078,1.535232,0.2571146,-0.02133986,-0.1300535,0.02273311,-1.390025,0.315001,0.2770819,0.437174,1.492328,0.141824,-0.1670486,1.673947,0.2640018,295.7693,120.9387,137.894,True
3,2.411112,0.006341055,0.1904526,-0.1650534,-1.310729,1.403329,-1.297179,0.1463082,1.522774,0.3539321,-0.5847679,-0.05325088,14.40318,10.24212,0.1449058,0.02645972,0.01712614,-0.4721486,-0.8587752,3.12849,0.2989044,1.535394,0.25705,-0.01390623,-0.1257721,0.01948162,-1.390286,0.31387,0.2770931,0.4370188,1.492182,0.1414852,-0.1671925,1.674742,0.2644549,295.7804,120.6771,138.1988,True
3,2.422223,0.03942642,0.1659954,-0.1756064,-1.312199,1.401301,-1.298167,0.1465254,1.522763,0.3539362,-0.58442,0.03212415,14.00531,8.82794,0.1735742,-0.04471795,-0.03221855,-0.4702104,-0.8523932,3.119769,0.2988822,1.535592,0.2568467,-0.01510948,-0.126792,0.003510747,-1.391101,0.312739,0.2775296,0.4369246,1.492178,0.1410716,-0.1672381,1.675416,0.2649361,295.8786,120.3136,138.6216,True
3,2.433334,0.02436242,0.2245533,-0.1662451,-1.316362,1.401188,-1.297991,0.1465513,1.522071,0.3530688,-0.584656,-0.02195489,13.74005,7.82087,0.1641031,-0.05648855,-0.02258499,-0.470302,-0.8501838,3.116249,0.2988031,1.535815,0.2565227,-0.02281828,-0.1299147,-0.02626129,-1.392753,0.3115807,0.2782375,0.4368218,1.492164,0.1406894,-0.1672361,1.675949,0.2654905,295.9078,119.9446,139.019,True
3,2.444445,0.00292472,0.2693145,-0.1483156,-1.321074,1.401537,-1.297152,0.1467346,1.521709,0.3530283,-0.5856164,-0.08769187,13.63395,7.263766,0.1427418,0.02540249,0.01074462,-0.4714706,-0.8570018,3.121475,0.298707,1.535811,0.2562296,-0.05081446,-0.111737,-0.06007232,-1.394763,0.3114339,0.2797725,0.4366794,1.492095,0.1403491,-0.1671584,1.676322,0.2661429,295.9061,119.8608,139.1761,True
3,2.455556,-0.01957166,0.318387,-0.1165469,-1.326098,1.403012,-1.296547,0.1466064,1.521268,0.3529651,-0.5839503,0.1529961,13.71353,7.113777,0.1243377,0.09565949,0.004619985,-0.4712831,-0.8644592,3.127338,0.2986344,1.535736,0.2560129,-0.05380374,-0.09369586,-0.03443157,-1.394461,0.3109153,0.2806143,0.4364428,1.492102,0.1400189,-0.1669874,1.676436,0.2669039,295.9225,119.6205,139.5987,True
3,2.466667,-0.02604482,0.3408365,-0.09639815,-1.330642,1.403842,-1.295943,0.1469971,1.520647,0.3527567,-0.5829591,0.0892829,13.87268,7.328047,0.1015453,0.1127239,-0.04738616,-0.4688639,-0.8682483,3.130217,0.2987155,1.535727,0.2557952,-0.02992424,-0.09275207,0.01756525,-1.392763,0.3093385,0.2803363,0.4363494,1.492138,0.1396315,-0.1668113,1.676337,0.2675993,295.7495,118.9941,140.4757,True
3,2.477778,-0.01009603,0.3526249,-0.0900589,-1.335027,1.404273,-1.296489,0.1471183,1.520437,0.352494,-0.582925,0.002545428,14.13793,7.799442,0.09007651,0.06152956,-0.03781733,-0.4687499,-0.865872,3.127508,0.2988871,1.535814,0.255625,0.02059109,-0.1099025,0.06822602,-1.390821,0.3067477,0.2786987,0.436214,1.492167,0.1393332,-0.1666901,1.676233,0.2681646,295.464,118.4562,141.109,True
3,2.488889,0.02715676,0.3644682,-0.0815712,-1.339119,1.405064,-1.298414,0.1470308,1.520327,0.3521533,-0.5832174,-0.02657371,14.45623,8.3994,0.1175844,-0.05886309,0.02460372,-0.4713369,-0.8551897,3.115666,0.2992203,1.53579,0.2554553,0.02467573,-0.1119711,0.04688061,-1.39141,0.3055542,0.2784825,0.4361843,1.492216,0.1390193,-0.1665745,1.676222,0.2685446,295.1961,117.9312,141.6716,True
3,2.5,-0.005028241,0.4443307,-0.06695522,-1.346223,1.4073,-1.297801,0.1470629,1.519842,0.3519006,-0.5845591,-0.1224245,14.88063,9.085064,0.1389059,-0.06835875,0.02123769,-0.4713705,-0.8537322,3.112067,0.2992326,1.535854,0.2552855,0.001950786,-0.1076182,0.005539111,-1.39303,0.3049482,0.2794034,0.4361042,1.49212,0.1386652,-0.166264,1.676256,0.2687312,294.9976,117.5273,142.0942,True
3,2.511111,-0.05415434,0.4889342,-0.06819765,-1.353096,1.408437,-1.295844,0.1470535,1.519362,0.3517556,-0.5859338,-0.1247483,15.41114,9.770729,0.139628,-0.03314035,-0.00959333,-0.4702285,-0.8553628,3.111869,0.2990285,1.535787,0.2551515,-0.01317626,-0.1235412,-0.01994358,-1.394636,0.3033604,0.2804306,0.4360024,1.492132,0.1382301,-0.1659682,1.676507,0.2687637,294.9311,117.1015,142.4893,True
3,2.522222,-0.1128753,0.5260916,-0.06087967,-1.359992,1.410052,-1.29254,0.1472117,1.518609,0.351579,-0.5831119,0.2589578,15.91512,10.28498,0.09210126,0.03819056,-0.06665164,-0.4674892,-0.8618836,3.118243,0.2988378,1.535705,0.2550476,-0.001499947,-0.1181998,-0.02429276,-1.395314,0.3022571,0.2802679,0.4358555,1.492163,0.1379411,-0.1657506,1.676865,0.2687157,294.9679,116.3775,143.1171,True
3,2.533333,-0.1267801,0.5473993,-0.04921906,-1.366192,1.412113,-1.291283,0.1471121,1.51817,0.3514359,-0.5817521,0.1219992,16.28647,10.37069,0.05127078,0.04772071,-0.1110881,-0.4647616,-0.863775,3.120734,0.2988827,1.535793,0.2549126,0.01776334,-0.1001082,-0.01269077,-1.395219,0.3016955,0.2795286,0.4357414,1.49223,0.1376221,-0.1655361,1.677285,0.26866,294.8529,115.3788,143.9512,True
3,2.544444,-0.0937831,0.5570852,-0.04713711,-1.372499,1.41348,-1.291689,0.1469387,1.518115,0.3513079,-0.5804647,0.1170033,16.47215,9.963574,0.0610799,0.008324858,-0.10058,-0.4642082,-0.8607347,3.116788,0.2988279,1.535838,0.2548058,0.03070956,-0.08417576,0.007490305,-1.394456,0.3010336,0.2788543,0.4355365,1.492311,0.1373048,-0.1652315,1.677833,0.2686716,294.7097,114.5404,144.6455,True
3,2.555555,-0.05958783,0.5177143,-0.05869809,-1.377127,1.413726,-1.29219,0.1470914,1.51794,0.3511429,-0.5826277,-0.1983628,16.47215,9.085064,0.08931239,-0.02577941,-0.04225307,-0.4657762,-0.8574052,3.111837,0.2990938,1.535753,0.2546453,0.03407691,-0.084227,0.02770023,-1.393847,0.2998195,0.2786282,0.4354108,1.492269,0.136941,-0.1646792,1.678569,0.2687567,294.5644,113.7595,145.3599,True
3,2.566666,-0.004943147,0.3973792,-0.08376803,-1.377869,1.412106,-1.293543,0.1472666,1.518059,0.3509336,-0.5848706,-0.2031026,16.313,7.82087,0.134251,-0.01503281,-0.01059011,-0.4667675,-0.8580268,3.109222,0.2993788,1.535607,0.2544136,0.0342062,-0.09917668,0.04150566,-1.393465,0.2980043,0.278552,0.4352821,1.492161,0.1365755,-0.164022,1.679616,0.2688772,294.5724,112.8691,146.2248,True
3,2.577777,0.05498823,0.3016085,-0.09505634,-1.378334,1.411392,-1.296043,0.1473438,1.518017,0.3504395,-0.5853655,-0.04375147,15.91512,6.299549,0.1427527,-0.009679064,-0.01063628,-0.4666199,-0.8582129,3.10757,0.2995731,1.535571,0.2542865,0.04374243,-0.132176,0.0328112,-1.394231,0.2954074,0.2781768,0.4352496,1.492013,0.1362221,-0.1633631,1.680851,0.2690797,294.7656,111.919,147.1419,True
3,2.588888,0.1060648,0.3241958,-0.07705164,-1.382508,1.412269,-1.299062,0.1474507,1.517757,0.3500073,-0.5864206,-0.09645179,15.35809,5.121061,0.1266828,-0.008637592,-0.02437435,-0.4658028,-0.8581837,3.106554,0.2998092,1.535595,0.2542076,0.05637048,-0.1491617,0.01348261,-1.395356,0.2933909,0.2774934,0.435285,1.491931,0.1358063,-0.1626621,1.681934,0.2694189,295.0901,111.2511,147.8458,True
3,2.599999,0.1303999,0.3861199,-0.06026216,-1.388907,1.414092,-1.3015,0.1475455,1.517297,0.3497057,-0.5872175,-0.07227848,14.64191,4.521104,0.1212175,-0.01180972,-0.04565184,-0.464573,-0.8575727,3.104831,0.3000147,1.535661,0.2540438,0.06163512,-0.1523328,0.005974794,-1.395982,0.2917436,0.2769224,0.4352944,1.491829,0.1354403,-0.1620831,1.682651,0.2698794,295.4858,111.0046,148.2666,True
3,2.61111,0.1184904,0.4586869,-0.02221108,-1.395918,1.417216,-1.303035,0.1474442,1.516454,0.3493366,-0.5871407,0.007267678,13.84615,4.521104,0.1413718,-0.05960484,-0.08210863,-0.4624409,-0.8522848,3.09786,0.3001163,1.535739,0.2538633,0.0303548,-0.1362524,-0.03846025,-1.398056,0.2913988,0.2775869,0.4354383,1.491758,0.135067,-0.1617549,1.682808,0.2703649,295.7195,110.5917,148.8939,True
3,2.622221,0.08209496,0.5300023,-0.01077984,-1.403668,1.419572,-1.30316,0.1476161,1.515692,0.348984,-0.5860169,0.102384,13.10345,5.335332,0.1414004,-0.05747973,-0.0778347,-0.4619732,-0.8511303,3.095159,0.3001332,1.535581,0.253618,-0.006000534,-0.1287782,-0.05410793,-1.39938,0.2905093,0.2789832,0.4353539,1.491727,0.1346776,-0.1617505,1.682377,0.2708324,295.6068,109.7605,149.8055,True
3,2.633332,-0.0505052,0.714004,0.00552763,-1.417351,1.424093,-1.298724,0.1473599,1.513894,0.3486602,-0.5845281,0.1350523,12.44032,6.94236,0.07080469,0.03600207,-0.07076117,-0.4613229,-0.8588892,3.10356,0.2997928,1.535161,0.2533331,-0.04297531,-0.1299623,-0.01757448,-1.398814,0.2888101,0.2810884,0.4352809,1.491676,0.134316,-0.1620661,1.681464,0.2712659,295.2186,108.7852,150.7764,True
3,2.644443,-0.1156522,0.7703361,0.01702438,-1.42711,1.427448,-1.295663,0.1472146,1.512727,0.3483946,-0.5830533,0.1337444,11.85676,8.656524,0.003264666,0.1327263,-0.08287868,-0.4598469,-0.8693048,3.115048,0.2998091,1.534775,0.2532499,-0.03391495,-0.1365117,0.04518279,-1.396753,0.2863383,0.2814836,0.4351618,1.491699,0.1340461,-0.1626013,1.680235,0.2715849,294.6522,107.8825,151.676,True
3,2.655554,-0.1349116,0.802317,0.03500554,-1.436639,1.431224,-1.293927,0.1472746,1.511762,0.3481176,-0.578241,0.4390356,11.32626,10.28498,-0.01941969,0.1891378,-0.09858817,-0.4581431,-0.8787723,3.124618,0.3000227,1.534413,0.2532034,-0.002583222,-0.1131948,0.09824386,-1.394023,0.2850924,0.2806453,0.4350637,1.491659,0.1337643,-0.163157,1.678966,0.2717964,293.9906,106.9767,152.4854,True
3,2.666665,-0.08998638,0.7407075,0.04698148,-1.441725,1.433728,-1.295439,0.1472675,1.510818,0.3478153,-0.5798218,-0.1478021,10.82228,11.63488,0.006312132,0.1317172,-0.1052783,-0.4567289,-0.8765947,3.121332,0.3004465,1.53424,0.2532079,0.06064753,-0.0823873,0.1446602,-1.390926,0.2843835,0.2777807,0.4350284,1.491539,0.1335475,-0.1635399,1.678143,0.2719522,293.2171,105.5236,153.7377,True
3,2.677776,0.03400268,0.5886452,0.03160787,-1.442631,1.433723,-1.300387,0.1477461,1.510363,0.3473885,-0.5818613,-0.1844247,10.39788,12.10628,0.08231341,0.007368993,-0.1167107,-0.4551236,-0.8663215,3.108401,0.3010571,1.534036,0.2533545,0.07760203,-0.0695677,0.1349612,-1.389885,0.283791,0.2763703,0.4350296,1.491391,0.1333175,-0.1635089,1.678043,0.2720219,292.7029,104.3263,154.8186,True
3,2.688887,0.1386555,0.474814,-0.01268332,-1.44503,1.432355,-1.305117,0.1487467,1.510143,0.3494174,-0.5857186,-0.3509924,9.999999,11.76344,0.1594779,-0.1670186,-0.1399738,-0.4530708,-0.8484759,3.087851,0.3014956,1.533838,0.253299,0.04169243,-0.07894444,0.0457646,-1.392852,0.2833222,0.2774085,0.4353111,1.491085,0.133076,-0.1628579,1.67858,0.2719825,292.6362,103.199,155.9047,True
3,2.699998,0.1772315,0.3916304,-0.06133918,-1.447367,1.430727,-1.308001,0.1490619,1.509763,0.3493783,-0.5896825,-0.3597069,9.655171,10.62781,0.1552432,-0.1638367,-0.1346138,-0.4518639,-0.8456293,3.083966,0.3015702,1.533677,0.2530873,0.02098295,-0.1065056,-0.01165244,-1.395409,0.2817333,0.2781648,0.4354478,1.490857,0.1328604,-0.161644,1.679303,0.2717918,293.1581,102.4089,156.743,True
3,2.711109,0.1720415,0.3403765,-0.0866927,-1.449725,1.429392,-1.309591,0.1493083,1.50927,0.3495767,-0.5894688,0.02186505,9.389919,8.806512,0.1413881,-0.050011,-0.07783036,-0.4527645,-0.8532014,3.089706,0.3016814,1.533585,0.2528617,0.01171949,-0.1318436,-0.1000621,-1.400132,0.2806246,0.2786002,0.4356586,1.490513,0.1326003,-0.1601174,1.679641,0.2716065,293.98,102.4104,156.4849,True
3,2.72222,0.1529579,0.3051742,-0.08547467,-1.452133,1.42924,-1.310422,0.1493901,1.508977,0.3497539,-0.5869815,0.2265504,9.177716,6.492391,0.1146206,0.09360379,-0.02409063,-0.4540178,-0.8666621,3.101425,0.3017732,1.533442,0.2527032,0.00919126,-0.1242649,-0.1458239,-1.403204,0.2805014,0.2785565,0.4357927,1.490282,0.1323476,-0.1587698,1.679463,0.2720642,294.627,102.416,155.8474,True
3,2.733331,0.1246007,0.1677551,-0.06146608,-1.449152,1.428551,-1.310897,0.1495293,1.508678,0.3501401,-0.5849847,0.1803714,8.992041,4.349687,0.09973226,0.1307917,-0.001540519,-0.4547033,-0.8730186,3.106547,0.3019317,1.533306,0.2526214,0.002932861,-0.09022693,-0.1275709,-1.403962,0.2809153,0.2786745,0.4358747,1.490126,0.1320987,-0.1582137,1.678979,0.2732441,294.8947,102.0244,156.1447,True
3,2.744442,0.1215874,0.1038279,-0.06332548,-1.44866,1.427682,-1.312183,0.1495372,1.508223,0.3503685,-0.5837372,0.1125859,8.992041,3.342617,0.09856394,0.09462956,-0.03463165,-0.4529915,-0.8714449,3.103991,0.3021244,1.533103,0.2526126,0.003442325,-0.07334325,-0.06680393,-1.402658,0.2802089,0.2786985,0.4358803,1.490053,0.1319096,-0.1584472,1.678214,0.2749744,294.7388,101.5928,156.9164,True
3,2.755553,0.150618,0.005773991,-0.09381865,-1.445902,1.424759,-1.314505,0.1499331,1.508053,0.3504896,-0.5833297,0.03647064,9.151194,3.728304,0.1122173,0.05003113,-0.08488306,-0.4503677,-0.8687186,3.099824,0.3024124,1.532846,0.252677,0.01364243,-0.0809847,0.004463395,-1.400793,0.2783633,0.2785161,0.435961,1.489936,0.1316597,-0.1592304,1.677224,0.2768964,294.3,101.3387,157.762,True
3,2.766664,0.1796383,-0.09122068,-0.1253721,-1.442652,1.421441,-1.317042,0.1502899,1.507554,0.350522,-0.5841734,-0.07731756,9.469496,5.399614,0.1249205,0.01179326,-0.1159418,-0.4481354,-0.8663308,3.095801,0.3027359,1.532823,0.2527535,0.02459889,-0.09385449,0.0394918,-1.399737,0.2764565,0.2782508,0.4360238,1.489822,0.1314511,-0.1601796,1.675928,0.2785997,293.8336,101.6444,158.1028,True
3,2.777775,0.1860891,-0.1125217,-0.128481,-1.441075,1.419423,-1.319076,0.1506068,1.507246,0.350625,-0.5855268,-0.123028,9.920423,8.270836,0.131384,-0.002038889,-0.1128185,-0.4469945,-0.8650275,3.092949,0.3029045,1.532803,0.2526994,0.01827607,-0.10134,0.04697725,-1.399543,0.2748792,0.2785278,0.4360901,1.489681,0.1312232,-0.1610958,1.674429,0.2799023,293.3791,102.0134,158.1615,True
3,2.788886,0.1678438,-0.06345294,-0.1009798,-1.442257,1.419723,-1.320274,0.1509427,1.506594,0.3507233,-0.5857889,-0.02311387,10.34483,12.042,0.1272021,0.03304605,-0.08395707,-0.4470478,-0.8688672,3.095124,0.3029447,1.532711,0.2524889,-0.007582467,-0.09487462,0.01312331,-1.400829,0.2744024,0.2795672,0.4361511,1.489591,0.1310191,-0.161797,1.672723,0.2808004,293.0449,102.7717,157.6382,True
3,2.799997,0.1336263,-0.01983009,-0.09156331,-1.443682,1.41941,-1.320461,0.1510631,1.506104,0.3508258,-0.5849527,0.07639672,10.66313,16.52025,0.1059128,0.05957396,-0.06883981,-0.4466872,-0.8723989,3.097759,0.3028564,1.532607,0.252485,-0.02584189,-0.08845204,-0.003754456,-1.401742,0.2738519,0.2805872,0.4362571,1.489476,0.1308415,-0.1623019,1.670867,0.2813766,292.8134,103.5863,156.8939,True
3,2.811108,0.08129442,0.03028443,-0.04594998,-1.445448,1.420953,-1.31972,0.1511111,1.505533,0.3509307,-0.58362,0.1211075,10.90185,21.70559,0.05772558,0.1254545,-0.07050065,-0.44568,-0.8808306,3.106401,0.3028879,1.532535,0.2524562,-0.03240355,-0.07668832,-0.02284475,-1.402724,0.2736136,0.2812186,0.4362264,1.489413,0.130784,-0.1627129,1.669096,0.2817186,292.5021,103.9551,156.4623,True
3,2.822219,0.0780795,0.03153873,-0.000148287,-1.445494,1.422508,-1.32039,0.1513604,1.505198,0.3507681,-0.5825846,0.09370731,11.03448,27.16949,0.03955326,0.1530799,-0.06605218,-0.4450622,-0.8866638,3.111642,0.3030811,1.532355,0.2525213,-0.01423963,-0.0713699,-0.01659048,-1.402778,0.2729014,0.2807859,0.4362361,1.489371,0.1306658,-0.16301,1.667592,0.2818575,292.134,103.8086,156.5061,True
3,2.83333,0.1005254,0.007210281,0.02658008,-1.444443,1.423524,-1.322431,0.1515274,1.504899,0.3505545,-0.581497,0.09890452,10.95491,31.96914,0.0373406,0.1254248,-0.0916585,-0.4431718,-0.8875783,3.112145,0.3033429,1.53223,0.2525828,0.02649129,-0.06609521,0.01290535,-1.401793,0.2720423,0.2792378,0.4363012,1.489337,0.1305814,-0.1632621,1.666584,0.2818372,291.8365,103.6574,156.5637,True
3,2.844441,0.1324629,0.01802139,0.04357964,-1.444519,1.424555,-1.325285,0.1515446,1.504732,0.3500781,-0.5830219,-0.1400194,10.68966,36.14742,0.05027905,0.02220544,-0.1228464,-0.4407745,-0.8793569,3.103563,0.3036638,1.532141,0.2526116,0.04042229,-0.0756998,0.02235097,-1.401565,0.2706902,0.2786527,0.4364108,1.489266,0.1304264,-0.1632984,1.666091,0.2816188,291.6292,103.4084,156.7757,True
3,2.855552,0.136648,0.04577065,0.05305203,-1.445729,1.425817,-1.327093,0.1516429,1.504306,0.3498199,-0.5847604,-0.1575758,10.2122,39.79001,0.05267094,-0.02362212,-0.1091028,-0.4402184,-0.8750846,3.099054,0.3038538,1.532141,0.2526836,0.04557608,-0.0905548,0.000961367,-1.402718,0.2693934,0.2781523,0.4365261,1.489254,0.130331,-0.162979,1.665954,0.2811007,291.6663,103.2946,156.9272,True
3,2.866663,0.09463823,0.2077661,0.09500159,-1.45318,1.430236,-1.326923,0.1515731,1.503494,0.3495002,-0.5856808,-0.08295308,9.628648,42.98265,0.04833109,-0.0385059,-0.1282758,-0.4382626,-0.8732849,3.096994,0.3038927,1.532176,0.2527277,0.02291816,-0.09048878,-0.03187153,-1.404519,0.2687899,0.2789674,0.4366487,1.4892,0.1301982,-0.1624377,1.665966,0.280277,291.9688,103.2369,156.9634,True
3,2.877774,0.06245639,0.2876999,0.1255787,-1.4582,1.434134,-1.326914,0.151246,1.503094,0.3491042,-0.584549,0.1039811,9.071617,46.04671,0.02472299,-0.02577154,-0.1461942,-0.436,-0.8734899,3.097695,0.3039711,1.532177,0.2526987,0.004772671,-0.08516388,-0.03596341,-1.405172,0.268178,0.2795653,0.4367857,1.489209,0.1301877,-0.1619173,1.665954,0.2792453,292.3578,102.9862,157.0343,True
3,2.888885,0.04197133,0.3762896,0.1774226,-1.464304,1.439575,-1.327242,0.1509395,1.502453,0.3485854,-0.5820328,0.2290495,8.461537,48.29655,-0.02654172,0.03368166,-0.1350579,-0.4348495,-0.879256,3.10497,0.3040327,1.53214,0.2526307,0.002691418,-0.07665963,-0.02953139,-1.405435,0.2676578,0.2797214,0.4368506,1.489235,0.1301227,-0.1615024,1.66576,0.278191,292.5867,102.3451,157.3106,True
3,2.899997,0.06210493,0.4072797,0.183694,-1.468946,1.443094,-1.329145,0.1506295,1.501934,0.3482087,-0.582167,-0.01404032,7.771884,49.53931,-0.04046522,0.04004261,-0.1424027,-0.4330651,-0.8804794,3.106837,0.3040528,1.53203,0.2526069,0.01556287,-0.06283464,-0.01788415,-1.405267,0.2673372,0.279168,0.4368923,1.489233,0.1300409,-0.1613019,1.66558,0.2772318,292.4825,100.9872,158.2807,True
3,2.911108,0.07482656,0.4541775,0.1834962,-1.475021,1.446574,-1.330821,0.1505374,1.501336,0.3476415,-0.5823748,-0.01881033,7.002651,49.86072,-0.04017783,0.005907208,-0.1190348,-0.4325522,-0.8778458,3.104897,0.3041668,1.531986,0.2526097,0.03695676,-0.04474153,-0.006300771,-1.404888,0.2673577,0.2779781,0.4369421,1.489253,0.1299913,-0.1613429,1.665533,0.2763232,292.3181,99.84258,159.2361,True
3,2.922219,0.0651748,0.4701408,0.1855674,-1.479963,1.450031,-1.331518,0.1503712,1.500795,0.3471348,-0.5837346,-0.1247548,6.180372,49.30362,-0.02202495,-0.01425661,-0.1234651,-0.4310592,-0.8757358,3.10253,0.3041927,1.531977,0.2526095,0.03695963,-0.0351558,-0.005216334,-1.405075,0.2672878,0.277642,0.4370296,1.489241,0.1299391,-0.1614261,1.665488,0.2753745,292.2198,98.77148,160.1966,True
3,2.93333,0.08967146,0.4638416,0.1898491,-1.484174,1.453393,-1.333224,0.1504519,1.500299,0.3465912,-0.5826629,0.09789473,5.278513,47.86801,-0.01665693,-0.04724298,-0.134219,-0.4292057,-0.8715991,3.098689,0.3042246,1.53192,0.2525561,0.0166421,-0.03941002,-0.01464488,-1.405737,0.2667964,0.2782103,0.4371265,1.489217,0.12988,-0.161515,1.66527,0.2744302,292.262,97.94569,160.8443,True
3,2.944441,0.104623,0.4511354,0.1973595,-1.488088,1.456912,-1.335232,0.150317,1.499751,0.3460641,-0.5800322,0.2380312,4.403181,45.55389,-0.05816951,-0.03995121,-0.1253944,-0.4280584,-0.8711184,3.100324,0.304314,1.531834,0.2524614,0.007029306,-0.04686581,-0.01778375,-1.406336,0.2661048,0.2786109,0.4372234,1.489202,0.1298559,-0.1616157,1.664764,0.2735922,292.2672,97.02219,161.5284,True
3,2.955552,0.1035395,0.4596962,0.2079818,-1.492599,1.460814,-1.336711,0.1501221,1.499292,0.3454196,-0.5787326,0.1148691,3.633951,42.38269,-0.09724192,-0.03061421,-0.07183014,-0.429137,-0.871051,3.102675,0.3044451,1.531659,0.2523589,0.01879281,-0.04474462,-0.0125526,-1.406425,0.2656522,0.2780993,0.4373745,1.489139,0.1298218,-0.1618105,1.663999,0.2728851,292.1447,96.15521,162.2182,True
3,2.966663,0.0510972,0.5403648,0.1693153,-1.500869,1.463611,-1.33592,0.1503838,1.498652,0.3452067,-0.5763634,0.2134699,2.944295,38.63295,-0.09928054,-0.001913257,-0.04513035,-0.4294262,-0.8733858,3.105776,0.3045641,1.53151,0.2523756,0.04217938,-0.02660763,-0.01697179,-1.406715,0.266028,0.2768526,0.4375002,1.489149,0.1298058,-0.1620763,1.662934,0.2722689,291.971,95.39536,162.8976,True
3,2.977774,0.006356122,0.5368789,0.1278049,-1.506445,1.465302,-1.334906,0.150303,1.498371,0.3449574,-0.5724428,0.3538649,2.466844,35.03321,-0.07788692,0.0258091,-0.01859356,-0.4300654,-0.876633,3.108791,0.3047445,1.531401,0.2523067,0.05601478,-0.009553665,-0.01811513,-1.406901,0.2664843,0.2756793,0.4375856,1.48914,0.1298246,-0.162574,1.661606,0.2716836,291.77,94.55161,163.704,True
3,2.988885,0.00906621,0.3267826,0.0700784,-1.503874,1.463607,-1.334965,0.1504948,1.498702,0.3449934,-0.5662568,0.5594062,2.148539,31.56203,-0.02872812,-0.0368447,-0.02866025,-0.4293442,-0.8706334,3.102026,0.3050278,1.531318,0.2523286,0.0625089,0.00107001,-0.005358801,-1.406427,0.2667845,0.2746904,0.4377534,1.489134,0.1298113,-0.1633352,1.660075,0.2711023,291.407,93.52303,164.5968,True
3,2.999996,0.02336157,0.1669147,0.04196925,-1.500897,1.462595,-1.335798,0.1505351,1.498685,0.3450475,-0.5615147,0.4253423,1.98939,28.30512,-0.007289775,-0.08150311,-0.03315983,-0.4289383,-0.865023,3.096376,0.3050999,1.53129,0.2522957,0.04336252,-0.001080316,-0.002004033,-1.40634,0.2666509,0.2749155,0.4378913,1.489087,0.1297848,-0.1642268,1.658538,0.2707314,290.8105,92.41367,165.3976,True
3,3.011107,0.02383305,-0.003724202,-0.004199967,-1.495539,1.459634,-1.335887,0.1508297,1.498999,0.3453901,-0.5578768,0.3254604,1.962863,25.21962,0.00579711,-0.1368817,-0.01844751,-0.4293282,-0.8566702,3.088273,0.305151,1.531259,0.2522593,-0.01540038,0.002132896,-0.0217399,-1.407202,0.2669645,0.2770204,0.4379407,1.488926,0.1298361,-0.1652774,1.657242,0.2706842,290.2534,92.1068,165.5506,True
3,3.022218,0.01135634,-0.1158763,-0.06551399,-1.491876,1.456187,-1.335347,0.1510282,1.499487,0.3457046,-0.5531774,0.4227383,2.015913,22.36983,0.009998679,-0.06767115,0.008287873,-0.4302065,-0.8613003,3.092317,0.3052492,1.531185,0.2521677,-0.02520918,0.01390622,-0.04719672,-1.408406,0.2678305,0.2773019,0.4381574,1.488829,0.1297591,-0.1663107,1.65602,0.2709645,289.9496,93.13068,164.6235,True
3,3.033329,0.02011407,-0.2022811,-0.09924896,-1.487338,1.452755,-1.335588,0.1513577,1.500013,0.3460591,-0.546511,0.6013585,2.042439,19.77716,0.01289925,0.05267801,0.02768271,-0.4309229,-0.8730984,3.102691,0.3053339,1.531309,0.2519979,-0.003079183,0.03423104,-0.07396623,-1.409814,0.2693632,0.2763525,0.4383473,1.488817,0.1297448,-0.1672652,1.654618,0.2715261,289.8469,94.13489,163.7906,True
3,3.04444,0.06437294,-0.4229476,-0.1644061,-1.476818,1.446123,-1.336977,0.152094,1.500577,0.3466232,-0.5393199,0.6476462,1.962863,17.37733,0.01632639,0.0430537,0.05533159,-0.4323061,-0.8733035,3.1026,0.3055385,1.53138,0.2519093,0.01069323,0.04170943,-0.08259069,-1.410788,0.270172,0.2755607,0.4384937,1.488755,0.1296825,-0.1682785,1.653009,0.2723674,289.6491,95.15493,162.9314,True
3,3.055551,0.08904128,-0.5209812,-0.1831986,-1.468956,1.441438,-1.338493,0.1524449,1.501392,0.3470273,-0.5331904,0.5501717,1.724138,15.14892,0.0571732,0.003721386,0.0869237,-0.4343951,-0.8702289,3.097759,0.3058263,1.531455,0.2518132,0.01503018,0.05127475,-0.07301469,-1.41101,0.2712153,0.2750523,0.4385933,1.488778,0.1295924,-0.1694756,1.651335,0.2735313,289.2492,96.03712,162.2155,True
3,3.066662,0.09044695,-0.5902914,-0.2031163,-1.460875,1.436943,-1.339077,0.1530557,1.502061,0.3473384,-0.5275056,0.5100373,1.352783,13.0705,0.0870636,0.002750598,0.09417027,-0.4356782,-0.8704342,3.095907,0.3061741,1.531597,0.2516756,-0.002831968,0.0490527,-0.04410045,-1.410355,0.2714123,0.2757365,0.4386941,1.48883,0.1294558,-0.1706834,1.649482,0.2749799,288.8412,97.33884,161.2047,True
3,3.077773,0.0829734,-0.587142,-0.2084504,-1.455339,1.433118,-1.339351,0.1534513,1.502692,0.3476837,-0.5200584,0.6711693,0.9018552,11.12063,0.1031029,-0.00572826,0.09830585,-0.4369496,-0.8696949,3.093582,0.3064797,1.531693,0.2515769,-0.004614701,0.02338224,-0.004731159,-1.409291,0.2704879,0.276058,0.4387611,1.488823,0.1292846,-0.1718441,1.647246,0.2766689,288.5461,99.56032,159.3926,True
3,3.088884,0.02646631,-0.5660493,-0.217069,-1.450432,1.428875,-1.337494,0.1541571,1.503316,0.3480685,-0.5112886,0.7905372,0.3183016,9.213628,0.09982069,0.04750386,0.1133461,-0.4385885,-0.8754926,3.097895,0.3066462,1.531757,0.2515507,-0.008707241,-0.01288505,0.01225447,-1.408955,0.268956,0.2765291,0.4388937,1.488859,0.1291177,-0.1731952,1.644758,0.2785086,288.1322,101.2774,158.1124,True
3,3.099995,-0.003502768,-0.5425146,-0.1906862,-1.445424,1.426298,-1.336808,0.1542951,1.503711,0.3484845,-0.5029913,0.746626,0,7.542318,0.1008808,0.05390032,0.1154744,-0.4397614,-0.8776144,3.098643,0.3067547,1.531785,0.2515423,-0.02790896,-0.0448476,0.007006371,-1.409593,0.2675642,0.2777046,0.438942,1.488883,0.1290476,-0.1746642,1.642048,0.280339,287.5228,102.7125,157.1352,True
3,3.111106,-0.02692356,-0.514881,-0.1746359,-1.44133,1.42413,-1.33514,0.1546302,1.504104,0.3487411,-0.4931567,0.8877899,0,6.213842,0.09135837,0.03362751,0.1144361,-0.4410269,-0.8770663,3.097437,0.3069506,1.531794,0.2515585,-0.04174672,-0.09065866,0.004874304,-1.410301,0.2651799,0.2790178,0.4390302,1.488903,0.1289859,-0.1762365,1.639309,0.2820721,286.7631,104.0469,156.1707,True
3,3.122217,-0.072879,-0.4605727,-0.1514042,-1.438434,1.422508,-1.332715,0.1548204,1.504528,0.3490331,-0.4863955,0.605726,0,5.185343,0.07313473,0.01230852,0.08789366,-0.4412304,-0.8755614,3.095903,0.3071029,1.531791,0.2515504,-0.03420249,-0.09707183,0.01437454,-1.410247,0.2639023,0.2792716,0.4390863,1.488886,0.1290298,-0.1777327,1.636757,0.2836758,285.9434,105.6201,154.8916,True
3,3.133328,-0.09115332,-0.4094191,-0.1356382,-1.435926,1.42075,-1.330585,0.155207,1.504841,0.3491554,-0.4781051,0.7481079,0,4.499679,0.07411238,0.00275968,0.07082205,-0.4414546,-0.8750767,3.094602,0.3072698,1.531857,0.2515717,0.00421839,-0.06618115,0.02478022,-1.409541,0.2639529,0.2779286,0.4391914,1.488904,0.1290491,-0.1791218,1.634518,0.2850613,285.3376,107.0352,153.76,True
3,3.144439,-0.09554144,-0.357141,-0.1113638,-1.433515,1.419489,-1.329466,0.1556671,1.505456,0.3491688,-0.4700426,0.7261252,0.6896527,5.528174,0.07092007,-0.002571724,0.06870507,-0.442236,-0.8748415,3.093667,0.3075456,1.531929,0.2514749,0.02201152,-0.003232221,-0.007171851,-1.410146,0.2663652,0.2767991,0.4392727,1.488913,0.1290698,-0.1802923,1.632635,0.2861352,284.825,108.1723,152.8585,True
3,3.15555,-0.0882049,-0.3144473,-0.09662256,-1.431605,1.418438,-1.328578,0.1558639,1.505964,0.3491819,-0.4633799,0.5986198,1.724138,8.656524,0.06479329,-0.04523641,0.08464155,-0.4437982,-0.8706062,3.089355,0.3077198,1.532059,0.2514634,0.02180899,0.01493618,-0.02949481,-1.410979,0.2674416,0.2763831,0.4394491,1.488889,0.1290915,-0.1812198,1.631209,0.286871,284.3942,109.1343,152.0365,True
3,3.166661,-0.08412561,-0.2472628,-0.08305185,-1.431205,1.41784,-1.327796,0.1560193,1.506158,0.3491828,-0.4577255,0.5077747,3.103447,13.71331,0.04874899,-0.05378855,0.07088823,-0.4442084,-0.8686011,3.087489,0.3079081,1.532091,0.2513852,0.005621321,0.009664211,-0.05281109,-1.412336,0.2676298,0.2771091,0.4397023,1.488847,0.1290057,-0.1817725,1.6302,0.2872906,284.0926,110.0397,151.1969,True
3,3.177772,-0.1089142,-0.1460497,-0.06535194,-1.432743,1.418068,-1.325732,0.1561601,1.506332,0.3492508,-0.4516796,0.5444716,4.748009,20.5271,0.04012136,-0.05166695,0.05710936,-0.4444486,-0.8674152,3.086266,0.3081039,1.532128,0.2513037,-0.009435046,-0.007342078,-0.07083288,-1.413767,0.2673445,0.2777437,0.4398386,1.488809,0.1290107,-0.1820356,1.629586,0.2874421,283.9659,110.7987,150.4454,True
3,3.188883,-0.1315682,-0.04483203,-0.04659047,-1.435415,1.418825,-1.323666,0.1562564,1.506374,0.3492105,-0.445656,0.5422025,6.366048,28.75508,0.002654742,-0.002792921,0.05639835,-0.4448981,-0.8710902,3.090805,0.3082312,1.532102,0.2512033,-0.01908638,-0.01797936,-0.07824046,-1.41503,0.2672052,0.2783722,0.4400356,1.488821,0.1289852,-0.1821954,1.629256,0.2874149,284.0285,111.1398,150.0424,True
3,3.199994,-0.1392142,0.01807399,-0.03087149,-1.437499,1.419422,-1.321791,0.1565178,1.506392,0.3492892,-0.4384916,0.6468173,7.798407,36.72595,0.002712037,0.01634694,0.07454579,-0.4462648,-0.8730761,3.092557,0.3084767,1.532155,0.2510943,-0.01886743,-0.01911199,-0.0526778,-1.414906,0.2669324,0.2786101,0.4402632,1.488759,0.1289325,-0.1823299,1.629013,0.2873228,284.1371,110.9015,150.1423,True
3,3.211105,-0.1392444,0.0297889,-0.02985562,-1.438053,1.419235,-1.32024,0.1567192,1.506606,0.3492117,-0.4328265,0.5089756,8.938992,43.94686,0.002886288,-0.007114973,0.08728154,-0.4476923,-0.8713117,3.090932,0.3087479,1.532191,0.2510226,-0.01858397,-0.02345978,-0.01966363,-1.414141,0.2662951,0.2789145,0.4405046,1.48876,0.1289306,-0.1825174,1.628814,0.2872564,284.0858,110.2795,150.6119,True
3,3.222216,-0.1200442,0.02132365,-0.02982515,-1.437969,1.418817,-1.319512,0.1570769,1.506955,0.3490973,-0.4278661,0.4460752,9.787797,49.98928,-0.001172058,-0.04443507,0.09788939,-0.4492172,-0.8672554,3.087504,0.3091069,1.532215,0.2509761,-0.01641225,-0.01814,-0.01434357,-1.414232,0.2663714,0.2790354,0.4405676,1.488708,0.1288619,-0.1827066,1.628608,0.2872458,283.9437,109.6228,151.1706,True
3,3.233327,-0.09763656,0.008607902,-0.0287123,-1.437702,1.418445,-1.319153,0.157361,1.507207,0.3490002,-0.4233105,0.4095616,10.3183,53.54617,0.01472452,-0.06138576,0.07750525,-0.4495666,-0.8643646,3.084196,0.3093352,1.532212,0.2509866,-0.01749638,-0.01706984,-0.01646218,-1.414519,0.2662828,0.2792822,0.4407613,1.488653,0.1288438,-0.1828316,1.628332,0.287311,283.8031,109.3401,151.4176,True
3,3.244438,-0.04859951,-0.002960015,-0.02547461,-1.437194,1.418201,-1.320251,0.1575552,1.507561,0.3488147,-0.4192838,0.3614852,10.6366,54.93893,0.01455601,-0.06133907,0.05407246,-0.4494388,-0.8629481,3.082801,0.3095633,1.532246,0.2509542,-0.02290864,-0.02450375,-0.02709468,-1.41543,0.265972,0.279781,0.4410157,1.488452,0.1288173,-0.1829619,1.627985,0.2874556,283.6804,109.5262,151.2675,True
3,3.255549,-0.03477274,0.007775422,-0.01700177,-1.437423,1.418302,-1.320192,0.1577047,1.507639,0.3487599,-0.414856,0.3985701,10.76923,54.40326,0.01226764,-0.03576762,0.04561835,-0.4497099,-0.8639404,3.083742,0.3096962,1.532323,0.2509022,-0.02188555,-0.02981562,-0.03244399,-1.416082,0.2656241,0.2800399,0.4412159,1.488381,0.1288013,-0.1830822,1.627508,0.2876812,283.5721,109.8454,151.0102,True
3,3.26666,-0.0358662,0.01631316,-0.0117015,-1.438078,1.418651,-1.319842,0.1579044,1.507696,0.3487029,-0.411338,0.3148723,10.74271,52.02485,0.01424979,-0.0005990528,0.04247888,-0.449997,-0.8668554,3.086144,0.3099008,1.532338,0.2508397,-0.02305108,-0.02765834,-0.04414455,-1.416973,0.2656113,0.2803073,0.4413742,1.488295,0.1288545,-0.1832741,1.626855,0.2879773,283.4566,110.0248,150.9138,True
3,3.277771,-0.04018703,0.03984149,0.01376783,-1.439061,1.419944,-1.319401,0.1580595,1.507541,0.3486433,-0.4052159,0.5536244,10.66313,48.48939,0.009907193,0.0174968,0.04041802,-0.4503597,-0.8687168,3.087866,0.3101447,1.532315,0.2507858,-0.02631773,-0.02444613,-0.05262696,-1.417844,0.2656688,0.2806583,0.4415196,1.488289,0.1287963,-0.1836223,1.625934,0.288312,283.3497,110.0675,150.9658,True
3,3.288882,-0.04659392,0.05055498,0.02969488,-1.439586,1.42056,-1.318755,0.1581781,1.507423,0.3485794,-0.3997,0.496135,10.74271,45.4039,0.007806985,0.02387046,0.04790403,-0.4511677,-0.8699772,3.088965,0.3103938,1.532258,0.2507951,-0.01881533,-0.02232161,-0.04735482,-1.418123,0.2656061,0.2805872,0.4416562,1.488193,0.1286304,-0.1841354,1.624696,0.2886616,283.1059,110.0169,151.0819,True
3,3.299993,-0.04341116,0.05163967,0.03609254,-1.440046,1.421653,-1.318558,0.1582688,1.507255,0.3485365,-0.3943454,0.4819514,10.90185,42.63981,0.00353846,0.008957777,0.04044355,-0.4513275,-0.869063,3.088346,0.3105454,1.53223,0.2508383,-0.009904185,-0.03095414,-0.002706102,-1.416829,0.2645817,0.2805305,0.4417018,1.488103,0.1286905,-0.1847428,1.623188,0.2889821,282.7144,110.0248,151.1373,True
3,3.311104,-0.03381647,0.04955839,0.04142556,-1.440347,1.422405,-1.318632,0.1584139,1.507148,0.3484685,-0.3889025,0.4898698,11.16711,40.09,-0.008216107,-0.01022957,0.02557344,-0.4511182,-0.867224,3.087205,0.3107394,1.532141,0.2508929,-0.005512456,-0.03631676,0.01215716,-1.416381,0.2638368,0.2805582,0.4418666,1.488043,0.1286657,-0.1853858,1.621475,0.2891972,282.2608,110.079,151.1548,True
3,3.322215,-0.0006483546,0.001690716,0.03841499,-1.43855,1.422154,-1.319827,0.1586196,1.507136,0.3484569,-0.3837434,0.4636988,11.45889,37.69016,-0.02652358,-0.01343065,-0.004138186,-0.4499714,-0.8665276,3.087517,0.3109429,1.532065,0.2509868,0.006322093,-0.04592938,0.02481873,-1.415941,0.2628443,0.2802388,0.441948,1.48803,0.1287527,-0.1860742,1.619662,0.2892817,281.8093,110.4383,150.8316,True
3,3.333326,0.0228803,-0.03017898,0.04386841,-1.437,1.422459,-1.320935,0.158819,1.50708,0.3484082,-0.3782131,0.4975372,11.69761,35.24748,-0.01821582,-0.01440325,-0.03509326,-0.4484976,-0.8659418,3.086891,0.3111398,1.532029,0.2510734,0.009361884,-0.04374949,0.006687693,-1.416553,0.2625942,0.2800492,0.4421274,1.487999,0.1288078,-0.1867673,1.617791,0.2892361,281.3941,110.877,150.3752,True
3,3.344437,0.06452046,-0.06523359,0.03868317,-1.435189,1.422327,-1.322952,0.1590389,1.506969,0.3483331,-0.3732362,0.4463671,11.88329,32.76194,-0.01092045,-0.003688339,-0.05216653,-0.4474153,-0.8666075,3.087375,0.311363,1.532072,0.2509935,0.000628829,-0.02772276,-0.01663277,-1.417438,0.2629484,0.2803243,0.4424217,1.487974,0.1288073,-0.1874439,1.615868,0.2891033,281.0353,111.5926,149.5954,True
3,3.355548,0.09335422,-0.09606359,0.03347509,-1.433162,1.421982,-1.324681,0.1593854,1.506764,0.3483279,-0.3666102,0.5974237,12.01592,30.4264,0.001771599,0.021924,-0.05220436,-0.4468023,-0.8690805,3.089121,0.3115345,1.532129,0.2509902,0.0004945025,-0.002119597,-0.03041427,-1.417969,0.2639858,0.2801731,0.4426467,1.487937,0.1288381,-0.1880968,1.613801,0.2889743,280.7947,112.8097,148.2937,True
3,3.366659,0.1061431,-0.09817109,0.0302851,-1.431976,1.421907,-1.326313,0.1595896,1.506592,0.3483186,-0.3605483,0.5441278,12.14854,28.2837,-0.004595369,0.03786143,-0.04041281,-0.4466931,-0.8714521,3.091561,0.311685,1.532096,0.2508779,0.01308204,0.02137837,-0.05176252,-1.418821,0.2652796,0.2793589,0.4428622,1.48795,0.1287193,-0.1887625,1.611523,0.288909,280.5344,113.9327,147.1051,True
3,3.37777,0.1082563,-0.086388,0.04515714,-1.431238,1.4229,-1.327794,0.1594644,1.506221,0.3482838,-0.3530457,0.6762725,12.30769,26.39811,-0.02052611,0.03885146,-0.03283885,-0.4466451,-0.8723893,3.093231,0.3118354,1.532107,0.2508335,0.005609602,0.01712041,-0.05383668,-1.419419,0.2655057,0.2795281,0.4430422,1.48798,0.1287229,-0.189456,1.608933,0.2889612,280.2612,115.0971,145.9001,True
3,3.388881,0.109293,-0.07569703,0.05363488,-1.43055,1.423654,-1.329143,0.1595414,1.505945,0.3482828,-0.3452708,0.6997314,12.46684,24.85537,-0.04518358,0.05477393,-0.0464882,-0.445484,-0.874947,3.096924,0.3119043,1.532051,0.2509017,-0.002784016,0.009618245,-0.03886881,-1.419328,0.2652668,0.2799752,0.4432988,1.487986,0.1286333,-0.1902075,1.605986,0.2891855,279.8853,116.4931,144.4838,True
3,3.399992,0.1145982,-0.06713182,0.05999541,-1.429889,1.424473,-1.330725,0.1595248,1.505674,0.3482668,-0.3371668,0.7296928,12.65252,23.8483,-0.04641058,0.05161945,-0.070984,-0.4438499,-0.8756956,3.098104,0.3121262,1.532037,0.2510118,-0.009954081,-0.006451436,-0.00689397,-1.418572,0.2643439,0.2803829,0.4435703,1.488011,0.1286457,-0.1911639,1.60278,0.2895939,279.3774,117.8816,143.1357,True
3,3.411103,0.1242192,-0.07882275,0.0600417,-1.428489,1.424825,-1.33248,0.1595917,1.505422,0.3482347,-0.3292274,0.7145066,12.83819,23.35547,-0.03053565,0.02403717,-0.09991534,-0.441722,-0.8735659,3.095937,0.3122337,1.53201,0.2511666,-0.008642881,-0.02143712,0.02075455,-1.417596,0.2632408,0.2805965,0.4437352,1.488049,0.1286614,-0.1923577,1.599383,0.2900935,278.7589,119.2631,141.8789,True
