loc,t,aDotS,bDotS,gDotS,aS,bS,gS,xS,yS,zS,qE,qDotE,emgA,emgB,aDotSH,bDotSH,gDotSH,aSH,bSH,gSH,xSH,ySH,zSH,aDotUB,bDotUB,gDotUB,aUB,bUB,gUB,xUB,yUB,zUB,xHand,yHand,zHand,aHand,bHand,gHand,enable
4,0,0.3115491,-0.4939505,0.7389172,-1.385136,-4.602781,-2.405953,0.3446412,1.276856,0.5063095,-0.7620076,-0.08719053,19.04509,15.96315,-0.6739767,0.4705731,-0.1786413,-0.3723398,-3.743232,-0.4750224,0.4083065,1.450481,0.4283276,-0.1092715,0.715088,0.1562985,-1.24333,0.2153303,-0.02350905,0.5438411,1.487052,0.2588837,0.0421251,1.135306,0.4081372,299.1241,255.083,356.0612,True
4,0.01111111,0.286864,-0.4387383,0.6971837,-1.388161,-4.59623,-2.409222,0.3430863,1.276293,0.5056431,-0.7618452,0.0157052,19.5756,15.96315,-0.6822856,0.4481495,-0.1615645,-0.3753694,-3.734315,-0.475529,0.4066325,1.450344,0.4275181,-0.1252047,0.7076027,0.1617347,-1.241586,0.2234893,-0.02416765,0.5436065,1.487311,0.2590437,0.04145001,1.134923,0.4073309,298.9955,254.5817,356.8279,True
4,0.02222222,0.2622544,-0.3974855,0.6395018,-1.389973,-4.589991,-2.412613,0.3415782,1.275589,0.5037181,-0.7614909,0.03212883,20.2122,15.87744,-0.646822,0.4120179,-0.1395218,-0.377845,-3.727205,-0.4760422,0.4049922,1.450221,0.4267199,-0.1390505,0.6980213,0.1618156,-1.240048,0.2317537,-0.02476926,0.5432172,1.487432,0.259258,0.04046158,1.13396,0.4061055,298.7295,254.7978,357.4102,True
4,0.03333334,0.2451634,-0.3774381,0.6000054,-1.391561,-4.583765,-2.415916,0.3400465,1.27477,0.5022564,-0.7605525,0.08556306,20.5305,15.72745,-0.6251727,0.3939331,-0.1024273,-0.3796283,-3.717865,-0.4784973,0.4033841,1.450125,0.4259565,-0.1518554,0.6713929,0.1565081,-1.238675,0.2386074,-0.02494024,0.5428132,1.487518,0.2592931,0.03971015,1.132407,0.404053,298.7322,255.1233,357.4858,True
4,0.04444445,0.2248504,-0.3457378,0.5423582,-1.392732,-4.57894,-2.418643,0.3385358,1.274322,0.5006635,-0.7607831,-0.02175248,20.4244,15.55603,-0.6065763,0.3513238,-0.05895261,-0.3800885,-3.71077,-0.4790199,0.4018933,1.449929,0.425216,-0.1550149,0.6479359,0.1585931,-1.23696,0.2452466,-0.02531095,0.5422412,1.487538,0.2594094,0.03922892,1.130408,0.4011666,299.0755,255.3424,357.0988,True
4,0.05555556,0.2077844,-0.3427345,0.4954047,-1.392812,-4.574396,-2.420832,0.3372652,1.274883,0.5018294,-0.7609046,-0.01065258,20.02653,15.34176,-0.5882732,0.324735,-0.04634811,-0.3815154,-3.704545,-0.4788347,0.4003734,1.449702,0.424515,-0.1539984,0.6373067,0.1521529,-1.235657,0.2524376,-0.02600311,0.5418295,1.487621,0.2596431,0.03893309,1.128127,0.3974814,299.5417,255.2672,356.7438,True
4,0.06666667,0.2003023,-0.333359,0.4367215,-1.392401,-4.570394,-2.423424,0.3359269,1.275077,0.5020843,-0.760741,0.01514562,19.76127,15.10606,-0.5541479,0.3163397,-0.04554635,-0.3834776,-3.697265,-0.4805011,0.3989029,1.449513,0.4238429,-0.1498993,0.6256586,0.1318635,-1.234808,0.2594073,-0.02688914,0.5413727,1.487715,0.2597504,0.03878191,1.125743,0.3932409,300.0467,254.9604,356.3,True
4,0.07777778,0.1853099,-0.3047621,0.4035887,-1.393354,-4.566205,-2.425742,0.334727,1.274723,0.5013146,-0.7603975,0.03137734,19.62865,14.84894,-0.5031402,0.2984671,-0.07151945,-0.3862936,-3.692568,-0.4808612,0.3974898,1.449333,0.4231665,-0.1533002,0.6150958,0.1062857,-1.234682,0.2663893,-0.02746571,0.5409712,1.487741,0.2599087,0.03883057,1.123568,0.3889226,300.6843,254.3424,355.6423,True
4,0.08888889,0.1703266,-0.2772335,0.369389,-1.394192,-4.562653,-2.427829,0.3333247,1.274109,0.500056,-0.761027,-0.05768654,19.54907,14.54896,-0.477647,0.2858008,-0.08877654,-0.3889589,-3.688293,-0.4804247,0.3961822,1.449117,0.4224575,-0.1554676,0.6065935,0.1020089,-1.233871,0.2734088,-0.02790673,0.5406074,1.487845,0.2600083,0.0391487,1.122006,0.3854148,301.3476,253.4414,354.8296,True
4,0.1,0.1499718,-0.2307679,0.2744015,-1.393397,-4.562269,-2.428863,0.332382,1.274016,0.4996963,-0.7609407,0.008489307,19.52254,14.31326,-0.4594131,0.2634819,-0.08362174,-0.3904828,-3.684195,-0.479699,0.3948513,1.449025,0.4216261,-0.1522533,0.5895516,0.1029807,-1.232811,0.2797864,-0.02842099,0.5403573,1.487997,0.2600572,0.03919978,1.121059,0.3830782,301.6647,252.8921,354.3505,True
4,0.1111111,0.1360982,-0.2129783,0.1997562,-1.391954,-4.560904,-2.430365,0.3312618,1.273481,0.4981356,-0.7609354,0.000441251,19.3634,14.14185,-0.445357,0.2549801,-0.06029949,-0.3915177,-3.677928,-0.4810657,0.3936719,1.448951,0.420907,-0.1447755,0.5789,0.1039382,-1.231833,0.2861576,-0.02921914,0.5399916,1.488052,0.2601252,0.03871279,1.120523,0.3816897,301.6029,252.9431,354.3037,True
4,0.1222222,0.1243424,-0.1971749,0.1613441,-1.39124,-4.559368,-2.431589,0.3302603,1.273423,0.4976945,-0.760585,0.0321588,19.07162,14.01328,-0.4109713,0.2369435,-0.02968781,-0.3917404,-3.67247,-0.4828039,0.392573,1.448868,0.4202263,-0.147916,0.559719,0.1081628,-1.230649,0.2922039,-0.02950729,0.5395646,1.488108,0.2601347,0.03772139,1.12018,0.3808773,301.4021,253.1065,354.5463,True
4,0.1333333,0.1147163,-0.1792367,0.126114,-1.390373,-4.558025,-2.432935,0.3290973,1.273067,0.4960859,-0.7609929,-0.03743754,18.64722,13.90615,-0.3819908,0.2167805,-0.01075958,-0.3920269,-3.667922,-0.4838202,0.391438,1.448828,0.4195404,-0.1542607,0.5202913,0.1102101,-1.229481,0.2970071,-0.02912406,0.5391711,1.488147,0.2601485,0.03654329,1.119998,0.3806093,301.2362,253.1142,354.8751,True
4,0.1444445,0.0847888,-0.1432608,0.08442678,-1.389731,-4.558312,-2.432667,0.3283111,1.273105,0.4958904,-0.7608742,0.01126517,18.11671,13.84187,-0.3303589,0.1710936,0.03246771,-0.3904769,-3.664862,-0.4847792,0.3903631,1.44874,0.4189425,-0.1521552,0.4905014,0.1037095,-1.228558,0.3019183,-0.02923991,0.5386177,1.488122,0.2601411,0.03525108,1.119837,0.3806337,301.0754,253.086,355.3152,True
4,0.1555556,0.04840198,-0.07864811,0.02345475,-1.388963,-4.560152,-2.432012,0.3274083,1.272751,0.4944391,-0.7611373,-0.02412327,17.50663,13.77759,-0.3046839,0.156262,0.0397091,-0.3905526,-3.661173,-0.4855747,0.3892321,1.448628,0.4182901,-0.153194,0.4596034,0.1046755,-1.227437,0.3062483,-0.02887852,0.53817,1.488167,0.2601662,0.03407267,1.119684,0.3807874,300.9964,253.1798,355.6382,True
4,0.1666667,0.03552887,-0.0521655,-0.007574499,-1.387972,-4.561395,-2.431656,0.3266221,1.272459,0.4934185,-0.7600001,0.1043,16.89655,13.75616,-0.2737606,0.138275,0.03412427,-0.390821,-3.658917,-0.4857172,0.3881395,1.448493,0.4176352,-0.1521489,0.4468561,0.1013982,-1.226809,0.3114169,-0.02889477,0.5377588,1.488259,0.2601364,0.03295938,1.119438,0.3807644,300.96,253.2801,355.9524,True
4,0.1777778,0.03438002,-0.02040391,-0.06095551,-1.386631,-4.563799,-2.431524,0.3257795,1.272449,0.4933391,-0.7599745,0.001576862,16.25995,13.73473,-0.2621336,0.1606947,0.03301217,-0.3917041,-3.652457,-0.4891465,0.3870212,1.448405,0.4170158,-0.1499726,0.4468318,0.1077716,-1.22551,0.3166934,-0.02901141,0.5373628,1.488225,0.2601349,0.03200816,1.119188,0.3806179,301.028,253.3439,356.0425,True
4,0.1888889,0.04391116,0.003966641,-0.0983329,-1.385096,-4.565751,-2.432344,0.3248239,1.271853,0.4915485,-0.7604145,-0.03995751,15.64987,13.73473,-0.2590124,0.184139,0.03408954,-0.3926911,-3.645443,-0.4928936,0.3860372,1.448263,0.4163799,-0.1466863,0.4404255,0.1172989,-1.22407,0.3218911,-0.02924257,0.5369341,1.488262,0.2601633,0.03092441,1.118918,0.3802725,301.0784,253.4245,356.1445,True
4,0.2,0.02878335,0.0782625,-0.1614594,-1.384262,-4.5711,-2.431201,0.3241852,1.272053,0.4916646,-0.7610899,-0.06130207,15.17241,13.75616,-0.2613188,0.2299394,0.03417736,-0.3943316,-3.6355,-0.499042,0.3850344,1.448352,0.4158518,-0.1425234,0.4404641,0.1066102,-1.223399,0.3270636,-0.02953685,0.5365294,1.488292,0.2600734,0.02987536,1.1187,0.379818,301.1113,253.3064,356.218,True
4,0.2111111,0.003055975,0.1303122,-0.1797682,-1.384358,-4.575117,-2.429566,0.3234777,1.271802,0.4907398,-0.7621354,-0.09503336,14.82759,13.79901,-0.2400506,0.2417275,0.03510067,-0.395342,-3.628292,-0.5037447,0.3841814,1.448491,0.4153905,-0.1403669,0.4244996,0.1076029,-1.222341,0.3318052,-0.02967667,0.536127,1.488379,0.2600899,0.02878324,1.118539,0.3794664,301.084,253.17,356.2518,True
4,0.2222222,-0.03018852,0.2046407,-0.2183978,-1.384718,-4.581429,-2.426894,0.3228327,1.272212,0.4908338,-0.7609668,0.1076361,14.66844,13.84187,-0.1920802,0.2206147,0.02831589,-0.3961995,-3.624226,-0.5069745,0.383539,1.448686,0.4149365,-0.140095,0.3700863,0.132981,-1.219934,0.3344205,-0.02897732,0.5356207,1.488532,0.260061,0.02758008,1.118315,0.3791912,300.998,253.0945,356.3519,True
4,0.2333333,-0.06553482,0.2714154,-0.2761819,-1.384062,-4.588566,-2.423865,0.3221387,1.27221,0.4893174,-0.7602036,0.06891972,14.61538,13.90615,-0.1533279,0.1802214,0.06099869,-0.3947774,-3.620463,-0.5100875,0.3827473,1.448843,0.4144542,-0.1443517,0.3413276,0.130787,-1.218689,0.3375577,-0.02829289,0.5351808,1.488596,0.2601004,0.02642991,1.118192,0.3793543,301.0579,253.1605,356.1458,True
4,0.2444444,-0.1051104,0.3265259,-0.3211348,-1.38386,-4.596397,-2.41981,0.3214257,1.272797,0.4895184,-0.7597338,0.04263698,14.58886,13.97043,-0.1088822,0.1003829,0.123396,-0.3907661,-3.619826,-0.5110534,0.3820589,1.449019,0.4140127,-0.1390692,0.3115528,0.1231726,-1.217703,0.3405843,-0.02789581,0.5346456,1.488665,0.2600553,0.0251601,1.118245,0.3799499,301.1829,253.4469,355.94,True
4,0.2555556,-0.2267519,0.399229,-0.436491,-1.381757,-4.607513,-2.411126,0.3203534,1.273665,0.4894736,-0.7597503,-0.001658485,14.61538,14.05614,-0.1032099,0.1162978,0.1777066,-0.3884503,-3.610588,-0.5186186,0.3814152,1.449358,0.4137044,-0.1348464,0.3030546,0.1177784,-1.216634,0.3440186,-0.02774162,0.534133,1.488753,0.2600951,0.02367524,1.118662,0.3810627,301.3402,253.8508,355.8121,True
4,0.2666667,-0.2938901,0.4137135,-0.49408,-1.379447,-4.615963,-2.404332,0.3192793,1.27437,0.4891937,-0.7591586,0.05431711,14.61538,14.14185,-0.07332096,0.1334251,0.1945609,-0.3871192,-3.601818,-0.5268478,0.380834,1.449574,0.413393,-0.1242856,0.2786254,0.1048056,-1.216133,0.3467627,-0.02763269,0.5336626,1.488906,0.2600765,0.02182099,1.119483,0.3825511,301.3785,254.2087,355.9584,True
4,0.2777778,-0.398293,0.422635,-0.5889522,-1.375613,-4.626565,-2.394145,0.3178951,1.275829,0.4899769,-0.7555394,0.3307568,14.58886,14.27041,-0.03387262,0.09844039,0.1814286,-0.3857882,-3.600043,-0.5294071,0.3803099,1.449772,0.4131935,-0.09781662,0.2414364,0.08313312,-1.215916,0.34833,-0.02788995,0.5331944,1.489048,0.2600517,0.0196404,1.12086,0.3845683,301.3879,254.4385,355.9988,True
4,0.2888889,-0.5036826,0.4070347,-0.6869331,-1.37035,-4.63696,-2.383228,0.3163574,1.277084,0.490032,-0.757175,-0.1519861,14.50928,14.39897,-0.0121976,0.03563619,0.1992818,-0.3825072,-3.600134,-0.5298615,0.3797281,1.449932,0.4129922,-0.08416856,0.2095993,0.0573303,-1.216223,0.3500041,-0.02793789,0.5326778,1.489177,0.2600288,0.01671001,1.122981,0.3872349,301.414,254.6493,356.155,True
4,0.3,-0.6017178,0.4128726,-0.7648027,-1.365294,-4.649141,-2.370728,0.3149558,1.279471,0.4923379,-0.7551675,0.1856305,14.37666,14.54896,0.002995469,-0.01333233,0.2118768,-0.3791809,-3.600356,-0.5301573,0.3791745,1.450129,0.4127777,-0.06942312,0.1596368,0.03359142,-1.216534,0.3502929,-0.02765107,0.5321985,1.489323,0.2600257,0.01331454,1.125986,0.3904763,301.1643,254.6992,356.6786,True
4,0.3111111,-0.6955439,0.4432529,-0.8267227,-1.361527,-4.661422,-2.357444,0.3132038,1.281297,0.4934287,-0.7549832,0.01567696,14.19098,14.69895,0.02569731,-0.0856998,0.2201241,-0.3751488,-3.604195,-0.5275565,0.3786169,1.450525,0.4125836,-0.07051168,0.1266301,0.02815969,-1.216367,0.3506275,-0.02687263,0.5316501,1.489313,0.2601209,0.009410914,1.129948,0.3943157,300.7877,254.6261,357.3789,True
4,0.3222222,-0.7584198,0.4556962,-0.8704553,-1.357819,-4.673289,-2.344744,0.3115159,1.282851,0.4943049,-0.7546903,0.02741284,14.03183,14.87037,0.04300104,-0.09740422,0.24874,-0.3712239,-3.602569,-0.5301062,0.3780897,1.450858,0.4124784,-0.0813611,0.1203244,0.005864041,-1.217029,0.3521184,-0.02607368,0.5311525,1.489302,0.2601895,0.005145848,1.134899,0.3986952,300.251,254.3049,358.2987,True
4,0.3333333,-0.8468209,0.4531273,-0.9162761,-1.353237,-4.68542,-2.329715,0.3095733,1.284896,0.4955521,-0.7548464,-0.01371701,13.81963,15.04178,0.05923574,-0.0793009,0.2923272,-0.3670358,-3.596231,-0.5371673,0.3774018,1.451298,0.4123507,-0.08893733,0.1267541,-0.006830141,-1.217586,0.3538478,-0.02541907,0.5305922,1.489318,0.2603135,0.0007403432,1.140957,0.4038559,299.6003,253.9784,359.0718,True
4,0.3444445,-0.9108194,0.4784322,-0.9376901,-1.350324,-4.697931,-2.314881,0.3078902,1.286711,0.4964755,-0.7562616,-0.1285418,13.63395,15.23462,0.07226133,-0.06334075,0.3327413,-0.3625537,-3.58928,-0.5448785,0.3768697,1.45182,0.4122822,-0.08900449,0.1385149,-0.01320371,-1.218255,0.3562101,-0.02524357,0.5301498,1.489173,0.2602701,-0.004008026,1.147908,0.4095891,298.5733,253.9951,0.0528705,True
4,0.3555556,-0.951476,0.5368096,-0.9624114,-1.34848,-4.712004,-2.300035,0.3062286,1.288817,0.4975944,-0.7549912,0.1177058,13.50132,15.40604,0.08082308,-0.08141372,0.329452,-0.3588397,-3.587962,-0.5472378,0.3763114,1.452425,0.4121604,-0.08599535,0.1311364,-0.03563275,-1.219477,0.3574014,-0.02487632,0.5295901,1.489218,0.2604284,-0.008844373,1.155399,0.4155124,297.2422,253.9435,1.425264,True
4,0.3666667,-0.9856741,0.5728741,-0.9763989,-1.346672,1.557456,-2.285177,0.3046594,1.290708,0.498441,-0.7559478,-0.08804982,13.39523,15.49175,0.07620013,-0.1582274,0.3847655,-0.3513045,-3.589849,-0.5461797,0.3758179,1.453052,0.4120383,-0.09914783,0.1206402,-0.07817605,-1.221919,0.3586665,-0.02373462,0.528957,1.489397,0.2606156,-0.01368758,1.16317,0.4213178,295.9757,253.7228,2.90859,True
4,0.3777778,-1.044438,0.6291183,-0.9862028,-1.346206,1.542807,-2.268453,0.3029933,1.292819,0.4997132,-0.7571852,-0.1115661,13.28912,15.53461,0.05868348,-0.1968733,0.4455031,-0.3443403,-3.587985,-0.5481172,0.3752729,1.453561,0.4120107,-0.1099761,0.1004647,-0.1005249,-1.2238,0.3590136,-0.02234712,0.5283382,1.489455,0.2607796,-0.01828422,1.171052,0.4267692,294.7643,253.5493,4.184244,True
4,0.3888889,-1.098818,0.6513032,-0.9916288,-1.345246,1.528885,-2.251636,0.3012208,1.294822,0.5008636,-0.7578653,-0.06079685,13.18302,15.49175,0.06321186,-0.1935893,0.4828185,-0.3370406,-3.582496,-0.5539495,0.3747166,1.454123,0.4120221,-0.117366,0.06530645,-0.09632309,-1.224703,0.358745,-0.02066453,0.5275173,1.489511,0.2609639,-0.02256156,1.178896,0.4318236,293.6189,253.3725,5.229694,True
4,0.4,-1.135108,0.673578,-0.985327,-1.344884,1.515126,-2.234901,0.2994815,1.296898,0.5021067,-0.756848,0.09377657,13.0504,15.38461,0.09649658,-0.195652,0.5166526,-0.3301127,-3.577175,-0.5612348,0.3740886,1.454645,0.4121573,-0.1139292,0.03220912,-0.07303794,-1.224765,0.3580966,-0.01935452,0.5266874,1.489714,0.2613349,-0.02654223,1.186533,0.4364844,292.5435,253.0507,6.227086,True
4,0.4111111,-1.145861,0.6885411,-0.9801115,-1.344625,1.500012,-2.217636,0.2980592,1.300753,0.5074618,-0.7570856,-0.02210309,12.91777,15.23462,0.1392731,-0.2349121,0.5184056,-0.3231086,-3.578028,-0.5635025,0.3732492,1.455189,0.4123178,-0.122088,0.01715063,-0.03359988,-1.223782,0.3577587,-0.01761521,0.5257936,1.489862,0.2615914,-0.03046041,1.193971,0.4408841,291.6548,252.7515,7.010909,True
4,0.4222222,-1.134114,0.6885663,-0.9822386,-1.344229,1.486432,-2.202603,0.296077,1.302831,0.5090289,-0.7577711,-0.0620605,12.81167,15.06321,0.1395121,-0.2519955,0.5418171,-0.3155873,-3.575381,-0.567443,0.3723849,1.455816,0.4125967,-0.125088,0.02346057,-0.01118166,-1.223197,0.3583128,-0.0163345,0.5249107,1.489967,0.2619498,-0.03438194,1.20128,0.4451191,290.8675,252.332,7.872369,True
4,0.4333333,-1.114926,0.6843815,-0.9768944,-1.344015,1.473047,-2.187808,0.2942934,1.304895,0.5105133,-0.7581599,-0.03462004,12.7321,14.87037,0.1331443,-0.2562824,0.542923,-0.3088276,-3.572916,-0.5710605,0.3715343,1.456393,0.4128485,-0.1237368,0.03081387,0.02185537,-1.221842,0.3591909,-0.01528362,0.5239801,1.490095,0.2623444,-0.03813827,1.208637,0.4494621,290.3282,251.5517,8.531601,True
4,0.4444444,-1.069166,0.6985182,-0.9525005,-1.345151,1.458912,-2.173867,0.2925915,1.308612,0.5160813,-0.7605029,-0.2136969,12.70557,14.65609,0.1224578,-0.276547,0.5280602,-0.302296,-3.57401,-0.5710251,0.3706525,1.456824,0.4130902,-0.128981,0.01694646,0.03037192,-1.221345,0.359117,-0.01360289,0.5230282,1.490138,0.262897,-0.04174448,1.216414,0.4547378,289.8844,250.6543,8.982435,True
4,0.4555556,-1.01068,0.7275299,-0.9376485,-1.347023,1.445238,-2.161553,0.2907766,1.310414,0.517602,-0.7612012,-0.06186391,12.75862,14.48468,0.1130094,-0.3266393,0.5216587,-0.2947667,-3.579052,-0.5671771,0.3696189,1.45726,0.4133501,-0.1366066,0.02125709,0.01234597,-1.221756,0.3594358,-0.01189501,0.5220895,1.490136,0.2633829,-0.04539909,1.22444,0.4607919,288.8981,250.055,10.32298,True
4,0.4666667,-0.9744969,0.7542591,-0.9409413,-1.348968,1.431116,-2.149025,0.2888323,1.31182,0.5187624,-0.7623538,-0.1049873,12.78515,14.37754,0.09714532,-0.3565347,0.5217299,-0.2871165,-3.582981,-0.5640168,0.3685496,1.457633,0.4136374,-0.1348987,0.06296708,-0.0312045,-1.223578,0.3618045,-0.01128088,0.5210716,1.490248,0.2640414,-0.0488238,1.232491,0.4673498,287.8971,249.314,11.88904,True
4,0.4777778,-0.9320165,0.7990858,-0.9528142,-1.351734,1.415547,-2.136537,0.2869221,1.313292,0.5203049,-0.7639299,-0.1431648,12.78515,14.29184,0.08316582,-0.3310078,0.5176117,-0.2808357,-3.580456,-0.566898,0.3672143,1.458087,0.4140105,-0.1266802,0.09610225,-0.06205954,-1.225349,0.3640766,-0.01090431,0.5200723,1.490314,0.264648,-0.05202767,1.24058,0.4746961,286.9906,248.7314,13.01447,True
4,0.4888889,-0.9235966,0.8396045,-0.9444434,-1.355196,1.400746,-2.123307,0.2849043,1.314157,0.5204525,-0.7637712,0.01554248,12.7321,14.24898,0.07442689,-0.2980016,0.5049496,-0.2750438,-3.576912,-0.5709266,0.3657237,1.458607,0.4143183,-0.1078024,0.1324583,-0.09193129,-1.227445,0.3671684,-0.01139034,0.518926,1.490504,0.2653983,-0.05503735,1.248319,0.4823191,285.7137,248.5768,14.6507,True
4,0.5,-0.8983264,0.9347447,-0.8894507,-1.362701,1.385269,-2.110394,0.2832641,1.316879,0.5258403,-0.7638282,-0.005711514,12.54642,14.22755,0.04848072,-0.2618247,0.4721812,-0.2703226,-3.574134,-0.5734108,0.3641139,1.45918,0.4145668,-0.1098569,0.1484064,-0.08120341,-1.227896,0.3694884,-0.01077568,0.5176731,1.490708,0.2661028,-0.05794458,1.255329,0.4896581,284.4533,248.4598,16.48027,True
4,0.5111111,-0.8600831,0.9679993,-0.8576033,-1.368721,1.37153,-2.099365,0.2814166,1.318001,0.5273519,-0.7626969,0.1033878,12.36074,14.22755,0.0225994,-0.2245988,0.4489962,-0.2660445,-3.569504,-0.5772694,0.3624119,1.459739,0.4149117,-0.1414726,0.1578287,-0.0414721,-1.22704,0.3717103,-0.008869126,0.516315,1.490949,0.2669272,-0.0608048,1.261463,0.4964107,283.4318,248.6143,17.81055,True
4,0.5222223,-0.7728643,1.018461,-0.8194212,-1.375629,1.357857,-2.091216,0.2795495,1.318497,0.5279946,-0.7628177,-0.01199857,12.12201,14.22755,-0.0173395,-0.1501308,0.4163864,-0.2633525,-3.559875,-0.585105,0.360535,1.460554,0.4153855,-0.1591111,0.1789452,0.01414806,-1.225202,0.3748466,-0.007552991,0.5149225,1.491136,0.267674,-0.06365959,1.266814,0.5024341,282.9168,249.2391,17.87126,True
4,0.5333334,-0.6655009,1.069995,-0.7695159,-1.38286,1.345383,-2.0852,0.2776499,1.315328,0.5189104,-0.7641451,-0.1210198,11.85676,14.27041,-0.06638116,-0.06940749,0.4530994,-0.2592747,-3.540429,-0.6014336,0.3586242,1.461234,0.4159939,-0.1695226,0.2065247,0.0441651,-1.223828,0.3781397,-0.006503173,0.5134167,1.491389,0.268666,-0.06652922,1.271928,0.5084817,282.7578,250.5637,16.35298,True
4,0.5444446,-0.5495894,1.145153,-0.7058122,-1.393186,1.333099,-2.081214,0.2758812,1.315668,0.5199127,-0.7667507,-0.2376035,11.61804,14.31326,-0.07595398,-0.04496337,0.4670612,-0.2547441,-3.526973,-0.6133752,0.3568238,1.461771,0.4164274,-0.1789918,0.220333,0.05814976,-1.222786,0.3814348,-0.005435246,0.5119171,1.491686,0.2695885,-0.06917217,1.276863,0.514413,282.2103,251.9454,15.66004,True
4,0.5555557,-0.4453766,1.203161,-0.6612523,-1.40366,1.320088,-2.077325,0.2741407,1.31589,0.5208709,-0.7682874,-0.138898,11.45889,14.37754,-0.05360395,-0.01080768,0.4818584,-0.2506285,-3.510027,-0.6298722,0.3547925,1.462183,0.4170744,-0.1801153,0.2203553,0.05069677,-1.222587,0.3839443,-0.00434042,0.5102841,1.491892,0.2706954,-0.07120394,1.281213,0.5194259,280.8227,254.2262,15.7784,True
4,0.5666668,-0.3495849,1.239759,-0.6389654,-1.413656,1.307112,-2.074556,0.2723114,1.316071,0.5219624,-0.7695486,-0.1148249,11.37931,14.37754,-0.02320436,-0.04358616,0.3984841,-0.2481965,-3.510228,-0.6304445,0.3528025,1.462541,0.4176235,-0.1736662,0.2224954,0.05807883,-1.222052,0.3870356,-0.003557451,0.5087163,1.492146,0.2718229,-0.07243712,1.284088,0.5217155,279.2212,256.8557,15.99845,True
4,0.577778,-0.2995235,1.251627,-0.6411059,-1.422691,1.293851,-2.070801,0.2706416,1.316242,0.5229745,-0.7689047,0.05928173,11.29973,14.33469,-0.02128837,-0.07120601,0.3558151,-0.2450982,-3.509602,-0.630861,0.3507529,1.462918,0.4182045,-0.1659752,0.2490347,0.08686529,-1.220121,0.3909082,-0.003315635,0.5069857,1.492372,0.2730546,-0.07407776,1.285661,0.5222039,278.75,258.7869,13.84559,True
4,0.5888891,-0.2420477,1.266781,-0.6230346,-1.432426,1.28118,-2.06835,0.2686752,1.315985,0.5238736,-0.7689105,-0.001945783,11.27321,14.22755,-0.04271959,-0.04358608,0.3528228,-0.2421692,-3.49881,-0.6401014,0.34857,1.463181,0.4189982,-0.1585302,0.2884916,0.0901061,-1.21934,0.3962612,-0.003487409,0.5052497,1.49251,0.2742589,-0.07643869,1.28637,0.5223406,278.9659,260.4778,10.51011,True
4,0.6000003,-0.1962769,1.280914,-0.5666033,-1.442427,1.27089,-2.06634,0.2667553,1.315748,0.5244837,-0.7670564,0.1689568,11.19363,14.05614,-0.04403716,-0.02330963,0.3294245,-0.2401649,-3.489482,-0.6486083,0.3464329,1.463394,0.4196408,-0.1576504,0.3215666,0.07316804,-1.219143,0.4010589,-0.003335875,0.5034846,1.4926,0.2753782,-0.07929007,1.286634,0.5233325,279.3656,262.0273,7.452439,True
4,0.6111114,-0.1568875,1.285438,-0.5027094,-1.452187,1.261252,-2.064501,0.264764,1.314849,0.5249925,-0.7672434,-0.01916895,11.08753,13.82044,-0.03197601,-0.04865636,0.2206351,-0.2401223,-3.496965,-0.6413614,0.34405,1.463443,0.4204638,-0.1535014,0.3642033,0.06369092,-1.218746,0.4066707,-0.00376571,0.5011702,1.492684,0.2767148,-0.08219359,1.286789,0.5257936,279.7223,264.2333,4.591376,True
4,0.6222225,-0.1248915,1.27823,-0.4600596,-1.462737,1.251119,-2.063102,0.2629938,1.314504,0.5256388,-0.7666665,0.05275667,11.00796,13.54189,-0.03081469,-0.09337988,0.2109706,-0.2368733,-3.499881,-0.6382223,0.3416511,1.463657,0.421253,-0.1406817,0.3481917,0.06567407,-1.217647,0.4097195,-0.00376571,0.4988739,1.492678,0.2781565,-0.08480584,1.287,0.5297642,279.845,267.7451,1.386324,True
4,0.6333337,-0.1088758,1.267794,-0.4365335,-1.474285,1.240443,-2.06154,0.2610014,1.314677,0.52793,-0.766012,0.05906471,10.95491,13.22048,-0.06160106,-0.1073557,0.2186376,-0.2335219,-3.498306,-0.6380281,0.339139,1.463673,0.4220316,-0.1173758,0.3226953,0.04833218,-1.217702,0.4125565,-0.004173972,0.4967505,1.492879,0.2796283,-0.0868615,1.2873,0.5347711,279.7803,272.4396,357.7657,True
4,0.6444448,-0.09900071,1.175282,-0.3967562,-1.48162,1.233242,-2.06034,0.2588034,1.314319,0.5288115,-0.7658266,0.01608389,10.92838,12.85623,-0.09505123,-0.09568039,0.1677738,-0.2330458,-3.499454,-0.6346984,0.3365608,1.463629,0.4229116,-0.1079232,0.3344468,0.03338189,-1.217778,0.416624,-0.004806739,0.4948126,1.493127,0.2810252,-0.08843438,1.287646,0.5402726,279.6413,277.6787,353.8914,True
4,0.655556,-0.1039033,1.029446,-0.3685257,-1.486326,1.227246,-2.05848,0.2567024,1.314329,0.5298462,-0.7651325,0.06296183,10.98143,12.51339,-0.09418715,-0.1169224,0.1304469,-0.2316673,-3.506226,-0.6271414,0.3339426,1.463579,0.4237795,-0.1112512,0.3728288,0.02182304,-1.217984,0.4224147,-0.005513809,0.4925371,1.493165,0.2824895,-0.08980706,1.288164,0.5459946,279.7034,282.8071,349.8445,True
4,0.6666671,-0.1265753,0.7812612,-0.3399398,-1.485584,1.224566,-2.056386,0.2546939,1.31396,0.5307014,-0.7645999,0.0479087,11.03448,12.25627,-0.06179385,-0.1038926,0.05246179,-0.2327384,-3.513277,-0.6206521,0.33087,1.463224,0.4247947,-0.1218647,0.4047337,0.02949198,-1.217354,0.427997,-0.005772668,0.4902886,1.49326,0.2840662,-0.09136968,1.289024,0.5519824,279.806,287.4561,346.0621,True
4,0.6777782,-0.147405,0.6172874,-0.2978157,-1.486032,1.222205,-2.053785,0.2523301,1.313912,0.5313432,-0.7634356,0.1058267,11.11406,12.06342,-0.063502,-0.0675685,-0.01458485,-0.2347502,-3.517072,-0.6161079,0.3280419,1.463061,0.4257309,-0.1195337,0.4227543,0.05403859,-1.215873,0.4334472,-0.006457367,0.4879209,1.493366,0.2857649,-0.09294049,1.290081,0.5576376,279.67,291.3266,343.3876,True
4,0.6888894,-0.08685412,0.3153142,-0.188048,-1.480905,1.226996,-2.055627,0.2492393,1.31411,0.5323081,-0.762593,0.07598887,11.19363,11.97771,-0.1457955,0.05482024,-0.1309635,-0.2417394,-3.513911,-0.6149085,0.3251622,1.462615,0.4266715,-0.1097735,0.4588957,0.0764635,-1.214128,0.4399707,-0.007975102,0.4855419,1.493464,0.2874777,-0.09446771,1.291188,0.5623946,279.3665,293.8168,342.1015,True
4,0.7000005,-0.05225042,0.1366403,-0.132004,-1.477174,1.229543,-2.056629,0.2465799,1.314147,0.5329912,-0.7618963,0.06302858,11.24668,11.93486,-0.2306924,0.1185214,-0.1973421,-0.2468995,-3.512939,-0.6106319,0.3225772,1.462392,0.4276099,-0.06482267,0.5131613,0.1060874,-1.212059,0.4479581,-0.01153548,0.483095,1.493677,0.2891936,-0.09601589,1.292144,0.5657701,278.9641,294.7831,342.0818,True
4,0.7111117,-0.08807652,0.001416197,-0.08252847,-1.473379,1.232361,-2.054689,0.2434485,1.314316,0.5337243,-0.7655283,-0.3325789,11.27321,11.99914,-0.2610712,0.06401005,-0.1556535,-0.2465645,-3.517235,-0.6026078,0.3199517,1.462229,0.4283767,0.007854521,0.5578499,0.1364922,-1.209656,0.4559526,-0.01697579,0.4808029,1.493805,0.2906878,-0.09804256,1.29297,0.5676279,278.7002,295.1104,342.3132,True
4,0.7222228,-0.1847724,-0.08496345,-0.02790475,-1.471464,1.235339,-2.049617,0.2399976,1.314893,0.534435,-0.7649845,0.0523356,11.27321,12.10628,-0.2807048,-0.00538063,-0.1087424,-0.2444553,-3.524815,-0.5915834,0.3173366,1.46205,0.4290679,0.04289979,0.5685674,0.1255649,-1.208825,0.4628921,-0.02100275,0.4784804,1.493937,0.2920651,-0.1006728,1.293414,0.5677091,278.3237,293.6819,343.8761,True
4,0.7333339,-0.240749,-0.2553641,0.03233923,-1.464631,1.241809,-2.045589,0.2363269,1.315679,0.5351431,-0.7616252,0.3062863,11.29973,12.27769,-0.2488514,-0.04379387,0.000689581,-0.2399268,-3.522241,-0.5925208,0.3146043,1.46187,0.4296486,0.03396222,0.5378286,0.07546784,-1.209923,0.4677128,-0.02262781,0.4760233,1.494031,0.2933936,-0.1038207,1.293293,0.5662109,278.1069,291.2056,345.8461,True
4,0.7444451,-0.2675233,-0.5706282,0.07820082,-1.449864,1.252439,-2.043262,0.2322729,1.316805,0.5357468,-0.7581471,0.3154071,11.29973,12.49196,-0.1847469,-0.03933817,0.02791665,-0.2390251,-3.519671,-0.5953401,0.3116224,1.461856,0.4302013,-0.000326246,0.4963437,0.04899506,-1.21044,0.4719291,-0.02284167,0.4736727,1.494126,0.294724,-0.1077437,1.292827,0.563735,278.3299,288.1819,347.8704,True
4,0.7555562,-0.1677965,-0.7960637,0.1109917,-1.435526,1.262725,-2.046245,0.2279474,1.31781,0.5363848,-0.7588081,-0.06263494,11.37931,12.68481,-0.2219643,-0.02033021,0.04739952,-0.2384216,-3.515627,-0.5953787,0.3085527,1.461961,0.4307251,-0.06437381,0.4100574,0.02582263,-1.210884,0.4732651,-0.02027118,0.4711412,1.494265,0.2959952,-0.1123796,1.292547,0.5608063,278.9364,285.0913,349.8335,True
4,0.7666674,0.04813094,-0.6876815,0.153302,-1.434442,1.267356,-2.055138,0.2240094,1.317916,0.5366468,-0.760447,-0.1486686,11.40584,12.79194,-0.3206385,-0.03888181,0.09178432,-0.2357079,-3.513,-0.5909008,0.3051885,1.461928,0.4309826,-0.06431459,0.3993748,0.03111483,-1.210371,0.4776417,-0.02122859,0.4686445,1.494451,0.2973602,-0.1172554,1.292732,0.557525,279.3885,280.1743,353.8329,True
4,0.7777785,0.1756692,-0.2290871,0.1922097,-1.447913,1.264232,-2.061067,0.2201972,1.316839,0.5365088,-0.7658975,-0.496819,11.40584,12.77051,-0.4257838,-0.03934577,0.1351835,-0.2329712,-3.508126,-0.5873876,0.3017075,1.461875,0.4310465,-0.05233538,0.4184618,0.05982973,-1.208909,0.4835053,-0.02340732,0.466115,1.494825,0.2984998,-0.1220642,1.293324,0.5538049,279.5336,272.9608,0.276586,True
4,0.7888896,0.0695335,0.3587211,0.2124886,-1.470512,1.255929,-2.057093,0.2164418,1.31486,0.5358753,-0.7725734,-0.6066064,11.37931,12.66338,-0.4893375,0.06464827,0.237026,-0.2304274,-3.478949,-0.6082977,0.2979351,1.461671,0.4309533,-0.05210964,0.4641558,0.08980829,-1.207146,0.4906134,-0.02539297,0.4634132,1.494895,0.300061,-0.1265662,1.293963,0.5498537,279.3079,266.5511,5.685745,True
4,0.8000008,-0.1196176,0.9174477,0.2104968,-1.496093,1.245472,-2.048486,0.2129276,1.312909,0.5351369,-0.7702981,0.211661,11.29973,12.44911,-0.5223522,0.1635177,0.2885649,-0.2295139,-3.447792,-0.63182,0.2942849,1.461358,0.4310448,-0.06373566,0.5365244,0.1072124,-1.205519,0.4997423,-0.02756984,0.4607609,1.494937,0.3013945,-0.1305649,1.294068,0.5463686,278.5827,265.5058,5.446679,True
4,0.8111119,-0.2397527,1.198222,0.1785788,-1.517187,1.235714,-2.040916,0.209463,1.311135,0.5342422,-0.7598137,0.9552226,11.14058,12.1277,-0.5588512,0.2517822,0.295381,-0.2300918,-3.417799,-0.6536143,0.2904444,1.460672,0.430908,-0.06797777,0.6078426,0.1170951,-1.204085,0.5092054,-0.03007747,0.4579987,1.49505,0.3029454,-0.1345224,1.293347,0.5443587,277.8941,272.3283,357.501,True
4,0.8222231,-0.3097398,1.471481,0.07539228,-1.538864,1.222026,-2.035246,0.2062788,1.30962,0.5336092,-0.7541321,0.5111071,10.98143,11.93486,-0.6046491,0.3295412,0.1935756,-0.2348642,-3.401799,-0.660898,0.2867226,1.459863,0.4310789,-0.06684643,0.6397589,0.1278478,-1.202551,0.5178854,-0.03246207,0.4552059,1.495048,0.3043997,-0.1388758,1.292245,0.5444731,278.2026,284.2786,345.0771,True
4,0.8333342,-0.4509088,1.668861,-0.02548128,-1.560135,1.207295,-2.024715,0.2036192,1.30782,0.5324154,-0.7551244,-0.09377182,10.79576,11.89201,-0.6267271,0.3594268,0.1053628,-0.2393207,-3.389594,-0.6649873,0.2830863,1.459193,0.4314883,-0.03487605,0.6716973,0.1319712,-1.20091,0.5265434,-0.03628291,0.4523719,1.495257,0.3056707,-0.1433374,1.291619,0.5466917,279.3466,293.9028,335.7934,True
4,0.8444453,-0.5011969,1.741097,-0.03953856,4.703959,1.197706,-2.01782,0.2003871,1.3069,0.5315413,-0.7579436,-0.2559982,10.6366,12.02057,-0.6196705,0.2648,0.003955655,-0.2415727,-3.399681,-0.6485588,0.2796903,1.458657,0.4317467,-0.002838969,0.6919205,0.1434744,-1.1993,0.5355351,-0.04050642,0.4497295,1.495252,0.3070309,-0.1473562,1.292054,0.5505368,280.3479,300.0454,330.5985,True
4,0.8555565,-0.5538852,1.542898,-0.009037256,4.694466,1.19461,-2.010035,0.1977486,1.306708,0.5309691,-0.7538296,0.3784326,10.55703,12.38483,-0.5579265,0.0170294,-0.1268669,-0.2413804,-3.44215,-0.6030481,0.2767953,1.458404,0.4320827,0.04528031,0.6876695,0.1600748,-1.197337,0.5441425,-0.04605884,0.4470469,1.495269,0.3085399,-0.1504887,1.293738,0.5556922,280.789,306.4716,325.3448,True
4,0.8666676,-0.4638677,1.361163,0.03958625,4.685479,1.192848,-2.00832,0.1942988,1.307225,0.5305319,-0.7574334,-0.3323313,10.47745,12.87765,-0.4839651,-0.1105214,-0.1308132,-0.2395758,-3.463133,-0.5797614,0.2739319,1.458223,0.4323423,0.0835883,0.6770697,0.1543697,-1.196209,0.5518778,-0.05102963,0.4445794,1.495152,0.3096035,-0.1526541,1.296764,0.5617309,281.0652,314.5608,318.7611,True
4,0.8777788,-0.2743596,1.035859,0.07486805,4.684405,1.194548,-2.0122,0.1912696,1.307681,0.5302327,-0.7576565,-0.01604195,10.3183,13.45618,-0.3580158,-0.3668599,-0.08528614,-0.2322442,-3.506408,-0.5379724,0.2713765,1.458361,0.4322114,0.08548403,0.6441823,0.1211995,-1.196481,0.558753,-0.05475273,0.44222,1.495098,0.3105946,-0.1540857,1.301019,0.5677834,281.0451,323.4195,311.8335,True
4,0.8888899,-0.1790699,0.872049,0.06482403,4.680669,1.193117,-2.013519,0.1882696,1.307954,0.5300095,-0.7640444,-0.5838248,10.1061,14.09899,-0.3167932,-0.5523031,0.06325904,-0.2214211,-3.540728,-0.5022445,0.2686473,1.458586,0.4319561,0.07135779,0.6037989,0.08708295,-1.19705,0.5643333,-0.05694717,0.4398862,1.495073,0.3115013,-0.1550598,1.306138,0.5726907,280.7114,331.5034,305.756,True
4,0.900001,-0.1072645,0.7346613,0.01099321,4.678235,1.189761,-2.01488,0.1854449,1.308299,0.5298791,-0.7701963,-0.5577252,9.840847,14.7418,-0.3186446,-0.6260487,0.2059096,-0.2108552,-3.562304,-0.4772595,0.265905,1.458671,0.4313688,0.0327366,0.539979,0.05098996,-1.197895,0.5683667,-0.05725344,0.4376402,1.494882,0.3121545,-0.1562818,1.311568,0.5757647,280.0619,340.4584,298.3271,True
4,0.9111122,-0.15269,0.6295838,-0.144176,4.677953,1.182129,-2.011815,0.1826991,1.308186,0.5294998,-0.7674384,0.2559731,9.469496,15.19177,-0.3013626,-0.4942714,0.4467537,-0.1988662,-3.537084,-0.4988053,0.2628541,1.458753,0.4303732,-0.04988298,0.4102192,-0.02862822,-1.201042,0.5680423,-0.05358706,0.4355425,1.494777,0.3127062,-0.1578054,1.316142,0.5765117,279.1409,350.4922,288.9243,True
4,0.9222233,-0.1951346,0.589655,-0.2590694,4.675758,1.174134,-2.008679,0.1799655,1.308192,0.5295501,-0.7663033,0.1004878,8.992041,15.19177,-0.262003,-0.358927,0.5073976,-0.1929338,-3.516491,-0.5172881,0.2596412,1.458781,0.4297011,-0.08104232,0.3655576,-0.06259804,-1.202869,0.5708601,-0.0528025,0.4331987,1.49466,0.313525,-0.1601861,1.319189,0.5754672,278.6185,358.1315,280.8589,True
4,0.9333345,-0.3013888,0.5172774,-0.4612678,4.677618,1.162147,-2.002264,0.1773165,1.308824,0.530025,-0.7612295,0.4629598,8.435014,14.69895,-0.2000718,-0.2246145,0.5945026,-0.1858727,-3.483448,-0.5495228,0.2564293,1.458694,0.4288368,-0.1143241,0.354983,-0.09216391,-1.20496,0.5746785,-0.05180594,0.4309933,1.494491,0.3142886,-0.1634266,1.320435,0.5735044,278.2535,0.9048231,276.9706,True
4,0.9444456,-0.3650495,0.4433011,-0.5462579,4.678849,1.153443,-1.996673,0.1747231,1.309494,0.530508,-0.7605178,0.06100964,7.851457,13.75616,-0.2002553,-0.1788071,0.592448,-0.1801682,-3.467883,-0.562609,0.2533078,1.458758,0.4279799,-0.1229431,0.3869563,-0.09943449,-1.206514,0.5802711,-0.05218917,0.4286777,1.494318,0.3150954,-0.1673786,1.320117,0.5717374,277.9882,357.3936,279.0975,True
4,0.9555568,-0.4135421,0.2808524,-0.6575814,4.685302,1.144571,-1.990718,0.1721848,1.310766,0.531297,-0.7573519,0.2896791,7.320952,12.53482,-0.2893754,-0.1630327,0.5068435,-0.1772057,-3.468035,-0.5560821,0.2498957,1.459082,0.4271865,-0.1305856,0.4754096,-0.1107781,-1.208548,0.5890579,-0.05358999,0.4263206,1.494143,0.3158944,-0.1716409,1.318869,0.5711258,278.036,349.6706,285.5755,True
4,0.9666679,-0.3957688,0.04937699,-0.7665079,4.696367,1.136737,-1.987271,0.1699601,1.312331,0.5323031,-0.7583756,-0.09601323,6.843502,11.0135,-0.3122948,-0.1949373,0.4174787,-0.1739763,-3.479057,-0.541101,0.246783,1.459343,0.4263532,-0.1500516,0.5841205,-0.132602,-1.211265,0.5994811,-0.05502464,0.423944,1.494011,0.3167179,-0.1758026,1.317528,0.5724342,278.3713,339.8839,294.6089,True
4,0.977779,-0.354768,-0.1180534,-0.854352,4.707323,1.128309,-1.984845,0.1677392,1.313709,0.5332091,-0.7586771,-0.0260752,6.57825,10.37069,-0.2954069,-0.2650951,0.3618389,-0.169556,-3.500255,-0.5175672,0.2436452,1.459857,0.4257207,-0.1833493,0.6715175,-0.1533011,-1.214094,0.610148,-0.05560308,0.4216064,1.493831,0.3174632,-0.1792062,1.316789,0.5756277,278.8634,332.7819,301.8277,True
4,0.9888902,-0.2614506,-0.3268672,-0.9409702,-1.561309,1.120717,-1.984947,0.1659065,1.315407,0.5340145,-0.761622,-0.2690746,6.525197,10.86351,-0.2159381,-0.2872908,0.4368456,-0.1610536,-3.496953,-0.5209463,0.2407068,1.460393,0.4246449,-0.2068241,0.7077099,-0.1540401,-1.216365,0.6193274,-0.05573783,0.4193625,1.493729,0.3181581,-0.1816209,1.317094,0.5803487,279.0484,328.027,307.4429,True
4,1.000001,-0.1833523,-0.4333784,-1.00663,-1.548464,1.112098,-1.985346,0.1642307,1.316788,0.5347733,-0.7631437,-0.1368458,6.710876,12.49196,-0.1606365,-0.2455637,0.4450267,-0.1558567,-3.487812,-0.5299933,0.2378534,1.460726,0.4236212,-0.2396468,0.7416776,-0.1269983,-1.217325,0.6290401,-0.05539508,0.4171357,1.493652,0.3186157,-0.1829036,1.318461,0.5860155,278.649,325.5412,311.2271,True
4,1.011112,-0.1609428,-0.4419513,-1.040683,-1.538877,1.10266,-1.983958,0.1624389,1.318036,0.5354612,-0.7657558,-0.2377563,7.082227,15.51318,-0.09858879,-0.2028162,0.5010891,-0.1493181,-3.468611,-0.5498371,0.2350856,1.461105,0.4223855,-0.26036,0.7339711,-0.06078819,-1.216253,0.6374483,-0.05482197,0.4149114,1.49353,0.318975,-0.1832825,1.320632,0.5921107,277.8649,325.6778,312.5895,True
4,1.022224,-0.1556755,-0.4176079,-1.094012,-1.529993,1.091536,-1.982091,0.1603673,1.319265,0.5362124,-0.7660477,-0.02517329,7.612731,20.16284,-0.1069064,-0.1826739,0.538479,-0.1423417,-3.450926,-0.5657912,0.2321813,1.461432,0.4213257,-0.2967904,0.6654455,0.02878839,-1.213289,0.6431,-0.05238438,0.4127003,1.493361,0.3192892,-0.1829904,1.323098,0.5980548,276.7723,327.0031,312.7881,True
4,1.033335,-0.1288809,-0.4708592,-1.114066,-1.518254,1.082557,-1.981123,0.1586454,1.320567,0.5368376,-0.7639698,0.1899131,8.328911,26.4624,-0.155528,-0.1935861,0.5846319,-0.1343101,-3.43541,-0.577735,0.2294847,1.461763,0.4201608,-0.3630448,0.5457863,0.1131188,-1.209602,0.6458467,-0.04731265,0.4105297,1.493246,0.3196466,-0.1825674,1.325393,0.6036106,275.7304,329.3978,311.7126,True
4,1.044446,-0.107434,-0.51557,-1.125623,-1.506523,1.073814,-1.980263,0.1568002,1.321852,0.5374424,-0.7631256,0.07551445,9.177716,34.34755,-0.2053791,-0.2566262,0.5827751,-0.1262072,-3.441952,-0.5672592,0.2267639,1.461917,0.4190714,-0.3788168,0.489247,0.1311707,-1.207824,0.649792,-0.04401806,0.408381,1.493112,0.320008,-0.1826459,1.327341,0.6087906,275.0335,331.4223,310.7605,True
4,1.055557,-0.08380251,-0.5794927,-1.147775,-1.49319,1.064993,-1.979538,0.1552705,1.323115,0.5379243,-0.7637792,-0.06041177,10.15915,43.28262,-0.234136,-0.2950538,0.5648142,-0.1191759,-3.450146,-0.5556193,0.2241541,1.461996,0.4179893,-0.3397627,0.458542,0.08703793,-1.2087,0.6541477,-0.04323616,0.4064087,1.492976,0.3203738,-0.183394,1.328862,0.6135933,274.5226,330.2324,312.8123,True
4,1.066668,-0.05163202,-0.6528466,-1.132599,-1.479777,1.058143,-1.979427,0.1537485,1.324387,0.5386226,-0.7638361,-0.005217938,11.06101,52.17485,-0.2559202,-0.2439422,0.5267091,-0.1148696,-3.436622,-0.5655766,0.2215001,1.462113,0.4169743,-0.2974449,0.478928,0.05583733,-1.209452,0.6604494,-0.04369155,0.4044318,1.492836,0.3207622,-0.184442,1.329816,0.6177366,274.0593,324.422,319.3442,True
4,1.077779,-0.01216486,-0.6759979,-1.076041,-1.468247,1.052361,-1.979956,0.1522813,1.325584,0.5391607,-0.7636199,0.01931588,11.85676,59.48147,-0.2279409,-0.1276381,0.479817,-0.1130496,-3.398981,-0.6013529,0.2189606,1.462317,0.416018,-0.2744608,0.5472792,0.01112772,-1.211252,0.6695621,-0.0447166,0.4025287,1.492749,0.3211594,-0.1856865,1.330182,0.6211691,273.7625,314.7926,329.5011,True
4,1.08889,0.02513098,-0.6905045,-0.9875616,-1.457656,1.04824,-1.980919,0.1509308,1.326536,0.5394909,-0.7633355,0.02502506,12.51989,64.88108,-0.1962335,-0.1434298,0.4380068,-0.1090287,-3.397075,-0.6021839,0.2163745,1.462501,0.4150364,-0.2716653,0.5548839,-0.03255473,-1.213391,0.6762847,-0.04400181,0.4006083,1.492617,0.3216059,-0.1869175,1.329969,0.623935,273.7149,302.0042,342.5872,True
4,1.100002,0.03576733,-0.6913489,-0.9257586,-1.447258,1.0438,-1.981022,0.1495095,1.327587,0.5399089,-0.762765,0.05070689,13.0504,68.3094,-0.2509824,-0.1435609,0.3819582,-0.1056002,-3.401454,-0.5931962,0.2141516,1.462633,0.4142597,-0.2484607,0.518793,-0.06272011,-1.215323,0.6809029,-0.04363137,0.3986538,1.492499,0.3220477,-0.1881403,1.329276,0.6261941,273.9778,290.2664,354.4806,True
4,1.111113,0.03465958,-0.6836331,-0.842683,-1.437831,1.040661,-1.98088,0.1481241,1.328433,0.5400229,-0.7614542,0.1180215,13.44828,69.55218,-0.2477822,-0.118007,0.3958219,-0.1012912,-3.378036,-0.6137556,0.2119137,1.462685,0.4136147,-0.2072394,0.4625097,-0.1048305,-1.218168,0.6839586,-0.04384708,0.3967224,1.492357,0.3224206,-0.1893293,1.328208,0.6280325,274.4209,282.5869,2.31167,True
4,1.122224,0.02612857,-0.6866548,-0.7830186,-1.42801,1.037698,-1.980401,0.1466215,1.329081,0.5401874,-0.7585253,0.2648492,13.66048,69.50932,-0.2007817,-0.1008235,0.4210687,-0.09638353,-3.349445,-0.6415004,0.2096583,1.462474,0.4128881,-0.1816404,0.4476162,-0.102982,-1.21949,0.6888362,-0.04435921,0.3947536,1.492241,0.3227136,-0.1905144,1.326829,0.6294856,274.9284,277.3773,7.686511,True
4,1.133335,0.006806806,-0.6490648,-0.6755451,-1.42135,1.037011,-1.979571,0.1451815,1.329334,0.5401289,-0.7555329,0.2693544,13.60743,68.48083,-0.1750036,-0.0664791,0.3239835,-0.09624345,-3.344095,-0.6457596,0.2077555,1.462204,0.4122891,-0.1793872,0.4486302,-0.0891453,-1.220092,0.6942044,-0.04427239,0.3926759,1.492069,0.3230669,-0.1918402,1.325299,0.630725,275.5432,273.3669,11.80737,True
4,1.144446,-0.009443983,-0.5730848,-0.5543494,-1.417209,1.036756,-1.978728,0.1438188,1.329414,0.5398924,-0.752212,0.2990624,13.34218,66.53096,-0.1530337,-0.1237898,0.2406392,-0.09430946,-3.371238,-0.6176677,0.2060765,1.46205,0.4119058,-0.1413556,0.4100409,-0.008654161,-1.217537,0.6979726,-0.04509717,0.3908138,1.491728,0.3232546,-0.1932514,1.323731,0.6317714,276.154,270.3245,14.95893,True
4,1.155557,-0.007833328,-0.410705,-0.4174621,-1.418177,1.036478,-1.978649,0.1420272,1.328986,0.5394309,-0.7480878,0.3718261,12.91777,64.2597,-0.1241604,-0.2003427,0.2168614,-0.09004041,-3.403331,-0.5852355,0.2042315,1.461841,0.4113944,-0.09097558,0.3801541,0.02275017,-1.216402,0.7015292,-0.04714035,0.3888396,1.491465,0.3235292,-0.1947346,1.32218,0.6326616,276.6798,267.8366,17.55129,True
4,1.166668,0.006653266,-0.2708515,-0.3412168,-1.418809,1.034674,-1.979063,0.1402077,1.328732,0.5390043,-0.7439439,0.3725531,12.38727,63.12407,-0.09639496,-0.291796,0.1792242,-0.08588588,-3.460186,-0.5285041,0.2024975,1.461515,0.4111094,0.004587442,0.3952656,-0.01106796,-1.21793,0.7066067,-0.05223418,0.3871188,1.491094,0.3237894,-0.1961741,1.320654,0.6332445,277.0497,267.2749,18.27292,True
4,1.17778,0.007501105,-0.2014724,-0.3009629,-1.417622,1.032697,-1.978867,0.1384096,1.328646,0.5387022,-0.7400429,0.349955,11.88329,62.58839,-0.09120241,-0.3651882,0.1236726,-0.08313217,-3.527042,-0.4610212,0.2006171,1.461207,0.4106951,0.01916224,0.4284287,-0.04517338,-1.219957,0.712998,-0.05494368,0.3853688,1.490834,0.3240697,-0.1976463,1.319166,0.6334464,277.2636,268.2395,17.48713,True
4,1.188891,0.01254544,-0.1160425,-0.2405179,-1.41836,1.031561,-1.978799,0.1366142,1.328333,0.5382512,-0.7353941,0.4178934,11.43236,62.45982,-0.08953705,-0.3352771,0.07683621,-0.08252284,-3.55839,-0.4287173,0.1986441,1.460971,0.4103432,0.01029597,0.4210956,-0.08453589,-1.222444,0.7175773,-0.05619882,0.3837369,1.490485,0.3242908,-0.1993862,1.317679,0.6333415,277.3095,270.2408,15.60004,True
4,1.200002,0.04963094,-0.05922794,-0.1682543,-1.4197,1.031559,-1.980438,0.1349812,1.327844,0.5377219,-0.7287256,0.6014521,11.03448,62.45982,-0.07302645,-0.2786829,0.03419206,-0.0828323,-3.576823,-0.4100802,0.1966892,1.460606,0.4099331,0.007994056,0.3455541,-0.1114144,-1.224657,0.7188008,-0.0565674,0.3820936,1.490179,0.3244472,-0.2014068,1.316065,0.6331022,277.4058,271.0494,14.70583,True
4,1.211113,0.06873508,-0.03882088,-0.1320939,-1.419558,1.031296,-1.981718,0.1331479,1.327548,0.537195,-0.7218184,0.6212401,10.79576,61.81701,-0.09248667,-0.2574045,0.007746622,-0.08257025,-3.604641,-0.3805948,0.1947992,1.460176,0.4095464,0.004609615,0.2817285,-0.1393004,-1.227054,0.7197705,-0.05686994,0.3805606,1.489832,0.3245931,-0.2035632,1.314226,0.6329213,277.6391,270.9671,14.56568,True
4,1.222224,0.09523143,0.004013434,-0.08854886,-1.421182,1.031267,-1.983743,0.1314706,1.326983,0.5365903,-0.7157762,0.5416352,10.76923,61.10992,-0.1393123,-0.2160905,0.03586827,-0.08077954,-3.610782,-0.3712945,0.1929472,1.459738,0.4089904,-0.003005706,0.2562226,-0.1606172,-1.229525,0.7217316,-0.05737168,0.3788759,1.489552,0.3247454,-0.2056139,1.312084,0.6328225,277.874,272.0005,13.38816,True
4,1.233335,0.1036881,0.02436019,-0.06411129,-1.422031,1.031002,-1.985077,0.1296072,1.326389,0.5360744,-0.7073404,0.7606959,10.92838,60.53139,-0.2002861,-0.1449464,0.04070465,-0.08027513,-3.59961,-0.3779465,0.19105,1.459401,0.408658,-0.01894005,0.2434203,-0.1562576,-1.231274,0.7242191,-0.05737408,0.3772207,1.489339,0.3248818,-0.2074285,1.309475,0.632724,278.0793,273.6538,11.75943,True
4,1.244446,0.1260623,0.01600248,-0.03530696,-1.422222,1.031658,-1.987125,0.1277505,1.325829,0.5356395,-0.6990031,0.7491772,11.29973,60.03857,-0.1943647,-0.07031408,0.01521749,-0.08157262,-3.582839,-0.3927555,0.1892083,1.459181,0.4082198,-0.01562715,0.2401809,-0.1435125,-1.232553,0.7268783,-0.05822309,0.3755095,1.489054,0.3249991,-0.2091694,1.306317,0.6326699,278.4273,275.3152,10.2008,True
4,1.255558,0.1676391,0.002394781,0.002037179,-1.422213,1.033041,-1.990531,0.1259834,1.325291,0.5351031,-0.6888229,0.9176282,11.83024,59.8243,-0.1348882,-0.04769334,0.003087454,-0.08209514,-3.582223,-0.3940416,0.1873598,1.458993,0.4078457,0.005873956,0.2571677,-0.1202147,-1.233405,0.730575,-0.06025748,0.3737226,1.488868,0.325048,-0.2108498,1.302565,0.6326554,278.874,277.416,8.199937,True
4,1.266669,0.1878959,-0.004923664,0.02551244,-1.42244,1.034276,-1.99349,0.1242336,1.324702,0.5346768,-0.6791098,0.8729379,12.38727,60.31712,-0.1190889,-0.05398613,-0.02367663,-0.08282218,-3.600564,-0.3749062,0.1855749,1.458581,0.4075322,0.02098752,0.2645522,-0.0979412,-1.233814,0.7338114,-0.06219919,0.3717946,1.48863,0.3251395,-0.2126364,1.298256,0.6327577,279.5023,279.4836,6.226236,True
4,1.27778,0.2039329,-0.02615118,0.03730559,-1.421711,1.035453,-1.996383,0.1225027,1.3241,0.534066,-0.6696236,0.8523561,12.86472,60.78851,-0.114999,-0.07309797,-0.05569941,-0.08377293,-3.623149,-0.351084,0.1836966,1.458023,0.4072278,0.0362383,0.2718937,-0.05970791,-1.233484,0.7373387,-0.06428551,0.3699456,1.488321,0.3252022,-0.2144547,1.29345,0.6328819,280.2877,281.272,4.551316,True
4,1.288891,0.1975684,-0.03477179,0.01390469,-1.420891,1.035251,-1.998282,0.1208984,1.323396,0.5335529,-0.6579931,1.048193,13.2626,61.02421,-0.160136,-0.06573127,-0.1043563,-0.08621825,-3.640495,-0.3304871,0.1818192,1.457507,0.406961,0.03753582,0.2813861,-0.03304724,-1.233091,0.7409836,-0.06600805,0.368031,1.488075,0.3251724,-0.216179,1.288171,0.6328793,281.1457,282.8689,3.070689,True
4,1.300002,0.1858288,-0.03058095,0.004308192,-1.420677,1.035189,-1.999719,0.1193352,1.322798,0.5330522,-0.6461292,1.067579,13.55437,60.83137,-0.1423632,-0.03366667,-0.1331895,-0.08850217,-3.641893,-0.3280634,0.1800856,1.457116,0.4067345,0.04309717,0.2717159,-0.007563822,-1.232611,0.7438579,-0.06757399,0.3662449,1.487856,0.3252583,-0.2178355,1.282495,0.6327368,282.0989,284.3472,1.671894,True
4,1.311113,0.1816026,-0.04232419,0.002217909,-1.419849,1.035591,-2.001681,0.1176951,1.322167,0.5325837,-0.6332885,1.156726,13.71353,59.76002,-0.08550911,-0.0793096,-0.1038597,-0.08799883,-3.667743,-0.3032129,0.1782809,1.456718,0.4064472,0.08569512,0.230232,-0.01341822,-1.233167,0.7452047,-0.07033755,0.3643997,1.487533,0.3251867,-0.2194072,1.276534,0.6324578,283.134,285.3529,0.6832686,True
4,1.322224,0.1816106,-0.04446624,-0.0009650141,-1.419338,1.035822,-2.003745,0.1161059,1.321604,0.5322542,-0.6204707,1.153769,13.687,57.89586,-0.09806371,-0.118792,-0.09317663,-0.08786621,-3.699086,-0.2704637,0.1765241,1.456228,0.4061174,0.1122348,0.198343,-0.02761238,-1.23403,0.7463111,-0.07288726,0.3626996,1.48725,0.3251779,-0.2208891,1.270465,0.6321973,284.2569,286.158,359.7834,True
4,1.333336,0.1475611,-0.05635692,-0.02117184,-1.418041,1.03548,-2.00426,0.114423,1.321164,0.5320017,-0.6084332,1.082363,13.52785,55.51746,-0.09185416,-0.05805851,-0.08673482,-0.08906623,-3.686779,-0.281739,0.1747543,1.455836,0.4059167,0.1139461,0.1814743,-0.07669723,-1.236783,0.7477667,-0.07461219,0.3608817,1.486994,0.3250365,-0.2222609,1.264511,0.6320564,285.4089,287.0287,358.8465,True
4,1.344447,0.1284248,-0.07135566,-0.02963766,-1.416741,1.035635,-2.005003,0.1128621,1.32077,0.5317459,-0.5959483,1.123789,13.18302,52.62481,-0.03556409,-0.005659811,-0.08280146,-0.09021991,-3.670207,-0.2997244,0.1729382,1.455411,0.4056687,0.09358218,0.1825696,-0.09036187,-1.238427,0.7498281,-0.07556506,0.3590959,1.486771,0.3249433,-0.2229032,1.261059,0.6322399,285.7819,286.8853,359.1634,True
4,1.355558,0.0975059,-0.06187111,-0.0339359,-1.416229,1.035349,-2.005124,0.1112219,1.320179,0.5315466,-0.5816706,1.287135,12.7321,49.53931,-0.01639803,0.0008013472,-0.08080375,-0.09108756,-3.671298,-0.2990999,0.1711333,1.454923,0.4054005,0.09705415,0.1419884,-0.0628357,-1.238095,0.7499682,-0.07670117,0.3575086,1.486581,0.3248045,-0.2230006,1.259682,0.6326457,285.399,288.2517,357.9861,True
4,1.366669,0.05905613,-0.02790384,-0.03618387,-1.416738,1.034705,-2.004478,0.1096153,1.319593,0.5314202,-0.5688667,1.151174,12.28117,46.90379,-0.008823276,-0.008774094,-0.07022323,-0.09135974,-3.679241,-0.291251,0.1693264,1.454356,0.4053297,0.1252037,0.100298,-0.01635299,-1.23675,0.749751,-0.07899069,0.3556063,1.486315,0.3246441,-0.22291,1.258809,0.6331165,284.9811,290.3392,356.1642,True
4,1.37778,0.03977619,0.00822632,-0.04589617,-1.417569,1.033429,-2.004148,0.1080286,1.319147,0.5312047,-0.5555812,1.196522,11.93634,44.69681,0.00416196,-0.04283438,-0.06079178,-0.09127079,-3.697582,-0.2734558,0.1676143,1.453918,0.4052052,0.1319284,0.08207434,0.01974388,-1.235446,0.7503664,-0.08078086,0.3537992,1.486161,0.3245399,-0.2228848,1.258037,0.633676,284.5389,291.9871,354.7574,True
4,1.388891,0.01201253,0.03047568,-0.05768688,-1.418207,1.032111,-2.003117,0.1064198,1.31901,0.5311148,-0.5420913,1.214748,11.77719,42.87551,0.03188271,-0.05550806,-0.06421542,-0.09183698,-3.710726,-0.2615807,0.1660734,1.453645,0.4051256,0.1238979,0.06164509,0.07300708,-1.233004,0.750707,-0.0819223,0.351901,1.486037,0.3244314,-0.2229786,1.257245,0.6343428,284.1078,293.4238,353.5942,True
4,1.400002,0.005621077,0.03148725,-0.06727999,-1.417968,1.031082,-2.002906,0.1048698,1.318899,0.5310581,-0.5297267,1.111724,11.72414,41.41847,0.06637341,-0.1140089,-0.04006658,-0.09082019,-3.742365,-0.2318721,0.1645249,1.453439,0.4050522,0.134399,0.0617136,0.05587368,-1.232965,0.751434,-0.08400622,0.3500625,1.485842,0.324316,-0.2231912,1.256473,0.6351646,283.715,294.9684,352.3669,True
4,1.411114,-0.008214613,0.02712931,-0.08005091,-1.417395,1.029936,-2.002179,0.1032935,1.318835,0.5310678,-0.5164967,1.191919,11.85676,40.09,0.07325199,-0.1502822,0.006696403,-0.08875251,-3.769753,-0.2056389,0.1628917,1.453189,0.4049838,0.1585357,0.08744416,0.01739255,-1.234231,0.7534143,-0.08719562,0.3482266,1.485653,0.3243308,-0.2234926,1.255752,0.6361274,283.3484,296.5567,351.119,True
4,1.422225,-0.02316219,0.03879163,-0.08328585,-1.417732,1.028706,-2.001244,0.1017636,1.318588,0.5310776,-0.5047042,1.059779,12.14854,38.80437,0.05829306,-0.1205313,0.01538193,-0.08822253,-3.772773,-0.2027318,0.1612414,1.452739,0.4048209,0.1742633,0.1099142,-0.008241385,-1.235312,0.7552899,-0.09014986,0.3464571,1.4855,0.3242905,-0.2238972,1.255128,0.6372243,283.0391,297.9357,350.0749,True
4,1.433336,-0.05838082,0.05991784,-0.1014761,-1.418104,1.026587,-1.998991,0.1000758,1.318547,0.531106,-0.4918672,1.156504,12.54642,37.88301,0.08675703,-0.03733709,0.01743009,-0.08858952,-3.745568,-0.2317387,0.1595902,1.452479,0.4047322,0.1806712,0.1056577,-0.007249758,-1.235493,0.7564102,-0.09277201,0.3446552,1.485367,0.32424,-0.2243352,1.254516,0.6383883,282.6797,298.9697,349.3708,True
4,1.444447,-0.08506732,0.07686279,-0.1089988,-1.418861,1.024582,-1.996732,0.09848097,1.318282,0.5312142,-0.4792582,1.134808,12.99735,37.34733,0.08363316,-0.05333441,0.0195603,-0.08807606,-3.758511,-0.2196639,0.1578956,1.452251,0.4046431,0.1864808,0.07885459,0.04480628,-1.233239,0.7566285,-0.09500055,0.3429501,1.485245,0.3242435,-0.2248047,1.253891,0.6396343,282.2841,299.8685,348.8109,True
4,1.455558,-0.09677716,0.07569477,-0.1292371,-1.418775,1.022356,-1.994963,0.09691083,1.318346,0.5314231,-0.465936,1.200477,13.52785,37.21877,0.03916933,-0.06846875,0.04969262,-0.08620386,-3.771159,-0.2058432,0.1562362,1.451987,0.4046223,0.1953123,0.05531853,0.07660273,-1.231336,0.7566551,-0.09751963,0.3412094,1.48517,0.324224,-0.2253178,1.253259,0.6409702,281.8834,300.9426,348.1177,True
4,1.466669,-0.09141162,0.06608915,-0.1419884,-1.418404,1.020316,-1.993992,0.09546438,1.318274,0.5316744,-0.4539102,1.081585,13.92573,37.47589,0.04414963,-0.03005712,0.02308575,-0.08702625,-3.762331,-0.2151951,0.1546367,1.451764,0.4046412,0.1719876,0.05844918,0.08960524,-1.229998,0.7575636,-0.09902032,0.3394815,1.485121,0.32426,-0.2259379,1.252701,0.6424509,281.5698,302.0132,347.4467,True
4,1.47778,-0.08174704,0.0405412,-0.1450951,-1.417328,1.018939,-1.993261,0.09396434,1.318333,0.5318549,-0.4428528,0.9943492,14.2175,37.75444,0.05356009,-0.01508441,0.007054356,-0.08768245,-3.760045,-0.2184285,0.1530482,1.451655,0.4047399,0.1496111,0.07653539,0.09093226,-1.22909,0.7591944,-0.1004819,0.3377498,1.485053,0.3242815,-0.2266104,1.252198,0.6440431,281.2751,302.9767,346.882,True
4,1.488891,-0.07741052,0.01607091,-0.1396796,-1.41625,1.018088,-1.992491,0.09255895,1.31837,0.5321789,-0.4322822,0.9506071,14.40318,37.92586,0.05047444,-0.0279064,0.01557824,-0.08700867,-3.769984,-0.2090664,0.1515768,1.451453,0.4048295,0.1559028,0.09149644,0.08240562,-1.228797,0.7611534,-0.1028446,0.3360382,1.485087,0.3243949,-0.2272915,1.251736,0.6457214,280.9545,303.6129,346.6071,True
4,1.500003,-0.07414172,-0.008433372,-0.1417256,-1.414689,1.016997,-1.99158,0.09108046,1.318442,0.5324233,-0.4212295,0.9950792,14.42971,38.01157,0.04510653,-0.0311131,0.009221545,-0.08699588,-3.77585,-0.2034205,0.150037,1.451336,0.4047883,0.178168,0.1064683,0.07160302,-1.228629,0.7630128,-0.1063003,0.3343551,1.48495,0.3243861,-0.2279226,1.251233,0.6474195,280.5369,304.1761,346.3962,True
4,1.511114,-0.06874133,-0.0339629,-0.1352455,-1.41302,1.016333,-1.990891,0.08961448,1.318585,0.5326698,-0.4101044,1.001543,14.40318,37.92586,0.07396211,-0.01825552,0.02819887,-0.08618841,-3.770678,-0.2103828,0.1486978,1.451298,0.4048383,0.202761,0.123494,0.08422683,-1.22748,0.7652504,-0.110168,0.3325322,1.484838,0.3244765,-0.2285365,1.250828,0.6490772,279.7455,302.0399,348.9534,True
4,1.522225,-0.07933352,-0.05630147,-0.1159921,-1.411618,1.016398,-1.989619,0.08817598,1.318673,0.5328574,-0.3992441,0.9774778,14.29708,37.36876,0.05387029,-0.05456067,0.03041832,-0.08536337,-3.79154,-0.189498,0.1472367,1.451047,0.4047661,0.2061227,0.1276949,0.1033881,-1.225772,0.7671525,-0.1131282,0.3310143,1.48478,0.3244865,-0.229108,1.250452,0.6510691,279.0784,300.5693,350.5433,True
4,1.533336,-0.08889184,-0.06695429,-0.1063696,-1.410229,1.01607,-1.988218,0.08669043,1.318775,0.5330703,-0.3890223,0.9196764,14.13793,36.40454,0.01735936,-0.04079632,-0.001247713,-0.08644141,-3.794739,-0.1852215,0.1458752,1.451014,0.4049156,0.2039887,0.1159868,0.1012318,-1.224907,0.7683472,-0.1158315,0.3294998,1.484776,0.3245234,-0.2297889,1.250082,0.6529116,278.4781,297.1176,354.355,True
4,1.544447,-0.07817474,-0.0923598,-0.0679299,-1.408748,1.017258,-1.987861,0.08514297,1.318808,0.5333266,-0.3783239,0.9639325,13.8992,35.03321,0.03224332,-0.01093817,0.01040531,-0.08615433,-3.783683,-0.197079,0.1445183,1.450876,0.4049978,0.1848906,0.07652928,0.1065933,-1.223498,0.7678466,-0.1169844,0.3281444,1.4847,0.3246014,-0.2305037,1.249728,0.654748,277.9753,292.6151,359.3753,True
4,1.555558,-0.06538536,-0.0975161,-0.02742769,-1.408,1.018761,-1.987831,0.0836353,1.318699,0.5334537,-0.3684894,0.8847485,13.60743,33.38333,0.03983878,-0.02264991,0.02311154,-0.0853671,-3.788762,-0.1928134,0.1432781,1.450606,0.4050841,0.1795555,0.03926305,0.1011797,-1.222545,0.7671958,-0.1186068,0.3267982,1.484582,0.3246574,-0.2311112,1.249524,0.6565648,277.5897,288.0242,4.674483,True
4,1.566669,-0.07499569,-0.09426996,-0.0050686,-1.4075,1.019708,-1.986704,0.08218631,1.318652,0.5335438,-0.3598442,0.7768619,13.28912,31.84058,0.004574727,-0.01638275,0.01166221,-0.0856398,-3.793314,-0.1870828,0.1419544,1.450479,0.4051478,0.1899967,0.02550671,0.07547627,-1.222485,0.7671407,-0.1211602,0.3254025,1.484436,0.3247509,-0.2318488,1.249406,0.6585267,277.5074,283.8963,9.611827,True
4,1.577781,-0.08356136,-0.08042686,0.002340905,-1.407169,1.020091,-1.985481,0.0805926,1.318513,0.5336385,-0.3510472,0.7919013,13.02387,30.44783,0.01089352,0.002816765,0.01164642,-0.08565046,-3.784817,-0.1958973,0.1405804,1.450351,0.4052191,0.1888444,0.04471461,0.06702401,-1.222267,0.7684217,-0.1237198,0.3241061,1.484365,0.3249297,-0.2324292,1.249319,0.6603938,277.5723,278.6184,16.10663,True
4,1.588892,-0.08460353,-0.09103642,0.01409948,-1.406261,1.021125,-1.984625,0.07915494,1.318406,0.5336983,-0.3411882,0.8888968,12.83819,29.22648,-0.01266866,0.02082686,0.004389742,-0.0860249,-3.779025,-0.2008087,0.1391859,1.450032,0.4051414,0.1750668,0.07129473,0.077898,-1.221122,0.7704226,-0.1258661,0.3228101,1.484236,0.3251133,-0.2328742,1.249427,0.6622933,277.6912,273.1464,22.94485,True
4,1.600003,-0.08139923,-0.09734546,0.03437129,-1.405598,1.022733,-1.984046,0.0777438,1.318413,0.5338495,-0.3325005,0.7812316,12.70557,28.15513,-0.07358982,0.04617605,-0.008975456,-0.08698203,-3.767201,-0.209635,0.1379159,1.449521,0.4056792,0.1644736,0.0627476,0.0832848,-1.220138,0.7710487,-0.1275856,0.3215452,1.484192,0.3253329,-0.2331378,1.249508,0.6627621,277.9562,273.8566,22.40996,True
4,1.611114,-0.07603907,-0.1110677,0.06744467,-1.404813,1.025187,-1.983842,0.07619271,1.31822,0.5338304,-0.3244492,0.7242252,12.62599,27.23377,-0.1068142,0.0567373,-0.03002092,-0.08825609,-3.759552,-0.2148931,0.1366267,1.449181,0.405879,0.1528496,0.001999442,0.08744762,-1.218625,0.7688706,-0.12817,0.3202939,1.483857,0.325547,-0.233672,1.249469,0.6628479,278.2608,273.1048,22.92931,True
4,1.622225,-0.0791937,-0.1248844,0.08028152,-1.403694,1.027205,-1.983239,0.07465997,1.31808,0.5338264,-0.3166472,0.7020945,12.65252,26.4624,-0.1056958,0.04183125,-0.03112344,-0.08864491,-3.761274,-0.2122595,0.1353126,1.448866,0.4060574,0.1528503,-0.05976138,0.0808392,-1.217698,0.7660824,-0.1290054,0.3190276,1.483583,0.3256834,-0.2343101,1.249683,0.6643224,278.7151,263.8203,33.68455,True
4,1.633336,-0.08338345,-0.1504205,0.09528066,-1.401906,1.029677,-1.982573,0.07305321,1.317777,0.5338316,-0.3091397,0.6754469,12.67905,25.60531,-0.1036505,0.06953549,-0.02789926,-0.08913707,-3.744915,-0.2273703,0.1340094,1.448505,0.4061284,0.1506231,-0.03310169,0.07242443,-1.217328,0.7666696,-0.1308267,0.3178078,1.483217,0.3258536,-0.2347116,1.249742,0.6647129,279.1284,263.843,33.92331,True
4,1.644447,-0.07904264,-0.1811402,0.1433252,-1.400415,1.033815,-1.982544,0.07139483,1.317481,0.5338743,-0.30131,0.705294,12.70557,24.55539,-0.09205557,0.1196299,-0.01723419,-0.08950032,-3.711054,-0.2603005,0.1327829,1.448099,0.4063125,0.1420454,0.03719291,0.0738155,-1.216722,0.769919,-0.1331517,0.3165528,1.483017,0.3259799,-0.2351281,1.249709,0.6646265,279.6245,262.0377,35.90998,True
4,1.655559,-0.08437225,-0.1831486,0.1848789,-1.399881,1.037887,-1.982132,0.06977305,1.317091,0.5338793,-0.2938324,0.6729706,12.7321,23.35547,-0.1015768,0.1557693,0.01059168,-0.08933946,-3.675256,-0.2944644,0.1316461,1.447563,0.4063952,0.1410652,0.1415265,0.09335539,-1.215814,0.7757131,-0.1367094,0.3155256,1.482749,0.3261456,-0.2357339,1.249717,0.6643913,280.2901,259.7067,38.36455,True
4,1.66667,-0.09936093,-0.1607279,0.2103662,-1.400344,1.041191,-1.981074,0.06824616,1.31665,0.5336766,-0.2870653,0.608485,12.65252,21.89844,-0.1527177,0.07575107,-0.02962536,-0.09015173,-3.699316,-0.2669558,0.1306823,1.446959,0.4067094,0.1627262,0.099874,0.1292462,-1.213192,0.7757317,-0.1391829,0.3144076,1.482559,0.3262961,-0.2365707,1.249968,0.6658334,281.343,251.8242,47.80321,True
4,1.677781,-0.1089706,-0.1543749,0.2071539,-1.399812,1.043782,-1.979987,0.06684229,1.316274,0.5335326,-0.2799025,0.6453684,12.49337,20.22713,-0.161319,0.03741702,-0.05945538,-0.0915909,-3.71429,-0.2499222,0.1296021,1.44644,0.4068663,0.1586038,0.04444675,0.138675,-1.21127,0.7745782,-0.1405039,0.3132803,1.482258,0.3264832,-0.2372146,1.250035,0.6659759,282.1145,251.2816,48.70069,True
4,1.688892,-0.09946576,-0.1276606,0.223046,-1.400485,1.046789,-1.979683,0.06531104,1.315857,0.533299,-0.272803,0.6394233,12.30769,18.3844,-0.1400264,-0.008260578,-0.08418833,-0.09290065,-3.733544,-0.2299964,0.1284152,1.446334,0.4069128,0.1255352,0.01035431,0.1313967,-1.209902,0.7736274,-0.1403084,0.3122705,1.481962,0.3267469,-0.238376,1.250103,0.66767,283.6406,246.3884,55.16977,True
4,1.700003,-0.08670492,-0.1201026,0.243268,-1.400765,1.05045,-1.979873,0.06367847,1.315361,0.5331712,-0.2665569,0.5616506,12.09549,16.41311,-0.1313497,-0.06998856,-0.09392811,-0.09349559,-3.763933,-0.1984787,0.1271443,1.446142,0.407104,0.1019832,0.04020198,0.1210525,-1.209257,0.7754651,-0.1412972,0.3112547,1.481643,0.3269763,-0.2389102,1.250252,0.6672948,284.4302,245.3995,56.39577,True
4,1.711114,-0.04296782,-0.143276,0.2838399,-1.400355,1.055702,-1.981696,0.06199935,1.315023,0.5328825,-0.2611853,0.4825105,11.88329,14.37754,-0.1716862,-0.06059058,-0.06910918,-0.09332675,-3.767406,-0.1917361,0.1258969,1.445687,0.4069772,0.08462431,0.103135,0.09266248,-1.209655,0.7790956,-0.142902,0.3103428,1.481238,0.327405,-0.2409249,1.25013,0.6683319,286.6743,243.4728,59.18806,True
4,1.722225,-0.02803424,-0.1506979,0.2817321,-1.399732,1.059277,-1.982414,0.06034181,1.314822,0.5325663,-0.2557737,0.4869411,11.72414,12.51339,-0.2125157,0.01810002,-0.07398865,-0.09473024,-3.737872,-0.2172258,0.1245488,1.445294,0.4068682,0.06289821,0.1597246,0.05149997,-1.210961,0.7829218,-0.1442858,0.309266,1.480996,0.3277459,-0.2421702,1.249973,0.6683438,288.1211,243.8378,59.19907,True
4,1.733337,0.0137052,-0.2145455,0.2670437,-1.396346,1.063541,-1.984798,0.05868182,1.314468,0.5321341,-0.2514658,0.3861028,11.67109,11.14206,-0.2517127,0.06686886,-0.01928564,-0.09386684,-3.709488,-0.2414092,0.1234146,1.444735,0.4065547,0.04672128,0.1736346,0.03038123,-1.211719,0.7853985,-0.145191,0.308334,1.48068,0.328037,-0.2425374,1.250149,0.6691409,289.2631,238.9781,65.39404,True
4,1.744448,0.02861274,-0.2134333,0.2670501,-1.395459,1.067387,-1.986211,0.05715942,1.313993,0.5317471,-0.2452372,0.5626809,11.69761,10.34926,-0.2695242,0.03268635,0.003169354,-0.09281116,-3.714102,-0.2332855,0.1223845,1.444237,0.406404,0.06798215,0.1449138,0.0226355,-1.211766,0.7860168,-0.1468611,0.3073237,1.480438,0.3283689,-0.2432065,1.250266,0.668716,290.2566,238.6162,66.08294,True
4,1.755559,0.02322208,-0.1931783,0.2755007,-1.395584,1.071099,-1.986824,0.05564609,1.313396,0.5313349,-0.2414022,0.3424725,11.83024,10.07071,-0.2580819,0.02746838,-0.03634362,-0.09453157,-3.717909,-0.2269394,0.1212802,1.443756,0.4063537,0.0753693,0.1417576,0.01403342,-1.212116,0.7876118,-0.1486084,0.3063475,1.480134,0.3286295,-0.245152,1.250132,0.6691609,292.3365,238.1214,67.02384,True
4,1.76667,0.008142151,-0.1388249,0.2955554,-1.397544,1.074693,-1.986979,0.05410263,1.312664,0.5308883,-0.2356605,0.5190682,12.04244,10.28498,-0.2170484,0.0468955,-0.0952085,-0.09792976,-3.713046,-0.2307901,0.1200669,1.44351,0.4063587,0.04106705,0.1907945,-0.004658353,-1.213298,0.7917222,-0.1492132,0.3054436,1.47988,0.3289485,-0.2460015,1.250044,0.6682682,293.5709,237.4856,67.76666,True
4,1.777781,-0.01756385,-0.09407179,0.3220317,-1.399767,1.078692,-1.986559,0.05263743,1.311886,0.5303066,-0.2300694,0.5036556,12.28117,10.90636,-0.2109126,-0.009443164,-0.1592657,-0.1011724,-3.740535,-0.2013765,0.119001,1.443167,0.406352,0.005936354,0.241875,0.003289461,-1.213576,0.7964065,-0.1497924,0.3045709,1.479652,0.329298,-0.2473482,1.249876,0.6685275,295.4321,236.2239,69.77279,True
4,1.788892,-0.01976969,-0.06948902,0.3475156,-1.401592,1.083086,-1.987044,0.05111423,1.31122,0.5297892,-0.2252965,0.4295715,12.51989,11.61346,-0.2013155,-0.04560056,-0.1764393,-0.1032603,-3.762624,-0.1773801,0.1180463,1.442811,0.4063587,0.03273907,0.2301182,0.02112102,-1.213049,0.7988967,-0.1518681,0.3037355,1.47941,0.3297112,-0.2483234,1.24978,0.6682931,296.6918,236.6314,69.78181,True
4,1.800003,-0.01122071,-0.07795599,0.3560608,-1.402169,1.087419,-1.988034,0.04961804,1.310754,0.5291526,-0.2207713,0.4078381,12.75862,12.29912,-0.193511,-0.1073854,-0.1616797,-0.103785,-3.795699,-0.1426336,0.1171334,1.442412,0.4062309,0.0838763,0.2152493,0.01955342,-1.213129,0.8007687,-0.1553459,0.3028809,1.479103,0.3302259,-0.2490336,1.249753,0.6683568,298.0287,235.2337,71.98567,True
4,1.811115,0.03047033,-0.1278362,0.3754161,-1.401228,1.093271,-1.990876,0.04811236,1.310324,0.5284669,-0.218261,0.2243111,12.9443,12.87765,-0.2572076,-0.09171405,-0.1238945,-0.1038223,-3.802329,-0.1310741,0.1162793,1.442065,0.4060171,0.08465362,0.2558332,-0.009080805,-1.214834,0.8050124,-0.1578269,0.3021108,1.478878,0.3306463,-0.249931,1.249623,0.6679376,299.1758,235.4539,71.99183,True
4,1.822226,0.02942465,-0.1384515,0.3882399,-1.401453,1.098522,-1.991902,0.04664901,1.309898,0.5277781,-0.2160175,0.2017537,13.07692,13.00621,-0.2818455,-0.05132994,-0.1225845,-0.1053712,-3.796261,-0.1333123,0.1151894,1.441806,0.4058621,0.06305832,0.2985223,-0.03749709,-1.21681,0.8098375,-0.1593601,0.3012981,1.478709,0.3309934,-0.2512159,1.249448,0.6681107,301.0529,235.1437,73.25243,True
4,1.833337,0.02193078,-0.1277612,0.4073782,-1.402737,1.103692,-1.992607,0.0452188,1.309381,0.5270717,-0.2151014,0.08061404,13.18302,12.8348,-0.2989951,-0.0002820492,-0.1106549,-0.106454,-3.781665,-0.143954,0.1142542,1.441622,0.4056504,0.03187808,0.3071318,-0.06915374,-1.219308,0.8135654,-0.1599372,0.300651,1.478581,0.3313208,-0.2517787,1.249385,0.6671737,302.032,234.6663,73.84264,True
4,1.844448,0.02515537,-0.1362477,0.4148746,-1.403158,1.109107,-1.994037,0.0437175,1.308803,0.5265195,-0.2112739,0.3479889,13.23607,12.3634,-0.2958376,-0.001327515,-0.1170764,-0.108021,-3.785493,-0.1371339,0.1133407,1.44132,0.4054971,0.02864351,0.2687991,-0.07671334,-1.220559,0.814898,-0.1605745,0.2999453,1.478423,0.3316669,-0.2528566,1.249169,0.666916,303.7107,234.2922,74.94347,True
4,1.855559,0.03801009,-0.1606974,0.4202869,-1.402641,1.114803,-1.995885,0.0422962,1.308346,0.5257673,-0.2088435,0.2179771,13.23607,11.65631,-0.287124,-0.05775219,-0.1204291,-0.1091891,-3.812046,-0.1078735,0.1124951,1.441114,0.4053197,0.03523738,0.2037697,-0.06102107,-1.220647,0.8146332,-0.1612672,0.299303,1.478249,0.3319485,-0.2538775,1.249072,0.6663364,305.1857,234.4865,75.21046,True
4,1.86667,0.06044316,-0.1777287,0.4022408,-1.402014,1.119436,-1.998221,0.0410338,1.308049,0.524971,-0.2079034,0.08333112,13.20955,10.82066,-0.2752139,-0.1024574,-0.1184606,-0.1101212,-3.836877,-0.08058992,0.1116313,1.440815,0.4051487,0.01828643,0.2079743,-0.05019796,-1.221222,0.8174642,-0.1618965,0.2987907,1.478094,0.332237,-0.2545234,1.248934,0.6659291,306.4937,234.0573,76.43012,True
4,1.877781,0.05510814,-0.1735457,0.3841155,-1.401952,1.123552,-1.999285,0.03970686,1.307621,0.5241542,-0.2069649,0.08445304,13.20955,10.13499,-0.2826861,-0.108869,-0.1237419,-0.111563,-3.850704,-0.06346925,0.110678,1.440514,0.4049118,0.008607134,0.2282328,-0.05855495,-1.222467,0.8205218,-0.1627604,0.2981366,1.477821,0.3325593,-0.255425,1.248717,0.6653277,307.7076,234.1821,76.48346,True
4,1.888893,0.03053442,-0.148105,0.3680447,-1.402731,1.127076,-1.999349,0.03821108,1.307214,0.5233881,-0.2064024,0.05000801,13.18302,9.62074,-0.3403642,-0.06860846,-0.1243211,-0.1131385,-3.845469,-0.06297897,0.1094953,1.44021,0.4047832,-0.001242504,0.2506907,-0.08609493,-1.225026,0.8238542,-0.1636361,0.2974642,1.477627,0.3329325,-0.2564121,1.24859,0.6651222,309.3362,234.4704,77.19756,True
4,1.900004,0.007027209,-0.1225795,0.3775386,-1.40408,1.131489,-1.999469,0.0366942,1.306877,0.5226636,-0.2041707,0.2029617,13.1565,9.256481,-0.3436965,-0.04836529,-0.1327831,-0.1148456,-3.844595,-0.06006014,0.1085627,1.439946,0.4045298,-0.001543656,0.2603911,-0.118011,-1.227703,0.8268297,-0.1644893,0.296712,1.477339,0.33324,-0.2567739,1.248522,0.6643351,310.0561,234.0841,77.67091,True
4,1.911115,-0.00263276,-0.1012527,0.3955756,-1.405583,1.136316,-1.999863,0.03527084,1.306552,0.5217407,-0.2022458,0.1737287,13.07692,9.020782,-0.3297528,-0.04833305,-0.1201032,-0.1158731,-3.849288,-0.05208264,0.1077546,1.439829,0.404249,0.01657696,0.2550837,-0.1181993,-1.229586,0.8293799,-0.1662398,0.2960078,1.477132,0.3334804,-0.2575724,1.248287,0.6636336,311.1816,234.0469,77.79987,True
4,1.922226,0.0006027073,-0.1108386,0.3945452,-1.405995,1.141014,-2.000891,0.0340105,1.306293,0.5209448,-0.2014005,0.07555963,12.99735,8.785087,-0.3200049,-0.0547497,-0.10316,-0.116492,-3.860895,-0.03747014,0.1067311,1.439868,0.4034603,0.003968731,0.2603254,-0.09676059,-1.230404,0.8324997,-0.1667964,0.2953229,1.477052,0.3336878,-0.2583264,1.248016,0.663316,312.4444,234.4204,78.18047,True
4,1.933337,0.005958721,-0.1204354,0.3881862,-1.406144,1.145469,-2.00188,0.03269312,1.305993,0.520108,-0.2010985,0.02683118,12.89124,8.592241,-0.322268,-0.00363785,-0.09453808,-0.1173389,-3.847299,-0.04733609,0.1059403,1.439759,0.4031279,-0.007596083,0.2645182,-0.07960441,-1.23133,0.8356758,-0.1674223,0.2946222,1.476877,0.3337922,-0.2592836,1.247879,0.6630339,313.8124,234.8254,78.33743,True
4,1.944448,0.01025771,-0.1332176,0.3850463,-1.406201,1.150259,-2.002917,0.0314382,1.305759,0.5194316,-0.2013291,-0.0215465,12.81167,8.485106,-0.3233677,0.009128809,-0.09237921,-0.1183711,-3.843779,-0.04714221,0.1051034,1.439447,0.40289,-0.001932211,0.2580037,-0.04238264,-1.230957,0.8386063,-0.1685611,0.2940358,1.476801,0.3338568,-0.2597452,1.247626,0.6627424,314.825,235.1324,78.92535,True
4,1.955559,-0.001417466,-0.1470545,0.3989469,-1.406446,1.15576,-2.003479,0.0302071,1.305507,0.518795,-0.2009659,0.03316345,12.70557,8.442253,-0.3062147,-0.007857114,-0.08719664,-0.1189858,-3.849745,-0.03846164,0.1045116,1.439553,0.4029748,0.02610334,0.2387278,-0.006477214,-1.230211,0.8408874,-0.1705251,0.2933923,1.476681,0.3338823,-0.2604704,1.247366,0.6622108,315.866,235.2198,79.03255,True
4,1.966671,-0.01848214,-0.1406992,0.4031828,-1.407148,1.160531,-2.003467,0.02892986,1.305282,0.5181468,-0.2005477,0.03765772,12.62599,8.463681,-0.2570474,-0.06518924,-0.09511484,-0.1202859,-3.8742,-0.0130391,0.1040228,1.439433,0.4029143,0.05075056,0.2355029,0.009271756,-1.230117,0.8436506,-0.1729033,0.2927963,1.476553,0.3339891,-0.2613586,1.247318,0.6617388,317.2416,235.4158,79.40192,True
4,1.977782,-0.0344914,-0.1248123,0.3892742,-1.408037,1.16431,-2.003369,0.02763548,1.305279,0.517503,-0.199614,0.08483642,12.59947,8.549388,-0.2355602,-0.1077283,-0.09320621,-0.121127,-3.895884,0.01038659,0.1033259,1.439349,0.4029121,0.06119038,0.2292053,-0.01534592,-1.23149,0.845885,-0.1747284,0.2922679,1.476539,0.3339565,-0.2615343,1.247142,0.661608,317.9742,235.933,79.89796,True
4,1.988893,-0.04833472,-0.1249316,0.3658347,-1.408147,1.167893,-2.002919,0.02640316,1.305379,0.5168777,-0.198854,0.0686186,12.57294,8.870793,-0.2454229,-0.06938577,-0.111171,-0.122792,-3.891851,0.009360478,0.1025465,1.439453,0.402771,0.03210426,0.1962922,-0.05462122,-1.233853,0.8466351,-0.1742165,0.2919011,1.476653,0.3340044,-0.2618167,1.246962,0.6615256,318.6709,236.575,80.05126,True
4,2.000004,-0.05892125,-0.1420607,0.3520412,-1.40758,1.172007,-2.002811,0.02530488,1.30553,0.516171,-0.1987293,0.01081858,12.57294,9.513605,-0.2360533,-0.02673283,-0.1175579,-0.1242184,-3.882485,0.002462891,0.1018176,1.439459,0.402585,0.01396257,0.1622173,-0.0620399,-1.234981,0.8471533,-0.1739193,0.2914133,1.476742,0.3340421,-0.2621384,1.246746,0.6612238,319.2299,237.1569,79.90619,True
4,2.011115,-0.05778092,-0.1676183,0.3553216,-1.406812,1.176887,-2.003013,0.02418712,1.305745,0.5155005,-0.1983235,0.03699042,12.54642,10.43497,-0.2253808,0.02013832,-0.09198239,-0.1241662,-3.867435,-0.01054878,0.1012098,1.439588,0.4023154,0.002463499,0.103548,-0.04296408,-1.234458,0.8462344,-0.1732328,0.2910108,1.476702,0.3339379,-0.26272,1.246735,0.6609891,320.1693,237.9297,79.97555,True
4,2.022226,-0.06628034,-0.171915,0.355333,-1.40655,1.181371,-2.002898,0.02302268,1.306021,0.5147526,-0.1984763,-0.01430784,12.46684,11.5706,-0.2305766,0.02540949,-0.07062183,-0.1240953,-3.86476,-0.01035011,0.1006812,1.43961,0.4020488,0.01520156,0.08973283,-0.04951748,-1.235281,0.8465573,-0.1739358,0.2905404,1.476776,0.3337667,-0.2630337,1.246689,0.6605765,320.555,238.5716,79.81325,True
4,2.033337,-0.08868276,-0.1603183,0.3393114,-1.406627,1.184906,-2.00175,0.02192083,1.306394,0.5142477,-0.1986217,-0.01318309,12.38727,12.89908,-0.2247799,-0.008734599,-0.0270273,-0.1226806,-3.875137,0.001986984,0.1003543,1.439946,0.4017646,0.04731568,0.09608878,-0.03167395,-1.235359,0.8481059,-0.1761372,0.2900868,1.476849,0.3335855,-0.263365,1.246284,0.6599161,320.9138,238.8995,79.78218,True
4,2.044448,-0.1153434,-0.1465861,0.3275469,-1.407,1.188392,-2.000309,0.02086893,1.306737,0.5138021,-0.1983182,0.02780529,12.28117,14.07757,-0.2119191,0.001935139,-0.0100537,-0.1222327,-3.873115,0.002033057,0.09986028,1.440226,0.4015143,0.06888582,0.09068545,-0.003124923,-1.234669,0.8492465,-0.1780882,0.2896511,1.477026,0.333436,-0.2639049,1.24595,0.6589179,321.6016,239.1335,79.78838,True
4,2.055559,-0.1345373,-0.1402643,0.3253926,-1.407196,1.192276,-1.998827,0.01979402,1.307175,0.5132995,-0.1973834,0.08519419,12.20159,14.9775,-0.2023832,0.02007881,-0.007946083,-0.1220857,-3.865585,-0.003528955,0.09921518,1.440628,0.4012892,0.07127924,0.0703477,0.02448165,-1.233405,0.8494583,-0.1790025,0.2891808,1.477281,0.33318,-0.2645774,1.245665,0.6578499,322.3768,239.3579,79.66628,True
4,2.06667,-0.1622104,-0.1499478,0.3179653,-1.406865,1.196122,-1.996683,0.01885495,1.307777,0.5129447,-0.1970542,0.02942752,12.12201,15.55603,-0.1693113,0.04680681,0.01208973,-0.1213411,-3.853826,-0.01443034,0.09884194,1.441051,0.4010417,0.05765101,0.06811999,0.0490983,-1.232108,0.8504293,-0.1794579,0.2887964,1.477529,0.3329177,-0.2653774,1.245658,0.657072,323.4094,239.881,79.69798,True
4,2.077781,-0.1801838,-0.1958647,0.3010651,-1.404599,1.200214,-1.99471,0.01793799,1.308628,0.5124407,-0.1970308,0.00200161,12.09549,15.62031,-0.1638737,0.04361479,0.02697096,-0.1203845,-3.850469,-0.01592277,0.09853896,1.441376,0.4005127,0.04442116,0.04230841,0.116245,-1.228328,0.8506586,-0.1793783,0.2884341,1.477824,0.3325272,-0.2659987,1.245545,0.6566947,324.1902,240.4694,79.86916,True
4,2.088892,-0.1789393,-0.2502816,0.2756819,-1.401274,1.204273,-1.993609,0.01701358,1.309578,0.5119531,-0.1965115,0.04764622,12.04244,15.27748,-0.175593,0.05634275,0.03347096,-0.1198327,-3.841436,-0.02252954,0.09829202,1.441833,0.4002073,0.01761479,0.01147239,0.09400514,-1.227969,0.849851,-0.1784187,0.2881377,1.478177,0.332231,-0.2665321,1.245053,0.6564676,324.7327,240.9561,79.93032,True
4,2.100003,-0.1746131,-0.2726755,0.2640342,-1.399022,1.208139,-1.992471,0.01625061,1.310534,0.5115607,-0.1967389,-0.02110627,12.01592,14.54896,-0.1676875,0.03818117,0.08559889,-0.1169383,-3.842142,-0.01998676,0.09817782,1.44231,0.3997583,0.006903963,-0.004492395,0.085522,-1.227394,0.8493387,-0.1780984,0.2879385,1.478421,0.3319407,-0.2671058,1.244733,0.6561502,325.2515,241.3901,79.84824,True
4,2.111114,-0.1799342,-0.2737885,0.254449,-1.397228,1.211734,-1.990943,0.01553509,1.311518,0.5112011,-0.1977701,-0.09392556,11.96286,13.47761,-0.1396857,0.0254521,0.1194597,-0.1144509,-3.843035,-0.01848393,0.09811005,1.442857,0.3993723,0.01641769,-0.01829945,0.07580133,-1.226755,0.8487188,-0.1783942,0.2878198,1.478704,0.3316395,-0.2677272,1.244439,0.6558538,325.7897,241.8,79.68929,True
4,2.122225,-0.2129579,-0.2686343,0.2331146,-1.395471,1.214601,-1.988042,0.01473978,1.312505,0.5107732,-0.1979251,-0.01331397,11.88329,12.17056,-0.1257632,0.02229354,0.1278709,-0.1128706,-3.841642,-0.01890205,0.0979571,1.443318,0.3991368,0.01526445,-0.005487864,0.06733154,-1.226355,0.8492677,-0.1787487,0.2877885,1.479085,0.3312035,-0.2683898,1.244118,0.6555586,326.3927,242.1374,79.6082,True
4,2.133336,-0.2384556,-0.2869371,0.1990824,-1.392424,1.217296,-1.985191,0.0140577,1.313507,0.5104535,-0.1976012,0.02959049,11.77719,11.03493,-0.1321092,0.04035074,0.143928,-0.1107667,-3.832295,-0.0263834,0.09780195,1.444011,0.3987601,-0.02526333,-0.01189106,0.06127389,-1.225889,0.8490627,-0.1770912,0.2878092,1.479443,0.3308103,-0.2690822,1.244202,0.6553724,327.232,242.6216,79.88326,True
4,2.144447,-0.2426375,-0.3115432,0.171465,-1.388843,1.219923,-1.982829,0.01338014,1.314642,0.5101488,-0.1963906,0.1104942,11.61804,10.04928,-0.1344598,0.07658,0.1333481,-0.1097489,-3.813311,-0.04368357,0.097563,1.444562,0.3983467,-0.05294823,-0.03109219,0.06145923,-1.224905,0.8481084,-0.1751617,0.287816,1.479749,0.3303773,-0.2695345,1.24423,0.6554181,327.6231,243.1019,80.14024,True
4,2.155558,-0.2435273,-0.3681128,0.1407581,-1.383418,1.222888,-1.980681,0.01287505,1.315983,0.5098412,-0.1964886,-0.009767364,11.43236,9.170771,-0.116465,0.1075429,0.1364652,-0.1082133,-3.791512,-0.06444584,0.09738711,1.445246,0.3977642,-0.08597466,-0.05347508,0.058474,-1.224227,0.846831,-0.1727435,0.2879252,1.480062,0.3299561,-0.2700698,1.243746,0.655701,328.0069,243.5705,80.29597,True
4,2.166669,-0.2369934,-0.4107805,0.117469,-1.378192,1.225904,-1.978987,0.01239359,1.317412,0.5095439,-0.1971751,-0.06245749,11.22016,8.420825,-0.1130425,0.1213451,0.1737478,-0.1052023,-3.772748,-0.08199953,0.09741426,1.445939,0.3971851,-0.1030423,-0.05561451,0.05542463,-1.223561,0.8461786,-0.1709166,0.2880096,1.480293,0.3296306,-0.2706202,1.243476,0.6558133,328.4506,243.9001,80.45925,True
4,2.17778,-0.2326802,-0.4278621,0.1004787,-1.37377,1.228447,-1.977061,0.012018,1.318859,0.5093119,-0.1975054,-0.02957494,11.00796,7.713735,-0.1266003,0.1222931,0.2143393,-0.101532,-3.756879,-0.09572147,0.0974941,1.446645,0.3967223,-0.1106387,-0.04810721,0.0406034,-1.223554,0.8459957,-0.1694695,0.2881511,1.480664,0.3292522,-0.2712254,1.24328,0.6560463,328.8661,244.2375,80.43265,True
4,2.188891,-0.2475963,-0.4268591,0.0951456,-1.369818,1.231115,-1.974344,0.01148224,1.320162,0.5090773,-0.1980193,-0.04676421,10.82228,7.092349,-0.1293019,0.1083393,0.2729306,-0.09654704,-3.74444,-0.1065616,0.09767801,1.447436,0.3961854,-0.1235356,-0.04807423,0.02793432,-1.223601,0.8454254,-0.1674699,0.2882875,1.480921,0.3288395,-0.2718207,1.243041,0.6563279,329.3137,244.526,80.4857,True
4,2.200002,-0.2955377,-0.4216891,0.09298964,-1.366139,1.233884,-1.970133,0.01093772,1.321569,0.5087044,-0.1979357,0.008030122,10.66313,6.535248,-0.1086492,0.08171787,0.313214,-0.09185136,-3.740081,-0.1104874,0.09787294,1.448062,0.3958309,-0.1427599,-0.06297632,0.0205922,-1.223545,0.8441394,-0.1648289,0.2885256,1.481185,0.3284075,-0.2724099,1.242785,0.6565542,329.7319,244.7279,80.52773,True
4,2.211113,-0.3210897,-0.426065,0.08234605,-1.361829,1.236356,-1.966276,0.01043049,1.322913,0.5084174,-0.1971256,0.073956,10.5305,6.085279,-0.09924982,0.07647239,0.2854363,-0.08975918,-3.73013,-0.1196417,0.09800443,1.448681,0.3953092,-0.1543899,-0.07367671,0.03024849,-1.222632,0.8429011,-0.1622131,0.2888423,1.481502,0.3278525,-0.2730941,1.242917,0.6568888,330.3975,245.1048,80.81588,True
4,2.222224,-0.3413053,-0.4314892,0.07277358,-1.35744,1.238783,-1.962492,0.009918541,1.324318,0.5080597,-0.1956411,0.1351617,10.4244,5.721019,-0.09192633,0.08292039,0.2704914,-0.08751787,-3.71218,-0.1367565,0.0981113,1.449512,0.3948901,-0.1669689,-0.07163258,0.05274349,-1.22117,0.8425048,-0.1599851,0.2891105,1.481766,0.3273733,-0.2735702,1.24292,0.6575377,330.7417,245.5175,81.21752,True
4,2.233335,-0.3434485,-0.4272345,0.07275903,-1.353505,1.241321,-1.959144,0.00946483,1.32571,0.5077186,-0.1961163,-0.04434291,10.3183,5.399614,-0.1048361,0.1031206,0.2642286,-0.08503474,-3.686507,-0.1607082,0.09829965,1.450192,0.3943763,-0.1807738,-0.07805127,0.0571057,-1.220218,0.8415018,-0.157176,0.2893994,1.482032,0.3269267,-0.2741792,1.242386,0.6583664,331.2143,245.8939,81.60524,True
4,2.244446,-0.3392209,-0.4144048,0.08443502,-1.350169,1.244246,-1.956328,0.009116858,1.327272,0.5073056,-0.1964976,-0.03419397,10.29178,5.206769,-0.1124535,0.1222862,0.2525901,-0.08313537,-3.657901,-0.1876916,0.09855855,1.45089,0.3940263,-0.2130005,-0.08862747,0.02646459,-1.220774,0.839885,-0.1531166,0.2897537,1.482231,0.3263772,-0.2747797,1.242072,0.6589386,331.5945,246.1288,81.79917,True
4,2.255557,-0.3370748,-0.4186046,0.1004295,-1.34639,1.247684,-1.953483,0.008821517,1.328831,0.5069957,-0.1971139,-0.05594452,10.34483,5.14249,-0.09385169,0.08713277,0.298211,-0.07823036,-3.648322,-0.1969783,0.09894827,1.451749,0.3935316,-0.2240153,-0.09808078,-0.01501839,-1.22214,0.8381042,-0.1495969,0.2901326,1.482439,0.325922,-0.2755344,1.241764,0.6594839,332.0936,246.3552,81.81911,True
4,2.266668,-0.3327882,-0.4271106,0.1015237,-1.342145,1.250737,-1.950619,0.008368403,1.330447,0.5066326,-0.1977291,-0.05575021,10.45093,5.163915,-0.0817719,0.04133219,0.3225503,-0.07366197,-3.650513,-0.1943453,0.09937358,1.452561,0.3929718,-0.2123737,-0.1044309,-0.02366574,-1.222415,0.8366219,-0.1471511,0.2905596,1.482777,0.3253832,-0.2763451,1.241371,0.65992,332.6819,246.5092,81.88548,True
4,2.277779,-0.3284907,-0.4388266,0.09836945,-1.337562,1.253713,-1.947805,0.007920176,1.332057,0.50629,-0.1976939,0.003661792,10.61008,5.249625,-0.09864086,0.02313577,0.3375782,-0.06935244,-3.641356,-0.2016282,0.09960979,1.453516,0.3923728,-0.2015738,-0.1215179,-0.008906215,-1.221686,0.8346092,-0.1446387,0.2909978,1.483058,0.3248558,-0.2771606,1.240956,0.6600826,333.2137,246.5253,81.90604,True
4,2.28889,-0.3263248,-0.4495258,0.08242556,-1.33266,1.256099,-1.944803,0.00749597,1.333767,0.5058749,-0.1977706,-0.00706117,10.82228,5.378185,-0.1293115,0.01551858,0.3633657,-0.06446607,-3.628523,-0.2119439,0.09981182,1.454435,0.3916745,-0.2311237,-0.1291002,0.02115838,-1.220091,0.8331231,-0.1405723,0.2915229,1.483378,0.3243279,-0.2786815,1.240193,0.6606746,334.79,246.9395,82.27956,True
4,2.300001,-0.3231257,-0.4495385,0.0739094,-1.328324,1.258496,-1.941857,0.007078975,1.335428,0.5053833,-0.1978654,-0.008550916,11.03448,5.635309,-0.1658265,0.07611428,0.3562818,-0.06155258,-3.568051,-0.2690962,0.09999797,1.455232,0.3908687,-0.2726587,-0.1387211,0.02149326,-1.219624,0.8312166,-0.1354167,0.2919849,1.483668,0.3237355,-0.2789226,1.240061,0.660564,335.3245,247.0129,82.83447,True
4,2.311112,-0.316739,-0.4474074,0.06964239,-1.323861,1.261021,-1.939103,0.006682366,1.33708,0.5049257,-0.1978319,0.00312709,11.24668,5.999572,-0.1747141,0.1570536,0.3490227,-0.0593805,-3.479037,-0.3557523,0.1001744,1.456111,0.390125,-0.3005222,-0.1450722,0.002549306,-1.219951,0.8291644,-0.1303436,0.2924008,1.483893,0.3232453,-0.2798328,1.239482,0.6606804,336.5354,247.3015,83.0516,True
4,2.322223,-0.3114693,-0.4303431,0.06958547,-1.320233,1.263317,-1.936321,0.006587058,1.33867,0.5044444,-0.1978878,-0.005109807,11.40584,6.470966,-0.168443,0.1794573,0.3458182,-0.05685529,-3.410592,-0.4223267,0.1004096,1.457036,0.3894093,-0.3017113,-0.1333107,-0.01018351,-1.220392,0.8279453,-0.1264978,0.2928172,1.484188,0.3227568,-0.2814436,1.238463,0.6621414,337.9945,247.9736,84.03013,True
4,2.333334,-0.3179228,-0.4133042,0.07272959,-1.316776,1.26575,-1.933012,0.00632152,1.340221,0.5039163,-0.1980545,-0.01520901,11.51194,6.963789,-0.1738496,0.1762581,0.3330721,-0.05459906,-3.356555,-0.4742003,0.1007131,1.457968,0.3887768,-0.273991,-0.0906974,-0.002824664,-1.220278,0.8285697,-0.1246303,0.2932243,1.484606,0.3221989,-0.2828856,1.237691,0.6625054,339.9104,248.5429,84.55835,True
4,2.344445,-0.3179567,-0.401607,0.06629923,-1.313079,1.26779,-1.929952,0.006058812,1.341841,0.5033801,-0.1980896,-0.003091839,11.56498,7.499465,-0.1577283,0.1390403,0.3318259,-0.05151406,-3.319169,-0.5103077,0.1011827,1.45882,0.3882136,-0.2674333,-0.07371718,0.01741713,-1.219406,0.8284062,-0.1217616,0.2936812,1.484981,0.3216693,-0.2833965,1.238926,0.6644161,339.3639,248.8177,86.7498,True
4,2.355556,-0.3115571,-0.3973506,0.06201847,-1.309125,1.269869,-1.927477,0.005816609,1.343478,0.5028265,-0.1975293,0.05121078,11.61804,8.03514,-0.1480695,0.1198958,0.3306507,-0.04876834,-3.271778,-0.5563722,0.1014784,1.459734,0.3876858,-0.2662896,-0.07694399,0.02591716,-1.218706,0.82744,-0.1185426,0.2941369,1.485367,0.3211234,-0.2834285,1.240455,0.6652793,339.0544,249.4046,85.98798,True
4,2.366668,-0.3073171,-0.3899019,0.05560304,-1.305423,1.271749,-1.924686,0.005615681,1.345029,0.5022948,-0.1978367,-0.02848244,11.61804,8.570816,-0.1469823,0.09967118,0.3231534,-0.04619359,-3.225903,-0.6006392,0.1018075,1.460716,0.3870099,-0.2661458,-0.09511016,0.04077295,-1.217443,0.8257105,-0.1149247,0.2946179,1.485815,0.3206055,-0.2832722,1.241571,0.6656972,338.7686,249.6383,85.4874,True
4,2.377779,-0.2999013,-0.3760089,0.06301796,-1.302248,1.274073,-1.922221,0.005454779,1.34665,0.5015585,-0.1984556,-0.05631642,11.61804,9.085064,-0.1608888,0.1070886,0.3189946,-0.04459516,-3.155953,-0.668258,0.1020681,1.461713,0.3862476,-0.277621,-0.118637,0.0652913,-1.215717,0.8236262,-0.1107553,0.2951323,1.486284,0.3200643,-0.2841575,1.242056,0.6661368,338.3093,250.4326,85.36862,True
4,2.38889,-0.2818599,-0.3535657,0.06827435,-1.299619,1.276094,-1.920256,0.005329996,1.348134,0.5010164,-0.1982223,0.02180219,11.64456,9.535033,-0.1834059,0.157059,0.3256356,-0.04397305,-3.041303,-0.7799568,0.1024846,1.462624,0.3853674,-0.2807786,-0.1112024,0.07067846,-1.21456,0.8226269,-0.1071195,0.2956769,1.486732,0.3194826,-0.2850685,1.243154,0.6684636,337.4206,250.7784,85.71652,True
4,2.400001,-0.2701758,-0.3407044,0.07995272,-1.296953,1.27851,-1.91838,0.005243808,1.349669,0.5004148,-0.1983512,-0.01204881,11.72414,9.920717,-0.1866268,0.1666317,0.3277962,-0.0431022,-2.947653,-0.8713509,0.102838,1.463548,0.3846681,-0.2776844,-0.1015732,0.06002805,-1.214222,0.8218218,-0.1038923,0.2962463,1.487083,0.3188789,-0.2862758,1.243914,0.6703892,336.5715,250.7108,85.9279,True
4,2.411112,-0.271271,-0.3311025,0.08524728,-1.294247,1.280788,-1.915969,0.005210519,1.351053,0.4998405,-0.1988865,-0.04889223,11.88329,10.24212,-0.1910021,0.1804745,0.3203899,-0.04302496,-2.853413,-0.9631642,0.1033345,1.464218,0.3838875,-0.278784,-0.1090199,0.0557595,-1.213482,0.820317,-0.1001988,0.2969294,1.487453,0.3183086,-0.2874569,1.244388,0.6721269,336.0589,250.8206,86.22465,True
4,2.422223,-0.2840855,-0.3194497,0.07774255,-1.291354,1.282402,-1.912824,0.005310804,1.352589,0.4992197,-0.1988305,0.005448059,12.06897,10.49925,-0.183522,0.1783685,0.3224564,-0.04268248,-2.759779,-1.054942,0.1037505,1.464994,0.3832173,-0.2629829,-0.1249058,0.03425322,-1.213792,0.8184225,-0.09719046,0.2976199,1.487655,0.3177283,-0.2885348,1.244846,0.6735312,335.4487,250.7262,86.53575,True
4,2.433334,-0.285166,-0.3141406,0.07346362,-1.288465,1.28419,-1.910105,0.005274534,1.353923,0.4986997,-0.1982297,0.05479424,12.25464,10.75637,-0.1611273,0.1571606,0.3147945,-0.04202362,-2.680637,-1.133018,0.1042793,1.465649,0.3825793,-0.2471359,-0.1376202,0.01808767,-1.213963,0.8162888,-0.0942498,0.2982202,1.48796,0.3171978,-0.2896649,1.245267,0.6738853,334.4084,250.0763,86.45168,True
4,2.444445,-0.2905072,-0.3077541,0.07556544,-1.285781,1.286088,-1.907343,0.005289525,1.355184,0.4981191,-0.1975778,0.0591074,12.44032,10.90636,-0.1476087,0.160485,0.2720785,-0.043254,-2.63152,-1.180851,0.1048825,1.466429,0.3821225,-0.2344393,-0.1343772,0.008395478,-1.214169,0.8148277,-0.09167773,0.2988691,1.488218,0.3166244,-0.2903128,1.245378,0.669634,334.3452,249.846,86.51202,True
4,2.455556,-0.275625,-0.2970723,0.07340318,-1.28319,1.287869,-1.905363,0.005294442,1.356356,0.4975569,-0.1979059,-0.03043555,12.59947,10.92779,-0.1199301,0.1520847,0.2654593,-0.04370514,-2.560774,-1.251015,0.1053982,1.467293,0.3815575,-0.235419,-0.1344113,0.01799221,-1.213495,0.8133098,-0.08852827,0.2994922,1.488514,0.3160737,-0.2910427,1.246242,0.6687873,334.4152,250.0982,85.8472,True
4,2.466667,-0.2639294,-0.2895797,0.07338101,-1.280621,1.289707,-1.903354,0.005437225,1.357663,0.4970694,-0.1978936,0.001465322,12.7321,10.82066,-0.1037339,0.106331,0.2705919,-0.04252322,-2.490102,-1.321031,0.1061044,1.468036,0.3810568,-0.2416341,-0.1280966,0.03831468,-1.212111,0.8121209,-0.08511622,0.3001325,1.488788,0.3153672,-0.2951571,1.249415,0.6661906,326.5936,254.2844,81.4314,True
4,2.477778,-0.25645,-0.2959428,0.07659759,-1.277566,1.291847,-1.901433,0.005510539,1.358924,0.4963875,-0.1986851,-0.07244609,12.83819,10.62781,-0.1079006,0.07436782,0.2673674,-0.04180204,-2.429888,-1.379699,0.1067503,1.468904,0.3804662,-0.2287485,-0.1323824,0.04990548,-1.210972,0.8106288,-0.0824251,0.3008627,1.489098,0.3147752,-0.3017915,1.254363,0.6552551,315.7458,252.4379,77.09818,True
4,2.488889,-0.2467597,-0.3299959,0.07884206,-1.273259,1.294474,-1.899776,0.005663067,1.360258,0.4960134,-0.198667,0.002261486,12.89124,10.30641,-0.09590065,0.06371024,0.2992201,-0.0414814,-2.322836,-1.485986,0.1074254,1.469684,0.379914,-0.2019229,-0.1516067,0.06984892,-1.209111,0.808235,-0.08019444,0.3014454,1.489455,0.3141887,-0.3085532,1.257092,0.6373398,310.5394,250.1877,72.45048,True
4,2.5,-0.2424696,-0.341706,0.07780159,-1.269496,1.296471,-1.897699,0.005987078,1.361418,0.4954431,-0.1985706,0.008644894,12.91777,10.26355,-0.08866739,0.0882766,0.2821565,-0.04339301,-2.26045,-1.547559,0.1081473,1.470309,0.3792236,-0.1933901,-0.1537333,0.07082999,-1.208155,0.8063614,-0.07767748,0.3022061,1.489735,0.3135941,-0.3135339,1.256766,0.6178834,309.9135,244.2913,71.39597,True
4,2.511111,-0.2285813,-0.3587459,0.06400847,-1.26536,1.298175,-1.895876,0.006336629,1.362748,0.4951389,-0.198601,-0.002874076,12.89124,10.58496,-0.08774275,0.1096022,0.2747257,-0.04540903,-2.198726,-1.608205,0.1087472,1.471051,0.3785756,-0.2042619,-0.1366196,0.04754315,-1.208481,0.8052857,-0.07476505,0.3030658,1.490008,0.3130755,-0.315138,1.253487,0.6069414,317.2947,236.1207,75.69105,True
4,2.522222,-0.2189809,-0.3619618,0.0491066,-1.261481,1.299613,-1.894201,0.006563038,1.364036,0.4947457,-0.1982968,0.02776812,12.86472,11.2492,-0.09634387,0.1181017,0.2684138,-0.04713316,-2.139703,-1.66581,0.1093774,1.471751,0.3780999,-0.2170985,-0.1493863,0.04015161,-1.208232,0.8030841,-0.07116579,0.3038498,1.490235,0.3125196,-0.3175846,1.253877,0.5992287,316.8477,236.5097,72.65669,True
4,2.533333,-0.206224,-0.3555819,0.03522596,-1.257823,1.300676,-1.892514,0.007003576,1.365375,0.4943092,-0.1985424,-0.02268388,12.83819,12.38483,-0.09623155,0.1116906,0.2801206,-0.04857446,-2.070422,-1.733922,0.1100115,1.472422,0.3775914,-0.2130486,-0.187647,0.01335195,-1.208758,0.7993737,-0.06748184,0.3046698,1.490451,0.3120527,-0.3188014,1.255375,0.5951718,313.9988,237.8094,69.63014,True
4,2.544444,-0.2051708,-0.3503151,0.0160335,-1.25416,1.301442,-1.890529,0.007259458,1.36659,0.4939985,-0.1987293,-0.01692473,12.75862,13.45618,-0.08775421,0.09044825,0.2629712,-0.04926102,-2.025718,-1.777933,0.1106024,1.473011,0.3771412,-0.2195976,-0.1950447,-0.004724383,-1.209234,0.7967933,-0.06387618,0.3054028,1.490725,0.3116062,-0.3185618,1.255856,0.5951744,313.5642,237.7621,69.08883,True
4,2.555555,-0.2030728,-0.3439493,0.005345792,-1.250556,1.302179,-1.88835,0.007553875,1.367794,0.4935858,-0.1987597,-0.002738278,12.67905,14.35612,-0.07605574,0.08304492,0.2564798,-0.05048767,-1.978254,-1.824941,0.1111858,1.473641,0.3765039,-0.2206939,-0.1790603,-0.006788209,-1.209254,0.7952124,-0.06085536,0.306097,1.490938,0.3111942,-0.3186286,1.256801,0.5965662,311.9759,239.063,68.3886,True
4,2.566666,-0.2031509,-0.3173451,-0.003263831,-1.247957,1.30268,-1.886236,0.00783655,1.368866,0.493278,-0.1984678,0.02665946,12.54642,15.10606,-0.08991072,0.07128687,0.2491023,-0.05152098,-1.934126,-1.867623,0.1117726,1.474314,0.3759694,-0.2206503,-0.1375452,0.001872838,-1.208949,0.7950193,-0.05836051,0.3068107,1.49117,0.3108797,-0.3184936,1.257562,0.5980795,310.4941,240.304,67.24997,True
4,2.577777,-0.1904604,-0.2874833,-0.007622935,-1.245878,1.303071,-1.884643,0.00795415,1.369911,0.4929056,-0.1981871,0.02537686,12.38727,15.57746,-0.1006529,0.08936737,0.2460066,-0.05393647,-1.898488,-1.901747,0.1123319,1.475005,0.3754497,-0.2291872,-0.1024079,0.004209831,-1.208681,0.795081,-0.05546965,0.3074705,1.491373,0.310415,-0.3184165,1.257871,0.5989836,309.7632,240.7964,66.66029,True
4,2.588888,-0.1681719,-0.2597257,-0.009839699,-1.243936,1.303509,-1.883629,0.008281529,1.370886,0.4925866,-0.1982628,-0.007116148,12.20159,15.42747,-0.103904,0.1287507,0.2588765,-0.05772242,-1.860289,-1.938604,0.1129161,1.475599,0.3749423,-0.2376705,-0.07580773,0.01182992,-1.208312,0.7951617,-0.05250422,0.308201,1.491619,0.3100429,-0.3184545,1.257969,0.5991581,309.7891,240.647,66.43296,True
4,2.599999,-0.1576303,-0.226678,-0.009954549,-1.24223,1.303835,-1.882131,0.008612007,1.371741,0.4921815,-0.1987815,-0.04741555,12.04244,14.91322,-0.08582787,0.1426651,0.2608891,-0.06063698,-1.827042,-1.971555,0.113694,1.475975,0.3745859,-0.2387221,-0.06729645,0.01506315,-1.208027,0.794544,-0.04948606,0.308906,1.491802,0.3096008,-0.3186047,1.258059,0.5988138,310.1824,240.4367,66.09399,True
4,2.61111,-0.1672755,-0.2075282,-0.008954078,-1.240594,1.304314,-1.880091,0.008848757,1.37264,0.4918814,-0.1993051,-0.04752494,11.93634,14.16327,-0.06153385,0.1002219,0.2116326,-0.06060928,-1.814072,-1.984616,0.1143531,1.476421,0.3742232,-0.2366275,-0.05769353,0.01188157,-1.207998,0.7941738,-0.04680479,0.3095546,1.491906,0.309226,-0.3187952,1.258233,0.5982069,310.5593,240.379,65.71527,True
4,2.622221,-0.1791638,-0.1532298,-0.01020138,-1.240567,1.304107,-1.877478,0.009056419,1.373424,0.4917343,-0.198781,0.04819558,11.85676,13.30619,-0.03671746,0.007646538,0.2059733,-0.05887717,-1.763174,-2.035794,0.1148204,1.477017,0.373837,-0.2014973,-0.06511413,0.0083462,-1.208014,0.7930403,-0.04536322,0.3102897,1.491901,0.3090687,-0.318867,1.25849,0.5975045,310.747,240.3253,65.47658,True
4,2.633332,-0.1856021,-0.140469,-0.012385,-1.239263,1.30413,-1.875117,0.009333789,1.374283,0.4914296,-0.1980348,0.06770349,11.83024,12.79194,-0.04611473,-0.02968508,0.2123769,-0.05879727,-1.710559,-2.087453,0.1153042,1.477459,0.3733411,-0.1928679,-0.07686592,0.01994927,-1.207314,0.7916406,-0.04290539,0.3109645,1.492107,0.308651,-0.3188569,1.258784,0.5967907,310.8222,240.3289,65.17129,True
4,2.644443,-0.1749447,-0.14152,-0.01770592,-1.237639,1.304265,-1.873534,0.009522349,1.375136,0.4911928,-0.1975916,0.03999326,11.88329,12.5991,-0.08702807,0.03731237,0.1893485,-0.0618908,-1.71523,-2.080351,0.1157169,1.477932,0.3727698,-0.1971313,-0.07898925,0.01890703,-1.207213,0.7907102,-0.04029017,0.3116198,1.492123,0.3083155,-0.3188806,1.259115,0.596092,310.8842,240.4704,64.71462,True
4,2.655554,-0.1482733,-0.1638571,-0.03467679,-1.234954,1.304026,-1.872195,0.009999007,1.37586,0.4908772,-0.1977578,-0.01546557,11.93634,12.55624,-0.1064887,0.1032991,0.1853299,-0.06589566,-1.716058,-2.077743,0.1161204,1.47823,0.3723192,-0.2046537,-0.08003764,0.01258083,-1.207213,0.7897392,-0.03717986,0.3123363,1.492245,0.3080034,-0.3189453,1.259501,0.5954304,310.9105,240.7766,64.10513,True
4,2.666665,-0.1311351,-0.1937109,-0.05801171,-1.231563,1.303614,-1.871152,0.01030228,1.376629,0.49068,-0.1985333,-0.0707247,12.01592,12.62053,-0.1099696,0.1608256,0.1769229,-0.06991437,-1.721881,-2.070542,0.1165382,1.478571,0.3718603,-0.2165937,-0.08315416,-0.01182577,-1.208152,0.7887052,-0.03386662,0.3129658,1.492294,0.3079708,-0.318978,1.259883,0.5947439,310.9025,241.0997,63.47205,True
4,2.677776,-0.1161837,-0.2075643,-0.07287815,-1.228606,1.303191,-1.869988,0.01054725,1.377418,0.4905477,-0.1989307,-0.03575686,12.09549,12.68481,-0.1021046,0.1501242,0.2269126,-0.07297168,-1.679672,-2.111726,0.1168476,1.478935,0.3715189,-0.2136113,-0.06282924,-0.03414987,-1.209199,0.7886823,-0.03161199,0.3135251,1.492326,0.3078744,-0.318925,1.260193,0.593932,310.9293,241.2501,62.94124,True
4,2.688887,-0.1151212,-0.2065029,-0.07501197,-1.226156,1.302978,-1.86867,0.01084048,1.378052,0.4904509,-0.1992098,-0.02537439,12.09549,12.53482,-0.1041984,0.1341379,0.2237047,-0.07491685,-1.65836,-2.131731,0.1172575,1.479112,0.3711939,-0.1934406,-0.03190981,-0.03848971,-1.209818,0.7892919,-0.03027721,0.3140014,1.492306,0.3077478,-0.3187315,1.260414,0.5929602,310.9985,241.1273,62.56303,True
4,2.699998,-0.111916,-0.2117983,-0.0686104,-1.223592,1.303113,-1.867453,0.01112455,1.378583,0.490365,-0.1989871,0.02046163,12.06897,12.27769,-0.1001083,0.1373928,0.2023733,-0.07724339,-1.654681,-2.134392,0.1175388,1.47929,0.3709757,-0.1710344,0.01814711,-0.0299853,-1.209776,0.7913353,-0.02986203,0.3143541,1.492254,0.3076663,-0.3185246,1.260596,0.5919273,311.1347,240.9261,62.18651,True
4,2.711109,-0.1097845,-0.2128427,-0.06434497,-1.221146,1.30327,-1.866354,0.01152664,1.379061,0.4903035,-0.198617,0.03358625,12.04244,11.95629,-0.07263765,0.131158,0.1691288,-0.07869321,-1.656032,-2.133138,0.1179776,1.479466,0.3707721,-0.1527391,0.05004252,-0.006604746,-1.209166,0.7930834,-0.02941701,0.3148005,1.492186,0.3075492,-0.3183687,1.260808,0.5909625,311.2311,240.8726,61.70512,True
4,2.72222,-0.08740976,-0.2149336,-0.07391867,-1.218502,1.302854,-1.865943,0.01205584,1.37933,0.4902813,-0.1984774,0.01237757,11.96286,11.5706,-0.04817281,0.1121034,0.155074,-0.08001734,-1.645379,-2.143981,0.1184401,1.479709,0.3705528,-0.1324059,0.06492853,0.004989617,-1.208725,0.7942789,-0.02901967,0.3152798,1.492181,0.307497,-0.3183637,1.261895,0.5874247,308.3994,244.6778,56.92424,True
4,2.733331,-0.05440747,-0.2084434,-0.07500093,-1.21631,1.302543,-1.866287,0.01255307,1.379593,0.4900596,-0.1985115,-0.003192353,11.90981,11.16349,-0.01304214,0.06860822,0.1302375,-0.0797883,-1.634906,-2.155343,0.1189307,1.479949,0.3703537,-0.1076673,0.07230794,0.03249633,-1.20752,0.7953206,-0.02885721,0.3158078,1.492241,0.30739,-0.3179437,1.261183,0.5850959,309.878,241.5282,58.79531,True
4,2.744442,-0.03419071,-0.2009056,-0.0686297,-1.214286,1.302615,-1.866686,0.0129728,1.379817,0.4900444,-0.199312,-0.07321962,11.85676,10.90636,-0.00994961,0.05373947,0.1088846,-0.0800967,-1.62984,-2.160412,0.1193037,1.479998,0.3701937,-0.1054287,0.06800804,0.04418027,-1.206659,0.7959975,-0.02801166,0.3163003,1.492311,0.3072765,-0.3180111,1.261147,0.5837293,310.7372,240.5145,59.18541,True
4,2.755553,-0.01081307,-0.1837392,-0.05163746,-1.212887,1.303115,-1.867556,0.01337108,1.379872,0.4900718,-0.1999645,-0.05911671,11.83024,10.73495,-0.03590181,0.06861579,0.06648657,-0.08078273,-1.646039,-2.142828,0.1196264,1.47997,0.3699162,-0.1224687,0.06160709,0.04431066,-1.206278,0.7966046,-0.02622734,0.3169015,1.492352,0.307164,-0.3179207,1.261411,0.5832697,310.5369,240.7383,58.74128,True
4,2.766664,0.006189134,-0.1762368,-0.05379359,-1.211169,1.302847,-1.86803,0.01385957,1.380087,0.4898682,-0.199736,0.0211613,11.80371,10.60639,-0.05955778,0.07710156,0.04111327,-0.08173668,-1.658911,-2.128559,0.1200658,1.479979,0.369781,-0.1158983,0.0285294,0.06118298,-1.205018,0.7957967,-0.02481587,0.3174569,1.492308,0.3070867,-0.3176154,1.261648,0.5832334,309.8147,241.3278,58.02831,True
4,2.777775,0.02543028,-0.1804629,-0.06014941,-1.208634,1.30287,-1.86893,0.01436111,1.380171,0.4898489,-0.1997978,-0.006065102,11.75066,10.47782,-0.04587091,0.08464097,0.02397039,-0.08261818,-1.670058,-2.117407,0.1205062,1.479927,0.3696535,-0.0807271,0.005129151,0.06079367,-1.204288,0.7951523,-0.02493331,0.3179637,1.492265,0.3070159,-0.3172311,1.261738,0.5831894,309.122,241.7425,57.43512,True
4,2.788886,0.0467139,-0.1782745,-0.06228627,-1.206623,1.30261,-1.870068,0.0148747,1.380361,0.4897332,-0.1994708,0.02982353,11.69761,10.30641,-0.0224379,0.06663603,0.01417833,-0.08259634,-1.672637,-2.115471,0.120951,1.479912,0.3694775,-0.0352187,0.00847774,0.02737308,-1.205149,0.7952899,-0.02624758,0.3185301,1.492209,0.306957,-0.3168566,1.2617,0.5829189,308.666,241.7846,57.17238,True
4,2.799997,0.06794224,-0.1558068,-0.05277264,-1.205722,1.302626,-1.871492,0.01554105,1.380195,0.4897652,-0.1995608,-0.008623304,11.64456,10.13499,-0.03116028,0.07622432,-0.008115679,-0.08315028,-1.688327,-2.099216,0.1213405,1.479939,0.3690691,-0.03123188,0.04798794,0.00083475,-1.206262,0.797386,-0.02660365,0.319177,1.492237,0.3068919,-0.3165058,1.261638,0.5824279,308.4467,241.5066,57.14324,True
4,2.811108,0.0891322,-0.1173538,-0.04117376,-1.205809,1.302601,-1.873261,0.0162051,1.380056,0.4897797,-0.1997163,-0.01425016,11.59151,10.04928,-0.03656853,0.09323506,-0.01018955,-0.08416548,-1.700028,-2.086938,0.1218111,1.48004,0.3689699,-0.04087709,0.04906733,-0.005467462,-1.206563,0.7980524,-0.02606968,0.3197631,1.492207,0.3068154,-0.3161586,1.26158,0.5818502,308.3335,241.0854,57.19704,True
4,2.822219,0.09758415,-0.09284405,-0.0465633,-1.205419,1.302128,-1.874283,0.01678693,1.38,0.4898231,-0.1997131,0.0002404281,11.53846,10.00643,-0.03545998,0.1102762,0.004745699,-0.08624274,-1.704991,-2.081583,0.122377,1.479763,0.369067,-0.03241985,0.02780448,-0.01520628,-1.206979,0.7975124,-0.0258055,0.3203325,1.492163,0.3067393,-0.3157867,1.261555,0.5813053,308.1661,240.7133,57.21658,True
4,2.83333,0.1125075,-0.0949743,-0.06040184,-1.203995,1.301326,-1.87575,0.01749104,1.37996,0.4899421,-0.1998521,-0.01287386,11.48541,10.02785,0.005218729,0.09547623,0.023584,-0.0870092,-1.699188,-2.088836,0.1230275,1.479618,0.3689477,0.02194148,0.002285118,-0.01471633,-1.207155,0.796671,-0.0276777,0.3209247,1.492151,0.3066382,-0.3153444,1.261512,0.5808331,307.8505,240.4136,57.23994,True
4,2.844441,0.1135682,-0.08969489,-0.07744611,-1.202752,1.300322,-1.876527,0.01830909,1.379869,0.4900463,-0.1990814,0.07043282,11.48541,10.17785,0.02126928,0.05296009,0.01168611,-0.08627044,-1.697097,-2.091656,0.1236481,1.479546,0.3689809,0.03163274,-0.005206127,-0.003111003,-1.206797,0.7963858,-0.02814402,0.3215315,1.492153,0.3065257,-0.3148884,1.261459,0.5804296,307.473,240.1058,57.38712,True
4,2.855552,0.1124867,-0.0854482,-0.08065161,-1.201777,1.299708,-1.877442,0.01900661,1.379827,0.490135,-0.199385,-0.02849633,11.43236,10.34926,0.03733356,0.02851038,0.01045545,-0.08560891,-1.693554,-2.096107,0.1241911,1.479524,0.3688421,0.01492984,-0.01706405,0.03428373,-1.205175,0.7959256,-0.02744627,0.3221914,1.492177,0.3064163,-0.3144606,1.261429,0.5801193,307.139,239.804,57.47271,True
4,2.866663,0.1124068,-0.07056631,-0.08606309,-1.2014,1.298346,-1.878275,0.01963061,1.379792,0.4903338,-0.1986734,0.06529438,11.35279,10.47782,0.05346792,-0.01403108,0.009201496,-0.08429118,-1.683976,-2.106801,0.1245081,1.479747,0.3685431,-0.01595053,-0.03200394,0.03450767,-1.204711,0.7950257,-0.02590963,0.3227638,1.492258,0.3063412,-0.3139711,1.261418,0.5799142,306.7681,239.4816,57.48837,True
4,2.877774,0.1155945,-0.06631346,-0.09246679,-1.200418,1.297268,-1.879229,0.02025035,1.379733,0.4903395,-0.1984859,0.01646669,11.22016,10.5421,0.04591839,-0.008720178,-0.0003242993,-0.08426561,-1.688518,-2.102454,0.124754,1.479616,0.3681877,-0.04163117,-0.03623397,0.02087242,-1.205053,0.7945468,-0.02454316,0.3232765,1.492319,0.3062994,-0.3134593,1.261439,0.5798075,306.3443,239.2018,57.47039,True
4,2.888885,0.1198552,-0.06314084,-0.1041881,-1.199346,1.295911,-1.880194,0.02089807,1.379692,0.4904499,-0.198593,-0.00991044,11.00796,10.45639,0.01045228,0.04336653,-0.01489194,-0.08588908,-1.708635,-2.08134,0.1249842,1.479569,0.3679588,-0.06403421,-0.01920058,0.01900086,-1.204954,0.7949538,-0.02315299,0.3237699,1.492419,0.3063738,-0.3130049,1.261469,0.5797569,305.9326,239.0202,57.38911,True
4,2.899997,0.1251585,-0.05677263,-0.1148535,-1.198451,1.294538,-1.881135,0.02160713,1.379495,0.4905214,-0.1985557,0.003454602,10.74271,10.24212,-0.02498952,0.1114153,-0.01772065,-0.08883347,-1.731385,-2.057164,0.1253767,1.479523,0.3678288,-0.05205099,0.005202845,0.05094475,-1.203202,0.7960222,-0.02346884,0.3242293,1.492391,0.3064554,-0.3126059,1.261492,0.5797536,305.5422,238.8936,57.30499,True
4,2.911108,0.1283098,-0.04181975,-0.1053135,-1.198185,1.29372,-1.882342,0.02228025,1.379343,0.4906421,-0.1985914,-0.003384033,10.47745,10.04928,-0.03571169,0.1294841,-0.0176122,-0.09059115,-1.743862,-2.043957,0.1258567,1.479504,0.3677559,-0.03817296,0.02756694,0.05622513,-1.202407,0.797215,-0.02396872,0.3246782,1.492351,0.3065553,-0.3122087,1.261488,0.5797521,305.1766,238.7159,57.28399,True
4,2.922219,0.1196573,-0.001263313,-0.07561597,-1.19949,1.293495,-1.883238,0.02297083,1.379134,0.4909225,-0.1985094,0.00749794,10.23872,9.942146,-0.01950902,0.1050148,-0.000727091,-0.09097039,-1.738933,-2.049352,0.1265327,1.47952,0.3679307,-0.01942461,0.07034712,0.0125233,-1.203885,0.7995491,-0.02519377,0.3251955,1.492254,0.3067675,-0.3117797,1.261467,0.5797623,304.821,238.4589,57.31781,True
4,2.93333,0.1143049,0.007253803,-0.07138301,-1.199553,1.292737,-1.884042,0.02361932,1.379002,0.4910915,-0.1985003,0.0007392697,10.02653,9.942146,0.01501502,0.008188375,0.007384183,-0.08816874,-1.717348,-2.072253,0.12718,1.479581,0.3682292,-0.01334759,0.07260958,-0.02267919,-1.205351,0.8004901,-0.02557034,0.3256995,1.492217,0.3068643,-0.3113126,1.261431,0.5797895,304.4391,238.1557,57.41156,True
4,2.944441,0.08226953,0.0327816,-0.0565554,-1.200836,1.292218,-1.88366,0.02415586,1.378968,0.4913642,-0.1979283,0.05228799,9.8939,10.15642,0.03842883,-0.03854882,-0.01950612,-0.08581237,-1.719535,-2.071234,0.1275981,1.479413,0.3685129,0.001349745,0.01732332,-0.05175936,-1.206741,0.798697,-0.02532373,0.3262297,1.492193,0.3069561,-0.3108454,1.261392,0.5798142,304.0457,237.8871,57.48345,True
4,2.955552,0.07054733,0.0316954,-0.0522931,-1.200898,1.29164,-1.883802,0.02478179,1.3789,0.4914935,-0.1979544,-0.002854903,9.814323,10.49925,0.05751577,-0.03420147,-0.02923168,-0.08537402,-1.72632,-2.065738,0.1281103,1.479415,0.3686781,0.008816179,-0.01142521,-0.05405479,-1.207219,0.7976322,-0.0253232,0.3267678,1.492189,0.3070183,-0.3104345,1.261356,0.5798137,303.6822,237.6859,57.53496,True
4,2.966663,0.05777863,0.02634895,-0.04695122,-1.200888,1.29127,-1.883837,0.02531818,1.378891,0.491766,-0.1967357,0.1115065,9.734747,10.92779,0.05438197,-0.04061354,-0.0238931,-0.08484192,-1.723547,-2.068965,0.1286977,1.479439,0.3688142,0.01634343,-0.0402004,-0.04889541,-1.207563,0.7961041,-0.02521241,0.3272757,1.492144,0.3070874,-0.3100732,1.261334,0.579789,303.3839,237.5053,57.54787,True
4,2.977774,0.05457203,0.02740618,-0.04589464,-1.201,1.290597,-1.88404,0.02597803,1.378907,0.4918482,-0.1972444,-0.04738249,9.681698,11.46347,0.03636922,-0.03537729,-0.008836208,-0.08491915,-1.718335,-2.0739,0.1293257,1.479405,0.3688676,0.01315574,-0.0476604,-0.04782597,-1.208032,0.79546,-0.02489576,0.32783,1.492145,0.3072128,-0.3098129,1.261386,0.5797669,303.1588,237.4502,57.43641,True
4,2.988885,0.05136862,0.03056105,-0.05549341,-1.20113,1.289467,-1.884073,0.02658883,1.378873,0.4921076,-0.1972444,0.0005761171,9.628648,12.02057,0.03640086,-0.031126,-0.00243793,-0.08481582,-1.715395,-2.077249,0.1298306,1.479393,0.3689566,0.01104788,-0.04021627,-0.04458517,-1.208419,0.7952269,-0.02486354,0.328293,1.492136,0.3073308,-0.3095403,1.261437,0.5797238,302.9458,237.3696,57.33131,True
4,2.999996,0.04915768,0.05716132,-0.06197484,-1.202306,1.288011,-1.883985,0.02722254,1.378768,0.492223,-0.1975964,-0.0321698,9.496022,12.44911,0.04493832,-0.02044315,0.003900575,-0.08511569,-1.715054,-2.078535,0.1301702,1.479335,0.3691618,0.01416979,-0.03059267,-0.05310946,-1.209434,0.7952419,-0.02527713,0.3286063,1.492131,0.307569,-0.3092505,1.261488,0.5796662,302.7374,237.272,57.2178,True
4,3.011107,0.03524661,0.0783934,-0.07057112,-1.203403,1.286412,-1.883309,0.02782917,1.378591,0.4924312,-0.1976912,-0.008375558,9.389919,12.5991,0.0533748,-0.01081617,-0.002542764,-0.08510451,-1.71884,-2.075612,0.130551,1.479305,0.3694339,0.0163553,-0.01570247,-0.04562004,-1.20972,0.7955645,-0.02565956,0.3288836,1.492123,0.3077331,-0.3089029,1.261537,0.5795869,302.4847,237.1836,57.05113,True
4,3.022218,0.02560696,0.0964504,-0.07808958,-1.204711,1.284667,-1.882615,0.02843368,1.378453,0.4927142,-0.1977328,-0.003739211,9.257293,12.47054,0.05957672,-0.00223203,-0.02389125,-0.08484458,-1.732243,-2.063159,0.1309671,1.479268,0.3696551,0.01645195,-0.002965413,-0.03278885,-1.209583,0.7959408,-0.02586675,0.329242,1.492162,0.3078594,-0.3085362,1.261586,0.5795342,302.188,237.1234,56.88759,True
4,3.033329,0.009587966,0.1091859,-0.08026407,-1.206082,1.28315,-1.88158,0.02899933,1.378406,0.4931381,-0.1972497,0.04424912,9.177716,12.08485,0.05421065,-0.008633815,-0.03238187,-0.0842443,-1.736559,-2.059213,0.1313727,1.479265,0.3699028,0.0380236,0.02357361,-0.0009320937,-1.208547,0.7972796,-0.02755812,0.3295493,1.492164,0.308007,-0.308162,1.261636,0.5795182,301.8424,237.143,56.67046,True
4,3.04444,0.009625968,0.09639894,-0.08128735,-1.206424,1.281984,-1.88127,0.0296075,1.378418,0.4935334,-0.1973024,-0.005169179,9.151194,11.52775,0.07351182,-0.03732745,-0.03043824,-0.08287491,-1.731348,-2.065871,0.1318923,1.47934,0.3701241,0.07019477,0.0277751,0.02330068,-1.207452,0.7977574,-0.02960849,0.330014,1.492113,0.3082073,-0.3078155,1.261691,0.5795401,301.5018,237.2187,56.41058,True
4,3.055551,0.01719302,0.06018219,-0.08649533,-1.205555,1.280946,-1.881378,0.03018102,1.378379,0.4939799,-0.1969882,0.02890667,9.124667,10.86351,0.07782251,-0.04264427,-0.02621802,-0.082248,-1.729084,-2.069103,0.1323593,1.479408,0.3703616,0.08621343,0.01711485,0.02738813,-1.206995,0.797437,-0.03081597,0.3304211,1.492025,0.3081415,-0.307487,1.261768,0.5796021,301.1763,237.3574,56.04079,True
4,3.066662,0.02682474,0.04529651,-0.08644443,-1.205267,1.279962,-1.881638,0.03078339,1.378444,0.4943948,-0.1976454,-0.06028156,9.124667,10.07071,0.08641143,-0.02665842,-0.009212713,-0.08272418,-1.725532,-2.07396,0.1328969,1.479424,0.3705719,0.08294272,-0.00841764,0.01667495,-1.207141,0.7964607,-0.03132197,0.3308996,1.492015,0.3081615,-0.3071846,1.261874,0.5796937,300.8687,237.5635,55.57512,True
4,3.077773,0.04076803,0.01230288,-0.0884591,-1.20405,1.279303,-1.88227,0.03137797,1.378508,0.4948208,-0.1981445,-0.0450786,9.124667,9.1922,0.09275018,-0.0095945,-0.007104521,-0.08308477,-1.728869,-2.071776,0.1333866,1.479332,0.3708892,0.07008817,-0.03396162,0.007109214,-1.207414,0.7951797,-0.03107243,0.3313543,1.49209,0.3081732,-0.3068404,1.261946,0.5797707,300.5609,237.6914,55.15391,True
4,3.088884,0.04507253,-0.001571804,-0.1001309,-1.203117,1.277917,-1.882429,0.03196642,1.378536,0.4952831,-0.1983192,-0.01559733,9.098145,8.249411,0.09272225,-0.01065325,-0.01136725,-0.08285041,-1.730759,-2.070917,0.1339452,1.479287,0.3711953,0.05188695,-0.08612383,-0.007824533,-1.207933,0.7921565,-0.02991769,0.3318863,1.492103,0.3081863,-0.3064409,1.261971,0.5798259,300.2494,237.7065,54.80934,True
4,3.099995,0.04081806,-0.00265079,-0.1001289,-1.202791,1.276757,-1.882334,0.03257915,1.378533,0.4957538,-0.1985488,-0.02094075,9.018568,7.392329,0.1099092,-0.02232967,0.001268563,-0.08239394,-1.722394,-2.081085,0.1345263,1.479266,0.3715112,0.06037838,-0.1265705,-0.01549564,-1.208237,0.7892768,-0.02996562,0.3321725,1.492189,0.3083217,-0.3060147,1.261995,0.5798741,299.918,237.6991,54.49267,True
4,3.111106,0.03551382,-0.01012681,-0.1011706,-1.202107,1.275695,-1.882144,0.03319475,1.378513,0.4962656,-0.1983086,0.0220872,8.912464,6.578101,0.1259011,-0.03610885,-0.004199402,-0.08149379,-1.719549,-2.0859,0.1350618,1.479224,0.3718045,0.06140778,-0.1254874,-0.0197667,-1.208623,0.7878785,-0.03023567,0.3325906,1.492183,0.3084188,-0.3055744,1.261999,0.5799211,299.583,237.6722,54.18805,True
4,3.122217,0.03765376,-0.01116034,-0.09371164,-1.201716,1.274913,-1.882484,0.03387234,1.378509,0.4967186,-0.1979112,0.03611118,8.832892,5.763873,0.1258088,-0.04673725,-0.02233088,-0.0802714,-1.723916,-2.082972,0.1354903,1.479096,0.3722038,0.06244911,-0.0999191,-0.01967935,-1.208695,0.7876704,-0.03081437,0.3329748,1.492143,0.3085811,-0.3051456,1.262016,0.5800108,299.2353,237.7206,53.80111,True
4,3.133328,0.04296548,-0.004777879,-0.1011896,-1.201452,1.27343,-1.88266,0.03453922,1.378428,0.4971561,-0.1977434,0.01505488,8.779839,4.971073,0.1267238,-0.02647416,-0.03190225,-0.08031668,-1.735286,-2.073024,0.1359784,1.479168,0.3725309,0.06774493,-0.07434455,-0.02070217,-1.208931,0.7875752,-0.03170786,0.3334545,1.492056,0.3087246,-0.304734,1.262052,0.5801404,298.8645,237.8707,53.3329,True
4,3.144439,0.05577233,-0.0122181,-0.1075543,-1.200676,1.27213,-1.883218,0.03520682,1.378454,0.4975808,-0.1981706,-0.03915562,8.779839,4.156845,0.1139964,-0.02227683,-0.02221219,-0.08030496,-1.733932,-2.0753,0.1364364,1.479136,0.3727343,0.06247754,-0.07650179,-0.01427051,-1.208887,0.7866309,-0.03191905,0.333829,1.49206,0.3088031,-0.3043261,1.26209,0.5802695,298.4928,238.0392,52.85741,True
4,3.15555,0.06218663,-0.02393521,-0.1149668,-1.199711,1.270855,-1.883439,0.03588313,1.378484,0.4980083,-0.198299,-0.01138004,8.806365,3.449752,0.1065373,-0.01272815,-0.01787921,-0.08036888,-1.734474,-2.075712,0.1368874,1.479101,0.3729985,0.05085866,-0.09146695,-0.004627178,-1.208525,0.7848583,-0.03147484,0.3342349,1.49205,0.3088105,-0.3038961,1.262108,0.5803607,298.1218,238.1419,52.46171,True
4,3.166661,0.072918,-0.05052883,-0.1127464,-1.197919,1.270162,-1.884374,0.03647867,1.378505,0.4984708,-0.1985823,-0.02587548,8.859415,2.914076,0.1076817,0.01493328,0.006656239,-0.08177183,-1.731315,-2.080091,0.1373254,1.479171,0.3733091,0.03815696,-0.09789898,0.003986843,-1.208148,0.7834519,-0.0309715,0.3345908,1.492015,0.3088741,-0.3035132,1.2621,0.5805627,297.8371,237.9294,52.41196,True
4,3.177772,0.07719682,-0.05687682,-0.1031325,-1.196943,1.269712,-1.885167,0.03714529,1.378493,0.4989531,-0.1982175,0.03350192,8.938992,2.506963,0.1045502,0.00107336,0.007725838,-0.08143894,-1.727258,-2.085248,0.1378185,1.479098,0.373549,0.03286214,-0.08832736,0.008323992,-1.208002,0.7828875,-0.03101145,0.3350236,1.491965,0.3090422,-0.303044,1.262126,0.5806951,297.4277,238.0769,51.93515,True
4,3.188883,0.07079815,-0.05686409,-0.09354605,-1.196169,1.26917,-1.885464,0.0377045,1.37834,0.4993856,-0.1986244,-0.03755558,9.018568,2.249839,0.1044301,0.001096055,-0.008254371,-0.08105118,-1.734113,-2.079529,0.1382375,1.479046,0.3739142,0.04340131,-0.07762478,-0.003451825,-1.208425,0.7824034,-0.03166898,0.3353526,1.491905,0.3091607,-0.30264,1.262123,0.5809509,297.1141,237.8987,51.81717,True
4,3.199994,0.06757291,-0.04726554,-0.08825261,-1.195775,1.268399,-1.885821,0.0382548,1.378184,0.4998748,-0.1983879,0.02193699,9.045091,2.185558,0.127854,-0.02222819,-0.02231459,-0.07985862,-1.735893,-2.080016,0.1386486,1.47893,0.3742537,0.05498035,-0.06797884,-0.01843815,-1.209152,0.7818726,-0.03252785,0.3357027,1.491934,0.3092959,-0.3022424,1.262111,0.5812237,296.7761,237.7669,51.68889,True
4,3.211105,0.05897006,-0.02067024,-0.09047744,-1.195977,1.266988,-1.885639,0.03880122,1.377987,0.5001924,-0.1978558,0.04841022,9.098145,2.421253,0.1139927,-0.04250217,-0.03396041,-0.07856858,-1.736741,-2.079936,0.1389867,1.478815,0.3745315,0.05593207,-0.06899872,-0.03123438,-1.209908,0.7809948,-0.03287672,0.3360275,1.491909,0.3094077,-0.3018575,1.262076,0.581488,296.4252,237.6659,51.57942,True
4,3.222216,0.05785378,-0.003621817,-0.08840324,-1.196229,1.26587,-1.885809,0.03937122,1.377789,0.5005698,-0.1979405,-0.008165509,9.124667,2.978357,0.1085334,-0.03397656,-0.04775292,-0.07806471,-1.747113,-2.070642,0.1393423,1.478745,0.3748217,0.05158657,-0.07003098,-0.04078382,-1.210587,0.780116,-0.03294357,0.3362063,1.491901,0.3094115,-0.301524,1.26203,0.5817311,296.1093,237.5998,51.47012,True
4,3.233327,0.0652786,0.007059202,-0.08524001,-1.196293,1.264935,-1.886467,0.03993407,1.377608,0.5009308,-0.1976715,0.02474992,9.204244,3.814011,0.1222363,-0.01793267,-0.05954695,-0.07792942,-1.759923,-2.059782,0.1396297,1.478779,0.3750949,0.05705154,-0.06369243,-0.02482804,-1.210307,0.7795391,-0.03352334,0.3364018,1.491857,0.3094301,-0.30122,1.261993,0.5819668,295.8173,237.5585,51.34334,True
4,3.244438,0.08444218,0.01248223,-0.07353863,-1.196477,1.264358,-1.887973,0.04036847,1.377445,0.5012159,-0.197908,-0.02182401,9.310343,4.735374,0.1201747,-0.02966391,-0.05635347,-0.07704312,-1.761689,-2.059291,0.1399249,1.478741,0.3753362,0.06143136,-0.05734541,-0.01099563,-1.209975,0.7790865,-0.03417901,0.3366399,1.491846,0.3094878,-0.3009363,1.261984,0.5822102,295.5258,237.5779,51.17144,True
4,3.255549,0.08445358,0.009305723,-0.06925446,-1.19638,1.263897,-1.888723,0.0407736,1.377349,0.5016532,-0.1983629,-0.04134908,9.442968,5.785301,0.1052877,-0.03504937,-0.05518508,-0.07625376,-1.764013,-2.057606,0.1402139,1.478588,0.3755338,0.05513367,-0.05100133,0.0008081682,-1.209503,0.7787022,-0.03434999,0.3367888,1.491832,0.3095815,-0.3006324,1.261973,0.5824543,295.2224,237.5717,51.01787,True
4,3.26666,0.08339075,0.008247778,-0.06605537,-1.196217,1.263244,-1.889358,0.0412049,1.377171,0.5020018,-0.1990761,-0.06490773,9.602121,6.792371,0.09137003,-0.01699265,-0.05505267,-0.07632779,-1.773652,-2.048535,0.1405067,1.478482,0.3757405,0.05631859,-0.0457222,0.01466542,-1.208899,0.7783988,-0.03489034,0.3369896,1.491751,0.3096256,-0.3001964,1.261932,0.5825313,294.8491,237.8286,50.4659,True
4,3.277771,0.08335571,0.01997228,-0.06503307,-1.196607,1.262224,-1.889901,0.04162565,1.376995,0.502306,-0.1982686,0.07427678,9.787797,7.73516,0.08292753,0.01063038,-0.03044312,-0.07752249,-1.773871,-2.048983,0.1407965,1.478352,0.3759735,0.06363536,-0.05205371,-0.0014014,-1.209389,0.7775269,-0.03551618,0.3372002,1.491735,0.3097217,-0.2998518,1.261825,0.5826562,294.6029,237.5157,50.59982,True
4,3.288882,0.08228429,0.02209423,-0.06610541,-1.196634,1.261321,-1.890446,0.04202637,1.37677,0.5026209,-0.1980705,0.01739192,9.920423,8.549388,0.09473679,-0.006378897,-0.02630138,-0.07676402,-1.772293,-2.051977,0.1410788,1.478204,0.3762078,0.06021868,-0.05942509,-0.0269685,-1.210575,0.7765259,-0.03575374,0.3374178,1.491683,0.3097999,-0.2995709,1.261751,0.5828158,294.374,237.3451,50.61522,True
4,3.299993,0.08439928,0.02954376,-0.07145914,-1.196908,1.260095,-1.891093,0.0424529,1.376609,0.5029528,-0.1980849,-0.001407715,10.02653,9.149346,0.09792957,-0.02233288,-0.03487252,-0.07571261,-1.775383,-2.05009,0.1413071,1.478097,0.3764384,0.05350611,-0.0784777,-0.06426018,-1.212432,0.7748023,-0.03546399,0.3376009,1.491611,0.309885,-0.2993076,1.261693,0.5830106,294.1238,237.2853,50.5411,True
4,3.311104,0.08333549,0.02950949,-0.0799813,-1.196801,1.25882,-1.891513,0.04283682,1.376438,0.5032649,-0.198038,0.00427836,10.13263,9.535033,0.11591,-0.04139318,-0.06166355,-0.07414667,-1.785983,-2.041406,0.1413559,1.478039,0.3766568,0.05338957,-0.07097629,-0.0770237,-1.213791,0.7741526,-0.03589755,0.3376998,1.491651,0.3099363,-0.2990507,1.261644,0.5832425,293.8482,237.3181,50.38558,True
4,3.322215,0.08654083,0.02417023,-0.08635557,-1.196464,1.257578,-1.892046,0.04317895,1.376237,0.503526,-0.1982404,-0.01852896,10.23872,9.727876,0.116818,-0.02539019,-0.07442977,-0.07377809,-1.802605,-2.026184,0.1413959,1.477976,0.3767781,0.05888826,-0.05081442,-0.05569331,-1.21354,0.7742381,-0.03676813,0.337761,1.491694,0.3099668,-0.2987856,1.261591,0.5834955,293.559,237.3731,50.19902,True
4,3.333326,0.09290524,0.03378648,-0.08425365,-1.19693,1.256498,-1.89294,0.04353905,1.376046,0.5038385,-0.1980369,0.0187212,10.34483,9.749304,0.09221712,0.008595493,-0.06886773,-0.07461858,-1.816277,-2.012598,0.1414863,1.477884,0.3768852,0.0487226,-0.02332142,0.0009509511,-1.211626,0.7750693,-0.03731835,0.3377228,1.491811,0.3100519,-0.2985066,1.261541,0.5837715,293.2546,237.4437,49.98002,True
4,3.344437,0.08862963,0.03806658,-0.07468079,-1.197323,1.255745,-1.893531,0.04387468,1.37584,0.504149,-0.1981008,-0.006025389,10.47745,9.663593,0.06771396,0.04256454,-0.05158601,-0.07613019,-1.825212,-2.003588,0.1416114,1.477711,0.3770261,0.04166162,-0.00644784,0.04688519,-1.209634,0.7754304,-0.03757267,0.337683,1.491682,0.3100533,-0.298235,1.261489,0.5840655,292.9481,237.553,49.71959,True
4,3.355548,0.07902488,0.04444157,-0.07151081,-1.197715,1.254722,-1.893758,0.04428783,1.375544,0.5045521,-0.1983906,-0.02643361,10.6366,9.577887,0.07840475,0.04898721,-0.04206919,-0.07676295,-1.831583,-1.998379,0.1418778,1.477515,0.3772063,0.07693071,0.008444866,0.06046614,-1.208726,0.7760684,-0.03995034,0.3377089,1.491652,0.3101096,-0.2979683,1.261429,0.5843519,292.6427,237.6679,49.46701,True
4,3.366659,0.07262506,0.04657124,-0.06406192,-1.198023,1.254075,-1.894124,0.04465207,1.375291,0.5047805,-0.1979762,0.03810414,10.79576,9.492177,0.08910269,-0.005273312,-0.06141049,-0.07451311,-1.837831,-1.993235,0.1420789,1.477432,0.3774354,0.1151786,0.01597083,0.04949656,-1.208519,0.7765669,-0.04270272,0.3377774,1.491653,0.3101509,-0.2975851,1.261349,0.5844694,292.28,238.1133,48.76834,True
4,3.37777,0.07369751,0.0423168,-0.06298265,-1.198108,1.253274,-1.894635,0.04497167,1.375105,0.5050461,-0.1976582,0.02870998,10.92838,9.427898,0.1030219,-0.02438866,-0.06260789,-0.07346276,-1.841944,-1.990816,0.1422418,1.47734,0.37765,0.1150461,0.007497523,0.0334819,-1.20881,0.776185,-0.04380367,0.3378111,1.491702,0.3102205,-0.297313,1.261247,0.5846358,292.0535,237.9603,48.76751,True
4,3.388881,0.08863745,0.03280103,-0.05229525,-1.197963,1.253046,-1.896035,0.04531559,1.374869,0.5051959,-0.1976609,-0.0004343908,11.03448,9.342188,0.111409,-0.01261564,-0.07331085,-0.07338554,-1.859135,-1.975068,0.1424448,1.47719,0.3777475,0.07962883,-0.02011788,0.001742318,-1.209863,0.7748734,-0.04303695,0.3379724,1.491772,0.3102074,-0.2970636,1.261168,0.5848139,291.8193,237.8893,48.71746,True
4,3.399992,0.09397194,0.02964375,-0.04695435,-1.198153,1.252661,-1.897084,0.04556614,1.374754,0.5054753,-0.1979011,-0.02188615,11.06101,9.277906,0.1103039,-0.00942295,-0.07649202,-0.07298873,-1.870534,-1.964813,0.142607,1.4771,0.377954,0.04422716,-0.06371473,-0.03004932,-1.211071,0.7724929,-0.04144278,0.338069,1.49183,0.3101959,-0.2968402,1.261102,0.5849872,291.5895,237.8805,48.63714,True
