loc,t,aDotS,bDotS,gDotS,aS,bS,gS,xS,yS,zS,qE,qDotE,emgA,emgB,aDotSH,bDotSH,gDotSH,aSH,bSH,gSH,xSH,ySH,zSH,aDotUB,bDotUB,gDotUB,aUB,bUB,gUB,xUB,yUB,zUB,xHand,yHand,zHand,aHand,bHand,gHand,enable
6,0,0.2425098,0.06881148,0.07651988,4.708086,1.344078,-2.623003,0.378872,1.230258,0.4139631,-1.050768,0.03820098,10.74271,13.86329,0.07233448,0.0873745,-0.01519736,-0.4576727,-3.746765,-0.6297004,0.3872585,1.433192,0.3475564,0.0714554,-0.02896493,0.1135746,-1.130907,0.1982936,-0.05671494,0.5080051,1.480707,0.1658032,0.05975514,1.126727,0.3965574,292.1609,294.6797,336.458,True
6,0.01111111,0.2351409,0.06245498,0.09467828,4.706377,1.344499,-2.625399,0.3790272,1.230037,0.4135959,-1.050692,0.006883834,10.2122,13.88472,0.08424079,0.02775159,-0.01434432,-0.4567838,-3.749929,-0.628215,0.3872065,1.433253,0.3476424,0.05414007,-0.05129352,0.08387043,-1.130918,0.1968063,-0.05610588,0.5077254,1.480845,0.1657236,0.06014024,1.125876,0.3949976,293.5553,296.7467,332.9351,True
6,0.02222222,0.2043283,0.07738209,0.1299296,4.702856,1.344755,-2.626898,0.3791762,1.230324,0.414748,-1.051061,-0.03370091,9.602121,13.949,0.09260938,0.01721218,-0.04743608,-0.4581937,-3.751964,-0.6275427,0.3870618,1.433226,0.3477526,0.04765599,-0.04701377,0.07435147,-1.130332,0.1965999,-0.05636607,0.5074362,1.480984,0.1658275,0.06032635,1.124202,0.3928935,294.3254,296.4971,332.273,True
6,0.03333334,0.1862415,0.07839499,0.136377,4.701043,1.344804,-2.628462,0.3791715,1.230231,0.4145043,-1.051147,-0.007487925,9.071617,14.03471,0.0729482,0.05461204,-0.1154232,-0.4623626,-3.753183,-0.6267209,0.3869695,1.433247,0.3478336,0.0627643,-0.02253801,0.09662484,-1.128555,0.1973844,-0.05782815,0.507118,1.481209,0.1658628,0.06052905,1.122176,0.3905825,295.0034,295.6821,332.452,True
6,0.04444445,0.1532768,0.07083193,0.1429134,4.699203,1.34524,-2.629166,0.3791907,1.230169,0.4143436,-1.050389,0.06948042,8.647213,14.12042,0.0483533,0.07692048,-0.1194902,-0.4643232,-3.75203,-0.6274591,0.3868207,1.433263,0.3478179,0.07246484,-0.01189873,0.1093357,-1.126941,0.1977691,-0.05910087,0.5068594,1.481472,0.1659625,0.06079908,1.120098,0.3883699,295.7366,294.9924,332.4461,True
6,0.05555556,0.1128446,0.05788387,0.1420331,4.697813,1.34582,-2.62915,0.3791062,1.230105,0.4141262,-1.050537,-0.0140398,8.355438,14.20613,0.02822429,0.09490068,-0.08951008,-0.4652718,-3.749008,-0.6298642,0.386757,1.433297,0.3478668,0.07777331,-0.02254085,0.1071335,-1.125845,0.1972184,-0.05984975,0.5066148,1.48163,0.1659794,0.06101355,1.11832,0.3867122,296.5337,294.5162,332.2146,True
6,0.06666667,0.07777191,0.03857545,0.1432901,4.696461,1.346782,-2.62896,0.3790314,1.230067,0.4139655,-1.049914,0.05726098,8.196285,14.31326,0.02417827,0.08947311,-0.0532799,-0.4652691,-3.74684,-0.6319836,0.3867263,1.433282,0.3478105,0.07450755,-0.04489522,0.0986032,-1.125011,0.1959132,-0.05993604,0.5064266,1.481729,0.1659019,0.06116747,1.117021,0.3856879,297.0442,294.3,332.1775,True
6,0.07777778,0.06399833,0.02361692,0.1465903,4.695009,1.347866,-2.62941,0.3789339,1.230022,0.4137735,-1.04938,0.04854171,8.275862,14.4204,0.024227,0.08519581,-0.04689965,-0.4660378,-3.74598,-0.6330885,0.3866965,1.433358,0.347852,0.07129873,-0.05341059,0.09648765,-1.123932,0.1951558,-0.06031607,0.5062308,1.481795,0.1659129,0.06126429,1.116306,0.3852351,297.3096,294.3224,332.1995,True
6,0.08888889,0.03853194,0.005437828,0.1552657,4.693522,1.349364,-2.628927,0.3787647,1.229989,0.4135995,-1.049466,-0.007969874,8.514586,14.37754,0.02318251,0.05114121,-0.06189061,-0.4667472,-3.748381,-0.6311343,0.3867695,1.433414,0.3478754,0.06697078,-0.04381423,0.09015404,-1.123156,0.1950322,-0.0608535,0.506076,1.4819,0.1658878,0.06124859,1.116199,0.3852082,297.3748,294.527,332.198,True
6,0.1,0.02049692,-0.00634071,0.1606975,4.692056,1.350793,-2.628793,0.3784827,1.230172,0.4135768,-1.050411,-0.08620703,8.859415,14.22755,0.02425318,0.04263404,-0.06618303,-0.4676841,-3.749265,-0.6306866,0.386788,1.433488,0.3478897,0.06900214,-0.03633627,0.08056632,-1.122447,0.1949467,-0.06165165,0.5058776,1.482027,0.1658218,0.06115707,1.11666,0.3854114,297.2646,294.8778,332.1063,True
6,0.1111111,-0.001829154,-0.0224314,0.1555127,4.691018,1.352316,-2.628068,0.3782591,1.230193,0.4134345,-1.04984,0.05321264,9.257293,13.92758,0.03297242,0.01065684,-0.04819671,-0.4670253,-3.750919,-0.6299132,0.3867803,1.433609,0.3478892,0.06776289,-0.05121686,0.06137535,-1.122339,0.1937844,-0.06187882,0.5057599,1.4821,0.1657901,0.06103215,1.117538,0.3856383,296.9848,295.3679,331.8807,True
6,0.1222222,-0.01564947,-0.04598552,0.1375339,4.690796,1.353913,-2.627414,0.3780001,1.230231,0.4132931,-1.050347,-0.04677752,9.496022,13.56331,0.02881907,0.003152577,-0.03327911,-0.4668851,-3.750835,-0.6301838,0.386731,1.433608,0.3478777,0.06338666,-0.05971242,0.04861899,-1.122122,0.1928504,-0.06206897,0.5056178,1.482137,0.1656995,0.06079904,1.118654,0.3857241,296.6804,295.8668,331.5804,True
6,0.1333333,-0.02310007,-0.05777742,0.1269552,4.690307,1.355459,-2.62693,0.3778905,1.230209,0.4131875,-1.050057,0.02720187,9.655171,13.17763,0.003227228,0.01478611,-0.0309769,-0.467422,-3.750184,-0.6299905,0.3867298,1.433654,0.3478272,0.06224103,-0.04585048,0.04119478,-1.121902,0.192792,-0.06271078,0.5055525,1.482211,0.1656635,0.06044635,1.119866,0.3855756,296.3692,296.2584,331.2695,True
6,0.1444445,-0.03480939,-0.06957868,0.1163845,4.690093,1.35694,-2.626116,0.3776495,1.230302,0.4130867,-1.050315,-0.02369419,9.814323,12.81337,2.224557E-05,0.02009749,-0.02987523,-0.4678205,-3.749833,-0.6302214,0.3868512,1.433791,0.3479352,0.05792164,-0.03838152,0.0348585,-1.121688,0.1926631,-0.06326046,0.50549,1.482326,0.1656487,0.06002616,1.12102,0.3851403,296.0442,296.513,330.989,True
6,0.1555556,-0.05182431,-0.08031147,0.1132914,4.689591,1.358675,-2.624962,0.3774914,1.230291,0.4129753,-1.050723,-0.03694859,9.920423,12.47054,-0.01166901,0.0285603,-0.02020207,-0.4681076,-3.748547,-0.6307907,0.3868224,1.433896,0.3479273,0.05366046,-0.04157825,0.03489359,-1.121265,0.1920677,-0.06342451,0.5054052,1.482455,0.1656184,0.05961035,1.121997,0.3844344,295.7431,296.586,330.7627,True
6,0.1666667,-0.05712965,-0.08672754,0.1122672,4.689116,1.360322,-2.624097,0.3772693,1.230394,0.4128666,-1.05061,0.0107412,10.02653,12.14913,-0.02546849,0.02849599,-0.01160063,-0.4680761,-3.747793,-0.63077,0.3868234,1.434068,0.3478205,0.04518665,-0.0490455,0.03922457,-1.120583,0.191202,-0.0633076,0.5053459,1.482544,0.1656053,0.05928784,1.122717,0.3835264,295.5354,296.5867,330.5187,True
6,0.1777778,-0.05816689,-0.0909892,0.1144186,4.688487,1.362036,-2.623477,0.3770117,1.230478,0.4127147,-1.050434,0.01609225,10.23872,11.95629,-0.03607884,0.03376348,-0.0008762958,-0.4680868,-3.746236,-0.6313487,0.3868044,1.434231,0.3477814,0.02813164,-0.04798809,0.03832521,-1.120148,0.1906929,-0.06276325,0.5053482,1.482544,0.1655908,0.05899128,1.12316,0.3825222,295.46,296.4825,330.3564,True
6,0.1888889,-0.05497317,-0.09525667,0.109096,4.688199,1.363605,-2.622938,0.3767643,1.230635,0.4125924,-1.050878,-0.0406227,10.45093,11.84915,-0.03599017,0.02946659,0.01296445,-0.4676596,-3.745135,-0.631917,0.3867466,1.434312,0.3475943,0.01330064,-0.02564064,0.04809602,-1.119322,0.1913476,-0.06279121,0.5053458,1.482582,0.165612,0.05872557,1.123384,0.3814931,295.497,296.3293,330.2658,True
6,0.2,-0.05285159,-0.1102028,0.09634117,4.688688,1.365216,-2.622046,0.3766386,1.230938,0.4124939,-1.051317,-0.03971902,10.66313,11.78487,-0.03594162,0.03476718,0.02469439,-0.467494,-3.743235,-0.6332552,0.3866787,1.434402,0.3474624,0.01115807,-0.01818474,0.04706629,-1.1188,0.1913681,-0.06293849,0.505316,1.482638,0.1655734,0.05846064,1.123477,0.3804998,295.6019,296.1483,330.2424,True
6,0.2111111,-0.05606713,-0.1262771,0.07297234,4.689719,1.36692,-2.621253,0.3763664,1.231077,0.4124322,-1.051532,-0.01920228,10.82228,11.78487,-0.04871769,0.04216897,0.03011132,-0.4674678,-3.741276,-0.6340371,0.3866334,1.434472,0.3474264,0.009944363,-0.008571191,0.03218015,-1.118944,0.1916135,-0.06311079,0.5053189,1.482666,0.1655397,0.05819653,1.123519,0.379573,295.7152,295.9828,330.243,True
6,0.2222222,-0.06569216,-0.1391921,0.0464168,4.691051,1.368397,-2.620255,0.3758363,1.231124,0.4124568,-1.051274,0.02377681,10.87533,11.74202,-0.07332317,0.07937448,0.0324694,-0.4684495,-3.736902,-0.6362161,0.3865604,1.434395,0.3473306,0.01515612,-0.006413188,0.02042485,-1.118978,0.1916231,-0.06343543,0.5053216,1.482657,0.1654694,0.05797302,1.123579,0.3787409,295.8127,295.7697,330.3012,True
6,0.2333333,-0.07633812,-0.1456382,0.04221882,4.691559,1.370131,-2.618979,0.3755203,1.231282,0.4123778,-1.051419,-0.01348346,10.79576,11.65631,-0.08501734,0.1080514,0.05284615,-0.4687526,-3.731333,-0.6398199,0.3865092,1.434492,0.3472381,0.01186183,-0.01172269,0.009793394,-1.119211,0.191259,-0.06329535,0.5053232,1.482648,0.1653996,0.05780078,1.123723,0.3780415,295.8659,295.4595,330.4602,True
6,0.2444444,-0.08164664,-0.1402987,0.05181044,4.691404,1.371807,-2.617957,0.3751013,1.231287,0.4122336,-1.051307,0.01044191,10.71618,11.54917,-0.08053088,0.1133715,0.08371895,-0.4684223,-3.726821,-0.6431944,0.3865227,1.434646,0.3471889,-0.005275786,-0.02662598,-0.001794041,-1.119355,0.1906119,-0.06273262,0.505232,1.482631,0.1653035,0.05751429,1.12393,0.3775302,295.8217,295.1514,330.6346,True
6,0.2555556,-0.09017614,-0.1253579,0.06777179,4.690587,1.373206,-2.616584,0.3747813,1.231368,0.4120398,-1.051108,0.01823121,10.61008,11.46347,-0.0708874,0.08988997,0.09214256,-0.466996,-3.724222,-0.645236,0.3865903,1.434849,0.3471799,-0.01911225,-0.0362239,-0.0006063301,-1.119452,0.1895398,-0.06124711,0.505272,1.4826,0.1652269,0.05704122,1.124184,0.3772308,295.7466,294.9489,330.7532,True
6,0.2666667,-0.100814,-0.09222791,0.1092381,4.688268,1.3744,-2.615071,0.37433,1.231369,0.411696,-1.051433,-0.02982447,10.5305,11.39919,-0.04832277,0.01965659,0.087586,-0.465039,-3.727353,-0.6427622,0.3866333,1.434966,0.3471653,-0.03407187,-0.0351555,-0.005788978,-1.119657,0.1892101,-0.06030036,0.5052766,1.482608,0.1651742,0.05656127,1.12454,0.3770443,295.6937,294.947,330.7816,True
6,0.2777778,-0.1061273,-0.0794023,0.1283767,4.686997,1.375815,-2.613681,0.3738487,1.231485,0.4114008,-1.051205,0.02115352,10.55703,11.37776,-0.04726535,-0.01437834,0.06725435,-0.4643615,-3.729234,-0.6405185,0.3865637,1.435069,0.3470433,-0.0308887,-0.03514928,-0.006884763,-1.119743,0.1888224,-0.05988491,0.505363,1.482625,0.1651039,0.05609201,1.124996,0.3768507,295.6258,295.1185,330.7118,True
6,0.2888889,-0.1135079,-0.08576989,0.1433392,4.685773,1.377864,-2.612106,0.3732628,1.231463,0.4111385,-1.051126,0.007072712,10.58355,11.42061,-0.05582159,-0.04524114,0.04378858,-0.463708,-3.73247,-0.636769,0.3864524,1.435138,0.3469772,-0.03292682,-0.022379,0.003806739,-1.119589,0.1888561,-0.05961406,0.5055034,1.482728,0.1650596,0.05564475,1.125565,0.3765432,295.5836,295.4137,330.5286,True
6,0.3,-0.1198039,-0.1017505,0.1508676,4.685178,1.380267,-2.610632,0.3726322,1.231532,0.4108412,-1.051349,-0.02033263,10.61008,11.5706,-0.06871328,-0.03353085,0.03110858,-0.4637863,-3.732084,-0.6358579,0.3863067,1.435198,0.3468087,-0.03499569,-0.01707098,0.01023486,-1.119024,0.1891005,-0.05918716,0.5055368,1.482736,0.1650295,0.05511291,1.126253,0.3760362,295.5518,295.8017,330.2345,True
6,0.3111111,-0.1229201,-0.1113097,0.1615754,4.684,1.3828,-2.609201,0.3720455,1.23169,0.4107323,-1.051299,0.004799257,10.61008,11.78487,-0.1073849,0.01011237,-0.002661388,-0.4657405,-3.730774,-0.6344523,0.3860759,1.435224,0.3466551,-0.05709323,0.009492047,0.04032093,-1.117635,0.190257,-0.05833841,0.5055059,1.482765,0.1650302,0.05448328,1.127036,0.3752825,295.4512,295.9966,330.0247,True
6,0.3222222,-0.1292944,-0.1091788,0.1679805,4.682784,1.384697,-2.607569,0.3715028,1.231842,0.4104891,-1.051483,-0.01675701,10.58355,12.06342,-0.1352421,0.04733516,-0.01093971,-0.4672244,-3.7279,-0.6345692,0.3858625,1.435298,0.3464823,-0.06445713,0.03397048,0.05108366,-1.116912,0.1916208,-0.05810165,0.5055355,1.482664,0.1649845,0.05374008,1.127862,0.3742785,295.2923,296.0757,329.8172,True
6,0.3333333,-0.1345959,-0.1252163,0.1574025,4.682611,1.387086,-2.605812,0.3708967,1.232007,0.4102447,-1.051619,-0.01231391,10.45093,12.3634,-0.1820473,0.09396809,0.02778706,-0.4674412,-3.720757,-0.637242,0.3856945,1.435441,0.3462722,-0.06881142,0.05315828,0.0426367,-1.116818,0.1930588,-0.0578111,0.5056038,1.482673,0.1650276,0.05294898,1.128699,0.3730488,295.1398,296.0476,329.6057,True
6,0.3444445,-0.161241,-0.1381685,0.1383727,4.682848,1.389289,-2.603039,0.3702853,1.232251,0.4101994,-1.051471,0.01365276,10.26525,12.72766,-0.2001164,0.09708586,0.03748349,-0.4673816,-3.717784,-0.6371256,0.3855765,1.435524,0.3461187,-0.06373192,0.05534097,0.01702808,-1.117498,0.1937351,-0.05759539,0.50571,1.482706,0.1651196,0.05218535,1.129541,0.3716767,295.0391,296.0197,329.3114,True
6,0.3555556,-0.1900948,-0.1469365,0.101221,4.683973,1.390914,-2.599957,0.3696085,1.232605,0.4100749,-1.051408,0.005683162,10.07958,13.1562,-0.2053538,0.08532777,0.04707246,-0.4669895,-3.715684,-0.6365077,0.3853659,1.435663,0.3459239,-0.06820141,0.0425973,-0.005321951,-1.118261,0.1937605,-0.05667127,0.5058812,1.482685,0.1651702,0.05145109,1.130375,0.3702665,294.9512,295.9757,329.0386,True
6,0.3666667,-0.2306689,-0.1546739,0.06623405,4.685436,1.392397,-2.595918,0.3688666,1.233048,0.4100406,-1.050482,0.08470758,9.867373,13.60617,-0.225644,0.1065683,0.04936579,-0.4676878,-3.711629,-0.6370625,0.3852695,1.435752,0.3456821,-0.07682274,0.03728227,-0.01589107,-1.11879,0.1940863,-0.05574449,0.5059824,1.482737,0.1651866,0.05071609,1.131181,0.3689083,294.8401,295.766,328.9271,True
6,0.3777778,-0.2744471,-0.1624353,0.02806073,4.687348,1.393655,-2.591439,0.3681569,1.233621,0.4100578,-1.050219,0.02346845,9.761274,14.05614,-0.2235304,0.1225453,0.05471737,-0.4683057,-3.707175,-0.6386513,0.3852125,1.435866,0.3455024,-0.08320107,0.03088605,-0.01478845,-1.118864,0.1941732,-0.05452609,0.5060309,1.48276,0.1652107,0.04990347,1.131996,0.3677363,294.7688,295.4161,328.9418,True
6,0.3888889,-0.3395691,-0.1628364,-0.01326007,4.689607,1.394402,-2.585587,0.3673901,1.234273,0.4100935,-1.049473,0.06823596,9.681698,14.44182,-0.2118185,0.1332267,0.05894109,-0.4687696,-3.702766,-0.6406897,0.3851599,1.436057,0.3452296,-0.09389631,0.02023581,-0.0200339,-1.119274,0.1939966,-0.05311781,0.506004,1.482695,0.1650872,0.04896658,1.132897,0.3668737,294.708,294.9885,329.0852,True
6,0.4,-0.3844273,-0.1567178,-0.04082361,4.691555,1.395027,-2.579935,0.3666303,1.234896,0.4101818,-1.04924,0.02102227,9.602121,14.7418,-0.1948192,0.1290482,0.04818164,-0.4694413,-3.700243,-0.6413866,0.3852282,1.436238,0.3450344,-0.1022985,0.01488266,-0.008249259,-1.119066,0.1940333,-0.05182112,0.5061395,1.482571,0.1650968,0.04789849,1.133992,0.3664008,294.6513,294.5694,329.3076,True
6,0.4111111,-0.4538409,-0.1571584,-0.08958527,4.694873,1.395083,-2.572306,0.3658277,1.235811,0.4104006,-1.048203,0.09487676,9.549072,14.9775,-0.1862998,0.08865,0.02566547,-0.4696809,-3.701491,-0.6384311,0.3854636,1.436815,0.3449302,-0.1278471,0.003146388,-0.006960388,-1.119053,0.1936346,-0.04936435,0.5061747,1.482538,0.1650574,0.04675149,1.135393,0.3663354,294.5407,294.2085,329.582,True
6,0.4222222,-0.5243863,-0.1416191,-0.1383865,4.697824,1.394331,-2.564233,0.3651093,1.236856,0.4107871,-1.048706,-0.04645731,9.496022,15.12749,-0.1785407,0.04491557,0.05640682,-0.467764,-3.701049,-0.6370249,0.3855564,1.437282,0.3448122,-0.1405888,-0.006452717,-0.003662497,-1.119032,0.1932572,-0.04734435,0.5062761,1.482543,0.1651044,0.04548927,1.137201,0.3666691,294.3627,293.9508,329.8575,True
6,0.4333333,-0.602393,-0.1197188,-0.185064,4.701044,1.392955,-2.555253,0.3642451,1.238111,0.4111047,-1.047257,0.1333084,9.389919,15.17034,-0.1577091,-0.008478388,0.1339285,-0.4632968,-3.699099,-0.6377365,0.3859264,1.437885,0.3446522,-0.1342365,-0.02561451,-0.009084126,-1.119223,0.192167,-0.04559039,0.5063558,1.482515,0.1650186,0.04416398,1.13946,0.367336,294.0496,293.8375,330.0689,True
6,0.4444444,-0.6804327,-0.09142294,-0.2317671,4.704536,1.390697,-2.545127,0.363309,1.239524,0.4115627,-1.047175,0.006750911,9.28382,15.08464,-0.1263482,-0.05540773,0.1933002,-0.4588328,-3.697361,-0.6388226,0.3863367,1.438374,0.3443849,-0.1036988,-0.04895788,-0.04777174,-1.121053,0.1907263,-0.04487373,0.5064889,1.482525,0.1650364,0.04271952,1.142217,0.3683159,293.6854,293.6232,330.373,True
6,0.4555556,-0.7723743,-0.05254225,-0.2827222,4.70809,1.387467,-2.533769,0.362275,1.241024,0.4120905,-1.046877,0.02770678,9.204244,14.87037,-0.1004824,-0.08418554,0.2314384,-0.4547257,-3.69557,-0.6401544,0.3868047,1.438898,0.3441596,-0.06877638,-0.0691283,-0.0737137,-1.122628,0.1891767,-0.04456427,0.5066569,1.482533,0.1648715,0.0411703,1.145539,0.3696224,293.253,293.4744,330.618,True
6,0.4666667,-0.882453,-0.008409049,-0.3346969,4.711741,1.383291,-2.520492,0.361145,1.242617,0.4127169,-1.046339,0.04946885,9.151194,14.52753,-0.07568134,-0.1353087,0.2567439,-0.4498899,-3.696459,-0.6394234,0.3874216,1.439437,0.3438087,-0.06167105,-0.07757953,-0.1110839,-1.12501,0.1878019,-0.04354162,0.5067942,1.482508,0.1647851,0.03943696,1.149444,0.3712474,292.7319,293.4275,330.8231,True
6,0.4777778,-0.9583343,0.02741065,-0.3654473,-1.568292,1.379406,-2.507746,0.3601866,1.244146,0.41329,-1.045755,0.05346991,9.177716,14.16327,-0.08304495,-0.1428206,0.2695497,-0.4461471,-3.695158,-0.6393576,0.3879136,1.440014,0.3435757,-0.06181191,-0.08394251,-0.1260055,-1.12679,0.1865104,-0.04219433,0.5069463,1.482443,0.1646953,0.03747161,1.153937,0.3731993,292.1024,293.4281,331.0051,True
6,0.4888889,-1.075832,0.08652689,-0.3897504,-1.565901,1.373911,-2.491796,0.3590217,1.245948,0.414017,-1.044582,0.1074456,9.257293,13.75616,-0.0761797,-0.1876982,0.3311869,-0.4393587,-3.693796,-0.6398572,0.3887424,1.44079,0.3434298,-0.06729594,-0.1073507,-0.1441084,-1.128929,0.184214,-0.04026087,0.5071301,1.48238,0.1645963,0.03525299,1.159005,0.3755013,291.3626,293.5114,331.1239,True
6,0.5,-1.145303,0.1223915,-0.4151962,-1.56317,1.368802,-2.477124,0.3580177,1.247682,0.4147201,-1.045843,-0.1155519,9.363397,13.3919,-0.05992301,-0.2335186,0.3554858,-0.4331988,-3.694985,-0.6387278,0.3894681,1.441415,0.3432164,-0.06759541,-0.1339244,-0.1771775,-1.131792,0.181504,-0.03834872,0.5073761,1.482372,0.1644843,0.03285535,1.164657,0.3781557,290.5385,293.7277,331.168,True
6,0.5111111,-1.251038,0.1634184,-0.4469329,-1.560473,1.362427,-2.459478,0.3568117,1.249774,0.4155936,-1.043688,0.1986943,9.496022,13.13477,-0.004186422,-0.287757,0.3870044,-0.4258235,-3.697116,-0.6386977,0.3903684,1.442196,0.3429651,-0.04225782,-0.1434522,-0.2019398,-1.13476,0.1792819,-0.03776416,0.5075634,1.482297,0.1642675,0.03052741,1.170832,0.3810547,289.5807,294.2409,330.9977,True
6,0.5222223,-1.339614,0.1768063,-0.4786288,-1.557038,1.356844,-2.441999,0.3555455,1.25196,0.4165301,-1.045619,-0.1776745,9.602121,12.94193,0.07070237,-0.3185244,0.4280661,-0.418381,-3.696872,-0.6421097,0.3913028,1.442979,0.3426905,-0.02016479,-0.1678868,-0.2320264,-1.1381,0.1763555,-0.03693245,0.5077068,1.482281,0.1639419,0.02812357,1.177532,0.3841904,288.6548,294.9185,330.7004,True
6,0.5333334,-1.40366,0.188201,-0.5029386,-1.553926,1.350976,-2.424584,0.3543147,1.254215,0.4175792,-1.043828,0.1660607,9.628648,12.89908,0.1338646,-0.3588952,0.4617097,-0.4103345,-3.697967,-0.64464,0.3922283,1.443795,0.3424239,-0.02136654,-0.1944914,-0.2480425,-1.141258,0.172916,-0.03522829,0.5079072,1.482249,0.1636992,0.02583137,1.184692,0.3874654,287.5918,295.659,330.3608,True
6,0.5444446,-1.461335,0.2092179,-0.5219879,-1.551123,1.344463,-2.406413,0.3529595,1.256667,0.4186809,-1.044708,-0.08136401,9.549072,12.98479,0.1532383,-0.3844629,0.4839098,-0.40241,-3.69914,-0.6457473,0.3931447,1.444586,0.3421941,-0.04167902,-0.2381625,-0.2585878,-1.144378,0.1682551,-0.03204608,0.5080954,1.482131,0.1634519,0.02344543,1.192314,0.390908,286.5587,296.3418,330.0574,True
6,0.5555557,-1.52119,0.228044,-0.5580674,-1.547806,1.337235,-2.387693,0.3516792,1.259225,0.4198184,-1.045815,-0.09974824,9.336869,13.19906,0.1436886,-0.3898271,0.4882134,-0.3952973,-3.699645,-0.6464664,0.3940703,1.445363,0.3418078,-0.08434036,-0.2871777,-0.26679,-1.147495,0.1626709,-0.02723082,0.5082452,1.482012,0.1632144,0.0210701,1.200389,0.3944459,285.4326,297.0057,329.7836,True
6,0.5666668,-1.583077,0.2287741,-0.5855526,-1.544261,1.330334,-2.368082,0.3502938,1.261902,0.4210503,-1.046001,-0.0155947,9.018568,13.54189,0.1521972,-0.3440473,0.5117168,-0.3889739,-3.694338,-0.6531491,0.3950208,1.446311,0.341429,-0.08325374,-0.2978334,-0.2657601,-1.150328,0.1586769,-0.02481081,0.5083652,1.481901,0.1629715,0.01879342,1.208829,0.3980257,284.2229,297.9333,329.2303,True
6,0.577778,-1.622517,0.2264735,-0.5939272,-1.541146,1.323763,-2.348687,0.349106,1.264576,0.4221973,-1.046242,-0.02147331,8.594163,13.949,0.1736816,-0.345127,0.542496,-0.38093,-3.691017,-0.6589193,0.3961145,1.4473,0.3410323,-0.04709679,-0.2754264,-0.2713977,-1.153528,0.1562225,-0.02466566,0.5085304,1.48186,0.1626296,0.01657079,1.217557,0.4016526,282.9949,299.0755,328.4437,True
6,0.5888891,-1.669483,0.2390319,-0.6065916,-1.538381,1.316456,-2.328328,0.3478434,1.267485,0.4235175,-1.046121,0.01178338,8.116709,14.37754,0.1986107,-0.4005622,0.5890961,-0.3706971,-3.691006,-0.661979,0.3970186,1.448312,0.3406453,-0.03441074,-0.2668789,-0.281092,-1.15694,0.1532262,-0.02353089,0.508664,1.481837,0.162348,0.01444479,1.226498,0.4053474,281.7452,300.2041,327.6552,True
6,0.6000003,-1.687722,0.2357145,-0.6330702,-1.535517,1.308992,-2.308409,0.3469605,1.270389,0.4251418,-1.04703,-0.08282452,7.665781,14.69895,0.2041757,-0.4379125,0.6134652,-0.3609782,-3.692169,-0.6631878,0.3980824,1.449269,0.3403094,-0.03552982,-0.2668762,-0.2864137,-1.16025,0.1497868,-0.02160596,0.5089591,1.481734,0.162071,0.01244403,1.23562,0.4090942,280.5122,301.4678,326.7625,True
6,0.6111114,-1.685561,0.212227,-0.6500409,-1.531505,1.302161,-2.289476,0.3457538,1.273342,0.4265172,-1.046867,0.01617538,7.267903,14.93465,0.2110183,-0.502989,0.6590748,-0.3490781,-3.694247,-0.6638163,0.3989215,1.450359,0.3399539,-0.05790663,-0.2892577,-0.2883705,-1.163449,0.1454485,-0.01851909,0.5090876,1.481655,0.1617377,0.01069866,1.244875,0.4128098,279.2964,303.1941,325.4366,True
6,0.6222225,-1.658865,0.1706755,-0.6787547,-1.5263,1.295529,-2.271832,0.344732,1.27654,0.4278898,-1.047905,-0.09467152,6.923075,15.08464,0.2229798,-0.5307368,0.6887587,-0.3382236,-3.694631,-0.6662657,0.3998395,1.451393,0.339613,-0.07063389,-0.2988655,-0.2829442,-1.166408,0.1414019,-0.01568149,0.5092983,1.481519,0.161459,0.009145891,1.25428,0.4165239,278.1334,305.1216,323.8364,True
6,0.6333337,-1.626841,0.1376871,-0.6990052,-1.521163,1.288693,-2.254234,0.3437298,1.279821,0.4291847,-1.049504,-0.1449982,6.68435,15.10606,0.2409728,-0.4987153,0.6844798,-0.3294895,-3.690874,-0.6731094,0.4007669,1.452476,0.3392067,-0.08766803,-0.3148557,-0.28281,-1.169544,0.1368641,-0.01232005,0.509384,1.481428,0.1611378,0.007910001,1.263793,0.4202714,276.9182,307.4764,321.7854,True
6,0.6444448,-1.586392,0.1324654,-0.7140434,-1.51682,1.281173,-2.237263,0.3427254,1.283002,0.4305327,-1.051287,-0.1617335,6.551723,15.04178,0.235388,-0.4581897,0.6601092,-0.3218696,-3.687247,-0.679023,0.4015189,1.453409,0.338716,-0.1142136,-0.3212824,-0.2740465,-1.17236,0.1326992,-0.008558335,0.5094858,1.481336,0.1609099,0.006884175,1.273309,0.4240034,275.6186,310.7616,318.92,True
6,0.655556,-1.571541,0.1506359,-0.7120313,-1.513775,1.273425,-2.219458,0.341766,1.286174,0.4318218,-1.051693,-0.03580296,6.57825,14.89179,0.2214169,-0.4049848,0.6667223,-0.3138162,-3.678512,-0.6893625,0.4023201,1.454404,0.3381371,-0.127988,-0.3255656,-0.2664652,-1.175087,0.1285158,-0.005007275,0.5095627,1.481251,0.1606631,0.006115943,1.282651,0.4276152,274.3096,315.3437,314.7975,True
6,0.6666671,-1.57706,0.2092392,-0.7026291,-1.51256,1.264703,-2.201012,0.3406205,1.289325,0.43311,-1.052446,-0.06857404,6.710876,14.67752,0.1906676,-0.3349318,0.7320505,-0.304827,-3.659876,-0.7081782,0.4030796,1.455203,0.33759,-0.1376325,-0.3031999,-0.2705911,-1.178254,0.1255378,-0.001986984,0.5095192,1.481179,0.1603553,0.005474824,1.291718,0.4310863,273.1188,322.7055,307.854,True
6,0.6777782,-1.60505,0.2635148,-0.6993485,-1.512895,1.255958,-2.180963,0.3398386,1.292346,0.4349687,-1.051726,0.06637881,6.923075,14.39897,0.178926,-0.3030565,0.7460433,-0.2964785,-3.647358,-0.7217878,0.4040563,1.456085,0.3370857,-0.1291244,-0.2829607,-0.2706433,-1.181393,0.1227146,0.0002127866,0.5096006,1.481166,0.1599653,0.004863798,1.300449,0.4344729,272.1337,336.7549,294.1473,True
6,0.6888894,-1.69492,0.3740004,-0.6876935,-1.515335,1.245242,-2.158334,0.3387673,1.295473,0.4362471,-1.051101,0.05666025,7.161804,14.16327,0.1906792,-0.2626112,0.7748432,-0.2882574,-3.628943,-0.7419138,0.4050502,1.457058,0.3366632,-0.07991463,-0.2574044,-0.2476306,-1.183396,0.1204606,0.0004151868,0.5095826,1.481109,0.1598291,0.004162126,1.308911,0.4378578,271.5572,1.728383,269.4851,True
6,0.7000005,-1.808183,0.5036574,-0.6483763,-1.520093,1.234563,-2.13389,0.3375574,1.298712,0.4372172,-1.049582,0.138527,7.453578,13.88472,0.2082344,-0.3266274,0.8331839,-0.2759908,-3.616909,-0.7564078,0.40617,1.458116,0.336252,-0.05010512,-0.2499358,-0.2489701,-1.186289,0.1174796,0.001238636,0.5096075,1.480989,0.1596186,0.003326344,1.317274,0.4413656,271.4719,33.01279,238.4353,True
6,0.7111117,-1.88616,0.5886959,-0.6153713,-1.525006,1.224636,-2.109872,0.3364643,1.301963,0.4384444,-1.047261,0.21131,7.771884,13.58474,0.226861,-0.4395596,0.8636934,-0.2624907,-3.612643,-0.7636915,0.4072655,1.459114,0.3359663,-0.03647736,-0.2711899,-0.2736423,-1.190206,0.1134368,0.002733469,0.5096558,1.48095,0.1594501,0.002508626,1.325763,0.4451391,271.7745,55.36807,216.2809,True
6,0.7222228,-1.913807,0.5961089,-0.5940025,-1.527773,1.216048,-2.087458,0.3351792,1.305532,0.439713,-1.045723,0.139351,8.143235,13.22048,0.2579991,-0.5193714,0.8665258,-0.2496799,-3.60966,-0.7704102,0.4083706,1.459978,0.3356166,-0.04406929,-0.2860918,-0.2885124,-1.193955,0.1093148,0.00510741,0.5097611,1.480908,0.1592684,0.001640297,1.334814,0.4492935,272.2719,65.72611,206.327,True
6,0.7333339,-1.928547,0.5406015,-0.6001537,-1.527695,1.208025,-2.065163,0.3341127,1.308769,0.4398451,-1.046618,-0.08223756,8.488064,12.8348,0.306929,-0.6064199,0.8053212,-0.2380568,-3.618315,-0.767192,0.4093873,1.460885,0.3353374,-0.06346011,-0.3020399,-0.3117923,-1.198242,0.1051921,0.008051269,0.5098879,1.480826,0.1590655,0.0009316914,1.344794,0.4537281,272.9504,71.12759,201.5345,True
6,0.7444451,-1.94435,0.4936675,-0.6009974,-1.528132,1.200254,-2.042702,0.3328136,1.312505,0.441128,-1.048864,-0.2041198,8.779839,12.3634,0.2897339,-0.6330132,0.7670009,-0.2274846,-3.62121,-0.7668929,0.4103751,1.461773,0.3349953,-0.06778949,-0.3233346,-0.3203141,-1.202148,0.1005939,0.01061403,0.5100087,1.480741,0.158968,0.0007201098,1.355784,0.4582066,273.9406,77.3374,196.0389,True
6,0.7555562,-1.977133,0.4627874,-0.5709555,-1.52976,1.193397,-2.019421,0.3316907,1.316509,0.4425104,-1.049623,-0.06750897,9.018568,11.8063,0.2410395,-0.6492443,0.8119722,-0.2145602,-3.612293,-0.7766864,0.4114257,1.462742,0.3346021,-0.05825472,-0.3456872,-0.3268393,-1.206052,0.09575848,0.01269209,0.5100402,1.480638,0.158838,0.001212418,1.367527,0.4623638,275.3946,84.26714,190.0099,True
6,0.7666674,-2.02729,0.5170424,-0.5368764,-1.534546,1.185694,-1.994795,0.3304758,1.320497,0.4438219,-1.049817,-0.01719005,9.204244,11.18491,0.1957728,-0.6443094,0.913438,-0.2000556,-3.590136,-0.7990506,0.4124849,1.463698,0.3341942,-0.04558316,-0.3467235,-0.3386813,-1.210269,0.09163658,0.01424045,0.510087,1.480517,0.1588078,0.002426877,1.379561,0.4657775,277.1874,90.33753,184.8385,True
6,0.7777785,-2.065788,0.5648836,-0.525192,-1.539585,1.177258,-1.97022,0.3295576,1.324534,0.4449661,-1.049267,0.05068536,9.310343,10.52068,0.1867667,-0.6733365,1.006103,-0.1841022,-3.567086,-0.8235288,0.4135969,1.464683,0.333667,-0.04888874,-0.3403249,-0.3492965,-1.214643,0.08779404,0.01632731,0.5101825,1.480444,0.1587231,0.003769241,1.391806,0.4685946,279.0005,94.4106,181.2104,True
6,0.7888896,-2.135174,0.6093885,-0.5165784,-1.545365,1.168924,-1.943668,0.3282936,1.328827,0.4463315,-1.048226,0.09505141,9.336869,9.856439,0.1867856,-0.6791468,1.201043,-0.1651272,-3.511962,-0.8797073,0.4146424,1.465606,0.3332107,-0.06276771,-0.3211567,-0.3512559,-1.218686,0.0847057,0.01859179,0.5102112,1.480405,0.1588607,0.00503693,1.404195,0.4709979,280.67,96.57346,179.1791,True
6,0.8000008,-2.210689,0.6017166,-0.4907147,-1.549621,1.162517,-1.916737,0.3271033,1.33325,0.4475904,-1.048581,-0.03288933,9.363397,9.213628,0.210636,-0.6633301,1.290434,-0.1494087,-3.453872,-0.9400692,0.4156574,1.466494,0.3328669,-0.04460749,-0.316897,-0.3461021,-1.222462,0.08109032,0.01971485,0.5102401,1.480302,0.1589143,0.006211297,1.41674,0.4732392,282.1917,97.67668,178.0973,True
6,0.8111119,-2.307213,0.5375935,-0.4432821,-1.552271,1.15821,-1.888111,0.3257724,1.338051,0.4489501,-1.047085,0.1374306,9.389919,8.635095,0.2118968,-0.5963866,1.361968,-0.1360897,-3.369734,-1.025638,0.4167477,1.46743,0.3326423,0.01081368,-0.2998236,-0.3423378,-1.22612,0.07822556,0.01874226,0.5101612,1.480315,0.1590807,0.007512981,1.429363,0.4754943,283.6526,98.73614,177.0804,True
6,0.8222231,-2.38882,0.4777765,-0.3905933,-1.554702,1.154881,-1.859187,0.3244209,1.34307,0.4503002,-1.04701,0.006007941,9.442968,8.099419,0.2330815,-0.6122365,1.333051,-0.1230806,-3.306346,-1.091719,0.4178279,1.468554,0.3324111,0.05240923,-0.2891553,-0.3363282,-1.229734,0.07526972,0.01781601,0.5101932,1.480291,0.1591589,0.008909024,1.4422,0.4779513,285.0591,99.57628,176.3927,True
6,0.8333342,-2.420549,0.4607725,-0.343545,-1.55856,1.15149,-1.831737,0.3232566,1.347799,0.4515417,-1.045915,0.1006451,9.575595,7.628025,0.2577448,-0.7249968,1.299612,-0.1068482,-3.250093,-1.151429,0.418908,1.469841,0.3321972,0.08443356,-0.2976683,-0.3302611,-1.233214,0.07154995,0.01703118,0.510246,1.480276,0.1593399,0.01062076,1.455216,0.4804341,286.4761,100.2526,176.0929,True
6,0.8444453,-2.457488,0.448124,-0.2602655,-1.563156,1.150303,-1.803639,0.3219379,1.352778,0.4526281,-1.046175,-0.02419416,9.787797,7.220912,0.2436596,-0.8392587,1.392088,-0.08807713,-3.119666,-1.283417,0.4200343,1.471242,0.3318493,0.05567685,-0.3168531,-0.3300289,-1.237016,0.06731939,0.01894014,0.5103405,1.4803,0.1594396,0.0126182,1.46854,0.4826729,287.8807,100.7923,176.0674,True
6,0.8555565,-2.493483,0.4353693,-0.2121695,-1.567386,1.148415,-1.775093,0.3208939,1.357765,0.4536912,-1.048346,-0.1976432,9.999999,6.920932,0.2537253,-0.8628827,1.470812,-0.07460579,-2.911984,-1.493441,0.421353,1.472403,0.3314278,0.007524312,-0.3210813,-0.3530242,-1.241827,0.06381772,0.02149544,0.5104889,1.480242,0.1596265,0.01499808,1.482199,0.4843931,289.3692,101.2851,176.0255,True
6,0.8666676,-2.529591,0.4267849,-0.1896403,4.711578,1.146284,-1.74593,0.3197237,1.362964,0.4545605,-1.048425,-0.005180501,10.18567,6.706661,0.3096808,-0.848078,1.581336,-0.06748663,-2.599785,-1.810169,0.4224862,1.473451,0.3309813,-0.02775049,-0.3221458,-0.3654729,-1.246415,0.06013524,0.02414875,0.5105596,1.480194,0.1598346,0.01791965,1.495997,0.485469,291.0738,101.6213,175.9526,True
6,0.8777788,-2.567899,0.3903185,-0.220348,4.70928,1.142147,-1.716445,0.3189048,1.368202,0.4554117,-1.04841,0.001628835,10.3183,6.578101,0.3547469,-0.8321193,1.652521,-0.06787865,-2.269317,-2.145233,0.4236402,1.474432,0.3304336,-0.02888238,-0.3348992,-0.3729464,-1.25082,0.05613264,0.02565663,0.5106312,1.480195,0.1600916,0.02122733,1.509908,0.4858843,292.8802,101.7704,175.9293,True
6,0.8888899,-2.56926,0.1868224,-0.2249628,-1.56885,1.140531,-1.687783,0.3175039,1.374371,0.4562571,-1.048234,0.01636999,10.37135,6.492391,0.3699895,-0.7886068,1.736706,-0.07754859,-1.972448,-2.445917,0.4246092,1.475519,0.3300586,-0.02458167,-0.3498165,-0.3698186,-1.254955,0.05162365,0.0272207,0.5106326,1.480183,0.1604967,0.02484377,1.523875,0.4857112,294.7105,102.1705,175.53,True
6,0.900001,-2.453114,-0.06722438,-0.1946753,-1.559772,1.140829,-1.664606,0.3163234,1.380792,0.4572067,-1.048341,-0.009549734,10.37135,6.385256,0.323966,-0.8131844,1.696403,-0.08614367,-1.755092,-2.664283,0.4255402,1.476835,0.3295836,-0.005203873,-0.3263741,-0.3465242,-1.257978,0.04922374,0.02734694,0.51064,1.480153,0.1608903,0.02867171,1.537919,0.4851217,296.5327,102.8419,174.7757,True
6,0.9111122,-2.312111,-0.09943992,-0.1215639,-1.557861,1.142017,-1.643752,0.3154648,1.386893,0.4576781,-1.049606,-0.1153682,10.37135,6.256695,0.2319912,-0.9154202,1.574136,-0.09282608,-1.558854,-2.859233,0.4263135,1.478184,0.3292041,0.01197547,-0.280587,-0.3295593,-1.261026,0.04773996,0.02705692,0.510657,1.480114,0.1612892,0.03270846,1.551966,0.4842665,298.3602,103.8866,173.7223,True
6,0.9222233,-2.277433,0.06919789,-0.07327674,-1.564843,1.141973,-1.619877,0.3145599,1.391923,0.4581547,-1.055379,-0.5268638,10.37135,6.06385,0.1979451,-1.013456,1.535708,-0.1051246,-1.383518,-3.034843,0.4270614,1.479588,0.3288045,0.01717627,-0.2102186,-0.3380133,-1.265103,0.0484425,0.02646064,0.5107622,1.480102,0.161679,0.03668599,1.565983,0.4829417,300.2253,105.1285,172.7314,True
6,0.9333345,-2.287098,0.4390996,0.00641997,4.700471,1.143375,-1.594262,0.3134901,1.395732,0.4582231,-1.058015,-0.236953,10.4244,5.828155,0.1755044,-1.110298,1.469537,-0.1182262,-1.235785,3.100291,0.4272189,1.481134,0.3286293,-0.04308036,-0.1579451,-0.3969977,-1.271456,0.04867446,0.02886361,0.5107154,1.480085,0.1621275,0.04060929,1.579344,0.4807728,302.1679,106.1362,171.8771,True
6,0.9444456,-2.240741,0.5981212,0.03124074,4.688395,1.144045,-1.570959,0.312441,1.399204,0.4584107,-1.054686,0.3055119,10.5305,5.528174,0.1611277,-1.044163,1.413311,-0.1326329,-1.173373,3.037013,0.4272393,1.48279,0.3284945,-0.1095384,-0.1418585,-0.4389762,-1.278129,0.04839616,0.03241014,0.5109581,1.480178,0.1624987,0.04437559,1.591695,0.4779637,304.0055,106.3771,171.2366,True
6,0.9555568,-1.965138,1.074763,-0.1471872,4.660931,1.13592,-1.558944,0.3113172,1.40041,0.4580362,-1.052177,0.2260847,10.68966,5.592456,0.1145377,-0.8737231,1.36286,-0.1463769,-1.158359,3.022678,0.4269259,1.484066,0.3284702,-0.2640389,-0.1131995,-0.4406258,-1.28284,0.04810827,0.04040814,0.5105346,1.479975,0.1631832,0.04797324,1.603156,0.4752898,305.5381,105.9607,170.6854,True
6,0.9666679,-1.829998,1.264399,-0.2912084,4.641418,1.127384,-1.543572,0.3105335,1.402951,0.4583995,-1.054099,-0.1774359,10.8488,6.106707,0.05170631,-0.7351422,1.254895,-0.1568922,-1.143773,3.010033,0.4264662,1.48527,0.3282399,-0.3298235,-0.106901,-0.4122864,-1.286493,0.04729055,0.04649507,0.5104272,1.479982,0.1638389,0.05173718,1.613928,0.4734935,306.827,105.0885,170.585,True
6,0.977779,-1.664587,1.389381,-0.3785618,4.622583,1.120658,-1.530007,0.3097733,1.405681,0.4588335,-1.06477,-0.9740731,10.98143,7.113777,-0.05267727,-0.5892205,1.145039,-0.1666121,-1.137135,3.007523,0.426053,1.485935,0.3280859,-0.3613847,-0.07399961,-0.3682383,-1.289134,0.04744115,0.05134042,0.5101438,1.479935,0.1646628,0.055979,1.62377,0.4728936,308.2115,104.694,170.4384,True
6,0.9888902,-1.48661,1.120648,-0.3483966,4.618831,1.118011,-1.519682,0.3090459,1.408222,0.4598706,-1.061239,0.3295647,11.00796,8.592241,-0.2084099,-0.4933394,0.9628835,-0.1716482,-1.126642,3.004711,0.4252443,1.486687,0.3281343,-0.3171524,-0.001650885,-0.3056693,-1.290384,0.05001843,0.05271248,0.5098104,1.479936,0.1655488,0.06083098,1.632038,0.4744851,310.0367,104.503,170.2906,True
6,1.000001,-1.490186,0.9737234,-0.3127633,4.61331,1.116606,-1.502341,0.3085671,1.41121,0.4606104,-1.061231,-0.004258004,11.16711,10.41354,-0.3080277,-0.4391263,0.8975106,-0.1803306,-1.112771,2.997741,0.4249263,1.487806,0.3282266,-0.2783911,0.06432302,-0.2590361,-1.291597,0.05302873,0.05355191,0.5095817,1.479867,0.1664593,0.06560927,1.639351,0.4789165,311.4237,104.1662,170.9872,True
6,1.011112,-1.451224,0.8686206,-0.2518037,4.607538,1.116599,-1.487379,0.3083842,1.413093,0.4614303,-1.063627,-0.2190765,11.48541,12.47054,-0.3146361,-0.4039372,0.8763278,-0.1896959,-1.101552,2.990571,0.4242308,1.488835,0.3285632,-0.258955,0.153758,-0.2260289,-1.292649,0.05826051,0.05425498,0.5092187,1.479821,0.1673517,0.07021102,1.645708,0.4856457,312.3983,103.5817,173.028,True
6,1.022224,-1.222567,0.7311545,-0.2041606,4.603511,1.116224,-1.481645,0.3081601,1.415149,0.4619346,-1.055859,0.7111212,11.96286,14.7418,-0.2510202,-0.2940551,0.8826537,-0.2001025,-1.111933,3.001,0.42393,1.489894,0.3286345,-0.2942725,0.2389597,-0.2372539,-1.295601,0.06383158,0.05740364,0.5089675,1.479791,0.1680882,0.07435254,1.650652,0.493052,313.1757,102.9607,176.0236,True
6,1.033335,-1.007291,0.7117457,-0.2026815,4.596238,1.114558,-1.478127,0.3080657,1.41692,0.4624593,-1.056706,-0.0843296,12.62599,17.09878,-0.03439996,-0.0898812,0.8649659,-0.2085766,-1.150874,3.03204,0.4238902,1.490174,0.3288555,-0.3209481,0.2613192,-0.2401536,-1.298214,0.06782778,0.06091315,0.5087306,1.479748,0.1688592,0.07769325,1.654997,0.4998595,313.318,101.9706,179.2612,True
6,1.044446,-0.8903427,0.7803857,-0.1874003,4.585152,1.113643,-1.471751,0.3079132,1.418478,0.4626987,-1.065254,-0.7806976,13.50132,19.09149,0.09694842,-0.1402448,0.701144,-0.211398,-1.13614,3.012408,0.4240932,1.490503,0.3287487,-0.2716373,0.1781889,-0.2130785,-1.299702,0.06678928,0.06259787,0.5084679,1.479783,0.1696167,0.08063257,1.658768,0.5049646,313.2985,101.029,181.808,True
6,1.055557,-0.8382802,0.7975588,-0.2057288,4.575424,1.111739,-1.464238,0.3076508,1.420118,0.4630406,-1.066849,-0.1402871,14.40318,20.48425,0.1106992,-0.2805798,0.6091089,-0.2161768,-1.101128,2.976679,0.4241246,1.491163,0.3288157,-0.2211025,0.06947055,-0.1722167,-1.300471,0.06382359,0.06417286,0.5083435,1.479826,0.1704845,0.08309784,1.661953,0.5079523,313.624,100.5623,183.1136,True
6,1.066668,-0.7674332,0.887112,-0.2457644,4.562959,1.108546,-1.458276,0.3073162,1.420712,0.4637516,-1.06249,0.3978151,15.27851,21.21277,0.09857523,-0.4819961,0.6214449,-0.2257855,-1.050979,2.927261,0.4243504,1.491983,0.3289895,-0.19975,0.02580315,-0.1703705,-1.302327,0.06269015,0.06598435,0.508179,1.479814,0.1712391,0.084848,1.66469,0.5092555,314.0948,100.3923,183.2392,True
6,1.077779,-0.7335542,0.9437175,-0.218449,4.551242,1.108301,-1.450849,0.3068788,1.421549,0.4646618,-1.059372,0.2806032,16.04774,21.40561,0.1246387,-0.5257752,0.691505,-0.2375779,-1.030617,2.905272,0.4241953,1.492949,0.3293946,-0.2097012,0.05142529,-0.2064426,-1.305694,0.06465623,0.06826774,0.5079443,1.479729,0.1720932,0.08585288,1.66745,0.5096481,314.368,100.1998,182.8473,True
6,1.08889,-0.6160606,0.9284846,-0.142072,4.541568,1.11047,-1.44778,0.3061985,1.422089,0.4655886,-1.059393,-0.004753126,16.5252,21.21277,0.2278815,-0.4393515,0.7316377,-0.2474934,-1.032336,2.900997,0.4237336,1.493198,0.330348,-0.2454206,0.1100954,-0.2613917,-1.310267,0.06839184,0.07122518,0.5077855,1.479657,0.1728776,0.08640441,1.670432,0.5097775,314.4755,100.2189,182.0867,True
6,1.100002,-0.5625208,0.9011681,-0.09209365,4.53311,1.112291,-1.443043,0.3057847,1.422766,0.4661038,-1.057518,0.1710142,16.7374,20.65567,0.2487366,-0.3753479,0.6997305,-0.2539857,-1.030794,2.896596,0.4235736,1.493598,0.3309107,-0.2657403,0.1058298,-0.269725,-1.313287,0.06951436,0.07457304,0.5076237,1.479685,0.1737339,0.08703301,1.67328,0.510273,314.657,100.2839,181.2185,True
6,1.111113,-0.5538971,0.9034547,-0.05803966,4.523342,1.11425,-1.437052,0.305277,1.423144,0.4667356,-1.061201,-0.3385966,16.71088,20.41997,0.168425,-0.1891877,0.311797,-0.2420259,-1.041454,2.907791,0.4230213,1.493116,0.3319287,-0.2505386,0.06850356,-0.2422395,-1.315007,0.06905816,0.07691955,0.5074382,1.479751,0.1746914,0.08799602,1.676013,0.511519,314.9073,99.98669,180.9894,True
6,1.122224,-0.5733397,0.8860722,-0.06971139,4.513806,1.114681,-1.429579,0.3052631,1.423305,0.4672151,-1.058983,0.2052986,16.44562,20.6771,0.07059453,-0.1836712,0.1408058,-0.2383646,-1.028204,2.897633,0.4227879,1.493329,0.3328068,-0.1976782,0.01728059,-0.1767846,-1.31469,0.06732218,0.07762235,0.5072538,1.47984,0.175627,0.089351,1.6782,0.5133591,315.4249,99.48736,181.4932,True
6,1.133335,-0.5089487,0.833218,-0.08564314,4.50648,1.113872,-1.426464,0.3052024,1.42368,0.4680648,-1.056602,0.2149659,16.02122,21.49132,0.04834533,-0.2082606,0.1493738,-0.2414092,-1.017596,2.887354,0.4228414,1.493816,0.3337183,-0.1448691,0.0001550764,-0.1144626,-1.313842,0.06664894,0.07757895,0.5069732,1.479891,0.1767499,0.09088721,1.679907,0.5156078,315.8875,98.90939,182.4208,True
6,1.144446,-0.3838926,0.715383,-0.1111853,4.502236,1.112411,-1.426973,0.3052984,1.423915,0.469017,-1.054036,0.2323485,15.64987,23.09835,0.1622579,-0.308431,0.2827407,-0.250677,-0.9997861,2.864377,0.4230382,1.49428,0.3345475,-0.1373204,0.03634606,-0.1016836,-1.314517,0.06839371,0.07860746,0.5066804,1.479821,0.1777403,0.09254771,1.68133,0.5181663,316.2113,98.31587,183.3857,True
6,1.155557,-0.281145,0.588999,-0.1174452,4.499819,1.111368,-1.427456,0.3053482,1.424227,0.4701655,-1.057436,-0.3130428,15.27851,24.76966,0.23289,-0.3029991,0.3356607,-0.2566531,-0.9956001,2.855098,0.4230834,1.494172,0.3355782,-0.1621407,0.1216054,-0.1289872,-1.316599,0.07322694,0.08014543,0.5065035,1.479749,0.1789153,0.09445819,1.682667,0.5209453,316.3618,97.85018,184.2151,True
6,1.166668,-0.1232828,0.274279,-0.1253501,4.507032,1.108728,-1.432144,0.3053693,1.424116,0.4717999,-1.060666,-0.2928624,14.93369,26.35526,0.2536615,-0.2803409,0.247187,-0.2571644,-0.9869643,2.843123,0.4228414,1.49385,0.336704,-0.1702577,0.1643285,-0.1948856,-1.320767,0.0769342,0.08150924,0.5064293,1.479761,0.1801772,0.0965792,1.683898,0.5238466,316.6927,97.71907,184.8024,True
6,1.17778,-0.1111427,0.1688375,-0.1303294,4.507762,1.107143,-1.431372,0.3053753,1.424072,0.4731445,-1.060092,0.05399668,14.61538,27.8123,0.2211265,-0.2376019,0.1611702,-0.2559937,-0.9813064,2.836503,0.4224699,1.49388,0.3378189,-0.1363034,0.1345445,-0.2112452,-1.323471,0.07739159,0.08172522,0.5062686,1.479703,0.1814094,0.09864809,1.684683,0.5266735,317.2751,97.79375,185.2697,True
6,1.188891,-0.1310099,0.062163,-0.1479949,4.510399,1.104466,-1.429784,0.305396,1.424018,0.4746001,-1.062757,-0.245156,14.27056,28.94793,0.1069294,-0.09795834,0.001249686,-0.2492191,-0.9884141,2.846481,0.4218779,1.493587,0.3391752,-0.07892151,0.08348028,-0.2299986,-1.32675,0.07682221,0.08079818,0.5060742,1.479702,0.1828513,0.1002224,1.684915,0.5292382,317.9014,97.99846,185.6952,True
6,1.200002,-0.1361755,0.01309338,-0.159519,4.511311,1.10217,-1.428428,0.3055463,1.424046,0.4760053,-1.056776,0.5481551,13.95225,29.18363,0.07458501,-0.04681009,-0.0431953,-0.2474098,-0.9896205,2.847775,0.4217926,1.493867,0.3403752,-0.06615263,0.07922962,-0.2322599,-1.329241,0.07785525,0.08093639,0.5058824,1.479669,0.1841977,0.1008042,1.684235,0.5311735,318.4211,98.51395,185.7764,True
6,1.211113,-0.09869865,-0.02185842,-0.148867,4.512255,1.100559,-1.429135,0.3056675,1.4239,0.4776788,-1.054326,0.2186594,13.687,29.31219,0.1193302,-0.06583309,-0.05306962,-0.2468559,-0.9832329,2.838769,0.4216603,1.494032,0.3416433,-0.0766435,0.1143427,-0.2129195,-1.330739,0.0805521,0.08150765,0.5057182,1.479652,0.1856,0.1001583,1.683313,0.5327433,318.3009,98.6275,185.7742,True
6,1.222224,0.0005791299,-0.08221929,-0.1606826,4.514712,1.098193,-1.43321,0.3058025,1.42398,0.4790781,-1.054073,0.02143817,13.4748,29.61217,0.1610223,-0.08175352,-0.03310453,-0.2477017,-0.9768674,2.829257,0.4217938,1.49391,0.3428605,-0.07630095,0.1728555,-0.1733987,-1.330937,0.08460557,0.08143627,0.5056727,1.4797,0.1868827,0.09862641,1.682467,0.5340531,317.6263,98.66595,185.5666,True
6,1.233335,0.08150977,-0.09904878,-0.1917766,4.515844,1.094803,-1.437469,0.3058372,1.423892,0.4805501,-1.055943,-0.1712145,13.3687,30.29783,0.1795611,-0.191486,-0.01112093,-0.2499728,-0.9556924,2.806241,0.421649,1.494061,0.3440874,-0.04512621,0.1781471,-0.1438593,-1.331358,0.08689069,0.08031774,0.5055755,1.479638,0.1881824,0.09677727,1.681834,0.5352169,316.7375,98.67765,185.1896,True
6,1.244446,0.07304331,-0.1129316,-0.1916997,4.517242,1.092439,-1.438504,0.3057079,1.423778,0.482126,-1.058605,-0.2426013,13.34218,31.94772,0.1766588,-0.1884547,0.04535773,-0.2528778,-0.9508819,2.799703,0.4213519,1.49411,0.3454564,-0.0401137,0.1323983,-0.1791515,-1.334546,0.08688616,0.08064211,0.5053758,1.479627,0.1895409,0.09506875,1.681255,0.5363065,316.0485,98.75214,184.7585,True
6,1.255558,0.06372035,-0.1351643,-0.1404525,4.519404,1.092344,-1.438779,0.3052819,1.42375,0.4837193,-1.057666,0.08670201,13.3687,33.66188,0.1327895,-0.06933618,0.07467416,-0.2536,-0.9674244,2.815999,0.4208821,1.494074,0.3469868,-0.07553434,0.1026024,-0.2086965,-1.337902,0.08729389,0.08262963,0.5051256,1.479656,0.1909461,0.09360569,1.680509,0.5373803,315.6983,99.02583,184.2952,True
6,1.266669,0.0757093,-0.1519422,-0.0786442,4.521744,1.093144,-1.439802,0.3047444,1.423776,0.4852154,-1.053048,0.4199858,13.39523,35.1832,0.0614345,0.0522526,-0.0567346,-0.2472654,-0.9780629,2.82793,0.4201577,1.49406,0.3486495,-0.1496518,0.05240379,-0.1643973,-1.338482,0.08631039,0.0871128,0.5047532,1.479746,0.1925602,0.09229119,1.679548,0.5386937,315.5518,99.34821,183.8232,True
6,1.27778,0.094937,-0.1389769,-0.04891454,4.522812,1.093524,-1.441637,0.3043482,1.423768,0.4865608,-1.050763,0.2040406,13.4748,36.49025,0.02718825,0.05435988,-0.08848256,-0.2457725,-0.9771093,2.827351,0.4200097,1.494319,0.3500495,-0.1427179,0.04804111,-0.1080117,-1.337836,0.08675966,0.08824278,0.5044347,1.479847,0.1940172,0.09103064,1.678604,0.5404071,315.3683,99.43761,183.6712,True
6,1.288891,0.09990515,-0.03770103,-0.0343748,4.519972,1.094014,-1.442877,0.303672,1.423686,0.487699,-1.049959,0.07078357,13.52785,37.36876,-0.01294729,-0.01613676,-0.06075715,-0.2466907,-0.967638,2.819623,0.4196558,1.49447,0.3515813,-0.08984273,0.07351189,-0.03602898,-1.335684,0.08827128,0.08716952,0.5040856,1.479965,0.1956444,0.08978997,1.677827,0.5423537,315.1613,99.28838,183.9503,True
6,1.300002,0.1293866,0.05939991,-0.02309006,4.516077,1.094531,-1.445234,0.3029797,1.423858,0.4889672,-1.04889,0.09583178,13.52785,37.09021,-0.04885001,-0.06317754,-0.02873128,-0.2481731,-0.9611444,2.814681,0.4190018,1.494244,0.3531497,-0.04469795,0.1086091,0.008345884,-1.334164,0.09053283,0.08568801,0.5037922,1.480055,0.197304,0.0885456,1.67716,0.544239,314.9728,99.07678,184.3891,True
6,1.311113,0.1346295,0.09357704,-0.00511406,4.514111,1.095357,-1.446718,0.3023053,1.423832,0.4903238,-1.046146,0.248288,13.42175,35.63317,-0.0572624,-0.09942455,-0.02771724,-0.2485342,-0.9522271,2.80689,0.4185735,1.494395,0.3547046,-0.03182508,0.1117962,0.01781631,-1.33352,0.09188931,0.08528454,0.5035279,1.48008,0.1989524,0.08728251,1.676526,0.5459563,314.8145,98.88807,184.6873,True
6,1.322224,0.09109332,0.08925949,0.02807781,4.513494,1.096881,-1.446268,0.3015232,1.423942,0.4919224,-1.044665,0.1312743,13.2626,33.06192,-0.05822034,-0.1366984,-0.02886888,-0.2491339,-0.9418256,2.797403,0.4179836,1.494481,0.3564255,-0.03653192,0.1086817,-0.02902325,-1.335549,0.09310571,0.08570691,0.5034182,1.480098,0.2006371,0.08596722,1.676046,0.5476969,314.6744,98.58981,184.8823,True
6,1.333336,0.06022212,0.1084144,0.05688331,4.511851,1.09875,-1.445687,0.3007445,1.423812,0.4934137,-1.041204,0.3134434,13.0504,29.76216,-0.08304191,-0.110012,-0.07554567,-0.2468953,-0.9374309,2.794766,0.4173501,1.494584,0.3581045,-0.06514078,0.1077646,-0.1235701,-1.340011,0.0946791,0.08712398,0.5032775,1.480167,0.2023339,0.08460855,1.675669,0.5496156,314.5891,98.29198,185.0349,True
6,1.344447,0.02073173,0.163808,0.1015624,4.50852,1.101915,-1.443903,0.2999269,1.423561,0.4946759,-1.036429,0.4317158,12.81167,26.59096,-0.1269958,-0.0323462,-0.08681501,-0.2450609,-0.9442469,2.804153,0.4167713,1.494839,0.359756,-0.09028883,0.09828326,-0.1915283,-1.344387,0.09587047,0.08871336,0.5031038,1.480244,0.2041428,0.08319768,1.675198,0.5516506,314.5176,98.05059,185.2439,True
6,1.355558,0.03130768,0.2119164,0.1375836,4.504897,1.105215,-1.443923,0.2991474,1.423489,0.495904,-1.033142,0.2947328,12.65252,23.97686,-0.1526026,0.05057874,-0.05024261,-0.244745,-0.9572805,2.819191,0.4163145,1.494955,0.3614452,-0.09257209,0.09085034,-0.2075013,-1.346923,0.09687901,0.08959699,0.5027958,1.480393,0.2059708,0.08168038,1.674713,0.5537117,314.3708,97.76888,185.556,True
6,1.366669,0.06121607,0.2099705,0.155609,4.502891,1.107874,-1.445298,0.2984619,1.4235,0.4971583,-1.029023,0.3719521,12.57294,22.06985,-0.121603,0.01869922,-0.04729285,-0.244597,-0.9539827,2.816436,0.4160131,1.494983,0.3631124,-0.06548682,0.0993042,-0.1598051,-1.347107,0.09829967,0.08917861,0.5024557,1.480495,0.2078958,0.08015893,1.67414,0.5556679,314.1873,97.35175,185.9628,True
6,1.37778,0.07408588,0.1940613,0.1598929,4.501485,1.110062,-1.446181,0.2976536,1.423473,0.4984398,-1.027354,0.1468929,12.57294,20.78423,-0.1010191,-0.06968868,-0.031652,-0.2458247,-0.9399701,2.803212,0.4154034,1.495079,0.3649948,-0.03095733,0.1130876,-0.1132347,-1.346644,0.09998785,0.08799563,0.5021124,1.480589,0.2098117,0.07871452,1.673572,0.5574664,313.9698,96.73073,186.5082,True
6,1.388891,0.08283183,0.1419115,0.1643071,4.501968,1.112033,-1.446993,0.296762,1.423535,0.4997811,-1.02505,0.2068395,12.62599,20.11999,-0.08356898,-0.1932378,-0.02247582,-0.2481113,-0.9157564,2.780063,0.414947,1.495081,0.3667915,0.0131037,0.1481946,-0.07098015,-1.345711,0.1027911,0.08568162,0.5017559,1.480687,0.2117393,0.07734885,1.67305,0.5590795,313.8259,96.18224,186.9871,True
6,1.400002,0.06265572,0.1429565,0.1835614,4.500677,1.115186,-1.446336,0.2955958,1.423571,0.5011606,-1.020544,0.4072811,12.81167,20.09856,-0.1060077,-0.2102605,-0.04795699,-0.247675,-0.9050939,2.771573,0.414117,1.495045,0.3686259,0.02063188,0.1759518,-0.06355093,-1.346236,0.1067817,0.0841969,0.5018163,1.480956,0.2135761,0.07595295,1.672474,0.5604878,313.7888,95.87644,187.2438,True
6,1.411114,0.02317643,0.1619882,0.1878915,4.49846,1.117821,-1.444694,0.2944727,1.423496,0.5026329,-1.016132,0.3968685,13.07692,20.46282,-0.1352328,-0.167568,-0.1116109,-0.2445346,-0.8983316,2.767542,0.4133079,1.495135,0.3704712,0.003565483,0.1791406,-0.06551252,-1.346788,0.1090674,0.08423019,0.5015959,1.481047,0.2155197,0.07435464,1.671841,0.5617539,313.778,95.70013,187.3483,True
6,1.422225,0.0007288158,0.1735772,0.1772869,4.496358,1.119899,-1.443633,0.2934919,1.423491,0.504256,-1.010617,0.4980152,13.50132,21.14849,-0.1610545,-0.08667827,-0.1133879,-0.2426566,-0.904218,2.776045,0.4128576,1.495479,0.3722129,-0.02755714,0.1589735,-0.09187995,-1.348715,0.1107645,0.08522435,0.5013608,1.481147,0.2174644,0.07241278,1.671178,0.5629137,313.7151,95.53715,187.3922,True
6,1.433336,-0.01837998,0.163944,0.1837841,4.495014,1.122501,-1.442373,0.2926489,1.423382,0.505784,-1.005129,0.4945545,14.00531,21.96272,-0.158849,-0.0675624,-0.0877792,-0.2427567,-0.9038178,2.777393,0.412219,1.495565,0.3740048,-0.08346495,0.1558542,-0.1446227,-1.352218,0.1128536,0.08785582,0.5011066,1.481181,0.2194951,0.07010032,1.670589,0.5640636,313.5381,95.17256,187.4972,True
6,1.444447,-0.01291689,0.1320095,0.1870781,4.495099,1.124894,-1.441862,0.2917708,1.423491,0.5071216,-1.001351,0.3386191,14.53581,22.47696,-0.1544284,-0.07509636,-0.05906488,-0.2435285,-0.8981292,2.773558,0.4116266,1.495763,0.375752,-0.08353645,0.1665726,-0.1531181,-1.353848,0.1160122,0.08783185,0.5006725,1.481077,0.2215314,0.06759799,1.670086,0.5652984,313.1956,94.74416,187.5639,True
6,1.455558,0.03407086,0.1077055,0.1902085,4.494951,1.127318,-1.443506,0.2906504,1.423707,0.5086994,-0.997251,0.369356,14.90716,22.71266,-0.1680861,-0.06459079,-0.01741822,-0.2448814,-0.8987412,2.776497,0.4109799,1.49572,0.3776095,-0.059039,0.1825711,-0.1522559,-1.355227,0.1189133,0.08698843,0.5003095,1.481157,0.2236147,0.06517161,1.669579,0.5666724,312.7843,94.36854,187.5874,True
6,1.466669,0.1014574,0.05798011,0.2114579,4.496503,1.130277,-1.446472,0.2895694,1.423823,0.5102148,-0.9938619,0.3040224,15.25199,23.31262,-0.1724372,-0.09330197,-0.04837611,-0.2440185,-0.8880484,2.768319,0.4104022,1.495686,0.379689,0.0008377321,0.2007041,-0.1293495,-1.355559,0.1222705,0.08408558,0.4998277,1.481109,0.2257609,0.0630198,1.668971,0.568113,312.4158,93.98067,187.7738,True
6,1.47778,0.08435586,0.06747217,0.2040431,4.495539,1.132738,-1.446205,0.2885355,1.423824,0.51176,-0.9919173,0.1724409,15.57029,24.21256,-0.1704158,-0.1251687,-0.0857675,-0.2428015,-0.8743775,2.756853,0.4096638,1.495873,0.3816037,0.01364917,0.2071236,-0.1262589,-1.356624,0.1252411,0.08297291,0.4992839,1.481127,0.2278869,0.0610906,1.668369,0.5695378,312.1744,93.6723,188.055,True
6,1.488891,0.02553004,0.1183407,0.1955459,4.492772,1.135021,-1.443914,0.2874986,1.423812,0.5131786,-0.9892147,0.2426724,15.80902,25.47675,-0.1628196,-0.1560655,-0.07629981,-0.2433171,-0.8625811,2.746958,0.408981,1.496071,0.3834875,-0.01942023,0.217765,-0.130185,-1.357976,0.1282233,0.08366427,0.4988737,1.481167,0.2299891,0.0592012,1.667756,0.5709196,312.1401,93.45872,188.2741,True
6,1.500003,0.01484813,0.1364604,0.2072427,4.490752,1.138036,-1.443116,0.2863612,1.423868,0.5148475,-0.9817317,0.6792186,15.94164,27.25519,-0.1542446,-0.1433181,-0.05820937,-0.2438358,-0.8581222,2.744129,0.408193,1.496105,0.3853498,-0.04080433,0.226308,-0.1374106,-1.35936,0.1314222,0.08428904,0.4985036,1.481208,0.2319901,0.05716183,1.666912,0.5721557,312.1862,93.27588,188.408,True
6,1.511114,0.01921846,0.1248256,0.2264491,4.490248,1.141434,-1.442748,0.2851624,1.423973,0.5163438,-0.9753614,0.5739653,15.9947,28.94793,-0.1414683,-0.1092365,-0.04114345,-0.2440073,-0.8585374,2.745624,0.407366,1.496115,0.3872459,-0.05474393,0.2263183,-0.1468658,-1.361105,0.13418,0.08486775,0.4980882,1.481239,0.2340395,0.05486347,1.666048,0.5734277,311.9958,92.89246,188.5482,True
6,1.522225,0.02665848,0.1333967,0.2306607,4.488743,1.144477,-1.442684,0.2839113,1.424106,0.5180099,-0.9732102,0.1897797,15.88859,30.29783,-0.1574965,-0.1060955,-0.04639322,-0.2436143,-0.8511401,2.740963,0.4067187,1.496238,0.3891356,-0.04291591,0.2135336,-0.1363586,-1.36223,0.1363971,0.08437427,0.4976476,1.481311,0.2361593,0.05248956,1.66541,0.574886,311.5733,92.34425,188.7773,True
6,1.533336,0.04371864,0.1270595,0.2263557,4.487872,1.146907,-1.443304,0.2825824,1.424146,0.5194454,-0.970433,0.2503064,15.75597,31.43347,-0.1947831,-0.1030162,-0.04618452,-0.2436318,-0.8458338,2.739121,0.4057863,1.496159,0.3911054,-0.02464578,0.1985987,-0.1205815,-1.362879,0.1381588,0.08363391,0.4971999,1.481335,0.238245,0.05024966,1.664967,0.5764747,311.2281,91.83703,189.0845,True
6,1.544447,0.03081484,0.1482826,0.2146074,4.485669,1.14913,-1.442805,0.281356,1.424103,0.5210104,-0.9672132,0.2899037,15.62334,31.86201,-0.206406,-0.1126709,-0.03336441,-0.2442497,-0.8399245,2.736051,0.4048914,1.496282,0.3929965,-0.04165515,0.1889976,-0.1172331,-1.363787,0.1400964,0.08425895,0.4966833,1.481448,0.2403381,0.04818396,1.664606,0.5780126,311.0516,91.42683,189.4336,True
6,1.555558,0.004106745,0.174849,0.225262,4.483092,1.152441,-1.441056,0.2801811,1.424141,0.5224004,-0.9642758,0.2637353,15.46419,31.45489,-0.2182437,-0.08817814,-0.04175781,-0.2436606,-0.8383223,2.737319,0.4040825,1.496302,0.3948693,-0.069277,0.1900331,-0.1095071,-1.364546,0.1424052,0.08546297,0.4961311,1.481516,0.2424786,0.04622579,1.664302,0.5794789,311.0079,91.09733,189.6976,True
6,1.566669,-0.01183913,0.1844461,0.2455203,4.480974,1.156239,-1.439398,0.278987,1.424395,0.523917,-0.9597207,0.4119569,15.19894,30.21213,-0.2258196,-0.08285511,-0.05770496,-0.2425543,-0.8315542,2.733748,0.4034734,1.496367,0.3966451,-0.07523039,0.2048531,-0.06254655,-1.363488,0.1451573,0.08604221,0.4955494,1.481565,0.244674,0.04431676,1.663914,0.580847,311.0246,90.85992,189.8348,True
6,1.577781,-0.00109385,0.1610509,0.2434365,4.480331,1.159003,-1.439321,0.2778206,1.424787,0.5255733,-0.9552764,0.4006017,14.85411,28.15513,-0.2117576,-0.08507191,-0.0151674,-0.2442934,-0.8289616,2.733329,0.4027843,1.496499,0.3985043,-0.04646913,0.2197777,-0.06172124,-1.363864,0.1480692,0.08494259,0.4950268,1.481611,0.2468081,0.04242397,1.663487,0.5822375,310.9559,90.50011,189.9885,True
6,1.588892,0.006506853,0.1291371,0.2477814,4.480414,1.161983,-1.439025,0.2767094,1.425129,0.5271974,-0.9522122,0.274823,14.42971,25.54103,-0.1836615,-0.1756123,0.01107848,-0.2472591,-0.8126628,2.718638,0.4021124,1.496641,0.4003186,-0.008358132,0.2454127,-0.08547267,-1.36528,0.1518216,0.08296359,0.4945516,1.481646,0.2489543,0.04058398,1.663175,0.5836743,310.7878,89.94304,190.3593,True
6,1.600003,-0.03076182,0.1150979,0.2362377,4.479943,1.164387,-1.436925,0.275565,1.425339,0.5288355,-0.9504524,0.1566441,13.97878,23.05549,-0.1782195,-0.2054516,0.01735036,-0.2487062,-0.8000684,2.708304,0.4011247,1.49683,0.4022403,0.0009939112,0.2465177,-0.1100608,-1.3671,0.1545607,0.08221045,0.4940946,1.481667,0.2510779,0.03880355,1.663116,0.5851111,310.6176,89.43389,190.7633,True
6,1.611114,-0.05415643,0.09579405,0.2246676,4.47963,1.166625,-1.435055,0.274407,1.425724,0.5306699,-0.9472395,0.2902979,13.44828,20.78423,-0.178443,-0.1191745,0.02184074,-0.2484127,-0.8069887,2.717025,0.400149,1.496969,0.4041562,-0.03263794,0.2380939,-0.1747436,-1.371021,0.1571976,0.0830853,0.4937164,1.481667,0.2532024,0.03708023,1.663203,0.586455,310.5425,89.18758,190.9497,True
6,1.622225,-0.05296163,0.06276584,0.2226621,4.480233,1.169315,-1.434052,0.2733141,1.426015,0.5324614,-0.942122,0.4632238,12.86472,18.81294,-0.2000851,-0.07969341,-0.02269109,-0.2464207,-0.8065226,2.71936,0.3990172,1.497094,0.4060669,-0.04982415,0.2402294,-0.1884311,-1.373259,0.1600344,0.08375189,0.4932302,1.481694,0.2553089,0.03538913,1.663276,0.5876426,310.5412,89.04337,190.9831,True
6,1.633336,-0.03994719,-0.009680748,0.203689,4.482964,1.170568,-1.433762,0.2720294,1.426643,0.5342138,-0.9390711,0.2729741,12.20159,17.09878,-0.2150324,-0.07546741,-0.02686304,-0.2464724,-0.8024999,2.718313,0.3981729,1.497168,0.4078395,-0.05081673,0.2306213,-0.1820485,-1.374867,0.1623647,0.08383524,0.4927132,1.481769,0.2574103,0.03368313,1.66341,0.588772,310.4829,88.87361,190.9392,True
6,1.644447,-0.007848572,-0.06611653,0.1739576,4.485617,1.171427,-1.434741,0.2710596,1.42703,0.5358462,-0.9370908,0.1769359,11.45889,15.66317,-0.1882745,-0.1116221,-0.02283902,-0.2473885,-0.7931173,2.710392,0.3973922,1.497386,0.409627,-0.04224245,0.2242202,-0.1768132,-1.376367,0.1647523,0.08349303,0.4922302,1.481882,0.2594864,0.03199084,1.663657,0.589933,310.3833,88.71371,190.8566,True
6,1.655559,0.008144846,-0.08743542,0.1516001,4.48735,1.172112,-1.435279,0.2700696,1.427442,0.5374968,-0.9345442,0.2293523,10.74271,14.50611,-0.1495129,-0.1659676,0.02368074,-0.2506748,-0.7820378,2.6998,0.3965302,1.497618,0.4113991,-0.04202548,0.2316247,-0.1544278,-1.377102,0.1676162,0.0832885,0.491702,1.481965,0.261586,0.03033355,1.663893,0.5910693,310.3389,88.64117,190.7971,True
6,1.66667,-0.00245983,-0.1173791,0.1304324,4.489744,1.172476,-1.434852,0.2690273,1.427742,0.5391753,-0.932623,0.1715815,10.18567,13.77759,-0.1441364,-0.1159782,0.05894212,-0.2521193,-0.7867929,2.705805,0.3956876,1.497941,0.4132152,-0.07576095,0.2357886,-0.1168104,-1.376904,0.1704166,0.08470557,0.4911684,1.48212,0.2635877,0.02857962,1.664087,0.5921333,310.2968,88.76024,190.6532,True
6,1.677781,-0.0130163,-0.1269584,0.1464929,4.491628,1.1748,-1.433799,0.2678392,1.428105,0.5404944,-0.9290587,0.3222164,9.840847,13.52046,-0.1892212,-0.02127057,0.04664422,-0.250988,-0.7973512,2.719694,0.3946761,1.498032,0.4149194,-0.09168261,0.2325673,-0.1113401,-1.377785,0.1729282,0.08573062,0.4906637,1.482153,0.2656703,0.02676157,1.663991,0.5930709,310.2235,88.9101,190.4069,True
6,1.688892,-0.01507011,-0.1140565,0.1837418,4.492909,1.178057,-1.432832,0.2667372,1.428501,0.5421045,-0.9247869,0.385645,9.681698,13.6276,-0.2288712,-0.005311295,0.01174325,-0.2498631,-0.797046,2.723361,0.3939058,1.498088,0.4167094,-0.1052366,0.1962799,-0.08250163,-1.377548,0.1738288,0.08722918,0.4898445,1.482208,0.2676954,0.02478976,1.663663,0.5940244,310.0739,88.95898,190.1719,True
6,1.700003,-0.03314509,-0.1034035,0.2040215,4.493971,1.181101,-1.431364,0.2656201,1.428935,0.5435991,-0.9214036,0.304054,9.761274,13.92758,-0.2086331,-0.02333431,0.001992097,-0.2499558,-0.7929072,2.720889,0.3931409,1.498271,0.4185433,-0.07852046,0.1739023,-0.07427818,-1.378047,0.1750444,0.08700441,0.4892236,1.482328,0.2698238,0.02265956,1.663191,0.5950515,309.8199,88.87888,190.1056,True
6,1.711114,-0.04067006,-0.09387493,0.1954926,4.494948,1.182917,-1.430256,0.2646151,1.429416,0.5450666,-0.9186627,0.246117,9.973473,14.59181,-0.1347184,-0.0935358,0.04189871,-0.2528661,-0.7831613,2.710544,0.3925434,1.498577,0.4201581,-0.02532142,0.1845945,-0.08115697,-1.378991,0.1774845,0.08495884,0.4886396,1.482412,0.2718225,0.02042395,1.662716,0.5960453,309.5045,88.54212,190.3537,True
6,1.722225,-0.03235197,-0.05231665,0.1846751,4.494157,1.184706,-1.429792,0.2635398,1.429942,0.5464125,-0.9151612,0.3160853,10.26525,15.66317,-0.1206422,-0.09999175,0.08122487,-0.2553875,-0.782526,2.71091,0.3917877,1.498948,0.4218674,-0.031819,0.2027079,-0.08958375,-1.380011,0.1804236,0.08521263,0.4881064,1.482646,0.2737577,0.01814747,1.662358,0.5969248,309.177,88.11337,190.6506,True
6,1.733337,-0.02814454,-0.02774864,0.1973659,4.49398,1.18756,-1.429028,0.2624403,1.430501,0.547941,-0.9123526,0.2522659,10.66313,17.09878,-0.1363484,-0.1140031,0.1260156,-0.2587112,-0.7810687,2.711599,0.3909444,1.499304,0.4235549,-0.06273443,0.1845786,-0.09358192,-1.38101,0.1819141,0.08654448,0.4876074,1.482704,0.2757573,0.01591767,1.662196,0.5976552,308.8437,87.77396,190.8101,True
6,1.744448,-0.02712935,-0.0106817,0.2026309,4.49387,1.190088,-1.428241,0.2612865,1.431236,0.5493982,-0.9102754,0.1860812,11.08753,18.83437,-0.1888032,-0.04700382,0.1136868,-0.2587692,-0.7885455,2.722646,0.3900009,1.499576,0.4252138,-0.1257197,0.1377017,-0.110117,-1.382755,0.1820024,0.09003748,0.4869196,1.482731,0.2777185,0.01385096,1.66226,0.5983105,308.5383,87.59665,190.7312,True
6,1.755559,-0.02816372,-0.01386486,0.2079747,4.494573,1.192563,-1.427349,0.260206,1.431995,0.5508349,-0.9076181,0.2396995,11.37931,20.6771,-0.2050244,-0.03522746,0.07224161,-0.2580236,-0.7866011,2.723254,0.3890729,1.500047,0.4269176,-0.1448894,0.1312967,-0.1099496,-1.383857,0.1833297,0.09199597,0.4863205,1.482811,0.2796421,0.01202038,1.662532,0.5990326,308.3661,87.41483,190.6007,True
6,1.76667,-0.03762889,-0.05977741,0.1879373,4.496957,1.193884,-1.426411,0.2593613,1.432964,0.5523214,-0.905176,0.219928,11.53846,22.2627,-0.1867427,-0.05014786,0.09340085,-0.2599432,-0.7852243,2.723099,0.3882725,1.500647,0.4284759,-0.1266707,0.1344711,-0.0973371,-1.384318,0.1850181,0.0924567,0.4857172,1.482972,0.2814991,0.01041164,1.662988,0.5998663,308.3172,87.18875,190.5799,True
6,1.777781,-0.03864185,-0.08005214,0.1784346,4.498638,1.195576,-1.42567,0.2584254,1.4338,0.5538466,-0.9030374,0.1925792,11.64456,23.50546,-0.1727001,-0.06297088,0.1231215,-0.262641,-0.784947,2.72424,0.3875197,1.501137,0.4299994,-0.09367161,0.1462099,-0.09975974,-1.385347,0.1871313,0.09188012,0.4850845,1.483214,0.2833788,0.008965441,1.663633,0.6007882,308.3238,87.00597,190.6428,True
6,1.788892,-0.05782295,-0.09617692,0.158315,4.500412,1.196428,-1.424215,0.2576624,1.434613,0.5553501,-0.901022,0.1816944,11.69761,24.36254,-0.1502329,-0.06935246,0.1389718,-0.2650943,-0.7842242,2.72454,0.3870112,1.501561,0.4313068,-0.07657318,0.1621839,-0.0934991,-1.385954,0.1895109,0.09170968,0.4844677,1.483469,0.2851701,0.007675525,1.664388,0.6016994,308.3217,86.93642,190.6764,True
6,1.800003,-0.06753336,-0.1027472,0.1157523,4.501667,1.196036,-1.423195,0.2569201,1.435464,0.5569077,-0.8998182,0.107774,11.77719,24.68395,-0.139595,-0.00442661,0.1721124,-0.2669521,-0.7964495,2.737583,0.3861707,1.502058,0.4326227,-0.07969587,0.1632202,-0.08494692,-1.386481,0.1912718,0.09254564,0.4838704,1.483682,0.2869291,0.00652591,1.665235,0.6025418,308.2735,87.03498,190.545,True
6,1.811115,-0.07285341,-0.1348464,0.08072456,4.504121,1.195396,-1.422345,0.256164,1.43636,0.5586057,-0.8977394,0.1885095,11.90981,24.46968,-0.1395658,0.01044847,0.1870703,-0.2691151,-0.8022653,2.744869,0.3853653,1.502645,0.4340773,-0.1060054,0.1428971,-0.05277209,-1.385866,0.192025,0.09446073,0.4832383,1.483879,0.2885983,0.005508279,1.666116,0.6033235,308.2746,87.14929,190.322,True
6,1.822226,-0.08441482,-0.1978323,0.05433275,4.508118,1.194426,-1.421258,0.2553228,1.437257,0.560334,-0.8968126,0.08258847,12.01592,23.65545,-0.1459373,-0.002340157,0.1838755,-0.2710826,-0.8032893,2.747698,0.3844896,1.50312,0.4355531,-0.1280133,0.1023305,-0.01641496,-1.384837,0.191611,0.0968099,0.4825587,1.484034,0.2901628,0.004607164,1.667039,0.6041217,308.2532,87.29625,190.019,True
6,1.833337,-0.08649506,-0.2266639,0.03633034,4.511499,1.193851,-1.420319,0.2546043,1.438247,0.5620086,-0.8961212,0.06216236,12.09549,22.19841,-0.1302254,0.02549603,0.1487137,-0.2710725,-0.8078161,2.753056,0.3837692,1.503712,0.4369898,-0.1555655,0.0863052,-0.002329793,-1.384316,0.1919637,0.09935269,0.4819021,1.484232,0.2917628,0.003798688,1.66804,0.6050881,308.234,87.56116,189.601,True
6,1.844448,-0.08861901,-0.2544758,0.01936535,4.515831,1.192468,-1.419135,0.2540327,1.438396,0.5615854,-0.8948738,0.1127903,12.14854,20.24855,-0.08981683,0.05543053,0.1517752,-0.2721069,-0.8158306,2.760494,0.3830265,1.504304,0.4383516,-0.1716248,0.0948291,-0.009614717,-1.384581,0.1934325,0.1015202,0.4812179,1.484368,0.2933531,0.003041966,1.66906,0.6062731,308.2712,87.94186,189.169,True
6,1.855559,-0.08222931,-0.2565793,0.01828957,4.518598,1.192292,-1.418408,0.2534393,1.439285,0.5629883,-0.8939758,0.08024903,12.14854,18.23441,-0.08118001,0.05858861,0.1751749,-0.2743343,-0.822158,2.767192,0.3823091,1.504871,0.4396789,-0.1930928,0.08632211,-0.02753242,-1.385437,0.1941488,0.1041834,0.4805623,1.484562,0.2948651,0.002264796,1.670039,0.6076153,308.3196,88.33315,188.8417,True
6,1.86667,-0.0705527,-0.2555043,0.007591959,4.521316,1.191533,-1.418206,0.252898,1.440183,0.5643682,-0.892388,0.1436438,12.04244,16.19884,-0.08213101,0.05002082,0.1932673,-0.2769128,-0.8267334,2.772705,0.381638,1.505382,0.4409058,-0.1951424,0.04795824,-0.02119034,-1.385488,0.1933521,0.1065414,0.4799256,1.484815,0.2964001,0.001572449,1.67073,0.6088614,308.3879,88.53685,188.932,True
6,1.877781,-0.06201273,-0.2640179,0.001189806,4.524423,1.190734,-1.418044,0.2522227,1.441156,0.5656819,-0.8917131,0.05945744,11.80371,14.16327,-0.07576817,0.05005085,0.1879085,-0.2784942,-0.830991,2.777445,0.381025,1.505846,0.4422128,-0.1778914,0.03194459,-0.001144499,-1.384835,0.1930182,0.1079201,0.4792736,1.485076,0.2979405,0.001043145,1.670872,0.6095469,308.3935,88.70495,189.1895,True
6,1.888893,-0.0513694,-0.2618557,-0.000990916,4.527296,1.190144,-1.418007,0.2516574,1.442091,0.5669923,-0.8907395,0.08749764,11.40584,12.14913,-0.07136846,0.01488294,0.1963185,-0.2811238,-0.83062,2.777777,0.3804476,1.506419,0.443363,-0.1467585,0.06386427,0.0252515,-1.383515,0.1945647,0.1081861,0.4786728,1.485304,0.2994194,0.000234942,1.671165,0.6100233,308.2645,88.8809,188.9837,True
6,1.900004,-0.07485093,-0.2438126,0.006486803,4.529455,1.190139,-1.416412,0.2510226,1.442828,0.568295,-0.8892258,0.1365035,10.92838,10.17785,-0.05735853,-0.01281606,0.2110852,-0.2841396,-0.8308921,2.778218,0.3797742,1.506942,0.4447422,-0.128503,0.08301766,0.04215927,-1.382359,0.1960338,0.1088983,0.4780804,1.485532,0.3008206,-0.0008757347,1.671682,0.6104896,308.0964,89.12435,188.4997,True
6,1.911115,-0.1143589,-0.2183859,0.009737793,4.53105,1.190151,-1.413797,0.2503613,1.44349,0.5695293,-0.8877062,0.1365734,10.37135,8.420825,-0.05958722,-0.01490252,0.1919178,-0.2857401,-0.8320213,2.780032,0.3790568,1.507424,0.4460649,-0.1317322,0.0744984,0.03791457,-1.382002,0.1964993,0.1103819,0.4774748,1.485701,0.3022847,-0.002223489,1.672345,0.6110482,307.9234,89.40052,187.9916,True
6,1.922226,-0.1347046,-0.1832536,0.0139172,4.531326,1.189818,-1.411859,0.2497628,1.44452,0.5722449,-0.88457,0.2843754,9.840847,6.899507,-0.06304163,0.007557865,0.1547073,-0.2858637,-0.8355431,2.784217,0.3783554,1.508004,0.4473641,-0.161847,0.04896688,0.007265262,-1.382979,0.1961478,0.1134501,0.4768197,1.485857,0.3037398,-0.003644824,1.672962,0.6117042,307.7552,89.61281,187.5931,True
6,1.933337,-0.1315858,-0.1608557,0.01808638,4.532457,1.189911,-1.410505,0.2490935,1.445286,0.573509,-0.8817593,0.2534211,9.310343,5.678166,-0.07283069,0.03209201,0.131392,-0.2861295,-0.8403048,2.790006,0.3776351,1.508522,0.4486573,-0.1980735,0.03615685,0.005454954,-1.383016,0.1960017,0.1167828,0.4762874,1.485952,0.3051813,-0.005016836,1.673488,0.6124601,307.5646,89.67187,187.3909,True
6,1.944448,-0.1060634,-0.1533119,0.01371083,4.533856,1.189674,-1.410241,0.2484681,1.446035,0.5747423,-0.880693,0.09438924,8.832892,4.692521,-0.08569619,0.05337271,0.1272561,-0.2870302,-0.8461864,2.796981,0.3770508,1.509039,0.4498627,-0.2192581,0.02652694,0.01841957,-1.382372,0.1958832,0.1199333,0.4757428,1.486058,0.3065369,-0.006297621,1.674129,0.6134337,307.3018,89.7306,187.0872,True
6,1.955559,-0.08900711,-0.155359,0.01685663,4.535689,1.189657,-1.409765,0.2478585,1.446853,0.5759811,-0.8800458,0.05767591,8.461537,3.856867,-0.08667576,0.04162325,0.1378851,-0.2888252,-0.848669,2.80039,0.3764161,1.509537,0.4510972,-0.2171308,0.03398483,0.01841839,-1.382017,0.1964996,0.1221243,0.4751197,1.486189,0.3079772,-0.007423802,1.67508,0.6149333,307.0831,89.79286,186.7224,True
6,1.966671,-0.07613589,-0.1616233,0.03491602,4.5376,1.189958,-1.40926,0.2473002,1.447635,0.5775611,-0.8798727,0.01464142,8.196285,3.299763,-0.07275228,0.02353998,0.1420237,-0.290618,-0.8493146,2.801277,0.3757644,1.510125,0.4522505,-0.1960941,0.0510904,-0.008388985,-1.382953,0.197807,0.1232724,0.4745121,1.486306,0.3094113,-0.008135119,1.675969,0.6166631,307.0548,89.77459,186.8467,True
6,1.977782,-0.06341711,-0.1434616,0.03587552,4.538756,1.190259,-1.408896,0.2465671,1.448308,0.5786695,-0.8786189,0.1137638,8.01061,3.042639,-0.07596324,0.0001321752,0.1270691,-0.291777,-0.8477603,2.80077,0.3750801,1.510717,0.4533441,-0.1932181,0.06073734,-0.04141919,-1.384408,0.1989377,0.125066,0.4739503,1.486587,0.3108377,-0.008524249,1.676702,0.6183938,307.1756,89.81698,187.1335,True
6,1.988893,-0.05609447,-0.1125313,0.03572622,4.538925,1.190285,-1.408295,0.2459498,1.448823,0.5800326,-0.877551,0.09599578,7.931033,3.106921,-0.1004701,0.02771718,0.142186,-0.2933419,-0.8541541,2.808921,0.3743652,1.511299,0.4544961,-0.1987629,0.0831476,-0.06262892,-1.385618,0.200878,0.1271691,0.4733781,1.48682,0.3121831,-0.008809444,1.677351,0.6199872,307.3188,89.89919,187.3442,True
6,2.000004,-0.04343972,-0.07196683,0.04513125,4.538501,1.19117,-1.408086,0.2451967,1.449246,0.581208,-0.8767622,0.07080609,7.877984,3.38547,-0.1057533,0.05214446,0.1625178,-0.2952338,-0.8609512,2.816628,0.3735985,1.511906,0.4556582,-0.1763686,0.1172318,-0.05745202,-1.385649,0.2032079,0.1280538,0.4728805,1.487031,0.3134847,-0.009159503,1.677992,0.6214008,307.4449,89.97707,187.4279,True
6,2.011115,-0.009313982,-0.08035018,0.0450484,4.539696,1.191567,-1.409017,0.2443062,1.449746,0.58233,-0.8756911,0.09686388,7.851457,3.835439,-0.1101118,0.06069124,0.1497785,-0.2960663,-0.8652222,2.822129,0.3727642,1.512405,0.4568486,-0.1550068,0.1268184,-0.05124274,-1.385803,0.2049127,0.1288057,0.4723627,1.487309,0.3147609,-0.009659182,1.67861,0.6225919,307.5495,90.02609,187.4411,True
6,2.022226,-0.001772571,-0.1005572,0.04615705,4.541568,1.191834,-1.409207,0.2435506,1.450188,0.5834308,-0.8755062,0.01571815,7.798407,4.26398,-0.1177289,0.05968546,0.1178574,-0.2960498,-0.8671178,2.825437,0.3719843,1.512793,0.4581575,-0.1452453,0.1278549,-0.03215479,-1.385317,0.2063453,0.1299857,0.4718061,1.487499,0.316077,-0.01030574,1.679183,0.6236411,307.5913,90.03627,187.3448,True
6,2.033337,-0.003824434,-0.110113,0.05791531,4.543309,1.19261,-1.408975,0.2428119,1.450468,0.5843501,-0.8759707,-0.04294509,7.771884,4.649667,-0.138423,0.07580809,0.04130821,-0.2936625,-0.869545,2.830085,0.3713414,1.512798,0.4592385,-0.1280144,0.1033266,-0.01425984,-1.384928,0.2065799,0.1308624,0.4713002,1.487762,0.3172293,-0.01109256,1.679674,0.6245742,307.6382,89.99805,187.3042,True
6,2.044448,0.006801124,-0.08763407,0.07697798,4.543787,1.194079,-1.409025,0.2421086,1.450853,0.5851948,-0.8747004,0.1161777,7.771884,4.928219,-0.130963,0.07689153,0.04127846,-0.2939443,-0.8728806,2.834375,0.3707068,1.513047,0.460243,-0.110844,0.07881468,-0.002750292,-1.384586,0.2065798,0.1315423,0.4707075,1.487961,0.318465,-0.01208063,1.679996,0.6253504,307.685,90.09531,187.2019,True
6,2.055559,0.02809613,-0.08114488,0.08115193,4.544594,1.195145,-1.409901,0.2413074,1.451229,0.5861154,-0.8737426,0.08614153,7.798407,4.992498,-0.08706597,0.04712652,0.06653725,-0.2958421,-0.8736244,2.834513,0.3701887,1.513284,0.4613218,-0.09661373,0.04253707,0.03432862,-1.383132,0.2056305,0.13228,0.470101,1.488029,0.3195887,-0.01324633,1.680091,0.6259259,307.6187,90.19987,187.0715,True
6,2.06667,0.03547534,-0.05976977,0.0757235,4.543862,1.195837,-1.410774,0.2405736,1.452039,0.588639,-0.8736771,0.005053826,7.90451,5.592456,-0.06556591,-0.03694348,0.05661748,-0.297197,-0.8632738,2.824527,0.3695374,1.513572,0.4622195,-0.1016996,0.02757372,0.05885389,-1.381621,0.2052188,0.1337525,0.4694969,1.488215,0.3206108,-0.01451479,1.68001,0.626283,307.4323,90.15552,187.0193,True
6,2.077781,0.03745435,-0.02889206,0.06603678,4.543088,1.196559,-1.411162,0.2396894,1.452295,0.5897377,-0.8740883,-0.03782767,8.143235,6.899507,-0.08481759,-0.03696332,0.04180238,-0.2971694,-0.8619491,2.824949,0.3686416,1.514006,0.4632595,-0.1250023,0.02965792,0.0729302,-1.380303,0.2054267,0.1359967,0.4688592,1.488337,0.3216817,-0.01584441,1.679924,0.6264884,307.1978,89.99615,187.0049,True
6,2.088892,0.05222062,0.003109165,0.06054968,4.542072,1.197187,-1.412133,0.2387411,1.452528,0.5905979,-0.8737123,0.03449852,8.461537,8.892222,-0.1000166,0.03759869,0.02929931,-0.2962101,-0.8712074,2.835408,0.3676666,1.514206,0.4641898,-0.1294042,0.05737026,0.06023763,-1.379963,0.2069831,0.1372873,0.4683136,1.488375,0.3227618,-0.01729229,1.680015,0.6267552,306.9649,90.01393,186.6068,True
6,2.100003,0.09145766,0.06405413,0.07832923,4.539636,1.199323,-1.414155,0.23783,1.452663,0.5914369,-0.8728617,0.07716262,8.885942,11.59203,-0.1332276,0.09078909,0.02322136,-0.2954277,-0.8805004,2.846913,0.3668956,1.514386,0.4651995,-0.114725,0.07872644,0.03776795,-1.380066,0.2086753,0.1378367,0.4678156,1.488484,0.3236997,-0.0188446,1.680441,0.6275461,306.7701,90.05482,186.0167,True
6,2.111114,0.1254273,0.1004472,0.08767352,4.537614,1.200911,-1.416249,0.2369554,1.452873,0.5922167,-0.8730726,-0.02008251,9.389919,15.08464,-0.144998,0.09821981,0.01903858,-0.2951113,-0.8843825,2.852718,0.3663756,1.514628,0.466033,-0.08511576,0.05748633,0.01293873,-1.380795,0.2086087,0.137736,0.4672866,1.48855,0.3247118,-0.02015574,1.680761,0.6287217,306.7107,89.91495,185.9931,True
6,2.122225,0.1317054,0.123891,0.08224524,4.535564,1.201982,-1.417737,0.236135,1.453029,0.5930581,-0.874131,-0.09670214,9.920423,18.83437,-0.1051631,0.01834161,0.05377402,-0.2976136,-0.8777936,2.846124,0.3657934,1.514866,0.466784,-0.07371466,0.03944726,-0.02129351,-1.38216,0.2086141,0.1381741,0.4667433,1.488679,0.3257694,-0.02117934,1.680856,0.6301082,306.7368,89.63106,186.403,True
6,2.133336,0.1135086,0.1419195,0.07905062,4.533621,1.203051,-1.418018,0.2352727,1.452996,0.5938652,-0.8738843,0.02312863,10.45093,22.62695,-0.076262,-0.01994663,0.05990868,-0.2988573,-0.8737027,2.842175,0.3651593,1.514991,0.4676268,-0.08029322,0.06930608,-0.03928729,-1.382929,0.2105626,0.1389206,0.466163,1.488721,0.3267434,-0.02199568,1.680692,0.6315352,306.8376,89.17651,187.0581,True
6,2.144447,0.09434186,0.134363,0.07275037,4.532531,1.203809,-1.418214,0.2344219,1.453013,0.5946753,-0.872817,0.09705535,10.98143,26.2267,-0.07846119,-0.01353456,0.04928402,-0.298943,-0.8742819,2.843632,0.3644289,1.515076,0.4685757,-0.08021294,0.0991153,-0.02857668,-1.382526,0.2126896,0.1394397,0.4655632,1.488889,0.3277118,-0.02280756,1.680369,0.6329136,306.9099,88.78165,187.6425,True
6,2.155558,0.08051915,0.1279153,0.07281987,4.531486,1.204814,-1.418391,0.2335083,1.452941,0.595494,-0.871283,0.1392745,11.43236,28.94793,-0.1137457,0.009830415,0.03887245,-0.2986096,-0.8775086,2.849354,0.3635508,1.514948,0.4695106,-0.0405942,0.1172046,-0.006555602,-1.381635,0.2144592,0.1381512,0.4649846,1.488939,0.3286269,-0.02372042,1.679988,0.6342298,306.9045,88.48701,188.0405,True
6,2.166669,0.07627989,0.1289927,0.08028572,4.530243,1.206185,-1.41889,0.2325824,1.452749,0.5963712,-0.8709101,0.03292519,11.80371,30.81208,-0.1405662,0.02793531,0.0124304,-0.2975896,-0.8798946,2.854082,0.3628243,1.514837,0.4703414,0.01502743,0.08204307,0.01522277,-1.38074,0.2140138,0.1362702,0.4643994,1.489102,0.3294342,-0.02472913,1.679632,0.6354645,306.8263,88.21045,188.3629,True
6,2.17778,0.05921826,0.1127947,0.06441042,4.530809,1.206233,-1.418507,0.2316619,1.45196,0.5944619,-0.8709106,-0.0002100702,12.01592,31.5406,-0.1174205,0.006878965,-0.05380269,-0.2948167,-0.8748325,2.849699,0.3621454,1.514983,0.4712284,0.02997741,0.04156528,0.01606716,-1.380748,0.2130156,0.1357275,0.4638008,1.4891,0.3302479,-0.0257879,1.679363,0.6365725,306.7235,87.99828,188.6101,True
6,2.188891,0.02613337,0.1093951,0.04323059,4.529706,1.206118,-1.41762,0.2309354,1.451805,0.5950687,-0.8713005,-0.03561485,12.04244,31.11206,-0.06201716,-0.04614586,-0.0819338,-0.293777,-0.8652962,2.839228,0.3615316,1.515146,0.4720147,0.008600956,0.04476152,0.008817041,-1.380866,0.2137651,0.1362534,0.4631799,1.489161,0.3310754,-0.02683285,1.67916,0.637506,306.666,87.81099,188.7888,True
6,2.200002,0.06039597,0.04554012,0.02203265,4.531188,1.205496,-1.419334,0.2303388,1.451729,0.595751,-0.8702332,0.0979047,11.93634,29.74073,-0.04047393,-0.06747696,-0.05014499,-0.2948087,-0.8609124,2.834648,0.3608193,1.515279,0.472749,-0.04062121,0.0714021,-0.01196818,-1.381445,0.2156216,0.1380441,0.4626175,1.489141,0.3318717,-0.02771287,1.678773,0.6380651,306.7515,87.54351,189.2735,True
6,2.211113,0.1095955,-0.007544868,0.01778359,4.533072,1.20527,-1.422254,0.229699,1.451572,0.5963674,-0.8696542,0.05211949,11.75066,28.02657,-0.05977558,-0.00683783,-0.04029099,-0.2940982,-0.8671375,2.842011,0.3599991,1.515226,0.4734538,-0.08668059,0.08739498,-0.03707426,-1.382601,0.2172684,0.1401949,0.4620957,1.489212,0.3326614,-0.02838423,1.678031,0.6378049,306.7946,87.42962,189.7677,True
6,2.222224,0.1075166,-0.02033494,0.01783145,4.533651,1.205428,-1.423458,0.2289015,1.451301,0.5969112,-0.8721778,-0.23105,11.45889,26.05528,-0.08222476,0.03249624,-0.03367393,-0.2934814,-0.8719823,2.848214,0.3591917,1.515253,0.4742746,-0.08983624,0.0650147,-0.03388747,-1.382798,0.2172491,0.1413281,0.4615113,1.489277,0.3335049,-0.02921609,1.677649,0.6372602,306.6348,87.55959,189.4001,True
6,2.233335,0.09368244,-0.02786506,0.01151886,4.533951,1.205413,-1.423938,0.228111,1.451038,0.5975223,-0.8736356,-0.1313211,11.08753,23.82687,-0.1026809,0.08360283,-0.04621474,-0.2919016,-0.8792716,2.857054,0.3584285,1.515142,0.47508,-0.05886143,0.05223953,-0.02675312,-1.382871,0.2174161,0.14087,0.4608915,1.489403,0.3343661,-0.03011432,1.677482,0.6366903,306.5451,87.95914,188.5617,True
6,2.244446,0.1033689,-0.0448066,0.01792149,4.534443,1.205475,-1.425502,0.2274919,1.451174,0.5995994,-0.8716515,0.1817924,10.6366,21.38418,-0.09427479,0.1017694,-0.05899617,-0.2903709,-0.8836635,2.861933,0.3577709,1.515139,0.4759262,-0.02561876,0.07352144,-0.002527838,-1.381896,0.2188845,0.1397792,0.4602715,1.489414,0.3351166,-0.03109291,1.677242,0.636267,306.6279,88.35396,187.792,True
6,2.255557,0.1076995,-0.05328259,0.02645685,4.535402,1.205934,-1.426893,0.2266986,1.451093,0.6002362,-0.8699397,0.1540408,10.15915,18.8558,-0.05372161,0.03589186,-0.08069371,-0.2893402,-0.8755435,2.853363,0.357227,1.515121,0.4766519,0.02365664,0.1011977,0.0268842,-1.380287,0.220873,0.1373834,0.459675,1.489466,0.3359361,-0.03224959,1.676859,0.6361474,306.7011,88.48805,187.3921,True
6,2.266668,0.1044043,-0.02665343,0.0285048,4.534769,1.206382,-1.427819,0.2259441,1.451006,0.6009946,-0.8699428,-0.00236824,9.734747,16.58453,-0.03964598,-0.04715641,-0.08311589,-0.2894467,-0.8629768,2.84131,0.3565586,1.51523,0.4772797,0.03433347,0.108656,0.02999386,-1.379673,0.2222706,0.1364244,0.4590504,1.489567,0.3366539,-0.03361966,1.676419,0.636488,306.5847,88.53878,187.0526,True
6,2.277779,0.1021831,0.003194217,0.03586925,4.533729,1.207193,-1.428761,0.2250678,1.450828,0.601577,-0.8686571,0.1165437,9.336869,14.52753,-0.0331651,-0.04398432,-0.06502741,-0.2895165,-0.8628495,2.841378,0.3556004,1.515132,0.4778645,0.01914678,0.09165796,0.0002750838,-1.380774,0.2228107,0.1367243,0.4584713,1.489614,0.3373771,-0.03515207,1.675962,0.6374936,306.3731,88.5393,186.8011,True
6,2.28889,0.08936782,0.0212933,0.04756977,4.532985,1.208274,-1.429086,0.2241967,1.450676,0.6021359,-0.8666118,0.1847199,8.992041,12.70623,-0.04616708,-0.01093463,-0.08830735,-0.2875314,-0.8643715,2.843783,0.3547507,1.515191,0.4785054,-0.02489714,0.06187476,-0.03984082,-1.382605,0.222646,0.1386106,0.4577867,1.489619,0.3380318,-0.03664377,1.67522,0.6388642,306.188,88.31416,187.1545,True
6,2.300001,0.08829133,0.03197358,0.05712244,4.532496,1.209255,-1.429844,0.2232404,1.450602,0.6026855,-0.8648914,0.1543866,8.700266,11.03493,-0.08353636,0.05388775,-0.06875497,-0.2867021,-0.8739142,2.855132,0.3537925,1.515259,0.4791975,-0.0408462,0.05866415,-0.03649674,-1.382745,0.2232802,0.1395046,0.4571637,1.489661,0.3387232,-0.03809439,1.67427,0.6404277,305.9959,87.89924,187.8312,True
6,2.311112,0.0861852,0.03412772,0.06671041,4.532231,1.210372,-1.430523,0.2223994,1.45064,0.6031806,-0.8624402,0.2214622,8.435014,9.449324,-0.09303146,0.04104702,-0.05808382,-0.2864773,-0.8734995,2.856013,0.3530524,1.515399,0.4798243,-0.03863681,0.06291071,-0.02798731,-1.382628,0.2241183,0.1396926,0.4565384,1.489757,0.3394334,-0.03952079,1.673189,0.6419829,305.825,87.40848,188.6195,True
6,2.322223,0.08194645,0.03306539,0.07205211,4.532005,1.211364,-1.431125,0.2215268,1.450598,0.6036541,-0.8607704,0.1493222,8.302388,8.227983,-0.1003193,0.007965423,-0.04534744,-0.2867271,-0.8696414,2.853551,0.3522228,1.515499,0.4805083,-0.02892739,0.07035322,-0.01528317,-1.382188,0.2252042,0.1393209,0.4559351,1.489879,0.3401945,-0.04098016,1.672128,0.6433623,305.6359,86.94268,189.3476,True
6,2.333334,0.07449994,0.03091455,0.07314506,4.531796,1.212174,-1.431525,0.2205002,1.450645,0.6041441,-0.858602,0.1955041,8.355438,7.370901,-0.09928869,0.004790984,-0.05281604,-0.2859543,-0.8688986,2.853932,0.3514279,1.5155,0.4811552,-0.02234389,0.0703242,0.003828505,-1.381425,0.2259464,0.1390862,0.455201,1.489943,0.3409591,-0.04251726,1.671195,0.6444503,305.4452,86.57041,189.8964,True
6,2.344445,0.07553461,0.04479358,0.08054774,4.530992,1.213381,-1.432162,0.2195832,1.450536,0.6045501,-0.8562116,0.2152541,8.594163,6.899507,-0.104627,0.0101039,-0.0527738,-0.2852917,-0.8693791,2.85567,0.3506137,1.515645,0.481945,-0.02334457,0.07137551,0.01130093,-1.380899,0.2267253,0.1393366,0.4544986,1.489964,0.3416855,-0.04410792,1.670408,0.6451691,305.2481,86.27328,190.2514,True
6,2.355556,0.0797817,0.05228116,0.08476669,4.53032,1.214563,-1.433009,0.2186599,1.450468,0.6050637,-0.85359,0.2362304,8.965518,6.749518,-0.0972059,0.0229031,-0.05065354,-0.2845502,-0.8711504,2.85836,0.3498227,1.515774,0.4825604,-0.02970444,0.08095572,0.01457536,-1.380502,0.2279318,0.1395619,0.453777,1.490131,0.3424442,-0.04574775,1.669764,0.6455316,305.0845,86.08014,190.383,True
6,2.366668,0.08306121,0.03205737,0.08588752,4.530771,1.215476,-1.433878,0.2177873,1.450394,0.6055741,-0.8514211,0.1945913,9.469496,6.94236,-0.09173287,0.01007618,-0.03047301,-0.2850126,-0.8701855,2.858189,0.3490169,1.515839,0.4832499,-0.01912516,0.1001493,0.008118683,-1.380375,0.2296742,0.1391022,0.4531138,1.490286,0.3431904,-0.04744704,1.669265,0.6456253,304.9462,85.94277,190.3519,True
6,2.377779,0.07037212,0.004295744,0.08176755,4.531749,1.216136,-1.434055,0.2169442,1.450407,0.6060257,-0.8492395,0.1962695,9.999999,7.928005,-0.1077461,0.03025375,-0.02500674,-0.2846546,-0.8733709,2.863098,0.3481323,1.515943,0.483928,-0.01192896,0.1087179,-0.01857458,-1.381389,0.2312158,0.138691,0.452532,1.49039,0.3439283,-0.04910935,1.668775,0.6455212,304.8308,85.79228,190.2498,True
6,2.38889,0.05448639,-0.009580478,0.09145958,4.532412,1.21748,-1.434016,0.2159807,1.450519,0.6066084,-0.8468485,0.215344,10.5305,9.792157,-0.08640824,0.02604479,-0.02086799,-0.2844954,-0.8739714,2.863981,0.3472916,1.516158,0.4845674,0.004825225,0.09920066,-0.049647,-1.38293,0.2322789,0.1378639,0.4519213,1.490535,0.3447359,-0.05074127,1.668249,0.6453438,304.7227,85.69189,190.0843,True
6,2.400001,0.03857043,-0.03204054,0.08413494,4.533556,1.218061,-1.433834,0.2151353,1.450624,0.6072121,-0.8440319,0.2545514,10.98143,12.42768,-0.07240445,-0.001645006,-0.00822898,-0.285109,-0.8711687,2.861555,0.3464678,1.51633,0.4851372,0.005946676,0.07469402,-0.04544125,-1.383173,0.2323398,0.137769,0.4511821,1.490679,0.3454385,-0.05234722,1.667646,0.6451659,304.5837,85.67519,189.8958,True
6,2.411112,0.03331153,-0.05980418,0.07253744,4.535181,1.218384,-1.433979,0.2142234,1.450767,0.6075671,-0.8421181,0.1718624,11.29973,15.51318,-0.07880602,-0.02612988,-0.02210709,-0.2847819,-0.8667412,2.858522,0.3457001,1.516475,0.4857466,-0.01419969,0.07146776,-0.03566152,-1.383088,0.2330739,0.1384692,0.4505549,1.490845,0.3461561,-0.05395724,1.667068,0.6450624,304.3767,85.63534,189.7754,True
6,2.422223,0.02905368,-0.06623479,0.06618251,4.536185,1.218768,-1.43409,0.2133588,1.450893,0.6080866,-0.8403876,0.156034,11.45889,18.79152,-0.09488434,-0.02506164,-0.04119257,-0.2837726,-0.8648466,2.85824,0.3448566,1.516715,0.4862776,-0.03100471,0.07886489,-0.009917923,-1.382179,0.23411,0.1391637,0.4499045,1.490932,0.3468127,-0.05556492,1.66663,0.6450822,304.1579,85.52496,189.7413,True
6,2.433334,0.02380361,-0.08543102,0.06626683,4.537882,1.219272,-1.434087,0.2125011,1.451109,0.6086452,-0.8394236,0.08619552,11.51194,21.49132,-0.1087114,-0.009156577,-0.02829322,-0.2837731,-0.8665135,2.861548,0.3439945,1.516883,0.4869037,-0.03526771,0.08205585,-0.00987214,-1.382192,0.2351398,0.1394652,0.4491551,1.491027,0.3475471,-0.05707332,1.666315,0.6452091,303.9509,85.47598,189.7129,True
6,2.444445,0.03463573,-0.1194308,0.07912745,4.540314,1.220255,-1.434684,0.2115442,1.451528,0.6092181,-0.8383892,0.09334148,11.48541,23.67688,-0.1035613,0.03880785,-0.03564834,-0.2827132,-0.8729187,2.868662,0.3431999,1.516986,0.4876168,-0.03119269,0.07783394,-0.02909219,-1.383027,0.2360389,0.1395653,0.4484368,1.491259,0.3483036,-0.0584303,1.666091,0.6453891,303.8059,85.50729,189.6689,True
6,2.455556,0.0422312,-0.1438588,0.09090401,4.542781,1.221366,-1.435247,0.2106365,1.451862,0.6096861,-0.8373905,0.089967,11.37931,25.21962,-0.0853255,0.01114421,-0.02729671,-0.2828464,-0.8702907,2.866464,0.3423912,1.517161,0.4882104,-0.03119433,0.0682446,-0.0301833,-1.383426,0.2364856,0.1398005,0.4477343,1.491364,0.3490407,-0.0596337,1.665959,0.6456293,303.7191,85.53472,189.608,True
6,2.466667,0.04112464,-0.1353481,0.0887479,4.544112,1.222123,-1.43554,0.2097847,1.452157,0.6101487,-0.8372728,0.009588539,11.32626,25.66959,-0.08090407,-0.03573141,-0.02318498,-0.2833614,-0.8628418,2.859992,0.3415878,1.517408,0.4886892,-0.03124914,0.08103661,-0.0344164,-1.383693,0.2378629,0.1399728,0.4470351,1.49154,0.3496881,-0.06073596,1.665952,0.6459016,303.6682,85.57709,189.5714,True
6,2.477778,0.03887364,-0.1194346,0.07271869,4.544822,1.222174,-1.435826,0.2088904,1.452417,0.6104765,-0.8366171,0.05950722,11.22016,25.11249,-0.09788296,-0.01667088,-0.0006737523,-0.2838647,-0.8651593,2.863894,0.3407189,1.517651,0.4892263,-0.02602016,0.1023642,-0.04294271,-1.384076,0.2398742,0.139743,0.4464286,1.491734,0.3503656,-0.06181375,1.666058,0.6461086,303.6716,85.6605,189.5512,True
6,2.488889,0.05053139,-0.1023388,0.07474895,4.545571,1.222999,-1.436646,0.2080094,1.452811,0.6108778,-0.8356467,0.08777352,11.06101,23.63402,-0.110634,-0.002895884,0.01327446,-0.2842584,-0.8671148,2.867399,0.3399948,1.517976,0.4897306,-0.01653331,0.1162373,-0.05259538,-1.384729,0.2418209,0.139225,0.4458037,1.491997,0.3510258,-0.06288497,1.666175,0.6461441,303.6889,85.74634,189.494,True
6,2.5,0.05471253,-0.07459392,0.08316086,4.545653,1.224209,-1.437191,0.2070813,1.453154,0.6112566,-0.8349553,0.06218081,10.82228,21.27705,-0.1042772,0.01309628,0.01541424,-0.2842871,-0.8698672,2.870982,0.3391401,1.518374,0.4902282,-0.01656941,0.1066596,-0.05687169,-1.385331,0.2427469,0.1392644,0.4452796,1.492311,0.3516717,-0.06397897,1.666299,0.6460529,303.6719,85.80724,189.354,True
6,2.511111,0.04711401,-0.03946784,0.08306574,4.54512,1.225254,-1.437274,0.2060881,1.453442,0.6116583,-0.8351567,-0.01911137,10.50398,18.81294,-0.103267,0.01100323,0.002620423,-0.2838797,-0.8695775,2.871717,0.3382736,1.518816,0.4908354,-0.02832662,0.0960124,-0.06210161,-1.386024,0.2436277,0.1397632,0.4446289,1.492626,0.3522961,-0.06510092,1.666445,0.6459377,303.6142,85.85599,189.1638,True
6,2.522222,0.03849979,-0.01285493,0.08726176,4.544616,1.226381,-1.437246,0.2051718,1.453864,0.6120536,-0.8346049,0.05038345,10.1061,16.54168,-0.1107621,0.02163941,0.001627997,-0.2837683,-0.8716779,2.875254,0.337474,1.519246,0.4913263,-0.03884688,0.09171756,-0.04815582,-1.385964,0.2445296,0.1404343,0.4439662,1.493059,0.3528509,-0.06624634,1.666612,0.6458508,303.5617,85.84001,189.0345,True
6,2.533333,0.03741646,-0.01180496,0.08406773,4.544897,1.227239,-1.437466,0.2041803,1.454354,0.612447,-0.8337372,0.07865503,9.70822,14.72038,-0.1117822,0.01842187,0.006955337,-0.2840331,-0.8720912,2.876831,0.336747,1.519941,0.4917755,-0.04399008,0.07889456,-0.03002427,-1.385674,0.2449449,0.140976,0.4432946,1.493506,0.3534675,-0.06742355,1.666788,0.6458182,303.5299,85.73502,189.0097,True
6,2.544444,0.04600676,-0.02025712,0.09472058,4.54567,1.228595,-1.438014,0.2032684,1.455082,0.6127739,-0.8333169,0.03762357,9.336869,13.41333,-0.1084696,0.007732101,0.02395844,-0.2850285,-0.8719466,2.877848,0.3359443,1.520546,0.4923184,-0.04393565,0.0703622,-0.02471237,-1.385668,0.2454395,0.1413899,0.4426329,1.494183,0.3539834,-0.06862864,1.667006,0.6458825,303.4776,85.57497,189.0501,True
6,2.555555,0.06525163,-0.03615207,0.09683472,4.54669,1.22957,-1.439203,0.2023839,1.455746,0.6131604,-0.8333063,0.0005890492,9.018568,12.62053,-0.09040542,-0.008145288,0.005710918,-0.2847441,-0.8690757,2.87536,0.3351388,1.521139,0.4928546,-0.03758343,0.07144068,-0.02902869,-1.385999,0.2464063,0.141392,0.4419651,1.494771,0.3545642,-0.06981942,1.667301,0.6460471,303.3951,85.42249,189.1297,True
6,2.566666,0.07913587,-0.06386449,0.07664208,4.548254,1.229585,-1.440448,0.2014838,1.45657,0.6135798,-0.8333026,-8.43878E-05,8.806365,12.25627,-0.09053831,-0.01764989,-0.02414475,-0.2834195,-0.8662552,2.873728,0.3343575,1.522027,0.4933341,-0.03865704,0.06398772,-0.0300962,-1.386278,0.2469949,0.1417864,0.4413588,1.49551,0.3552406,-0.07098638,1.667677,0.6462663,303.3231,85.3307,189.2214,True
6,2.577777,0.08552436,-0.07239826,0.06599626,4.549379,1.229811,-1.441566,0.2006033,1.457382,0.614001,-0.8332168,0.007188116,8.647213,11.97771,-0.101192,-0.02512901,-0.02730713,-0.2831739,-0.8640879,2.873231,0.333413,1.522882,0.4937942,-0.04073625,0.05758429,-0.0247681,-1.386391,0.2474259,0.1422903,0.4407573,1.496166,0.3557868,-0.07212546,1.668108,0.6464409,303.2736,85.26029,189.3285,True
6,2.588888,0.09191547,-0.08627685,0.05004236,4.550778,1.229638,-1.442825,0.1997793,1.458303,0.6144679,-0.8322325,0.08910475,8.488064,11.63488,-0.1097739,-0.01448241,-0.03362445,-0.2826674,-0.8646349,2.875184,0.3325424,1.523789,0.4941988,-0.04286677,0.05545229,-0.02475205,-1.386567,0.2479976,0.1427795,0.440157,1.497065,0.3563416,-0.07327803,1.668514,0.6465272,303.2633,85.3062,189.291,True
6,2.599999,0.08660357,-0.1140831,0.02352877,4.552729,1.228883,-1.443634,0.1989109,1.459242,0.614964,-0.8310096,0.1101441,8.302388,11.2492,-0.1141385,0.02278531,-0.03137734,-0.2818615,-0.8694632,2.881329,0.3315922,1.525012,0.4945202,-0.06099921,0.06716827,-0.02562422,-1.386719,0.2493435,0.1438568,0.4395174,1.498048,0.3567722,-0.07454289,1.668894,0.6465828,303.2208,85.44363,189.1026,True
6,2.61111,0.09514145,-0.1268643,0.01395687,4.554462,1.228554,-1.44498,0.1981213,1.460238,0.6154292,-0.8298314,0.1058466,8.116709,10.71352,-0.1195372,0.06960962,-0.01950132,-0.2815505,-0.8777654,2.890754,0.3306976,1.526223,0.4947739,-0.08015037,0.08205846,-0.02222471,-1.386763,0.2507029,0.1450914,0.4388903,1.499094,0.357276,-0.07592729,1.669223,0.646666,303.1184,85.51803,188.9255,True
6,2.622221,0.1175754,-0.1566572,-0.002000675,4.557031,1.227644,-1.447222,0.197379,1.461425,0.6159596,-0.8279651,0.1688001,7.798407,9.770729,-0.1184487,0.07917404,-0.01095981,-0.2814232,-0.8817356,2.895717,0.3298075,1.527393,0.495223,-0.09275865,0.09266762,-0.002905492,-1.38592,0.2520197,0.1463135,0.4382024,1.500224,0.357758,-0.07743151,1.669501,0.64683,302.9537,85.60122,188.7532,True
6,2.633332,0.1378592,-0.1950394,-0.03389684,4.560291,1.225795,-1.449733,0.1966287,1.462588,0.6165662,-0.8270969,0.07694507,7.374006,8.570816,-0.1280074,0.08232069,-0.002378549,-0.2814951,-0.8852736,2.900955,0.3287373,1.528737,0.4955385,-0.09058146,0.09159782,0.001333442,-1.385618,0.2529522,0.1469788,0.4375278,1.501262,0.358237,-0.07902614,1.669742,0.6471049,302.7202,85.69282,188.6096,True
6,2.644443,0.1645449,-0.2376587,-0.06686963,4.563981,1.223453,-1.452764,0.1958514,1.463897,0.6171007,-0.8264343,0.05887301,6.843502,7.242337,-0.1324299,0.0908994,-0.03002835,-0.2799483,-0.8885581,2.905579,0.3277249,1.530152,0.4959292,-0.08310236,0.09479174,0.004467993,-1.385266,0.2540586,0.1475026,0.4367908,1.502455,0.3586063,-0.08063697,1.669935,0.647468,302.4615,85.73309,188.5572,True
6,2.655554,0.1730897,-0.2664803,-0.09342387,4.567619,1.221204,-1.455272,0.1948574,1.465304,0.6177058,-0.8252172,0.1099294,6.206895,5.892437,-0.1239467,0.06754039,-0.05037409,-0.2787839,-0.8870305,2.90516,0.3266716,1.531664,0.4962394,-0.08200409,0.0915942,0.00765026,-1.384923,0.2549966,0.148165,0.4361042,1.50357,0.3590243,-0.08226945,1.670077,0.6479063,302.2037,85.89436,188.4273,True
6,2.666665,0.1815703,-0.2953643,-0.1380963,4.571528,1.217582,-1.458109,0.1939196,1.46667,0.6183872,-0.8243815,0.07467536,5.623342,4.863938,-0.1048311,0.04954086,-0.07182588,-0.2773757,-0.884957,2.903554,0.3253503,1.533428,0.4964917,-0.1042953,0.07771769,0.01529758,-1.384393,0.2552692,0.1500782,0.4354005,1.504709,0.3594167,-0.08394597,1.670156,0.6484414,301.9402,86.19885,188.175,True
6,2.677776,0.1836807,-0.3071353,-0.1561701,4.574867,1.214966,-1.460424,0.1929717,1.467905,0.6190577,-0.8227815,0.1450408,5.119364,4.26398,-0.1283067,0.09097844,-0.05561696,-0.2767339,-0.8939608,2.914564,0.3239245,1.534972,0.4967782,-0.1577602,0.09156968,-0.0044064,-1.384901,0.2568508,0.1534423,0.4345945,1.505862,0.3597741,-0.08572663,1.670215,0.6491046,301.6715,86.53654,187.9182,True
6,2.688887,0.1751769,-0.3157071,-0.1593103,4.57847,1.212641,-1.462325,0.1918986,1.46904,0.6195638,-0.821885,0.08015341,4.721486,4.071138,-0.1637703,0.1857061,-0.06369942,-0.2746902,-0.9123204,2.935166,0.3223805,1.536388,0.4970026,-0.1832745,0.1085811,0.002265193,-1.384341,0.2585545,0.1559603,0.4336988,1.507011,0.3600957,-0.0876737,1.670336,0.649921,301.3752,86.84856,187.6994,True
6,2.699998,0.1624296,-0.3178614,-0.1518058,4.581778,1.210875,-1.46396,0.1907532,1.470293,0.6201839,-0.8207079,0.106524,4.429708,4.26398,-0.1756378,0.2421142,-0.06028913,-0.273252,-0.9276016,2.952186,0.3209394,1.537849,0.4972045,-0.169248,0.1074872,0.02130906,-1.383201,0.2595289,0.1571561,0.4328032,1.508126,0.3604753,-0.08968215,1.670449,0.6508929,301.0489,87.22082,187.4142,True
6,2.711109,0.1422028,-0.3328944,-0.1633968,4.585715,1.208276,-1.465088,0.1896686,1.471456,0.6207576,-0.8196294,0.09731629,4.270555,4.778228,-0.179822,0.2229128,-0.05605609,-0.2725394,-0.9333748,2.959842,0.319473,1.539261,0.4973838,-0.1198695,0.09253553,0.05915555,-1.381293,0.2597333,0.156682,0.4319154,1.509205,0.3608351,-0.09162623,1.670495,0.6519619,300.7402,87.44729,187.315,True
6,2.72222,0.1411036,-0.3479049,-0.1899737,4.589739,1.20483,-1.467027,0.1884396,1.472556,0.6213105,-0.8188741,0.06800792,4.217505,5.378185,-0.1969748,0.2026654,-0.0804756,-0.2708115,-0.9379624,2.966696,0.3179534,1.540635,0.4975269,-0.1047228,0.09143388,0.08351211,-1.379448,0.2604464,0.1572669,0.43102,1.510207,0.3611548,-0.09349719,1.670526,0.6530166,300.4573,87.58655,187.384,True
6,2.733331,0.2038549,-0.3381344,-0.2072753,4.59286,1.201596,-1.471696,0.1870428,1.47377,0.6217175,-0.8178429,0.09348743,4.323608,6.385256,-0.2076312,0.2292716,-0.07400028,-0.2694309,-0.9501562,2.981327,0.3162864,1.541982,0.497669,-0.1077048,0.1063024,0.1069985,-1.377311,0.2619025,0.1583175,0.4301664,1.511149,0.3614666,-0.0953325,1.670658,0.6539766,300.1864,87.7468,187.4359,True
6,2.744442,0.220809,-0.3114203,-0.2031659,4.595649,1.19916,-1.475251,0.1857702,1.474806,0.6222284,-0.8181763,-0.03140566,4.588861,7.863723,-0.2054462,0.2526535,-0.05157879,-0.2690762,-0.963998,2.996799,0.3145828,1.543533,0.4977758,-0.1454106,0.1138175,0.06369556,-1.377828,0.2635296,0.1609039,0.4291955,1.511997,0.3617895,-0.09710634,1.670914,0.6547938,299.933,88.12897,187.2297,True
6,2.755553,0.2261966,-0.3166812,-0.1903772,4.599154,1.197184,-1.477977,0.184369,1.47575,0.6226964,-0.8206547,-0.2264437,5.013261,9.749304,-0.2328964,0.205643,-0.02919043,-0.2693814,-0.9665813,3.002813,0.3127034,1.544861,0.4979122,-0.1648224,0.1245089,0.03939885,-1.378003,0.2654265,0.1629729,0.4283014,1.51283,0.3620851,-0.09885339,1.671301,0.6555256,299.7679,88.67804,186.7969,True
6,2.766664,0.2134292,-0.3028128,-0.1701398,4.601836,1.195778,-1.480017,0.1828518,1.47665,0.6231172,-0.8194616,0.1107062,5.490716,11.91343,-0.2661645,0.254604,-0.04912208,-0.2676775,-0.9822944,3.022002,0.3108213,1.546039,0.4981415,-0.1753646,0.1319357,0.0523028,-1.37656,0.2670067,0.1650433,0.4272318,1.513503,0.3623531,-0.100627,1.671633,0.6562241,299.7652,89.19303,186.347,True
6,2.777775,0.2273709,-0.3133624,-0.1552345,4.605681,1.194171,-1.483151,0.1812003,1.477602,0.6234021,-0.8181012,0.12287,5.994693,14.33469,-0.2546641,0.2738866,-0.08002068,-0.2653744,-0.9951663,3.036739,0.3088869,1.547388,0.4982646,-0.1965005,0.1276296,0.06954204,-1.37497,0.2680642,0.1676542,0.4261742,1.514259,0.3627193,-0.102481,1.671737,0.6569039,299.7492,89.52996,186.0634,True
6,2.788886,0.2401211,-0.2962273,-0.1457562,4.608192,1.192541,-1.486454,0.1794856,1.47837,0.6239526,-0.8170759,0.09258996,6.498674,16.58453,-0.2589894,0.289863,-0.08315097,-0.2640306,-1.008916,3.05301,0.3068129,1.548462,0.4984272,-0.1963665,0.1446478,0.08448932,-1.373162,0.2700411,0.169396,0.4251826,1.51491,0.3630626,-0.1045115,1.671637,0.6575342,299.6237,89.77621,185.9251,True
6,2.799997,0.2955912,-0.298073,-0.1267679,4.611591,1.191467,-1.491784,0.1774806,1.47891,0.6242211,-0.8178578,-0.07232725,6.976128,18.51296,-0.2835222,0.3025723,-0.08192196,-0.2628646,-1.023287,3.070926,0.3048275,1.549644,0.4986093,-0.1942431,0.1819286,0.08667453,-1.371606,0.2731248,0.1708903,0.424119,1.515568,0.3635166,-0.1067578,1.671446,0.6580766,299.3806,89.91595,185.9206,True
6,2.811108,0.3019271,-0.2681525,-0.1077229,4.613536,1.190641,-1.495289,0.1757708,1.479428,0.6244812,-0.8179223,-0.005320083,7.427056,20.05571,-0.3303311,0.3066651,-0.06994355,-0.2623693,-1.036644,3.088881,0.3026445,1.550879,0.4988916,-0.1996574,0.1936597,0.07821696,-1.370716,0.2755766,0.1727891,0.4230272,1.516256,0.3638976,-0.1092108,1.671168,0.6584696,299.1173,90.18601,185.7531,True
6,2.822219,0.2879698,-0.2020081,-0.06422577,4.613624,1.191432,-1.497969,0.1739737,1.479819,0.6245148,-0.8197141,-0.1640682,7.771884,20.93422,-0.3474928,0.3045467,-0.09329486,-0.2603821,-1.049088,3.105328,0.30064,1.551973,0.4990716,-0.2212563,0.1713355,0.04642294,-1.371121,0.2768063,0.1758251,0.4218817,1.516916,0.3643737,-0.111838,1.670758,0.6587763,298.8965,90.45479,185.4749,True
6,2.83333,0.2857959,-0.1667704,-0.03771453,4.614375,1.191733,-1.501019,0.1720395,1.480349,0.6246016,-0.8177774,0.1782238,8.063659,21.46989,-0.3527316,0.2736024,-0.09016562,-0.2592715,-1.055185,3.115569,0.2987576,1.553115,0.4992337,-0.2327997,0.1638437,0.06356426,-1.369552,0.2781676,0.1784608,0.4206672,1.517506,0.3649044,-0.1146043,1.67,0.6589562,298.7569,90.69218,185.2239,True
6,2.844441,0.3338576,-0.1653837,-0.001666849,4.616324,1.192837,-1.50626,0.1697057,1.480962,0.6249099,-0.8166253,0.103482,8.249334,21.7913,-0.3311631,0.2288573,-0.06482838,-0.2594835,-1.059866,3.123035,0.2965134,1.55426,0.4993808,-0.2346687,0.2053292,0.09455912,-1.366705,0.2815188,0.1805085,0.4194764,1.518108,0.3654239,-0.1174782,1.668941,0.6590506,298.4291,90.56535,185.2729,True
6,2.855552,0.3797259,-0.1726324,0.005662318,4.618525,1.193061,-1.512083,0.1673594,1.481769,0.625057,-0.8167233,-0.009772309,8.381961,21.91986,-0.3471442,0.1947725,-0.08401087,-0.2579357,-1.063534,3.130942,0.2943246,1.555553,0.4995155,-0.258183,0.2319663,0.08737904,-1.365345,0.2850357,0.1833195,0.4182344,1.518774,0.3659976,-0.1204144,1.667819,0.6590651,297.9672,90.10344,185.6726,True
6,2.866663,0.4158916,-0.1639872,0.0001771791,4.620075,1.192732,-1.51796,0.1649534,1.482476,0.6251965,-0.8188581,-0.1951437,8.435014,21.98414,-0.3630384,0.1787336,-0.07651382,-0.2572273,-1.070187,-3.14125,0.2917451,1.556883,0.4995675,-0.2938125,0.2671998,0.04090808,-1.365781,0.289525,0.1869824,0.4170927,1.519474,0.3664949,-0.1234566,1.666871,0.659017,297.5223,89.81628,185.9403,True
6,2.877774,0.4061289,-0.1417426,-0.02437795,4.620825,1.191412,-1.522095,0.1624532,1.483197,0.6253991,-0.8192938,-0.03836618,8.514586,22.43411,-0.3981788,0.1924536,-0.06670048,-0.2568976,-1.080328,-3.125958,0.2891387,1.558453,0.4994559,-0.2996782,0.3152376,-0.01221164,-1.366704,0.2948908,0.1894357,0.4157587,1.520257,0.3671458,-0.1266826,1.66609,0.6588835,297.263,89.80701,185.9378,True
6,2.888885,0.3879382,-0.1440331,-0.04987388,4.622406,1.189882,-1.525884,0.1600089,1.484028,0.6256504,-0.818938,0.03244019,8.56764,23.01264,-0.4087227,0.2051266,-0.03785335,-0.2573918,-1.091018,-3.110749,0.2863935,1.559915,0.4994447,-0.2986994,0.3472199,-0.01961647,-1.366127,0.2998872,0.1916022,0.4144295,1.520974,0.3678474,-0.1301207,1.665344,0.6586752,297.0637,89.92404,185.7538,True
6,2.899997,0.3698748,-0.165443,-0.06039758,4.624926,1.188635,-1.529434,0.1573438,1.485188,0.625972,-0.8165071,0.2213957,8.56764,23.65545,-0.4545024,0.2326311,-0.01729524,-0.2580742,-1.103953,-3.091794,0.2834626,1.561193,0.4994943,-0.296542,0.3940806,-0.01315353,-1.364888,0.305721,0.1936848,0.4130028,1.521879,0.3686144,-0.1337595,1.664505,0.6585096,296.8369,90.04555,185.4625,True
6,2.911108,0.3806662,-0.1877238,-0.04651231,4.627701,1.188476,-1.534057,0.1546044,1.486177,0.626328,-0.8152714,0.1104838,8.56764,24.25541,-0.4782352,0.3433412,-0.01155223,-0.2584491,-1.133568,-3.057019,0.2805026,1.562508,0.4996154,-0.2932982,0.4111283,-0.007828236,-1.363821,0.3108933,0.1956744,0.4115073,1.522794,0.3694365,-0.1375752,1.663637,0.6585858,296.4502,90.07384,185.2236,True
6,2.922219,0.3744659,-0.2388933,-0.04845121,4.632057,1.187582,-1.538084,0.1517351,1.487348,0.6266141,-0.8141566,0.1003259,8.541114,24.53396,-0.4792543,0.3284242,-0.01158696,-0.2586036,-1.14537,-3.04041,0.2775376,1.563658,0.499711,-0.2591992,0.4676007,-0.002718098,-1.362309,0.3178171,0.196117,0.4097319,1.523952,0.3704398,-0.1414509,1.662816,0.6589795,295.9505,90.09904,185.1008,True
6,2.93333,0.3510998,-0.2560346,-0.04938078,4.63551,1.186795,-1.541353,0.1488702,1.488324,0.6269279,-0.814155,-0.001679794,8.514586,24.42683,-0.5210418,0.3263057,-0.05825138,-0.256643,-1.159671,-3.019183,0.2744403,1.56462,0.499831,-0.2178451,0.5113528,-0.02113456,-1.361688,0.3253054,0.1956097,0.4080488,1.524917,0.3712978,-0.1453482,1.662141,0.6596425,295.4642,90.10513,185.1679,True
6,2.944441,0.310581,-0.2487484,-0.05033464,4.63797,1.186065,-1.543472,0.1460305,1.489187,0.6270089,-0.8121811,0.1793254,8.514586,23.91258,-0.508535,0.3413814,-0.1040821,-0.2544395,-1.178794,-2.99545,0.2714152,1.565819,0.4998412,-0.1337031,0.5668057,-0.01969882,-1.360279,0.3335065,0.1927364,0.4062495,1.525952,0.3720777,-0.149182,1.66147,0.6603695,295.1423,90.12414,185.3582,True
6,2.955552,0.2881386,-0.2478328,-0.06731412,4.640699,1.184519,-1.546113,0.1432481,1.489875,0.627229,-0.8097064,0.2233985,8.541114,23.01264,-0.4638106,0.3330185,-0.1118032,-0.2535159,-1.193297,-2.977755,0.2683896,1.567101,0.4997344,-0.05681789,0.6009029,0.002006585,-1.358055,0.3412813,0.1892967,0.4043998,1.527029,0.372839,-0.153059,1.660774,0.6610166,294.864,90.30209,185.4198,True
6,2.966663,0.271985,-0.2427204,-0.1109528,4.643153,1.181705,-1.548758,0.140692,1.490465,0.6274457,-0.8067354,0.2684494,8.620689,21.83415,-0.4347889,0.3393464,-0.058669,-0.255297,-1.208162,-2.959377,0.2653559,1.568397,0.4994385,-0.04193264,0.6051874,-0.001318686,-1.35687,0.3482791,0.1879089,0.4026148,1.528053,0.373564,-0.1569584,1.660016,0.6615143,294.5565,90.40587,185.4488,True
6,2.977774,0.280549,-0.2929108,-0.1555551,4.648055,1.178401,-1.552456,0.1381137,1.491162,0.6276503,-0.8051279,0.1432509,8.700266,20.61281,-0.4314673,0.3616291,-0.02240565,-0.2572331,-1.226062,-2.937362,0.2623862,1.569537,0.4991775,-0.08548133,0.5859587,0.01184733,-1.355237,0.3541064,0.189123,0.4008418,1.529029,0.3742242,-0.1608256,1.659235,0.6618446,294.1919,90.42101,185.4732,True
6,2.988885,0.3093913,-0.3376349,-0.1831999,4.653354,1.175281,-1.557131,0.1356821,1.491802,0.6279469,-0.8029037,0.2005774,8.885942,19.22005,-0.4559213,0.4264179,0.02264604,-0.2601669,-1.250483,-2.907768,0.259263,1.570214,0.4987988,-0.09896915,0.5741588,0.04818434,-1.352329,0.3598072,0.1892951,0.3991339,1.529954,0.3748178,-0.164584,1.658391,0.6620781,293.8398,90.68697,185.1508,True
6,2.999996,0.35991,-0.4835027,-0.2190949,4.663438,1.171602,-1.563108,0.1332426,1.492331,0.6284299,-0.801441,0.1301744,9.124667,17.61303,-0.4529406,0.5010065,0.02070434,-0.2623086,-1.280511,-2.87395,0.2562614,1.571004,0.4985385,-0.0546595,0.5644754,0.1137978,-1.347757,0.3652018,0.1872714,0.3973482,1.530712,0.375273,-0.1681859,1.657447,0.6623749,293.5015,91.20683,184.548,True
6,3.011107,0.3686652,-0.5516803,-0.2284752,4.671789,1.168738,-1.567551,0.1306316,1.492888,0.6288805,-0.7997595,0.1505652,9.442968,15.85601,-0.4478906,0.5181855,-0.02189234,-0.2623864,-1.305926,-2.844541,0.2532235,1.571483,0.4982758,-0.04164872,0.5537989,0.1360202,-1.344581,0.3708947,0.1859637,0.3954995,1.531449,0.3757756,-0.1716809,1.656324,0.6628224,293.2104,92.02097,183.7467,True
6,3.022218,0.3835477,-0.5730403,-0.2614786,4.67876,1.16472,-1.572503,0.1282605,1.493183,0.6293409,-0.7980444,0.1532154,9.761274,14.05614,-0.4332004,0.4885654,-0.08277005,-0.2608678,-1.325665,-2.821084,0.2502701,1.572415,0.4980044,-0.0413554,0.5345669,0.1658123,-1.340809,0.3758602,0.1854026,0.3938075,1.532049,0.3761764,-0.1751198,1.654847,0.6634262,292.9806,93.02917,182.8642,True
6,3.033329,0.4058402,-0.5826536,-0.2956234,4.68538,1.160298,-1.578008,0.1259567,1.493279,0.6297765,-0.7933748,0.423151,10.02653,12.49196,-0.3783531,0.3214632,-0.07817936,-0.2599884,-1.319643,-2.824542,0.2472473,1.573158,0.4976411,-0.04665184,0.5239102,0.1679761,-1.337911,0.3811327,0.1848471,0.3920629,1.532694,0.3767684,-0.1787002,1.652809,0.6641259,292.7601,94.3858,181.7421,True
6,3.04444,0.4153107,-0.5805922,-0.3265578,4.691827,1.155689,-1.583085,0.1238619,1.493343,0.630069,-0.7902627,0.2784589,10.18567,11.27062,-0.3657071,0.2779592,-0.1284338,-0.2575554,-1.329382,-2.811454,0.2443492,1.573717,0.4973364,-0.07969645,0.557978,0.1683588,-1.334676,0.3881717,0.1852388,0.3903527,1.533075,0.3771577,-0.1826456,1.650318,0.6649504,292.3123,95.32719,180.9722,True
6,3.055551,0.4259659,-0.6019467,-0.3499507,4.69937,1.151239,-1.588227,0.121652,1.493565,0.6300797,-0.7875021,0.2480167,10.3183,10.37069,-0.3680577,0.2546664,-0.1817568,-0.2544714,-1.343204,-2.793692,0.2412811,1.57391,0.4970219,-0.09033257,0.6123034,0.1728187,-1.331084,0.3966706,0.1845083,0.3885182,1.533434,0.3776171,-0.1862672,1.647501,0.6657596,290.9989,95.27668,181.0152,True
6,3.066662,0.447398,-0.6060128,-0.3180516,4.706341,1.148816,-1.593901,0.1195746,1.493817,0.630228,-0.7837939,0.3346739,10.34483,9.792157,-0.3940606,0.3314035,-0.2218817,-0.2535415,-1.372827,-2.759752,0.2384957,1.574033,0.4966142,-0.06265897,0.6165868,0.1704358,-1.327928,0.4034969,0.1826175,0.3868007,1.533743,0.3780534,-0.1892033,1.64458,0.6665239,289.3484,94.64592,181.6029,True
6,3.077773,0.4262598,-0.622127,-0.2795462,-1.566738,1.147012,-1.597302,0.1174065,1.493952,0.6303821,-0.7805219,0.2940363,10.29178,9.642169,-0.4129862,0.3205862,-0.1813246,-0.254081,-1.385406,-2.742386,0.2359373,1.574143,0.4961438,-0.04905415,0.6027992,0.1447078,-1.326136,0.4096099,0.1813272,0.3851092,1.534119,0.3784966,-0.1914449,1.642153,0.667289,287.9281,94.20669,182.1521,True
6,3.088884,0.3005235,-0.5659723,-0.22497,-1.562263,1.146376,-1.596347,0.1152109,1.494017,0.6303959,-0.7778252,0.2418572,10.18567,9.942146,-0.3645079,0.2810952,-0.1007283,-0.256243,-1.390244,-2.735241,0.2335138,1.574277,0.4956939,-0.008772969,0.5964613,0.1240612,-1.324423,0.4158888,0.1786403,0.3834631,1.534262,0.3789294,-0.1933143,1.640776,0.6681224,286.8635,95.47506,181.2654,True
6,3.099995,0.1864119,-0.5003135,-0.1821742,-1.55748,1.145636,-1.594581,0.112883,1.493961,0.6302578,-0.7724174,0.490209,10.1061,10.69209,-0.333242,0.2235631,-0.06376021,-0.2568853,-1.391873,-2.731054,0.2311214,1.574393,0.4952517,0.0322921,0.5880608,0.07358543,-1.324088,0.4224445,0.1753843,0.3817216,1.534432,0.3792984,-0.1947008,1.640268,0.6688436,286.1825,96.79862,180.3672,True
6,3.111106,0.1107656,-0.4589158,-0.1394482,-1.553704,1.145502,-1.593431,0.1105758,1.494289,0.6302514,-0.7650079,0.6714677,10.02653,11.72059,-0.3010831,0.2331296,-0.02023102,-0.2590712,-1.401223,-2.719644,0.2289407,1.574254,0.4950128,0.06904306,0.5924455,0.01783177,-1.324623,0.42947,0.1718072,0.3800991,1.534576,0.3796859,-0.19574,1.640333,0.6692556,285.8204,99.05025,178.5947,True
6,3.122217,0.006584219,-0.4291276,-0.0454728,-1.550652,1.147896,-1.590373,0.1082841,1.494769,0.6305094,-0.7614276,0.3204283,10.02653,12.72766,-0.269011,0.1938038,-0.02049884,-0.2591059,-1.405349,-2.713636,0.2268788,1.574376,0.4946887,0.09408244,0.5787179,-0.03782696,-1.3257,0.4359412,0.1684676,0.3786288,1.534847,0.3799922,-0.1970451,1.641076,0.6695346,285.6828,102.4468,175.6501,True
6,3.133328,-0.04764062,-0.4174629,-0.003800746,-1.546556,1.148794,-1.588516,0.1059068,1.495455,0.6303794,-0.7602169,0.1074239,10.1061,13.73473,-0.2781385,0.1169523,0.02408203,-0.2602367,-1.397368,-2.717988,0.224788,1.574265,0.4944282,0.1172123,0.5340617,-0.07222626,-1.326687,0.4408096,0.1653996,0.376987,1.535127,0.3803391,-0.1985389,1.641876,0.6696126,285.4547,104.8869,173.5128,True
6,3.144439,-0.09756213,-0.4207239,0.03473635,-1.541831,1.150569,-1.585724,0.1035748,1.496215,0.6301093,-0.7569572,0.2965324,10.2122,14.44182,-0.2898886,0.1052407,0.01133616,-0.2604497,-1.401075,-2.710682,0.2227935,1.574526,0.4940686,0.1884377,0.3850093,-0.09877141,-1.328926,0.4405886,0.1611391,0.3756047,1.535299,0.3806438,-0.2007738,1.642538,0.6696877,285.2074,108.2837,170.3524,True
6,3.15555,-0.07941208,-0.4462793,0.02194383,-1.535794,1.149941,-1.585467,0.1010921,1.49693,0.6294014,-0.7568512,0.006500979,10.29178,14.80608,-0.2830603,-0.01197529,0.03015025,-0.2595075,-1.385888,-2.722422,0.2203743,1.574946,0.493576,0.1993161,0.3476939,-0.07763399,-1.328554,0.4434953,0.15793,0.3741096,1.535572,0.3809776,-0.2033358,1.642483,0.6695371,284.5432,111.4222,167.4068,True
6,3.166661,-0.04429501,-0.4643506,-0.007944504,-1.530088,1.149009,-1.58602,0.09890631,1.497588,0.6290522,-0.7551218,0.1578322,10.34483,14.84894,-0.3233529,-0.0377233,0.05160119,-0.2602633,-1.379034,-2.724146,0.2181658,1.575057,0.4929299,0.1206048,0.3721151,-0.06298545,-1.327987,0.4486613,0.1579518,0.3726176,1.535726,0.381258,-0.2067461,1.641945,0.6693621,283.8204,116.6857,162.4164,True
6,3.177772,-0.04324599,-0.4846768,-0.02708632,-1.523717,1.147768,-1.585209,0.09682703,1.497847,0.6285365,-0.7567739,-0.1529935,10.29178,14.52753,-0.3296092,0.03558415,0.1168238,-0.2644492,-1.384285,-2.715187,0.2159045,1.575394,0.4921575,0.01457711,0.4646147,-0.003198504,-1.324817,0.4566301,0.1591947,0.3711742,1.535939,0.3815858,-0.2101097,1.640519,0.6688234,282.7599,123.0578,156.2823,True
6,3.188883,-0.08059013,-0.4688376,-0.02594428,-1.519173,1.147555,-1.583006,0.09493074,1.498225,0.6280658,-0.7570163,-0.02115316,10.2122,14.07757,-0.2933311,0.08671585,0.1561875,-0.2683156,-1.38746,-2.710268,0.2136943,1.574948,0.491266,-0.05213282,0.5294651,0.043367,-1.321651,0.464363,0.1598443,0.3697321,1.536113,0.3818827,-0.2141997,1.638796,0.668322,281.8794,130.5719,148.8641,True
6,3.199994,-0.1273516,-0.4902865,-0.019318,-1.5133,1.147642,-1.580085,0.09292117,1.498803,0.6279888,-0.7548794,0.1947858,10.15915,13.56331,-0.3471626,0.2953383,0.1634395,-0.2741341,-1.41722,-2.675972,0.2114536,1.574778,0.4904957,-0.08504228,0.603979,0.06194396,-1.318817,0.4734659,0.1597156,0.3682888,1.536317,0.3820183,-0.2178775,1.636355,0.6675812,280.7854,138.4033,140.7896,True
6,3.211105,-0.1283347,-0.5126685,-0.02136684,-1.506883,1.147397,-1.578689,0.09069848,1.499473,0.6276011,-0.7525976,0.2065231,10.13263,12.98479,-0.3536758,0.3485724,0.1700061,-0.2784644,-1.432017,-2.657541,0.2092526,1.574621,0.4897351,0.003551453,0.610401,0.07704253,-1.316705,0.4802129,0.1549563,0.3670256,1.536505,0.3822105,-0.221998,1.633923,0.6670548,279.9725,146.5349,132.43,True
6,3.222216,-0.1217352,-0.5520022,-0.01377083,-1.499978,1.147952,-1.577924,0.08827659,1.50048,0.6275249,-0.7512745,0.1190615,10.13263,12.47054,-0.3694967,0.3165223,0.1827975,-0.2816128,-1.433528,-2.651567,0.2072588,1.57415,0.4891231,0.1337635,0.5742166,0.1024033,-1.314004,0.4852164,0.1479128,0.3658794,1.536547,0.3823178,-0.2253786,1.631194,0.6663496,279.3497,156.9413,121.7338,True
6,3.233327,-0.1237354,-0.5796822,-0.009404677,-1.492839,1.148105,-1.576549,0.08600309,1.501246,0.6271417,-0.7524559,-0.1090267,10.23872,12.23484,-0.3674359,0.2676409,0.1421697,-0.2826168,-1.437685,-2.64354,0.205246,1.573778,0.4884155,0.1689624,0.565706,0.1063029,-1.311934,0.4911006,0.143526,0.3647658,1.536576,0.3824098,-0.2291567,1.628991,0.6658932,279.1699,166.3448,112.2223,True
6,3.244438,-0.1365646,-0.5872591,-0.03063411,-1.486105,1.14713,-1.57455,0.0841099,1.501649,0.6267431,-0.7529017,-0.03987943,10.39788,12.23484,-0.3919954,0.1814326,0.08454405,-0.2815249,-1.436575,-2.639487,0.2033761,1.57372,0.4876883,0.1079054,0.5710598,0.07174262,-1.311324,0.4979278,0.1427417,0.3638705,1.536512,0.3823302,-0.2323638,1.626874,0.6652877,279.5669,176.7543,101.7169,True
6,3.255549,-0.1567507,-0.6097423,-0.04007392,-1.478567,1.146378,-1.572029,0.08258644,1.501917,0.6261318,-0.7520314,0.07954389,10.58355,12.44911,-0.3982897,0.1654084,0.09412143,-0.2833625,-1.438407,-2.633059,0.2015922,1.573559,0.4868555,-0.001038715,0.5689077,0.04294891,-1.310933,0.5044121,0.144918,0.3629223,1.536328,0.3824222,-0.236213,1.625373,0.664867,280.1387,183.6668,94.81721,True
6,3.26666,-0.1556438,-0.6278765,-0.04960366,-1.471126,1.145592,-1.570351,0.0812394,1.502037,0.6252856,-0.7511451,0.08017959,10.76923,12.77051,-0.3585694,-0.0261938,0.05606503,-0.279373,-1.417242,-2.649984,0.2000906,1.573009,0.4858837,-0.0275251,0.5507535,0.05701736,-1.309018,0.509904,0.1447407,0.3620399,1.536109,0.3824387,-0.2401071,1.624723,0.6642154,281.0235,187.2767,91.14185,True
6,3.277771,-0.1704411,-0.665249,-0.05794638,-1.462578,1.144659,-1.567899,0.07951948,1.502299,0.6246805,-0.7503765,0.06955186,10.87533,13.02764,-0.3716954,0.006926119,0.008287542,-0.2784228,-1.422981,-2.639987,0.1984414,1.572143,0.4851687,0.009436101,0.5668165,0.02472737,-1.308785,0.5168503,0.141474,0.3613836,1.535823,0.382287,-0.243853,1.62483,0.66323,281.979,187.7929,90.4441,True
6,3.288882,-0.2074906,-0.7400194,-0.07353961,-1.451984,1.14327,-1.564203,0.07760265,1.502525,0.6240253,-0.7510551,-0.06264287,10.95491,13.24191,-0.3720024,0.1527485,0.04061709,-0.2827958,-1.441345,-2.617655,0.1969289,1.5717,0.4844096,0.05072516,0.5604949,-0.002321824,-1.308949,0.5230435,0.1380069,0.3606859,1.535696,0.3822293,-0.2468524,1.625558,0.6617107,282.8728,186.3824,91.59689,True
6,3.299993,-0.2448256,-0.6674917,-0.005481487,-1.447181,1.145305,-1.560513,0.0760453,1.50276,0.623101,-0.7503025,0.06930993,11.03448,13.43475,-0.3444509,0.2039668,0.04061253,-0.2850466,-1.451629,-2.604959,0.1957565,1.571301,0.4835701,0.1366456,0.4583765,-0.04807467,-1.310612,0.5253344,0.1331527,0.3601191,1.535523,0.3821728,-0.2483853,1.626317,0.6596547,284.253,185.7966,91.9435,True
6,3.311104,-0.2596871,-0.6493107,0.03179987,-1.440735,1.146884,-1.557298,0.07469246,1.50305,0.6224198,-0.7490045,0.118017,11.14058,13.60617,-0.3293734,0.1900582,0.07351588,-0.2872672,-1.452517,-2.600305,0.1946559,1.571117,0.4826932,0.1377314,0.4413286,-0.0470489,-1.310434,0.5298259,0.1305348,0.3593364,1.535424,0.3821619,-0.2502867,1.6276,0.6576982,285.1344,183.5077,94.11503,True
6,3.322215,-0.1872724,-0.6052088,0.07292718,-1.435428,1.148799,-1.558025,0.07369643,1.503081,0.6212456,-0.7485688,0.03898067,11.24668,13.75616,-0.3184093,0.05003394,0.2563185,-0.2929131,-1.425003,-2.623244,0.1939967,1.571115,0.4817035,0.05298279,0.4454459,0.003843561,-1.307774,0.5350724,0.1317439,0.3588352,1.535324,0.3821554,-0.251414,1.628767,0.6555792,286.829,182.8966,94.60914,True
6,3.333326,-0.06254654,-0.583249,0.1214093,-1.429678,1.15163,-1.561831,0.07301742,1.503005,0.620043,-0.7491888,-0.05702044,11.43236,13.97043,-0.3231468,-0.09279871,0.2825845,-0.2935261,-1.401289,-2.642438,0.1934329,1.570507,0.4807849,0.01434475,0.4356725,0.08516319,-1.303534,0.539055,0.1317873,0.3584124,1.535118,0.3820128,-0.2530335,1.630245,0.6535446,287.494,180.6956,96.84849,True
6,3.344437,0.02379917,-0.5721672,0.1477041,-1.423697,1.154263,-1.565317,0.07201445,1.502805,0.618794,-0.753151,-0.3616531,11.61804,14.16327,-0.3869248,-0.2339754,0.02685481,-0.2819041,-1.39378,-2.642757,0.1926205,1.570305,0.4800994,-0.006862789,0.427117,0.09493855,-1.301484,0.5433235,0.1314384,0.3580694,1.53507,0.3820064,-0.2537159,1.631431,0.6512282,289.1916,180.2741,97.19429,True
6,3.355548,0.06946127,-0.5475336,0.1336099,-1.418497,1.15526,-1.567819,0.07091662,1.502658,0.6177478,-0.7561747,-0.2736128,11.72414,14.33469,-0.3261852,-0.2018733,0.04258003,-0.2824485,-1.388253,-2.647224,0.1916926,1.570193,0.4793408,-0.02448857,0.4293402,0.034378,-1.302775,0.5484192,0.1309916,0.3577338,1.535159,0.3819926,-0.2550422,1.6327,0.6489566,289.6279,178.2563,99.24944,True
6,3.366659,0.1161809,-0.4779863,0.1683557,-1.415642,1.158144,-1.570888,0.06988698,1.502187,0.6167791,-0.7555143,0.06192282,11.75066,14.46325,-0.3312856,0.05275387,0.03159654,-0.2869343,-1.416315,-2.616357,0.1909701,1.57027,0.4786897,-0.03530996,0.4423632,-0.09333588,-1.307733,0.554839,0.1301732,0.3575669,1.535413,0.3819137,-0.2559338,1.633249,0.6465209,291.2389,178.465,98.87847,True
6,3.37777,0.1576416,-0.3538672,0.2807098,-1.415993,1.165238,-1.57502,0.06913298,1.501513,0.6156826,-0.7539952,0.1376465,11.64456,14.52753,-0.315242,0.08576007,0.05500835,-0.2887282,-1.420032,-2.610442,0.190487,1.570007,0.4779902,0.04756093,0.4115808,-0.1197689,-1.309376,0.5587783,0.1256565,0.3574903,1.53544,0.3818066,-0.257382,1.632846,0.6443095,292.7292,179.6195,97.66158,True
6,3.388881,0.1680426,-0.2642457,0.3080716,-1.415932,1.169645,-1.577846,0.06854656,1.500681,0.6142976,-0.7535771,0.03675232,11.48541,14.46325,-0.3392814,-0.0964275,0.03547367,-0.284759,-1.394987,-2.630002,0.190408,1.569321,0.4772949,0.1181343,0.3370177,-0.09821238,-1.309567,0.5600244,0.1215927,0.357454,1.535561,0.3816562,-0.2597064,1.631998,0.6423709,292.052,179.4927,97.50335,True
6,3.399992,0.1334544,-0.162208,0.2801445,-1.417195,1.171599,-1.578398,0.06770989,1.50005,0.6131084,-0.7534967,0.006755103,11.29973,14.29184,-0.3685096,-0.131361,-0.07631758,-0.2794316,-1.395743,-2.624367,0.1901127,1.569097,0.4767141,0.1161491,0.3050407,-0.08546722,-1.309761,0.5625985,0.119883,0.3573848,1.535666,0.3815727,-0.2615721,1.630211,0.6404939,292.6982,181.625,94.84031,True
6,3.411103,0.1107818,-0.09521882,0.2693481,-1.418325,1.174278,-1.579216,0.06678179,1.499527,0.611963,-0.7522051,0.117759,11.08753,14.01328,-0.3165992,-0.2331439,-0.1908446,-0.2719471,-1.387701,-2.630509,0.1896847,1.569102,0.4761083,0.07144786,0.3039376,-0.0807832,-1.310074,0.5661311,0.1198425,0.3574345,1.535682,0.3812985,-0.2633541,1.627651,0.6386304,293.8422,184.5863,91.71488,True
6,3.422215,0.08070026,-0.01324037,0.2883442,-1.420891,1.178081,-1.57972,0.06575236,1.499118,0.6110835,-0.7499248,0.2073098,10.90185,13.67045,-0.2488964,-0.2592844,-0.2967348,-0.264193,-1.387966,-2.629702,0.1889863,1.569502,0.4754379,-0.001627035,0.340234,-0.1439356,-1.313063,0.5718951,0.1207709,0.3574747,1.53587,0.3809075,-0.2654943,1.625282,0.636707,293.0517,186.3317,89.72334,True
6,3.433326,0.06555133,0.05384205,0.2956284,-1.42374,1.181736,-1.580488,0.06499812,1.499002,0.609966,-0.7497773,0.01175823,10.79576,13.30619,-0.2519032,-0.3423494,-0.3086644,-0.257859,-1.373303,-2.640956,0.1883857,1.569505,0.4745407,-0.01559793,0.3445095,-0.1565774,-1.314708,0.5761805,0.1202486,0.3574254,1.53599,0.3806407,-0.2671324,1.623094,0.6348888,293.7943,188.5021,86.96381,True
