loc,t,aDotS,bDotS,gDotS,aS,bS,gS,xS,yS,zS,qE,qDotE,emgA,emgB,aDotSH,bDotSH,gDotSH,aSH,bSH,gSH,xSH,ySH,zSH,aDotUB,bDotUB,gDotUB,aUB,bUB,gUB,xUB,yUB,zUB,xHand,yHand,zHand,aHand,bHand,gHand,enable
7,0,0.1072233,-0.3402189,0.5644019,-1.431164,1.448346,-2.756225,0.3800794,1.223618,0.4367187,-1.351307,-0.07197373,13.3687,16.94879,-0.4072289,0.1961595,-0.194608,-0.5583099,-3.68228,-0.6343479,0.3725496,1.420761,0.3558228,0.07779582,0.4357717,0.02822602,-1.10391,0.3381199,-0.124874,0.5057509,1.486486,0.185204,0.07342276,1.155253,0.3954966,285.3871,265.5834,358.4991,True
7,0.01111111,0.1008299,-0.3413271,0.560163,-1.435334,1.454268,-2.758017,0.3786681,1.222666,0.4360366,-1.351135,0.01656637,13.0504,16.75595,-0.4029164,0.1876363,-0.1893305,-0.5609741,-3.681599,-0.6305516,0.3713395,1.420311,0.3559399,0.07307477,0.4507951,-0.01962999,-1.106238,0.3440206,-0.1282557,0.5054435,1.486561,0.1860247,0.07252606,1.154812,0.3933913,285.3347,266.2683,357.5353,True
7,0.02222222,0.1018948,-0.3424068,0.5548354,-1.439472,1.460119,-2.760115,0.3773551,1.221823,0.4354453,-1.350769,0.03325335,12.81167,16.5631,-0.4050372,0.1844402,-0.1893273,-0.5638908,-3.680792,-0.6266346,0.3701406,1.419906,0.3560889,0.06982315,0.461458,-0.02490234,-1.107404,0.350056,-0.1316201,0.5050172,1.486627,0.186856,0.07117734,1.154058,0.3908652,285.2671,266.9756,356.4372,True
7,0.03333334,0.1093548,-0.3520026,0.5420594,-1.443092,1.466198,-2.762385,0.3759982,1.22103,0.4348392,-1.351178,-0.03749693,12.62599,16.41311,-0.4166735,0.1832899,-0.1732879,-0.5661449,-3.679296,-0.6228404,0.368849,1.419495,0.3561063,0.04958262,0.4912727,-0.02359103,-1.108494,0.3572207,-0.1347011,0.504746,1.486611,0.1875978,0.06977444,1.153053,0.3879558,285.3456,267.5034,355.4352,True
7,0.04444445,0.1285401,-0.3679494,0.5228777,-1.446263,1.472401,-2.765212,0.3747073,1.220253,0.4342821,-1.351668,-0.04440168,12.49337,16.28455,-0.4325967,0.2129803,-0.1432917,-0.5686302,-3.67507,-0.6210766,0.3675902,1.419199,0.3561614,0.03189172,0.4997138,0.00129237,-1.108787,0.3634091,-0.1376356,0.5041599,1.486717,0.1884396,0.06853491,1.151839,0.3847463,285.4765,267.8683,354.5172,True
7,0.05555556,0.1392128,-0.3828641,0.5079785,-1.449327,1.478773,-2.767923,0.3734095,1.219647,0.4336777,-1.35193,-0.02362887,12.41379,16.19884,-0.4442603,0.2384335,-0.1165273,-0.5710371,-3.670248,-0.6197767,0.3663638,1.418864,0.3561566,0.02023754,0.4890087,0.02781883,-1.107986,0.3695025,-0.1398737,0.5036869,1.486738,0.1890359,0.06753939,1.150478,0.3813795,285.6606,268.1565,353.606,True
7,0.06666667,0.1349952,-0.4010329,0.4942016,-1.452288,1.485279,-2.770048,0.3721702,1.219262,0.433115,-1.352516,-0.05338414,12.36074,16.15599,-0.4559549,0.2777305,-0.0875924,-0.5736443,-3.663763,-0.6198323,0.3651788,1.418614,0.3560739,0.01189892,0.4751143,0.04810773,-1.107539,0.3750443,-0.1421238,0.5032233,1.486788,0.1897337,0.06671447,1.149031,0.3780021,285.8742,268.3109,352.8152,True
7,0.07777778,0.1286399,-0.416006,0.4846817,-1.455158,1.491964,-2.77206,0.3708925,1.218734,0.4324932,-1.35242,0.009179089,12.30769,16.15599,-0.4591668,0.294744,-0.08006907,-0.5764087,-3.658644,-0.6189111,0.364006,1.418385,0.3559823,-0.01013586,0.4505253,0.08235313,-1.106059,0.38002,-0.143506,0.5028048,1.48683,0.1902738,0.06602024,1.147539,0.3747426,286.0977,268.4016,352.1168,True
7,0.08888889,0.1094793,-0.4278639,0.4687958,-1.457727,1.498503,-2.773575,0.3695923,1.218295,0.4318457,-1.351784,0.05799847,12.25464,16.19884,-0.4547905,0.3095828,-0.0480891,-0.5783992,-3.652288,-0.6192989,0.362892,1.418278,0.3557954,-0.03020336,0.4313057,0.09954886,-1.105072,0.3850358,-0.1448232,0.5025042,1.486755,0.1907458,0.06537535,1.146075,0.3716763,286.3764,268.5751,351.4142,True
7,0.1,0.1062959,-0.4321461,0.4666886,-1.460739,1.505033,-2.775383,0.3682955,1.21777,0.4312146,-1.351611,0.01535386,12.17507,16.17742,-0.4257478,0.270162,-0.01746473,-0.5787219,-3.648929,-0.6182188,0.3618427,1.418069,0.3556194,-0.04622017,0.4078721,0.09432201,-1.104746,0.3893549,-0.1457031,0.5021356,1.486774,0.1912413,0.06472121,1.144748,0.368823,286.6826,268.7922,350.7656,True
7,0.1111111,0.1031415,-0.4599698,0.444356,-1.461673,1.51191,-2.777153,0.366973,1.217284,0.430217,-1.351193,0.03824846,12.06897,16.15599,-0.4160682,0.2552505,-0.007959396,-0.5798581,-3.645364,-0.6169682,0.3607577,1.417863,0.3554902,-0.06121615,0.3759275,0.08373758,-1.104745,0.3927261,-0.1461058,0.5018538,1.486809,0.1917026,0.06401125,1.143618,0.3661437,286.9132,269.0226,350.1997,True
7,0.1222222,0.09564035,-0.4568509,0.4337099,-1.464072,1.518097,-2.778712,0.3657745,1.216838,0.4298532,-1.351534,-0.03154274,11.93634,16.09171,-0.4107268,0.2520785,-0.009062104,-0.5816738,-3.641565,-0.6158651,0.3596985,1.417603,0.3553054,-0.08153477,0.3684823,0.07431967,-1.104872,0.3970643,-0.1465801,0.5015825,1.48678,0.1920815,0.06323004,1.142725,0.363583,287.0714,269.2527,349.6784,True
7,0.1333333,0.05607777,-0.4357717,0.4167227,-1.466338,1.523331,-2.778559,0.3645867,1.216433,0.4292336,-1.351581,-0.003903002,11.77719,16.006,-0.4118611,0.253176,-0.02183989,-0.5838326,-3.638134,-0.6141894,0.3586265,1.417345,0.3551292,-0.09107991,0.3844449,0.07977198,-1.104545,0.4024179,-0.1476792,0.5012539,1.486753,0.1924615,0.06243104,1.142046,0.3610616,287.1099,269.5061,349.2045,True
7,0.1444445,0.04538552,-0.4326321,0.4114447,-1.469094,1.529385,-2.779285,0.363331,1.215972,0.4290059,-1.351517,0.005956349,11.64456,15.89886,-0.4119699,0.2734447,-0.03135443,-0.586385,-3.63326,-0.613795,0.3576335,1.417099,0.3548441,-0.08671974,0.4035973,0.09149213,-1.103896,0.4083113,-0.1495501,0.5009444,1.486721,0.1928368,0.06167645,1.141495,0.3584785,287.0798,269.4259,349.0179,True
7,0.1555556,0.01758396,-0.4285802,0.3838208,-1.470518,1.534753,-2.779021,0.3620755,1.215792,0.4285281,-1.350014,0.1373661,11.51194,15.81315,-0.4034426,0.2830373,-0.02391086,-0.5883322,-3.628145,-0.6138964,0.3566669,1.416982,0.3546052,-0.07813828,0.4142404,0.09888919,-1.103333,0.4140068,-0.151516,0.5005809,1.48666,0.1932359,0.06098989,1.141037,0.3559169,287.0626,269.4376,348.5699,True
7,0.1666667,0.01118229,-0.4425291,0.3604485,-1.471588,1.540909,-2.779664,0.3606099,1.215713,0.427829,-1.350825,-0.07517622,11.48541,15.81315,-0.3990228,0.2808427,0.004820935,-0.589234,-3.622609,-0.6143255,0.3556646,1.416822,0.354342,-0.0802469,0.3908041,0.09885748,-1.10285,0.4180357,-0.1524993,0.5002102,1.486616,0.1935585,0.06023373,1.1407,0.3534492,287.1028,269.5498,348.0099,True
7,0.1777778,0.0005675443,-0.4650113,0.3403122,-1.472328,1.547511,-2.779973,0.3592574,1.215728,0.4273837,-1.350217,0.05646147,11.51194,15.89886,-0.3913449,0.2711729,0.04204075,-0.5893037,-3.616803,-0.6151639,0.3548835,1.416793,0.3540637,-0.1144029,0.3471296,0.0894966,-1.102491,0.4207876,-0.1513778,0.4999108,1.486578,0.1938651,0.05943635,1.140493,0.3511098,287.1181,269.6484,347.5023,True
7,0.1888889,-0.02923517,-0.4961564,0.3064066,-1.472024,1.554676,-2.779546,0.3577626,1.21588,0.4269433,-1.351147,-0.08545289,11.59151,16.11313,-0.3655484,0.2392228,0.06739125,-0.5889282,-3.612768,-0.6152243,0.3540469,1.416754,0.3537745,-0.132635,0.3322338,0.07685839,-1.102464,0.4245257,-0.1508713,0.4996103,1.486518,0.1941903,0.0585339,1.140438,0.3488751,287.1558,269.599,347.2644,True
7,0.2,-0.06117103,-0.5176778,0.283136,-1.471905,1.561561,-2.778419,0.3563878,1.215865,0.4262903,-1.351028,0.01182689,11.72414,16.39169,-0.3335571,0.2254826,0.06506458,-0.5895887,-3.608973,-0.615717,0.3533249,1.416738,0.353446,-0.1296559,0.3354822,0.05445866,-1.103272,0.428829,-0.1514415,0.499351,1.486488,0.1943834,0.05757254,1.140528,0.3466504,287.1465,269.4425,347.2002,True
7,0.2111111,-0.139032,-0.5213228,0.2482336,-1.471254,1.567486,-2.774893,0.3549821,1.21614,0.4259439,-1.35035,0.06185864,11.83024,16.71309,-0.3005091,0.2213209,0.06701429,-0.5902726,-3.604761,-0.6169916,0.3525916,1.416851,0.3532026,-0.1074787,0.3227596,0.03291332,-1.104138,0.4322836,-0.1526095,0.499137,1.486458,0.1944208,0.05666356,1.140726,0.3443715,287.1069,269.1844,347.1879,True
7,0.2222222,-0.1784704,-0.5215192,0.2409005,-1.471546,-4.709343,-2.772329,0.3535435,1.216395,0.4255083,-1.349804,0.04961756,11.90981,17.01307,-0.2929072,0.2042459,0.08503713,-0.5899738,-3.600598,-0.6173117,0.3517995,1.417018,0.3528905,-0.1021828,0.2929383,0.02852982,-1.10432,0.4347853,-0.1526489,0.4989604,1.486341,0.1944761,0.05575095,1.141015,0.3419808,287.05,268.7578,347.3048,True
7,0.2333333,-0.2380793,-0.5399218,0.2315529,-1.471167,-4.702207,-2.768325,0.3519034,1.216868,0.4248621,-1.347763,0.1864399,11.93634,17.29162,-0.2948799,0.1956446,0.1105905,-0.5893953,-3.595608,-0.618072,0.3510466,1.417307,0.3526809,-0.124481,0.2566932,0.03399193,-1.103969,0.4368299,-0.1514769,0.4986404,1.486315,0.1945896,0.05483724,1.141402,0.3394635,286.9913,268.2666,347.4169,True
7,0.2444444,-0.2689923,-0.5432844,0.2220622,-1.470773,-4.695643,-2.765035,0.3503711,1.217522,0.4243045,-1.348881,-0.1035211,11.90981,17.54875,-0.2840631,0.2115396,0.1521308,-0.5885218,-3.587996,-0.6215461,0.3503962,1.417711,0.3524961,-0.1392956,0.2406837,0.04368119,-1.103541,0.4394469,-0.1506095,0.4983637,1.486405,0.1948466,0.05378147,1.142024,0.3369146,287.0361,267.6787,347.5195,True
7,0.2555556,-0.3648447,-0.5511715,0.219192,-1.470424,-4.68864,-2.758296,0.3484834,1.218463,0.4237478,-1.347965,0.08515605,11.80371,17.67731,-0.2702265,0.230732,0.1617022,-0.5886955,-3.580928,-0.6248322,0.3500087,1.418235,0.3523149,-0.1316809,0.208696,0.05845336,-1.102553,0.4410231,-0.1500723,0.4981447,1.486462,0.1948447,0.05263305,1.142991,0.3343618,287.0212,267.2623,347.5184,True
7,0.2666667,-0.4596325,-0.5504885,0.2290705,-1.470741,-4.681983,-2.750991,0.3465418,1.219077,0.42327,-1.349052,-0.09991504,11.64456,17.69873,-0.248749,0.2094374,0.1807074,-0.5876116,-3.576024,-0.6269212,0.3497566,1.418824,0.3521276,-0.1083611,0.1618679,0.04322078,-1.102576,0.4413541,-0.149888,0.4979907,1.486455,0.1947582,0.05135254,1.144377,0.3317272,286.9622,266.8201,347.6217,True
7,0.2777778,-0.5341629,-0.5582651,0.2314595,-1.470687,-4.674963,-2.743267,0.3445191,1.219805,0.4227872,-1.346187,0.2632582,11.45889,17.5916,-0.2357277,0.1774445,0.2071834,-0.5855482,-3.571306,-0.6286839,0.3494917,1.419335,0.3519342,-0.1043541,0.08417532,0.01211631,-1.103216,0.4395429,-0.1479852,0.4978397,1.486486,0.194628,0.05003112,1.146213,0.3290112,286.7975,266.2617,347.7936,True
7,0.2888889,-0.6619811,-0.5620097,0.2329375,-1.470525,-4.668108,-2.732456,0.3422453,1.22059,0.4224138,-1.345953,0.01948457,11.24668,17.37733,-0.2032743,0.0985858,0.2536722,-0.5810351,-3.568821,-0.6296429,0.3493705,1.419887,0.3516746,-0.1173254,0.01604549,-0.01241397,-1.103798,0.4372692,-0.145309,0.4977358,1.486481,0.19454,0.04840659,1.148592,0.3262037,286.5989,265.7051,347.908,True
7,0.3,-0.752545,-0.5667005,0.2225841,-1.469785,-4.661253,-2.721511,0.3399085,1.221479,0.4219372,-1.346242,-0.02581684,11.08753,17.14163,-0.1836981,0.04418963,0.2981629,-0.5763315,-3.565669,-0.6309018,0.3492545,1.420472,0.3514431,-0.1281751,-0.0116078,-0.03474472,-1.104739,0.4360709,-0.1429508,0.4976305,1.486425,0.1944041,0.04653979,1.151559,0.3233377,286.2125,265.1985,347.9411,True
7,0.3111111,-0.9293652,-0.5920038,0.2061547,-1.467907,-4.653902,-2.705758,0.3370132,1.222785,0.4214668,-1.344003,0.2055932,10.95491,16.92736,-0.1909541,0.04086266,0.3354798,-0.5726036,-3.559435,-0.6336712,0.3491015,1.420966,0.3512294,-0.1252377,-0.04243273,-0.06467281,-1.106255,0.4342525,-0.1409127,0.4975622,1.486303,0.194241,0.04453613,1.155066,0.320433,285.6493,264.6197,348.0316,True
7,0.3222222,-1.00498,-0.598718,0.2064111,-1.467067,-4.646664,-2.693016,0.3344612,1.223812,0.4209533,-1.344512,-0.04767538,10.8488,16.71309,-0.1930796,0.03766954,0.3344167,-0.5698951,-3.554748,-0.6353596,0.3489816,1.421556,0.3510089,-0.1145829,-0.04668727,-0.06478618,-1.106831,0.4335713,-0.1396801,0.4975093,1.486293,0.1941867,0.04228482,1.159121,0.3175095,285.0372,263.938,348.2141,True
7,0.3333333,-1.146656,-0.6046777,0.2015476,-1.465816,-4.639448,-2.676132,0.3312163,1.225332,0.4202578,-1.340797,0.3409368,10.76923,16.47739,-0.1824442,0.05472715,0.3418726,-0.5674142,-3.548429,-0.6389791,0.3490649,1.422352,0.3507969,-0.1073065,-0.04770593,-0.08403336,-1.108291,0.4326659,-0.1383097,0.4975123,1.486278,0.194006,0.0398149,1.16373,0.3145726,284.3423,263.0138,348.6653,True
7,0.3444445,-1.213714,-0.6156192,0.2028622,-1.464596,-4.632017,-2.661488,0.3283008,1.226663,0.4196279,-1.344533,-0.3436366,10.71618,16.22027,-0.1801853,0.02701114,0.3492481,-0.5635781,-3.544716,-0.6402189,0.3493225,1.4231,0.3504655,-0.1042825,-0.05086236,-0.1021872,-1.110021,0.4316377,-0.1367304,0.4976546,1.48625,0.1937261,0.03695039,1.169039,0.311576,283.6891,261.8572,349.3656,True
7,0.3555556,-1.277622,-0.6201686,0.1998818,-1.463131,-4.62476,-2.645782,0.3251982,1.228136,0.4189093,-1.341983,0.2371332,10.6366,15.98457,-0.1798717,-0.06461534,0.3532494,-0.5580345,-3.545897,-0.6372324,0.349516,1.423925,0.3501565,-0.09488058,-0.0806381,-0.1236489,-1.111873,0.4291803,-0.1349102,0.4978091,1.486207,0.1934452,0.03413384,1.175004,0.3085336,282.7793,260.7865,350.0078,True
7,0.3666667,-1.372575,-0.6099902,0.1745575,-1.460494,-4.618878,-2.628061,0.3219176,1.230031,0.4181211,-1.344923,-0.2703955,10.61008,15.70602,-0.1869998,-0.1350088,0.3733294,-0.5518123,-3.546312,-0.6345783,0.349866,1.424788,0.3498363,-0.08969116,-0.113619,-0.1397486,-1.113546,0.426257,-0.1327407,0.4979671,1.486119,0.1931608,0.03111824,1.181626,0.3053597,281.8133,259.7262,350.6613,True
7,0.3777778,-1.469649,-0.5966368,0.1513848,-1.458075,-4.613081,-2.608875,0.3184537,1.231951,0.4173579,-1.345204,-0.02239709,10.61008,15.38461,-0.2416485,-0.2004648,0.4788948,-0.5419171,-3.543143,-0.6327599,0.3499739,1.425859,0.3493321,-0.0984278,-0.1636358,-0.1653455,-1.115813,0.4217788,-0.1293684,0.4981553,1.48602,0.1928539,0.02835452,1.188725,0.3020711,280.614,258.2862,351.6624,True
7,0.3888889,-1.545393,-0.5810163,0.1387955,-1.456055,-4.60747,-2.590123,0.3149998,1.233957,0.4166627,-1.344203,0.09208886,10.66313,14.9775,-0.2691582,-0.1804541,0.5280986,-0.535273,-3.536338,-0.6346866,0.3499302,1.426808,0.3489816,-0.1230566,-0.1796003,-0.178996,-1.117888,0.4187213,-0.1257166,0.4982492,1.485896,0.192503,0.02572479,1.196104,0.2986624,279.353,256.3639,353.0832,True
7,0.4,-1.602896,-0.5855497,0.1357989,-1.453664,-4.60096,-2.571399,0.3114403,1.236339,0.4157932,-1.34358,0.05690957,10.76923,14.50611,-0.2774707,-0.1625198,0.5803937,-0.5279829,-3.528546,-0.6380212,0.349934,1.427874,0.3484201,-0.1532533,-0.1518336,-0.2159335,-1.121449,0.417542,-0.1224029,0.4984087,1.485784,0.1922171,0.02295784,1.203726,0.2951963,278.1978,253.3852,355.4817,True
7,0.4111111,-1.648752,-0.5847088,0.1252801,-1.45091,-4.594882,-2.552213,0.3078671,1.238711,0.4148488,-1.344944,-0.1244557,10.90185,13.97043,-0.2720311,-0.1444901,0.6134449,-0.5210618,-3.520962,-0.6418314,0.3499629,1.42895,0.3478382,-0.180244,-0.124072,-0.251838,-1.125418,0.416567,-0.119075,0.4985445,1.485681,0.1919379,0.02000885,1.211624,0.2917741,277.1298,249.6465,358.6192,True
7,0.4222222,-1.679688,-0.5838162,0.1136489,-1.447832,-4.588961,-2.533272,0.3044526,1.241095,0.4138775,-1.345906,-0.08623227,11.03448,13.45618,-0.2730541,-0.1264403,0.6326818,-0.5144258,-3.512965,-0.6456698,0.3500885,1.429938,0.3472483,-0.19853,-0.1059311,-0.2686668,-1.128728,0.415447,-0.1157703,0.4987299,1.485556,0.1916168,0.01706844,1.219782,0.2884787,276.0775,245.2892,2.459062,True
7,0.4333333,-1.751256,-0.5618522,0.08291212,-1.444429,-4.584531,-2.512115,0.3007249,1.243806,0.4128802,-1.346346,-0.03898419,11.14058,12.94193,-0.3208063,-0.1437103,0.6584456,-0.5066499,-3.506373,-0.6463282,0.3500553,1.431071,0.3464632,-0.1986728,-0.08352928,-0.2824654,-1.13227,0.4148168,-0.1133151,0.4988777,1.485488,0.191313,0.01424101,1.22816,0.2852489,275.0385,239.4512,7.91849,True
7,0.4444444,-1.788666,-0.5386302,0.07125425,-1.441825,-4.579993,-2.492235,0.2971546,1.246129,0.412039,-1.34732,-0.08830029,11.19363,12.47054,-0.3547148,-0.1524378,0.6894895,-0.4986247,-3.499158,-0.6476595,0.3501919,1.432219,0.345799,-0.2051247,-0.08139296,-0.2877212,-1.135337,0.4134142,-0.1102112,0.4990426,1.485387,0.1909506,0.01162021,1.236677,0.2820264,274.0269,230.1328,16.90326,True
7,0.4555556,-1.831476,-0.519753,0.03510945,-1.438085,-4.57653,-2.471459,0.2935112,1.248822,0.411155,-1.34603,0.1191175,11.16711,12.08485,-0.3767458,-0.149507,0.757791,-0.4893324,-3.488276,-0.6523799,0.3501264,1.4333,0.345005,-0.2167153,-0.09314606,-0.2748534,-1.137717,0.411565,-0.1067054,0.4991731,1.4853,0.1906047,0.009218489,1.24525,0.2787864,273.1756,214.5089,32.14402,True
7,0.4666667,-1.859312,-0.509317,0.005343527,-1.434119,-4.572944,-2.450934,0.2900043,1.251637,0.4102237,-1.347768,-0.1595286,11.14058,11.87058,-0.3957496,-0.1156391,0.8133762,-0.4809397,-3.474847,-0.659444,0.3501743,1.434472,0.3442137,-0.248408,-0.1049373,-0.2468827,-1.139287,0.4097373,-0.1021346,0.4993292,1.485177,0.1902313,0.006750264,1.253963,0.2755522,272.746,191.6467,54.53083,True
7,0.4777778,-1.870086,-0.495575,-0.01384111,-1.43025,-4.569581,-2.430401,0.2863812,1.254511,0.4092743,-1.347792,-0.0002833964,11.11406,11.8063,-0.4085423,-0.08696264,0.8295031,-0.4732874,-3.461845,-0.666051,0.3501307,1.435607,0.3434184,-0.2695351,-0.09860003,-0.2274925,-1.141044,0.4086135,-0.09795026,0.4994159,1.485079,0.1898808,0.004404707,1.262727,0.2724511,272.8184,164.5159,81.16857,True
7,0.4888889,-1.871366,-0.4604778,-0.03311767,-1.426934,-4.567333,-2.410031,0.2829237,1.257562,0.4082723,-1.348498,-0.06424385,11.06101,11.91343,-0.4232903,-0.08710641,0.8626153,-0.4643184,-3.448987,-0.672307,0.3501583,1.436907,0.3425083,-0.295945,-0.08162029,-0.2027049,-1.142457,0.4082443,-0.09363514,0.4996085,1.484942,0.1895397,0.002106032,1.271543,0.2695297,273.4299,143.9939,101.2627,True
7,0.5,-1.868456,-0.4072538,-0.0503397,-1.424097,-4.566051,-2.389376,0.2794064,1.260716,0.407176,-1.349027,-0.04761848,11.06101,12.14913,-0.4207042,-0.1171283,0.9328274,-0.4528812,-3.434883,-0.6803426,0.3500114,1.438179,0.3416893,-0.3139564,-0.0763277,-0.1918693,-1.144131,0.4073607,-0.08909712,0.4997084,1.484844,0.1892278,-6.87805E-05,1.280399,0.2667998,274.3124,131.0988,113.8248,True
7,0.5111111,-1.866668,-0.3444423,-0.06761488,-1.421537,-4.56555,-2.368483,0.2762097,1.264041,0.4057965,-1.349752,-0.06560411,11.11406,12.44911,-0.4173712,-0.1203682,0.9551793,-0.4431095,-3.4206,-0.6887683,0.3498919,1.439355,0.3407722,-0.3460297,-0.06140291,-0.2032572,-1.147001,0.4068061,-0.08392393,0.4998829,1.484734,0.188935,-0.002160602,1.289312,0.2642249,275.292,122.6419,122.0071,True
7,0.5222223,-1.864784,-0.2922868,-0.0784483,-1.419403,-4.565125,-2.348063,0.2727662,1.267128,0.4045424,-1.349973,-0.01953102,11.19363,12.79194,-0.4152147,-0.1427073,0.9465867,-0.4337799,-3.409484,-0.6942528,0.3496933,1.440647,0.3398843,-0.3482317,-0.05286747,-0.2106749,-1.149575,0.4061989,-0.07980109,0.5000362,1.484617,0.1886783,-0.004174708,1.298307,0.2618078,276.3105,116.7639,127.6418,True
7,0.5333334,-1.865196,-0.2038952,-0.0872459,-1.418958,-4.566709,-2.326861,0.2694239,1.270294,0.4033222,-1.350118,-0.01291447,11.27321,13.1562,-0.4248327,-0.1522934,0.9327674,-0.4247635,-3.398077,-0.6996092,0.3495478,1.441924,0.3389149,-0.3730333,-0.03470896,-0.2412978,-1.153315,0.40604,-0.07483643,0.500124,1.484538,0.1884186,-0.006160657,1.307427,0.2595469,277.3367,112.4056,131.8216,True
7,0.5444446,-1.859121,-0.1442599,-0.1045142,-1.417933,-4.568109,-2.306128,0.2660941,1.273508,0.4021738,-1.350831,-0.06495411,11.29973,13.47761,-0.4523069,-0.1812159,0.9583939,-0.4139277,-3.385413,-0.705131,0.3492283,1.443272,0.3379807,-0.3806028,-0.01445696,-0.2518306,-1.156418,0.4062108,-0.07041371,0.5001709,1.484468,0.1881704,-0.008031209,1.316681,0.2574245,278.4019,108.9765,135.152,True
7,0.5555557,-1.84758,-0.1197777,-0.1269994,-1.416087,-4.569411,-2.285697,0.2627855,1.276792,0.4010246,-1.350607,0.02118558,11.27321,13.73473,-0.4839482,-0.1953264,1.012853,-0.4018667,-3.368608,-0.7139559,0.3489388,1.444446,0.3369212,-0.3839498,0.004749835,-0.2666711,-1.159927,0.4067434,-0.06624959,0.500281,1.484345,0.1879888,-0.009816683,1.326022,0.2554356,279.566,105.8828,138.1096,True
7,0.5666668,-1.830634,-0.112304,-0.1452021,-1.413643,-4.570211,-2.265938,0.2596906,1.280099,0.3998578,-1.351164,-0.05111928,11.22016,13.86329,-0.5042655,-0.1698191,1.014096,-0.3930474,-3.351394,-0.7235646,0.3486219,1.445623,0.3360083,-0.3832177,0.01973994,-0.3007388,-1.164388,0.4071217,-0.06226284,0.5004311,1.484169,0.1877692,-0.01157542,1.335455,0.2536684,280.732,103.2672,140.555,True
7,0.577778,-1.806092,-0.106809,-0.1250557,-1.412407,-4.570118,-2.246981,0.2566655,1.283322,0.3987927,-1.351627,-0.04171823,11.14058,13.88472,-0.4948966,-0.1388286,0.9906989,-0.3854468,-3.334712,-0.7339326,0.3482972,1.446807,0.3351152,-0.3865573,0.02509782,-0.3156101,-1.168377,0.407355,-0.05801963,0.5005267,1.484026,0.1875918,-0.01324161,1.344905,0.2521671,281.9348,101.2219,142.5094,True
7,0.5888891,-1.781626,-0.09707056,-0.1187904,-1.411021,-4.570679,-2.228021,0.253803,1.286584,0.3977818,-1.352308,-0.0619772,11.03448,13.82044,-0.4586312,-0.1461835,0.9947637,-0.3759052,-3.318188,-0.7457488,0.3481348,1.448095,0.3341439,-0.4005837,0.03365883,-0.3335713,-1.172636,0.4078248,-0.05334258,0.5007169,1.483884,0.1874354,-0.01473158,1.354265,0.2508817,283.1546,99.64223,144.1169,True
7,0.6000003,-1.757152,-0.07880439,-0.102946,-1.410486,-4.571041,-2.209597,0.2508553,1.289746,0.3967173,-1.353004,-0.06320876,10.92838,13.69188,-0.4521067,-0.162188,1.010664,-0.365685,-3.300988,-0.757121,0.3477677,1.44929,0.3333323,-0.4241061,0.04431862,-0.341846,-1.176672,0.4085445,-0.04818697,0.500751,1.483767,0.1873243,-0.01591462,1.3634,0.249708,284.3439,98.2644,145.5821,True
7,0.6111114,-1.723302,-0.02752966,-0.1074874,-1.41077,-4.573139,-2.191063,0.2480993,1.292847,0.3955781,-1.353072,-0.005746428,10.87533,13.52046,-0.446771,-0.1781231,1.003139,-0.3559752,-3.284567,-0.7675771,0.3474785,1.450529,0.3323379,-0.4314299,0.0581243,-0.3268301,-1.179841,0.4095369,-0.04349661,0.5007837,1.483701,0.1872082,-0.01679216,1.372245,0.2485251,285.4728,96.85859,147.0425,True
7,0.6222225,-1.712718,-0.006159324,-0.1011997,-1.41065,-4.574242,-2.171928,0.2452688,1.296053,0.3945379,-1.353436,-0.03335103,10.8488,13.41333,-0.4327874,-0.2206907,1.002947,-0.3452357,-3.269791,-0.7770883,0.347195,1.451791,0.3315537,-0.4120827,0.06767234,-0.3088903,-1.182849,0.4103966,-0.03993996,0.5008339,1.483555,0.1871243,-0.01748565,1.380823,0.2472449,286.5639,95.75397,148.1339,True
7,0.6333337,-1.682994,0.02810237,-0.08755148,-1.411602,-4.575556,-2.153853,0.2425707,1.299193,0.3934133,-1.353475,-0.003442899,10.82228,13.3919,-0.4295166,-0.2387904,1.006073,-0.3349777,-3.252644,-0.788538,0.3468832,1.453101,0.3307357,-0.4056113,0.06872225,-0.3004263,-1.185963,0.4111439,-0.03588636,0.5008289,1.48343,0.187006,-0.01814125,1.389189,0.2458403,287.6289,94.81948,148.9735,True
7,0.6444448,-1.646906,0.0655892,-0.07713574,-1.412877,-4.577168,-2.136579,0.2401616,1.302319,0.3922732,-1.352563,0.08327484,10.79576,13.45618,-0.4197389,-0.2888571,1.011213,-0.3234058,-3.237955,-0.7981864,0.3466772,1.454233,0.329915,-0.4001493,0.06976593,-0.28556,-1.188679,0.412019,-0.03191159,0.5008473,1.483295,0.1869895,-0.01883351,1.397385,0.2443989,288.6474,94.12084,149.5205,True
7,0.655556,-1.60869,0.1084172,-0.06141053,-1.415011,-4.578767,-2.119872,0.2377738,1.305299,0.391118,-1.353424,-0.07961313,10.68966,13.6276,-0.4186327,-0.319715,1.000468,-0.3127206,-3.223628,-0.807235,0.3464836,1.455368,0.3290899,-0.4042222,0.07611012,-0.2652658,-1.190917,0.4130777,-0.02772857,0.5007982,1.483158,0.1869118,-0.01957326,1.405507,0.2429649,289.5655,93.54453,149.9487,True
7,0.6666671,-1.555512,0.1374435,-0.04995811,-1.416861,-4.580156,-2.10418,0.2355349,1.308296,0.3900049,-1.354206,-0.07079463,10.58355,13.90615,-0.4216399,-0.3644871,1.00782,-0.3009654,-3.208793,-0.8166429,0.3461344,1.456488,0.3281784,-0.4138073,0.07717022,-0.2651717,-1.193887,0.4139259,-0.02320013,0.5007724,1.48298,0.1867809,-0.02020476,1.413546,0.2416163,290.4347,92.91501,150.4706,True
7,0.6777782,-1.530046,0.1609895,-0.05011104,-1.41878,-4.581986,-2.087608,0.2332819,1.311247,0.3888972,-1.354584,-0.03422816,10.45093,14.09899,-0.3982242,-0.3750307,0.9970298,-0.2902707,-3.191408,-0.8295507,0.3457762,1.457594,0.3272321,-0.4265736,0.08355013,-0.262906,-1.196777,0.4151021,-0.01840697,0.5007072,1.482857,0.186729,-0.02059741,1.421438,0.2404259,291.3127,92.25484,151.063,True
7,0.6888894,-1.50238,0.1771318,-0.03641249,-1.42084,-4.583185,-2.071634,0.2315283,1.314086,0.387749,-1.355267,-0.06246008,10.34483,14.1847,-0.3790921,-0.3717589,0.9905483,-0.2801709,-3.172623,-0.8440889,0.3453654,1.458693,0.3263812,-0.4329723,0.09525663,-0.2638903,-1.199762,0.4164698,-0.01403326,0.5006804,1.482622,0.1867092,-0.02077258,1.429169,0.2394206,292.2236,91.51032,151.7657,True
7,0.7000005,-1.512801,0.1484296,-0.002201915,-1.421966,-4.582539,-2.054591,0.2299184,1.316808,0.3866279,-1.354177,0.09996387,10.26525,14.12042,-0.3704819,-0.3420098,1.025744,-0.2698752,-3.14475,-0.8670637,0.34484,1.459658,0.3256788,-0.4309462,0.120846,-0.2734404,-1.203119,0.4187777,-0.01021376,0.5004897,1.48245,0.1866798,-0.02078639,1.436705,0.2385829,293.1744,90.80016,152.4665,True
7,0.7111117,-1.458004,0.07210181,0.04154471,-1.421568,-4.580165,-2.040527,0.2280598,1.319657,0.3852911,-1.354237,-0.006628654,10.26525,13.84187,-0.3547308,-0.2907888,1.013025,-0.2620252,-3.116694,-0.8907552,0.3443338,1.460573,0.3249125,-0.4332502,0.1421929,-0.2904133,-1.2069,0.421172,-0.006255233,0.5003294,1.482337,0.1866663,-0.02072267,1.444083,0.2378789,294.0642,90.16503,153.1306,True
7,0.7222228,-1.40848,-0.03724868,0.05973268,-1.418389,-4.578045,-2.02652,0.2262886,1.323282,0.3852105,-1.352686,0.1417915,10.34483,13.41333,-0.3323002,-0.1923379,0.8789688,-0.2589269,-3.097702,-0.9059184,0.3440261,1.461647,0.3240614,-0.4375798,0.1571216,-0.2956642,-1.210393,0.4235097,-0.001906291,0.5001556,1.482232,0.1866276,-0.0203762,1.451202,0.2372702,294.8678,89.50655,153.8997,True
7,0.7333339,-1.316959,-0.2252483,0.1143722,-1.41187,-4.571058,-2.016111,0.2243622,1.326339,0.3838363,-1.35502,-0.2147707,10.50398,12.85623,-0.3358953,-0.1857471,0.8054993,-0.2534301,-3.081766,-0.9174992,0.3435692,1.462602,0.3232679,-0.4289644,0.1709514,-0.2850613,-1.213215,0.4260372,0.001682585,0.4999674,1.482149,0.186635,-0.01970961,1.458149,0.2365126,295.6091,88.80007,154.8058,True
7,0.7444451,-1.253268,-0.3963823,0.1466684,-1.404257,-4.56427,-2.005408,0.222593,1.329331,0.382622,-1.355091,-0.00473136,10.71618,12.19199,-0.3553355,-0.2069296,0.7394992,-0.24712,-3.068685,-0.9256426,0.3432602,1.463554,0.322438,-0.4009146,0.1804667,-0.2469503,-1.214629,0.4284649,0.004357198,0.4998298,1.482078,0.1866243,-0.01877331,1.464949,0.2353172,296.4354,88.31464,155.3578,True
7,0.7555562,-1.220882,-0.4728426,0.1798331,-1.398481,-4.55814,-1.993901,0.2207246,1.33218,0.3810995,-1.357452,-0.2162208,11.00796,11.46347,-0.3572155,-0.2304698,0.7735322,-0.2387194,-3.044771,-0.9448342,0.342853,1.464565,0.321538,-0.3707719,0.1740177,-0.2142242,-1.215883,0.4303369,0.006788398,0.4996145,1.481984,0.186568,-0.0176117,1.471573,0.2336094,297.302,88.15731,155.3821,True
7,0.7666674,-1.101237,-0.4698564,0.291307,-1.397079,-4.550294,-1.986442,0.2185655,1.334773,0.3791451,-1.356821,0.05898999,11.29973,10.82066,-0.3773323,-0.206153,0.8120633,-0.2313754,-3.011606,-0.9723033,0.3424814,1.465481,0.3206053,-0.3749115,0.1590725,-0.2014291,-1.217761,0.4316831,0.01080817,0.4994773,1.481843,0.1865106,-0.01611086,1.4776,0.2310276,298.3379,87.77224,155.6917,True
7,0.7777785,-0.9798136,-0.4212117,0.3515059,-1.396692,-4.543617,-1.980811,0.2165543,1.337109,0.3773019,-1.355414,0.127561,11.53846,10.37069,-0.3944287,-0.1881005,0.8132685,-0.225199,-2.982369,-0.9958917,0.3420694,1.466427,0.3196626,-0.402531,0.147322,-0.1937364,-1.219584,0.4329685,0.01573289,0.4993349,1.481694,0.1863949,-0.0144395,1.482872,0.2273382,299.3228,87.55875,155.569,True
7,0.7888896,-0.810946,-0.05500269,0.3540196,-1.408753,-4.545891,-1.976636,0.2155021,1.338811,0.3768995,-1.358426,-0.2769389,11.72414,10.04928,-0.3749421,-0.2116108,0.8567885,-0.2166466,-2.947328,-1.026583,0.3415326,1.467571,0.318748,-0.4324308,0.1462579,-0.2009127,-1.222088,0.4348146,0.02100462,0.4991955,1.481554,0.1862912,-0.01291749,1.48763,0.2225934,300.0679,87.43106,154.9463,True
7,0.8000008,-0.7919663,0.7151365,0.3004613,-1.439283,-4.558,-1.966149,0.2147644,1.338094,0.375201,-1.360046,-0.146291,11.88329,9.899292,-0.3017029,-0.3383706,0.9327515,-0.2030788,-2.912193,-1.060183,0.3405285,1.468396,0.3176892,-0.4464426,0.1548077,-0.2178062,-1.225032,0.4370122,0.02563186,0.4989635,1.481454,0.1861854,-0.01166462,1.491896,0.217152,300.6656,87.04341,154.2431,True
7,0.8111119,-0.8825727,1.483888,0.2930416,-1.478769,-4.571464,-1.951744,0.2140564,1.336645,0.3733163,-1.362181,-0.1949203,11.93634,9.813582,-0.3221109,-0.3319584,0.9041196,-0.1954771,-2.880146,-1.087345,0.3392171,1.468642,0.3167586,-0.4572694,0.1591033,-0.2358041,-1.228182,0.4391309,0.0303097,0.4986187,1.481351,0.1861923,-0.01070757,1.495487,0.2117482,301.0854,86.93344,152.8181,True
7,0.8222231,-1.026843,1.81552,0.2519535,-1.506362,-4.580475,-1.934745,0.2132334,1.335843,0.3712847,-1.356449,0.524336,11.98939,10.07071,-0.388949,-0.2062422,0.8302589,-0.1943335,-2.84412,-1.11589,0.3380409,1.469153,0.3158627,-0.4978122,0.1835934,-0.2406964,-1.231043,0.4422777,0.03624775,0.4980671,1.481346,0.1862853,-0.01032766,1.498541,0.2080949,301.3664,86.8502,150.8816,True
7,0.8333342,-1.29293,2.193344,0.1525151,-1.541072,-4.594965,-1.909939,0.2125947,1.33526,0.3697844,-1.351008,0.4918039,12.04244,10.73495,-0.5501578,0.1349163,0.5614776,-0.2064504,-2.827533,-1.120669,0.3361831,1.468656,0.3152425,-0.5124321,0.2546347,-0.0933868,-1.227238,0.4476866,0.04069789,0.4973258,1.481446,0.1864667,-0.01132607,1.501937,0.207915,301.4179,85.77299,150.4076,True
7,0.8444453,-1.329504,2.06016,0.1955486,-1.557728,-4.596611,-1.894677,0.2116368,1.335868,0.3675864,-1.34719,0.3460086,12.09549,11.74202,-0.65289,0.2970821,0.3664562,-0.2139909,-2.818342,-1.11934,0.3351932,1.468476,0.3146238,-0.4528719,0.2981114,0.01161723,-1.223755,0.4524687,0.04214159,0.4967588,1.481572,0.1866722,-0.01378724,1.506349,0.212077,301.22,83.54003,152.6964,True
7,0.8555565,-1.232677,1.837923,0.2065967,-1.57065,-4.597605,-1.884723,0.2109776,1.337158,0.3659663,-1.339695,0.6829802,12.14854,13.09192,-0.7773504,0.4445243,0.07988639,-0.226651,-2.833718,-1.091286,0.3346277,1.468076,0.314446,-0.2949236,0.342614,0.1561754,-1.217021,0.4579701,0.03831889,0.496148,1.48162,0.1868882,-0.01684637,1.511716,0.2199686,301.0327,81.06541,157.0355,True
7,0.8666676,-1.050672,1.590327,0.1577949,4.703069,-4.600586,-1.878708,0.2105045,1.338838,0.3649278,-1.348736,-0.8321365,12.25464,14.67752,-0.7157573,0.4054782,0.01767538,-0.2292289,-2.832214,-1.087375,0.3343328,1.468333,0.3141496,-0.160005,0.3180226,0.2272882,-1.212546,0.4606008,0.035097,0.4958503,1.481592,0.1869714,-0.01967194,1.518507,0.2307298,300.9195,78.10898,162.9722,True
7,0.8777788,-0.8145692,1.40476,0.1161352,4.693226,-4.60376,-1.87695,0.2100542,1.34025,0.3639281,-1.355664,-0.624048,12.41379,16.26312,-0.4098683,-0.06272748,0.1702916,-0.2120728,-2.837377,-1.087946,0.3348664,1.469314,0.3143907,-0.1006807,0.2371821,0.187128,-1.211781,0.4606829,0.03444958,0.495721,1.48142,0.1870172,-0.0207364,1.525803,0.2421947,301.7159,74.92326,170.0231,True
7,0.8888899,-0.7005991,1.379544,0.07432905,4.679562,-4.60871,-1.872942,0.2095677,1.341238,0.3630443,-1.359854,-0.3789686,12.59947,17.80587,-0.2315082,-0.3511983,0.2846654,-0.197288,-2.835686,-1.092605,0.3352649,1.470196,0.3140991,-0.1077542,0.1744962,0.1114179,-1.21304,0.4607158,0.03614282,0.4956079,1.481179,0.1868963,-0.0197222,1.532861,0.2522382,303.416,72.56809,175.8229,True
7,0.900001,-0.610397,1.414865,-0.005930454,4.662963,-4.6166,-1.868722,0.2092779,1.342058,0.3633842,-1.363513,-0.3327909,12.78515,19.19863,0.04279089,-0.6521551,0.4038281,-0.1782267,-2.836665,-1.101112,0.3358283,1.471337,0.3138902,-0.1688181,0.09278093,-0.04159974,-1.218643,0.4591856,0.04069789,0.4957812,1.480936,0.1868241,-0.01720342,1.539222,0.2596195,305.5864,71.54935,179.0741,True
7,0.9111122,-0.5947381,1.418877,-0.1071939,4.649038,-4.625604,-1.863061,0.2085812,1.342797,0.3633654,-1.36035,0.2909477,12.91777,20.2057,0.2377395,-0.7712063,0.5271055,-0.1635735,-2.815878,-1.130312,0.3358759,1.471765,0.3135004,-0.2503504,0.04732774,-0.2167114,-1.226598,0.4587654,0.04627588,0.4959792,1.480685,0.1868565,-0.01414325,1.544462,0.2639804,307.7809,71.29588,180.1474,True
7,0.9222233,-0.5910124,1.26322,-0.1524772,4.641183,-4.630744,-1.856691,0.2078133,1.343663,0.3635514,-1.358468,0.1684882,13.0504,20.54853,0.2942967,-0.7264132,0.5738195,-0.1544649,-2.786009,-1.16462,0.3357172,1.472347,0.3131521,-0.3002144,0.02619909,-0.3089732,-1.233079,0.4586818,0.0512821,0.4960134,1.480551,0.1868572,-0.01167053,1.548671,0.2658519,309.3476,71.40189,179.6176,True
7,0.9333345,-0.5857112,0.9775798,-0.2038075,4.641552,-4.634843,-1.850535,0.2068218,1.344878,0.3641207,-1.355888,0.2339866,13.1565,20.2057,0.2779627,-0.5901346,0.5838736,-0.1509341,-2.748395,-1.203871,0.3351611,1.472354,0.3128145,-0.3332598,-0.01404011,-0.4259346,-1.241525,0.4575951,0.05640602,0.4960105,1.48039,0.1870494,-0.01045162,1.552023,0.2664829,310.13,71.7512,178.1698,True
7,0.9444456,-0.5548469,0.7284337,-0.2137581,4.641981,-4.637176,-1.845542,0.2062513,1.346047,0.3654308,-1.354536,0.1210779,13.23607,19.19863,0.1587259,-0.3889888,0.5190286,-0.1531589,-2.71969,-1.229189,0.3343523,1.4726,0.3124626,-0.3237821,-0.01826809,-0.4377508,-1.246621,0.4576167,0.05958903,0.4958101,1.480346,0.1871452,-0.01070937,1.554701,0.2668712,310.3031,72.17389,176.8932,True
7,0.9555568,-0.509647,0.5921726,-0.2539177,4.639799,-4.641825,-1.841632,0.2058433,1.347067,0.3666618,-1.354331,0.01767433,13.31565,17.65588,-0.06112543,-0.1910949,0.3609519,-0.1577667,-2.721081,-1.21929,0.3333129,1.472645,0.3123918,-0.2773851,0.0178366,-0.3731175,-1.248252,0.4593031,0.0604178,0.4953722,1.480383,0.1875472,-0.01200491,1.556663,0.2673773,310.0395,72.479,176.3314,True
7,0.9666679,-0.4679415,0.5251092,-0.2921906,4.637719,-4.647104,-1.838299,0.2053845,1.348139,0.3672361,-1.355281,-0.08715614,13.39523,15.81315,-0.1010277,-0.0984522,0.3262744,-0.1578786,-2.701728,-1.236424,0.3330923,1.472914,0.3125057,-0.251122,0.07094122,-0.294416,-1.248692,0.4621578,0.06172622,0.4951575,1.480186,0.1879342,-0.0137808,1.557944,0.2679474,309.4618,72.8417,176.0554,True
7,0.977779,-0.3940836,0.3920381,-0.3590866,4.639325,-4.652835,-1.837161,0.2049907,1.34892,0.3671589,-1.355912,-0.05715582,13.34218,13.90615,-0.0573881,-0.05681894,0.3442756,-0.1573449,-2.673577,-1.265097,0.3327465,1.473308,0.3124936,-0.1978013,0.1569821,-0.1711475,-1.245859,0.4670749,0.06040156,0.4946048,1.480215,0.1882403,-0.01549389,1.5587,0.2687277,308.7086,73.07984,175.7903,True
7,0.9888902,-0.3382307,0.2536306,-0.4014663,4.642869,-4.657997,-1.835697,0.2045868,1.350241,0.3681102,-1.356028,-0.01041316,13.12997,11.97771,-0.03814214,-0.04405531,0.366586,-0.1553076,-2.642883,-1.295904,0.3326903,1.47381,0.3124619,-0.1524522,0.2143603,-0.1021921,-1.244607,0.4711697,0.05945081,0.4941964,1.480184,0.1882114,-0.01700857,1.559369,0.2700369,308.0753,73.26584,175.5968,True
7,1.000001,-0.3024268,0.1014567,-0.3957328,4.647309,-4.660577,-1.833877,0.2041196,1.351222,0.3685498,-1.357645,-0.148265,12.75862,10.15642,0.09451857,-0.1066927,0.436022,-0.1499754,-2.598023,-1.34653,0.3328245,1.474275,0.3127027,-0.1372172,0.2185537,-0.06823628,-1.244014,0.4739001,0.05954508,0.4937252,1.480182,0.1884344,-0.01825536,1.560216,0.271923,307.7876,73.44063,175.8084,True
7,1.011112,-0.2964838,-0.04016772,-0.3846563,4.65328,-4.663006,-1.830942,0.2037606,1.352334,0.3695354,-1.356924,0.06650988,12.22811,8.720805,0.1936326,-0.1776557,0.4012063,-0.1449761,-2.584865,-1.364785,0.3329413,1.474781,0.3128603,-0.1495452,0.157735,-0.0245736,-1.242922,0.4734011,0.06185032,0.4933384,1.48036,0.1886516,-0.01912422,1.561078,0.2740551,307.8443,73.81699,176.1303,True
7,1.022224,-0.3165324,-0.07859707,-0.379136,4.65589,-4.666223,-1.827107,0.2032622,1.353088,0.3697352,-1.356055,0.0782562,11.56498,7.628025,0.2190649,-0.2008973,0.3615921,-0.1415167,-2.569216,-1.383569,0.332854,1.475137,0.3130283,-0.159133,0.1065989,-0.02779898,-1.243484,0.4727956,0.06413425,0.4930691,1.480302,0.1888032,-0.01973911,1.562073,0.276156,307.9848,74.24235,176.3255,True
7,1.033335,-0.3322519,-0.1222654,-0.3544515,4.659398,-4.668355,-1.823007,0.2028537,1.353946,0.37059,-1.354395,0.1508138,10.87533,6.813797,0.2081754,-0.2029293,0.315835,-0.1390111,-2.559234,-1.395208,0.3327932,1.475314,0.3130198,-0.1390348,0.03740694,-0.04625028,-1.244742,0.4708929,0.06565251,0.4927963,1.480287,0.1890762,-0.0200616,1.563094,0.2778549,308.1813,74.53197,176.5674,True
7,1.044446,-0.3427359,-0.142477,-0.34591,4.662221,-4.672221,-1.819275,0.2026307,1.355626,0.3734589,-1.352976,0.1282741,10.2122,6.170985,0.1846788,-0.1944636,0.3095931,-0.1366857,-2.537961,-1.41741,0.3326706,1.475577,0.3130898,-0.1135837,-0.0136767,-0.06152243,-1.24609,0.4689932,0.06660566,0.4924017,1.480292,0.1892214,-0.02016086,1.564219,0.2789405,308.3477,74.92356,176.5196,True
7,1.055557,-0.350025,-0.1435816,-0.3278626,4.664709,-4.674579,-1.815224,0.2023189,1.356515,0.3743606,-1.352492,0.0433207,9.628648,5.678166,0.1547342,-0.131743,0.3248509,-0.1369829,-2.505614,-1.450067,0.3326251,1.475613,0.3132808,-0.08722945,-0.07323154,-0.09815185,-1.248889,0.4662201,0.06707624,0.4921009,1.480567,0.1889887,-0.02010747,1.56553,0.2794431,308.5098,75.3427,176.203,True
7,1.066668,-0.3448486,-0.1263339,-0.301142,4.665704,-4.677011,-1.8119,0.2019334,1.357312,0.3749063,-1.35265,-0.01482509,9.257293,5.121061,0.1612182,-0.1190138,0.3504214,-0.1356566,-2.470443,-1.486975,0.3324614,1.476016,0.3135016,-0.07885467,-0.08064066,-0.1152926,-1.250707,0.4653945,0.06791327,0.4918523,1.480317,0.1893749,-0.01991322,1.567102,0.2796178,308.5184,75.97913,175.2031,True
7,1.077779,-0.3352399,-0.1369241,-0.3032562,4.667798,-4.68016,-1.808211,0.2017129,1.358908,0.3775787,-1.352375,0.02534169,9.018568,5.121061,0.1921544,-0.1636018,0.3320225,-0.1319117,-2.449067,-1.511393,0.332287,1.476341,0.3137817,-0.07897169,-0.06889599,-0.1269839,-1.25254,0.4651241,0.06888053,0.4915462,1.480298,0.1895893,-0.01962801,1.569075,0.280067,308.4928,76.77807,173.7959,True
7,1.08889,-0.2836377,-0.2187149,-0.2819042,4.673581,-4.681077,-1.806805,0.2012716,1.360116,0.3785906,-1.35299,-0.05657095,8.859415,5.913861,0.2155494,-0.1783901,0.3148101,-0.1293343,-2.428103,-1.535414,0.3321589,1.476779,0.3141019,-0.08563207,-0.03901407,-0.1534833,-1.255003,0.4659567,0.06988454,0.4911926,1.480196,0.1900792,-0.01910351,1.571105,0.2808849,308.774,77.21803,173.2114,True
7,1.100002,-0.2352787,-0.3058611,-0.2648059,4.681753,-4.682323,-1.806462,0.2002752,1.359091,0.3728228,-1.352581,0.03784936,8.779839,7.413754,0.2324322,-0.1952623,0.274193,-0.1265039,-2.416202,-1.550427,0.3319426,1.477081,0.3143022,-0.08252431,-0.009166446,-0.1609042,-1.257015,0.4670601,0.07037403,0.4908355,1.480238,0.1903944,-0.01846953,1.573138,0.2820421,309.1594,77.57175,172.8554,True
7,1.111113,-0.2140523,-0.2855309,-0.2638682,4.685042,-4.68454,-1.804852,0.1999435,1.359946,0.3734026,-1.354761,-0.1997665,8.726789,9.62074,0.2117417,-0.1557301,0.2126312,-0.1262695,-2.414515,-1.553653,0.3317744,1.477398,0.3144777,-0.07288013,-0.0006462857,-0.1545845,-1.258462,0.4674914,0.07072184,0.4904144,1.480265,0.1907952,-0.01787398,1.575269,0.2836767,309.4703,78.02494,172.398,True
7,1.122224,-0.2259845,-0.2344654,-0.2693244,4.686434,-4.687591,-1.801927,0.1995297,1.360834,0.3739948,-1.35576,-0.08994722,8.594163,12.57767,0.1530423,-0.1143829,0.2173219,-0.1264479,-2.39449,-1.5731,0.3315224,1.477739,0.3144555,-0.06435542,-0.0070321,-0.1546808,-1.260238,0.4672542,0.07125687,0.490023,1.480265,0.1911163,-0.01718442,1.576834,0.2850779,310.3364,78.05108,173.514,True
7,1.133335,-0.2368859,-0.1716579,-0.2726726,4.68643,-4.690634,-1.799016,0.1990748,1.361703,0.3749352,-1.354179,0.1449335,8.355438,16.19884,0.1201233,-0.07839172,0.2591484,-0.1268208,-2.35831,-1.609143,0.3313195,1.478033,0.3145459,-0.04938807,-0.01342743,-0.14951,-1.261762,0.4669761,0.07136712,0.4896112,1.480304,0.1914098,-0.01659634,1.577174,0.284721,311.4029,78.05229,175.1281,True
7,1.144446,-0.2251545,-0.1439149,-0.2589783,4.687843,-4.692312,-1.797125,0.1986832,1.362404,0.3755305,-1.352396,0.1615561,8.063659,20.46282,0.1116267,-0.04547147,0.2837904,-0.1274067,-2.327756,-1.640636,0.331126,1.478416,0.3145325,-0.04510165,-0.01024237,-0.1463526,-1.263313,0.466998,0.07176287,0.4892647,1.480334,0.1916285,-0.01671881,1.577213,0.282984,311.4389,78.53793,174.4139,True
7,1.155557,-0.2101915,-0.1586706,-0.2386917,4.690357,-4.693898,-1.795339,0.1982312,1.363248,0.3760862,-1.352133,0.02281958,7.692308,25.11249,0.1094708,-0.03164512,0.2881109,-0.1277987,-2.300433,-1.668823,0.3308772,1.478716,0.3146183,-0.05362314,0.0004026294,-0.1451797,-1.264845,0.4675185,0.07257007,0.4888285,1.480436,0.1918354,-0.01756836,1.577484,0.2808592,310.8344,79.25546,172.4982,True
7,1.166668,-0.2218534,-0.1458026,-0.1971312,4.691856,-4.694256,-1.792448,0.1977364,1.3641,0.3763783,-1.353119,-0.0903471,7.347479,29.46218,0.1008259,-0.04648739,0.2561496,-0.1268868,-2.28707,-1.682929,0.3305371,1.479016,0.3148317,-0.07771091,0.01414619,-0.10124,-1.264439,0.4682558,0.07394294,0.4884188,1.480504,0.1919792,-0.0187885,1.578103,0.279279,310.1373,79.93428,170.6859,True
7,1.17778,-0.2208733,-0.09035212,-0.1675232,4.691522,-4.695075,-1.790085,0.1972774,1.364774,0.3766484,-1.353231,-0.00949678,7.082227,32.84765,0.06744011,-0.02087113,0.2031354,-0.1276048,-2.284652,-1.68486,0.3302355,1.479332,0.3149762,-0.07093361,0.008731857,-0.06083177,-1.263847,0.4681242,0.07454614,0.487937,1.480638,0.1921964,-0.01992431,1.578823,0.2785665,309.6911,80.38357,169.7457,True
7,1.188891,-0.2178846,-0.04656786,-0.1537412,4.690548,-4.696706,-1.787825,0.1968744,1.365586,0.3770399,-1.352045,0.1083334,6.870025,35.11892,0.05560023,-0.02934626,0.1754696,-0.1271494,-2.276827,-1.692802,0.3299158,1.479633,0.3151422,-0.05260502,-0.008351601,-0.03866975,-1.263662,0.4674177,0.07470806,0.4875093,1.480706,0.1924267,-0.0208045,1.579599,0.2786486,309.4993,80.61628,169.5544,True
7,1.200002,-0.2160182,0.02589626,-0.1422405,4.688264,-4.698251,-1.785532,0.196606,1.366287,0.3772855,-1.352375,-0.031161,6.710876,36.34026,0.04733959,-0.07630871,0.197751,-0.1250823,-2.250953,-1.718648,0.3298682,1.480216,0.3152037,-0.03647074,-0.03394347,-0.02396327,-1.263506,0.4660639,0.07497011,0.4870802,1.480791,0.1926301,-0.02136192,1.580537,0.2793144,309.4479,80.58428,169.8558,True
7,1.211113,-0.2512521,0.06417428,-0.1177368,4.686445,-4.699073,-1.781607,0.1961868,1.367133,0.3775296,-1.352473,-0.008551181,6.604773,36.57595,0.07215047,-0.1199961,0.2294522,-0.1229688,-2.217917,-1.753168,0.3296632,1.480708,0.3152039,-0.03118509,-0.03392577,-0.02827625,-1.264097,0.4658356,0.07524655,0.4867163,1.480905,0.1928074,-0.02157798,1.581688,0.2804284,309.533,80.48822,170.2413,True
7,1.222224,-0.2607413,0.05138913,-0.1016787,4.686575,-4.699452,-1.778385,0.1958169,1.367921,0.3777993,-1.352392,0.007317927,6.57825,35.89029,0.07752296,-0.1348962,0.2293831,-0.1214332,-2.19348,-1.778503,0.3294583,1.481178,0.3152032,-0.0496258,-0.02000788,-0.06216053,-1.26596,0.4663332,0.07631927,0.4863639,1.480979,0.1929708,-0.02152245,1.583104,0.2819213,309.7194,80.42294,170.5719,True
7,1.233335,-0.2627814,0.03649401,-0.09309707,4.686871,-4.700093,-1.775534,0.1953186,1.368881,0.378094,-1.350766,0.1486594,6.604773,34.58324,0.06123838,-0.1081873,0.1879955,-0.121471,-2.190414,-1.781548,0.3291313,1.481584,0.3152187,-0.08721225,-0.009307878,-0.09267955,-1.268064,0.4667841,0.07854701,0.4860711,1.480993,0.193131,-0.02124225,1.584749,0.2837035,310.0093,80.28061,171.0105,True
7,1.244446,-0.2465797,-0.0006701648,-0.07065158,4.688144,-4.699695,-1.773405,0.1948062,1.369959,0.3783607,-1.35113,-0.03485499,6.710876,32.8048,0.04634647,-0.0688987,0.2158854,-0.1228554,-2.16463,-1.807103,0.328868,1.481979,0.3152113,-0.1023119,-0.01884846,-0.1128037,-1.27002,0.4664836,0.08025516,0.4857415,1.481029,0.1933753,-0.02081851,1.586651,0.2855558,310.364,80.08017,171.6026,True
7,1.255558,-0.2283628,-0.02937868,-0.07380944,4.689637,-4.700149,-1.771549,0.1944058,1.370931,0.3785229,-1.351048,0.007259862,6.843502,30.76923,0.04314642,0.008730263,0.260867,-0.1269332,-2.134021,-1.837891,0.328752,1.482176,0.3151836,-0.07131472,-0.03909728,-0.1035546,-1.270948,0.4653743,0.08030176,0.4854144,1.48104,0.1935594,-0.02024164,1.5886,0.287171,310.8145,79.98625,172.1322,True
7,1.266669,-0.2519155,-0.002850167,-0.07594758,4.688966,-4.70121,-1.767971,0.1939762,1.371842,0.378715,-1.350779,0.02346176,7.029178,29.22648,0.02507479,0.02141527,0.2759163,-0.1281407,-2.109368,-1.862042,0.328483,1.482782,0.3151793,-0.04666398,-0.06041985,-0.088925,-1.271565,0.4640154,0.08041228,0.4850886,1.481138,0.1937025,-0.0196826,1.590529,0.2883378,311.2946,79.97736,172.4608,True
7,1.27778,-0.2892745,0.02365478,-0.06416941,4.687599,-4.701522,-1.763432,0.1934244,1.37293,0.3789167,-1.349559,0.1099208,7.214853,28.06942,0.01493305,-0.07248188,0.3172495,-0.1261688,-2.062635,-1.908164,0.3284156,1.48353,0.3150716,-0.03484237,-0.08280808,-0.07950009,-1.272328,0.4622427,0.08085463,0.4847989,1.481176,0.1938872,-0.01925655,1.592268,0.2889034,311.7322,80.00568,172.5976,True
7,1.288891,-0.2794656,-0.0338464,-0.06935173,4.690076,-4.701996,-1.76061,0.1929131,1.374078,0.3792138,-1.345824,0.3388038,7.427056,27.29805,0.01195446,-0.1193992,0.3299062,-0.1248554,-2.025388,-1.945221,0.3282616,1.48411,0.3150697,-0.0594121,-0.06895655,-0.08562583,-1.273496,0.4621029,0.08244907,0.4845014,1.481208,0.1940076,-0.01909508,1.593681,0.2888737,312.0508,80.15841,172.4081,True
7,1.300002,-0.2633172,-0.09137421,-0.09160095,4.693517,-4.70314,-1.758403,0.1925766,1.375116,0.3795342,-1.342359,0.3120512,7.665781,26.86951,0.007633507,-0.1353343,0.3096462,-0.1240383,-1.998145,-1.972148,0.3280216,1.484672,0.3149455,-0.1033043,-0.03697489,-0.1064449,-1.2753,0.4629464,0.08479505,0.4842897,1.481184,0.1941223,-0.01936133,1.594961,0.2884991,312.1268,80.30486,171.99,True
7,1.311113,-0.2440018,-0.1243126,-0.09909804,4.696461,-4.70504,-1.756598,0.1924895,1.376568,0.3796988,-1.341352,0.08757695,7.90451,26.6981,0.007415444,-0.06714818,0.3087738,-0.1268549,-1.979554,-1.99066,0.3277247,1.485048,0.3148568,-0.1440224,-0.01669519,-0.1305184,-1.277532,0.4637163,0.08741107,0.4840768,1.481167,0.1942997,-0.02001803,1.596277,0.2880156,312.0075,80.407,171.6064,True
7,1.322224,-0.2161812,-0.1593793,-0.1033262,4.699607,-4.705531,-1.755051,0.1921214,1.377809,0.3800735,-1.339001,0.2118559,8.169763,26.50525,0.004009992,-0.006433018,0.3057757,-0.1300507,-1.961542,-2.008435,0.3275225,1.485471,0.314729,-0.1493513,-0.0124372,-0.1304602,-1.279009,0.4638275,0.08921084,0.483884,1.481195,0.1944196,-0.02083161,1.597357,0.2874522,311.8809,80.69724,171.1961,True
7,1.333336,-0.1838453,-0.2423658,-0.1053276,4.705434,-4.705577,-1.754255,0.1915949,1.378533,0.3804393,-1.335794,0.2885232,8.355438,26.03386,0.03152731,0.03416902,0.2961649,-0.1330036,-1.946382,-2.024646,0.3275318,1.4859,0.3145587,-0.12457,-0.02101463,-0.1019472,-1.279105,0.463159,0.08977436,0.4837525,1.48129,0.1945236,-0.02172409,1.598091,0.2868417,311.7068,81.08585,170.7361,True
7,1.344447,-0.1967792,-0.1912716,-0.1034441,4.706591,-4.706398,-1.751715,0.1911355,1.379423,0.3806882,-1.332044,0.3373761,8.435014,25.26248,0.04452293,-0.008446649,0.3098257,-0.1333061,-1.913818,-2.057893,0.3274318,1.486345,0.3145587,-0.09564508,-0.04127166,-0.08628547,-1.279645,0.4620682,0.09013975,0.4835518,1.481336,0.1945131,-0.02275375,1.598675,0.2862772,311.456,81.45345,170.273,True
7,1.355558,-0.2011672,-0.1806712,-0.1118421,4.707674,-4.707636,-1.749097,0.1905501,1.379948,0.3810129,-1.328408,0.3263291,8.461537,24.19113,0.04034652,-0.03509736,0.3097736,-0.1337791,-1.885308,-2.086483,0.3272436,1.486696,0.3144782,-0.1147329,-0.04876215,-0.07760259,-1.280354,0.4612445,0.09227028,0.4833065,1.481372,0.1946433,-0.02387946,1.599014,0.2857958,311.2928,81.71872,169.9276,True
7,1.366669,-0.2129283,-0.1689764,-0.1064986,4.70925,-4.708343,-1.746408,0.190133,1.380489,0.3812578,-1.322085,0.5720699,8.381961,22.88408,0.03056142,-0.04139189,0.2671944,-0.1341264,-1.873394,-2.0984,0.3270081,1.48698,0.3143172,-0.1476333,-0.03815461,-0.06341621,-1.280576,0.4613152,0.09511293,0.4830295,1.481371,0.1947446,-0.02511548,1.598935,0.285301,311.2014,81.96935,169.6236,True
7,1.37778,-0.2162221,-0.1391271,-0.09592646,4.709963,-4.708942,-1.743818,0.1899361,1.381052,0.3813932,-1.317037,0.4533313,8.222812,21.31991,0.02166383,0.0002619103,0.2215528,-0.1357807,-1.872137,-2.099588,0.3266931,1.487222,0.3142703,-0.1730052,0.03315034,-0.03851228,-1.279912,0.4641269,0.09718221,0.4827486,1.481378,0.1948853,-0.0266458,1.598821,0.2849297,310.9507,82.11872,169.3249,True
7,1.388891,-0.1897023,-0.09527449,-0.07377203,4.709723,-4.709088,-1.742557,0.1897964,1.381554,0.3814094,-1.312096,0.4446598,7.95756,19.67002,0.008632064,0.03225941,0.1940149,-0.1377142,-1.868499,-2.102902,0.3265186,1.487483,0.3142827,-0.1375942,0.04909106,-0.01110895,-1.279032,0.465187,0.09705385,0.4824913,1.481371,0.1950009,-0.02835114,1.598661,0.2848224,310.6234,82.25783,169.0844,True
7,1.400002,-0.1739286,-0.04080607,-0.0601022,4.708316,-4.70974,-1.741162,0.1896484,1.381968,0.3814127,-1.307186,0.4416908,7.559682,17.95586,0.007569611,0.007792443,0.1801035,-0.1378953,-1.855574,-2.115751,0.3264326,1.487668,0.31425,-0.06941009,0.03847448,-0.01177295,-1.27911,0.4652251,0.09542879,0.4823156,1.48144,0.1951387,-0.03005841,1.598459,0.2849724,310.215,82.33256,169.0414,True
7,1.411114,-0.1721386,0.06473573,-0.03921165,4.704665,-4.711116,-1.739485,0.1897684,1.382584,0.3811884,-1.303342,0.3441249,7.055701,16.28455,0.01601308,-0.02085277,0.1480175,-0.137156,-1.846513,-2.125202,0.3265528,1.487975,0.3142974,-0.02803328,0.001260822,-0.0324907,-1.280381,0.4640241,0.09471107,0.4821843,1.481508,0.1952789,-0.03161236,1.598276,0.2853223,309.7801,82.3009,169.2026,True
7,1.422225,-0.1703333,0.1638861,-0.01826688,4.700116,-4.712181,-1.737655,0.1896004,1.382907,0.3811331,-1.298092,0.4736603,6.551723,14.89179,0.02350779,-0.05806917,0.1329554,-0.1360875,-1.83329,-2.138826,0.3265671,1.488243,0.3143094,-0.02492821,-0.01150092,-0.04320365,-1.281295,0.4634716,0.09504928,0.4820944,1.481536,0.1953707,-0.03293882,1.598108,0.2858048,309.4626,82.17537,169.4854,True
7,1.433336,-0.1704188,0.1990985,0.0008026697,4.696649,-4.712108,-1.735762,0.1893806,1.383133,0.3810358,-1.292512,0.5024988,6.100796,14.14185,0.05775391,-0.1165397,0.1272814,-0.1341029,-1.811259,-2.162428,0.3264155,1.488394,0.3143768,-0.04849843,-0.005089413,-0.05787827,-1.28235,0.4638523,0.09631642,0.4820666,1.481477,0.1953928,-0.0341122,1.598051,0.2864116,309.2187,81.99429,169.7896,True
7,1.444447,-0.1736363,0.225799,0.02625375,4.693737,-4.712086,-1.733831,0.1892013,1.383316,0.3810048,-1.287101,0.4869887,5.729441,14.14185,0.05444445,-0.1260646,0.1006373,-0.1329173,-1.802867,-2.171175,0.3262397,1.488587,0.314394,-0.07743019,-0.003997436,-0.07570963,-1.283659,0.4640197,0.098048,0.4820368,1.481483,0.195339,-0.03519574,1.598251,0.287215,309.0073,81.77356,170.1002,True
7,1.455558,-0.1833407,0.2823177,0.05908669,4.689072,-4.711849,-1.731616,0.188903,1.383309,0.3809166,-1.281867,0.4710613,5.490716,14.82751,-0.009732962,-0.1048565,0.06481884,-0.1322158,-1.803616,-2.168176,0.325979,1.488638,0.314374,-0.09897317,-0.02206277,-0.1021801,-1.285733,0.4633277,0.1000049,0.4819655,1.481487,0.1953926,-0.03618651,1.598604,0.2882718,308.9326,81.46806,170.5096,True
7,1.466669,-0.1643816,0.3624034,0.09607698,4.682118,-4.710656,-1.730328,0.1887544,1.383111,0.3805439,-1.276822,0.4540945,5.331563,16.11313,-0.05052637,-0.04101631,0.04497657,-0.1335469,-1.811326,-2.158537,0.3258012,1.488634,0.3144917,-0.1062443,-0.04767287,-0.08513053,-1.286314,0.4619625,0.1016052,0.4818431,1.481533,0.1954339,-0.03705607,1.598935,0.2894544,308.9501,81.08714,171.1025,True
7,1.47778,-0.1316382,0.4349779,0.09785256,4.67546,-4.711369,-1.730024,0.1887235,1.383131,0.3805306,-1.27169,0.4622281,5.331563,17.84872,-0.06661262,-0.001660716,0.04837106,-0.1351187,-1.813834,-2.154756,0.3257474,1.488622,0.3144968,-0.07597153,-0.04989606,-0.03854585,-1.28534,0.4611636,0.1016984,0.4816999,1.481535,0.1955547,-0.03783681,1.599157,0.2906152,308.989,80.72993,171.6985,True
7,1.488891,-0.1116425,0.481875,0.0784803,4.668586,-4.712195,-1.729415,0.1886756,1.382988,0.3802044,-1.267874,0.341897,5.411139,19.69145,-0.06434825,-0.04001677,0.05144038,-0.1338542,-1.801385,-2.16655,0.3257387,1.48876,0.314538,-0.03635628,-0.02009643,-0.01648217,-1.284784,0.4618625,0.1005943,0.4816642,1.481452,0.1957006,-0.03858727,1.599287,0.2917184,308.9887,80.23803,172.3437,True
7,1.500003,-0.09994788,0.4883252,0.07624289,4.663402,1.569999,-1.728618,0.1883857,1.38298,0.3804171,-1.264205,0.329585,5.596815,21.51275,-0.06741234,-0.0645647,0.06204448,-0.1330925,-1.78716,-2.179783,0.3258932,1.488747,0.31461,-0.01718877,0.01399878,-0.01552273,-1.284866,0.4631228,0.09983259,0.4816442,1.48141,0.1958055,-0.03931585,1.599305,0.2927774,308.9394,79.61845,173.0455,True
7,1.511114,-0.09028362,0.4766774,0.08690371,4.658372,1.570497,-1.727948,0.1883336,1.382869,0.3802731,-1.259286,0.4436494,5.835544,23.18406,-0.05264595,-0.08358478,0.02249387,-0.1312289,-1.787217,-2.179641,0.3259219,1.488715,0.3147538,0.002888974,0.04068201,-0.03163074,-1.285669,0.4646471,0.09873936,0.4816382,1.481438,0.1961093,-0.04012847,1.599236,0.2938901,308.8699,79.184,173.5469,True
7,1.522225,-0.1040889,0.4681144,0.08910528,4.653298,1.570875,-1.726377,0.1880193,1.382423,0.3802533,-1.25442,0.437993,6.047746,24.34112,-0.04528087,-0.08563852,0.004340194,-0.1301093,-1.786541,-2.180042,0.3259127,1.488782,0.3148496,0.002725011,0.03326331,-0.04975554,-1.286794,0.464815,0.09864855,0.4816552,1.481406,0.1962292,-0.04109854,1.599075,0.2951169,308.801,78.8317,173.9937,True
7,1.533336,-0.1029232,0.4425487,0.08811291,4.649146,-4.711999,-1.725264,0.1879315,1.382323,0.3802712,-1.250065,0.3915896,6.153845,24.68395,-0.03671304,-0.08883682,0.01174363,-0.1293971,-1.778248,-2.188135,0.3260254,1.489026,0.315007,0.0003276281,0.001371929,-0.07855777,-1.288571,0.4638011,0.09925015,0.4817509,1.481471,0.1965356,-0.04226581,1.598835,0.296473,308.6855,78.4717,174.4803,True
7,1.544447,-0.09507124,0.3402823,0.08415916,4.648724,-4.710958,-1.724413,0.1879204,1.382026,0.3807251,-1.24488,0.4680966,6.233422,24.21256,-0.03371934,-0.07702131,-0.01913601,-0.1282877,-1.784314,-2.181773,0.3259564,1.488964,0.3151765,-0.003946342,-0.02951728,-0.08071024,-1.289485,0.4625479,0.09988585,0.48183,1.481455,0.1965253,-0.0434748,1.598383,0.2978278,308.537,77.95531,175.2198,True
7,1.555558,-0.05523365,0.2221445,0.06630301,4.649755,-4.710406,-1.724986,0.1879069,1.381812,0.3809125,-1.241023,0.345816,6.259944,22.94836,-0.02022429,-0.03850391,-0.06276958,-0.1276917,-1.801302,-2.165149,0.3260492,1.488941,0.3152773,-0.0229465,-0.04661488,-0.06352165,-1.289669,0.461409,0.1009905,0.4819002,1.481444,0.1966543,-0.04470659,1.59777,0.2990752,308.3453,77.41135,175.9947,True
7,1.566669,-0.00600864,0.1391286,0.02486365,4.651069,-4.711276,-1.72658,0.1880512,1.381926,0.3812151,-1.237209,0.3431107,6.233422,21.04135,-0.005361881,-0.02566716,-0.06494161,-0.1273865,-1.807422,-2.159528,0.3261557,1.489023,0.3153212,-0.04971951,-0.0519178,-0.07819063,-1.291013,0.4608881,0.1025783,0.4818696,1.481306,0.1966333,-0.04586447,1.597052,0.3001154,308.0824,77.0019,176.6164,True
7,1.577781,0.03894616,0.04655169,-0.01757077,4.652458,1.570892,-1.727778,0.1886597,1.382086,0.3831553,-1.234413,0.249915,6.206895,18.87722,0.008778371,-0.03429089,-0.01497155,-0.1275867,-1.795544,-2.171829,0.3262925,1.48913,0.3153398,-0.04858876,-0.04341201,-0.07072607,-1.29165,0.4607415,0.1031314,0.4818124,1.481264,0.1967778,-0.0468041,1.596099,0.3007893,307.8435,76.82469,176.9802,True
7,1.588892,0.0659048,-0.05142192,-0.04292435,4.656257,1.570197,-1.729408,0.1887904,1.382263,0.3836734,-1.231167,0.2917732,6.047746,16.58453,0.03233844,-0.01939537,0.01796884,-0.1285662,-1.787752,-2.180581,0.3263291,1.489237,0.3153915,-0.03131092,-0.01789514,-0.04419389,-1.291176,0.4613163,0.1027927,0.4817446,1.481268,0.1968989,-0.04763418,1.594993,0.3009779,307.644,76.84245,177.0784,True
7,1.600003,0.06608202,-0.1004583,-0.05235349,4.658709,1.570063,-1.730109,0.1886112,1.382704,0.383919,-1.226466,0.4243328,5.702918,14.24898,0.0547316,0.01469348,0.04245155,-0.1304107,-1.785248,-2.184487,0.3263593,1.489341,0.3154185,-0.01526963,-0.0008594994,-0.03684879,-1.291285,0.4618495,0.1023016,0.4817107,1.481263,0.1970353,-0.04848492,1.593812,0.3008289,307.3161,77.11182,176.5795,True
7,1.611114,0.04614716,-0.1718987,-0.04675855,4.663056,1.570406,-1.729952,0.1885621,1.382884,0.3844435,-1.222476,0.3581664,5.198936,11.97771,0.03552135,0.0189076,0.03936616,-0.1309242,-1.784781,-2.184619,0.3262536,1.489348,0.3154776,0.004938822,0.02898242,-0.0380342,-1.291627,0.4632276,0.1013157,0.4817299,1.481207,0.1970336,-0.04935154,1.592577,0.3007559,306.8796,77.45493,175.7878,True
7,1.622225,0.03880575,-0.1974947,-0.04345109,4.66588,1.570838,-1.730111,0.1885437,1.383083,0.3845203,-1.217296,0.4677839,4.562334,10.07071,0.02889339,0.02753564,-0.001061965,-0.1304885,-1.797631,-2.17193,0.3260785,1.489092,0.3156269,0.01018895,0.0204823,-0.04662588,-1.292435,0.4632591,0.1009961,0.4817259,1.481187,0.1971247,-0.05042795,1.591442,0.3007288,306.5885,77.67855,175.4808,True
7,1.633336,0.02174061,-0.200795,-0.05403722,4.668184,1.570346,-1.729776,0.1886159,1.383199,0.3844247,-1.212141,0.4644889,3.872677,8.549388,0.02987996,0.03821658,-0.00955876,-0.1309045,-1.803549,-2.166436,0.3260675,1.489075,0.3157163,-0.003699001,-0.005083263,-0.05187874,-1.293317,0.462225,0.1019189,0.4817693,1.481168,0.1972044,-0.05179967,1.590503,0.3006292,306.3169,77.7355,175.5175,True
7,1.644447,0.01313122,-0.1816641,-0.05726531,4.669657,1.56983,-1.729659,0.1886933,1.383381,0.3847303,-1.20826,0.3482862,3.31565,7.263766,0.0341227,0.02441532,-0.0213397,-0.1303852,-1.806715,-2.163823,0.3261082,1.489035,0.3158009,-0.02069542,-0.01895107,-0.04748804,-1.29376,0.461525,0.1029575,0.4817748,1.481136,0.1972742,-0.05321503,1.58953,0.3003196,305.9706,77.80219,175.5498,True
7,1.655559,-0.01026148,-0.1785149,-0.03801567,4.671521,1.570636,-1.72881,0.1887328,1.38344,0.3845861,-1.203713,0.4101302,2.891245,6.106707,0.03100913,0.01690766,-0.009620652,-0.130504,-1.802985,-2.167775,0.3262773,1.488994,0.31585,-0.03863574,-0.03285345,-0.02923692,-1.293432,0.4606155,0.1044204,0.4818154,1.481118,0.1973505,-0.05455204,1.588517,0.2997521,305.5794,77.84823,175.538,True
7,1.66667,-0.03798908,-0.1508448,-0.009254731,4.672144,-4.711574,-1.727439,0.1886943,1.383669,0.3847539,-1.199855,0.3466135,2.59947,4.992498,0.03437679,-0.003383145,0.01160718,-0.1303841,-1.793626,-2.177483,0.3263521,1.488937,0.3159163,-0.03643245,-0.03286993,-0.02072913,-1.293331,0.4602753,0.104919,0.4817964,1.481058,0.1974649,-0.05574491,1.587504,0.2990114,305.1544,77.98911,175.2873,True
7,1.677781,-0.05289259,-0.1380788,0.01100914,4.673255,-4.710272,-1.726428,0.1886626,1.383788,0.3845444,-1.195343,0.4072138,2.572943,3.771157,0.02479174,0.002965916,0.01593759,-0.1307836,-1.792672,-2.178374,0.3264669,1.488924,0.3159626,-0.01616311,-0.02008941,-0.01663974,-1.293499,0.4604526,0.1043933,0.481732,1.481024,0.1975808,-0.05676533,1.586569,0.2982861,304.7683,78.12325,174.9369,True
7,1.688892,-0.05399639,-0.1135185,0.03224576,4.673481,-4.709131,-1.725721,0.1886454,1.384102,0.3845146,-1.191067,0.3850475,2.785146,2.614098,0.01314655,-0.006686028,0.02449662,-0.1307884,-1.787573,-2.183135,0.3265498,1.488971,0.3159916,0.0146949,-0.01260465,-0.02011021,-1.293795,0.4606713,0.1030912,0.4817247,1.481011,0.1976671,-0.05760254,1.585784,0.2975933,304.4557,78.11588,174.7822,True
7,1.700003,-0.05092385,-0.07821723,0.04489029,4.671901,-4.709283,-1.725107,0.1894328,1.38552,0.3884327,-1.187845,0.28907,3.209547,1.564171,0.01215284,-0.03118792,0.02336549,-0.1299596,-1.781134,-2.189641,0.3267125,1.489101,0.3159881,0.02200693,-0.01043667,-0.03509265,-1.294732,0.4607027,0.1026726,0.4817795,1.481031,0.1977575,-0.0583001,1.5853,0.296976,304.2069,78.02243,174.7497,True
7,1.711114,-0.06603488,-0.01964581,0.05860934,4.669999,-4.708453,-1.723858,0.1894853,1.38582,0.3884406,-1.184724,0.2807294,3.819627,0.5999545,0.007002898,-0.05362723,0.04250399,-0.1295218,-1.768507,-2.202165,0.326746,1.489255,0.3159654,0.004785514,-0.01359689,-0.0530436,-1.295837,0.4606261,0.103333,0.4818811,1.480948,0.1979432,-0.05880885,1.585047,0.2963834,304.066,77.93208,174.7873,True
7,1.722225,-0.08108924,0.02723441,0.07019565,4.667821,-4.708337,-1.722621,0.1893514,1.387127,0.390229,-1.181373,0.3017199,4.403181,0,-0.001413278,-0.05797611,0.06065172,-0.1296619,-1.75621,-2.214029,0.3268134,1.489384,0.3159444,-0.01983675,-0.01571643,-0.06560257,-1.297011,0.4604233,0.104483,0.482016,1.480971,0.1980326,-0.05917654,1.5851,0.2960237,303.7462,78.10342,174.0825,True
7,1.733337,-0.1174712,0.07719823,0.08399973,4.664988,-4.707336,-1.719968,0.1892581,1.387477,0.3902996,-1.177537,0.3461272,4.933685,0,-0.02898454,-0.05706913,0.0852993,-0.1302232,-1.742555,-2.226274,0.3268643,1.489608,0.3166993,-0.04240848,-0.01887789,-0.08562898,-1.298553,0.4602804,0.1059291,0.4821295,1.48083,0.1982055,-0.05936889,1.58562,0.2966878,303.3424,78.32066,173.0308,True
7,1.744448,-0.1526084,0.08884206,0.09788641,4.66337,-4.70651,-1.717412,0.1889573,1.388525,0.3916521,-1.174664,0.258225,5.384616,0,-0.04609581,-0.02411767,0.09293807,-0.1317034,-1.739982,-2.227684,0.3269678,1.489574,0.3167024,-0.04772683,-0.01355453,-0.08450099,-1.299396,0.460465,0.106511,0.4822678,1.480834,0.1983197,-0.05946592,1.586536,0.298258,303.3587,78.06214,173.2225,True
7,1.755559,-0.1727026,0.05897672,0.1054693,4.663418,-4.705458,-1.714969,0.1887831,1.389601,0.3930349,-1.170959,0.3353465,5.809017,2.764087,-0.06217251,-0.0007159077,0.08776395,-0.1328092,-1.739533,-2.226975,0.3270825,1.489526,0.31673,-0.0337765,-0.01782992,-0.07398503,-1.299785,0.4601456,0.1064588,0.4822735,1.480921,0.1984205,-0.0596262,1.587911,0.3005819,303.5743,77.649,173.9644,True
7,1.76667,-0.1726318,0.04728387,0.1140263,4.663073,-4.703939,-1.712977,0.1887639,1.390269,0.3931682,-1.16899,0.1761186,6.206895,7.478036,-0.05779434,-0.07307427,0.06622458,-0.1302989,-1.725399,-2.240506,0.3273296,1.489866,0.3167753,-0.01015097,-0.02105613,-0.05503864,-1.299714,0.4597768,0.1056966,0.4823204,1.480849,0.1984725,-0.05966259,1.589367,0.3031705,303.9088,77.06202,175.1813,True
7,1.777781,-0.1630776,0.06652978,0.1277988,4.661445,-4.702122,-1.711592,0.1883963,1.390265,0.392267,-1.16755,0.1294909,6.57825,13.73473,-0.04368947,-0.1252787,0.08410342,-0.1288901,-1.701928,-2.263719,0.3274333,1.490013,0.3167765,0.0004198179,-0.01890057,-0.06365679,-1.300728,0.4597594,0.1053104,0.4823871,1.480851,0.1985207,-0.05967585,1.590986,0.3057324,304.1485,76.70613,176.0074,True
7,1.788892,-0.1653136,0.08459616,0.1160329,4.659747,-4.701457,-1.709697,0.1883116,1.390863,0.3923807,-1.166674,0.07824367,6.949602,19.88429,-0.03488655,-0.1604987,0.1159142,-0.128146,-1.67198,-2.293374,0.3276038,1.490252,0.3167081,-0.01583556,-0.01458739,-0.09225848,-1.30287,0.4599018,0.1060852,0.482482,1.480816,0.1985757,-0.05951693,1.592562,0.3079829,304.3658,76.44516,176.7081,True
7,1.800003,-0.1918776,0.06208829,0.1097861,4.659853,-4.700396,-1.706585,0.1879543,1.390893,0.3910341,-1.166125,0.04893732,7.29443,25.36962,-0.02851543,-0.1040966,0.1458657,-0.1306621,-1.663185,-2.301943,0.3277151,1.490577,0.3166082,-0.05219407,-0.002848918,-0.1068035,-1.304519,0.4606332,0.1076817,0.4825948,1.480765,0.1986516,-0.05908239,1.593838,0.3095122,304.748,76.05865,177.6718,True
7,1.811115,-0.2151053,0.008723706,0.1078807,4.661298,-4.699078,-1.703385,0.1877168,1.391743,0.3912632,-1.164528,0.1448701,7.639258,30.29783,-0.0530903,-0.07116058,0.151418,-0.1321631,-1.655008,-2.308637,0.3278322,1.490822,0.3165278,-0.08402528,-0.003958028,-0.09372257,-1.305144,0.460665,0.1096804,0.4826876,1.480767,0.1987667,-0.0585576,1.594733,0.3099895,305.1929,75.69126,178.4301,True
7,1.822226,-0.2213414,-0.04346591,0.1017016,4.662451,-4.697637,-1.700177,0.1881768,1.392529,0.3934238,-1.162362,0.1962761,7.931033,34.19756,-0.09572287,-0.04150809,0.1655809,-0.1340545,-1.644679,-2.316291,0.3280518,1.491071,0.3163307,-0.0795458,0.0002551526,-0.07352854,-1.30541,0.4607123,0.1098906,0.4828688,1.480815,0.198622,-0.05819327,1.595452,0.3094744,305.4335,75.5701,178.5818,True
7,1.833337,-0.2328591,-0.1010699,0.09125408,4.665485,-4.696567,-1.697135,0.1880967,1.393515,0.3937523,-1.161476,0.07901514,8.169763,35.78316,-0.1009313,-0.03520561,0.1912031,-0.1359821,-1.626634,-2.332938,0.3282648,1.491315,0.3162894,-0.0624111,0.004508432,-0.06516635,-1.305916,0.4610272,0.1096972,0.4830567,1.48066,0.1987624,-0.05804298,1.596066,0.3079723,305.4779,75.66701,178.307,True
7,1.844448,-0.2381574,-0.118167,0.07423158,4.667145,-4.696785,-1.694497,0.1881309,1.395396,0.3948395,-1.160952,0.04708354,8.488064,35.76173,-0.08812626,-0.04474722,0.1900373,-0.1367805,-1.612021,-2.346904,0.3284837,1.491692,0.3161716,-0.05287119,0.001323869,-0.07059489,-1.307011,0.4609598,0.1099427,0.4832139,1.480595,0.1988192,-0.05801675,1.59679,0.3059313,305.1054,76.09151,177.047,True
7,1.855559,-0.2306704,-0.1309431,0.06679173,4.668958,-4.696084,-1.69216,0.1881155,1.396431,0.395184,-1.160671,0.02514144,8.832892,34.43325,-0.04844688,-0.09368488,0.2099226,-0.1368737,-1.582195,-2.377388,0.3287095,1.492203,0.3161244,-0.06369911,0.002430245,-0.08966976,-1.308722,0.4612588,0.1108743,0.483402,1.480485,0.199064,-0.05777879,1.597614,0.3041077,304.6155,76.61632,175.4225,True
7,1.86667,-0.2294406,-0.1714126,0.06473047,4.672126,-4.695714,-1.689833,0.1882131,1.39817,0.3962564,-1.160645,0.001893182,9.257293,32.41911,-0.01740052,-0.09580381,0.2385142,-0.1387565,-1.558167,-2.401985,0.3289527,1.492542,0.315968,-0.09784763,0.0003090426,-0.09788633,-1.310202,0.4614594,0.1128421,0.4835075,1.480502,0.1990442,-0.05750117,1.598913,0.3027544,304.3459,77.08862,174.3017,True
7,1.877781,-0.2334918,-0.2215229,0.0627788,4.676334,-4.694273,-1.687248,0.1876899,1.398758,0.3949757,-1.160659,-0.001442225,9.787797,31.30491,-0.01631033,-0.08942872,0.247045,-0.1405275,-1.540781,-2.418955,0.32916,1.492968,0.3157556,-0.1234126,0.005622745,-0.09763335,-1.311222,0.4618582,0.114892,0.4835431,1.480395,0.1991465,-0.0571935,1.600816,0.3021192,304.2775,77.48921,173.5404,True
7,1.888893,-0.2354359,-0.2791009,0.04804485,4.681385,-4.693651,-1.684521,0.1875844,1.400194,0.3953686,-1.160087,0.05171874,10.29178,30.94065,-0.04612897,-0.06506862,0.263255,-0.1431295,-1.524729,-2.433324,0.3294895,1.49348,0.3154206,-0.1212436,0.001361974,-0.09554101,-1.312325,0.4619206,0.1159194,0.4836796,1.480377,0.1991088,-0.05662012,1.602866,0.3021475,304.4924,77.70088,173.2581,True
7,1.900004,-0.2332844,-0.2929926,0.03531487,4.685125,-4.693059,-1.682029,0.1874168,1.400936,0.393995,-1.158934,0.1040699,10.74271,31.24062,-0.05027647,-0.06408367,0.2856536,-0.1457335,-1.503162,-2.453941,0.329794,1.494048,0.3151021,-0.1127464,-0.007147327,-0.09883465,-1.313554,0.4616752,0.1169032,0.4838803,1.480315,0.1991405,-0.05588803,1.604951,0.3026241,304.9487,77.82095,173.4273,True
7,1.911115,-0.2120306,-0.3068632,-0.0009192638,4.689145,-4.693867,-1.680446,0.1874268,1.402424,0.3943706,-1.157524,0.1269729,11.19363,32.16199,-0.02421799,-0.1004304,0.3557167,-0.1489905,-1.463256,-2.494111,0.3300381,1.494862,0.3146579,-0.1001171,-0.007105749,-0.1160052,-1.31554,0.4617619,0.1174622,0.4841281,1.480262,0.1990135,-0.05510116,1.606704,0.3029166,305.6044,77.84155,174.0089,True
7,1.922226,-0.2077686,-0.3058869,-0.02014142,4.692848,-4.694033,-1.678431,0.1873904,1.403597,0.3939652,-1.156167,0.1217722,11.59151,33.46904,-0.02091146,-0.06750864,0.3952101,-0.1537251,-1.443437,-2.513547,0.3302609,1.495518,0.3144388,-0.1066098,-0.004957061,-0.1265897,-1.317272,0.4619781,0.1188318,0.4843576,1.48025,0.1989601,-0.05446957,1.608192,0.3027486,306.0302,77.99562,174.2537,True
7,1.933337,-0.2302272,-0.2996016,-0.03179522,4.695889,-4.694576,-1.675143,0.1872214,1.405017,0.3943193,-1.15512,0.09313092,11.83024,34.56181,-0.03392154,-0.02595039,0.3772892,-0.1573225,-1.436109,-2.519984,0.3303793,1.496144,0.3140144,-0.1780638,-0.01243245,-0.1365979,-1.319393,0.4617793,0.1231747,0.4845543,1.480299,0.1989107,-0.05406991,1.609345,0.3019046,306.2454,78.21528,174.2073,True
7,1.944448,-0.251526,-0.3049335,-0.03176146,4.698569,-4.695383,-1.671563,0.1876696,1.407517,0.3983073,-1.152391,0.2467629,12.04244,35.26891,-0.04679434,-0.007866152,0.3720813,-0.1606493,-1.42473,-2.530169,0.3305309,1.496784,0.3136237,-0.2225508,-0.0359575,-0.110668,-1.319903,0.4605,0.127453,0.484795,1.480313,0.1988792,-0.05404682,1.610323,0.3006262,306.1882,78.68224,173.4763,True
7,1.955559,-0.2643817,-0.2922171,-0.03815339,4.701365,-4.695756,-1.668229,0.1876129,1.408948,0.3987792,-1.148309,0.3688993,12.28117,35.52603,-0.05241212,0.01992331,0.3338425,-0.1632188,-1.422083,-2.531931,0.3306878,1.497384,0.3132949,-0.2742702,-0.04674531,-0.06120217,-1.318948,0.4595607,0.1323471,0.4848652,1.480409,0.1992033,-0.05438994,1.611136,0.2991188,306.0082,79.13369,172.6302,True
7,1.966671,-0.2794405,-0.2689422,-0.06053,4.703945,-4.696597,-1.664773,0.1871501,1.410034,0.3971722,-1.144902,0.3061746,12.51989,35.4189,-0.01193245,-0.01185299,0.3143576,-0.1647996,-1.406052,-2.549167,0.3307974,1.498246,0.3128128,-0.2807339,-0.02116568,-0.06747451,-1.319898,0.4604356,0.1352681,0.4849615,1.480464,0.1992803,-0.05509762,1.61206,0.2978508,305.4759,79.78216,171.1075,True
7,1.977782,-0.2549137,-0.2923634,-0.09039237,4.708262,-4.698729,-1.663132,0.1871404,1.412038,0.3977499,-1.141819,0.2769181,12.86472,35.05464,-0.002077848,-0.03748691,0.3483291,-0.1684076,-1.382188,-2.573013,0.3310302,1.499134,0.312336,-0.2488012,0.04277094,-0.06656098,-1.320246,0.463242,0.1361927,0.4850193,1.480541,0.1992083,-0.05590178,1.613325,0.2976592,304.7856,80.49517,169.4057,True
7,1.988893,-0.2260397,-0.3330512,-0.1042206,-1.565582,-4.699197,-1.661375,0.1857883,1.407388,0.3781753,-1.138054,0.339112,13.31565,34.45468,0.0002415478,-0.03119805,0.3866847,-0.1731182,-1.364192,-2.590831,0.3311834,1.499979,0.31181,-0.2252489,0.08536524,-0.0517683,-1.319973,0.4656668,0.1373744,0.4851726,1.480537,0.1990881,-0.05659922,1.614732,0.2983434,304.6728,80.57635,169.5552,True
7,2.000004,-0.2239078,-0.3341271,-0.1084648,-1.561838,-4.69985,-1.65898,0.1853968,1.408772,0.3780122,-1.135797,0.2005521,13.74005,33.66188,-0.006108969,-0.0344331,0.3931054,-0.1768174,-1.348172,-2.606267,0.3312832,1.500902,0.311255,-0.2284523,0.08110312,-0.05281314,-1.320512,0.4663958,0.1399097,0.4853088,1.480564,0.1990337,-0.05725673,1.616174,0.2991912,304.866,80.43435,170.6005,True
7,2.011115,-0.2261865,-0.301111,-0.1127895,-1.559765,-4.70037,-1.656405,0.1851942,1.410566,0.3781123,-1.13146,0.3916884,14.13793,32.71909,-0.01578304,0.0006795228,0.3975186,-0.1812984,-1.340706,-2.613097,0.3314094,1.501752,0.3105769,-0.258305,0.04381585,-0.05580018,-1.321226,0.4658038,0.1442128,0.4855183,1.480534,0.1989126,-0.05766799,1.616923,0.2991064,305.9461,79.55479,174.193,True
7,2.022226,-0.254064,-0.2468692,-0.1269405,-1.558292,-4.701628,-1.653075,0.18489,1.411984,0.3779294,-1.126087,0.4843328,14.48276,31.66916,-0.01685888,0.02407999,0.4093148,-0.1861379,-1.332086,-2.621367,0.3315543,1.502687,0.3099651,-0.2646928,0.03422989,-0.05576102,-1.321815,0.4660377,0.1472986,0.4856787,1.480596,0.198808,-0.05785742,1.615511,0.2946254,307.5391,78.79581,178.6696,True
7,2.033337,-0.2637207,-0.2459211,-0.1277162,-1.556124,-4.702806,-1.649414,0.1845539,1.413821,0.3778894,-1.120967,0.4605897,14.64191,30.7478,-0.0348199,0.03138393,0.4413896,-0.1916326,-1.318787,-2.633454,0.3317226,1.503766,0.3093994,-0.2700271,0.02677615,-0.05571797,-1.322274,0.4662735,0.1506191,0.4858065,1.480626,0.1985798,-0.05902929,1.61387,0.2869503,306.8217,79.72324,176.4354,True
7,2.044448,-0.2530012,-0.2565069,-0.1224378,-1.552472,-4.704259,-1.647091,0.1846535,1.415991,0.3777039,-1.115235,0.5167887,14.64191,29.99786,-0.06022045,0.0003771186,0.4531585,-0.1960055,-1.300216,-2.650222,0.331809,1.504861,0.3088312,-0.2859447,0.02249354,-0.04811971,-1.322514,0.4665326,0.1544394,0.4859782,1.480674,0.1982598,-0.06099319,1.612791,0.278585,305.0911,81.32114,171.306,True
7,2.055559,-0.2455435,-0.2521959,-0.1160805,-1.549733,-4.705132,-1.644587,0.1843743,1.417756,0.3774438,-1.109783,0.4906822,14.48276,29.44075,-0.07402599,-0.05180047,0.4307125,-0.1985168,-1.280467,-2.668362,0.3319003,1.506069,0.3081522,-0.3211393,0.005443484,-0.05315368,-1.323366,0.4660812,0.1593926,0.4861112,1.480711,0.1981072,-0.06329652,1.612562,0.2715982,303.5745,83.05711,166.4865,True
7,2.06667,-0.2338801,-0.2425611,-0.1214549,-1.54756,-4.7063,-1.642301,0.1837651,1.419331,0.377439,-1.105934,0.3442386,14.16445,29.03364,-0.07178217,-0.07205889,0.4391631,-0.2024956,-1.262387,-2.685404,0.3319619,1.507123,0.3075621,-0.3478939,0.01504451,-0.06459545,-1.324403,0.4667716,0.1641016,0.4863479,1.48067,0.197782,-0.06547011,1.613205,0.2670085,302.5517,84.36921,163.4933,True
7,2.077781,-0.2329652,-0.2084807,-0.1226111,-1.546183,-4.707379,-1.639569,0.1834435,1.420949,0.3771534,-1.100564,0.4844527,13.74005,28.79794,-0.06860673,-0.03481363,0.4584167,-0.2080488,-1.254598,-2.692311,0.3318536,1.508101,0.3068187,-0.3499284,0.04377274,-0.05279222,-1.324383,0.4682396,0.1676569,0.4865644,1.480713,0.1975732,-0.06705821,1.614377,0.2649615,302.0838,85.12246,162.3698,True
7,2.088892,-0.2490061,-0.1904145,-0.118355,-1.544756,-4.708343,-1.636173,0.1827586,1.422777,0.3770735,-1.095286,0.4745899,13.28912,28.64795,-0.1017191,-0.007213354,0.4576101,-0.2130598,-1.248204,-2.696341,0.3317006,1.509171,0.3059945,-0.3326002,0.07247581,-0.020926,-1.323209,0.4699381,0.1704122,0.4867713,1.480688,0.1973078,-0.06806473,1.615839,0.2651448,302.1504,85.2514,162.6259,True
7,2.100003,-0.2735668,-0.1830888,-0.1268092,-1.542736,-4.709641,-1.632172,0.1818897,1.424478,0.3767097,-1.089303,0.5393131,12.91777,28.66938,-0.1495552,-0.01168187,0.4759664,-0.2183068,-1.23428,-2.706494,0.3316013,1.510288,0.3052075,-0.3132222,0.08202475,0.001283973,-1.322361,0.4710149,0.1731039,0.4869667,1.480704,0.1970263,-0.0687539,1.617473,0.2670479,302.5069,84.91269,163.7346,True
7,2.111114,-0.2831987,-0.1692663,-0.1225621,-1.541233,-4.71082,-1.628622,0.1805684,1.426405,0.37643,-1.083125,0.5565856,12.67905,28.81937,-0.2189363,0.01157364,0.4636213,-0.2230131,-1.229174,-2.706481,0.3312375,1.51169,0.3043475,-0.2916937,0.0777213,0.02450815,-1.321204,0.4715813,0.1754975,0.4872411,1.480719,0.1967785,-0.06939094,1.619261,0.2700023,302.861,84.34596,165.3358,True
7,2.122225,-0.2574279,-0.2287613,-0.1138996,-1.537251,-4.711399,-1.625864,0.1794245,1.427935,0.3762243,-1.077137,0.5393262,12.51989,29.11935,-0.2496727,-0.02051856,0.4732891,-0.2275341,-1.212494,-2.719178,0.3306547,1.513431,0.3036158,-0.2422669,0.04888,0.06764908,-1.319171,0.4706548,0.1767948,0.487693,1.480755,0.1964216,-0.07028016,1.62129,0.2733022,303.1811,83.82124,167.0276,True
7,2.133336,-0.232935,-0.226532,-0.1139769,-1.53468,1.570653,-1.623988,0.1781517,1.429661,0.3757832,-1.07231,0.4334109,12.51989,29.44075,-0.2411403,-0.06941836,0.4464695,-0.2301525,-1.194904,-2.733987,0.3299273,1.515,0.3027968,-0.2619811,0.07881816,0.01250562,-1.320563,0.4727843,0.1798302,0.4880702,1.480887,0.1959989,-0.07153542,1.623484,0.2762689,303.4679,83.44623,168.5453,True
7,2.144447,-0.2031817,-0.2029764,-0.1120578,-1.532809,1.568944,-1.622811,0.1774332,1.431858,0.3751361,-1.067938,0.3926037,12.54642,29.80502,-0.3060667,-0.01802716,0.2871817,-0.2285163,-1.204853,-2.718766,0.3287854,1.516536,0.3018169,-0.3543298,0.1247509,-0.06215715,-1.323284,0.4764304,0.186086,0.4883713,1.481053,0.1956065,-0.07315692,1.625656,0.278417,303.7137,83.22766,169.6629,True
7,2.155558,-0.1564643,-0.1537397,-0.09742513,-1.532653,1.568357,-1.62262,0.1769563,1.433252,0.3743339,-1.063664,0.3838777,12.59947,30.1907,-0.336533,0.1321786,0.255828,-0.2330245,-1.226294,-2.69317,0.3280396,1.517708,0.3007567,-0.5323771,0.1278917,-0.07538649,-1.324315,0.4784653,0.1976071,0.488452,1.481236,0.1952472,-0.07490592,1.627319,0.2794006,303.8686,83.24541,170.2354,True
7,2.166669,-0.09799736,-0.09156602,-0.05302698,-1.534036,1.569239,-1.623237,0.1761781,1.434967,0.3741112,-1.059141,0.4067331,12.67905,30.57638,-0.3356372,0.2407508,0.2870331,-0.2397287,-1.241784,-2.674512,0.3273403,1.518699,0.2997208,-0.5656481,0.0765532,0.008975267,-1.321511,0.477006,0.2052131,0.4884915,1.481341,0.1949599,-0.07687995,1.628526,0.2791481,303.7502,83.40392,170.2733,True
7,2.17778,-0.07241935,-0.0700597,-0.019059,-1.533916,1.570383,-1.623268,0.1753127,1.436321,0.373368,-1.054737,0.3955483,12.7321,30.96207,-0.2882321,0.3480262,0.4479551,-0.2522749,-1.249956,-2.66491,0.3270275,1.519572,0.2986717,-0.5620167,0.028255,0.1654334,-1.314774,0.4741737,0.2119144,0.4883965,1.481543,0.1947927,-0.07891284,1.629271,0.2778617,303.3188,83.67653,169.8531,True
7,2.188891,-0.09148991,-0.05398113,0.04060368,-1.533877,-4.710331,-1.621665,0.1744402,1.437425,0.3724382,-1.050096,0.4173321,12.70557,31.28348,-0.2954043,0.3170082,0.4819955,-0.2590441,-1.246363,-2.664964,0.3266845,1.520355,0.297771,-0.485308,0.0663833,0.2809194,-1.307653,0.4748517,0.2146308,0.4881632,1.481739,0.1946263,-0.08079556,1.629455,0.2759005,302.7972,83.87185,169.1712,True
7,2.200002,-0.1660077,-0.03283022,0.08976991,-1.534317,-4.707554,-1.6173,0.1734095,1.438259,0.3714409,-1.04407,0.5436624,12.67905,31.41204,-0.3338776,0.1999665,0.3923748,-0.2593173,-1.237934,-2.667952,0.3264678,1.520848,0.2970388,-0.4021772,0.134584,0.2888078,-1.303905,0.4779376,0.215785,0.48803,1.481943,0.1944761,-0.08273491,1.629406,0.2736654,302.3047,83.92916,168.4608,True
7,2.211113,-0.2140934,0.03956869,0.1418944,-1.537187,-4.704445,-1.613507,0.1725578,1.439019,0.3702474,-1.036922,0.6453427,12.70557,31.30491,-0.3541834,0.07976283,0.3090438,-0.2585189,-1.226667,-2.674264,0.326164,1.521576,0.2965169,-0.3248803,0.2029026,0.2424257,-1.301856,0.4820462,0.2160902,0.4881251,1.482066,0.1943491,-0.08474764,1.62916,0.271348,301.8868,83.95582,167.9669,True
7,2.222224,-0.2100504,0.1335086,0.1991279,-1.541918,-4.700638,-1.611462,0.1718684,1.439664,0.3690827,-1.028834,0.7307401,12.81167,30.9835,-0.3362044,0.02565826,0.2533841,-0.2587511,-1.220426,-2.677143,0.3258835,1.522214,0.2959116,-0.2860152,0.2105176,0.1845482,-1.301093,0.4845721,0.2174671,0.4881737,1.482178,0.1941783,-0.08678664,1.628838,0.2690189,301.4446,83.86779,167.7368,True
7,2.233335,-0.1994618,0.1549711,0.2203417,-1.544908,-4.69777,-1.608996,0.1714359,1.440045,0.3679614,-1.024229,0.4116961,13.0504,30.46925,-0.2559828,-0.09975732,0.239813,-0.25879,-1.198992,-2.697749,0.3255095,1.522909,0.2952876,-0.2649563,0.1597268,0.0425375,-1.305249,0.4855633,0.2195832,0.4882323,1.482198,0.1941514,-0.08875943,1.628718,0.2667405,300.8956,83.63474,167.691,True
7,2.244446,-0.2198742,0.2124794,0.2404611,-1.54932,-4.694697,-1.605889,0.1709683,1.440511,0.3666687,-1.021213,0.2692593,13.28912,29.74073,-0.2655727,-0.08382381,0.2473673,-0.2615203,-1.19319,-2.700106,0.3251873,1.523555,0.2944574,-0.2460181,0.1025382,-0.09839377,-1.310848,0.4860931,0.2216685,0.4882523,1.482196,0.1941233,-0.09040793,1.628943,0.2646499,300.3548,83.17586,167.8437,True
7,2.255557,-0.2613428,0.216652,0.2724748,-1.551564,-4.691356,-1.601875,0.1703205,1.441232,0.3654068,-1.016092,0.4625498,13.44828,28.8408,-0.2688458,-0.05295424,0.2527924,-0.2643022,-1.191184,-2.698684,0.3247277,1.524047,0.293834,-0.227543,0.1016477,-0.1731573,-1.314768,0.48811,0.2231077,0.4881722,1.482132,0.1941867,-0.09150762,1.629381,0.2628826,300.0598,82.56514,168.1763,True
7,2.266668,-0.2782727,0.2241823,0.3236449,-1.554314,-4.686098,-1.598351,0.1696693,1.441546,0.3641598,-1.010427,0.5105284,13.5809,27.72659,-0.3007374,-0.02862696,0.278605,-0.2681723,-1.186038,-2.699435,0.3244531,1.524085,0.2932289,-0.2054821,0.134757,-0.2041805,-1.31716,0.4915231,0.2238326,0.4880961,1.482129,0.1941614,-0.09206203,1.629893,0.2614568,300.0178,82.05061,168.5301,True
7,2.277779,-0.2633652,0.2648622,0.3777641,-1.558281,-4.680952,-1.596227,0.1690972,1.442179,0.3628016,-1.004531,0.5315498,13.63395,26.50525,-0.3202722,-0.002978683,0.227657,-0.2692871,-1.186898,-2.694369,0.3243026,1.524169,0.2927051,-0.1546196,0.1966226,-0.2300924,-1.319557,0.4965469,0.2225652,0.4880775,1.482128,0.1941655,-0.09236885,1.630669,0.2603161,300.1134,81.44924,169.0743,True
7,2.28889,-0.2506312,0.2862616,0.3915113,-1.562259,-4.676371,-1.593925,0.1685804,1.442532,0.3616004,-1.000041,0.4028337,13.50132,25.32676,-0.2953114,0.004872873,0.1178195,-0.2672306,-1.191506,-2.687711,0.3242364,1.524219,0.2922997,-0.09503503,0.2094519,-0.2370104,-1.321622,0.4999269,0.2208831,0.4880995,1.482152,0.1940265,-0.09259746,1.631747,0.2592742,300.2896,80.83748,169.742,True
7,2.300001,-0.2136672,0.3406957,0.3635389,-1.568295,-4.673719,-1.592317,0.168158,1.442306,0.3605337,-0.9966119,0.3068655,13.23607,24.12685,-0.2197191,-0.07356749,0.05965346,-0.2645158,-1.181554,-2.697681,0.3241559,1.524719,0.2918859,-0.04821549,0.1509112,-0.2461079,-1.324536,0.5003431,0.2199457,0.4881333,1.482252,0.1939142,-0.09270275,1.63291,0.2581158,300.5147,80.02182,170.608,True
7,2.311112,-0.1883177,0.3748002,0.3346018,4.709527,-4.671191,-1.591131,0.1678077,1.442536,0.3593988,-0.991604,0.4518328,12.89124,22.88408,-0.1692744,-0.1778307,0.06866534,-0.2633754,-1.16138,-2.716804,0.3239698,1.52539,0.2913046,-0.0473128,0.1136706,-0.2653784,-1.328006,0.5011242,0.2202341,0.488108,1.482293,0.1937642,-0.09279329,1.634044,0.2567106,300.7533,79.19048,171.3899,True
7,2.322223,-0.07760384,0.3623225,0.2864079,4.705629,-4.669557,-1.593922,0.1669374,1.44282,0.3584316,-0.9872189,0.3935444,12.46684,21.61988,-0.1594752,-0.2268344,0.07912379,-0.2628146,-1.144807,-2.731389,0.3237139,1.525908,0.2906072,-0.1004832,0.125335,-0.2541979,-1.329988,0.5035458,0.2227103,0.4880612,1.482318,0.1935396,-0.09289195,1.634871,0.2551118,300.9914,78.57284,171.766,True
7,2.333334,-0.009229772,0.2943301,0.2555436,4.704542,-4.667439,-1.596036,0.1663612,1.443064,0.3574204,-0.9825802,0.4172634,12.14854,20.35569,-0.1966113,-0.20682,0.1134638,-0.2642612,-1.136139,-2.736578,0.3233252,1.526153,0.2899444,-0.158393,0.176264,-0.1789623,-1.32863,0.5071308,0.2254353,0.4879051,1.482344,0.1931956,-0.09311721,1.635234,0.2535835,301.1621,78.06062,171.8692,True
7,2.344445,0.03571533,0.2369046,0.2417659,4.704222,-4.664689,-1.597965,0.1659049,1.442837,0.3558156,-0.9814217,0.09902185,11.88329,19.09149,-0.2319437,-0.04093279,0.1716613,-0.2696557,-1.147358,-2.722437,0.3229764,1.525988,0.2892802,-0.1403225,0.1941179,-0.06828441,-1.325244,0.5090808,0.2260795,0.4877741,1.48227,0.1927507,-0.09376839,1.635316,0.2522826,301.1733,77.60364,171.9911,True
7,2.355556,0.00798933,0.2378362,0.2322671,4.701241,-4.662223,-1.596959,0.1654088,1.44273,0.3548858,-0.9759015,0.5004027,11.69761,17.84872,-0.2431357,0.07097885,0.139027,-0.2719157,-1.161272,-2.705954,0.3225616,1.525841,0.2885923,-0.1411668,0.1333449,-0.0481754,-1.325435,0.5083776,0.2277021,0.4875886,1.482328,0.192446,-0.09500921,1.634936,0.2512545,301.217,77.29167,172.1649,True
7,2.366668,-0.08501065,0.2916933,0.1972193,4.695948,-4.661284,-1.5927,0.1647726,1.442444,0.3543823,-0.9703856,0.4964124,11.56498,16.60596,-0.2422242,0.09233558,0.1177746,-0.2728536,-1.164999,-2.700137,0.3222721,1.52586,0.2881837,-0.141993,0.06829836,-0.02487108,-1.325329,0.5066109,0.230046,0.4874504,1.482309,0.1921475,-0.09671846,1.633786,0.2503187,301.0778,76.90755,172.7051,True
7,2.377779,-0.07650113,0.2596201,0.1472339,4.694004,-4.661027,-1.592154,0.1642687,1.442421,0.353694,-0.9624371,0.7192968,11.45889,15.40604,-0.1977547,0.05326835,0.04603312,-0.2707071,-1.165157,-2.699204,0.3220838,1.525956,0.2878146,-0.1287017,0.06071825,0.02825315,-1.323204,0.5066049,0.2310092,0.487282,1.482311,0.1917868,-0.09875888,1.631826,0.2491934,300.6537,76.36895,173.4775,True
7,2.38889,-0.03812896,0.2255601,0.1067592,4.692652,-4.660969,-1.593098,0.1638912,1.442567,0.3530822,-0.9542916,0.7356268,11.32626,14.27041,-0.1197702,-0.092295,0.0004451312,-0.2667944,-1.147693,-2.717381,0.3218838,1.526332,0.2871702,-0.1146355,0.07023668,0.05266229,-1.321403,0.5071011,0.2318058,0.4871981,1.482301,0.1914554,-0.1011712,1.629619,0.2479455,299.7969,75.69707,174.0355,True
7,2.400001,0.01417433,0.1680806,0.05453975,4.69285,-4.66278,-1.595361,0.1639716,1.443078,0.3526123,-0.9534,0.07274635,11.27321,13.30619,-0.08834298,-0.1786215,0.04901823,-0.2670634,-1.128186,-2.735976,0.3215231,1.526501,0.2865007,-0.1181368,0.0937418,0.02185373,-1.321873,0.5092254,0.2327475,0.4870425,1.482337,0.1910868,-0.1037553,1.627776,0.2469061,298.6882,75.08664,174.3595,True
7,2.411112,0.02072957,0.1040846,0.02169615,4.69389,-4.663454,-1.595771,0.1636599,1.443316,0.3522241,-0.9511347,0.2041851,11.29973,12.49196,-0.06928322,-0.1274518,0.05758657,-0.2680312,-1.12773,-2.736289,0.3210796,1.526662,0.2858322,-0.1463912,0.1268427,-0.03317717,-1.323366,0.5118771,0.2349225,0.4869576,1.482297,0.190769,-0.106054,1.626362,0.2462114,297.8273,74.8411,174.5236,True
7,2.422223,0.00526118,-0.03773408,-0.002318288,4.699075,-4.663877,-1.595383,0.1631038,1.443447,0.3521574,-0.9483026,0.2542042,11.40584,11.82773,-0.05902556,0.03337709,0.08037511,-0.2721271,-1.146969,-2.717246,0.3204386,1.526738,0.2851167,-0.1635602,0.1502955,-0.04468799,-1.323651,0.5145113,0.236673,0.4867386,1.482349,0.1907136,-0.1078438,1.625279,0.2458653,297.2914,74.723,174.7182,True
7,2.433334,-0.002086112,-0.06975114,-0.01070322,4.700582,-4.663807,-1.595168,0.1627086,1.443443,0.3518145,-0.9423782,0.5366306,11.59151,11.29205,-0.09135091,0.08771017,0.04555772,-0.2726145,-1.157304,-2.705023,0.3200995,1.526793,0.284452,-0.1315187,0.1641464,-0.03537416,-1.323186,0.5168828,0.2364826,0.4864967,1.482458,0.1904724,-0.1091116,1.624398,0.2458336,297.0574,74.83516,174.7709,True
7,2.444445,-0.0009110064,-0.09851592,-0.0127504,4.702559,-4.663943,-1.595196,0.162399,1.443645,0.3514678,-0.9373789,0.4498717,11.88329,10.88493,-0.0934224,0.09618112,0.06157432,-0.274321,-1.159385,-2.701842,0.319826,1.526727,0.2840848,-0.07181591,0.1481937,-0.03171514,-1.323146,0.5181001,0.2350301,0.486165,1.482579,0.190275,-0.1100731,1.623685,0.2459648,297.077,75.01006,174.8187,True
7,2.455556,0.03843413,-0.1101348,-0.04265357,4.703629,-4.665426,-1.596492,0.1624002,1.443555,0.351249,-0.9338545,0.3163231,12.14854,10.52068,-0.04762751,0.04740927,0.031363,-0.2733314,-1.156709,-2.705363,0.3197524,1.526929,0.2836895,-0.04497248,0.1353809,-0.01069774,-1.322458,0.5191812,0.2344591,0.4860087,1.482603,0.1900349,-0.1108765,1.623064,0.2460086,297.1807,75.32572,174.7524,True
7,2.466667,0.05970858,-0.1186522,-0.06612794,4.705311,-4.666938,-1.597924,0.1621546,1.443897,0.3507898,-0.9307636,0.277955,12.38727,10.17785,-0.01954705,-0.0303435,0.05655214,-0.2734395,-1.144361,-2.718007,0.3195872,1.527118,0.2832601,-0.0459986,0.1140675,-0.007538235,-1.322247,0.519743,0.2349366,0.4857825,1.482629,0.1897252,-0.1116067,1.622528,0.2458562,297.2062,75.3364,174.893,True
7,2.477778,0.03745814,-0.1475048,-0.06702261,4.707756,-4.667356,-1.597733,0.1616596,1.444348,0.3505855,-0.9290794,0.149996,12.57294,9.813582,-0.004359297,-0.1006322,0.06797649,-0.2730331,-1.131465,-2.730622,0.3193195,1.527224,0.2828619,-0.06227133,0.0992236,-0.03938049,-1.323613,0.5208336,0.235959,0.4856122,1.482534,0.1894183,-0.1122688,1.622021,0.2454751,297.1266,75.40492,174.8808,True
7,2.488889,0.009817489,-0.1571836,-0.06052226,4.709824,-4.66772,-1.596889,0.1612306,1.444628,0.3503802,-0.9267108,0.2138042,12.59947,9.385041,0.004130043,-0.0846352,0.07117281,-0.2737208,-1.128891,-2.73345,0.319018,1.527336,0.2823589,-0.06346183,0.09925255,-0.05214968,-1.324297,0.5221958,0.2364264,0.4854171,1.482488,0.1890733,-0.1128443,1.621407,0.2449848,297.0336,75.67077,174.5698,True
7,2.5,-0.05295827,-0.1552256,-0.03369658,4.711413,-4.666852,-1.5943,0.1606748,1.444963,0.3501453,-0.9228146,0.3530574,12.51989,8.720805,0.007188864,-0.02287764,0.08305779,-0.2756526,-1.133081,-2.729581,0.3184941,1.527299,0.281951,-0.0584015,0.09934317,-0.08203664,-1.325902,0.5241275,0.2362029,0.4851552,1.482679,0.1888306,-0.1136245,1.620852,0.2444306,296.9228,75.99209,174.197,True
7,2.511111,-0.09236143,-0.1500211,-0.02188137,-1.570309,-4.666662,-1.59192,0.1602062,1.445288,0.3498566,-0.9201136,0.2428721,12.38727,7.778013,-0.02387654,0.02922245,0.08337419,-0.2772313,-1.138291,-2.723167,0.3180744,1.527212,0.2816215,-0.05639461,0.0865927,-0.09594332,-1.327342,0.5250595,0.2365611,0.4848629,1.482748,0.1885734,-0.1146508,1.620435,0.2438185,296.7282,76.24522,173.8958,True
7,2.522222,-0.1201016,-0.1372841,-0.007982927,-1.569583,-4.66636,-1.589318,0.1600728,1.445476,0.3493993,-0.9168699,0.2939173,12.20159,6.599526,-0.02926928,0.03136401,0.07275379,-0.2777304,-1.13876,-2.722222,0.3177541,1.527212,0.2813871,-0.03047143,0.06204412,-0.06108978,-1.326859,0.5250922,0.2358493,0.4844216,1.482803,0.1883461,-0.1157362,1.620138,0.2431659,296.4772,76.3918,173.7134,True
7,2.533333,-0.1137533,-0.1201973,-0.001646692,-1.56878,-4.665959,-1.588421,0.1596511,1.445921,0.3490248,-0.9158115,0.09380241,11.98939,5.206769,-0.01118236,-0.01323492,0.04269802,-0.2765783,-1.133645,-2.727651,0.3175428,1.527339,0.281153,-0.006576364,0.04170759,-0.01342645,-1.325561,0.5245878,0.235327,0.4839827,1.482805,0.1881521,-0.1167377,1.620103,0.2424525,296.174,76.39561,173.6899,True
7,2.544444,-0.1075014,-0.08822651,-0.006024598,-1.568874,-4.666135,-1.587438,0.1593589,1.446272,0.3486431,-0.9147809,0.09315325,11.83024,3.685451,0.01875981,-0.09828134,0.0135259,-0.2742523,-1.121641,-2.740449,0.3173351,1.527601,0.2808096,0.00393025,0.06838255,-0.02731076,-1.325887,0.5264898,0.2345076,0.4836615,1.482754,0.1877747,-0.1174073,1.620325,0.2417003,295.9403,76.4698,173.6015,True
7,2.555555,-0.120462,-0.04674859,-0.01249199,-1.569746,-4.666352,-1.585713,0.1588498,1.44683,0.3483121,-0.9157194,-0.08701973,11.72414,2.356975,0.028606,-0.133489,0.04107067,-0.2746204,-1.110525,-2.751699,0.3170889,1.527679,0.2804511,0.00365043,0.08335947,-0.05604254,-1.327143,0.5282806,0.2341182,0.4833821,1.482854,0.1874974,-0.1176002,1.620806,0.2409426,295.8356,76.55578,173.4749,True
7,2.566666,-0.1396052,-0.04786062,-0.00284553,-1.569187,-4.66604,-1.583558,0.1583861,1.447333,0.3479927,-0.9150931,0.0576457,11.64456,1.328476,0.01588146,-0.06762611,0.09033388,-0.2774785,-1.111537,-2.750456,0.3168358,1.52768,0.2800403,0.01169068,0.05685297,-0.1083784,-1.329859,0.5287519,0.2336871,0.4831212,1.482879,0.1871169,-0.1174906,1.621596,0.2402084,295.9738,76.71013,173.2227,True
7,2.577777,-0.1555332,-0.05535727,0.005754972,-1.568202,-4.665515,-1.58128,0.1578191,1.447758,0.347682,-0.9136592,0.1300731,11.59151,0.6213829,0.009394199,-0.04526433,0.08722851,-0.2782103,-1.111468,-2.750298,0.3164233,1.527708,0.2797759,0.0178805,0.02601636,-0.1308897,-1.332119,0.5286329,0.2334514,0.4828051,1.482844,0.1868203,-0.1172554,1.622623,0.2395838,296.252,76.8353,172.9382,True
7,2.588888,-0.1960348,-0.05340097,0.001604527,-1.567613,-4.665586,-1.577768,0.1572191,1.448415,0.3474333,-0.9126067,0.09484817,11.51194,0.364259,0.01032114,-0.06007573,0.0530902,-0.2772734,-1.108296,-2.753485,0.3161222,1.527944,0.2794304,0.0202102,0.009991881,-0.1107067,-1.332802,0.5283489,0.2332069,0.4824622,1.482897,0.1865344,-0.1171238,1.623919,0.2391418,296.5524,76.88541,172.7531,True
7,2.599999,-0.2024901,-0.05025814,-0.01441739,-1.567397,-4.66714,-1.575347,0.1571751,1.449241,0.3472595,-0.91204,0.05085105,11.45889,0.6428112,0.02312529,-0.06642608,0.05300137,-0.2773645,-1.104135,-2.758219,0.3158176,1.528267,0.2790604,-0.00206973,0.01103055,-0.1009065,-1.333494,0.5288956,0.2338295,0.4819414,1.482995,0.1862829,-0.1170429,1.625295,0.2388381,296.8556,76.97157,172.6658,True
7,2.61111,-0.1939643,-0.06198846,-0.02932004,-1.566305,-4.667977,-1.57349,0.156782,1.450113,0.3470643,-0.9105316,0.1373842,11.43236,1.435611,0.02881911,-0.1102099,0.09545612,-0.2788431,-1.090939,-2.771432,0.3155123,1.52864,0.2786646,-0.0009481274,0.03764645,-0.0933989,-1.333958,0.5303909,0.2334519,0.4815717,1.483094,0.1859574,-0.1170327,1.62666,0.2385796,297.1353,77.07922,172.6188,True
7,2.622221,-0.1799724,-0.1067267,-0.04520673,-1.563496,-4.669062,-1.572234,0.1560474,1.451397,0.3469188,-0.9113204,-0.07334971,11.48541,2.721234,0.01933105,-0.06243889,0.1414615,-0.2822109,-1.090447,-2.77167,0.315206,1.528921,0.2782698,-0.001923461,0.03868653,-0.08380332,-1.334496,0.5309752,0.2333273,0.4811499,1.483234,0.1856482,-0.1171111,1.628089,0.2383578,297.2332,77.19977,172.5187,True
7,2.633332,-0.1840093,-0.1738987,-0.05776543,-1.559231,-4.670011,-1.56998,0.1555858,1.452608,0.3468239,-0.9118354,-0.04640763,11.56498,4.349687,0.03451979,-0.06679633,0.1893104,-0.2854797,-1.082579,-2.780161,0.3149634,1.529043,0.2778437,-0.01153026,0.01312356,-0.08696494,-1.335686,0.5304379,0.2339584,0.4806693,1.483258,0.1854429,-0.1171045,1.629528,0.2382768,297.2603,77.46143,172.2562,True
7,2.644443,-0.2265278,-0.2039241,-0.06819458,-1.556098,-4.671037,-1.56607,0.1548922,1.453548,0.3467851,-0.912261,-0.03879418,11.75066,5.999572,0.01639393,-0.03387834,0.2065396,-0.2881157,-1.081302,-2.780876,0.3146854,1.529178,0.2775264,-0.03058176,-0.026329,-0.07622511,-1.336591,0.5288634,0.2353337,0.4804493,1.483218,0.1852183,-0.1171623,1.631051,0.2383111,297.4007,77.76447,172.0176,True
7,2.655554,-0.2531691,-0.2040398,-0.07131339,-1.553843,-4.67196,-1.562313,0.1543013,1.454504,0.3467133,-0.9110796,0.1081806,11.93634,7.456608,0.03340159,-0.02955149,0.202199,-0.2899447,-1.078308,-2.784684,0.3143696,1.529405,0.2771726,-0.02178959,-0.0210701,-0.04753507,-1.33618,0.5286431,0.2352841,0.4800001,1.483259,0.1849275,-0.1174274,1.632654,0.2383394,297.6242,78.17789,171.7577,True
7,2.666665,-0.2840921,-0.194598,-0.07769693,-1.552084,-4.673641,-1.558461,0.1539988,1.455764,0.3467083,-0.9091765,0.1729038,12.12201,8.677952,0.05054101,-0.06995868,0.1955928,-0.2909695,-1.068608,-2.795209,0.3141047,1.529765,0.2770123,-0.01242767,0.003490081,-0.06993784,-1.337413,0.5299398,0.23478,0.4796913,1.483328,0.1846478,-0.1177629,1.634149,0.2382482,297.8076,78.66865,171.4259,True
7,2.677776,-0.2777875,-0.1914569,-0.1043487,-1.550173,-4.675633,-1.555732,0.1534514,1.456551,0.3466911,-0.9091718,-0.0008719886,12.25464,9.663593,0.06872626,-0.09865427,0.194339,-0.2921674,-1.059861,-2.804743,0.3137204,1.530137,0.276695,-0.008488741,0.00356099,-0.1040691,-1.33978,0.5303971,0.2347006,0.4792615,1.483438,0.184346,-0.1181512,1.635602,0.2380255,297.8857,79.05483,171.0891,True
7,2.688887,-0.252174,-0.2223308,-0.1309593,-1.546736,-4.678046,-1.55376,0.1531942,1.457739,0.3467097,-0.9094615,-0.02592127,12.30769,10.32783,0.08065429,-0.1412719,0.2079971,-0.2938191,-1.046797,-2.81856,0.3134929,1.530345,0.2763999,0.006144505,-0.01979633,-0.1351548,-1.342545,0.5299363,0.2342575,0.4789055,1.483551,0.1840889,-0.1184713,1.637108,0.2377302,297.8391,79.35908,170.7506,True
7,2.699998,-0.2488709,-0.2638432,-0.1382996,-1.543049,-4.679997,-1.550638,0.1530728,1.458278,0.3473895,-0.9111489,-0.1534834,12.25464,10.71352,0.084984,-0.1391702,0.2228938,-0.2961946,-1.038991,-2.826985,0.3131761,1.530675,0.2760546,0.007211205,-0.02618812,-0.1351862,-1.344153,0.5297731,0.2342061,0.4784558,1.483604,0.1838117,-0.1186113,1.638772,0.2374762,297.7904,79.78307,170.267,True
7,2.711109,-0.2871659,-0.268199,-0.1394841,-1.539288,-4.681457,-1.546797,0.1525382,1.45912,0.3466809,-0.9127185,-0.1416243,12.20159,10.82066,0.07416949,-0.09976149,0.2156103,-0.2983603,-1.037956,-2.82847,0.3127358,1.530821,0.2757239,-0.02136475,-0.0006830432,-0.1135511,-1.344413,0.5308583,0.2352421,0.4780127,1.483657,0.1834826,-0.1185086,1.640494,0.2373548,297.951,80.3115,169.7122,True
7,2.72222,-0.3128105,-0.2460053,-0.131818,-1.537514,-4.683393,-1.542142,0.1520269,1.460377,0.3466179,-0.9124432,0.02692462,12.17507,10.71352,0.04937141,-0.03480304,0.1978324,-0.3005313,-1.042238,-2.824137,0.3123806,1.531236,0.2752633,-0.03493701,0.009893313,-0.08249974,-1.344174,0.5312977,0.2360983,0.4776686,1.483619,0.1831005,-0.1181332,1.64213,0.2373964,298.2368,80.99019,169.0214,True
7,2.733331,-0.31615,-0.2044505,-0.1255305,-1.536803,-4.684434,-1.53859,0.1513976,1.46109,0.346669,-0.9123521,0.008439292,12.17507,10.45639,0.05894653,-0.0464676,0.1902887,-0.3020509,-1.03717,-2.829887,0.3121469,1.531526,0.2749331,-0.02527324,-0.001836602,-0.07516011,-1.344824,0.5310087,0.2361116,0.477265,1.483657,0.182785,-0.1175458,1.643589,0.237611,298.6023,81.50639,168.5745,True
7,2.744442,-0.2874485,-0.1990522,-0.1394798,-1.534836,-4.686502,-1.536259,0.1510776,1.461934,0.346694,-0.9122541,0.009442309,12.28117,10.2207,0.09940137,-0.05588989,0.1783286,-0.3033063,-1.032571,-2.836804,0.311953,1.531765,0.2745385,-0.02453654,-0.02731469,-0.1114468,-1.347634,0.5305048,0.2364269,0.4769495,1.483738,0.1825812,-0.1171847,1.645282,0.2377191,298.9081,81.77532,168.5687,True
7,2.755553,-0.2501931,-0.2042893,-0.1576621,-1.532367,-4.688742,-1.534701,0.1506699,1.462818,0.3466663,-0.9139761,-0.1570376,12.38727,10.19927,0.1303829,-0.07711107,0.1834236,-0.3050507,-1.025579,-2.84586,0.3116541,1.532065,0.2741351,-0.04603788,-0.03473591,-0.1325736,-1.350012,0.5304075,0.2377367,0.4765538,1.48373,0.1822882,-0.1170648,1.64735,0.2377271,299.0857,82.03121,168.4046,True
7,2.766664,-0.2023032,-0.2330374,-0.2141719,-1.528905,-4.693202,-1.533975,0.1502939,1.463572,0.3468177,-0.9159234,-0.1763261,12.51989,10.39211,0.1111796,-0.08140823,0.1749966,-0.3063125,-1.020247,-2.851585,0.3113377,1.532103,0.2736812,-0.04802026,-0.01561414,-0.1165139,-1.350372,0.5307464,0.2381015,0.4761195,1.483816,0.1818447,-0.1168999,1.649473,0.2377384,299.3502,82.2487,168.1599,True
7,2.777775,-0.1981671,-0.2203159,-0.2397776,-1.527066,-4.696541,-1.531596,0.1497643,1.4643,0.3469751,-0.9171884,-0.114087,12.65252,10.79923,0.07702877,-0.04106721,0.1880796,-0.3089879,-1.021462,-2.849909,0.3109755,1.532424,0.2732008,-0.04572633,0.01629205,-0.0972938,-1.350657,0.5319785,0.2382871,0.4757274,1.483696,0.181499,-0.1166034,1.651396,0.2378008,299.7021,82.63842,167.7791,True
7,2.788886,-0.2004009,-0.2129471,-0.2653614,-1.525123,-4.700463,-1.529094,0.1492525,1.464912,0.3472898,-0.918341,-0.1044959,12.75862,11.39919,0.07592928,-0.0378655,0.1827686,-0.3107078,-1.018337,-2.853817,0.310522,1.532696,0.2727628,-0.03609972,0.01731874,-0.09096825,-1.351209,0.5319026,0.238656,0.4753556,1.483636,0.1809754,-0.1163171,1.653003,0.23793,300.1184,83.19729,167.2679,True
7,2.799997,-0.1919612,-0.2300225,-0.2973008,-1.522751,-4.705229,-1.526289,0.149216,1.465103,0.3478627,-0.9168156,0.140325,12.78515,12.14913,0.07472651,-0.03567025,0.1604053,-0.3114657,-1.016388,-2.8564,0.3100454,1.532865,0.2722774,-0.04147903,0.01198662,-0.09625185,-1.352474,0.5319088,0.2394057,0.4748231,1.483557,0.1807747,-0.1162429,1.654197,0.2382265,300.5221,83.90008,166.5821,True
7,2.811108,-0.1716944,-0.2523807,-0.3185955,-1.519353,-4.709672,-1.52488,0.1488457,1.465683,0.3482955,-0.916644,0.01447341,12.75862,12.89908,0.09710467,0.02395624,0.1956105,-0.3153502,-1.020732,-2.854158,0.3094968,1.533009,0.2718916,-0.06271887,0.02154527,-0.08857225,-1.353065,0.5326567,0.240668,0.4743744,1.483558,0.1803706,-0.1165753,1.655152,0.238772,300.6997,84.35896,166.1322,True
7,2.822219,-0.1267447,-0.3044035,-0.3174978,-1.514245,1.569857,-1.524839,0.1484674,1.466439,0.3487508,-0.9165535,0.008397808,12.7321,13.60617,0.1630451,0.07739666,0.2071184,-0.3189412,-1.026564,-2.852567,0.3089586,1.532912,0.2717323,-0.06251635,0.02574598,-0.06618906,-1.352893,0.5329388,0.2413303,0.4740041,1.483501,0.1801567,-0.1171589,1.655838,0.239636,300.6986,84.83492,165.7493,True
7,2.83333,-0.07223617,-0.3297286,-0.3016727,-1.50931,1.566046,-1.52592,0.1484125,1.467643,0.3490984,-0.9180667,-0.1383178,12.67905,14.22755,0.1829902,0.04996504,0.1376863,-0.3180379,-1.025936,-2.855676,0.3084364,1.532979,0.2714729,-0.04720474,0.01607311,-0.02480712,-1.3517,0.5324774,0.24139,0.4734443,1.483456,0.1797969,-0.1177428,1.656206,0.2408639,300.5878,85.42793,165.3752,True
7,2.844441,-0.03388785,-0.3274537,-0.2996486,-1.505776,1.562817,-1.526625,0.1481269,1.467847,0.3491523,-0.9195746,-0.1367176,12.70557,14.59181,0.1806188,-0.01053432,0.05655778,-0.3153662,-1.020904,-2.862481,0.30792,1.533252,0.271271,-0.05551691,-0.02766828,-0.004570741,-1.351408,0.5302177,0.2428976,0.4728593,1.483656,0.1793599,-0.118442,1.656518,0.2423158,300.5027,86.01545,165.1783,True
7,2.855552,-0.02117758,-0.3060991,-0.3007959,-1.503348,1.55961,-1.526621,0.1473828,1.467918,0.3495302,-0.9206915,-0.1011973,12.7321,14.7418,0.1699706,-0.03290698,0.04589994,-0.315468,-1.017446,-2.867128,0.3074802,1.533523,0.2710016,-0.05758635,-0.01809457,0.001853595,-1.351304,0.5303689,0.2435154,0.4723626,1.483727,0.1789484,-0.1192363,1.656796,0.2437437,300.4155,86.54435,165.1437,True
7,2.866663,-0.003194749,-0.2676556,-0.2924394,-1.501681,1.556649,-1.526944,0.1470342,1.46804,0.3497481,-0.9201285,0.0520315,12.75862,14.65609,0.1432377,-0.02974167,0.02794504,-0.3151894,-1.017104,-2.868243,0.306959,1.533461,0.2705376,-0.03823733,-0.004298872,0.02195816,-1.350128,0.5303302,0.2433839,0.4718801,1.483824,0.1784248,-0.1200481,1.656981,0.2449502,300.3546,87.03547,165.1329,True
7,2.877774,0.01062286,-0.2527047,-0.2947156,-1.499125,1.552528,-1.52757,0.1468657,1.468411,0.3499494,-0.9191017,0.09319614,12.78515,14.37754,0.1088677,0.03517101,0.01446935,-0.315542,-1.02551,-2.860236,0.3064979,1.533574,0.2701597,-0.04034812,-0.02134899,0.02300095,-1.350134,0.5293849,0.2441301,0.4714727,1.483849,0.1780102,-0.1208309,1.65686,0.2458406,300.445,87.39711,165.0861,True
7,2.888885,0.04145194,-0.2333938,-0.2906016,-1.497347,1.549353,-1.528848,0.1465135,1.468548,0.3501468,-0.91914,-0.004362854,12.81167,13.949,0.112226,0.05742952,0.05605933,-0.317877,-1.028144,-2.859231,0.3059734,1.533689,0.2698131,-0.0575175,-0.07140906,0.007079024,-1.351183,0.5267206,0.2459994,0.4709877,1.483795,0.1776321,-0.1217644,1.656549,0.2464565,300.4886,87.70193,164.8653,True
7,2.899997,0.07231957,-0.2119085,-0.2715584,-1.495625,1.547159,-1.530419,0.1458036,1.468447,0.3503969,-0.9193962,-0.02341051,12.75862,13.52046,0.1090767,0.07015505,0.06675941,-0.3190611,-1.029749,-2.859298,0.3053454,1.533822,0.2697265,-0.06393485,-0.07459493,0.003936961,-1.351431,0.5259298,0.2470409,0.4703151,1.483802,0.1772645,-0.122763,1.656085,0.2468868,300.3346,88.08222,164.5096,True
7,2.911108,0.09788277,-0.1861281,-0.2344176,-1.494372,1.545783,-1.532081,0.1453243,1.468417,0.3505747,-0.9198372,-0.04026616,12.65252,12.89908,0.1175962,0.07656452,0.06992751,-0.320211,-1.032498,-2.858277,0.3047943,1.533929,0.2694931,-0.05314439,-0.04694638,0.02095886,-1.350346,0.5259013,0.2473704,0.4697298,1.483884,0.1769266,-0.1237841,1.655574,0.2472398,300.0949,88.68969,163.9371,True
7,2.922219,0.102078,-0.1572993,-0.2174664,-1.493552,1.54397,-1.533187,0.144841,1.468351,0.3507295,-0.9198936,-0.005014212,12.46684,12.06342,0.112232,0.04998009,0.04324713,-0.3196645,-1.031019,-2.861143,0.3041683,1.5338,0.2692533,-0.04032657,-0.02671246,0.02621311,-1.349776,0.5261225,0.2473826,0.4692029,1.483861,0.1766634,-0.1248012,1.655022,0.2476108,299.9656,89.17088,163.4781,True
7,2.93333,0.078494,-0.1093922,-0.1972933,-1.494066,1.542641,-1.53295,0.1443817,1.46806,0.3508763,-0.9197003,0.01753635,12.22811,11.0135,0.1043655,0.04697822,-0.03235038,-0.3170387,-1.034897,-2.858202,0.3035805,1.533635,0.2691002,-0.01999326,-0.01394082,0.03670266,-1.348916,0.5262558,0.2468274,0.4685818,1.483897,0.176342,-0.1258614,1.654393,0.2480116,299.9267,89.39355,163.2947,True
7,2.944441,0.05388932,-0.08285423,-0.1962401,-1.494149,1.540478,-1.53255,0.1438417,1.467789,0.3510396,-0.9189621,0.06719645,12.01592,9.770729,0.1063557,0.06408083,-0.05255109,-0.3162578,-1.03955,-2.855447,0.3028294,1.533712,0.2688596,-0.02426523,-0.03312833,0.03457839,-1.348843,0.5248346,0.2476473,0.467973,1.483873,0.1760535,-0.126938,1.653665,0.2484051,299.8244,89.49738,163.2709,True
7,2.955552,0.04744201,-0.06582193,-0.1920133,-1.494088,1.538476,-1.532694,0.14335,1.467566,0.351193,-0.9174079,0.1414774,11.88329,9.127917,0.09561509,0.06196413,-0.06848481,-0.3151862,-1.042705,-2.853022,0.3021112,1.533704,0.2686486,-0.02535704,-0.02991781,0.03139974,-1.348643,0.5246487,0.247927,0.4671795,1.48389,0.1757889,-0.1280269,1.6529,0.2488011,299.6516,89.63715,163.2001,True
7,2.966663,0.05163161,-0.03163579,-0.1654843,-1.494873,1.537717,-1.533238,0.1429499,1.46719,0.3513098,-0.9171724,0.02039351,11.83024,9.299335,0.09360127,0.06296276,-0.05035693,-0.3154599,-1.044373,-2.85271,0.3014202,1.533859,0.2684171,-0.02658543,-0.01817075,0.01545847,-1.348951,0.5248601,0.2482956,0.4665239,1.483939,0.1755939,-0.1290683,1.652217,0.2492498,299.4272,89.7429,163.1334,True
7,2.977774,0.07618091,-0.03576121,-0.1516858,-1.494241,1.536508,-1.534678,0.1425953,1.46697,0.3514123,-0.9177711,-0.0547355,11.90981,10.26355,0.08826542,0.07677253,-0.04282359,-0.3157763,-1.048598,-2.849435,0.30081,1.533885,0.2682106,-0.02355479,-2.018549E-05,-0.0005201446,-1.349478,0.5256996,0.2483113,0.465935,1.483969,0.1753194,-0.1300283,1.65173,0.2497987,299.2562,89.93949,162.9977,True
7,2.988885,0.09538822,-0.03992964,-0.1464013,-1.493702,1.535032,-1.536256,0.1421376,1.466708,0.3515136,-0.918178,-0.03671796,12.06897,11.99914,0.08163465,0.09602492,-0.07789559,-0.3140804,-1.055671,-2.843589,0.3000975,1.533733,0.2680154,-0.003331819,0.008503758,-0.001752188,-1.349372,0.5258797,0.2476162,0.4652344,1.483981,0.1749604,-0.1308055,1.651396,0.250466,299.1762,90.06201,162.9685,True
7,2.999996,0.1263136,-0.04301423,-0.1433296,-1.492742,1.532806,-1.538589,0.1420227,1.466893,0.3515961,-0.919108,-0.08476022,12.33422,14.63467,0.0763028,0.0885666,-0.08321496,-0.3132378,-1.058994,-2.841079,0.2994762,1.533699,0.2678256,0.01271331,-0.02774106,0.004413256,-1.349447,0.5239062,0.2475861,0.4645858,1.4839,0.1746788,-0.1313323,1.651115,0.2511948,299.182,89.97102,163.2062,True
7,3.011107,0.1305656,-0.04300711,-0.1465377,-1.492327,1.53106,-1.540018,0.1415763,1.466735,0.3517301,-0.9192572,-0.01304905,12.57294,17.50589,0.07851257,0.08747428,-0.07151287,-0.3132005,-1.061963,-2.839405,0.2988593,1.533591,0.2675531,0.01482657,-0.04689701,0.001151776,-1.349839,0.5229667,0.2475363,0.4637843,1.484002,0.1743419,-0.1317121,1.650819,0.2518758,299.3045,89.98016,163.3957,True
7,3.022218,0.1433832,-0.05044702,-0.1519319,-1.491077,1.528332,-1.542001,0.1410864,1.466934,0.3520143,-0.9199054,-0.0593215,12.75862,20.35569,0.09868748,0.09288974,-0.08012918,-0.312376,-1.067189,-2.83616,0.298215,1.53374,0.2674766,0.01827336,-0.04695119,0.02775403,-1.348798,0.5222314,0.2474154,0.4630512,1.484091,0.1741343,-0.1321124,1.650492,0.252463,299.4163,90.08845,163.4391,True
7,3.033329,0.1423577,-0.05364656,-0.148754,-1.490171,1.52633,-1.543534,0.1403802,1.466734,0.3523655,-0.9188545,0.09641619,12.86472,22.90551,0.09349088,0.07047252,-0.06951425,-0.3120319,-1.067795,-2.836451,0.2975033,1.533722,0.2673216,0.01960101,-0.05659284,0.05435308,-1.347565,0.5209852,0.2473416,0.4622236,1.484154,0.1737633,-0.132624,1.650125,0.2529818,299.4673,90.32292,163.293,True
7,3.04444,0.1414046,-0.06959595,-0.1316496,-1.488669,1.525566,-1.544988,0.1399139,1.466277,0.3521028,-0.9192108,-0.03356163,12.83819,24.44826,0.07974762,0.061865,-0.05667626,-0.3119286,-1.068965,-2.835816,0.2968605,1.53363,0.2671914,0.005769755,-0.06618813,0.05552736,-1.347268,0.5198594,0.2479805,0.4614193,1.484224,0.1734211,-0.1333653,1.649732,0.2534831,299.4762,90.54316,163.1028,True
7,3.055551,0.1436381,-0.08554487,-0.1231003,-1.487096,1.524224,-1.546759,0.1393496,1.466364,0.3522649,-0.9186377,0.05268686,12.65252,25.00535,0.09583417,0.0703645,-0.03117021,-0.3127819,-1.071946,-2.834516,0.2961214,1.533565,0.2670476,-0.009044339,-0.09071252,0.06413247,-1.346819,0.5178583,0.2489757,0.460528,1.484292,0.1730702,-0.1343899,1.649312,0.2540419,299.4721,90.88133,162.7818,True
7,3.066662,0.133114,-0.1175505,-0.1229676,-1.484625,1.522921,-1.547798,0.1387037,1.466086,0.3523951,-0.9183032,0.03004016,12.41379,24.79108,0.1063814,0.1012985,-0.03325924,-0.3131915,-1.079188,-2.829287,0.2953861,1.533481,0.266881,0.007184094,-0.1014097,0.08952237,-1.345392,0.5159779,0.2487275,0.4596322,1.484362,0.1727493,-0.1355572,1.648667,0.2546791,299.4409,91.0377,162.7385,True
7,3.077773,0.1256663,-0.1218583,-0.1271855,-1.483195,1.521447,-1.548849,0.1373164,1.465391,0.352695,-0.9185796,-0.02553167,12.17507,23.8483,0.1009783,0.1034439,-0.04387788,-0.3126471,-1.083816,-2.8256,0.2945614,1.533533,0.2666986,0.03180155,-0.08970347,0.1020965,-1.344066,0.5150181,0.2477355,0.4587929,1.484515,0.1724176,-0.1367324,1.647717,0.2552041,299.2793,91.07408,162.9608,True
7,3.088884,0.1139395,-0.119775,-0.1271593,-1.481965,1.520002,-1.549578,0.1364935,1.465438,0.3529019,-0.9178446,0.06744571,11.93634,22.47696,0.07113727,0.08102429,-0.0597567,-0.3115557,-1.085227,-2.824019,0.2937054,1.533627,0.2665279,0.03062129,-0.08221357,0.09040295,-1.343718,0.514347,0.2476388,0.4578728,1.484626,0.1720912,-0.1380052,1.646672,0.2555394,299.0403,91.32218,162.8972,True
7,3.099995,0.1033531,-0.1475545,-0.1398161,-1.479491,1.518166,-1.550086,0.135614,1.465404,0.3531246,-0.9177834,0.004958649,11.83024,21.34133,0.06383357,0.08729483,-0.02773046,-0.3127478,-1.08792,-2.821932,0.2928205,1.533667,0.2663577,0.02100912,-0.07688522,0.088377,-1.342988,0.5134605,0.2479672,0.4569322,1.484756,0.1718228,-0.1393544,1.645548,0.2556886,298.9102,91.72783,162.5518,True
7,3.111106,0.09705644,-0.1785059,-0.1503572,-1.476459,1.516051,-1.55074,0.1348035,1.465562,0.3533092,-0.9174979,0.02615459,11.75066,20.4414,0.05634497,0.08197377,-0.03622403,-0.3124373,-1.091028,-2.819355,0.2919308,1.533587,0.2662199,0.01381039,-0.06735758,0.1161613,-1.340948,0.512536,0.2482396,0.4558778,1.484794,0.1715727,-0.140932,1.644477,0.2557587,298.8233,92.04116,162.1445,True
7,3.122217,0.06833269,-0.1956833,-0.15553,-1.473742,1.514307,-1.550213,0.1340456,1.465856,0.3535147,-0.9173397,0.01427021,11.72414,19.7343,0.04980541,0.1224415,-0.03819847,-0.3127904,-1.100066,-2.811002,0.2909913,1.533603,0.2661142,0.01372045,-0.04922686,0.1076789,-1.340064,0.5123933,0.2481014,0.4548763,1.484809,0.1712589,-0.1426288,1.643583,0.2558381,298.5454,92.38541,161.7271,True
7,3.133328,0.0545411,-0.1989295,-0.1448922,-1.470987,1.512237,-1.550382,0.1337954,1.466639,0.3535864,-0.9175714,-0.0212006,11.72414,19.24148,0.05853681,0.1138498,-0.003129102,-0.3141161,-1.10236,-2.809701,0.2899943,1.533652,0.2659421,0.04320459,-0.04486591,0.0711857,-1.340535,0.512141,0.2467043,0.4540431,1.484904,0.1709673,-0.1442652,1.642862,0.2559627,298.2602,92.91331,161.2299,True
7,3.144439,0.04391093,-0.2043021,-0.1448378,-1.468534,1.510699,-1.550398,0.1329923,1.466877,0.3536773,-0.9164843,0.09961417,11.72414,18.89865,0.04687166,0.1127243,0.006523479,-0.314897,-1.105601,-2.80669,0.2891975,1.533726,0.2657444,0.05246839,-0.06501954,0.03589815,-1.341456,0.5109743,0.2461195,0.4530583,1.485136,0.1707141,-0.1457319,1.642347,0.2561383,298.0357,93.48971,160.7308,True
7,3.15555,0.001102353,-0.1661709,-0.1586492,-1.467963,1.508887,-1.5488,0.1319132,1.466923,0.3538644,-0.9172204,-0.06807269,11.61804,18.57724,0.08652768,0.09995709,0.04461345,-0.3166541,-1.106437,-2.807958,0.2883796,1.533903,0.2655385,0.04057106,-0.09054223,0.01570645,-1.342395,0.5093717,0.2464974,0.4521233,1.485265,0.1704104,-0.1469492,1.642159,0.2563509,297.7702,93.95667,160.3514,True
7,3.166661,-0.03108669,-0.1130522,-0.1640471,-1.468546,1.506916,-1.547205,0.1310774,1.467376,0.3540573,-0.9172363,-0.0006790984,11.48541,18.27726,0.106931,0.06165056,0.05185005,-0.3173007,-1.103738,-2.812413,0.2875417,1.534044,0.2654364,0.0311363,-0.1086805,0.03066634,-1.341952,0.5075572,0.2468761,0.4510841,1.485451,0.1701415,-0.1477943,1.642333,0.2565786,297.6284,94.41462,160.0161,True
7,3.177772,-0.0396441,-0.1152593,-0.1767799,-1.467174,1.504797,-1.54621,0.1301015,1.467795,0.3543172,-0.9155405,0.1547365,11.35279,17.97729,0.1123235,0.03823255,0.05068833,-0.3175756,-1.101742,-2.815632,0.286517,1.534281,0.2652478,0.01119535,-0.06722246,0.06503908,-1.340056,0.5076515,0.247392,0.450017,1.485674,0.1698222,-0.1483979,1.642776,0.2568144,297.8448,94.67762,159.8219,True
7,3.188883,-0.03314148,-0.1589821,-0.2011571,-1.463955,1.501767,-1.545812,0.1291026,1.468595,0.3547075,-0.9151309,0.03579331,11.22016,17.65588,0.1079919,0.1031269,0.0764741,-0.3203176,-1.110222,-2.808547,0.2854488,1.534675,0.2651205,0.006099224,-0.03645509,0.0939502,-1.337805,0.5068331,0.2479653,0.4489676,1.485794,0.1690753,-0.1489996,1.643525,0.2571286,298.1372,94.70332,159.7522,True
7,3.199994,-0.03407312,-0.1952161,-0.2042289,-1.460625,1.499461,-1.5451,0.1281783,1.469326,0.3550313,-0.9153088,-0.01690356,11.14058,17.3559,0.0728454,0.0944998,0.07451543,-0.3214127,-1.111755,-2.806635,0.2843347,1.534891,0.2649159,0.01054145,-0.03757257,0.1141539,-1.33594,0.505703,0.2480985,0.447841,1.486143,0.168896,-0.1496501,1.644562,0.2576103,298.3695,94.73313,159.6976,True
7,3.211105,-0.05107138,-0.208067,-0.2030677,-1.458061,1.497396,-1.54362,0.1274139,1.470003,0.3553452,-0.9153674,-0.005903585,11.11406,17.0345,0.05460259,0.08494193,0.04475852,-0.3211101,-1.114064,-2.804416,0.2833458,1.535138,0.2647557,-0.01086362,-0.08229388,0.09934437,-1.335995,0.5031278,0.2492751,0.4467111,1.486216,0.1687074,-0.1503639,1.645684,0.2582537,298.6595,94.99899,159.5342,True
7,3.222216,-0.0745492,-0.2060669,-0.2147266,-1.455925,1.494585,-1.541726,0.1264904,1.470702,0.3556807,-0.9141119,0.114019,11.06101,16.73452,0.07812549,0.09135188,0.06488572,-0.3227746,-1.116322,-2.803945,0.2824127,1.535498,0.2645693,-0.03007184,-0.1057416,0.09415583,-1.335532,0.5008002,0.250764,0.4455964,1.48647,0.1686354,-0.1512187,1.646725,0.2590166,298.9617,95.4613,159.2543,True
7,3.233327,-0.08735123,-0.2029101,-0.2136199,-1.454091,1.492419,-1.540042,0.1255105,1.471599,0.3561738,-0.9121891,0.173899,11.00796,16.43454,0.1177645,0.09348664,0.107293,-0.3259533,-1.116811,-2.806288,0.2813896,1.535885,0.2643883,-0.03870337,-0.1035818,0.08251384,-1.335426,0.4997585,0.2517004,0.444414,1.486679,0.1684179,-0.1521826,1.647504,0.2598227,299.1448,95.81225,159.1095,True
7,3.244438,-0.09910274,-0.2072739,-0.2316839,-1.451783,1.489159,-1.538154,0.1245265,1.472425,0.3565772,-0.9106285,0.1404162,10.95491,16.15599,0.1134358,0.06586327,0.07953457,-0.3256545,-1.116554,-2.807477,0.2803286,1.536339,0.2641075,-0.01959819,-0.06414746,0.07710232,-1.334499,0.5001654,0.2510703,0.4432403,1.487085,0.1683085,-0.1532614,1.648046,0.260603,299.1603,96.09705,159.0136,True
7,3.255549,-0.0990779,-0.2200816,-0.2380217,-1.448948,1.486416,-1.536654,0.1235682,1.473257,0.3569593,-0.9095233,0.09905402,10.8488,15.92029,0.1159292,0.05291595,0.1391344,-0.3290767,-1.113446,-2.811685,0.2791263,1.536773,0.2638414,-0.01437388,-0.05665836,0.06640774,-1.334327,0.4997703,0.2511049,0.4420207,1.487329,0.1681066,-0.1545385,1.64853,0.2613538,299.0717,96.46915,158.7691,True
7,3.26666,-0.09567596,-0.2754955,-0.2453074,-1.443944,1.483443,-1.535358,0.1225727,1.474356,0.3573041,-0.9081613,0.1227139,10.74271,16.006,0.1117699,0.08475365,0.1765382,-0.3329015,-1.116252,-2.810117,0.2779785,1.537008,0.263705,-0.02644189,-0.05126863,0.03032171,-1.335287,0.4994301,0.2520197,0.4407983,1.487665,0.1679885,-0.1559885,1.64907,0.2621012,298.9446,96.88454,158.4411,True
7,3.277771,-0.09233936,-0.3159769,-0.2494437,-1.43914,1.480474,-1.533927,0.1216113,1.475283,0.3577015,-0.9070774,0.09708404,10.68966,16.47739,0.09882023,0.093307,0.1521309,-0.3340163,-1.119395,-2.807713,0.2767017,1.537286,0.2635071,-0.01661442,-0.01827051,0.06013167,-1.334165,0.5000333,0.2518661,0.4394583,1.488039,0.1678712,-0.1575085,1.649644,0.2628739,298.8549,97.39516,158.0513,True
7,3.288882,-0.1306311,-0.3246281,-0.2407875,-1.435278,1.477936,-1.530818,0.1205064,1.476112,0.3581269,-0.9058348,0.1116558,10.66313,17.33447,0.06978279,0.1337773,0.125776,-0.3353985,-1.1271,-2.800155,0.2753484,1.5377,0.2635059,-0.01316549,-0.01623226,0.08462071,-1.331665,0.4992049,0.2519734,0.4381458,1.488361,0.1676433,-0.1590057,1.650205,0.2636364,298.8081,97.92914,157.7049,True
7,3.299993,-0.1498242,-0.3076628,-0.2334006,-1.432227,1.47468,-1.528376,0.1199138,1.477506,0.3584228,-0.9043706,0.1321249,10.71618,18.49153,0.075067,0.1263716,0.114005,-0.3366305,-1.129434,-2.798981,0.2741096,1.538151,0.2633421,-0.01203159,-0.01410326,0.09206535,-1.33054,0.4989858,0.2521433,0.4368373,1.488722,0.1674776,-0.1604714,1.65073,0.2642832,298.8059,98.59991,157.2708,True
7,3.311104,-0.1584032,-0.2981292,-0.2397973,-1.429436,1.471655,-1.52591,0.1187868,1.478551,0.3588271,-0.9015003,0.2607055,10.8488,19.97,0.06630415,0.1264772,0.07143572,-0.3364984,-1.134026,-2.795021,0.2727363,1.53873,0.2632091,-0.01742812,0.0008297814,0.08575591,-1.329766,0.4994895,0.2524432,0.4355915,1.489182,0.1675298,-0.1618705,1.651186,0.2647822,298.8298,99.25889,156.7686,True
7,3.322215,-0.1552192,-0.3056392,-0.2504484,-1.42545,1.467957,-1.523765,0.1172488,1.479125,0.3586593,-0.9011988,0.02486592,11.00796,21.36276,0.07792167,0.1542179,0.0693258,-0.3380856,-1.140835,-2.789804,0.2714694,1.539442,0.2629993,-0.02923989,0.006170296,0.07629159,-1.329185,0.4996287,0.2531582,0.4343186,1.489629,0.1673648,-0.1632365,1.65178,0.265142,298.6992,99.83764,156.2466,True
7,3.333326,-0.13598,-0.3247416,-0.2525692,-1.42139,1.464938,-1.522347,0.1160538,1.480271,0.3589869,-0.900516,0.06203353,11.16711,22.56267,0.09535988,0.1296016,0.1266879,-0.3415174,-1.138799,-2.793368,0.2702467,1.540059,0.2628062,-0.03993737,-0.01192475,0.06994891,-1.328986,0.4988614,0.25406,0.4332242,1.489985,0.1673183,-0.1644711,1.652702,0.2654386,298.5452,100.5051,155.5954,True
7,3.344437,-0.1081983,-0.333079,-0.2398028,-1.418015,1.463121,-1.521834,0.1150462,1.481838,0.3602228,-0.9002891,0.01977388,11.32626,23.50546,0.07851772,0.09860098,0.1448002,-0.3436181,-1.136356,-2.795955,0.2690392,1.540653,0.2626567,-0.05257214,-0.03433247,0.08386666,-1.327944,0.4974038,0.2553689,0.4319272,1.490357,0.1672847,-0.1656096,1.653932,0.2657437,298.7089,101.0279,155.1496,True
7,3.355548,-0.1071168,-0.3276872,-0.2184975,-1.414668,1.461395,-1.520093,0.1138765,1.482886,0.3606288,-0.9003695,-0.007850783,11.37931,23.91258,0.05825251,0.09429085,0.1385093,-0.345004,-1.137673,-2.794647,0.2676868,1.541269,0.2624927,-0.0728586,-0.03432636,0.0787297,-1.327334,0.4969337,0.2568867,0.4304511,1.490865,0.1672347,-0.1667177,1.655246,0.26601,299.1073,101.4495,154.8884,True
7,3.366659,-0.1209358,-0.3319882,-0.2152413,-1.411077,1.458994,-1.517918,0.112644,1.484105,0.3611097,-0.9005692,-0.01857609,11.43236,23.74116,0.05282148,0.1315475,0.1418459,-0.3475873,-1.143211,-2.789864,0.2663603,1.541857,0.2623925,-0.08150974,-0.01299475,0.06607117,-1.32696,0.4975025,0.2578558,0.4291097,1.491434,0.1671789,-0.1678112,1.656548,0.2662885,299.3716,101.9585,154.3432,True
7,3.37777,-0.1445452,-0.30338,-0.2291028,-1.40859,1.455832,-1.514789,0.1113368,1.485238,0.3613279,-0.8986006,0.1794064,11.45889,23.01264,0.05893911,0.1657485,0.1120847,-0.348865,-1.15143,-2.782959,0.2649437,1.542785,0.2621975,-0.04204492,0.02217463,0.07323002,-1.3256,0.498827,0.2567269,0.4278624,1.492311,0.1671371,-0.1688882,1.65779,0.2667316,299.5232,102.3856,153.7731,True
7,3.388881,-0.1446181,-0.2906194,-0.2365987,-1.405969,1.452754,-1.512637,0.1100238,1.486503,0.3616991,-0.8972104,0.1247778,11.48541,21.76987,0.08159658,0.1412067,0.150243,-0.3519021,-1.150163,-2.785837,0.2635784,1.543663,0.261889,-0.02182785,0.01793308,0.06982609,-1.32504,0.4986304,0.2563396,0.4264984,1.492956,0.1670196,-0.1700182,1.658941,0.2672843,299.651,102.6937,153.5381,True
7,3.399992,-0.1147045,-0.3097336,-0.2441417,-1.401312,1.44892,-1.511954,0.1093166,1.488084,0.3618975,-0.8953649,0.1670012,11.53846,20.16284,0.06162857,0.1016455,0.1768696,-0.3546255,-1.146174,-2.789633,0.2621221,1.544304,0.2616303,-0.02843916,0.03076239,0.04754502,-1.325085,0.4994302,0.2566379,0.4251244,1.493673,0.166985,-0.1713182,1.6601,0.267882,299.7602,103.0938,153.3161,True
7,3.411103,-0.08588539,-0.3298852,-0.2537487,-1.397146,1.445498,-1.511406,0.1081831,1.489423,0.362246,-0.8951699,0.0156532,11.67109,18.57724,0.02844073,0.1186318,0.1589913,-0.3562127,-1.150169,-2.784877,0.2605766,1.544707,0.2613511,-0.05285107,0.03818454,0.05737874,-1.323985,0.4999196,0.2579692,0.4237577,1.494371,0.166929,-0.1728031,1.661352,0.2685105,299.8046,103.5365,153.0437,True
7,3.422215,-0.06664619,-0.360774,-0.27604,-1.392348,1.441815,-1.510573,0.106687,1.490481,0.3627098,-0.8956088,-0.04116384,11.77719,17.14163,0.02399197,0.1888901,0.1666826,-0.3596876,-1.159437,-2.776347,0.2590767,1.545355,0.2612021,-0.08134969,0.03704828,0.08533892,-1.322034,0.4998993,0.2599163,0.4221901,1.495038,0.1669352,-0.1743216,1.662627,0.2691841,299.7976,104.0517,152.6906,True
