loc,t,aDotS,bDotS,gDotS,aS,bS,gS,xS,yS,zS,qE,qDotE,emgA,emgB,aDotSH,bDotSH,gDotSH,aSH,bSH,gSH,xSH,ySH,zSH,aDotUB,bDotUB,gDotUB,aUB,bUB,gUB,xUB,yUB,zUB,xHand,yHand,zHand,aHand,bHand,gHand,enable
2,0,-0.1269526,-0.1875622,0.2353648,-1.48211,1.540275,-2.420111,0.3556517,1.258345,0.4392662,-0.6323718,0.08562142,10.05305,14.24898,-0.127221,0.09706131,0.1308366,-0.4537302,-3.69211,-0.6003236,0.4103733,1.438587,0.3669698,-0.10139,-0.004367329,-0.0211435,-1.202764,0.2284065,-0.08297877,0.5301284,1.488039,0.1940207,0.05429898,1.111734,0.4072531,297.5405,264.4245,9.004562,True
2,0.01111111,-0.134445,-0.1662243,0.2523538,-1.483834,1.543355,-2.418678,0.3552103,1.258543,0.4384956,-0.6321045,0.02342498,9.496022,14.31326,-0.1251329,0.09284171,0.1190972,-0.4534293,-3.689428,-0.6015058,0.4103329,1.438906,0.3665397,-0.1067592,-0.002231166,-0.02534327,-1.203138,0.2284144,-0.08162775,0.5301979,1.487971,0.193573,0.05379428,1.111939,0.4056605,298.2472,260.9352,12.59411,True
2,0.02222222,-0.1430196,-0.1491469,0.2586555,-1.485157,1.545079,-2.4167,0.3548985,1.260207,0.4402034,-0.6317604,0.03106814,8.753316,14.35612,-0.1250745,0.06197757,0.1083357,-0.4526117,-3.689452,-0.6002083,0.4104038,1.439104,0.3660645,-0.10575,-0.008607056,-0.03175998,-1.203684,0.2280144,-0.08035529,0.5302805,1.487937,0.1931598,0.05318034,1.112236,0.4041936,298.8002,258.2525,15.40212,True
2,0.03333334,-0.1462236,-0.1545244,0.2480332,-1.485695,1.548046,-2.415242,0.3543975,1.260542,0.4395692,-0.63102,0.06717569,7.95756,14.33469,-0.1323329,0.01505725,0.1146222,-0.4504391,-3.690365,-0.5977193,0.4104056,1.439363,0.3655534,-0.1004897,-0.02030506,-0.04036374,-1.204401,0.2271851,-0.07924875,0.5305679,1.487854,0.1927686,0.05275038,1.112497,0.4030289,299.3572,256.9106,17.12481,True
2,0.04444445,-0.1451152,-0.181236,0.224695,-1.485041,1.551426,-2.4141,0.3537322,1.260825,0.4388933,-0.6302669,0.06815038,7.161804,14.27041,-0.1355243,0.01716913,0.1167755,-0.4494708,-3.688013,-0.5982296,0.4103633,1.439609,0.3650632,-0.09422597,-0.01707863,-0.05319859,-1.20537,0.2269845,-0.0783044,0.530693,1.48777,0.1922722,0.05237895,1.112818,0.402309,299.8407,255.9475,18.2507,True
2,0.05555556,-0.1407847,-0.2218126,0.1939373,-1.483231,1.555034,-2.413019,0.3531565,1.261225,0.4383597,-0.6304171,-0.01442537,6.366048,14.14185,-0.1280376,0.02568808,0.1274219,-0.448348,-3.684034,-0.6007327,0.4103133,1.439829,0.3644886,-0.09428282,-0.009609066,-0.05850726,-1.206222,0.2270691,-0.07730944,0.5308378,1.487631,0.1918468,0.05178933,1.113257,0.4022392,300.2252,255.305,18.60025,True
2,0.06666667,-0.1397077,-0.2346523,0.1801285,-1.482283,1.558383,-2.411811,0.3523736,1.261154,0.4370089,-0.6305492,-0.0119474,5.729441,14.03471,-0.1226755,0.02781686,0.1348595,-0.4471213,-3.680981,-0.6023514,0.4101943,1.440027,0.3639762,-0.102786,-0.01068925,-0.05629677,-1.206689,0.2268004,-0.07569529,0.5309577,1.487538,0.1914756,0.05131,1.1135,0.402146,300.5617,255.9236,18.17675,True
2,0.07777778,-0.1461163,-0.2314843,0.1769393,-1.482214,1.561376,-2.410216,0.3517241,1.261371,0.4362235,-0.6304134,0.01235952,5.278513,13.949,-0.1289739,0.02667539,0.151934,-0.4453636,-3.677357,-0.6039831,0.4101319,1.440292,0.3634677,-0.1230698,-0.006434664,-0.06035437,-1.207525,0.2268487,-0.07356264,0.5311465,1.487427,0.1910577,0.05095913,1.113549,0.4016901,300.8738,255.8633,18.50739,True
2,0.08888889,-0.1482608,-0.2304391,0.1737459,-1.481888,1.564539,-2.408764,0.3512397,1.261802,0.4356992,-0.6301183,0.02675823,5.013261,13.90615,-0.1428617,0.03940129,0.1541772,-0.4443548,-3.673463,-0.6052614,0.4100512,1.440608,0.3629851,-0.1231437,-0.005352594,-0.0688812,-1.208701,0.2266591,-0.07225049,0.531357,1.487343,0.1906624,0.05067018,1.113564,0.4008915,301.2459,255.0922,19.5643,True
2,0.1,-0.1471864,-0.2325702,0.1726837,-1.481474,1.567792,-2.407496,0.3507459,1.262188,0.4348407,-0.6295963,0.0473769,4.854112,13.90615,-0.1354702,0.05116172,0.1488443,-0.4437577,-3.669698,-0.607421,0.4100651,1.440878,0.3625166,-0.1158493,-0.003173847,-0.08598793,-1.210194,0.2266102,-0.07124782,0.5315692,1.487272,0.1902823,0.05032453,1.1136,0.399838,301.719,254.0874,20.94459,True
2,0.1111111,-0.1472127,-0.2347439,0.1609733,-1.480681,1.570728,-2.406095,0.3503134,1.262664,0.4343224,-0.6295766,0.001321927,4.615383,13.949,-0.1248673,0.04484434,0.1359874,-0.4429481,-3.667716,-0.6081004,0.4100333,1.441172,0.362071,-0.1180663,0.00323616,-0.09447449,-1.21159,0.2268087,-0.06992662,0.5317957,1.487191,0.1898878,0.04994157,1.11373,0.398831,302.2668,253.0102,22.31537,True
2,0.1222222,-0.1493471,-0.2497524,0.1386573,-1.478959,-4.709504,-2.404639,0.3498717,1.262742,0.4328613,-0.629681,-0.009528115,4.403181,14.03471,-0.1247805,0.02565594,0.1391175,-0.441411,-3.666315,-0.6080124,0.4101066,1.441495,0.3615613,-0.1223677,0.004306562,-0.09869344,-1.212833,0.22679,-0.06840196,0.532074,1.487063,0.1894815,0.04937275,1.113933,0.3979649,302.7067,251.9336,23.55171,True
2,0.1333333,-0.154722,-0.2583976,0.1110073,-1.477025,-4.706913,-2.402964,0.3494399,1.263281,0.4323859,-0.6295084,0.01580258,4.270555,14.14185,-0.1268,0.02345026,0.1593692,-0.4394173,-3.662719,-0.6097028,0.4102415,1.441905,0.3609564,-0.1286854,-0.01169535,-0.09227584,-1.213508,0.22599,-0.06647357,0.5323662,1.487048,0.1890063,0.04895296,1.114125,0.3972271,303.2119,251.3904,24.35017,True
2,0.1444445,-0.1536856,-0.2616504,0.09396581,-1.475366,-4.704474,-2.401649,0.3490268,1.263478,0.4311931,-0.6293646,0.01295296,4.164455,14.24898,-0.1256818,0.026604,0.1721613,-0.4376804,-3.65872,-0.6119148,0.4103671,1.442191,0.3604515,-0.1297849,-0.02020723,-0.09655116,-1.214724,0.2253988,-0.06479684,0.5326691,1.486931,0.1885638,0.04858521,1.114278,0.3965798,303.6151,251.0801,24.95164,True
2,0.1555556,-0.15477,-0.2584667,0.09182663,-1.474198,-4.701797,-2.400155,0.3486412,1.263973,0.4307375,-0.629118,0.02246311,4.190982,14.33469,-0.1148894,0.01698957,0.1923152,-0.4352841,-3.655164,-0.6142072,0.4105047,1.442518,0.3599222,-0.1372595,-0.02340422,-0.09861797,-1.215867,0.2249141,-0.06286045,0.5329501,1.486806,0.188096,0.04826782,1.114368,0.39585,303.9991,250.6533,25.69436,True
2,0.1666667,-0.1623144,-0.2425521,0.08326574,-1.473212,-4.699763,-2.398327,0.3482963,1.264316,0.4299636,-0.629428,-0.02856101,4.429708,14.37754,-0.1083969,0.003124647,0.2039587,-0.4328974,-3.652423,-0.6155756,0.4105429,1.442832,0.359488,-0.1458549,-0.02871701,-0.1070756,-1.217374,0.224336,-0.06081062,0.5332181,1.486647,0.1876228,0.0479546,1.114478,0.3951923,304.4276,250.0854,26.46141,True
2,0.1777778,-0.1698705,-0.2309488,0.06193932,-1.471662,-4.698087,-2.396499,0.3479208,1.264652,0.4290073,-0.6289769,0.04111449,4.880635,14.37754,-0.09979694,-0.01602747,0.2059837,-0.4304808,-3.650777,-0.6162478,0.410665,1.44312,0.3589787,-0.1511676,-0.03298501,-0.1059695,-1.218485,0.223719,-0.05871897,0.5335164,1.486494,0.187144,0.04747272,1.114588,0.3945272,304.7627,249.3141,27.38005,True
2,0.1888889,-0.1753359,-0.2225773,0.02676953,-1.469506,-4.697068,-2.394445,0.347605,1.265201,0.4286995,-0.6281604,0.07373074,5.543765,14.33469,-0.07953206,-0.03510662,0.1973003,-0.42828,-3.650199,-0.6166171,0.4107437,1.443405,0.3584092,-0.1565771,-0.04041848,-0.115523,-1.220059,0.222934,-0.05660309,0.5338609,1.486256,0.1866887,0.04696244,1.114717,0.3939442,305.0852,248.7463,28.10198,True
2,0.2,-0.1733119,-0.222711,-0.01052286,-1.46678,-4.696053,-2.392765,0.3472515,1.265598,0.4280164,-0.6274573,0.06306286,6.39257,14.27041,-0.07416108,-0.04787133,0.1972293,-0.4259721,-3.649022,-0.6170228,0.41075,1.443728,0.3578937,-0.1555633,-0.03613765,-0.1208467,-1.221546,0.2226704,-0.05486565,0.5341468,1.486073,0.1862674,0.04642495,1.114837,0.3934043,305.3679,248.4345,28.63342,True
2,0.2111111,-0.1638345,-0.2238795,-0.04889809,-1.463725,-4.695366,-2.391338,0.3470427,1.266191,0.4278181,-0.6264277,0.09291866,7.29443,14.1847,-0.08907856,-0.04047741,0.2015973,-0.423824,-3.645879,-0.6183455,0.4107801,1.444004,0.3574393,-0.1577743,-0.02440366,-0.1282555,-1.223246,0.2227247,-0.05305336,0.5344718,1.485894,0.1858788,0.04590851,1.114938,0.39291,305.6519,248.0766,29.15993,True
2,0.2222222,-0.1585875,-0.2111388,-0.06281359,-1.461492,-4.694606,-2.390054,0.3467798,1.266628,0.4269276,-0.6257496,0.06038677,8.169763,14.09899,-0.08805587,-0.02450342,0.2037701,-0.4221153,-3.642107,-0.6208465,0.4108071,1.444371,0.3569868,-0.1643191,-0.005194247,-0.1430661,-1.225394,0.2232957,-0.05126665,0.5348071,1.485783,0.1855791,0.04542255,1.115056,0.3926084,305.9168,247.7278,29.53906,True
2,0.2333333,-0.1448655,-0.1866174,-0.07253283,-1.459828,-4.69448,-2.388968,0.3466566,1.267209,0.4267619,-0.6248836,0.07777627,8.938992,14.01328,-0.07742617,-0.002134986,0.214444,-0.4203086,-3.636606,-0.6253427,0.4110966,1.444748,0.3566666,-0.1686066,0.003330305,-0.1451375,-1.227092,0.2235553,-0.04935557,0.5351617,1.485604,0.1852608,0.04497933,1.115174,0.3924524,306.0969,247.5463,29.72056,True
2,0.2444444,-0.1343319,-0.163176,-0.08224019,-1.458266,-4.694507,-2.387878,0.3465236,1.267525,0.4260826,-0.6237038,0.1062109,9.602121,13.90615,-0.06252773,-0.005263131,0.2090368,-0.4183895,-3.633959,-0.6275797,0.4113387,1.445125,0.356235,-0.1675881,0.004409879,-0.1494136,-1.22894,0.2235316,-0.04749295,0.535529,1.485349,0.1848781,0.04460752,1.115283,0.3924086,306.1661,247.5232,29.7441,True
2,0.2555556,-0.1355174,-0.1451294,-0.09828288,-1.456386,-4.694907,-2.386312,0.3464055,1.26809,0.4259162,-0.6225091,0.1072134,10.02653,13.84187,-0.04003459,-0.03077221,0.2152299,-0.4156566,-3.632623,-0.6291217,0.4115777,1.445453,0.3558652,-0.1559053,-0.003027737,-0.153804,-1.23076,0.2231087,-0.04604126,0.5358673,1.485167,0.1845572,0.04426075,1.115364,0.3922903,306.1959,247.5614,29.79065,True
2,0.2666667,-0.1538514,-0.1112157,-0.1260538,-1.454565,-4.696453,-2.383714,0.3463297,1.268572,0.4256763,-0.6209767,0.1380996,10.37135,13.77759,-0.02174283,-0.06696372,0.2256736,-0.4122041,-3.632378,-0.6296621,0.4118546,1.445645,0.3553612,-0.1504208,-0.01478662,-0.136833,-1.231606,0.2224086,-0.04417146,0.5361652,1.485007,0.1841946,0.04209387,1.117786,0.3921993,296.5117,272.5249,4.4857,True
2,0.2777778,-0.1796412,-0.07734154,-0.1548611,-1.452759,-4.698269,-2.380649,0.346319,1.269156,0.4255605,-0.6189058,0.1869862,10.6366,13.75616,-0.02284697,-0.05737654,0.2246443,-0.4100267,-3.629433,-0.6320813,0.4120638,1.445951,0.3549817,-0.1599007,-0.02014752,-0.1261056,-1.232657,0.2219122,-0.04191975,0.5364926,1.484809,0.183883,0.03900343,1.117245,0.3921425,294.8163,276.5304,1.700295,True
2,0.2888889,-0.2085985,-0.03915745,-0.1687648,-1.451644,-4.700511,-2.377109,0.3463609,1.269767,0.4255292,-0.6163204,0.2336759,10.8488,13.73473,-0.02508442,-0.02968029,0.2215425,-0.4086173,-3.624705,-0.6360379,0.4123009,1.446265,0.3545866,-0.1620465,-0.01588593,-0.1271414,-1.234149,0.2218335,-0.0399839,0.5368193,1.48465,0.1835468,0.03720823,1.114971,0.3905769,296.5584,276.5473,359.9314,True
2,0.3,-0.2236797,-0.006243106,-0.1805573,-1.450559,-4.702726,-2.373929,0.3463858,1.270362,0.425333,-0.6141905,0.1917046,11.03448,13.75616,-0.001731206,-0.02741858,0.20651,-0.4070386,-3.622598,-0.6387957,0.4125556,1.4466,0.3542802,-0.1556286,-0.01269051,-0.1240014,-1.235462,0.2217862,-0.03845472,0.5371298,1.484453,0.1832523,0.0364044,1.114514,0.3882002,297.2297,270.6235,5.278612,True
2,0.3111111,-0.2612774,0.05103095,-0.2083546,-1.449979,-4.706805,-2.369294,0.3465065,1.271082,0.4254427,-0.6121563,0.1833619,11.32626,13.75616,0.01424941,-0.03905749,0.1989321,-0.4049949,-3.621301,-0.6406988,0.4129339,1.446932,0.3539798,-0.1405937,-0.01802941,-0.1124373,-1.236276,0.2213924,-0.03736282,0.5374345,1.484244,0.1829252,0.03621236,1.114864,0.3865333,297.8308,266.5471,8.074477,True
2,0.3222222,-0.2806207,0.07536442,-0.2328859,-1.448635,-4.710215,-2.365211,0.3465039,1.271843,0.4255996,-0.6108919,0.1130161,11.61804,13.75616,0.02390929,-0.06138983,0.1988058,-0.4024377,-3.620657,-0.6417581,0.4133257,1.447256,0.3537619,-0.1363723,-0.03079678,-0.1178327,-1.237733,0.220516,-0.0356829,0.5376747,1.484059,0.1826224,0.03578117,1.11521,0.3858973,298.2341,265.6999,8.771781,True
2,0.3333333,-0.3170743,0.1081178,-0.2669878,-1.447345,1.568365,-2.359869,0.3465345,1.272768,0.4258156,-0.6083544,0.230301,11.93634,13.69188,0.04012996,-0.09230804,0.2241908,-0.3986022,-3.619771,-0.6435183,0.4138018,1.447657,0.3534861,-0.1278821,-0.05634598,-0.1232999,-1.239236,0.2189011,-0.03395078,0.5379742,1.483866,0.1823535,0.03572467,1.115571,0.3857216,298.3349,265.214,8.913695,True
2,0.3444445,-0.3482293,0.1302608,-0.3128513,-1.445336,1.561882,-2.353773,0.3466784,1.275506,0.430135,-0.6075832,0.06797192,12.20159,13.60617,0.06481889,-0.102967,0.2528,-0.3946821,-3.616719,-0.6478267,0.4141582,1.448116,0.3531911,-0.1162231,-0.07654115,-0.1309278,-1.24106,0.217541,-0.03252812,0.5383018,1.483679,0.1820116,0.03554353,1.115804,0.3853907,298.7337,264.2711,8.622357,True
2,0.3555556,-0.3718191,0.1428246,-0.3469168,-1.443229,1.556853,-2.348185,0.3466966,1.276633,0.4305396,-0.6056332,0.1772981,12.33422,13.47761,0.1140039,-0.1199146,0.2759253,-0.390404,-3.614437,-0.6528603,0.4146464,1.448593,0.3529537,-0.09924869,-0.1042024,-0.140743,-1.242894,0.2151857,-0.03126524,0.5385098,1.483525,0.1817493,0.0352576,1.116054,0.3850755,299.0717,264.0864,8.18469,True
2,0.3666667,-0.4361189,0.188149,-0.4097387,-1.441399,1.549689,-2.340208,0.3466064,1.278233,0.4316318,-0.6043102,0.1190771,12.36074,13.30619,0.1268591,-0.1326711,0.2811485,-0.3866867,-3.613186,-0.6557614,0.4151703,1.449081,0.3526628,-0.08114606,-0.1062985,-0.1409343,-1.244637,0.2141684,-0.03047056,0.538841,1.483449,0.1814332,0.03475334,1.116603,0.3855657,299.5348,264.7924,6.967295,True
2,0.3777778,-0.493783,0.2154945,-0.4566288,-1.439321,1.543797,-2.333218,0.3464841,1.279397,0.4319565,-0.6040731,0.02048928,12.41379,13.17763,0.1365584,-0.1327047,0.3024038,-0.3825759,-3.609605,-0.6609484,0.4157932,1.449621,0.3524888,-0.07048255,-0.09457662,-0.1388778,-1.246064,0.2134602,-0.02984445,0.5390344,1.483342,0.1811407,0.03418729,1.1172,0.3861098,300.2204,267.1688,2.277437,True
2,0.3888889,-0.5473138,0.2353736,-0.4830846,-1.437354,1.536177,-2.323659,0.3463424,1.281103,0.4327006,-0.6016411,0.2220247,12.57294,13.0705,0.147309,-0.1497377,0.3108155,-0.3783084,-3.608051,-0.6642416,0.4164969,1.450119,0.3523381,-0.06203976,-0.100921,-0.1464563,-1.248264,0.2123681,-0.0288668,0.5392449,1.483287,0.1808279,0.03342219,1.117511,0.386258,300.9911,267.993,0.4054536,True
2,0.4,-0.6285558,0.260495,-0.533052,-1.435076,1.526865,-2.312502,0.3462475,1.284353,0.4371607,-0.6020342,-0.0379031,12.81167,13.02764,0.175184,-0.1954603,0.313718,-0.3731999,-3.610205,-0.6651743,0.4173382,1.450656,0.3521411,-0.0546149,-0.1669216,-0.1541673,-1.250479,0.2084332,-0.02704786,0.5394948,1.483222,0.1804659,0.03253307,1.117797,0.385662,301.8962,269.5296,357.8385,True
2,0.4111111,-0.6937104,0.2771504,-0.5680749,-1.432727,1.518686,-2.301374,0.3460891,1.286185,0.4380229,-0.5997343,0.21074,13.23607,13.09192,0.1913015,-0.2210022,0.3231446,-0.367953,-3.610618,-0.6674777,0.4182043,1.451275,0.3518972,-0.04934067,-0.2041824,-0.1628285,-1.252502,0.2046662,-0.02548432,0.5396895,1.483084,0.1801288,0.03177287,1.118008,0.3846106,302.9843,270.3975,355.9855,True
2,0.4222222,-0.7844615,0.3000516,-0.6137055,-1.430392,1.509724,-2.288646,0.3456774,1.287818,0.4384494,-0.5982429,0.134571,13.66048,13.17763,0.2565737,-0.2794201,0.3396666,-0.3614219,-3.613934,-0.6693501,0.4191937,1.452013,0.3517489,-0.03679973,-0.24351,-0.1896904,-1.255633,0.2006793,-0.02401639,0.5397565,1.482768,0.1797249,0.03120802,1.118575,0.3839026,304.1749,270.4745,354.4849,True
2,0.4333333,-0.8710152,0.3293963,-0.6561334,-1.428236,1.499851,-2.274547,0.345428,1.290061,0.4394958,-0.5982909,-0.005121921,14.11141,13.30619,0.2931748,-0.3539375,0.3626767,-0.3538073,-3.619644,-0.6684667,0.4200756,1.452831,0.351578,-0.03168297,-0.2615602,-0.2132197,-1.258701,0.1969167,-0.0226904,0.5399989,1.482615,0.1792886,0.03027794,1.120583,0.3844793,305.2639,269.5814,353.3581,True
2,0.4444444,-0.9543015,0.3534997,-0.683666,-1.426971,1.489963,-2.259696,0.3451949,1.292434,0.4411964,-0.5972106,0.09916685,14.50928,13.43475,0.3051354,-0.3976337,0.3805928,-0.3464102,-3.624038,-0.6679605,0.4209372,1.453591,0.3514206,-0.0339424,-0.2700558,-0.2281328,-1.261602,0.1933711,-0.0212214,0.5400385,1.482376,0.1789284,0.02891638,1.123892,0.3855541,306.0541,268.6097,353.021,True
2,0.4555556,-1.014044,0.3584848,-0.7090694,-1.424765,1.480784,-2.245492,0.3447748,1.294704,0.4416971,-0.5963286,0.08012567,14.88063,13.56331,0.3033969,-0.4382733,0.4284129,-0.3374545,-3.627107,-0.6683991,0.4218463,1.454459,0.3512232,-0.06187406,-0.2945163,-0.2545581,-1.265297,0.1889794,-0.01823573,0.5402222,1.482201,0.1785216,0.02652056,1.129174,0.3867183,305.3133,269.6136,351.397,True
2,0.4666667,-1.039623,0.3508756,-0.7228123,-1.422361,1.471773,-2.231745,0.3443957,1.297269,0.4427812,-0.5960687,0.02358275,15.01326,13.64902,0.3130735,-0.4053459,0.4678791,-0.3304109,-3.622655,-0.6762701,0.4228867,1.455278,0.3509586,-0.08123058,-0.3179815,-0.2778213,-1.268482,0.1835103,-0.01527483,0.5400124,1.482059,0.1781998,0.02338459,1.136277,0.3884519,304.2031,269.7345,350.9242,True
2,0.4777778,-1.085631,0.3506634,-0.7599861,-1.420222,1.459919,-2.215433,0.3442723,1.301781,0.4485657,-0.5971819,-0.1014599,15.03979,13.69188,0.3259148,-0.4010842,0.4816742,-0.3231362,-3.621666,-0.6812888,0.4238716,1.45611,0.3506444,-0.07382324,-0.3233031,-0.2853436,-1.27161,0.1793025,-0.01366601,0.5401475,1.481901,0.1778057,0.01996052,1.144669,0.3909692,302.9232,269.6211,350.8304,True
2,0.4888889,-1.147597,0.3726807,-0.7897066,-1.418361,1.449062,-2.19902,0.343897,1.304656,0.4498427,-0.5982355,-0.0951848,14.93369,13.73473,0.3146116,-0.412011,0.5541477,-0.3135307,-3.61692,-0.6888735,0.4250432,1.456977,0.3502858,-0.05472049,-0.3477942,-0.2951632,-1.27499,0.1740883,-0.01216132,0.5403206,1.481726,0.1775048,0.01709334,1.152624,0.3941647,302.1529,268.908,351.7014,True
2,0.5,-1.225512,0.4020867,-0.8130191,-1.41711,1.438197,-2.181665,0.3434215,1.307029,0.4498961,-0.5966488,0.146123,14.80106,13.79901,0.31605,-0.4504988,0.5998281,-0.3033655,-3.615816,-0.6934866,0.4260628,1.457868,0.3499677,-0.04515532,-0.3712505,-0.3006083,-1.278149,0.1684612,-0.01033706,0.540627,1.481583,0.1770399,0.01381165,1.1616,0.3984296,300.4989,268.8149,351.909,True
2,0.5111111,-1.289542,0.411331,-0.8373607,-1.415408,1.426884,-2.16337,0.3430435,1.309991,0.4512038,-0.5967217,-0.007606118,14.72149,13.90615,0.3260757,-0.49963,0.6507556,-0.2918249,-3.615158,-0.698113,0.4270734,1.458777,0.3496315,-0.06654707,-0.4021346,-0.3121942,-1.282027,0.1625839,-0.007244864,0.5407202,1.481364,0.176671,0.0105854,1.171742,0.4045074,299.096,268.6613,351.8251,True
2,0.5222223,-1.324687,0.411146,-0.8447077,-1.413839,1.41683,-2.146506,0.3426809,1.312155,0.4509923,-0.5963691,0.03282126,14.66844,14.01328,0.3305852,-0.5316551,0.6772639,-0.2812175,-3.614797,-0.7022498,0.4280109,1.459572,0.3493021,-0.08456627,-0.3872896,-0.3023869,-1.284863,0.15831,-0.004581436,0.5409879,1.481109,0.1761527,0.007297692,1.182454,0.4118381,297.2235,269.2755,352.6432,True
2,0.5333334,-1.356667,0.4163464,-0.8446311,-1.412843,1.406276,-2.128783,0.3423646,1.315107,0.4522471,-0.5960479,0.02951016,14.56233,14.12042,0.332701,-0.5337652,0.672985,-0.2717521,-3.614225,-0.706526,0.4290015,1.460337,0.3489828,-0.1004873,-0.3585597,-0.2936463,-1.287813,0.1551559,-0.002034921,0.5410961,1.480922,0.1757593,0.004180584,1.193211,0.4193789,295.225,270.1604,354.002,True
2,0.5444446,-1.385381,0.4215989,-0.8307192,-1.412367,1.396478,-2.111362,0.3421352,1.317623,0.4523861,-0.5978147,-0.1613906,14.45623,14.20613,0.3357461,-0.5123991,0.6602451,-0.2635491,-3.611322,-0.7130268,0.4300778,1.461228,0.3486216,-0.0940882,-0.3532358,-0.2936971,-1.291143,0.1510944,-0.0002711098,0.5413929,1.480927,0.175272,0.001408149,1.203683,0.4263943,293.4243,270.836,355.35,True
2,0.5555557,-1.402427,0.438616,-0.8179611,-1.412441,1.386338,-2.094021,0.3420027,1.320153,0.4525132,-0.5977082,0.01149275,14.32361,14.24898,0.3507366,-0.4975105,0.6847156,-0.2540336,-3.604415,-0.7240176,0.4310677,1.462019,0.3483369,-0.08035085,-0.3542624,-0.3055493,-1.294919,0.1470217,0.001254349,0.5415082,1.480818,0.1748989,-0.0009169155,1.21352,0.4322332,291.8069,271.2579,356.4906,True
2,0.5666668,-1.41098,0.447109,-0.8169014,-1.412577,1.375819,-2.076506,0.3418216,1.323024,0.453635,-0.5982546,-0.04988914,14.08488,14.22755,0.3742211,-0.4900177,0.6984661,-0.2444217,-3.597874,-0.7352743,0.4322702,1.462899,0.3478949,-0.05904144,-0.3670225,-0.3057812,-1.298316,0.1424068,0.002539058,0.541766,1.480639,0.1745408,-0.002926187,1.222648,0.4368246,290.6206,271.4386,357.1363,True
2,0.577778,-1.409954,0.448303,-0.816942,-1.412891,1.363935,-2.05857,0.3422222,1.328281,0.4600973,-0.5987974,-0.0489693,13.81963,14.16327,0.3561469,-0.5145558,0.6899679,-0.2346479,-3.597465,-0.7389534,0.4333064,1.463815,0.3474202,-0.05685729,-0.3744867,-0.300491,-1.301443,0.1379419,0.004301005,0.541866,1.480481,0.174159,-0.004675436,1.23109,0.440125,289.6657,271.5345,357.5712,True
2,0.5888891,-1.39927,0.4451724,-0.8105708,-1.413128,1.353932,-2.042013,0.3422051,1.331193,0.4612696,-0.5990211,-0.01985374,13.52785,14.07757,0.3444918,-0.5263281,0.694253,-0.2247825,-3.594438,-0.7452952,0.4343412,1.464663,0.3470695,-0.0632506,-0.3755467,-0.3015071,-1.304907,0.1337716,0.006293316,0.5421187,1.480397,0.1737883,-0.006300686,1.238973,0.4423468,288.9461,271.3478,357.8273,True
2,0.6000003,-1.381081,0.4409845,-0.8021026,-1.413329,1.344422,-2.02633,0.3419406,1.333427,0.4610472,-0.5990829,-0.005376604,13.20955,13.99186,0.3384537,-0.5659086,0.7378391,-0.2125394,-3.589788,-0.7533446,0.4354407,1.465474,0.3466079,-0.0802061,-0.3723632,-0.2917615,-1.307917,0.1299557,0.008733837,0.5423664,1.480147,0.1733491,-0.007951996,1.246653,0.4442822,288.7372,270.2567,357.7783,True
2,0.6111114,-1.362887,0.429385,-0.7893302,-1.413694,1.334926,-2.010391,0.3419912,1.336283,0.462183,-0.6003676,-0.1172623,12.97082,13.949,0.3375562,-0.5745119,0.7633852,-0.2012679,-3.581874,-0.7647925,0.4364511,1.46626,0.3462415,-0.08871758,-0.3851539,-0.2917099,-1.31114,0.1251623,0.01124014,0.5425193,1.479952,0.1729777,-0.009600597,1.254813,0.4474136,288.7314,268.8924,357.5242,True
2,0.6222225,-1.347878,0.4177492,-0.7765428,-1.414035,1.325953,-1.994726,0.3418878,1.338383,0.4620821,-0.6013929,-0.09270877,12.78515,13.949,0.341898,-0.5713696,0.7836043,-0.1905114,-3.571694,-0.7786028,0.4374642,1.46711,0.3458998,-0.09738964,-0.3915134,-0.3076176,-1.315099,0.1205573,0.01378532,0.5425304,1.479842,0.1726232,-0.01104081,1.263443,0.4516461,287.8797,268.6314,358.0889,True
2,0.6333337,-1.32325,0.3987336,-0.7595006,-1.414312,1.317256,-1.979654,0.3420201,1.34103,0.4631417,-0.601223,0.01621106,12.65252,13.92758,0.3505213,-0.552266,0.8155788,-0.1795769,-3.553419,-0.8006943,0.4383724,1.467815,0.3454888,-0.09651747,-0.3818823,-0.3267807,-1.319496,0.1166056,0.01578163,0.5424592,1.4796,0.1724541,-0.01212297,1.272204,0.4562601,286.5313,268.8789,359.2234,True
2,0.6444448,-1.306169,0.3988093,-0.7499621,-1.415054,1.308384,-1.964529,0.3422741,1.343103,0.4627743,-0.6013466,-0.01151807,12.49337,13.84187,0.3663388,-0.4957601,0.8209941,-0.1708109,-3.529445,-0.8288258,0.4392406,1.468501,0.3450089,-0.09547108,-0.3680137,-0.3257054,-1.323184,0.1132955,0.01775503,0.5425837,1.47938,0.1721582,-0.01284678,1.28087,0.4608054,285.211,269.0845,0.33173,True
2,0.655556,-1.266661,0.3926557,-0.7276856,-1.416161,1.299904,-1.950441,0.3424547,1.345593,0.4637675,-0.6018541,-0.04631287,12.36074,13.71331,0.384222,-0.4317769,0.820037,-0.1626851,-3.498782,-0.8639665,0.4402018,1.46909,0.3446105,-0.08162817,-0.3477237,-0.3258004,-1.326862,0.1105794,0.01867462,0.5427727,1.479321,0.1718874,-0.0133408,1.289227,0.4649008,284.0121,269.0568,1.397043,True
2,0.6666671,-1.221819,0.3843485,-0.7118188,-1.416971,1.291673,-1.937208,0.3427945,1.347606,0.463356,-0.6017919,0.005984398,12.17507,13.49904,0.3893861,-0.4061643,0.8105035,-0.1542796,-3.472246,-0.8944573,0.4411123,1.469826,0.3442054,-0.05383205,-0.3317288,-0.3111184,-1.329889,0.1077515,0.01919047,0.542766,1.479081,0.1715846,-0.0136508,1.297221,0.4684907,283.0151,268.7515,2.357888,True
2,0.6777782,-1.188788,0.3909098,-0.6959487,-1.418595,1.283212,-1.923393,0.3433691,1.349513,0.4630382,-0.6026206,-0.07593281,11.93634,13.26334,0.3681573,-0.4381768,0.8041213,-0.1441159,-3.450454,-0.9194372,0.4420509,1.470498,0.3438864,-0.01301479,-0.3477558,-0.2774544,-1.331932,0.1032559,0.0189705,0.5427725,1.478919,0.171339,-0.01381017,1.304808,0.4714722,282.1399,268.3705,3.245616,True
2,0.6888894,-1.186676,0.4069529,-0.6811004,-1.421015,1.274623,-1.908836,0.3437316,1.351733,0.463845,-0.6033285,-0.06421586,11.69761,13.00621,0.363955,-0.5030885,0.7751799,-0.132986,-3.440457,-0.9332425,0.4431581,1.471183,0.3435056,-0.01925325,-0.3563279,-0.2614284,-1.334413,0.09875561,0.02060221,0.5425599,1.478827,0.1711009,-0.0139601,1.312023,0.4740049,281.3598,267.7924,4.11081,True
2,0.7000005,-1.166499,0.4572415,-0.6365997,-1.425532,1.267165,-1.895312,0.3441703,1.353275,0.4632263,-0.6025972,0.06718194,11.40584,12.72766,0.3607447,-0.53605,0.7537896,-0.1228953,-3.423206,-0.9542212,0.4440927,1.471785,0.3432105,-0.04788798,-0.3627729,-0.248386,-1.336833,0.09444208,0.0231727,0.5425857,1.478616,0.1708465,-0.01389887,1.318792,0.4760026,280.5582,267.1501,5.135915,True
2,0.7111117,-1.118455,0.4468565,-0.6153983,-1.428039,1.259744,-1.883263,0.3444708,1.355278,0.4639888,-0.6015777,0.09242988,11.08753,12.47054,0.3530912,-0.4966233,0.7422353,-0.1149005,-3.38833,-0.9925357,0.4448881,1.472349,0.3429837,-0.07975322,-0.3489757,-0.2373969,-1.339273,0.09098477,0.02593546,0.5425941,1.478405,0.1705794,-0.01374032,1.325166,0.4775991,279.912,266.4482,5.980362,True
2,0.7222228,-1.080992,0.4193678,-0.5951698,-1.429552,1.252931,-1.871429,0.3450053,1.357046,0.4637351,-0.6021844,-0.05628315,10.82228,12.29912,0.3485436,-0.4454599,0.7243072,-0.1081377,-3.346476,-1.03778,0.445871,1.472895,0.3426743,-0.08937952,-0.3276804,-0.2393864,-1.342174,0.08795223,0.02789635,0.542885,1.478281,0.1702712,-0.01372284,1.331385,0.4791414,279.4107,266.1989,6.210123,True
2,0.7333339,-1.021086,0.3867295,-0.5547449,-1.431188,1.247423,-1.861406,0.3454256,1.358755,0.464402,-0.6035437,-0.1236958,10.58355,12.17056,0.3512855,-0.3824521,0.6786835,-0.1035426,-3.306507,-1.08148,0.446696,1.473409,0.3425286,-0.05647781,-0.3031268,-0.2502963,-1.345326,0.08552555,0.02799328,0.5429448,1.478109,0.1700492,-0.01365903,1.337542,0.4806039,278.834,266.3677,6.164495,True
2,0.7444451,-0.9783283,0.3731371,-0.524996,-1.433161,1.241998,-1.851408,0.3460248,1.360107,0.4637415,-0.6035229,0.00258189,10.4244,12.10628,0.3509898,-0.3599607,0.6393384,-0.09809648,-3.272315,-1.119223,0.4475801,1.473925,0.3422449,-0.02669394,-0.3094976,-0.2559189,-1.348354,0.08167569,0.0281363,0.5429801,1.477971,0.1698298,-0.01356548,1.34365,0.4821696,278.2046,265.3824,7.224387,True
2,0.7555562,-0.900358,0.3555004,-0.4804194,-1.435321,1.237574,-1.843766,0.3466207,1.361382,0.4642839,-0.6047692,-0.1143793,10.29178,12.08485,0.3657087,-0.3853043,0.5848506,-0.091617,-3.25223,-1.143803,0.4483665,1.474253,0.3421571,-0.01383138,-0.3201575,-0.2486092,-1.350949,0.07779453,0.02866174,0.5431028,1.477774,0.1695936,-0.01320123,1.349617,0.4837837,277.5254,263.6691,9.122016,True
2,0.7666674,-0.8233916,0.311167,-0.4474287,-1.436199,1.23361,-1.836647,0.3472988,1.362427,0.4644742,-0.6044992,0.02545156,10.23872,12.06342,0.3581667,-0.3693397,0.580682,-0.08580172,-3.201417,-1.197993,0.4492573,1.474618,0.3420451,-0.02435449,-0.3223332,-0.2346594,-1.353085,0.07413255,0.03027242,0.5433018,1.477554,0.1693285,-0.01259792,1.355317,0.4854662,276.7462,261.9071,11.16106,True
2,0.7777785,-0.7462542,0.2231433,-0.4196248,-1.434743,1.230237,-1.830355,0.3479726,1.363327,0.464406,-0.6061648,-0.1529572,10.18567,12.02057,0.3622117,-0.3351752,0.5615935,-0.08152522,-3.148336,-1.255017,0.4500551,1.474769,0.3420575,-0.04967618,-0.3096327,-0.2077543,-1.35451,0.07114595,0.03237951,0.5434253,1.477314,0.1690836,-0.01170425,1.360585,0.4870159,275.9709,260.475,13.01364,True
2,0.7888896,-0.6551522,0.113924,-0.3800744,-1.431729,1.228074,-1.82582,0.3485498,1.364173,0.4649265,-0.6062233,-0.004426271,10.1061,11.99914,0.3551419,-0.2890739,0.4616309,-0.07951932,-3.13414,-1.272847,0.4509453,1.474936,0.3420365,-0.04620436,-0.3033147,-0.1779429,-1.355597,0.06791833,0.03347647,0.5435404,1.47696,0.1688709,-0.01070126,1.365263,0.4884747,275.2262,258.0839,15.65957,True
2,0.8000008,-0.5469957,0.01225814,-0.3278108,-1.428333,1.227057,-1.822849,0.3491949,1.36462,0.4643643,-0.6063064,-0.008214268,10.02653,11.95629,0.346141,-0.2654237,0.3850498,-0.07710118,-3.12291,-1.287553,0.4517522,1.47509,0.3420756,-0.01514418,-0.3086628,-0.1612036,-1.356946,0.0641947,0.03334677,0.5436381,1.47672,0.1686959,-0.009644063,1.369168,0.4897946,274.6112,254.477,19.53871,True
2,0.8111119,-0.4656748,-0.04478389,-0.2841644,-1.425604,1.226036,-1.820246,0.3498476,1.365119,0.4646645,-0.6072263,-0.08457464,9.8939,11.93486,0.3255133,-0.2716422,0.308439,-0.07370991,-3.124526,-1.28872,0.4524745,1.475237,0.3420897,0.007251665,-0.3033257,-0.1582086,-1.358694,0.06101169,0.03316807,0.5438221,1.476512,0.1684523,-0.008641517,1.37219,0.4909125,274.2432,249.1573,25.11606,True
2,0.8222231,-0.3310188,-0.09190686,-0.2034174,-1.423321,1.227192,-1.820889,0.3506491,1.364784,0.4638166,-0.607973,-0.06812039,9.70822,11.93486,0.3447307,-0.3003156,0.2997302,-0.06849491,-3.095516,-1.322148,0.4532909,1.475053,0.3422127,0.01995002,-0.2830605,-0.1657408,-1.360946,0.05850006,0.03306554,0.5441381,1.476183,0.1682534,-0.007756948,1.374257,0.4917887,274.0716,243.7153,30.80526,True
2,0.8333342,-0.2455185,-0.1169175,-0.1449892,-1.421321,1.228172,-1.8213,0.3513009,1.364638,0.4638541,-0.6075885,0.03504837,9.522545,11.89201,0.3781923,-0.2679234,0.1995198,-0.06704614,-3.117892,-1.305221,0.4539266,1.47468,0.3423362,-0.009855658,-0.258593,-0.1611377,-1.362729,0.05644117,0.03451803,0.5444286,1.475786,0.168154,-0.006912846,1.375288,0.4922092,274.042,240.1886,34.59623,True
2,0.8444453,-0.1292093,-0.1215694,-0.08459121,-1.420169,1.229741,-1.823803,0.3518726,1.363716,0.463011,-0.6095736,-0.1824777,9.416446,11.84915,0.3559382,-0.2621101,0.02174959,-0.06614014,-3.211123,-1.215315,0.4544246,1.474403,0.3423946,-0.02577974,-0.2479718,-0.1545665,-1.364266,0.05394992,0.03584988,0.5447283,1.47549,0.1680439,-0.006178155,1.375374,0.4921965,274.1447,239.3268,35.57705,True
2,0.8555565,-0.02684734,-0.1124819,-0.04232175,-1.419537,1.23101,-1.827366,0.3523253,1.362626,0.4626539,-0.6086234,0.08775564,9.363397,11.8063,0.2392821,-0.213273,-0.04993372,-0.06654867,-3.257977,-1.167449,0.4546179,1.474232,0.3425095,-0.08631817,-0.1809646,-0.1293297,-1.364798,0.05430159,0.03896284,0.545099,1.475171,0.1680455,-0.005370703,1.374445,0.4915532,274.2415,239.3146,35.66912,True
2,0.8666676,0.07875072,-0.1044029,0.01167302,-1.41933,1.233232,-1.831794,0.3527755,1.360592,0.4592845,-0.6094878,-0.08068619,9.416446,11.69916,0.165701,-0.1815817,-0.04305815,-0.06554892,-3.259511,-1.165312,0.4549657,1.474018,0.3425512,-0.0693215,-0.1244958,-0.1293572,-1.366211,0.05463195,0.03902144,0.5453824,1.474934,0.1679702,-0.004806628,1.372654,0.4904522,274.4801,240.7777,34.06952,True
2,0.8777788,0.201488,-0.1068363,0.08588398,-1.419012,1.237015,-1.838438,0.3529476,1.359163,0.4587862,-0.6096711,-0.01669272,9.549072,11.59203,0.08435932,-0.08913749,-0.05512862,-0.06792606,-3.260082,-1.162825,0.4548761,1.473565,0.3427401,-0.04281574,-0.08184008,-0.1390997,-1.368042,0.05524341,0.0384659,0.5457019,1.474674,0.1679361,-0.00442572,1.370044,0.4889351,274.7361,242.4891,32.13579,True
2,0.8888899,0.2847547,-0.1084199,0.1378859,-1.419457,1.240932,-1.845172,0.3532026,1.35815,0.4590416,-0.6093376,0.02975724,9.734747,11.48489,0.03123945,0.04412381,-0.1428529,-0.07415146,-3.289336,-1.132348,0.4547041,1.472989,0.3430662,-0.02485092,-0.02427934,-0.1497917,-1.370032,0.05680962,0.03775084,0.5459208,1.474458,0.1679552,-0.00416503,1.366657,0.4870867,274.9591,245.2135,29.34766,True
2,0.900001,0.3947445,-0.1119432,0.2164382,-1.420096,1.246561,-1.85422,0.3532442,1.356565,0.4590931,-0.6102048,-0.08030763,9.920423,11.35633,-0.003518537,0.09757261,-0.2373175,-0.0794666,-3.341124,-1.079477,0.4544864,1.472532,0.3433485,-0.04479182,0.0246201,-0.1143374,-1.370132,0.05848714,0.03862622,0.5462309,1.474298,0.1680491,-0.003848525,1.362461,0.4845533,275.2441,248.8062,25.89205,True
2,0.9111122,0.487541,-0.07825537,0.2969938,-1.422108,1.252455,-1.863763,0.353199,1.354369,0.4584155,-0.6092902,0.08357225,10.07958,11.2492,-0.08215725,0.1531205,-0.3688389,-0.08666672,-3.411792,-1.005452,0.4541838,1.472067,0.3437383,-0.05191617,0.04157472,-0.07800821,-1.369702,0.05955041,0.03923422,0.5464742,1.474095,0.1680799,-0.00395667,1.357693,0.4817279,275.8471,251.7296,22.37,True
2,0.9222233,0.5674134,-0.01374799,0.3711066,-1.42616,1.258389,-1.873336,0.3533058,1.352271,0.4578826,-0.6101451,-0.07979074,10.13263,11.16349,-0.1478979,0.2171489,-0.4726946,-0.09505568,-3.462108,-0.9515293,0.4537806,1.471698,0.3439925,-0.08875108,0.06166305,-0.02861007,-1.368428,0.06068145,0.04128619,0.5468662,1.473901,0.1680853,-0.00440804,1.352631,0.4790674,276.6516,254.6154,18.50626,True
2,0.9333345,0.6515512,0.04542954,0.4398758,-1.430715,1.264569,-1.884271,0.3532615,1.349943,0.4569421,-0.6096258,0.04747998,10.15915,11.12063,-0.1862262,0.2265743,-0.4618145,-0.1001966,-3.483235,-0.927171,0.4531723,1.471233,0.3441794,-0.1405794,0.08389767,0.01241975,-1.366768,0.06235152,0.04432832,0.5470421,1.473785,0.168144,-0.004869964,1.347305,0.4767112,277.2558,257.0996,15.33111,True
2,0.9444456,0.694221,0.05850287,0.4716751,-1.433718,1.270371,-1.894055,0.3532321,1.347891,0.4562557,-0.6085424,0.09777694,10.2122,11.09921,-0.2469378,0.2795159,-0.4251109,-0.1059091,-3.482797,-0.9230476,0.4525223,1.470576,0.3442864,-0.1635796,0.1018716,0.05955194,-1.364644,0.06383038,0.04648415,0.5472138,1.473625,0.1683292,-0.005116162,1.341646,0.4745358,277.7009,260.4271,11.71897,True
2,0.9555568,0.7636796,0.02371229,0.4960905,-1.434931,1.27672,-1.905834,0.3527893,1.345818,0.4553599,-0.6087954,-0.02468812,10.26525,11.14206,-0.2832027,0.3432049,-0.3916966,-0.1126411,-3.472949,-0.9284784,0.4518721,1.469977,0.3444953,-0.1526473,0.1209843,0.09038684,-1.362532,0.06573161,0.04744608,0.5473573,1.473617,0.1684971,-0.005119764,1.335721,0.4724182,278.2233,264.6438,7.397303,True
2,0.9666679,0.8087561,-0.0441971,0.5153866,-1.434716,1.28356,-1.917155,0.3520138,1.343861,0.4548037,-0.606863,0.1763805,10.34483,11.20634,-0.360168,0.3792545,-0.4188946,-0.1202955,-3.483394,-0.9118049,0.45078,1.46922,0.344909,-0.1237321,0.1561129,0.1093642,-1.360788,0.06841981,0.04730413,0.5474434,1.473643,0.1688359,-0.004978717,1.329573,0.4702171,278.8295,268.2538,3.732538,True
2,0.977779,0.8217682,-0.07812206,0.5463639,-1.435279,1.290956,-1.927565,0.3512342,1.341827,0.453949,-0.6077552,-0.08366667,10.5305,11.29205,-0.4022172,0.401751,-0.5017047,-0.1295196,-3.50993,-0.8797768,0.4499164,1.468742,0.3452036,-0.1000762,0.1859013,0.1347753,-1.358327,0.07143157,0.04698882,0.5475365,1.47368,0.1691,-0.004915138,1.323345,0.4679266,279.604,270.4919,1.355963,True
2,0.9888902,0.8122275,-0.05561247,0.587864,-1.438608,1.298176,-1.937192,0.3504116,1.339862,0.4531574,-0.606586,0.1072405,10.71618,11.37776,-0.4612476,0.4092667,-0.5812845,-0.139213,-3.538703,-0.8441459,0.4486889,1.468488,0.3456316,-0.08371843,0.2284224,0.1783944,-1.354778,0.07518716,0.04670119,0.547498,1.473804,0.1695065,-0.005121035,1.317085,0.4655351,280.3273,271.3632,0.2835386,True
2,1.000001,0.8198531,-0.06608365,0.6294256,-1.440695,1.306374,-1.947486,0.3496283,1.3381,0.4522846,-0.604782,0.1634894,10.90185,11.46347,-0.4863314,0.3652998,-0.5163167,-0.1434155,-3.543892,-0.8329896,0.4473756,1.468184,0.345974,-0.0900225,0.2720647,0.1913397,-1.351992,0.07969909,0.04694407,0.5474939,1.473896,0.1699197,-0.005668226,1.3108,0.4630457,281.043,271.8662,359.5095,True
2,1.011112,0.839336,-0.1159098,0.6604535,-1.441831,1.315118,-1.958812,0.3486668,1.336613,0.4515865,-0.6033605,0.1281714,11.00796,11.54917,-0.5030168,0.3724622,-0.4416357,-0.1483317,-3.536669,-0.8340762,0.4461261,1.467762,0.3461537,-0.1177209,0.362575,0.199275,-1.349236,0.08671878,0.04780667,0.5472898,1.473939,0.1705134,-0.006381004,1.304577,0.4603468,281.8295,272.9489,358.1565,True
2,1.022224,0.8503019,-0.1978876,0.6521993,-1.440395,1.323364,-1.970044,0.3474802,1.335007,0.4506867,-0.6034297,-0.007613198,11.00796,11.63488,-0.5157235,0.4021329,-0.4063234,-0.1549539,-3.530217,-0.8342201,0.4448583,1.4672,0.3463571,-0.1103078,0.3966675,0.1982101,-1.346904,0.09208092,0.04766872,0.5473285,1.474055,0.1709807,-0.007126917,1.298607,0.4573607,282.6972,274.4967,356.3143,True
2,1.033335,0.8398069,-0.2416259,0.6470646,-1.439253,1.33164,-1.980271,0.3463541,1.333455,0.4498298,-0.604113,-0.06241671,10.95491,11.74202,-0.5316502,0.4222445,-0.3827404,-0.1613886,-3.523111,-0.8346661,0.443468,1.466723,0.3465457,-0.06250982,0.4425386,0.1872055,-1.344862,0.0987865,0.04526735,0.5472261,1.474241,0.1715477,-0.007756157,1.292998,0.4539879,283.5171,275.304,355.1654,True
2,1.044446,0.7845838,-0.2769712,0.6558871,-1.438367,1.340473,-1.988456,0.3447109,1.331941,0.449043,-0.603802,0.02879218,10.92838,11.89201,-0.5593432,0.4444725,-0.3676097,-0.1681429,-3.515938,-0.8345186,0.4417608,1.466231,0.3467093,0.001253217,0.4820323,0.1739038,-1.343075,0.1054684,0.04160523,0.5470065,1.474466,0.1720963,-0.008344749,1.287734,0.4502649,284.1438,275.17,354.8436,True
2,1.055557,0.7548046,-0.2878107,0.6602626,-1.437409,1.349189,-1.997018,0.3430894,1.330572,0.4475191,-0.6024299,0.125052,10.90185,12.10628,-0.592438,0.4507824,-0.3770072,-0.1750789,-3.514665,-0.8279185,0.4399841,1.465832,0.3468874,0.01297191,0.5193198,0.1770738,-1.340731,0.1126532,0.03937963,0.546743,1.474656,0.1726232,-0.008981911,1.282666,0.4463237,284.5865,274.3397,355.0931,True
2,1.066668,0.7303795,-0.2963981,0.6689051,-1.437481,1.358082,-2.005775,0.3415039,1.328768,0.4467514,-0.6000043,0.2204985,10.90185,12.3634,-0.6245291,0.4571344,-0.399193,-0.1825735,-3.516092,-0.8185329,0.4380806,1.46558,0.3471222,-0.01571095,0.5309926,0.1869579,-1.338068,0.1189388,0.03933489,0.5464865,1.474776,0.173131,-0.009750387,1.277722,0.4423364,285.0311,273.655,355.1208,True
2,1.077779,0.6985414,-0.3167188,0.6818621,-1.436987,1.367383,-2.013679,0.3397898,1.327352,0.4459789,-0.60017,-0.01693503,11.00796,12.68481,-0.6455957,0.4399151,-0.3650562,-0.1878833,-3.511686,-0.814931,0.4361379,1.46531,0.3472812,-0.08901748,0.5404721,0.2089864,-1.334686,0.1253577,0.04147341,0.5460171,1.474949,0.173666,-0.01087443,1.27297,0.4383878,285.6084,273.4089,354.8479,True
2,1.08889,0.676305,-0.3434776,0.6884162,-1.435435,1.377141,-2.021822,0.3379746,1.32536,0.4442666,-0.6004832,-0.02819455,11.19363,13.00621,-0.6197389,0.4440756,-0.3065862,-0.1925018,-3.498396,-0.8220451,0.4341199,1.464936,0.347384,-0.134602,0.5606177,0.2339728,-1.330931,0.132273,0.04281431,0.5454614,1.475186,0.1742592,-0.01211242,1.268462,0.4343642,286.1558,273.1232,354.718,True
2,1.100002,0.6721064,-0.3583984,0.6906123,-1.434788,1.386141,-2.030422,0.3363266,1.323938,0.4433036,-0.5997013,0.07172342,11.43236,13.32762,-0.6058376,0.4164571,-0.3152717,-0.1979336,-3.499613,-0.8146125,0.4320352,1.464612,0.3474207,-0.1608626,0.5893191,0.2737032,-1.326343,0.1405611,0.04309314,0.5450889,1.475574,0.1748836,-0.01332718,1.264132,0.4303169,286.5698,272.7838,354.4958,True
2,1.111113,0.6752467,-0.3541954,0.6746206,-1.434524,1.394292,-2.039266,0.3344526,1.322601,0.4425998,-0.5999095,-0.01953124,11.69761,13.6276,-0.6261631,0.4058083,-0.3397048,-0.2040546,-3.502685,-0.804003,0.429938,1.464277,0.3474362,-0.1777383,0.6084361,0.2930849,-1.322106,0.1479809,0.04382897,0.544576,1.475853,0.1755118,-0.01450727,1.259948,0.4262573,286.9243,272.4281,354.3767,True
2,1.122224,0.6804932,-0.3617643,0.6384103,-1.433443,1.401537,-2.048142,0.3326529,1.321362,0.4416854,-0.6006142,-0.06403727,11.85676,13.86329,-0.6655385,0.4173455,-0.3234847,-0.209905,-3.495939,-0.8016788,0.4275733,1.464113,0.3473473,-0.1862539,0.6403868,0.2964368,-1.318429,0.1563559,0.04413923,0.5437617,1.476026,0.176244,-0.0155914,1.255787,0.4220532,287.2111,271.9227,354.5088,True
2,1.133335,0.6815116,-0.3864459,0.5894985,-1.431192,1.408533,-2.056922,0.3308544,1.320075,0.4410899,-0.6010967,-0.04366242,11.93634,13.99186,-0.6749436,0.4246407,-0.2839902,-0.2147088,-3.485192,-0.8043676,0.42522,1.463925,0.3471508,-0.1692448,0.6851426,0.2963779,-1.31473,0.1657742,0.0430761,0.5430927,1.476319,0.1769753,-0.01659674,1.251637,0.4178218,287.6165,271.3881,354.4229,True
2,1.144446,0.686876,-0.4163523,0.5618947,-1.428774,1.416034,-2.06586,0.3289996,1.318803,0.4404056,-0.6012906,-0.01741292,11.90981,14.01328,-0.6735495,0.4297478,-0.215799,-0.2183387,-3.470096,-0.811731,0.4227187,1.463648,0.3469028,-0.1575158,0.7415977,0.3027829,-1.310762,0.1760412,0.0418601,0.5424573,1.476503,0.177556,-0.01766201,1.247489,0.4138061,288.086,270.8832,354.183,True
2,1.155557,0.6955174,-0.479321,0.5205489,-1.424217,1.423387,-2.074911,0.3271087,1.317665,0.439944,-0.6012102,0.007546841,11.77719,13.949,-0.6734756,0.4796675,-0.1687698,-0.2236171,-3.449743,-0.8242127,0.4200348,1.463367,0.346637,-0.1609936,0.8002353,0.2773888,-1.308138,0.1868639,0.040875,0.5416311,1.476809,0.1782219,-0.01872268,1.24332,0.4101926,288.5524,270.2066,354.1649,True
2,1.166668,0.7169496,-0.5411688,0.480231,-1.419221,1.430933,-2.084729,0.3249332,1.316525,0.4395714,-0.6012416,-0.002946918,11.59151,13.79901,-0.6692545,0.52222,-0.1484161,-0.2295597,-3.432056,-0.8343061,0.4174111,1.463048,0.3464918,-0.1749536,0.8364486,0.2690873,-1.305015,0.1971882,0.0406425,0.5407559,1.477067,0.1789541,-0.01974132,1.239087,0.4071264,288.9952,269.4249,354.3754,True
2,1.17778,0.742686,-0.6082971,0.4484325,-1.413469,1.43889,-2.095106,0.322799,1.315433,0.4392252,-0.6013184,-0.007081326,11.37931,13.60617,-0.6695564,0.5766273,-0.1716809,-0.2375534,-3.417147,-0.8414388,0.4145725,1.462614,0.3461938,-0.203885,0.8865158,0.2545793,-1.302111,0.2088457,0.04072879,0.5396992,1.477402,0.1796222,-0.02069217,1.234755,0.4045883,289.4464,268.7179,354.7242,True
2,1.188891,0.7522324,-0.6264626,0.4196925,-1.408895,1.445513,-2.104599,0.3210783,1.314558,0.4391937,-0.6019772,-0.06012837,11.14058,13.41333,-0.6644167,0.5969567,-0.1950794,-0.2449325,-3.406657,-0.8444503,0.4117185,1.462329,0.3459527,-0.2006137,0.9120353,0.2652676,-1.298314,0.219653,0.0399839,0.5384932,1.477701,0.1803958,-0.02163016,1.230284,0.4025362,289.9453,267.8259,355.3762,True
2,1.200002,0.7852153,-0.6445999,0.3738489,-1.403828,1.451902,-2.115787,0.3187119,1.313204,0.438875,-0.60239,-0.03733393,10.87533,13.22048,-0.648366,0.5693333,-0.2005818,-0.2505726,-3.399816,-0.844494,0.4085696,1.461955,0.3456006,-0.1821289,0.9151515,0.3045114,-1.293269,0.2300413,0.03848534,0.5374289,1.478064,0.1810777,-0.02262363,1.225635,0.4008891,290.4713,266.9402,356.1159,True
2,1.211113,0.823446,-0.6584975,0.3183837,-1.398055,1.457396,-2.127246,0.3166963,1.311996,0.4386027,-0.6015841,0.07387092,10.61008,13.02764,-0.6504381,0.5650401,-0.1931384,-0.2563676,-3.389356,-0.8473864,0.4054599,1.46158,0.3454325,-0.1753756,0.9182602,0.3428014,-1.2878,0.2404519,0.03728452,0.5363605,1.478523,0.1817904,-0.02348612,1.220791,0.3995137,291.07,266.1565,356.7701,True
2,1.222224,0.858481,-0.662793,0.2703454,-1.392589,1.462774,-2.139026,0.314359,1.310752,0.438287,-0.6030425,-0.1341699,10.34483,12.89908,-0.650458,0.5852536,-0.1845581,-0.2629291,-3.37603,-0.8530424,0.4022281,1.461247,0.3451035,-0.1846095,0.946924,0.3823788,-1.281664,0.2522614,0.03632152,0.5349208,1.478953,0.1825271,-0.02420568,1.215835,0.3983815,291.7654,265.6156,357.1738,True
2,1.233335,0.890278,-0.6393127,0.2488438,-1.388481,1.4679,-2.150826,0.3124307,1.309502,0.4378922,-0.6033897,-0.03066885,10.15915,12.81337,-0.6508152,0.6375651,-0.2206075,-0.2719578,-3.364569,-0.8569927,0.399011,1.460945,0.3447349,-0.2045076,0.9926807,0.4209951,-1.275499,0.2657467,0.03534414,0.533836,1.479641,0.1832862,-0.02504591,1.210695,0.3974464,292.3682,265.0266,357.6947,True
2,1.244446,0.9040161,-0.6136714,0.242392,-1.385001,1.473378,-2.162158,0.3104523,1.308284,0.4374495,-0.6034356,-0.004212494,10.05305,12.77051,-0.644597,0.6270685,-0.2622232,-0.2797299,-3.361118,-0.8534939,0.3958717,1.460594,0.3443434,-0.2118272,1.043814,0.4403424,-1.269713,0.2798374,0.03386769,0.5324716,1.480052,0.1839571,-0.02584421,1.205329,0.3966753,292.9916,264.3925,358.251,True
2,1.255558,0.9304484,-0.5923749,0.2218837,-1.380894,1.477188,-2.173587,0.3089441,1.307431,0.4368567,-0.6031826,0.02288068,10.02653,12.77051,-0.6467601,0.5792511,-0.3017645,-0.2860895,-3.362779,-0.8447992,0.3926047,1.460218,0.3437831,-0.1873528,1.067279,0.4401499,-1.264608,0.2928231,0.03133502,0.5309011,1.480645,0.1846676,-0.02662237,1.199732,0.3960311,293.6951,263.9451,358.6484,True
2,1.266669,0.9537376,-0.5860234,0.189761,-1.375967,1.480979,-2.185364,0.3068993,1.306347,0.4364049,-0.6023484,0.07583864,10.05305,12.79194,-0.6381264,0.5632828,-0.2922695,-0.2921562,-3.356481,-0.8442013,0.3891026,1.459805,0.3431275,-0.1586365,1.066274,0.4334687,-1.259825,0.3050692,0.02839462,0.5292277,1.481117,0.1854703,-0.02713927,1.193989,0.3954061,294.4893,263.8123,358.7956,True
2,1.27778,0.9684582,-0.5765608,0.1406832,-1.370927,1.484733,-2.197384,0.3047005,1.305126,0.4359717,-0.602447,-0.009750831,10.13263,12.8348,-0.6380497,0.5579123,-0.2805699,-0.2984658,-3.349583,-0.843702,0.3854675,1.459343,0.3423774,-0.1266061,1.055636,0.4405952,-1.254358,0.3170135,0.02505475,0.5274427,1.481697,0.1861377,-0.02741012,1.188933,0.3949216,295.066,264.1012,358.6755,True
2,1.288891,0.9705023,-0.5734555,0.1129922,-1.366212,1.489084,-2.209369,0.3020042,1.30312,0.4358811,-0.6026233,-0.01607029,10.26525,12.87765,-0.6647507,0.6003834,-0.2653767,-0.3061442,-3.337689,-0.8467379,0.3817271,1.458835,0.3415489,-0.1242647,1.058797,0.4618841,-1.248172,0.3295932,0.02246084,0.5254788,1.482052,0.1868401,-0.02762276,1.184054,0.394482,295.7027,263.3797,359.5349,True
2,1.300002,0.9746959,-0.5906329,0.07256971,-1.360129,1.493151,-2.221172,0.2995995,1.301518,0.4357812,-0.6026744,-0.004706341,10.45093,12.96336,-0.692596,0.6907419,-0.2340503,-0.3152693,-3.318643,-0.8561626,0.3779418,1.458252,0.3407063,-0.1549711,1.089614,0.4835614,-1.241673,0.3433735,0.02075614,0.5234452,1.482632,0.1875145,-0.02793279,1.178983,0.3939556,296.4664,262.9619,359.7994,True
2,1.311113,0.9864033,-0.610932,0.04384488,-1.353818,1.497429,-2.233553,0.2974224,1.300189,0.4356191,-0.6023101,0.03321556,10.66313,13.09192,-0.7067122,0.7737657,-0.2294576,-0.325426,-3.301283,-0.8642767,0.374058,1.45759,0.3399534,-0.1707231,1.121496,0.5093683,-1.234806,0.3576127,0.01855371,0.5212749,1.483126,0.1881797,-0.0286451,1.173614,0.3934544,297.0557,262.4328,0.1422516,True
2,1.322224,1.008716,-0.6151974,0.01929171,-1.348065,1.501552,-2.246556,0.295183,1.298816,0.4354475,-0.6019559,0.03191853,10.8488,13.24191,-0.7026489,0.8057972,-0.2474918,-0.3353303,-3.289304,-0.8678813,0.3702132,1.456943,0.3391595,-0.1555967,1.13104,0.5316226,-1.227911,0.3712339,0.01519839,0.519223,1.483745,0.1888618,-0.02978043,1.167897,0.393093,297.553,261.9061,0.4843636,True
2,1.333336,1.029938,-0.6152112,-0.007408559,-1.342114,1.505271,-2.259699,0.293064,1.297477,0.4352362,-0.6022915,-0.03096368,11.03448,13.43475,-0.6899884,0.7963473,-0.2784761,-0.3444538,-3.282507,-0.8670195,0.3661414,1.456195,0.3383143,-0.1073239,1.125664,0.5663249,-1.22018,0.3843145,0.01017381,0.5169119,1.48435,0.1894925,-0.03076616,1.161893,0.392862,298.2769,261.3618,0.8363005,True
2,1.344447,1.036233,-0.6099461,-0.02981001,-1.336386,1.508901,-2.272288,0.2909572,1.2961,0.4349883,-0.6027958,-0.04598668,11.19363,13.67045,-0.6921392,0.7867894,-0.2902248,-0.3533114,-3.274908,-0.866322,0.3621762,1.455481,0.3375077,-0.07517898,1.111793,0.5841159,-1.212837,0.3970378,0.005372928,0.5146679,1.485005,0.1901598,-0.03128074,1.155715,0.392758,299.217,260.9365,1.103566,True
2,1.355558,1.053185,-0.6153382,-0.06606391,-1.329737,1.511988,-2.285378,0.2889076,1.294723,0.4348474,-0.6028464,-0.004387391,11.35279,13.949,-0.6987954,0.7964985,-0.3359612,-0.363514,-3.269356,-0.8635337,0.3580884,1.454738,0.336704,-0.05867785,1.093548,0.6351119,-1.20381,0.4092036,0.0009965549,0.5120325,1.48554,0.1907432,-0.03138157,1.14941,0.3927889,300.23,260.6628,1.278803,True
2,1.366669,1.061636,-0.6474355,-0.107596,-1.321406,1.514608,-2.297683,0.287393,1.294084,0.4349446,-0.6020907,0.06898353,11.51194,14.24898,-0.7021947,0.8189593,-0.3646267,-0.3743094,-3.261868,-0.8626703,0.3541268,1.45402,0.3357859,-0.07231909,1.096697,0.6554822,-1.195843,0.422696,-0.00262854,0.5096861,1.48602,0.1913564,-0.03120265,1.143067,0.3929919,301.2419,260.4258,1.475721,True
2,1.37778,1.059504,-0.6495862,-0.1107779,-1.315094,1.518614,-2.31038,0.2855003,1.292824,0.4347789,-0.6024379,-0.03252762,11.64456,14.54896,-0.7152374,0.8690284,-0.3814474,-0.3860428,-3.251941,-0.8635127,0.3503901,1.45313,0.3349113,-0.08093601,1.104156,0.6449704,-1.188897,0.4362354,-0.006530071,0.5072197,1.486574,0.1919341,-0.03094621,1.136763,0.3933837,302.2507,260.2029,1.695292,True
2,1.388891,1.045741,-0.6559659,-0.09152438,-1.309352,1.523798,-2.322824,0.2833707,1.291401,0.4346666,-0.6016513,0.07221385,11.80371,14.82751,-0.7014188,0.8914211,-0.3739896,-0.3966384,-3.241382,-0.8660224,0.3467081,1.452219,0.3340797,-0.06197524,1.092483,0.6224231,-1.182763,0.448907,-0.01126038,0.5046813,1.48708,0.1925569,-0.03056648,1.130617,0.3940314,303.2638,259.8364,1.982368,True
2,1.400002,1.046876,-0.6537557,-0.07129562,-1.304111,1.528975,-2.336077,0.2811832,1.290136,0.434454,-0.6014866,0.01437986,11.93634,15.06321,-0.6651014,0.8393855,-0.3881829,-0.4055275,-3.237925,-0.8629265,0.3432862,1.451278,0.3333216,-0.01739144,1.041421,0.6005971,-1.176851,0.459747,-0.01679682,0.502165,1.487577,0.1930666,-0.02993524,1.124833,0.3950441,304.3057,259.4222,2.32431,True
2,1.411114,1.018155,-0.6377676,-0.03823802,-1.299888,1.534275,-2.347775,0.2793039,1.28886,0.4341218,-0.6008475,0.05817284,12.06897,15.25605,-0.6094548,0.7480083,-0.4026045,-0.4127127,-3.238611,-0.8573871,0.3399058,1.450367,0.3324981,0.01980442,0.9913845,0.5894909,-1.170796,0.469715,-0.02209092,0.499662,1.488,0.1934564,-0.03002314,1.120243,0.3957871,304.2847,260.7059,1.027633,True
2,1.422225,0.9668964,-0.6091602,-0.02643144,-1.295901,1.538452,-2.357574,0.2773274,1.287315,0.4342384,-0.6015372,-0.06355838,12.22811,15.42747,-0.5667138,0.6896026,-0.41579,-0.4204268,-3.238679,-0.8523556,0.3365077,1.449539,0.3317966,0.06996882,0.9221568,0.5920596,-1.164248,0.478396,-0.02820208,0.4971106,1.488402,0.1938686,-0.02991375,1.118842,0.3961873,304.1033,261.2611,0.4044402,True
2,1.433336,0.9316822,-0.5826133,-0.01256895,-1.292177,1.542822,-2.36795,0.2754369,1.285953,0.4338858,-0.6000177,0.1395784,12.38727,15.53461,-0.5174947,0.6226748,-0.4205168,-0.4271167,-3.239776,-0.8473449,0.3331592,1.448607,0.3310392,0.09887928,0.8699253,0.6044514,-1.157321,0.4870209,-0.03364744,0.4945599,1.488714,0.1941111,-0.029623,1.118158,0.396166,303.8199,260.9886,0.5844218,True
2,1.444447,0.8730203,-0.5444043,0.01411521,-1.28945,1.547237,-2.376892,0.2733289,1.284759,0.4333546,-0.5983446,0.1517421,12.49337,15.59888,-0.4873784,0.5726304,-0.3963156,-0.4331168,-3.238174,-0.8442197,0.3298897,1.447655,0.3303998,0.09563076,0.8432876,0.5959041,-1.151354,0.4963815,-0.03835724,0.4920963,1.489045,0.1943755,-0.02926864,1.117644,0.3959726,303.5138,260.3408,1.130334,True
2,1.455558,0.8378748,-0.5295483,0.0354768,-1.286563,1.552091,-2.386306,0.2714407,1.283425,0.4329698,-0.5989412,-0.05545584,12.54642,15.59888,-0.4510766,0.5652642,-0.3858752,-0.4402413,-3.235695,-0.8426574,0.3268382,1.446662,0.3296731,0.09028322,0.8241093,0.5937864,-1.1452,0.5059198,-0.04301777,0.4896745,1.489343,0.1946406,-0.02905998,1.11715,0.3959206,303.3062,259.8699,1.448361,True
2,1.466669,0.7899514,-0.513667,0.06006941,-1.283988,1.557117,-2.394905,0.2693939,1.282279,0.4323392,-0.597877,0.09810936,12.54642,15.53461,-0.4384118,0.5877069,-0.3954506,-0.4487869,-3.232572,-0.8410676,0.3237517,1.445649,0.3289471,0.08618754,0.773975,0.6086424,-1.138147,0.5137412,-0.04706498,0.4871625,1.489703,0.19486,-0.02893484,1.116652,0.3959692,303.145,259.89,1.380197,True
2,1.47778,0.7429989,-0.4999442,0.08138824,-1.28123,1.561027,-2.401937,0.2679358,1.282162,0.4331031,-0.5984197,-0.05032679,12.46684,15.47032,-0.4405761,0.6089822,-0.3879139,-0.4570075,-3.228125,-0.8401117,0.3207382,1.444722,0.3281879,0.1138576,0.7196868,0.6018512,-1.131986,0.5211063,-0.05227093,0.4846942,1.490045,0.1949804,-0.02893423,1.116183,0.3959727,303.0891,260.0609,1.23257,True
2,1.488891,0.6929921,-0.4915038,0.1113438,-1.279414,1.566579,-2.409516,0.2661361,1.281045,0.4325404,-0.5979707,0.0418308,12.38727,15.38461,-0.4362531,0.6302277,-0.3633615,-0.4647951,-3.221797,-0.8411586,0.3178782,1.443718,0.3274255,0.1563047,0.654745,0.5810881,-1.126304,0.5270569,-0.05786916,0.4821849,1.49032,0.1951501,-0.02891314,1.115729,0.3958603,303.0356,260.0013,1.315676,True
2,1.500003,0.6663997,-0.4840827,0.1284424,-1.277469,-4.711243,-2.417822,0.2639187,1.279851,0.4321516,-0.5970429,0.08469434,12.30769,15.27748,-0.4202011,0.6153523,-0.3592325,-0.4719974,-3.218942,-0.83959,0.3151937,1.442786,0.3266735,0.1721898,0.6143035,0.5669995,-1.120742,0.5336159,-0.06318829,0.4797047,1.490639,0.1952527,-0.0290842,1.115352,0.3955618,302.8507,259.8274,1.358274,True
2,1.511114,0.6163658,-0.4703239,0.1562484,-1.2763,-4.705688,-2.424548,0.2621462,1.278802,0.4314284,-0.5974604,-0.03847962,12.20159,15.17034,-0.399835,0.5908957,-0.3519549,-0.4786606,-3.216718,-0.8378251,0.3125428,1.441938,0.3260317,0.1773959,0.5759462,0.5541053,-1.115217,0.5395042,-0.06779316,0.4773503,1.490802,0.1952651,-0.02917133,1.115087,0.3955474,302.9009,259.3001,1.6515,True
2,1.522225,0.5950995,-0.462876,0.1776011,-1.275038,-4.699931,-2.432265,0.2600499,1.277497,0.4307687,-0.5987021,-0.1128533,12.12201,15.04178,-0.3805418,0.5738857,-0.340388,-0.4853323,-3.213674,-0.8369399,0.309916,1.441112,0.3252943,0.1720762,0.5525005,0.5519811,-1.109441,0.5459513,-0.07242626,0.4749522,1.491042,0.1952379,-0.02930552,1.114746,0.3954733,302.9698,259.438,1.558387,True
2,1.533336,0.5642653,-0.4500857,0.2117417,-1.274713,-4.693909,-2.439241,0.2582504,1.276438,0.4299808,-0.5975574,0.1058816,12.09549,14.93465,-0.3643795,0.5366355,-0.3320666,-0.4911636,-3.212279,-0.8347388,0.3074266,1.4404,0.3245707,0.1741521,0.5119805,0.5455252,-1.103543,0.5510754,-0.07670863,0.4726678,1.491192,0.1951447,-0.02942228,1.114353,0.3952282,303.046,259.3791,1.716025,True
2,1.544447,0.5322332,-0.432014,0.2383277,-1.274212,-4.689249,-2.444733,0.2568295,1.276272,0.4308097,-0.5986919,-0.1045276,12.06897,14.84894,-0.3577298,0.5014145,-0.3045149,-0.4960867,-3.209987,-0.8329694,0.3050559,1.439667,0.3237555,0.1655134,0.4566003,0.5294748,-1.09853,0.5548692,-0.07995262,0.4704798,1.491322,0.1949122,-0.02950877,1.113991,0.3947416,303.1393,259.0497,2.226892,True
2,1.555558,0.5108975,-0.4096612,0.2553594,-1.274405,-4.68389,-2.451265,0.2550985,1.275256,0.4300241,-0.5983505,0.03245359,12.06897,14.78466,-0.354336,0.4906629,-0.2715386,-0.5011206,-3.205661,-0.8328967,0.3025848,1.438884,0.3229144,0.1590436,0.4192872,0.5166939,-1.093247,0.5588935,-0.08356494,0.4682252,1.491456,0.1947701,-0.02957896,1.113641,0.3941031,303.2499,258.4115,3.046335,True
2,1.566669,0.4681971,-0.3682105,0.2745306,-1.275515,-4.679154,-2.45664,0.2529776,1.274053,0.4294505,-0.5975494,0.07309324,12.01592,14.7418,-0.3369255,0.4820161,-0.2087914,-0.5052608,-3.198688,-0.8359513,0.3004509,1.438065,0.3221714,0.140803,0.3713102,0.5018426,-1.088322,0.5614547,-0.08561929,0.4660808,1.491503,0.1944475,-0.0296169,1.113374,0.3934877,303.359,257.5549,3.997112,True
2,1.577781,0.4426249,-0.3586843,0.287368,-1.275834,-4.673634,-2.462357,0.2509892,1.272738,0.4284699,-0.5986674,-0.1025224,11.96286,14.72038,-0.3346781,0.4904578,-0.1800066,-0.5102984,-3.192404,-0.8377775,0.298148,1.437321,0.3213491,0.1299843,0.3457797,0.4805788,-1.083881,0.5652516,-0.08861428,0.4639493,1.491572,0.1941485,-0.02974579,1.113202,0.393206,303.5016,257.0529,4.480793,True
2,1.588892,0.3978377,-0.338576,0.2970253,-1.27671,-4.668739,-2.466697,0.2492466,1.271728,0.4276147,-0.5981742,0.04629104,11.83024,14.72038,-0.3122202,0.4840626,-0.1652502,-0.5149467,-3.187869,-0.8389551,0.2957929,1.436668,0.3205938,0.1329278,0.3415306,0.457122,-1.079829,0.5692455,-0.09196454,0.4618975,1.491574,0.1938109,-0.02996106,1.112944,0.3929104,303.6679,257.1912,4.547393,True
2,1.600003,0.3700887,-0.3291113,0.2949476,-1.276918,-4.663892,-2.471275,0.2474144,1.270581,0.4262266,-0.5985423,-0.03394338,11.72414,14.67752,-0.307929,0.4606683,-0.1738608,-0.5196013,-3.185422,-0.8378153,0.2936641,1.435965,0.3197653,0.1488402,0.3341033,0.4473583,-1.075619,0.5735371,-0.0962786,0.4598704,1.4917,0.1934307,-0.03028623,1.112635,0.3924267,303.948,257.1488,4.844367,True
2,1.611114,0.3370268,-0.321789,0.2918304,-1.277319,-4.659205,-2.475144,0.2456905,1.269711,0.425308,-0.5977449,0.07353267,11.61804,14.61324,-0.3089656,0.4564451,-0.1770455,-0.5247471,-3.181654,-0.8378507,0.2915014,1.435114,0.3189735,0.1552007,0.3127931,0.4440524,-1.071,0.577007,-0.09976841,0.4578518,1.491629,0.1928039,-0.03055228,1.112368,0.3916498,304.2451,256.6347,5.657712,True
2,1.622225,0.3157481,-0.3303983,0.2919345,-1.277322,-4.6538,-2.479557,0.2439309,1.268856,0.4240873,-0.5982642,-0.04792431,11.56498,14.48468,-0.3088516,0.436178,-0.1675171,-0.5288761,-3.178217,-0.837394,0.2894474,1.434411,0.3181422,0.1444418,0.2915174,0.4302234,-1.067171,0.5802107,-0.1025509,0.4559662,1.491609,0.192414,-0.0312363,1.112168,0.3903034,304.2033,256.106,6.347599,True
2,1.633336,0.3040447,-0.3325647,0.2941103,-1.277628,-4.648585,-2.484028,0.2422518,1.268103,0.4231868,-0.5980378,0.02145288,11.56498,14.29184,-0.3129915,0.4286731,-0.1525832,-0.5328926,-3.173776,-0.8378198,0.287526,1.43373,0.3173535,0.09861034,0.2488288,0.4262874,-1.062705,0.5817033,-0.1027285,0.4541851,1.491496,0.1920583,-0.03155729,1.111927,0.389023,304.6969,254.5195,8.132032,True
2,1.644447,0.291204,-0.3336575,0.2972615,-1.277605,-4.64456,-2.487243,0.2409665,1.268453,0.4244583,-0.5986807,-0.05878249,11.56498,14.01328,-0.2958889,0.4446688,-0.1334148,-0.5376491,-3.167294,-0.8407986,0.2854472,1.433207,0.3165369,0.06341076,0.2286109,0.4212056,-1.058691,0.5846139,-0.103467,0.4523836,1.492023,0.1914225,-0.03193734,1.111849,0.3878472,305.2112,253.6197,9.449222,True
2,1.655559,0.2741792,-0.3390467,0.2973356,-1.277802,-4.639205,-2.491234,0.2393752,1.267812,0.4236364,-0.599166,-0.04359013,11.53846,13.67045,-0.2670212,0.4138687,-0.1325957,-0.5413546,-3.164605,-0.8410817,0.2834779,1.432654,0.3156939,0.06339151,0.2275517,0.4190721,-1.054397,0.5880016,-0.1058274,0.4505312,1.492097,0.1909266,-0.03222667,1.111751,0.3868511,305.6012,253.08,10.4482,True
2,1.66667,0.2497108,-0.347658,0.2995883,-1.278021,-4.633571,-2.49475,0.2374922,1.266987,0.4227183,-0.5985636,0.0555919,11.48541,13.22048,-0.2551824,0.3851267,-0.1274237,-0.544584,-3.162176,-0.8407773,0.2814947,1.432124,0.3148685,0.08247012,0.228732,0.4050337,-1.050847,0.5922558,-0.1097326,0.4487412,1.491579,0.1902337,-0.03299866,1.111709,0.3856368,305.6087,252.0288,11.39298,True
2,1.677781,0.2337561,-0.3562466,0.2975399,-1.278041,-4.627976,-2.498394,0.2357585,1.266361,0.4219294,-0.5991479,-0.05374929,11.40584,12.70623,-0.2528647,0.3595009,-0.1072781,-0.5472934,-3.15878,-0.8409091,0.2795367,1.431622,0.3140154,0.0833326,0.22559,0.382651,-1.047588,0.5954117,-0.1123439,0.4472156,1.49149,0.189697,-0.03328835,1.1116,0.3853664,305.9317,251.429,11.84445,True
2,1.688892,0.2188844,-0.3957582,0.288102,-1.27652,-4.621889,-2.501408,0.2341763,1.266678,0.422332,-0.5989236,0.02122468,11.24668,12.19199,-0.252815,0.3509474,-0.1009077,-0.550509,-3.155446,-0.8407831,0.2776418,1.431147,0.3131728,0.06724054,0.21718,0.3678296,-1.044616,0.5992696,-0.1144597,0.4458602,1.491699,0.1894071,-0.0336568,1.111512,0.3850563,306.2053,251.7199,11.79435,True
2,1.700003,0.2146456,-0.4043077,0.2849514,-1.276183,-4.615974,-2.505501,0.2321491,1.265876,0.4214661,-0.5992693,-0.03167509,11.06101,11.74202,-0.2443179,0.3435495,-0.1105635,-0.5542113,-3.153059,-0.8403493,0.2756462,1.430636,0.3123035,0.04484692,0.2098011,0.3637233,-1.041329,0.6031538,-0.1161463,0.4443621,1.491766,0.1891565,-0.03402269,1.111362,0.3844218,306.5479,251.7235,12.16544,True
2,1.711114,0.1965323,-0.404377,0.2839446,-1.276011,-4.6102,-2.508742,0.2304232,1.265412,0.4207182,-0.5987787,0.0453207,10.90185,11.3349,-0.2763206,0.3764108,-0.09537176,-0.5585128,-3.147265,-0.8410643,0.27367,1.430143,0.3114505,0.02895546,0.2023084,0.3723779,-1.037104,0.6061156,-0.1174901,0.4427541,1.491783,0.1887481,-0.03437683,1.111285,0.3836387,306.9792,251.214,12.95333,True
2,1.722225,0.1869208,-0.3969608,0.2828798,-1.276077,-4.604891,-2.512144,0.2284333,1.26457,0.4192498,-0.6000634,-0.1176777,10.76923,11.03493,-0.3019378,0.4071681,-0.08234936,-0.5629022,-3.140899,-0.8421546,0.2717375,1.429857,0.3105984,0.01506326,0.2023129,0.3693208,-1.033346,0.6094084,-0.1189069,0.4407376,1.491806,0.1886539,-0.03489088,1.111354,0.3831345,307.4917,250.9227,13.37119,True
2,1.733337,0.1826364,-0.3905983,0.2828746,-1.276055,-4.599272,-2.515758,0.2265268,1.263898,0.4177423,-0.5995729,0.04597607,10.74271,10.79923,-0.305023,0.3985834,-0.06638153,-0.5661582,-3.135913,-0.8428361,0.2698809,1.429467,0.309763,-0.009490788,0.2055027,0.3642363,-1.029788,0.6127185,-0.1196561,0.4391742,1.491796,0.1883254,-0.03538272,1.111522,0.382359,306.8868,251.441,13.0147,True
2,1.744448,0.1815631,-0.3874024,0.2839319,-1.276194,-4.59377,-2.519343,0.2248574,1.263447,0.416955,-0.5999473,-0.03463472,10.79576,10.71352,-0.2974396,0.3889399,-0.04407676,-0.5688587,-3.130776,-0.8440365,0.2680551,1.42908,0.3089678,-0.02552098,0.202332,0.3590522,-1.026267,0.6160309,-0.1205118,0.4375384,1.492001,0.1879888,-0.03542577,1.111177,0.3818808,306.9817,251.2546,13.41911,True
2,1.755559,0.1750894,-0.3832248,0.2721761,-1.275461,-4.58899,-2.522237,0.2233127,1.263425,0.416734,-0.600252,-0.0274441,10.98143,10.73495,-0.2930534,0.3761187,-0.02816126,-0.5715879,-3.125845,-0.8450626,0.2663063,1.428706,0.3081458,-0.03090143,0.2066029,0.353788,-1.022863,0.6193853,-0.1216979,0.4360848,1.491997,0.1877012,-0.03550448,1.110957,0.3811841,307.1256,251.3008,13.85341,True
2,1.76667,0.1750588,-0.3843284,0.261527,-1.275021,-4.583755,-2.525725,0.2217207,1.263049,0.4160142,-0.6003867,-0.01200063,11.24668,10.86351,-0.2950508,0.374955,-0.00151813,-0.5741488,-3.119689,-0.8467894,0.2646051,1.428365,0.3073628,-0.02258533,0.2205447,0.3356206,-1.020221,0.623695,-0.1237257,0.4347602,1.491881,0.1873565,-0.03555382,1.110767,0.3802885,307.3259,250.9523,14.73441,True
2,1.777781,0.1601848,-0.3982571,0.2573698,-1.27435,-4.577744,-2.528876,0.2198432,1.262346,0.4145787,-0.6000086,0.03469792,11.56498,11.09921,-0.291765,0.3674566,0.01335089,-0.5766985,-3.114185,-0.8481324,0.2629016,1.428043,0.3065655,-0.02413562,0.228137,0.2866558,-1.018963,0.6273475,-0.125196,0.4334494,1.491842,0.1870637,-0.03592222,1.110416,0.3793142,308.1286,248.9218,16.74782,True
2,1.788892,0.1463839,-0.4175047,0.2510919,-1.27344,-4.571646,-2.531878,0.2182587,1.262016,0.4138815,-0.6005183,-0.04683179,11.90981,11.35633,-0.2767037,0.3248917,0.01420004,-0.5782298,-3.111193,-0.8480772,0.2613327,1.427716,0.305829,-0.03837788,0.2271817,0.2462892,-1.01801,0.630556,-0.1258088,0.4321108,1.49186,0.1867347,-0.03618518,1.110664,0.3784049,308.669,248.3419,17.76414,True
2,1.800003,0.1378667,-0.422881,0.2490227,-1.27283,-4.56565,-2.534905,0.2164153,1.261264,0.4122577,-0.6001028,0.03844377,12.20159,11.61346,-0.269174,0.2972199,0.011945,-0.5799353,-3.108333,-0.8476767,0.2595865,1.427415,0.3050826,-0.04603557,0.2208647,0.2260966,-1.016405,0.6337935,-0.1265659,0.4306992,1.491837,0.1863632,-0.03696436,1.110949,0.3770752,308.6331,247.4428,18.83456,True
2,1.811115,0.1303908,-0.4325166,0.2469104,-1.271638,-4.560008,-2.537397,0.2148786,1.260961,0.4114144,-0.5999734,0.01156963,12.36074,11.89201,-0.2616403,0.2759358,0.0129022,-0.5815492,-3.105234,-0.8475814,0.2580784,1.427186,0.3044465,-0.05162507,0.2092151,0.1973556,-1.015494,0.6362224,-0.1270613,0.429473,1.491858,0.1860511,-0.0374732,1.11093,0.3761268,309.2922,247.4014,19.37593,True
2,1.822226,0.1314707,-0.4357049,0.2479836,-1.271161,-4.554044,-2.540678,0.2134226,1.260649,0.4107547,-0.6001338,-0.01462028,12.46684,12.19199,-0.2616674,0.2663791,0.002219692,-0.5837803,-3.102237,-0.8470895,0.2564957,1.426876,0.3038228,-0.05804987,0.1932462,0.1931196,-1.013593,0.6384735,-0.1273289,0.4281699,1.491911,0.1857603,-0.03784081,1.111001,0.3752049,309.839,247.1218,20.15034,True
2,1.833337,0.1336048,-0.4356936,0.2490419,-1.270745,-4.548151,-2.543991,0.2119658,1.260326,0.4100924,-0.5998376,0.02728202,12.44032,12.42768,-0.2638051,0.2685025,0.002237657,-0.5860717,-3.098529,-0.8471649,0.2549718,1.426592,0.303143,-0.07075441,0.1847002,0.2017321,-1.011345,0.6410534,-0.127367,0.4269506,1.491812,0.1856091,-0.03814202,1.111094,0.3742359,310.3883,246.672,21.11481,True
2,1.844448,0.1313804,-0.4090786,0.2542877,-1.270973,-4.542901,-2.546905,0.2104484,1.259523,0.4081242,-0.600603,-0.07013576,12.33422,12.66338,-0.2563655,0.278109,0.005430834,-0.5885911,-3.093989,-0.8482666,0.2535239,1.426258,0.302494,-0.07193315,0.1933061,0.1931881,-1.010356,0.6449713,-0.1281524,0.4259917,1.492034,0.1853046,-0.03897153,1.11119,0.3732122,310.4022,245.7877,22.15668,True
2,1.855559,0.1312676,-0.3920683,0.2520562,-1.270512,-4.53818,-2.549404,0.2090411,1.259048,0.4067955,-0.6008107,-0.01833103,12.12201,12.8348,-0.2456997,0.2791998,0.008575078,-0.5908266,-3.089962,-0.8492362,0.2520972,1.426001,0.301857,-0.07311303,0.1975951,0.1814909,-1.009043,0.6479818,-0.1288973,0.4248349,1.492034,0.1850212,-0.03921125,1.111034,0.3725698,310.8306,245.4002,22.81098,True
2,1.86667,0.1205092,-0.3686955,0.2445503,-1.270742,-4.53391,-2.551631,0.2078362,1.258751,0.4061325,-0.600651,0.014726,11.80371,13.00621,-0.219057,0.2654361,0.000923492,-0.59258,-3.087788,-0.8496845,0.2507786,1.425902,0.3007023,-0.06576872,0.2072767,0.173928,-1.008398,0.6521109,-0.1300352,0.4240305,1.491984,0.1846566,-0.03944931,1.111066,0.3719853,311.1038,245.6006,23.06645,True
2,1.877781,0.1130148,-0.3762575,0.2286349,-1.269812,-4.528512,-2.554199,0.2064364,1.258137,0.4045475,-0.6004166,0.02128411,11.43236,13.13477,-0.2030295,0.2335703,-0.01096985,-0.5940037,-3.086614,-0.8489302,0.2495505,1.425672,0.3000686,-0.06048283,0.2072915,0.1696166,-1.006976,0.6550809,-0.1311375,0.4229977,1.491994,0.1843917,-0.03880317,1.111007,0.3708955,310.3457,246.1901,23.61588,True
2,1.888893,0.1140877,-0.3954938,0.21059,-1.268501,-4.523138,-2.557095,0.2052164,1.257936,0.4038794,-0.6003234,0.008430414,11.06101,13.24191,-0.198706,0.2059112,-0.01747462,-0.5953379,-3.085468,-0.8478546,0.2482965,1.425598,0.2993324,-0.05011299,0.2020948,0.141762,-1.007168,0.658202,-0.1322097,0.4221397,1.491905,0.1841536,-0.0385281,1.110847,0.3699937,309.8462,247.2946,23.70232,True
2,1.900004,0.1183617,-0.4136605,0.1989368,-1.266992,-4.517137,-2.560358,0.203741,1.257197,0.4016879,-0.6003974,-0.006794129,10.79576,13.32762,-0.1975916,0.1888731,-0.0185987,-0.5966381,-3.083917,-0.8469305,0.2470548,1.425398,0.2986772,-0.04075365,0.194739,0.1192398,-1.007388,0.6609999,-0.1332196,0.4209184,1.491931,0.1839201,-0.03895619,1.110343,0.369167,311.2211,244.6406,26.17898,True
2,1.911115,0.1311839,-0.4349607,0.1883188,-1.26539,-4.511328,-2.563988,0.2025676,1.25712,0.4010365,-0.6008033,-0.03693304,10.6366,13.37047,-0.1985774,0.1686227,-0.01652812,-0.5975696,-3.082696,-0.8457435,0.245848,1.42529,0.2979417,-0.04612775,0.1873617,0.1085971,-1.007163,0.6641715,-0.1345879,0.4201672,1.49161,0.1833355,-0.04047084,1.110003,0.3681024,312.3156,242.9363,27.95664,True
2,1.922226,0.1419237,-0.461614,0.1841404,-1.263589,-4.504345,-2.568273,0.2011167,1.256638,0.3988774,-0.6010488,-0.0221438,10.58355,13.41333,-0.2038132,0.1812988,0.01017366,-0.5986972,-3.078403,-0.84682,0.2446632,1.425165,0.297231,-0.05355999,0.165059,0.1096174,-1.006887,0.6666391,-0.1347831,0.419257,1.491606,0.1829429,-0.04043245,1.110132,0.3664297,311.9807,244.0948,28.36385,True
2,1.933337,0.14729,-0.4722448,0.1852268,-1.262326,-4.498212,-2.571949,0.1999413,1.256576,0.398195,-0.601476,-0.03888432,10.66313,13.45618,-0.2070221,0.2131916,0.0284041,-0.6007021,-3.072963,-0.8489289,0.2435298,1.425075,0.2964747,-0.07055134,0.1607693,0.1151016,-1.00562,0.6687501,-0.1345594,0.4184851,1.491564,0.1826406,-0.04066928,1.109709,0.3658333,312.5433,243.3418,29.45199,True
2,1.944448,0.1398328,-0.4829949,0.1746518,-1.260409,-4.491808,-2.575255,0.1986378,1.256067,0.3960402,-0.6017594,-0.0256525,10.82228,13.45618,-0.2007207,0.2430266,0.03166034,-0.6031809,-3.068321,-0.8506869,0.2423956,1.425022,0.2957401,-0.08108858,0.1618069,0.1269401,-1.003876,0.6714312,-0.1349456,0.4173002,1.491696,0.1825752,-0.04116527,1.10995,0.3647647,312.555,241.7977,31.63731,True
2,1.955559,0.1281091,-0.4894571,0.1661902,-1.25867,-4.485818,-2.578124,0.1975304,1.256117,0.3953867,-0.6013519,0.03740212,11.03448,13.45618,-0.2028631,0.2610984,0.04131716,-0.6053514,-3.063117,-0.8526182,0.2412747,1.424981,0.2950609,-0.08737868,0.1585905,0.140804,-1.002535,0.6738114,-0.134585,0.4166107,1.491693,0.1822565,-0.04203065,1.108657,0.3629421,315.3659,238.3567,35.01751,True
2,1.966671,0.114243,-0.4948928,0.1556159,-1.256723,-4.479587,-2.580952,0.1962059,1.255717,0.3934715,-0.6008017,0.04990989,11.24668,13.43475,-0.2039503,0.2547135,0.03491008,-0.6071043,-3.060061,-0.8526699,0.24031,1.425096,0.2945368,-0.09264146,0.1554295,0.1440365,-1.001248,0.6767122,-0.1351996,0.4159409,1.491676,0.1819596,-0.04490976,1.105725,0.3598464,320.3464,233.8734,39.72687,True
2,1.977782,0.1035158,-0.4896676,0.1407201,-1.254736,-4.474141,-2.583419,0.1951456,1.255634,0.3920412,-0.6004432,0.03242185,11.43236,13.41333,-0.2081565,0.2365908,0.03381668,-0.6083214,-3.057218,-0.8525226,0.239439,1.425149,0.2939069,-0.09794449,0.1373121,0.1461779,-0.9997336,0.678081,-0.1345269,0.4151728,1.491683,0.1816545,-0.04680877,1.107312,0.358715,316.5542,236.3111,38.61804,True
2,1.988893,0.08639795,-0.481253,0.1268953,-1.252839,-4.469004,-2.585418,0.194214,1.255852,0.3913617,-0.6003426,0.008984924,11.53846,13.37047,-0.2058718,0.2279842,0.05933296,-0.6090207,-3.052875,-0.8537381,0.2386861,1.425414,0.2934961,-0.09686456,0.1267029,0.1440221,-0.9983637,0.6801943,-0.134855,0.4145372,1.491634,0.1812372,-0.05164333,1.104649,0.3536237,319.4287,233.4338,42.6698,True
2,2.000004,0.06713757,-0.4718005,0.112021,-1.25083,-4.463831,-2.587206,0.1930739,1.255529,0.389394,-0.6002855,0.005248589,11.59151,13.34904,-0.1876652,0.2088526,0.06556332,-0.6097563,-3.049757,-0.8548012,0.2379249,1.425501,0.2929103,-0.09051064,0.1117917,0.1396696,-0.9970577,0.6811188,-0.1344992,0.4139568,1.491739,0.1808772,-0.05213915,1.104505,0.350457,321.2673,226.6414,48.43154,True
2,2.011115,0.05750518,-0.4686756,0.1013873,-1.248797,-4.458807,-2.589119,0.1921614,1.255727,0.3887336,-0.5999947,0.02662636,11.61804,13.37047,-0.167229,0.189663,0.09096023,-0.6096029,-3.045675,-0.857006,0.2373364,1.425732,0.2923813,-0.08851208,0.08949199,0.1214773,-0.9967072,0.6820139,-0.1342603,0.4135033,1.492,0.1805561,-0.05566575,1.099778,0.3477581,321.8401,226.0847,49.85863,True
2,2.022226,0.0478365,-0.4623395,0.09816034,-1.246625,-4.453931,-2.590539,0.1914683,1.256204,0.3883009,-0.599851,0.01297707,11.61804,13.43475,-0.1318942,0.1726657,0.1152127,-0.6094383,-3.041382,-0.8601813,0.2367504,1.425935,0.2918835,-0.09389654,0.06500216,0.1129608,-0.9957203,0.6820967,-0.1331224,0.4131182,1.492265,0.1803224,-0.05781702,1.097685,0.3445787,326.5541,224.8644,51.12682,True
2,2.033337,0.02973323,-0.4517415,0.107786,-1.245433,-4.448379,-2.592281,0.1903444,1.256102,0.3867188,-0.6001295,-0.02545036,11.61804,13.54189,-0.09666237,0.1419167,0.109598,-0.609351,-3.039529,-0.8617518,0.2362681,1.42611,0.2915261,-0.1025555,0.03520195,0.09805334,-0.9952563,0.6815698,-0.1311303,0.4128169,1.492365,0.1799188,-0.0608883,1.096719,0.3419981,326.3706,225.1468,51.77441,True
2,2.044448,0.005173698,-0.4369369,0.1014097,-1.243718,-4.444082,-2.593091,0.1894923,1.255123,0.3829348,-0.5998328,0.0274628,11.67109,13.67045,-0.06359561,0.1069226,0.09439687,-0.6090404,-3.038877,-0.8626857,0.2358772,1.426433,0.291163,-0.1069722,0.008629367,0.07780748,-0.9950752,0.6810827,-0.1296925,0.4125872,1.492387,0.1793315,-0.06150687,1.098043,0.3411938,327.7953,224.2574,52.69995,True
2,2.055559,-0.01837789,-0.4157439,0.09394503,-1.242216,-4.440016,-2.593312,0.1887981,1.255493,0.3822491,-0.6000246,-0.017684,11.75066,13.82044,-0.0508243,0.07189931,0.06865004,-0.6089845,-3.039191,-0.8622066,0.2355431,1.42662,0.2908728,-0.1101416,-0.01693232,0.07885334,-0.9940786,0.6802599,-0.1278541,0.4123925,1.492489,0.1789093,-0.06038789,1.096781,0.342311,329.8922,224.7843,53.11641,True
2,2.06667,-0.03335172,-0.4030296,0.0886202,-1.240784,-4.43592,-2.593768,0.188182,1.255818,0.3815811,-0.5996496,0.03448654,11.80371,13.99186,-0.04120004,0.0432068,0.05678615,-0.6084961,-3.039469,-0.8618032,0.2352096,1.42695,0.2904477,-0.1122255,-0.04357628,0.08095171,-0.9929447,0.6787099,-0.125751,0.412178,1.492651,0.1785669,-0.06146098,1.095954,0.3423451,330.8698,224.3501,54.58592,True
2,2.077781,-0.04943291,-0.378597,0.08540861,-1.239921,-4.432056,-2.593875,0.1876016,1.256187,0.3813148,-0.5992544,0.03598857,11.85676,14.12042,-0.03575065,0.03357602,0.07484174,-0.6075017,-3.037327,-0.8632677,0.2350803,1.427288,0.2901306,-0.1176837,-0.07978047,0.06389253,-0.9925415,0.6761211,-0.1228948,0.4119505,1.492608,0.1781621,-0.06216094,1.094995,0.3407536,331.9974,224.7499,55.37301,True
2,2.088892,-0.06129802,-0.3477927,0.0714861,-1.23872,-4.429349,-2.593682,0.1871832,1.256578,0.3807178,-0.5996246,-0.033985,11.83024,14.22755,-0.01110175,0.02932049,0.1002692,-0.6064129,-3.034364,-0.8664472,0.2349754,1.427663,0.2897115,-0.1231214,-0.09357958,0.05007996,-0.9923748,0.6748324,-0.1207903,0.4118909,1.492579,0.1775546,-0.06330668,1.093971,0.3406357,333.7577,223.9182,57.18658,True
2,2.100003,-0.07098398,-0.3265791,0.06081437,-1.237516,-4.425954,-2.593822,0.1865169,1.257015,0.3801019,-0.5995787,0.004639009,11.77719,14.29184,0.007104725,0.02401153,0.1150739,-0.6053754,-3.031844,-0.8692467,0.2349081,1.427931,0.2893872,-0.1230992,-0.1223492,0.04897765,-0.9913063,0.6720449,-0.1180603,0.4118153,1.492637,0.1771073,-0.06400824,1.093465,0.3400035,334.4481,224.4294,57.18528,True
2,2.111114,-0.08394655,-0.2947044,0.03841005,-1.23689,-4.424212,-2.592813,0.186206,1.257749,0.3807673,-0.5998073,-0.02086046,11.69761,14.39897,0.03066711,0.00487946,0.1266091,-0.6037333,-3.030155,-0.8718097,0.2348853,1.42829,0.289078,-0.1180032,-0.1319051,0.02335765,-0.9914672,0.6696461,-0.1157583,0.41175,1.492727,0.1767201,-0.06506813,1.093113,0.3409095,335.4928,223.8933,58.20835,True
2,2.122225,-0.1022245,-0.2756738,0.01600371,-1.234749,-4.422424,-2.591353,0.1859392,1.258333,0.3802774,-0.6000879,-0.02534904,11.61804,14.48468,0.03713409,-0.02703683,0.1200842,-0.6019804,-3.03032,-0.872226,0.2349422,1.428648,0.2887957,-0.1211184,-0.1276716,0.03298822,-0.9905154,0.6681327,-0.1133583,0.4117954,1.492863,0.1762714,-0.06567192,1.093105,0.3407076,335.6441,224.5449,57.84155,True
2,2.133336,-0.1150617,-0.2779154,-0.003123008,-1.232532,-4.419982,-2.590466,0.1855784,1.258832,0.3798933,-0.5996427,0.04099207,11.53846,14.59181,0.02865086,-0.04410197,0.1147469,-0.6004459,-3.030156,-0.8724766,0.2350315,1.428991,0.2885206,-0.128619,-0.114907,0.02882769,-0.9900972,0.6668936,-0.111139,0.4119134,1.492831,0.1758561,-0.06599133,1.0933,0.3405018,336.0363,224.6437,57.7002,True
2,2.144447,-0.1108849,-0.2662517,-0.01701067,-1.230707,-4.417491,-2.59023,0.1850937,1.259244,0.3795381,-0.5992853,0.03239986,11.48541,14.7418,0.0361107,-0.04939062,0.1114969,-0.5992187,-3.029362,-0.873801,0.2350619,1.429391,0.2881567,-0.1351274,-0.1095686,0.01825355,-0.9901478,0.6655661,-0.1086202,0.4119617,1.492954,0.1753016,-0.06622158,1.09358,0.3405057,336.1963,224.7662,57.42923,True
2,2.155558,-0.1023432,-0.2715599,-0.01807229,-1.228973,-4.414549,-2.590438,0.1847882,1.259732,0.3791146,-0.5997913,-0.04634037,11.45889,14.89179,0.03409671,-0.04734333,0.1360198,-0.5973769,-3.026724,-0.8762788,0.2351606,1.429856,0.287787,-0.155434,-0.118107,0.009920634,-0.9899029,0.6634548,-0.1052148,0.4121484,1.492911,0.1749296,-0.06648968,1.093851,0.3404608,336.3149,224.9721,57.15605,True
2,2.166669,-0.08747299,-0.2715611,-0.03196834,-1.226715,-4.412307,-2.590735,0.1846124,1.260324,0.3787556,-0.6006206,-0.07529195,11.45889,15.02035,0.02560113,-0.03144449,0.1520921,-0.5961183,-3.023528,-0.8789007,0.2352149,1.430283,0.2874231,-0.158695,-0.1180134,0.001456097,-0.9902315,0.6631703,-0.1035647,0.412352,1.492569,0.1741512,-0.06678063,1.094012,0.3403108,336.5634,225.1307,56.97625,True
2,2.17778,-0.07156281,-0.2566369,-0.038448,-1.224965,-4.410117,-2.591202,0.1843316,1.260988,0.3783417,-0.6010574,-0.03930637,11.48541,15.14892,0.02348512,-0.01338552,0.1660054,-0.5950663,-3.019942,-0.8821407,0.2353872,1.430749,0.2870574,-0.1599808,-0.1297028,-0.02304398,-0.9908765,0.6606922,-0.1005807,0.4125676,1.492569,0.1737566,-0.06706409,1.094062,0.3400681,336.8799,225.2556,56.89416,True
2,2.188891,-0.06313744,-0.2342652,-0.04601278,-1.22334,-4.408839,-2.591217,0.1842813,1.261513,0.3780215,-0.6014121,-0.03216233,11.48541,15.2132,0.0395583,-0.007018294,0.1893748,-0.5933102,-3.01607,-0.8862497,0.2355333,1.431214,0.2868085,-0.1559221,-0.136085,-0.04759827,-0.9918086,0.6584986,-0.0977737,0.4127232,1.492698,0.17349,-0.06726655,1.094069,0.3397973,337.1809,225.3168,56.9132,True
2,2.200002,-0.057878,-0.2183196,-0.05458134,-1.221787,-4.407087,-2.591405,0.1840485,1.261945,0.3776646,-0.6015868,-0.01573319,11.51194,15.23462,0.05982401,-0.008024231,0.193529,-0.5918162,-3.013048,-0.8900968,0.2357045,1.431633,0.2864907,-0.1454022,-0.1328437,-0.05835541,-0.9927902,0.6564779,-0.09551693,0.4130546,1.492782,0.1731179,-0.06806472,1.093801,0.3407268,337.6799,224.9197,57.87191,True
2,2.211113,-0.05693657,-0.1949342,-0.06958371,-1.220005,-4.406592,-2.591001,0.184003,1.26241,0.3773739,-0.601395,0.01757041,11.48541,15.2132,0.07364094,-0.03240764,0.1710089,-0.5902033,-3.012878,-0.8915179,0.2358751,1.432022,0.2862408,-0.1284589,-0.1147208,-0.06807864,-0.993618,0.6552955,-0.09404181,0.4133402,1.49295,0.1728611,-0.06844387,1.093783,0.3407184,337.7089,225.3339,57.60608,True
2,2.222224,-0.04957667,-0.1821842,-0.0898287,-1.218609,-4.405516,-2.590896,0.1839662,1.263693,0.3790271,-0.6013279,0.005923605,11.45889,15.14892,0.06611927,-0.03770814,0.1550526,-0.5890156,-3.011969,-0.892669,0.2360026,1.432393,0.2859864,-0.1242665,-0.1029951,-0.07342035,-0.9944307,0.6541988,-0.09211262,0.4136079,1.49303,0.1725245,-0.06858089,1.093904,0.3406453,337.8543,225.3817,57.5247,True
2,2.233335,-0.04426143,-0.1800655,-0.09302822,-1.216777,-4.403992,-2.591113,0.1838548,1.264276,0.378876,-0.6011223,0.01871664,11.40584,15.04178,0.05974773,-0.03242723,0.1625593,-0.5875935,-3.009269,-0.8953441,0.2361706,1.432692,0.2857468,-0.1443854,-0.1072932,-0.06150778,-0.9945372,0.6526423,-0.08907635,0.4138826,1.49293,0.1722138,-0.06868442,1.093969,0.3405515,337.9919,225.4123,57.48479,True
2,2.244446,-0.03041287,-0.178951,-0.09201046,-1.214944,-4.402768,-2.591647,0.1838306,1.264685,0.3787837,-0.601174,-0.004901167,11.35279,14.93465,0.07024044,-0.02165642,0.1380476,-0.5870981,-3.007835,-0.8977516,0.23642,1.432857,0.2854264,-0.1762965,-0.1052192,-0.05586118,-0.9947503,0.6508583,-0.08505497,0.4142102,1.492985,0.1718531,-0.06869462,1.094147,0.3406844,338.0796,225.3129,57.34113,True
2,2.255557,-0.02515549,-0.1629739,-0.09741209,-1.21319,-4.402258,-2.59172,0.1839221,1.265017,0.3787012,-0.6013242,-0.01367483,11.29973,14.87037,0.08176743,0.0008271113,0.1156892,-0.5873149,-3.006121,-0.9004558,0.236639,1.43308,0.2851939,-0.1592068,-0.07647246,-0.04958102,-0.9950619,0.6506051,-0.0837905,0.4145198,1.492916,0.1715069,-0.06865241,1.094584,0.341226,337.8147,225.2983,56.87164,True
2,2.266668,-0.02523242,-0.1427477,-0.09961119,-1.211696,-4.401938,-2.591457,0.1841311,1.265454,0.3785374,-0.6017104,-0.03521878,11.29973,14.80608,0.08700668,-0.008665904,0.09219483,-0.5868206,-3.006148,-0.901558,0.2368128,1.433417,0.2849357,-0.1368446,-0.06048335,-0.04869851,-0.9954789,0.6502408,-0.08273749,0.4147822,1.492934,0.1710424,-0.06870269,1.094978,0.3415758,337.5077,225.4681,56.46264,True
2,2.277779,-0.01573506,-0.1086445,-0.09547783,-1.210918,-4.401675,-2.59171,0.1843269,1.265857,0.3783014,-0.6014706,0.02213718,11.27321,14.78466,0.08598118,-0.02783071,0.08681711,-0.585489,-3.006151,-0.9024952,0.237031,1.433829,0.284662,-0.1037971,-0.05834954,-0.04688837,-0.9958965,0.6491413,-0.08210419,0.4151479,1.492853,0.1706998,-0.06868748,1.095176,0.3417003,337.3931,225.4932,56.33422,True
2,2.28889,0.003388839,-0.07869882,-0.08073389,-1.210612,-4.40202,-2.592237,0.1846924,1.266086,0.3781419,-0.6011149,0.03229474,11.29973,14.7418,0.07871362,-0.03647269,0.1177241,-0.5835252,-3.003448,-0.9053965,0.2372366,1.434114,0.2843099,-0.1036684,-0.07435383,-0.0352026,-0.9958199,0.6474259,-0.08001867,0.4154311,1.492877,0.1702058,-0.06861386,1.095201,0.3417158,337.3892,225.4116,56.37267,True
2,2.300001,0.02038231,-0.06053753,-0.07446361,-1.209712,-4.401851,-2.592933,0.1849808,1.266532,0.3778586,-0.6015719,-0.04207209,11.35279,14.7418,0.06917367,-0.0333403,0.1295057,-0.5822837,-3.000936,-0.9079129,0.2374372,1.434456,0.2840114,-0.130151,-0.09038962,-0.02112044,-0.9953357,0.6454476,-0.07654857,0.4157116,1.492814,0.1698461,-0.06853642,1.095194,0.3416972,337.3991,225.3317,56.4451,True
2,2.311112,0.04484115,-0.04019003,-0.06715795,-1.20946,-4.402393,-2.594084,0.1853985,1.266719,0.3777239,-0.6020448,-0.04292666,11.40584,14.78466,0.06915216,-0.02056681,0.133809,-0.5814634,-2.998317,-0.9108682,0.2376955,1.434698,0.2837455,-0.1535075,-0.07765732,-0.01128311,-0.9951525,0.6447791,-0.07368967,0.4160209,1.492929,0.1695077,-0.06845899,1.095227,0.3416721,337.3615,225.2924,56.52043,True
2,2.322223,0.05759797,-0.03269602,-0.06510511,-1.20853,-4.402534,-2.594947,0.1857698,1.266914,0.3775227,-0.6019682,0.007307812,11.45889,14.84894,0.07741845,0.008326523,0.1029644,-0.5822639,-2.996891,-0.9132262,0.237851,1.434835,0.2834918,-0.1628441,-0.07026056,0.01545376,-0.9940797,0.6441635,-0.07117804,0.4162937,1.492943,0.1690886,-0.06832191,1.095284,0.3416863,337.2426,225.2422,56.61857,True
2,2.333334,0.06292798,-0.03481327,-0.06617934,-1.207636,-4.402534,-2.595822,0.1860975,1.267074,0.377398,-0.6025189,-0.05059849,11.45889,14.95607,0.06117555,0.03288173,0.06797158,-0.583317,-2.996126,-0.914003,0.2381182,1.434897,0.2833214,-0.1551883,-0.07137017,0.03562368,-0.9928941,0.6430613,-0.06917375,0.4165025,1.492946,0.1687837,-0.06814595,1.095331,0.3417365,337.1066,225.1534,56.72892,True
2,2.344445,0.06296847,-0.03269405,-0.05975855,-1.207181,-4.401602,-2.597113,0.1861345,1.267097,0.3772383,-0.6020012,0.04769545,11.43236,15.06321,0.04930447,0.03612421,0.04034445,-0.5840339,-2.996242,-0.9140475,0.2382977,1.435019,0.2831535,-0.1550307,-0.0863118,0.05050948,-0.9916845,0.641387,-0.0665476,0.4166816,1.492891,0.1685224,-0.06791665,1.095359,0.341837,336.9022,225.044,56.85126,True
2,2.355556,0.06298429,-0.02307537,-0.04805449,-1.207235,-4.401389,-2.59796,0.1863786,1.267138,0.3770957,-0.6017625,0.02125427,11.40584,15.12749,0.04501879,0.01911994,0.02433877,-0.5838054,-2.996825,-0.9139447,0.2384942,1.435085,0.2829342,-0.1388377,-0.07570911,0.07381321,-0.9900535,0.6405728,-0.06492707,0.4169085,1.492789,0.1683123,-0.0676761,1.095329,0.3419542,336.7128,224.9043,56.98169,True
2,2.366668,0.06295948,-0.0113415,-0.04383653,-1.207052,-4.401808,-2.598513,0.186679,1.267259,0.3770192,-0.6017264,0.003131564,11.43236,15.14892,0.05253675,0.01698921,0.0338848,-0.5835044,-2.99552,-0.9159538,0.2386961,1.435175,0.282701,-0.1217148,-0.05654222,0.08326599,-0.9888892,0.6405439,-0.06410282,0.4171233,1.492701,0.1679814,-0.06747892,1.095251,0.3420443,336.5801,224.7733,57.10167,True
2,2.377779,0.05657385,-0.008192275,-0.04593217,-1.206713,-4.401592,-2.599285,0.1868567,1.267388,0.3768911,-0.6014531,0.02486104,11.45889,15.12749,0.05364124,0.02334684,0.0466851,-0.5832994,-2.993556,-0.9181437,0.2389442,1.435269,0.2825363,-0.09099032,-0.03093156,0.06810502,-0.9885766,0.6409435,-0.06425995,0.4173261,1.492559,0.1677957,-0.06735317,1.095124,0.3420395,336.5349,224.6788,57.23679,True
2,2.38889,0.04052406,-0.001911689,-0.06188521,-1.205783,-4.402404,-2.598927,0.1871222,1.267522,0.3768315,-0.6012939,0.01431464,11.56498,15.04178,0.04828192,0.04780243,0.05638011,-0.5837873,-2.990669,-0.9209387,0.239277,1.435239,0.2823787,-0.07090975,-0.02342894,0.05193729,-0.9886267,0.6408641,-0.06410495,0.417551,1.492533,0.1676519,-0.06722953,1.095027,0.3419977,336.5013,224.5896,57.39391,True
2,2.400001,0.02342002,0.002213991,-0.07780963,-1.204704,-4.402867,-2.598487,0.1873621,1.267533,0.3765733,-0.6012304,0.005680938,11.75066,14.89179,0.06325608,0.03081233,0.05625277,-0.5833127,-2.989885,-0.9227992,0.2395701,1.435296,0.2823293,-0.06159145,-0.02231965,0.02415268,-0.9892152,0.6402451,-0.06337045,0.4178948,1.492482,0.1674919,-0.06709788,1.094991,0.3420063,336.4274,224.5077,57.51448,True
2,2.411112,0.0009761285,0.003123223,-0.1001149,-1.203121,-4.40397,-2.597343,0.1874552,1.267719,0.3765464,-0.6004576,0.0705846,11.90981,14.7418,0.07296207,-0.002181888,0.05716464,-0.5820168,-2.990112,-0.9237512,0.2398278,1.435337,0.2822659,-0.04796544,-0.03824529,-0.0005170722,-0.9900232,0.6389614,-0.06256352,0.4181883,1.492405,0.1673269,-0.06698585,1.094979,0.3420556,336.3455,224.439,57.58376,True
2,2.422223,-0.02564169,-0.006592372,-0.1063753,-1.201773,-4.404,-2.596193,0.1875456,1.267788,0.3763165,-0.6002136,0.02175945,12.04244,14.57039,0.07408796,-0.0309158,0.04854774,-0.5808259,-2.991119,-0.9238346,0.2400725,1.435461,0.2823558,-0.03748887,-0.05952039,-0.01982951,-0.9906352,0.637081,-0.06130863,0.4184989,1.49242,0.1672578,-0.06691325,1.094993,0.342147,336.2536,224.4061,57.57739,True
2,2.433334,-0.04479843,-0.01732772,-0.1116024,-1.200255,-4.404284,-2.59491,0.1875408,1.268076,0.3762913,-0.5998227,0.03570459,12.12201,14.44182,0.06882885,-0.06180389,0.04102033,-0.5792993,-2.992793,-0.9230213,0.2402858,1.435596,0.2823997,-0.04061252,-0.07125326,-0.01342883,-0.9905052,0.6356376,-0.05995415,0.4187521,1.492345,0.1671197,-0.06688808,1.095023,0.3422309,336.1987,224.3961,57.52916,True
2,2.444445,-0.07032335,-0.02696781,-0.1019281,-1.198868,-4.404314,-2.593086,0.187695,1.268609,0.3760691,-0.5995346,0.02618179,12.09549,14.35612,0.07101199,-0.1128585,0.01635508,-0.5771565,-2.996942,-0.9204503,0.2406212,1.435722,0.2824869,-0.04803197,-0.07234035,-0.009090044,-0.9902245,0.6345679,-0.05848781,0.4189973,1.492353,0.1669257,-0.06692915,1.09509,0.3423368,336.1736,224.4273,57.39621,True
2,2.455556,-0.1022273,-0.02382747,-0.08477412,-1.198632,-4.403977,-2.591151,0.1873323,1.268912,0.3758831,-0.5996342,-0.009206296,12.01592,14.35612,0.07198399,-0.1298012,-0.01353693,-0.576405,-3.000916,-0.9179959,0.2408895,1.435959,0.2827232,-0.05446869,-0.06595293,-0.01327324,-0.9904429,0.6338323,-0.05726435,0.4191619,1.492223,0.1668017,-0.06702018,1.095182,0.3423859,336.1907,224.4954,57.25121,True
2,2.466667,-0.1639963,-0.01117405,-0.06545414,-1.19874,-4.404246,-2.587132,0.1870763,1.269331,0.3756766,-0.5992022,0.03972807,11.93634,14.39897,0.1092224,-0.1094444,-0.009401795,-0.5759709,-3.001251,-0.9201765,0.2413011,1.436147,0.2829621,-0.04798321,-0.07981564,-0.004838441,-0.9901356,0.6321895,-0.05605688,0.4193468,1.492284,0.1666358,-0.06712531,1.095336,0.3424314,336.227,224.5655,57.08688,True
2,2.477778,-0.2418263,0.01416101,-0.05679277,-1.198738,-4.405353,-2.581298,0.1868523,1.269798,0.375448,-0.5991196,0.007368725,11.85676,14.50611,0.1316781,-0.1104857,0.006459936,-0.5745376,-3.001781,-0.921972,0.2416424,1.43632,0.2831368,-0.02324913,-0.1203221,0.01509236,-0.989065,0.628906,-0.05481771,0.4193689,1.492274,0.1664929,-0.06729192,1.095537,0.3424285,336.2991,224.6895,56.895,True
2,2.488889,-0.4027483,0.04029819,-0.0489327,-1.199331,-4.406818,-2.570575,0.1859747,1.27031,0.3750646,-0.5975345,0.145102,11.80371,14.65609,0.0976207,-0.09042025,0.02587688,-0.5736465,-3.000741,-0.9228146,0.2422026,1.436342,0.2832742,0.003458396,-0.149074,0.02010853,-0.98851,0.6257685,-0.05402489,0.4195586,1.492278,0.1663408,-0.06760922,1.095704,0.342306,336.5193,224.8947,56.67301,True
2,2.5,-0.4783425,0.02190939,-0.05607454,-1.198458,-4.406693,-2.56303,0.1850999,1.270621,0.3747478,-0.5962647,0.1151344,11.83024,14.78466,0.08167348,-0.08411522,0.03557047,-0.5726228,-3.000554,-0.9234146,0.2426937,1.436447,0.2834272,0.02379701,-0.1778415,0.02731601,-0.9877926,0.6221334,-0.05298785,0.4198188,1.492269,0.1661775,-0.06806659,1.095908,0.3420825,336.874,225.1722,56.40123,True
2,2.511111,-0.5773116,-0.0413872,-0.08855685,-1.195223,-4.405518,-2.553539,0.1836908,1.271436,0.3742814,-0.5920633,0.383774,11.88329,14.87037,0.0608674,-0.1472149,0.09087491,-0.5677998,-3.000516,-0.923417,0.2431063,1.436543,0.2835414,0.02283616,-0.1959753,0.03580958,-0.9870474,0.6188142,-0.05136705,0.4200663,1.492151,0.1660581,-0.06874311,1.096193,0.3417975,337.3834,225.5713,55.98251,True
2,2.522222,-0.6708671,-0.1324034,-0.1262717,-1.190461,-4.402733,-2.544329,0.1819012,1.272262,0.3733952,-0.5950791,-0.2783346,11.90981,14.93465,0.02605155,-0.1602985,0.1485333,-0.5639084,-2.997884,-0.9247923,0.243202,1.43673,0.2837324,0.01008186,-0.2066437,0.03804329,-0.9864455,0.6156687,-0.04930523,0.4202383,1.492089,0.1659157,-0.06988603,1.096566,0.3413397,338.2323,226.2248,55.29834,True
2,2.533333,-0.7282219,-0.2029711,-0.1450064,-1.185896,-4.399857,-2.535247,0.1801673,1.273295,0.372925,-0.5940069,0.1014267,11.90981,14.9775,0.02200389,-0.1604442,0.190101,-0.5603078,-2.994472,-0.9277697,0.2434146,1.436893,0.2838647,0.002614789,-0.2077208,0.03705204,-0.9859038,0.6127642,-0.0474807,0.4203852,1.491993,0.165837,-0.07118687,1.097069,0.3408311,339.1606,226.9402,54.53613,True
2,2.544444,-0.8322464,-0.3429921,-0.1739761,-1.178871,-4.393909,-2.524864,0.1777124,1.274778,0.3722074,-0.5943515,-0.03206974,11.80371,14.9775,0.02762955,-0.1691136,0.2422459,-0.5559056,-2.989992,-0.9322081,0.2436947,1.437029,0.283936,0.007945187,-0.1991962,0.0380774,-0.9853951,0.6104433,-0.04649107,0.4204095,1.491852,0.1658733,-0.07333472,1.097399,0.3411206,340.1954,227.6264,54.30867,True
2,2.555555,-0.8789571,-0.3996525,-0.1810661,-1.173689,-4.389738,-2.515393,0.1758065,1.275996,0.3715749,-0.5952958,-0.08538091,11.67109,14.9775,0.0149847,-0.1607426,0.2753617,-0.5522847,-2.98558,-0.9356665,0.2437812,1.437194,0.2840762,0.005684875,-0.1885283,0.02534011,-0.9853909,0.6082311,-0.04531742,0.4203831,1.491825,0.1659136,-0.07525932,1.097942,0.3406897,341.3387,228.7128,53.10732,True
2,2.566666,-0.9479961,-0.4670128,-0.1859263,-1.167483,-4.384576,-2.50452,0.1731584,1.27759,0.370868,-0.5937092,0.1463172,11.56498,14.95607,0.004561871,-0.1609203,0.320158,-0.5477952,-2.979616,-0.9404128,0.2437522,1.4374,0.2841752,0.01092821,-0.1533589,0.02002692,-0.9853643,0.6076171,-0.04525137,0.4202946,1.491791,0.1659412,-0.07708633,1.098559,0.3401433,342.6449,229.4796,52.07159,True
2,2.577777,-1.023493,-0.5334369,-0.2131204,-1.160364,-4.379634,-2.492825,0.1704436,1.279061,0.3698096,-0.5958642,-0.1978472,11.48541,14.95607,-0.03306332,-0.2199672,0.4234993,-0.5392534,-2.971926,-0.9453229,0.2435933,1.4376,0.2841637,0.02694285,-0.11075,0.02740991,-0.9847315,0.6077962,-0.04617895,0.4201795,1.491761,0.166115,-0.0797414,1.099067,0.3401584,343.7484,230.4436,51.56097,True
2,2.588888,-1.073461,-0.5912356,-0.2415114,-1.152351,-4.374689,-2.481375,0.1676708,1.280736,0.3690746,-0.5950546,0.07642572,11.45889,14.95607,-0.08173767,-0.2394731,0.4748237,-0.5326445,-2.964798,-0.9489083,0.2434424,1.437795,0.2842143,0.04175736,-0.08089356,0.0198625,-0.9848087,0.6079055,-0.0471811,0.4200422,1.491807,0.1662581,-0.08199292,1.099813,0.3397161,345.0637,231.5085,50.29353,True
2,2.599999,-1.143402,-0.7685382,-0.3077856,-1.138978,-4.366339,-2.470067,0.1644128,1.283246,0.3685362,-0.5948862,0.01508802,11.53846,14.99893,-0.1684529,-0.2996985,0.559244,-0.5228648,-2.95635,-0.9513711,0.2432688,1.438054,0.2840464,0.06184037,-0.04570473,0.006943749,-0.9852971,0.6085479,-0.0488738,0.419893,1.491817,0.1664844,-0.08389835,1.100114,0.339426,346.7614,231.2939,50.16412,True
2,2.61111,-1.166564,-0.8720273,-0.3286338,-1.127503,-4.358045,-2.459937,0.1611995,1.285295,0.36765,-0.5958152,-0.08442888,11.64456,15.02035,-0.2246221,-0.3255825,0.597804,-0.5148455,-2.948748,-0.9538527,0.2430164,1.438315,0.2839217,0.08087669,-0.02223313,-0.004915046,-0.9857227,0.6089723,-0.05055159,0.4197397,1.491804,0.1667807,-0.08584169,1.100027,0.3385728,348.9187,231.8417,49.21658,True
2,2.622221,-1.174643,-1.014873,-0.3408008,-1.114808,-4.346957,-2.451694,0.1575263,1.287325,0.3666117,-0.5953022,0.04812969,11.80371,15.04178,-0.2338205,-0.3609352,0.64994,-0.5055729,-2.939913,-0.9587822,0.2425437,1.438649,0.2838199,0.07839157,-0.006187819,-0.04002009,-0.9873297,0.6094057,-0.05159235,0.419481,1.491836,0.1671252,-0.08853521,1.100208,0.3378197,350.7783,232.3181,48.45614,True
2,2.633332,-1.173349,-1.079836,-0.3362989,-1.103045,-4.337258,-2.443097,0.1541925,1.289361,0.3655777,-0.5969784,-0.1533697,11.93634,15.04178,-0.2441767,-0.4015501,0.680759,-0.4958588,-2.93221,-0.962496,0.2419916,1.438936,0.2835958,0.06315245,0.01090341,-0.07180038,-0.9892413,0.6101468,-0.05218437,0.4192406,1.491819,0.1674166,-0.0916666,1.100692,0.3373184,352.618,232.6203,47.53729,True
2,2.644443,-1.197723,-1.093669,-0.3105808,-1.093453,-4.328691,-2.433029,0.1507934,1.291265,0.3646088,-0.5982664,-0.116082,11.93634,14.99893,-0.2807233,-0.4914255,0.7648187,-0.4827107,-2.922868,-0.9664942,0.2408833,1.439131,0.2832191,0.02446498,0.0492697,-0.1022489,-0.9914501,0.6119792,-0.05213111,0.4188335,1.491802,0.1677077,-0.09703327,1.100863,0.3369263,354.2872,226.0071,50.83356,True
2,2.655554,-1.209422,-1.077701,-0.2945942,-1.084048,-4.320951,-2.422954,0.147428,1.292777,0.3627863,-0.5988938,-0.05630369,11.88329,14.93465,-0.3284353,-0.5012881,0.8001907,-0.4723095,-2.912114,-0.9709984,0.2400747,1.439317,0.2828493,0.01384177,0.07374956,-0.09677099,-0.9923407,0.6137502,-0.05294018,0.4184221,1.491803,0.1680424,-0.1040825,1.09865,0.3360422,357.5904,219.6175,54.55948,True
2,2.666665,-1.17635,-1.071115,-0.2723497,-1.074729,-4.312802,-2.41485,0.1439401,1.294216,0.3614023,-0.5982147,0.06278399,11.75066,14.84894,-0.3937019,-0.3663276,0.8350443,-0.4670524,-2.892689,-0.9816795,0.2388608,1.439338,0.2823756,0.006480865,0.1078075,-0.0838537,-0.9929543,0.6164992,-0.05430851,0.417933,1.491761,0.1684301,-0.1100823,1.096191,0.3346459,1.283232,217.9659,54.29105,True
2,2.677776,-1.108078,-1.078309,-0.2554431,-1.06477,-4.303661,-2.409036,0.1403766,1.29534,0.3594959,-0.5987404,-0.04848397,11.64456,14.76323,-0.4612475,-0.2365959,0.8379344,-0.4629325,-2.873194,-0.9916525,0.2376718,1.439214,0.2817357,0.001913585,0.1800811,0.0004921891,-0.9903284,0.6219841,-0.05722015,0.4171092,1.49173,0.1689639,-0.1149601,1.09337,0.333343,4.092612,219.1938,52.38721,True
2,2.688887,-1.038736,-1.064052,-0.2088386,-1.05648,-4.29455,-2.404081,0.1371105,1.296398,0.3579588,-0.6007586,-0.183804,11.51194,14.72038,-0.4935786,-0.09190291,0.8619943,-0.4603125,-2.849713,-1.006077,0.2362679,1.439116,0.2812104,-0.009116009,0.2161519,0.07416789,-0.987515,0.6262987,-0.05919834,0.4163303,1.491667,0.1695287,-0.1187976,1.092846,0.3318361,6.075805,220.1723,51.88265,True
2,2.699998,-0.9887842,-0.9987066,-0.1677595,-1.049691,-4.2876,-2.397684,0.1340159,1.298004,0.3574054,-0.6027532,-0.1808366,11.45889,14.69895,-0.5247397,-0.04507107,0.8409979,-0.456044,-2.832182,-1.015095,0.2348225,1.438952,0.2804649,-0.02371657,0.2490962,0.1095329,-0.9853877,0.63102,-0.06104871,0.4155059,1.491607,0.1700377,-0.1209535,1.093223,0.3313834,8.525973,221.1205,50.66209,True
2,2.711109,-0.963267,-0.9516211,-0.1339266,-1.043166,-4.280159,-2.391357,0.1308457,1.298854,0.3558884,-0.6035777,-0.07412732,11.51194,14.7418,-0.5535708,-0.0217396,0.8433511,-0.4514447,-2.812932,-1.025171,0.2333699,1.438657,0.2798691,-0.03954123,0.2873935,0.1289305,-0.9837003,0.6365678,-0.06312864,0.414659,1.491438,0.170435,-0.1240031,1.095832,0.3315609,8.602024,221.9623,51.29114,True
2,2.72222,-0.9291517,-0.9012445,-0.0777415,-1.038131,-4.272174,-2.386106,0.1275791,1.299134,0.3533621,-0.6029423,0.0583278,11.64456,14.84894,-0.5817416,0.02842146,0.7850627,-0.4494617,-2.79709,-1.032068,0.2318949,1.438135,0.2792935,-0.07333249,0.3650597,0.1666896,-0.9811192,0.6447896,-0.06574972,0.4135199,1.491364,0.171103,-0.1285679,1.097416,0.3321463,8.700389,220.6177,52.13723,True
2,2.733331,-0.8823136,-0.8465744,-0.03016251,-1.033686,-4.264727,-2.381637,0.1244462,1.299591,0.3516939,-0.6024038,0.04852962,11.83024,15.02035,-0.6072338,0.06828815,0.6170018,-0.4504876,-2.792376,-1.028893,0.2302751,1.437841,0.2786183,-0.08918735,0.3778034,0.1807172,-0.9789572,0.650518,-0.06741792,0.412531,1.491261,0.1717038,-0.1328254,1.097993,0.3321059,8.947564,221.8859,51.26917,True
2,2.744442,-0.8270779,-0.7620494,0.01619692,-1.030653,-4.258539,-2.377076,0.1217579,1.299988,0.350569,-0.6029061,-0.04647506,12.09549,15.23462,-0.6363969,0.08544284,0.5511544,-0.4495794,-2.78248,-1.029678,0.2285434,1.437505,0.2779071,-0.1118311,0.3916757,0.1543319,-0.9785205,0.6561461,-0.06854471,0.4114484,1.491175,0.1724205,-0.1360942,1.098527,0.3300619,9.78358,222.8601,49.77306,True
2,2.755553,-0.7866859,-0.7000079,0.052056,-1.027649,-4.251973,-2.372844,0.1188885,1.300533,0.3492036,-0.603744,-0.07634991,12.33422,15.47032,-0.6428736,0.06527948,0.5202333,-0.4469477,-2.772631,-1.031228,0.2267682,1.437216,0.2772746,-0.1247804,0.4342965,0.1417537,-0.9778137,0.6637625,-0.0709048,0.4101977,1.491048,0.1731939,-0.1404874,1.098247,0.3287536,10.43656,221.8671,51.99883,True
2,2.766664,-0.7270846,-0.6250105,0.1133784,-1.027076,-4.245577,-2.370053,0.1162696,1.30049,0.3473635,-0.6040401,-0.026723,12.57294,15.68459,-0.6421855,0.09314895,0.4659817,-0.4469003,-2.763714,-1.032076,0.2249673,1.436898,0.2766519,-0.1313169,0.5132461,0.1302137,-0.9778675,0.6755803,-0.07605615,0.4089901,1.490601,0.1732566,-0.1438579,1.092553,0.327182,12.73345,223.6656,52.18629,True
2,2.777775,-0.6664127,-0.5756527,0.1545786,-1.025911,-4.238779,-2.367863,0.1135669,1.300427,0.3456547,-0.6038212,0.01994047,12.7321,15.85601,-0.6316583,0.09645063,0.4435685,-0.4457642,-2.753966,-1.034258,0.2232809,1.436379,0.2760878,-0.1230394,0.5697446,0.1100029,-0.9778925,0.6853468,-0.08047167,0.4077151,1.490509,0.1739163,-0.1469896,1.093172,0.3265501,13.54067,225.2944,52.58521,True
2,2.788886,-0.6196225,-0.5413743,0.1638926,-1.024062,-4.233009,-2.36558,0.1109814,1.300234,0.343833,-0.6049194,-0.1008988,12.89124,16.006,-0.6137622,0.0636856,0.3805152,-0.4441748,-2.750357,-1.031365,0.2216321,1.435656,0.2754421,-0.0416072,0.6232722,0.05068818,-0.9805322,0.6970792,-0.08944439,0.4063677,1.490377,0.1746013,-0.1514249,1.096302,0.3261645,13.37044,224.2391,53.91032,True
2,2.799997,-0.5983781,-0.5264407,0.1552891,-1.021245,-4.226927,-2.362662,0.1083052,1.30004,0.341794,-0.6049786,-0.004879954,12.97082,16.07028,-0.5935975,0.05953866,0.3622903,-0.4427409,-2.74254,-1.032488,0.2198537,1.435075,0.2748692,0.007094413,0.6159096,0.01824647,-0.9818537,0.704592,-0.09537312,0.4051042,1.490338,0.1752164,-0.1551231,1.097876,0.3257688,12.8664,226.4018,52.77447,True
2,2.811108,-0.5813856,-0.5039874,0.1626045,-1.019127,-4.221137,-2.359685,0.1056947,1.29972,0.3399303,-0.6049157,0.005374587,13.02387,16.07028,-0.5779321,0.0651052,0.3057612,-0.4428113,-2.738396,-1.030293,0.2180403,1.434444,0.2742524,0.07063264,0.5958135,-0.02183793,-0.9842228,0.7116029,-0.1020763,0.403655,1.490739,0.1765039,-0.1557325,1.098259,0.3250338,10.06435,231.2753,49.95576,True
2,2.822219,-0.5590412,-0.4889688,0.1710114,-1.017217,-4.215169,-2.357255,0.1031568,1.29952,0.3383169,-0.6036534,0.1150996,12.99735,15.98457,-0.5664617,0.06847066,0.2609583,-0.4427324,-2.735094,-1.027362,0.2161592,1.433934,0.2734609,0.08881426,0.593677,-0.01349802,-0.9846905,0.7192994,-0.1076319,0.4021184,1.490818,0.1773105,-0.1577243,1.092199,0.3215847,11.30222,225.3201,58.65963,True
2,2.83333,-0.515328,-0.4706115,0.1995753,-1.016225,-4.208585,-2.356459,0.1006792,1.299135,0.3365903,-0.6032342,0.03706605,12.91777,15.81315,-0.5654305,0.0886966,0.2684721,-0.4425183,-2.726286,-1.029025,0.2142807,1.433321,0.2727847,0.04112673,0.58933,0.01253007,-0.9843906,0.7271122,-0.1108512,0.4006242,1.490727,0.1778767,-0.1619835,1.092992,0.3180008,13.37926,226.5699,58.39587,True
2,2.844441,-0.4663111,-0.455448,0.2228345,-1.015417,-4.201878,-2.356142,0.09841138,1.298821,0.3350704,-0.6033493,-0.01096347,12.78515,15.57746,-0.5601224,0.08659214,0.2641717,-0.4417534,-2.719912,-1.028678,0.2124721,1.432678,0.2721312,-8.130074E-05,0.5881567,0.04809229,-0.9833499,0.73497,-0.1137529,0.3990703,1.490527,0.178412,-0.167329,1.096024,0.3111189,7.321957,226.4687,56.62527,True
2,2.855552,-0.4280638,-0.4191067,0.2247464,-1.014754,-4.196419,-2.355234,0.09618929,1.29839,0.3333981,-0.6043485,-0.09146647,12.62599,15.32033,-0.5421863,0.1090795,0.2460457,-0.4422413,-2.713111,-1.029322,0.210684,1.431916,0.2715039,-0.008354843,0.5923541,0.07375969,-0.9823373,0.7431452,-0.1180047,0.3974556,1.490344,0.1787875,-0.1719464,1.092496,0.3044234,7.184351,225.1916,57.48077,True
2,2.866663,-0.4068524,-0.3956209,0.2192625,-1.013758,-4.191487,-2.353978,0.09387985,1.297927,0.3317029,-0.604479,-0.01145911,12.51989,15.10606,-0.4702347,0.1489484,0.1786762,-0.445076,-2.710453,-1.028798,0.2088532,1.431472,0.2709041,0.03765166,0.5880794,0.09462416,-0.9813386,0.7508549,-0.1241984,0.3958513,1.490287,0.1790664,-0.1762704,1.091031,0.2979755,7.455297,223.9971,58.52491,True
2,2.877774,-0.3761587,-0.3519155,0.2019676,-1.01316,-4.187833,-2.352469,0.09175506,1.297462,0.3301694,-0.604129,0.03175125,12.44032,14.93465,-0.4245989,0.1205152,0.1261473,-0.4454813,-2.710589,-1.025413,0.2071695,1.430779,0.2702224,0.08285347,0.5582067,0.1388725,-0.979092,0.7576322,-0.1304057,0.3943034,1.490311,0.1792858,-0.1800722,1.092479,0.2916923,4.532129,223.2961,58.24987,True
2,2.888885,-0.3411443,-0.3156047,0.1953249,-1.012859,-4.18424,-2.351691,0.0896605,1.296972,0.3284526,-0.6036321,0.04485532,12.41379,14.82751,-0.4343057,0.1205379,0.1038135,-0.4462691,-2.708382,-1.022033,0.2053944,1.430294,0.2693439,0.0949294,0.5187814,0.1685014,-0.97706,0.7641696,-0.135651,0.3928288,1.489979,0.1790986,-0.1845343,1.096741,0.2840588,356.6344,222.6707,56.07553,True
2,2.899997,-0.3145549,-0.2835027,0.2121895,-1.013437,-4.179534,-2.351396,0.08774093,1.296418,0.3268237,-0.6036566,-0.002808567,12.46684,14.78466,-0.4277077,0.08428949,0.1196443,-0.4450526,-2.704752,-1.020705,0.2036591,1.42983,0.2686188,0.09112686,0.4675645,0.2110574,-0.9737082,0.7689185,-0.1392386,0.3913262,1.489912,0.1791151,-0.1911884,1.100759,0.2724372,348.0842,221.6632,54.23548,True
2,2.911108,-0.3039482,-0.2514338,0.2312062,-1.014462,-4.17539,-2.350523,0.0857375,1.295858,0.3251593,-0.6040822,-0.03911961,12.51989,14.80608,-0.4063586,0.06944561,0.1184202,-0.4444315,-2.701884,-1.019532,0.2020166,1.429235,0.2677281,0.06484148,0.4344931,0.2410764,-0.9708442,0.7747116,-0.1425409,0.3899773,1.489698,0.1789277,-0.194333,1.102836,0.2662829,347.9629,221.3004,54.92611,True
2,2.922219,-0.2774927,-0.2010935,0.2596599,-1.016568,-4.171223,-2.350107,0.08396748,1.29518,0.3237388,-0.6036678,0.03797368,12.62599,14.87037,-0.3926191,0.08337772,0.1077356,-0.4453221,-2.698592,-1.018468,0.200418,1.428744,0.2668939,0.02266935,0.4141739,0.2829889,-0.967136,0.7808996,-0.1451119,0.3886346,1.489645,0.1790273,-0.1956782,1.103805,0.2644568,346.6097,221.775,55.3138,True
2,2.93333,-0.266766,-0.1915261,0.2649802,-1.017702,-4.166979,-2.349547,0.08219323,1.294715,0.3224463,-0.6030132,0.05924629,12.81167,15.02035,-0.41096,0.1185354,0.08663446,-0.4473504,-2.695324,-1.016104,0.1988429,1.428378,0.2662148,-0.027275,0.3885373,0.2940857,-0.9639961,0.7856959,-0.1459543,0.3872341,1.489605,0.1789365,-0.1982169,1.103247,0.2602813,348.0573,221.4182,56.72586,True
2,2.944441,-0.2453995,-0.1935187,0.2819656,-1.01876,-4.162034,-2.350106,0.08038807,1.294154,0.3207605,-0.6031207,-0.01053539,13.0504,15.23462,-0.4012814,0.1599683,0.1325259,-0.4484827,-2.685609,-1.020632,0.197329,1.427999,0.2654431,-0.05498287,0.3576253,0.2911054,-0.961349,0.7898973,-0.1469093,0.3858888,1.489668,0.1792021,-0.2005414,1.10312,0.2582008,349.109,220.3394,56.35461,True
2,2.955552,-0.2347129,-0.1955903,0.2883572,-1.019671,-4.156969,-2.350435,0.07851985,1.29366,0.319231,-0.6027133,0.03720396,13.2626,15.44889,-0.3928229,0.1770457,0.1314719,-0.4499517,-2.679705,-1.021878,0.1957938,1.427565,0.2646859,-0.06250152,0.3288699,0.2826003,-0.9589511,0.7935939,-0.1481072,0.3845576,1.489539,0.1791606,-0.2036717,1.102616,0.2554312,350.0503,220.6249,56.17064,True
2,2.966663,-0.2378855,-0.1934324,0.2979465,-1.020752,-4.152181,-2.350201,0.07690886,1.293112,0.3175881,-0.6031804,-0.04317316,13.42175,15.64174,-0.3695606,0.1782945,0.09832781,-0.4516806,-2.67792,-1.020217,0.1944571,1.427166,0.2640429,-0.04757443,0.3192898,0.2835079,-0.9561915,0.7980874,-0.150704,0.3832499,1.489702,0.1790993,-0.2058085,1.102684,0.2539123,349.7788,221.5498,56.12396,True
2,2.977774,-0.247483,-0.1881358,0.3001026,-1.021855,-4.147588,-2.34936,0.07542047,1.292786,0.3163021,-0.6027096,0.04331511,13.55437,15.74888,-0.3663881,0.177255,0.09298455,-0.4527906,-2.673872,-1.019904,0.1930798,1.426836,0.2633159,-0.01897523,0.3108204,0.2661738,-0.9542676,0.8023562,-0.1540327,0.3819264,1.489725,0.1790657,-0.2060464,1.102542,0.2517457,350.2997,221.0077,56.18937,True
2,2.988885,-0.2484759,-0.1966065,0.3139884,-1.022894,-4.142242,-2.349302,0.07386073,1.292404,0.3146226,-0.6020288,0.0616389,13.60743,15.81315,-0.3791723,0.1995347,0.1080355,-0.4544913,-2.666713,-1.021576,0.1917828,1.426611,0.2625699,-0.01076195,0.2991578,0.2341227,-0.9531102,0.8060662,-0.1562463,0.3807802,1.489666,0.1788855,-0.2069116,1.102155,0.2492667,350.7584,221.2016,56.34316,True
2,2.999996,-0.2270172,-0.2166835,0.3395799,-1.024017,-4.135634,-2.350942,0.07235476,1.292242,0.3134243,-0.60133,0.0633115,13.66048,15.92029,-0.352475,0.1910754,0.1163867,-0.4553382,-2.661355,-1.023241,0.1906064,1.42651,0.2619376,-0.008748889,0.2927831,0.2223663,-0.951605,0.8099985,-0.1583667,0.3796761,1.489565,0.1788232,-0.2071455,1.102636,0.2478295,350.373,221.0926,56.28771,True
2,3.011107,-0.2130864,-0.2422084,0.338572,-1.024137,-4.129568,-2.352215,0.07080027,1.291936,0.3117392,-0.601582,-0.02359035,13.63395,15.92029,-0.3343561,0.1422275,0.08524095,-0.4552679,-2.661927,-1.019638,0.1894071,1.426196,0.261265,-0.004608855,0.2597777,0.2084194,-0.9499102,0.8122209,-0.1596403,0.3785044,1.489559,0.1786835,-0.2079878,1.102437,0.2462405,351.0234,220.7153,55.5661,True
2,3.022218,-0.2076775,-0.3019854,0.3025961,-1.021956,-4.123218,-2.353247,0.06933829,1.291893,0.3107088,-0.6025674,-0.089878,13.60743,15.94172,-0.3481853,0.08901855,0.05317746,-0.4548738,-2.664104,-1.013237,0.1881522,1.426049,0.260648,-0.02516285,0.2257362,0.1734003,-0.9494691,0.8138281,-0.1595383,0.3775129,1.489536,0.1785791,-0.209144,1.102543,0.2453867,350.4095,221.7143,55.4211,True
2,3.033329,-0.2095911,-0.3851612,0.2837587,-1.018645,-4.11526,-2.354978,0.06773618,1.291799,0.3090503,-0.6024348,0.01275436,13.52785,15.96315,-0.3620018,0.09851745,0.06606203,-0.4554607,-2.66007,-1.012317,0.186888,1.425867,0.2599978,-0.06707957,0.216211,0.1343699,-0.9497077,0.8168763,-0.1591196,0.3766361,1.489425,0.1781981,-0.2102196,1.102184,0.2438584,351.0368,221.7517,55.13121,True
2,3.04444,-0.20719,-0.4414977,0.3127491,-1.017085,-4.105963,-2.357409,0.06637827,1.291734,0.307852,-0.601851,0.05308979,13.44828,16.006,-0.3578437,0.1262357,0.0640018,-0.4572413,-2.655704,-1.012485,0.1857563,1.425797,0.2594337,-0.07018778,0.206627,0.1418392,-0.9482068,0.8200084,-0.1601748,0.3757334,1.489265,0.1780176,-0.2109979,1.102149,0.2426053,350.9338,222.1167,55.27694,True
2,3.055551,-0.2112909,-0.4573774,0.3426639,-1.016762,-4.097261,-2.359591,0.06493494,1.291535,0.30616,-0.6015196,0.02986262,13.42175,16.11313,-0.3226939,0.1465515,0.07773393,-0.4584973,-2.650487,-1.014796,0.1847658,1.425716,0.2589018,-0.0723988,0.1874681,0.1332981,-0.9472587,0.8219787,-0.1603343,0.3748091,1.489251,0.1778769,-0.212355,1.102142,0.2401197,351.0103,223.1288,55.99972,True
2,3.066662,-0.2314214,-0.4551664,0.3800219,-1.017319,-4.088489,-2.360786,0.06379944,1.291588,0.3049917,-0.6013966,0.01093669,13.39523,16.2417,-0.2831731,0.1455536,0.09776831,-0.4587881,-2.645282,-1.017782,0.183708,1.425719,0.2584114,-0.09506849,0.1704834,0.1004645,-0.9475213,0.8238725,-0.1597436,0.3739784,1.489215,0.1776905,-0.2126136,1.101979,0.2378368,351.6583,222.2635,56.13232,True
2,3.077773,-0.252699,-0.4487842,0.3950039,-1.017617,-4.08054,-2.361324,0.06271324,1.291389,0.3034863,-0.6013849,0.0008310012,13.3687,16.37026,-0.2425745,0.08502522,0.08032046,-0.457677,-2.646245,-1.015692,0.1829931,1.425882,0.2580149,-0.1120117,0.1587491,0.109121,-0.9464257,0.8260834,-0.1593092,0.3732569,1.489289,0.177552,-0.213482,1.101997,0.235803,351.8997,222.2697,56.14854,True
2,3.088884,-0.2569153,-0.4519513,0.4056833,-1.0175,-4.072263,-2.36268,0.06156555,1.291267,0.301765,-0.6003468,0.09485713,13.31565,16.47739,-0.2318104,0.04034567,0.07159957,-0.4564568,-2.646688,-1.013009,0.1821357,1.425863,0.2574964,-0.1014854,0.1598387,0.0973118,-0.9458568,0.8283817,-0.1598429,0.3724343,1.489408,0.17735,-0.2139892,1.101874,0.2336233,351.7794,222.4474,56.7121,True
2,3.099995,-0.2407921,-0.4859498,0.4153749,-1.01649,-4.062546,-2.365632,0.06065318,1.291437,0.3004766,-0.6000651,0.02499335,13.2626,16.5631,-0.2234772,0.01391906,0.01713869,-0.4567737,-2.651036,-1.006865,0.1814083,1.425828,0.2570908,-0.07509822,0.1396688,0.07038329,-0.9461631,0.8293941,-0.1605396,0.3717236,1.48949,0.1771984,-0.2146412,1.102419,0.2325901,351.2154,222.5648,56.42709,True
2,3.111106,-0.2300937,-0.5072469,0.4090465,-1.015235,-4.053633,-2.368064,0.05953866,1.291566,0.2990894,-0.6007782,-0.06523395,13.12997,16.5631,-0.2096106,0.004387438,0.01384026,-0.4566464,-2.651132,-1.00493,0.1806346,1.425944,0.2565532,-0.06649944,0.1109126,0.0755741,-0.9451846,0.8300906,-0.1604571,0.3709087,1.489576,0.1769726,-0.2160836,1.101973,0.2302883,352.114,222.6546,56.22423,True
2,3.122217,-0.2289375,-0.5413625,0.4017237,-1.013224,-4.044172,-2.370602,0.05842817,1.291621,0.2972159,-0.6017162,-0.0851116,13.02387,16.37026,-0.2052586,-0.02329496,0.01372633,-0.4554464,-2.652338,-1.00167,0.1797706,1.42602,0.25599,-0.07288077,0.08639666,0.07452828,-0.9443601,0.8302783,-0.1595675,0.3702791,1.489719,0.1767309,-0.216557,1.102115,0.2286629,351.4085,223.1452,56.86137,True
2,3.133328,-0.2522823,-0.5616333,0.4093841,-1.012257,-4.034237,-2.372162,0.05712444,1.291504,0.295105,-0.6016518,0.006518451,12.91777,15.94172,-0.2275462,-0.03193206,0.02446154,-0.4544434,-2.651896,-0.9985973,0.1789525,1.426125,0.2553437,-0.0846438,0.07892817,0.06930282,-0.9438834,0.8310207,-0.1586815,0.3695568,1.489733,0.1764917,-0.2170833,1.102336,0.227474,351.3075,222.8856,56.6255,True
2,3.144439,-0.2809909,-0.5809177,0.4063591,-1.010532,-4.024637,-2.373214,0.05588683,1.291548,0.2932532,-0.6013641,0.02612506,12.83819,15.32033,-0.2871747,-0.01621115,0.040793,-0.4542857,-2.649376,-0.9953916,0.1781132,1.42617,0.2544792,-0.1228428,0.08525531,0.08566985,-0.9425316,0.8326582,-0.156955,0.3689779,1.489908,0.1761079,-0.217923,1.101967,0.2251124,352.0401,222.6495,56.79389,True
2,3.15555,-0.2958367,-0.5926865,0.403358,-1.009405,-4.014508,-2.374961,0.05446959,1.291717,0.2911415,-0.6000805,0.1171414,12.78515,14.57039,-0.3309366,0.06659552,0.08177015,-0.4559992,-2.64037,-0.9983461,0.1773727,1.426256,0.2535615,-0.15243,0.1022182,0.1126225,-0.9406626,0.8350335,-0.1555963,0.368428,1.489921,0.1757588,-0.2183865,1.102237,0.223498,351.7048,222.7709,57.15242,True
2,3.166661,-0.3063751,-0.6236022,0.4067166,-1.007245,-4.003897,-2.376857,0.05316061,1.291947,0.2891433,-0.5996789,0.03573209,12.75862,13.84187,-0.3351237,0.1218082,0.1341681,-0.4569612,-2.630036,-1.003853,0.1765887,1.426363,0.2528548,-0.1628559,0.1043147,0.1350957,-0.9387329,0.8371757,-0.1548383,0.3679097,1.489866,0.1754019,-0.2193862,1.101643,0.2209507,352.2064,223.0992,57.85044,True
2,3.177772,-0.308372,-0.6577089,0.4048043,-1.004866,-3.992446,-2.379555,0.05186027,1.292109,0.286447,-0.6001881,-0.04659807,12.67905,13.17763,-0.3352447,0.2196784,0.1770974,-0.46006,-2.616179,-1.01265,0.175946,1.426548,0.2518744,-0.1701156,0.09573185,0.1553866,-0.9365001,0.8381662,-0.1532311,0.3674308,1.489935,0.1750739,-0.2203373,1.099945,0.2178869,353.2304,223.3397,58.95698,True
2,3.188883,-0.3061802,-0.6747416,0.4059343,-1.002567,-3.981697,-2.381988,0.0506829,1.292427,0.2843513,-0.6002398,-0.004278833,12.54642,12.57767,-0.3449012,0.2366954,0.1750721,-0.4616419,-2.609276,-1.014631,0.1753438,1.426631,0.2511504,-0.1751511,0.08396801,0.1831141,-0.9336867,0.8395444,-0.1520798,0.3670998,1.48991,0.1746802,-0.2194373,1.098163,0.2143175,355.9788,218.8814,60.03875,True
2,3.199994,-0.3038237,-0.7236928,0.4136874,-0.999878,-3.968972,-2.38531,0.04988706,1.293026,0.2820802,-0.6006573,-0.03807896,12.41379,12.06342,-0.3524787,0.259068,0.1666597,-0.4639743,-2.601913,-1.016956,0.1747734,1.426923,0.2504134,-0.1846922,0.07862592,0.1874594,-0.9315418,0.8408292,-0.1504659,0.3667059,1.489943,0.1743581,-0.2186054,1.095907,0.2096481,359.8777,215.1133,61.5123,True
2,3.211105,-0.3036548,-0.7598325,0.4256484,-0.99739,-3.956217,-2.388453,0.04897308,1.293159,0.2793281,-0.6008433,-0.01662853,12.17507,11.78487,-0.3149292,0.2356482,0.201544,-0.4639003,-2.593527,-1.022213,0.1743371,1.427384,0.2498477,-0.2028236,0.0732969,0.1844376,-0.9296855,0.8421596,-0.1484616,0.3664443,1.489997,0.1740553,-0.2192483,1.094464,0.2058989,1.201184,216.5949,62.04033,True
2,3.222216,-0.3354463,-0.7950361,0.4397568,-0.9944584,-3.943008,-2.390805,0.04812518,1.293776,0.276999,-0.6006909,0.01407218,11.96286,11.65631,-0.2742239,0.1771838,0.205411,-0.4627237,-2.588793,-1.02472,0.1739064,1.427707,0.2491581,-0.2168301,0.06266299,0.1675102,-0.9284546,0.8428102,-0.1459324,0.3661409,1.490082,0.1737525,-0.2216458,1.094391,0.2028686,1.422089,214.3799,63.43253,True
2,3.233327,-0.3586591,-0.8601164,0.4358705,-0.9899673,-3.929121,-2.39358,0.0473474,1.294557,0.2749481,-0.6004885,0.01840025,11.77719,11.65631,-0.2815603,0.09310761,0.171087,-0.4608504,-2.589591,-1.02071,0.1735455,1.428104,0.2484651,-0.2375339,0.0414367,0.117605,-0.9287646,0.8425167,-0.1426213,0.3660698,1.490271,0.1733921,-0.2253937,1.094163,0.2000158,2.700085,211.5488,64.67327,True
2,3.244438,-0.3605919,-0.9315628,0.4212758,-0.9844828,-3.914621,-2.397561,0.04635045,1.295162,0.2724004,-0.5994887,0.09129461,11.67109,11.72059,-0.3113311,0.05470061,0.1561991,-0.4597543,-2.587892,-1.017693,0.1731624,1.428525,0.247642,-0.2409011,0.03827685,0.09952353,-0.9282805,0.84314,-0.140282,0.365918,1.490422,0.173064,-0.2265485,1.094415,0.1968254,3.205172,214.2632,63.07263,True
2,3.255549,-0.3582951,-0.9699591,0.4161761,-0.9799591,-3.899888,-2.402143,0.04545543,1.296198,0.270736,-0.5995426,-0.005576272,11.64456,11.69916,-0.3420171,0.01725551,0.1711479,-0.4575359,-2.58467,-1.015844,0.1727692,1.428893,0.246793,-0.2442766,0.04469436,0.08252236,-0.9279705,0.8440766,-0.1380069,0.3658618,1.490641,0.1727452,-0.2283557,1.094231,0.1947411,2.980477,212.2713,65.05528,True
2,3.26666,-0.3869416,-0.9838184,0.4365742,-0.9764097,-3.885474,-2.404975,0.04455563,1.296698,0.2682037,-0.6005258,-0.08953376,11.75066,11.63488,-0.368492,0.03619882,0.2150211,-0.456477,-2.575736,-1.019067,0.1723988,1.429167,0.2456989,-0.2603639,0.05429301,0.07204713,-0.9276424,0.8453622,-0.1354787,0.3658145,1.49074,0.1723902,-0.2289074,1.093374,0.191461,3.210861,214.4845,64.1282,True
2,3.277771,-0.4273174,-0.9859383,0.4697435,-0.9738775,-3.871019,-2.406699,0.04390424,1.297439,0.2663414,-0.6011186,-0.05337555,11.93634,11.54917,-0.385693,0.1223363,0.2441429,-0.4581979,-2.564009,-1.024733,0.1720439,1.429412,0.2446487,-0.2921246,0.06167495,0.09368069,-0.9259688,0.8466316,-0.1319737,0.3655603,1.490743,0.1720529,-0.2289766,1.092836,0.1878816,2.97438,214.9671,65.01426,True
2,3.288882,-0.4420928,-1.007211,0.4890624,-0.9704762,-3.855558,-2.410033,0.04308337,1.297976,0.2637222,-0.5996011,0.139002,12.14854,11.52775,-0.3955719,0.2234703,0.2551695,-0.4615599,-2.551576,-1.031319,0.1716478,1.429771,0.2438185,-0.3185399,0.07119039,0.117402,-0.9239007,0.848222,-0.1285263,0.3654457,1.490851,0.1717138,-0.2296856,1.092773,0.1841426,2.97342,214.9509,65.44275,True
2,3.299993,-0.4556823,-1.047582,0.5265728,-0.9671664,-3.838157,-2.414343,0.04256135,1.298899,0.2618022,-0.5984182,0.106994,12.38727,11.54917,-0.3938388,0.3587244,0.2694431,-0.4673747,-2.535133,-1.041723,0.1712916,1.430136,0.2428827,-0.3321825,0.07964426,0.1399228,-0.9217051,0.8498068,-0.1253318,0.3653196,1.490903,0.1713872,-0.2313291,1.092944,0.1789385,0.583047,214.4821,65.16327,True
2,3.311104,-0.4703652,-1.070859,0.5746831,-0.9649112,-3.820201,-2.418705,0.04219073,1.299841,0.2598076,-0.5995553,-0.1046251,12.54642,11.65631,-0.3747896,0.39714,0.2705383,-0.4704799,-2.523357,-1.048776,0.171053,1.430588,0.2419834,-0.3287442,0.0636386,0.1622509,-0.9190217,0.8505884,-0.1225246,0.365335,1.490923,0.1709437,-0.2335994,1.092786,0.1732078,359.4666,213.2113,65.46494,True
2,3.322215,-0.4915673,-1.070796,0.6056482,-0.9629016,-3.803183,-2.422234,0.04188064,1.300271,0.2567532,-0.5997471,-0.01627057,12.62599,11.78487,-0.3716874,0.3483123,0.2181659,-0.4719356,-2.519761,-1.04793,0.1709584,1.430896,0.2412107,-0.3213973,0.04343507,0.1482915,-0.9179202,0.8506126,-0.1193669,0.3654304,1.491039,0.1705961,-0.2362539,1.092778,0.1670764,358.3728,211.2998,66.53516,True
2,3.333326,-0.5150167,-1.045203,0.6311733,-0.9616568,-3.787187,-2.424931,0.04162073,1.300801,0.2539995,-0.5996155,0.01216596,12.62599,11.89201,-0.3835472,0.3069144,0.1616289,-0.473779,-2.517755,-1.045068,0.1709385,1.431292,0.2403426,-0.3161104,0.01467526,0.1418007,-0.9163719,0.8496084,-0.1154619,0.3655224,1.491251,0.1702099,-0.2395897,1.093135,0.1610699,356.5919,209.3413,67.44883,True
2,3.344437,-0.5320603,-1.025999,0.6513867,-0.9605681,-3.771092,-2.427686,0.04131487,1.30103,0.2508962,-0.5994392,0.01602917,12.49337,11.97771,-0.4316987,0.2728648,0.09677681,-0.4759484,-2.517785,-1.038586,0.1708882,1.431702,0.2394071,-0.3161238,0.0008386672,0.1385825,-0.9148965,0.849376,-0.1119223,0.3657464,1.491413,0.1697879,-0.2422428,1.094461,0.1563541,356.5187,210.3206,67.08983,True
2,3.355548,-0.5639833,-0.9757507,0.7183876,-0.962346,-3.754461,-2.429783,0.04117635,1.301245,0.2481468,-0.5993454,0.008636072,12.30769,12.02057,-0.4647753,0.2664153,0.08200846,-0.4782014,-2.513742,-1.035882,0.1709017,1.432125,0.2385075,-0.3341132,0.00077793,0.1515389,-0.9128006,0.8493801,-0.1075755,0.3660385,1.491573,0.1693771,-0.2437343,1.096058,0.1470069,347.2342,210.4732,65.37494,True
2,3.366659,-0.5970351,-0.8945711,0.7937785,-0.9662795,-3.738628,-2.430884,0.04109752,1.301074,0.2447855,-0.5995191,-0.01581343,12.06897,11.95629,-0.4620879,0.191662,0.141403,-0.4762472,-2.507365,-1.036544,0.1708784,1.432536,0.2373664,-0.3584036,-0.001399338,0.1720197,-0.9101875,0.8497637,-0.1030936,0.3663276,1.49166,0.168891,-0.2422611,1.098104,0.135562,342.8435,208.1424,64.78207,True
2,3.37777,-0.6269286,-0.8679724,0.8044158,-0.9676127,-3.723088,-2.431766,0.0409337,1.301018,0.2411475,-0.5987952,0.0664629,11.80371,11.82773,-0.5319449,0.1496766,0.2023454,-0.4742147,-2.498865,-1.035941,0.1708864,1.432781,0.236145,-0.4411817,-0.0143095,0.2037116,-0.9066694,0.8493922,-0.09513504,0.3668186,1.491827,0.1684911,-0.2339753,1.10257,0.1168717,338.3314,204.4082,62.55342,True
2,3.388881,-0.6375549,-0.880816,0.7991813,-0.9675626,-3.706519,-2.433607,0.04083946,1.30098,0.2376771,-0.5984629,0.02980606,11.48541,11.67774,-0.6013824,0.1888911,0.1911042,-0.4764534,-2.491792,-1.033051,0.1708565,1.433046,0.2349179,-0.4678142,-0.006886065,0.2050551,-0.9043813,0.84979,-0.0893408,0.3671744,1.492066,0.1681616,-0.2233764,1.105244,0.1002182,343.3402,198.834,63.24085,True
2,3.399992,-0.6438234,-0.9064087,0.8045971,-0.9669688,-3.689112,-2.43655,0.04086113,1.300551,0.2332704,-0.5987074,-0.02245761,11.14058,11.50632,-0.6602764,0.2707361,0.1873985,-0.480691,-2.481769,-1.032495,0.170833,1.433122,0.2335722,-0.4793462,0.02930421,0.2265453,-0.9013277,0.8522702,-0.0852105,0.367538,1.492195,0.1676481,-0.208426,1.10522,0.08211067,342.025,195.8197,57.40661,True
2,3.411103,-0.6491698,-0.8872081,0.8183799,-0.9682247,-3.672712,-2.438371,0.04104793,1.300696,0.2300987,-0.5994099,-0.06346582,10.79576,11.39919,-0.6872997,0.3729339,0.1793376,-0.4862591,-2.470479,-1.034153,0.170766,1.433315,0.2322032,-0.4652803,0.0580346,0.2509615,-0.8978161,0.8547792,-0.08201417,0.3678586,1.492349,0.1672807,-0.1936108,1.10477,0.06762645,341.2093,194.0149,56.18613,True
