ref,t,emg1,emg2,emg1raw,emg2raw,aDotS,bDotS,gDotS,aS,bS,gS,aDotSH,bDotSH,gDotSH,aSH,bSH,gSH
90,0,762,190,508,497,-0.9784344,0.1865965,0.4106929,-1.413453,2.982991,-0.2479627,-0.3687417,-0.1651603,0.553283,-0.2681079,-2.628866,1.671882
90,0.01111111,775,181,474,498,-0.9602342,0.170657,0.40121,-1.415918,2.986771,-0.238322,-0.378523,-0.1512696,0.5235372,-0.2632577,-2.635851,1.683063
90,0.02222222,775,181,474,498,-0.9238256,0.1454054,0.3982174,-1.418534,2.990551,-0.2301525,-0.3764237,-0.1555263,0.5192571,-0.2578622,-2.645321,1.696372
90,0.03333334,775,181,474,498,-0.9034072,0.1102984,0.3888332,-1.419733,2.99451,-0.2213156,-0.3592523,-0.1789942,0.5393537,-0.2516235,-2.659437,1.713474
90,0.04444445,775,181,474,498,-0.8850354,0.06143573,0.3827596,-1.420621,2.998682,-0.212582,-0.3806625,-0.1831801,0.5245917,-0.2464873,-2.670329,1.728934
90,0.05555556,754,182,500,505,-0.8657377,0.03806648,0.3722467,-1.421323,3.002398,-0.2039198,-0.4255796,-0.1554441,0.4961666,-0.2419977,-2.677492,1.741883
90,0.06666667,754,182,500,505,-0.8624377,0.02748078,0.3658473,-1.42222,3.00578,-0.1957802,-0.3685939,-0.1843402,0.5703402,-0.2341648,-2.696027,1.762178
90,0.07777778,754,182,500,505,-0.9199868,0.0540233,0.3538143,-1.424825,3.008132,-0.1856032,-0.3291219,-0.1641224,0.5775661,-0.2278558,-2.707375,1.775795
90,0.08888889,754,182,500,505,-0.9563031,0.0762291,0.3525787,-1.426946,3.011742,-0.1743992,-0.3036165,-0.1545301,0.5678198,-0.2222333,-2.719387,1.790193
90,0.1,754,182,500,505,-0.9127199,0.0966194,0.3429816,-1.42895,3.014921,-0.1654697,-0.3100336,-0.1566723,0.5636004,-0.216687,-2.73448,1.808631
90,0.1111111,731,189,498,500,-0.837176,0.1213964,0.3323105,-1.431465,3.018022,-0.1584927,-0.3261128,-0.1577135,0.5487921,-0.2116196,-2.749233,1.827126
90,0.1222222,731,189,498,500,-0.7999039,0.1278733,0.3174278,-1.43344,3.020957,-0.15072,-0.3335806,-0.1534779,0.5424707,-0.2062693,-2.765088,1.846366
90,0.1333333,731,189,498,500,-0.7934819,0.1193906,0.3121192,-1.435081,3.023868,-0.1421872,-0.3165979,-0.1641447,0.5316925,-0.2015704,-2.783897,1.867778
90,0.1444445,731,189,498,500,-0.7955605,0.1076374,0.3079207,-1.436398,3.027112,-0.1336465,-0.2985547,-0.1502798,0.5198703,-0.1967304,-2.79778,1.884112
90,0.1555556,680,178,524,503,-0.7890273,0.07774588,0.2920862,-1.436863,3.029938,-0.12529,-0.2796662,-0.1683575,0.4760429,-0.1935932,-2.81662,1.90508
90,0.1666667,680,178,524,503,-0.767599,0.05433083,0.2783906,-1.437166,3.032684,-0.1176547,-0.2841185,-0.1800195,0.4504778,-0.1904703,-2.835137,1.926669
90,0.1777778,680,178,524,503,-0.7195212,0.02881789,0.2508777,-1.43707,3.034759,-0.1112376,-0.2744878,-0.1843131,0.4546701,-0.1863973,-2.856749,1.950581
90,0.1888889,680,178,524,503,-0.6746848,0.01504916,0.2286457,-1.437086,3.036755,-0.1051842,-0.2658452,-0.1587768,0.4716818,-0.1815189,-2.873756,1.970007
90,0.2,680,178,524,503,-0.6415966,0.006580874,0.2084954,-1.43732,3.038579,-0.09899769,-0.2476948,-0.1321497,0.473736,-0.1768658,-2.889107,1.987243
90,0.2111111,742,182,496,499,-0.6128193,0.005554736,0.1914639,-1.437538,3.04014,-0.09291982,-0.2403656,-0.08738124,0.4535061,-0.1726698,-2.898189,1.998696
90,0.2222222,742,182,496,499,-0.5957482,0.008799702,0.1808852,-1.438058,3.042189,-0.08711253,-0.2276785,-0.06605691,0.4385504,-0.1686026,-2.911197,2.013807
90,0.2333333,742,182,496,499,-0.5680174,0.005630687,0.1670958,-1.43794,3.043792,-0.08166371,-0.2181075,-0.04582787,0.434257,-0.1643703,-2.924749,2.029286
90,0.2444444,742,182,496,499,-0.5285366,-0.004917428,0.1544256,-1.43771,3.045205,-0.07701968,-0.2095298,-0.04157072,0.4406006,-0.1599175,-2.940541,2.046906
90,0.2555556,742,182,496,499,-0.4858012,-0.029237,0.1450315,-1.437282,3.046585,-0.07287581,-0.1968149,-0.02984816,0.4288229,-0.1559004,-2.954539,2.062489
90,0.2666667,742,187,498,494,-0.4398175,-0.0642829,0.1282378,-1.435759,3.047729,-0.06927414,-0.1659952,-0.03302857,0.4179654,-0.1522183,-2.971232,2.08007
90,0.2777778,742,187,498,494,-0.4087963,-0.08974793,0.1166824,-1.434522,3.048651,-0.06555478,-0.1491837,-0.05963239,0.385833,-0.1501511,-2.990252,2.100153
90,0.2888889,742,187,498,494,-0.353236,-0.1226177,0.1009593,-1.432305,3.049497,-0.0632522,-0.1451716,-0.07662836,0.3495616,-0.1482837,-3.007997,2.119198
90,0.3,742,187,498,494,-0.3094705,-0.1385139,0.08085847,-1.430436,3.049929,-0.06076534,-0.1378193,-0.06702648,0.3292959,-0.1456834,-3.022686,2.134866
90,0.3111111,815,178,470,498,-0.287103,-0.1342073,0.07128239,-1.429068,3.050558,-0.05825718,-0.1274402,-0.04779667,0.2887694,-0.1439316,-3.029616,2.142889
90,0.3222222,815,178,470,498,-0.2648426,-0.113885,0.06161608,-1.428814,3.050786,-0.05536126,-0.1064043,-0.03283532,0.2492337,-0.1423678,-3.037149,2.151004
90,0.3333333,815,178,470,498,-0.2330255,-0.08494538,0.06362629,-1.428963,3.051251,-0.05346349,-0.09818548,-0.02638644,0.2044436,-0.1414703,-3.042657,2.157336
90,0.3444445,815,178,470,498,-0.2001159,-0.05499318,0.06034032,-1.42921,3.052034,-0.05224856,-0.1004909,-0.03060681,0.178876,-0.1406857,-3.049969,2.165784
90,0.3555556,815,178,470,498,-0.1704407,-0.02075246,0.06021344,-1.430141,3.052677,-0.05094308,-0.08147622,-0.02418721,0.1542653,-0.1397435,-3.055955,2.17207
90,0.3666667,768,195,476,493,-0.1503337,0.01444095,0.05153529,-1.431203,3.052984,-0.04983627,-0.05695159,-0.03697026,0.1572765,-0.1385398,-3.067439,2.183377
90,0.3777778,768,195,476,493,-0.1419015,0.03578676,0.05142672,-1.432074,3.053393,-0.04842266,-0.04547188,-0.05502105,0.1220104,-0.1387427,-3.074728,2.190821
90,0.3888889,768,195,476,493,-0.1228219,0.05929682,0.0502658,-1.433404,3.053852,-0.04763969,-0.04036959,-0.0539184,0.08789729,-0.1389185,-3.079623,2.195917
90,0.4,768,195,476,493,-0.1015633,0.06898485,0.04596257,-1.43475,3.053789,-0.0468253,-0.03401979,-0.05283702,0.08146286,-0.1385366,-3.085461,2.201915
90,0.4111111,831,222,497,501,-0.05687241,0.08298791,0.0395585,-1.43611,3.053867,-0.04733396,-0.03632589,-0.02936801,0.05488047,-0.1384141,-3.084604,2.201481
90,0.4222222,831,222,497,501,-0.03875473,0.08944448,0.03634851,-1.437336,3.054025,-0.0477313,-0.03318648,-0.0261568,0.04633774,-0.1382937,-3.086658,2.20381
90,0.4333333,831,222,497,501,-0.03343252,0.09052746,0.03528234,-1.438372,3.054296,-0.04744847,-0.01617441,-0.02402586,0.0409077,-0.138095,-3.090938,2.20771
90,0.4444444,831,222,497,501,-0.01637471,0.09168485,0.03849801,-1.43948,3.054771,-0.04806686,-0.01086636,-0.01548552,0.0366107,-0.1378351,-3.089948,2.206626
90,0.4555556,831,222,497,501,-0.0004285574,0.09921306,0.03954408,-1.440756,3.055095,-0.04845142,-0.01841509,-0.01547142,0.02281297,-0.1380444,-3.090947,2.20799
90,0.4666667,690,198,455,496,0.01340438,0.1035255,0.03847782,-1.442037,3.055436,-0.0490027,-0.00990241,-0.002678653,0.01957723,-0.1377131,-3.089416,2.206228
90,0.4777778,690,198,455,496,0.0177064,0.09394972,0.03213309,-1.443222,3.055352,-0.04907673,-0.007790681,-0.009066196,0.01530104,-0.13772,-3.09207,2.208723
90,0.4888889,690,198,455,496,0.01994348,0.0715363,0.022669,-1.443411,3.055332,-0.04936915,-0.001427997,-0.004799773,0.01100171,-0.1376609,-3.0917,2.208198
90,0.5,690,198,455,496,0.01796238,0.04591639,0.01743509,-1.442973,3.054904,-0.04997155,-0.004686109,-0.01012486,0.001431986,-0.1380987,-3.093562,2.210123
90,0.5111111,679,197,496,501,0.0180413,0.02778965,0.01433627,-1.442787,3.054986,-0.05018407,-0.01115409,-0.001592035,-0.01022209,-0.1382942,-3.091692,2.208533
90,0.5222223,679,197,496,501,0.02132906,0.005427435,0.008056667,-1.442625,3.054639,-0.05030179,-0.01122583,0.0005601058,-0.01981016,-0.1385957,-3.088331,2.205427
90,0.5333334,679,197,496,501,0.02992373,-0.009458063,0.001750751,-1.442528,3.054307,-0.05082696,0.0004834188,0.011209,-0.02200424,-0.1386069,-3.085531,2.202191
90,0.5444446,679,197,496,501,0.0299497,-0.0158497,0.001785222,-1.442193,3.054358,-0.05119714,0.004697541,0.002679652,-0.02737541,-0.1392391,-3.086015,2.202611
90,0.5555557,679,197,496,501,0.02787203,-0.02117583,0.0007134289,-1.442098,3.053968,-0.05181553,0.01122293,0.004772095,-0.008247089,-0.1390378,-3.087834,2.20412
90,0.5666668,576,177,503,500,0.0321101,-0.01582658,0.001756691,-1.442074,3.054015,-0.05229596,0.01341201,0.002629295,0.0002573875,-0.1388684,-3.088912,2.204981
90,0.577778,576,177,503,500,0.03632131,-0.004080049,0.0006227181,-1.44259,3.053757,-0.05271035,0.003824354,0.004764074,0.001386981,-0.1388157,-3.08761,2.204026
90,0.5888891,576,177,503,500,0.03198195,0.01719901,-0.0005690651,-1.443264,3.053628,-0.05301395,0.002789559,0.01860695,0.00567503,-0.1383342,-3.084976,2.201413
90,0.6000003,576,177,503,500,0.02658709,0.02995025,-0.002784329,-1.443924,3.053415,-0.05284457,-0.007862259,0.02713452,0.004698754,-0.1379299,-3.081678,2.198409
90,0.6111114,576,177,503,500,0.02552353,0.02994023,-0.003851318,-1.444258,3.053335,-0.05309651,-0.003602047,0.02820189,0.004676076,-0.1376354,-3.080256,2.19693
90,0.6222225,644,184,486,502,0.02552353,0.02994023,-0.003851318,-1.444258,3.053335,-0.05309651,-0.003602047,0.02820189,0.004676076,-0.1376354,-3.080256,2.19693
90,0.6333337,644,184,486,502,0.01059487,0.02886021,0.004650602,-1.444965,3.053645,-0.05302886,-0.003726579,0.001595122,-0.01348089,-0.1386532,-3.079753,2.196468
90,0.6444448,644,184,486,502,0.01276428,0.02032914,0.001504404,-1.444968,3.053555,-0.05321315,-0.002665454,-0.003729199,-0.0134969,-0.1388428,-3.079699,2.196454
90,0.655556,644,184,486,502,0.02555344,0.02569237,0.0004229895,-1.445246,3.053424,-0.0541948,-0.001537512,0.0005237213,-0.00497062,-0.1385153,-3.079838,2.196518
90,0.6666671,618,173,472,499,0.02659931,0.0310172,-0.0006694812,-1.445732,3.053349,-0.05450692,-0.009023106,0.009052635,-0.009168255,-0.1384737,-3.07698,2.193969
90,0.6777782,618,173,472,499,0.02336079,0.04164943,0.001403441,-1.446164,3.053453,-0.05472743,-0.02071089,0.02184238,-0.003745577,-0.138038,-3.072621,2.190317
90,0.6888894,618,173,472,499,0.01908014,0.046953,0.000302491,-1.446829,3.053385,-0.05481851,-0.01847691,0.02927831,0.01116401,-0.1373078,-3.071671,2.189521
90,0.7000005,618,173,472,499,0.01373385,0.04802453,0.003492374,-1.447582,3.053585,-0.05469174,-0.007793883,0.02076153,0.01428084,-0.1369738,-3.072597,2.190091
90,0.7111117,618,173,472,499,0.01050211,0.05550056,0.006642586,-1.448601,3.053667,-0.05472583,-0.006877922,0.003746831,-0.007052581,-0.1376785,-3.072095,2.189627
90,0.7222228,649,162,476,497,0.007285081,0.06186903,0.004474023,-1.44947,3.053637,-0.05472796,-0.01441277,-0.01008714,-0.01875274,-0.1385861,-3.072123,2.189985
90,0.7333339,649,162,476,497,0.001956604,0.06290111,0.003396285,-1.450093,3.053659,-0.05461717,-0.01018958,-0.01007953,-0.02410136,-0.1388791,-3.071429,2.189302
90,0.7444451,649,162,476,497,0.004075423,0.06609518,0.002318014,-1.450857,3.053662,-0.0546928,-0.006949399,-0.006892865,-0.01772729,-0.1389435,-3.071283,2.189147
90,0.7555562,649,162,476,497,0.006228384,0.06180651,-0.001920117,-1.451257,3.053493,-0.05478815,-0.007941664,-0.001590147,-0.007046147,-0.138642,-3.072943,2.190938
90,0.7666674,610,175,505,495,0.0116035,0.05115167,-0.006115036,-1.45157,3.053306,-0.05501984,-0.01103393,0.005846146,0.0079002,-0.1381307,-3.07341,2.191601
90,0.7777785,610,175,505,495,0.01907922,0.0458302,-0.009260339,-1.451817,3.053249,-0.05531705,-0.01521567,0.01222426,0.01964917,-0.1376354,-3.073054,2.191551
90,0.7888896,610,175,505,495,0.01909934,0.03945588,-0.006029809,-1.452079,3.053267,-0.05550987,-0.0238396,0.00159101,0.004786544,-0.1380199,-3.073796,2.192717
90,0.8000008,610,175,505,495,0.01484848,0.03303661,-0.00602146,-1.452125,3.05293,-0.05530427,-0.01638041,0.009045725,0.004745441,-0.1378287,-3.072415,2.191308
90,0.8111119,610,175,505,495,0.004187852,0.03301545,-0.001777313,-1.452454,3.052976,-0.05504328,-0.0164372,-0.004795264,-0.00272862,-0.138233,-3.074212,2.193332
90,0.8222231,681,196,463,495,-0.003279716,0.03510853,-0.002864886,-1.452892,3.052932,-0.0547695,-0.01006788,-0.007987019,-0.005973118,-0.1384487,-3.0744,2.193461
90,0.8333342,681,196,463,495,-0.005432647,0.04148257,-0.003964314,-1.453471,3.052882,-0.05467683,-0.009053196,-0.01969828,-0.01345009,-0.1389936,-3.076513,2.195617
90,0.8444453,681,196,463,495,-0.005436152,0.04467596,-0.005042869,-1.454083,3.052804,-0.05472317,-0.01117156,-0.02076956,-0.01025011,-0.1392695,-3.077545,2.196964
90,0.8555565,681,196,463,495,-0.0001235418,0.04895207,-0.008260241,-1.454888,3.052517,-0.05478122,-0.01004979,-0.01119586,-0.003865839,-0.1392919,-3.076899,2.196256
90,0.8666676,687,190,427,491,0.003051024,0.04897586,-0.00610366,-1.455476,3.052767,-0.05465872,-0.00564102,-0.002703937,0.01742223,-0.1385504,-3.078925,2.198197
90,0.8777788,687,190,427,491,0.00414826,0.04472139,-0.00609812,-1.455854,3.052433,-0.05490799,-0.00983651,0.0004876535,0.02704021,-0.138038,-3.079926,2.199456
90,0.8888899,687,190,427,491,-0.001162197,0.03727638,-0.00181782,-1.456177,3.052308,-0.05462889,0.007190367,0.004752161,0.02479965,-0.1377664,-3.079893,2.198985
90,0.900001,687,190,427,491,-0.004299521,0.02234999,-0.001741723,-1.456065,3.052288,-0.05449147,0.003893793,0.003709262,0.009905035,-0.1379864,-3.078495,2.197601
90,0.9111122,687,190,427,491,-0.005338432,0.01913504,-0.002794862,-1.456166,3.052193,-0.05457989,-0.0004360396,-0.01226078,0.0003309813,-0.1384551,-3.081523,2.20078
90,0.9222233,616,173,496,499,-0.002132613,0.01701116,-0.003843593,-1.456282,3.052131,-0.05463635,-0.004682475,-0.01332893,0.002489424,-0.1385073,-3.082901,2.202319
90,0.9333345,616,173,496,499,0.002162175,0.007453666,-0.002723753,-1.456229,3.052104,-0.05473648,-0.004685696,-0.001604945,0.001442779,-0.138249,-3.080504,2.199929
90,0.9444456,616,173,496,499,-0.002062073,-0.005326891,0.0005252396,-1.455837,3.052063,-0.05447869,0.001713768,0.006915613,0.002476034,-0.1379933,-3.078704,2.197948
90,0.9555568,616,173,496,499,-0.002034898,-0.01488376,0.004830339,-1.455537,3.052121,-0.0544169,-0.001471312,0.006908644,0.003563327,-0.1379539,-3.079174,2.198471
90,0.9666679,616,173,496,499,-0.008402163,-0.02345694,-0.000437925,-1.45515,3.052269,-0.05392155,-0.007906429,-0.001604684,-0.001726538,-0.1381978,-3.080285,2.199937
90,0.977779,596,183,483,500,-0.01052406,-0.02457649,-0.01002968,-1.454919,3.051805,-0.05355883,-0.01010133,-0.01117884,-0.01131,-0.1386564,-3.081029,2.200783
90,0.9888902,596,183,483,500,-0.01158356,-0.02355022,-0.01642881,-1.454681,3.051454,-0.0533559,-0.01123278,-0.009034534,-0.02088703,-0.1390703,-3.079245,2.199173
90,1.000001,596,183,483,500,-0.008432144,-0.01605582,-0.01328008,-1.454804,3.051245,-0.05319877,-0.007032242,-0.005840075,-0.02945453,-0.139825,-3.076571,2.196512
90,1.011112,596,183,483,500,-0.0009817462,-0.01390205,-0.01434557,-1.454702,3.05105,-0.05336229,-0.002745599,-0.004785717,-0.02629228,-0.1401068,-3.07609,2.195916
90,1.022224,665,188,537,510,0.005364758,-0.00321568,-0.01119366,-1.454841,3.051077,-0.05360837,0.002685661,0.001591318,-0.01034597,-0.1397025,-3.075399,2.195173
90,1.033335,665,188,537,510,0.01383579,0.007505069,-0.004847114,-1.455218,3.051192,-0.0540089,0.01870451,0.006905168,-0.005126067,-0.1395464,-3.074544,2.193606
90,1.044446,665,188,537,510,0.01378344,0.02030834,-0.0006588557,-1.455723,3.051227,-0.05420491,0.01117804,-0.0005373433,-0.01361107,-0.1400935,-3.073805,2.19312
90,1.055557,665,188,537,510,0.01378096,0.0213678,-0.001729958,-1.455995,3.051161,-0.05434393,-0.001592381,-0.006931393,-0.0114064,-0.1403667,-3.074825,2.194557
90,1.066668,665,188,537,510,0.00527481,0.01496676,0.002556179,-1.455979,3.051346,-0.05415325,-0.01748754,-0.002679082,0.0004165703,-0.1400982,-3.074723,2.195051
90,1.077779,646,204,476,499,0.003191998,0.003267179,0.001526669,-1.456146,3.050949,-0.05411437,-0.01632888,0.02073935,0.01429368,-0.1391896,-3.07186,2.192365
90,1.08889,646,204,476,499,0.003216018,-0.002070811,-0.000574801,-1.455983,3.050894,-0.05413567,-0.01527835,0.01967713,0.01215425,-0.1390138,-3.071127,2.191784
90,1.100002,646,204,476,499,0.002116197,0.002236586,0.004715745,-1.456468,3.050916,-0.05399825,-0.006777819,0.01646994,0.008902144,-0.1390767,-3.072666,2.193129
90,1.111113,646,204,476,499,0.001004605,0.01500409,0.002513722,-1.45699,3.050859,-0.05397056,-0.01755878,-0.004813779,-0.01022492,-0.1398745,-3.0743,2.195165
90,1.122224,569,197,501,503,-0.002258919,0.03098167,0.005621972,-1.45773,3.051045,-0.05385178,-0.02400643,-0.01439447,-0.01765346,-0.1404716,-3.075156,2.196538
90,1.133335,569,197,501,503,-0.003373045,0.04164517,0.004472975,-1.458752,3.050681,-0.05362275,-0.02503513,-0.008016625,-0.01336724,-0.1403891,-3.075681,2.197258
90,1.144446,569,197,501,503,-0.008686733,0.03949938,0.005545019,-1.459119,3.050788,-0.05347574,-0.01952719,0.002602085,0.01217692,-0.1394724,-3.07708,2.198622
90,1.155557,569,197,501,503,-0.01291719,0.0288385,0.00452004,-1.459357,3.050636,-0.05303419,-0.01086229,0.01322003,0.03238837,-0.1383683,-3.079834,2.201188
90,1.166668,569,197,501,503,-0.01285394,0.01285358,0.003542214,-1.459103,3.050673,-0.05290156,-0.008775644,0.008966584,0.02597736,-0.138283,-3.080372,2.20179
90,1.17778,536,189,497,497,-0.01174844,0.001152259,0.005733429,-1.458873,3.05074,-0.05279131,-0.003475022,0.01856422,0.02169161,-0.1379544,-3.077887,2.199195
90,1.188891,536,189,497,497,-0.0116754,-0.01696904,0.003701998,-1.458191,3.050784,-0.05267733,-0.007912565,0.0100791,-0.003857899,-0.1386484,-3.075251,2.196772
90,1.200002,536,189,497,497,-0.01377702,-0.02336873,0.001607525,-1.457969,3.050805,-0.05248664,-0.005770122,0.0004812554,-0.001746395,-0.138715,-3.078326,2.199891
90,1.211113,536,189,497,497,-0.01480619,-0.03190668,-0.0004779838,-1.457351,3.050758,-0.0523162,-0.002559674,-0.003783047,0.0003558965,-0.1387608,-3.079612,2.201101
90,1.222224,536,189,497,497,-0.01370585,-0.03193264,-0.006890262,-1.457045,3.05021,-0.05246267,-0.009995481,-0.003785498,0.004672581,-0.1385744,-3.080445,2.20238
90,1.233335,540,195,480,505,-0.012657,-0.02767661,-0.009044654,-1.456898,3.050034,-0.05231034,-0.008819018,0.006841857,0.02066471,-0.1377493,-3.081478,2.203462
90,1.244446,540,195,480,505,-0.009534828,-0.02015925,-0.001593838,-1.45702,3.050632,-0.05187039,-0.009822469,0.02067893,0.02921647,-0.1369099,-3.080423,2.202504
90,1.255558,540,195,480,505,-0.006369429,-0.01376386,0.002621009,-1.45658,3.050569,-0.0519146,-0.002395755,0.01430252,0.02596213,-0.1366841,-3.08068,2.202681
90,1.266669,540,195,480,505,-0.003189915,-0.009490478,0.002602379,-1.456584,3.05061,-0.05197159,0.006104384,0.01856838,0.02271369,-0.1363698,-3.079617,2.201343
90,1.27778,577,175,497,497,-5.263858E-05,0.001182301,0.003599886,-1.456901,3.050461,-0.0518086,0.003948139,0.004728182,0.01950662,-0.1364423,-3.081138,2.202922
90,1.288891,577,175,497,497,0.004192179,0.005459764,0.003582818,-1.457062,3.050484,-0.05198171,0.003911344,0.002605359,0.01417716,-0.136438,-3.081321,2.203068
90,1.300002,577,175,497,497,0.002071626,0.003281273,0.001464112,-1.456617,3.050511,-0.05192312,0.006031482,0.002603711,0.01311604,-0.1361248,-3.083152,2.20482
90,1.311113,577,175,497,497,0.005279967,-0.0009740854,0.004687894,-1.456149,3.05066,-0.05210954,0.004898286,0.009011906,0.003546604,-0.1360769,-3.080723,2.202414
90,1.322224,577,175,497,497,0.006366363,-0.005252294,0.001515712,-1.455923,3.050592,-0.05220648,0.002769438,0.01115199,0.003562718,-0.1358798,-3.078917,2.200624
90,1.333336,574,182,498,502,0.005304057,-0.00636116,-0.001673085,-1.455522,3.050552,-0.05213457,-0.0005327808,-0.002679699,-0.01027939,-0.1364348,-3.079901,2.201832
90,1.344447,574,182,498,502,0.001023291,-4.263595E-06,-0.004908904,-1.455657,3.050413,-0.05199289,-0.001609602,-0.006934517,-0.01241808,-0.136772,-3.079305,2.201241
90,1.355558,574,182,498,502,0.001021537,0.006396236,-0.007077347,-1.456161,3.050213,-0.05228744,-0.005903179,-0.01012046,-0.01878066,-0.137132,-3.079018,2.20097
90,1.366669,574,182,498,502,0.008456483,0.01175713,-0.006030112,-1.456426,3.050132,-0.05256175,-0.009113714,-0.01011737,-0.02088911,-0.137458,-3.078442,2.200582
90,1.37778,508,189,501,501,0.008445498,0.01283672,-0.006049972,-1.45676,3.049846,-0.05250156,-0.002653909,-0.003735069,-0.010259,-0.1370218,-3.078621,2.200689
90,1.388891,508,189,501,501,0.007359711,0.01390191,-0.004974925,-1.456946,3.0501,-0.0523668,0.009195697,0.00369522,0.00884555,-0.1363853,-3.079684,2.201318
90,1.400002,508,189,501,501,0.00836942,0.02350716,-0.00183411,-1.457429,3.050069,-0.05226986,0.007003879,-0.001618193,0.0003244187,-0.1367448,-3.079261,2.200937
90,1.411114,508,189,501,501,0.008361993,0.02668547,-0.005047487,-1.457808,3.049892,-0.05233857,0.002729842,-0.01120598,-0.001788875,-0.1370734,-3.081227,2.202968
90,1.422225,508,189,501,501,0.005181916,0.02560909,-0.005047974,-1.458066,3.049798,-0.05244084,0.00272523,-0.01333001,-0.002852351,-0.137115,-3.082116,2.203768
90,1.433336,510,174,526,504,0.007325912,0.02132596,-0.006083487,-1.45782,3.049765,-0.05252606,0.006001033,-0.008021077,0.007780427,-0.1368535,-3.083243,2.204639
90,1.444447,510,174,526,504,0.0009680213,0.01382599,-0.009246285,-1.457746,3.049591,-0.05235828,0.004987408,0.002621039,0.01526017,-0.1363709,-3.08305,2.204434
90,1.455558,510,174,526,504,-8.318108E-05,0.01062419,-0.01135622,-1.45793,3.049479,-0.0522949,0.008206418,0.01540903,0.01845079,-0.1358026,-3.080417,2.201661
90,1.466669,510,174,526,504,-0.002218591,0.01063354,-0.008163563,-1.458018,3.049468,-0.05220275,0.008176992,0.02180699,0.01419898,-0.1354995,-3.078227,2.199404
90,1.47778,506,182,503,498,-0.00223196,0.0138418,-0.004980921,-1.458184,3.049539,-0.05226081,0.005980879,0.01755697,0.005696725,-0.135499,-3.078154,2.199446
90,1.488891,506,182,503,498,-0.007594276,0.02235522,-0.0029051,-1.458668,3.04953,-0.05205894,-0.003744906,-0.001593866,-0.01450556,-0.1363693,-3.078734,2.200294
90,1.500003,506,182,503,498,-0.005497653,0.03089128,-0.002946466,-1.459322,3.049502,-0.05202432,-0.006946145,-0.006921154,-0.01556369,-0.1367395,-3.078952,2.200619
90,1.511114,506,182,503,498,-0.006596759,0.03834598,-0.002992551,-1.45993,3.049374,-0.05184695,-0.003673433,-0.003744802,-0.004924814,-0.1365088,-3.080187,2.201762
90,1.522225,506,182,503,498,-0.002363414,0.04686699,-0.006228827,-1.460644,3.049169,-0.05191087,-0.0004739831,-0.00481766,-0.00281814,-0.1365658,-3.081209,2.202836
90,1.533336,516,190,498,498,-0.002373457,0.05111361,-0.009444315,-1.461332,3.048998,-0.05189382,-0.004734598,-0.01120957,-0.002795545,-0.1367443,-3.082902,2.204679
90,1.544447,516,190,498,498,-0.003473714,0.05857306,-0.007355504,-1.462081,3.048962,-0.05176759,-0.003725588,-0.01012289,-0.01133375,-0.1370862,-3.080406,2.202194
90,1.555558,516,190,498,498,-0.007744625,0.0606931,-0.006308274,-1.462809,3.048889,-0.05156679,-0.004782059,-0.00799576,-0.01026239,-0.1372311,-3.080082,2.201928
90,1.566669,516,190,498,498,-0.006718405,0.06924275,-0.002092366,-1.4638,3.048912,-0.05152045,0.003747479,-0.009062572,-0.009257637,-0.1373722,-3.080373,2.201949
90,1.577781,516,190,498,498,-0.004604436,0.07140734,2.041319E-05,-1.464787,3.048763,-0.05143789,0.001639253,-0.01653172,-0.006060443,-0.1376711,-3.083318,2.204913
90,1.588892,496,180,493,500,-0.00141187,0.07035522,3.46615E-05,-1.465551,3.048795,-0.05140167,0.001631875,-0.01759548,-0.00712726,-0.1379198,-3.084177,2.205746
90,1.600003,496,180,493,500,-0.0003635436,0.0725093,0.002168257,-1.466564,3.048988,-0.05136705,0.002695136,-0.01226909,-0.00712856,-0.1379965,-3.083527,2.205091
90,1.611114,496,180,493,500,0.002868161,0.06398769,8.924748E-05,-1.467033,3.048902,-0.05147358,-0.004758762,-0.01440504,-0.007079259,-0.1382106,-3.084801,2.20656
90,1.622225,496,180,493,500,0.01037563,0.05335398,-0.003035599,-1.467464,3.048792,-0.05184056,-0.003685599,-0.006944152,-0.006016092,-0.1381792,-3.084012,2.205844
90,1.633336,541,193,483,503,0.0157407,0.04375931,-0.005100308,-1.467524,3.048776,-0.05211913,-0.003718802,-0.00587701,-0.01133555,-0.1384125,-3.083225,2.205011
90,1.644447,541,193,483,503,0.01262451,0.02454877,-0.009260821,-1.467262,3.048585,-0.05214683,-0.004818294,-0.01332995,-0.01560199,-0.1387965,-3.082174,2.204072
90,1.655559,541,193,483,503,0.01262451,0.02454877,-0.009260821,-1.467262,3.048585,-0.05214683,-0.004818294,-0.01332995,-0.01560199,-0.1387965,-3.082174,2.204072
90,1.66667,541,193,483,503,0.0137705,9.639189E-06,-0.01123552,-1.466397,3.048662,-0.05223684,-0.004839299,-0.01546233,-0.01879103,-0.1394058,-3.085218,2.207271
90,1.677781,541,193,483,503,0.02234248,-0.01060898,-0.01330833,-1.466199,3.048281,-0.05274497,-0.009057852,-0.01121414,-0.01343563,-0.1395251,-3.085086,2.207266
90,1.688892,551,187,501,502,0.02127806,-0.0116666,-0.01117348,-1.466036,3.048223,-0.0529479,0.004856906,-0.001640298,-0.003929904,-0.1392066,-3.084732,2.206469
90,1.700003,551,187,501,502,0.02872806,-0.01055265,-0.007968095,-1.466002,3.048259,-0.05351196,0.01020367,0.0004928736,-0.0007783496,-0.1391827,-3.083419,2.204979
90,1.711114,551,187,501,502,0.02869992,-0.004143145,-0.004804078,-1.466134,3.048322,-0.05382089,0.01446474,0.006884705,-0.0007984834,-0.1390314,-3.081871,2.203166
90,1.722225,551,187,501,502,0.02762016,-0.001993218,-0.0005562671,-1.466158,3.04843,-0.05412076,0.005890882,0.01115932,-0.008187264,-0.1390895,-3.079163,2.200699
90,1.733337,504,177,450,503,0.02335184,-0.004156226,-0.004797942,-1.466077,3.048435,-0.0539354,-0.005893379,0.006911681,-0.01770233,-0.1395342,-3.077604,2.199549
90,1.744448,504,177,450,503,0.0169731,-0.00632881,-0.007991608,-1.465948,3.048274,-0.05393008,-0.004754051,0.01541745,-0.007040955,-0.139099,-3.076558,2.198525
90,1.755559,504,177,450,503,0.0148417,-0.005286789,-0.009060171,-1.465814,3.048271,-0.0540856,-0.00260198,0.01115285,-0.003862301,-0.1390037,-3.076541,2.198466
90,1.76667,504,177,450,503,0.01376497,-0.001047325,-0.01228103,-1.465906,3.048038,-0.05418361,0.001666482,0.009020761,-0.002829614,-0.1389861,-3.076252,2.198054
90,1.777781,504,177,450,503,0.02014381,0.007530106,-0.005918647,-1.466146,3.048232,-0.05500759,0.008999347,0.005862841,-0.01993534,-0.1394964,-3.072125,2.193748
90,1.788892,490,189,474,494,0.01795768,0.02245318,-0.001727334,-1.466732,3.048497,-0.05527923,0.005763806,0.009067157,-0.02523798,-0.1397707,-3.068958,2.190704
90,1.800003,490,189,474,494,0.01689241,0.03099575,0.002467978,-1.46728,3.048353,-0.05597432,0.006911715,0.003726291,-0.01246933,-0.139597,-3.070096,2.19181
90,1.811115,490,189,474,494,0.0168771,0.03736831,0.00138398,-1.467672,3.048532,-0.0562955,0.006987938,0.006902278,-0.001811771,-0.1393174,-3.070741,2.192329
90,1.822226,490,189,474,494,0.01154747,0.03735972,0.003506657,-1.468106,3.048605,-0.05630349,0.003905611,0.00794317,0.01526399,-0.1386229,-3.073335,2.195014
90,1.833337,554,202,431,492,0.009414822,0.03734066,0.002457879,-1.46845,3.048859,-0.05633651,-0.004601438,0.01327655,0.01745454,-0.1382266,-3.071129,2.193122
90,1.844448,554,202,431,492,-0.0001516528,0.03092417,0.004609422,-1.468647,3.048958,-0.0560606,-0.009942546,0.01327956,0.01536087,-0.1380412,-3.070781,2.193048
90,1.855559,554,202,431,492,-0.01181379,0.01810291,0.005730211,-1.468529,3.049109,-0.05579802,-0.01424634,0.01222177,0.008999925,-0.1380109,-3.07008,2.192609
90,1.86667,554,202,431,492,-0.01817398,0.01060994,0.003631241,-1.468445,3.049093,-0.05542358,-0.0164132,-0.008012809,0.003658664,-0.1384993,-3.073585,2.196335
90,1.877781,554,202,431,492,-0.01705408,-0.00538362,0.00161276,-1.467922,3.049418,-0.0551807,-0.0132541,-0.01439785,-0.00063188,-0.138731,-3.074986,2.197888
90,1.888893,559,181,475,499,-0.007443311,-0.01171617,0.00379608,-1.467815,3.049556,-0.05536605,-0.01324371,-0.01760155,0.0004239194,-0.1389712,-3.076885,2.199896
90,1.900004,559,181,475,499,-0.01064728,-0.009597818,0.003779611,-1.467754,3.049597,-0.05517963,-0.003571786,-0.003764796,0.01316505,-0.1382964,-3.076799,2.199638
90,1.911115,559,181,475,499,-0.01065628,-0.005317688,0.006924947,-1.467853,3.049393,-0.05519668,-0.002500542,0.00475345,0.01423534,-0.1380167,-3.076022,2.198887
90,1.922226,559,181,475,499,-0.01173458,-0.001072367,0.004769373,-1.467969,3.049395,-0.05504381,-0.005711084,0.003691191,0.01212536,-0.1379427,-3.076201,2.19922
90,1.933337,559,181,475,499,-0.01600339,0.006411175,0.01110568,-1.468319,3.049552,-0.05519987,-0.006780474,-0.0005666502,0.01213281,-0.1377999,-3.077651,2.200799
90,1.944448,537,194,488,494,-0.01494143,0.008528234,0.007899702,-1.468475,3.049527,-0.05507204,-0.01429627,-0.00801144,0.00365137,-0.1381126,-3.078697,2.202174
90,1.955559,537,194,488,494,-0.01600313,0.007454759,0.007902559,-1.468484,3.049602,-0.05488828,-0.01961703,-0.0005444195,0.005830803,-0.1377765,-3.076926,2.20091
90,1.966671,537,194,488,494,-0.01382759,-0.001040718,0.009025363,-1.468426,3.049807,-0.05501984,-0.01202769,0.01860299,0.02498216,-0.1366489,-3.076045,2.199955
90,1.977782,537,194,488,494,-0.01593673,-0.007427983,0.01118871,-1.468186,3.050021,-0.05481158,-0.009895785,0.002634346,0.02495283,-0.1365024,-3.079433,2.203344
90,1.988893,520,171,530,500,-0.01166556,-0.01378057,0.01547746,-1.46784,3.050135,-0.05470559,-0.006726543,-0.001623636,0.02066815,-0.1364662,-3.081105,2.204954
90,2.000004,520,171,530,500,-0.01166642,-0.01272703,0.01334102,-1.467709,3.050208,-0.05455379,-0.00468851,-0.01012179,0.007859606,-0.1367943,-3.081556,2.20546
90,2.011115,520,171,530,500,-0.01062924,-0.008461629,0.01120779,-1.467972,3.050536,-0.05428161,-0.01450826,-0.02712209,-0.02618522,-0.1383368,-3.081221,2.205526
90,2.022226,520,171,530,500,-0.009571156,-0.007380579,0.01333404,-1.467946,3.050739,-0.05423208,-0.01556065,-0.01433521,-0.02401819,-0.1381669,-3.079105,2.203681
90,2.033337,520,171,530,500,-0.008557436,0.005418486,0.01539603,-1.468349,3.050924,-0.05418521,-0.007960134,-0.0005194829,-0.003808735,-0.1374761,-3.07963,2.204017
90,2.044448,513,168,504,501,-0.005353647,0.004364864,0.01434865,-1.468467,3.05114,-0.05427575,-0.007845061,0.00372551,0.0121728,-0.1368769,-3.080677,2.205065
90,2.055559,513,168,504,501,-0.003272928,0.01715478,0.01641422,-1.468852,3.051413,-0.05435725,-0.01104103,0.0005330481,0.01006573,-0.1368886,-3.081701,2.2061
90,2.06667,513,168,504,501,-0.0001068618,0.02462967,0.01744306,-1.46935,3.05161,-0.05449414,-0.003569276,-0.002665673,0.01213989,-0.1367869,-3.083349,2.207567
90,2.077781,513,168,504,501,0.005196966,0.03103564,0.01635032,-1.469896,3.051728,-0.05472636,-0.01439833,-0.01221852,-0.01231263,-0.1378351,-3.081465,2.206261
90,2.088892,524,166,477,499,0.005194452,0.03636762,0.01524299,-1.470551,3.051603,-0.05497031,-0.01868466,-0.01221675,-0.01653903,-0.1381403,-3.081593,2.206662
90,2.100003,524,166,477,499,0.004152516,0.03102548,0.01314022,-1.470751,3.051696,-0.05501079,-0.02077324,-0.005831577,-0.01119095,-0.1381733,-3.082095,2.207329
90,2.111114,524,166,477,499,0.004172251,0.02252857,0.01532552,-1.470967,3.052016,-0.05495379,-0.01643616,-0.004788063,-0.000560116,-0.1378117,-3.083206,2.208486
90,2.122225,524,166,477,499,0.01056644,0.02149349,0.01640609,-1.471205,3.052215,-0.05524408,-0.009057203,-0.0005033151,-0.01126457,-0.1380934,-3.079668,2.204935
90,2.133336,524,166,477,499,0.008458505,0.01616068,0.0164388,-1.471302,3.052504,-0.0553522,-0.01023767,-0.006867291,-0.02830825,-0.138838,-3.07761,2.203016
90,2.144447,519,162,507,497,0.01274731,0.01190032,0.01327604,-1.471368,3.052591,-0.05569043,-0.009290364,-0.01962579,-0.04537873,-0.1399864,-3.076776,2.202281
90,2.155558,519,162,507,497,0.009560635,0.01081178,0.0132891,-1.471331,3.052924,-0.0558092,-0.01468045,-0.02386594,-0.05493289,-0.1407523,-3.074923,2.200706
90,2.166669,519,162,507,497,0.01067373,-0.002016604,0.006972907,-1.470814,3.052904,-0.05581773,-0.01039755,-0.01108691,-0.05174789,-0.1410154,-3.071647,2.197434
90,2.17778,519,162,507,497,0.01385344,0.002256633,0.006954123,-1.470946,3.052974,-0.05605954,-0.01239413,-0.002577678,-0.03254575,-0.1406144,-3.070011,2.196005
90,2.188891,551,174,512,498,0.01174631,-0.002010023,0.009114582,-1.470735,3.053288,-0.05632639,0.002682112,0.011236,-0.009195986,-0.1399502,-3.069346,2.194903
90,2.200002,551,174,512,498,0.01279865,0.002243372,0.006962085,-1.470879,3.053317,-0.05648724,0.006916228,0.002719311,-0.01350183,-0.1403672,-3.069266,2.194598
90,2.211113,551,174,512,498,0.0106387,0.008646348,0.00905062,-1.471259,3.053402,-0.05653252,0.003697809,-0.007930434,-0.0166874,-0.1408066,-3.070609,2.196026
90,2.222224,551,174,512,498,0.00636778,0.01286778,0.004759718,-1.471502,3.053318,-0.05649843,0.002648756,-0.0111279,-0.01455464,-0.1410048,-3.071072,2.196491
90,2.233335,551,174,512,498,0.003158215,0.01605735,0.00580266,-1.471761,3.053389,-0.05645156,-0.004818276,-0.006867771,-0.01556315,-0.1411742,-3.069959,2.195693
90,2.244446,583,194,507,498,-0.002173882,0.01705841,0.001527278,-1.471651,3.053291,-0.05615009,-0.0005207224,0.009104036,-0.01024294,-0.1408578,-3.067109,2.192771
90,2.255557,583,194,507,498,0.005276326,0.01605039,0.00899912,-1.47164,3.053599,-0.05645262,0.002664247,0.005919467,-0.01239556,-0.1409238,-3.066234,2.191729
90,2.266668,583,194,507,498,0.009519861,0.01822823,0.0111137,-1.472134,3.053587,-0.05655755,0.003671778,0.002733444,-0.02092861,-0.1413143,-3.064934,2.190373
90,2.277779,583,194,507,498,0.01059664,0.01930099,0.01110478,-1.472427,3.05361,-0.05691495,0.0004408006,-0.001517367,-0.02623342,-0.1416312,-3.064006,2.18951
90,2.28889,583,194,507,498,0.01701037,0.01609431,0.004740406,-1.47249,3.053485,-0.05726222,-0.006937085,-0.008994723,-0.01553437,-0.1417063,-3.066882,2.192569
90,2.300001,543,201,499,494,0.01807616,0.0182015,0.001529854,-1.472646,3.053367,-0.05753919,-0.01644575,0.01122868,-0.00372952,-0.1412322,-3.063729,2.189901
90,2.311112,543,201,499,494,0.01699556,0.02142665,0.003641968,-1.473251,3.053415,-0.05769525,-0.01321462,0.01868063,0.001592343,-0.1407667,-3.062036,2.188285
90,2.322223,543,201,499,494,0.01483779,0.02677407,0.008934597,-1.473668,3.053636,-0.05784972,-0.01000261,0.01973712,0.003705068,-0.1405776,-3.061754,2.187976
90,2.333334,543,201,499,494,0.01058378,0.02461105,0.01000785,-1.473584,3.053821,-0.05789978,-0.004723636,-0.002634845,-0.00382949,-0.1413547,-3.064939,2.190997
90,2.344445,592,181,484,497,0.008459371,0.02567261,0.01105725,-1.473863,3.053837,-0.05811657,-0.01226848,-0.0228571,-0.01659064,-0.1422133,-3.067186,2.193544
90,2.355556,592,181,484,497,0.006335572,0.0192434,0.005769149,-1.473903,3.053849,-0.05777834,-0.01115912,-0.01860791,-0.01020145,-0.1422043,-3.067721,2.194172
90,2.366668,592,181,484,497,0.00529759,0.01283596,0.003671778,-1.473886,3.053831,-0.05781989,-0.01328256,-0.0111525,-0.009110433,-0.1422256,-3.066982,2.193647
90,2.377779,592,181,484,497,0.01177796,-0.009544082,-0.001533318,-1.473089,3.053549,-0.05804946,-0.01324895,0.002695664,-0.003769963,-0.1419055,-3.064,2.190878
90,2.38889,592,181,484,497,0.01501736,-0.02021335,-0.001482045,-1.472236,3.05344,-0.05832962,-0.006805918,0.01333801,0.003658135,-0.141433,-3.06238,2.189173
90,2.400001,530,160,478,496,0.01395781,-0.02338976,0.002795114,-1.471901,3.053586,-0.05846118,-0.003613559,0.016526,0.002565221,-0.1414916,-3.060988,2.187656
90,2.411112,530,160,478,496,0.01287981,-0.02230432,0.003839103,-1.471971,3.053446,-0.058442,-0.002540114,0.006942017,0.003593137,-0.1416967,-3.061016,2.187693
90,2.422223,530,160,478,496,0.009646396,-0.01275811,-0.000481877,-1.471953,3.053322,-0.0583392,-0.01322174,-0.007966477,-0.0006158003,-0.1420834,-3.063313,2.190377
90,2.433334,530,160,478,496,0.005345616,-0.006363078,-0.0005195728,-1.472321,3.053335,-0.05807183,-0.013169,-0.002653254,0.006847297,-0.1418453,-3.063788,2.190991
90,2.444445,627,170,469,497,0.004230993,0.007469711,-0.002728018,-1.472753,3.053205,-0.05806277,-0.01095787,0.001585612,0.01855471,-0.1414139,-3.065502,2.192753
90,2.455556,627,170,469,497,-6.531179E-05,0.01494503,0.001491697,-1.473238,3.053399,-0.05798394,-0.01095909,0.003704507,0.01854925,-0.1413595,-3.066024,2.193384
90,2.466667,627,170,469,497,-0.007549658,0.02342156,-0.001761989,-1.473729,3.053268,-0.05767502,-0.01420653,0.0005194079,0.01110984,-0.1414511,-3.066197,2.193798
90,2.477778,627,170,469,497,-0.02041391,0.03297646,0.0003165093,-1.47439,3.053555,-0.05655382,-0.006838897,-0.003717923,-0.001735792,-0.141857,-3.065123,2.192636
90,2.488889,627,170,469,497,-0.02149164,0.03405124,0.001363194,-1.474898,3.053398,-0.05617246,-0.012215,-0.01329005,-0.008105835,-0.1422352,-3.065779,2.193641
90,2.5,590,167,498,502,-0.01183086,0.02768888,0.0003169221,-1.475,3.052939,-0.05693625,-0.01429776,-0.01329684,-0.001706833,-0.1422725,-3.06661,2.194636
90,2.511111,590,167,498,502,-0.007564642,0.02558766,0.002466346,-1.475268,3.053017,-0.05697141,-0.007839536,-0.01011565,0.007833898,-0.1420924,-3.067655,2.195592
90,2.522222,590,167,498,502,-0.008572979,0.01918913,0.00249811,-1.47526,3.053005,-0.05728513,-0.003585792,-0.01117909,0.006737457,-0.1421334,-3.068706,2.196568
90,2.533333,590,167,498,502,-0.01386517,0.01063909,0.001471743,-1.475127,3.052996,-0.05699484,-0.007864388,0.0005270429,0.00464978,-0.1421313,-3.067874,2.195988
90,2.544444,590,167,498,502,-0.009571494,0.005280788,-0.006993321,-1.475048,3.053005,-0.05700976,-0.0003850583,-0.003738357,0.007787527,-0.1420493,-3.069382,2.197286
90,2.555555,705,174,486,497,-0.008496844,0.003146417,-0.008045522,-1.474993,3.052901,-0.05691655,-0.0004320899,-0.007990923,0.002448428,-0.1423199,-3.069891,2.197954
90,2.566666,705,174,486,497,-0.007408061,0.003122119,-0.01123178,-1.474903,3.052836,-0.0571328,-0.002577559,-0.005857335,0.0003358328,-0.1423667,-3.06974,2.197893
90,2.577777,705,174,486,497,-0.001098895,0.01382924,-0.006990185,-1.475481,3.053244,-0.05680523,-0.005726357,0.005842326,0.007835717,-0.1419236,-3.069674,2.198042
90,2.588888,705,174,486,497,0.002102494,0.0127702,-0.008044858,-1.47559,3.05312,-0.05691921,-0.00136645,0.01860042,0.02166996,-0.1411987,-3.06937,2.197601
90,2.599999,685,193,468,494,0.00315153,0.01491346,-0.003832961,-1.475609,3.052619,-0.05692666,0.00500685,0.0154092,0.01948326,-0.1411049,-3.06915,2.197194
90,2.61111,685,193,468,494,0.005304395,0.009570517,-0.003797731,-1.475221,3.052651,-0.05707154,0.003882711,0.0005186088,0.01201165,-0.1413201,-3.070169,2.198319
90,2.622221,685,193,468,494,0.007503317,-0.008531073,-0.003694621,-1.474674,3.052652,-0.05721482,0.003883098,-0.005873165,0.01200224,-0.1413388,-3.071953,2.200051
90,2.633332,685,193,468,494,0.006481383,-0.01919959,-0.00576791,-1.474165,3.052562,-0.05724944,0.003899644,-0.002687203,0.01413732,-0.1411534,-3.072906,2.200924
90,2.644443,685,193,468,494,0.006527234,-0.03731483,-0.008873652,-1.473471,3.052262,-0.05688618,0.004942115,0.006905237,0.01094821,-0.1409318,-3.071078,2.199045
90,2.655554,580,190,488,493,0.004425157,-0.04475948,-0.00563836,-1.472848,3.052356,-0.05697194,0.008042841,0.002677236,-0.001855415,-0.141024,-3.069459,2.197362
90,2.666665,580,190,488,493,-0.008392654,-0.03943986,-0.0003718345,-1.472724,3.052337,-0.05645369,0.006891945,-0.005830867,-0.01464313,-0.1413627,-3.069091,2.196889
90,2.677776,580,190,488,493,-0.01052278,-0.03519149,-0.001474182,-1.47245,3.052154,-0.0564947,0.01007435,-0.009027751,-0.01680273,-0.1418975,-3.069596,2.197214
90,2.688887,580,190,488,493,-0.005224165,-0.02878069,-0.003646815,-1.472461,3.05184,-0.05645795,0.00586739,-0.009041337,-0.009314175,-0.1418442,-3.070932,2.198524
90,2.699998,566,182,510,492,0.008548842,-0.005285528,-0.0015944,-1.472967,3.052311,-0.05718978,0.008035715,-0.009052023,-0.003994742,-0.1417329,-3.072582,2.2
90,2.711109,566,182,510,492,0.01272561,0.01500435,0.001480771,-1.473831,3.052127,-0.0573549,0.009098167,-0.003722583,-0.003992689,-0.1416786,-3.071663,2.198998
90,2.72222,566,182,510,492,0.01374393,0.02672677,0.001420464,-1.474427,3.052144,-0.05746835,0.001644364,0.002659925,-0.003933089,-0.1417025,-3.070788,2.198278
90,2.733331,566,182,510,492,0.004090428,0.0437621,0.004512719,-1.475453,3.052278,-0.05726329,0.002719422,0.0005340867,-0.001805424,-0.1415353,-3.071245,2.198731
90,2.744442,710,198,480,495,-0.002303265,0.04374382,0.005573156,-1.475954,3.05242,-0.05706036,-0.008007915,-0.003711065,-0.01238972,-0.1419449,-3.070317,2.198177
90,2.755553,710,198,480,495,-0.002303265,0.04374382,0.005573156,-1.475954,3.05242,-0.05706036,-0.008007915,-0.003711065,-0.01238972,-0.1419449,-3.070317,2.198177
90,2.766664,710,198,480,495,-7.892214E-05,0.01923848,0.002520198,-1.475878,3.05247,-0.05707261,-0.005775242,-0.003727946,0.002517724,-0.1415273,-3.072428,2.200361
90,2.777775,710,198,480,495,0.01175084,-0.006322689,-0.001605881,-1.474773,3.052068,-0.05766809,-0.01001156,0.002655387,0.006817466,-0.1412605,-3.072116,2.200359
90,2.788886,710,198,480,495,0.01608506,-0.02548628,-0.002558011,-1.473907,3.052056,-0.05794559,-0.002530849,0.005850731,0.01103195,-0.1409297,-3.071849,2.199976
90,2.799997,710,198,480,495,0.01932583,-0.03509554,-0.007839965,-1.473203,3.051674,-0.05820871,-0.0003993828,0.0111774,0.01102244,-0.1407033,-3.070762,2.19881
90,2.811108,574,164,481,497,0.01825091,-0.03296316,-0.006787989,-1.472895,3.051656,-0.05838555,-0.002598533,0.006931813,0.001445621,-0.1406943,-3.069199,2.197292
90,2.822219,574,164,481,497,0.009693533,-0.02127325,-0.005797045,-1.47302,3.051676,-0.0583978,-0.001540645,0.003738214,0.0003730461,-0.1408695,-3.070398,2.198542
90,2.83333,574,164,481,497,0.005397334,-0.01065667,-0.004786681,-1.47283,3.051822,-0.05845638,-0.004756303,0.004810889,-0.001736535,-0.1408786,-3.069117,2.197477
90,2.844441,574,164,481,497,0.001099328,-0.002107858,0.001557761,-1.473179,3.052079,-0.05843721,0.001622114,0.0016137,-0.003919647,-0.1410357,-3.069349,2.197469
90,2.855552,513,147,511,504,0.007481032,0.007510666,0.001498553,-1.47358,3.051852,-0.05909022,0.003764543,0.002678185,-0.001800828,-0.1409387,-3.069044,2.197119
90,2.866663,513,147,511,504,0.008505071,0.01711239,0.003578239,-1.474023,3.051916,-0.05919195,0.01014219,-0.005849431,-0.003990315,-0.141302,-3.070888,2.198645
90,2.877774,513,147,511,504,0.01380548,0.02350624,0.003562201,-1.474205,3.052104,-0.0594865,0.01121924,-0.003722602,-0.002941986,-0.1414325,-3.070067,2.197628
90,2.888885,513,147,511,504,0.006288566,0.03944553,0.0013341,-1.475147,3.052009,-0.05927664,0.002695122,-0.006916692,-0.002884712,-0.1415332,-3.070986,2.198809
90,2.899997,513,147,511,504,-0.0001394339,0.0447626,-0.0008284338,-1.476164,3.051974,-0.05878449,-0.003717588,-0.0005243327,-0.006028562,-0.1415758,-3.069447,2.197478
90,2.911108,480,153,482,497,-0.002281982,0.05115185,0.00125946,-1.476798,3.051973,-0.05894588,-0.01015806,-0.001583373,-0.0134447,-0.1419539,-3.068521,2.196821
90,2.922219,480,153,482,497,0.0009138919,0.04905592,0.005540049,-1.477296,3.052188,-0.05903802,-0.01230086,-0.002655801,-0.01557151,-0.1423699,-3.068388,2.196823
90,2.93333,480,153,482,497,-0.0001004152,0.03942322,0.0002707096,-1.477288,3.05212,-0.05907104,-0.003770722,-0.007983265,-0.01457019,-0.1426011,-3.069508,2.197725
90,2.944441,480,153,482,497,0.002076924,0.02665389,0.001409649,-1.477218,3.052172,-0.05916745,-0.0005736314,-0.01436726,-0.01460282,-0.1428802,-3.070375,2.198472
90,2.955552,512,155,528,497,0.008520022,0.01599339,-0.001720173,-1.476913,3.052053,-0.0595387,-0.001597882,-0.01011386,-0.008199656,-0.1428014,-3.070289,2.198499
90,2.966663,512,155,528,497,0.008558745,0.006394363,-0.003799098,-1.476806,3.051999,-0.05958237,0.001686419,0.006917467,0.004595807,-0.1418991,-3.068778,2.196899
90,2.977774,512,155,528,497,0.01174881,0.008530974,-0.004870216,-1.476837,3.051868,-0.05984017,0.005958292,0.007982111,0.005630738,-0.1418559,-3.068484,2.196357
90,2.988885,512,155,528,497,0.009611354,0.01174626,0.0004379711,-1.477098,3.052069,-0.06007506,0.002693171,-0.002661111,-0.005020283,-0.1424306,-3.06906,2.196927
90,2.999996,512,155,528,497,0.01065163,0.02025912,-0.003879388,-1.477713,3.051693,-0.06020129,0.002674408,-0.00798203,-0.008227343,-0.1427561,-3.069517,2.197346
90,3.011107,541,163,510,502,0.006356712,0.02450079,-0.002839847,-1.477951,3.051758,-0.05991686,-0.002614154,-0.01331837,-0.002876104,-0.1428733,-3.071401,2.199391
90,3.022218,541,163,510,502,0.004212353,0.02874771,-0.00392514,-1.478384,3.051736,-0.05990408,-0.004752083,-0.003725111,-0.003907502,-0.1426826,-3.069694,2.197814
90,3.033329,541,163,510,502,0.004206652,0.02555482,-0.003907213,-1.478577,3.05166,-0.0596841,-0.00579932,0.003730319,-0.000696476,-0.1424583,-3.067983,2.196245
90,3.04444,541,163,510,502,0.005285604,0.02130398,-0.002812067,-1.478672,3.051725,-0.05976133,0.0005856892,0.006934119,-0.001796133,-0.1423161,-3.066697,2.194748
90,3.055551,541,163,510,502,0.005271692,0.02024867,0.0003847926,-1.47876,3.051766,-0.05964948,0.004802922,0.002682557,-0.008222183,-0.1426016,-3.066154,2.194011
90,3.066662,466,181,493,499,0.00953764,0.01919517,0.0003981706,-1.478938,3.051758,-0.05974163,0.001567123,-0.009025674,-0.01460724,-0.1431646,-3.067505,2.195402
90,3.077773,466,181,493,499,0.004220473,0.01490571,-0.000646056,-1.478891,3.0518,-0.05965268,-0.0005260454,-0.01009922,-0.009271068,-0.1431875,-3.068231,2.196171
90,3.088884,466,181,493,499,0.005286766,0.01490327,-0.001707563,-1.479055,3.051773,-0.05974056,-0.008005743,-0.00370341,-0.01240544,-0.1432743,-3.066583,2.194849
90,3.099995,466,181,493,499,0.005305324,0.01172809,-0.000628166,-1.479284,3.051728,-0.05990994,-0.01225272,0.004815383,-0.01023256,-0.1431161,-3.064526,2.193088
90,3.111106,499,184,485,493,0.00320656,0.005318571,-0.002726369,-1.479126,3.051621,-0.05994776,-0.006810718,0.01118304,0.00679602,-0.1422906,-3.065973,2.194449
90,3.122217,499,184,485,493,0.006399401,0.005340599,-0.0005894662,-1.479189,3.051718,-0.0601182,-0.004705952,0.0005392954,0.003579658,-0.1423832,-3.067756,2.19624
90,3.133328,499,184,485,493,0.008520445,0.006432804,0.003672662,-1.479237,3.051938,-0.06031048,0.003754385,0.00267873,-0.006058373,-0.1426112,-3.066645,2.194777
90,3.144439,499,184,485,493,0.007442676,0.00858127,0.007928193,-1.479424,3.052271,-0.06040316,0.001544736,-0.01008653,-0.01671828,-0.1432845,-3.066732,2.194996
90,3.15555,499,184,485,493,0.004223752,0.01391246,0.008967131,-1.479896,3.052444,-0.06032326,0.00155673,-0.01860814,-0.0146009,-0.1436126,-3.068655,2.196948
90,3.166661,467,168,509,506,0.003151946,0.01708342,0.003621107,-1.48029,3.052272,-0.06027799,-0.004788008,-0.01969629,-0.008170972,-0.1437814,-3.071431,2.199905
90,3.177772,467,168,509,506,0.003129749,0.02242734,0.006782136,-1.480706,3.052361,-0.06036161,-0.003725382,-0.00158842,-0.008157127,-0.1436424,-3.067862,2.196402
90,3.188883,467,168,509,506,0.009547123,0.01712966,0.008950081,-1.480654,3.052486,-0.06076907,-0.006935077,0.008000273,-0.01024837,-0.1435476,-3.065289,2.193995
90,3.199994,467,168,509,506,0.00740465,0.01926466,0.01106581,-1.480958,3.052656,-0.0607989,-0.00268821,0.01546355,-0.01133039,-0.1434219,-3.062504,2.191246
90,3.211105,485,194,467,495,0.01056225,0.02356378,0.01427058,-1.481516,3.053263,-0.06079943,-0.0005468267,0.0122688,-0.009221546,-0.1434048,-3.061533,2.190283
90,3.222216,485,194,467,495,0.01162816,0.02356285,0.01320685,-1.481792,3.053351,-0.06096242,-0.003776464,-0.003703913,-0.01347038,-0.1437532,-3.064369,2.193293
90,3.233327,485,194,467,495,0.01374574,0.02357336,0.01105399,-1.482252,3.053027,-0.06091022,-0.01129153,-0.01754085,-0.02196113,-0.144566,-3.065793,2.195054
90,3.244438,485,194,467,495,0.01483317,0.01823991,0.008953393,-1.482305,3.053058,-0.06109931,-0.008095823,-0.01327754,-0.02090877,-0.1446315,-3.064676,2.194048
90,3.255549,485,194,467,495,0.0148661,0.01182299,0.007935855,-1.481998,3.05331,-0.06138906,-0.01237024,-0.01434391,-0.02194322,-0.1449516,-3.065077,2.194784
90,3.26666,484,169,491,498,0.01383348,0.003295055,0.006909551,-1.481867,3.053279,-0.06149825,-0.01121947,-0.000507175,-0.00913702,-0.1443343,-3.064073,2.193928
90,3.277771,484,169,491,498,0.01598988,-0.005195552,0.01122088,-1.481596,3.053535,-0.06175977,-0.01011697,0.006938742,-0.003812029,-0.1441702,-3.062736,2.19268
90,3.288882,484,169,491,498,0.01814717,-0.01371614,0.01233095,-1.481059,3.053655,-0.06197229,-0.00793155,0.01224904,0.003629098,-0.1439811,-3.0622,2.192148
90,3.299993,484,169,491,498,0.01815763,-0.01690608,0.01341391,-1.480793,3.05385,-0.06217043,-0.006910253,0.0005389713,-0.002782537,-0.1442943,-3.063554,2.193545
90,3.311104,418,157,487,498,0.01708704,-0.02008711,0.01343425,-1.480794,3.05404,-0.06208787,-0.001648712,-0.005838573,-0.01242824,-0.1448877,-3.062508,2.192371
90,3.322215,418,157,487,498,0.01387671,-0.01584395,0.01234079,-1.480744,3.054153,-0.06216777,-0.009178584,-0.001572181,-0.02302669,-0.1453543,-3.060492,2.190678
90,3.333326,418,157,487,498,0.01273728,-0.003083546,0.009085105,-1.481091,3.054309,-0.06184712,-0.007048341,0.001623929,-0.02303678,-0.1454981,-3.058947,2.18916
90,3.344437,418,157,487,498,0.008420472,0.008640402,0.01221336,-1.481553,3.054538,-0.06174113,-0.005962543,-0.002643173,-0.01985428,-0.1456776,-3.059584,2.189831
90,3.355548,418,157,487,498,0.0147782,0.02143967,0.01106641,-1.482119,3.054318,-0.0622434,-0.01022469,0.01120249,-0.02087903,-0.145742,-3.05548,2.185913
90,3.366659,548,163,496,487,0.01795148,0.02680148,0.01318467,-1.482702,3.054685,-0.06254913,-0.005932591,0.01759013,-0.01771069,-0.1457207,-3.052721,2.183004
90,3.37777,548,163,496,487,0.02544689,0.01616644,0.01112851,-1.482621,3.05484,-0.06296991,0.0005427245,0.02609214,-0.004956895,-0.1451923,-3.051377,2.18159
90,3.388881,548,163,496,487,0.02334482,0.005533168,0.01331327,-1.482631,3.055029,-0.06307591,0.001622908,0.0292898,-0.002833952,-0.144967,-3.0485,2.178687
90,3.399992,548,163,496,487,0.02766849,-0.008318443,0.01128534,-1.482093,3.05541,-0.06364582,0.0005517863,0.03036378,-0.003881097,-0.1446555,-3.046153,2.17638
90,3.411103,571,186,487,499,0.02662367,-0.01576254,0.01239221,-1.481905,3.055608,-0.06384502,-0.0005476475,0.02291171,-0.009205896,-0.1447929,-3.045408,2.175652
90,3.422215,571,186,487,499,0.02880584,-0.02534,0.0124374,-1.481386,3.055634,-0.06444743,-0.00276007,0.00587902,-0.02199831,-0.1455236,-3.04589,2.176164
90,3.433326,571,186,487,499,0.02775836,-0.03171207,0.01673238,-1.480888,3.055979,-0.06474891,-0.003828412,-0.0005089887,-0.02201065,-0.1458981,-3.045035,2.175448
90,3.444437,571,186,487,499,0.02674751,-0.03602032,0.008218419,-1.480407,3.055685,-0.06535877,-0.01345113,-0.001572635,-0.02620452,-0.1462134,-3.044148,2.17504
90,3.455548,571,186,487,499,0.02675863,-0.03816264,0.006099646,-1.479929,3.055733,-0.06566503,-0.01231156,0.005872102,-0.01553974,-0.1458587,-3.043344,2.174338
90,3.466659,520,177,507,499,0.0299607,-0.0392626,0.002900634,-1.479068,3.05558,-0.06604533,-0.005910811,0.01439491,-0.01344839,-0.1457607,-3.040308,2.171264
90,3.47777,520,177,507,499,0.02779206,-0.03072485,0.007111549,-1.478974,3.055749,-0.06630259,-0.002764009,0.01653274,-0.01985556,-0.1459236,-3.037795,2.168795
90,3.488881,520,177,507,499,0.02454352,-0.01899641,0.01025202,-1.479156,3.05612,-0.06646717,0.001439755,0.01335261,-0.0273538,-0.1463556,-3.034927,2.165912
90,3.499992,520,177,507,499,0.01812459,-0.01261446,0.01340142,-1.479162,3.056336,-0.06651937,0.001449549,0.006963121,-0.02628832,-0.1464616,-3.034656,2.165603
90,3.511103,520,177,507,499,0.02446412,-0.004055735,0.01548884,-1.479351,3.056478,-0.06674255,-0.002840517,-0.0004893104,-0.0305332,-0.1469809,-3.034148,2.165245
90,3.522214,501,187,488,492,0.03190821,-0.0008319579,0.01548195,-1.479425,3.056631,-0.06730234,-0.004915486,0.0016278,-0.02198497,-0.1468755,-3.034104,2.165369
90,3.533325,501,187,488,492,0.02765248,-0.00406842,0.009086916,-1.479395,3.056374,-0.06722245,-0.006973994,0.014393,-0.00917372,-0.1464547,-3.031775,2.163388
90,3.544436,501,187,488,492,0.0255249,-0.004072324,0.01015029,-1.479333,3.056543,-0.06752925,-0.006917584,0.01864541,-0.001715647,-0.1462358,-3.030052,2.161675
90,3.555547,501,187,488,492,0.01272446,0.001196554,0.009034033,-1.479432,3.05656,-0.06736147,-0.01015773,0.01652301,-0.008080153,-0.1462986,-3.028953,2.160776
90,3.566658,506,191,499,499,0.006319291,0.005414126,0.005827508,-1.479592,3.056842,-0.06726985,-0.01231701,0.006941449,-0.01234065,-0.1466219,-3.029069,2.161086
90,3.577769,506,191,499,499,0.005232005,0.01074029,0.006861142,-1.479834,3.056921,-0.06730767,-0.01446199,-0.005841753,-0.01554431,-0.1471673,-3.030758,2.162879
90,3.58888,506,191,499,499,0.007348498,0.01925443,0.00470713,-1.480231,3.057197,-0.06767891,-0.02404674,-0.01223179,-0.01548896,-0.1475242,-3.031536,2.164151
90,3.599991,506,191,499,499,0.01049574,0.03310067,0.00250218,-1.480932,3.057089,-0.06787119,-0.02186494,-0.006906748,-0.008029395,-0.1472148,-3.031301,2.16408
90,3.611102,506,191,499,499,0.009379014,0.03845933,0.006743384,-1.481669,3.057407,-0.06760328,-0.009038665,0.009064596,-0.00170323,-0.1467913,-3.028906,2.161483
90,3.622213,507,187,486,500,0.01044151,0.03847403,0.008876131,-1.482078,3.057551,-0.06776786,-0.01112903,0.004790056,0.003630877,-0.1467934,-3.029658,2.162442
90,3.633324,507,187,486,500,0.007233657,0.04481615,0.003515142,-1.482628,3.05746,-0.06782166,-0.01539588,0.001590068,0.003651841,-0.1468579,-3.030986,2.164093
90,3.644435,507,187,486,500,0.00297422,0.04479804,0.002449336,-1.483143,3.057509,-0.06775295,-0.01433014,-0.005866896,0.002573286,-0.1469415,-3.032788,2.165885
90,3.655546,507,187,486,500,-0.007676117,0.03837861,0.004611833,-1.483424,3.057775,-0.06716546,-0.01867291,-0.003725301,-0.009107221,-0.1472797,-3.031829,2.165245
90,3.666657,510,177,497,494,-0.009768791,0.03093018,0.003572249,-1.483869,3.057587,-0.06712551,-0.01543977,-0.004796318,-0.002741393,-0.1471881,-3.032479,2.166089
90,3.677768,510,177,497,494,-0.01078971,0.01920689,0.003636699,-1.483741,3.057668,-0.06700886,-0.01007881,-0.003746211,0.002550091,-0.1471098,-3.033877,2.167462
90,3.688879,510,177,497,494,-0.007577582,0.01390591,0.003666243,-1.483945,3.05764,-0.06696359,-0.003673219,-0.001618257,0.004633634,-0.147064,-3.033782,2.167277
90,3.69999,510,177,497,494,-0.007554398,0.008570951,0.002634672,-1.483869,3.057686,-0.06693536,-0.004745733,0.003709969,0.004648099,-0.1469293,-3.032831,2.166531
90,3.711101,510,177,497,494,-0.009675344,0.01069357,0.004745973,-1.483879,3.057726,-0.0670813,-0.002637141,0.0005191069,0.001432652,-0.1470353,-3.033101,2.166762
90,3.722212,545,206,505,498,-0.01394706,0.01281826,0.006858727,-1.48407,3.057855,-0.06683469,-0.005887506,0.001588729,-0.005997448,-0.1472574,-3.03244,2.166304
90,3.733323,545,206,505,498,-0.01397272,0.01602372,0.01003392,-1.484212,3.058009,-0.06655879,-0.006940278,-0.002675115,-0.003874741,-0.1474342,-3.032682,2.166693
90,3.744434,545,206,505,498,-0.01821506,0.01173494,0.007921164,-1.484216,3.058024,-0.06623388,-0.006808135,-0.0005743327,0.01424787,-0.1467791,-3.035752,2.169725
90,3.755545,545,206,505,498,-0.01924722,0.006375486,0.001558173,-1.484232,3.057863,-0.06603681,-0.006751165,-0.00272863,0.02276404,-0.1465793,-3.038755,2.172809
90,3.766656,477,173,485,500,-0.0213738,0.008482392,-0.002717344,-1.484493,3.05771,-0.06581736,-0.0003303066,0.006856932,0.02698524,-0.146158,-3.037658,2.171561
90,3.777767,477,173,485,500,-0.01922733,0.003195049,0.003704094,-1.48436,3.057918,-0.06577635,0.0007041581,0.00898589,0.02272207,-0.1459956,-3.0381,2.171981
90,3.788878,477,173,485,500,-0.01708392,-0.001041139,0.01012284,-1.484002,3.058225,-0.06575771,-0.001593946,-0.002702274,-0.001783982,-0.1468776,-3.038074,2.172023
90,3.799989,477,173,485,500,-0.01812156,-0.006401975,0.004824387,-1.483784,3.058144,-0.06552868,-0.001624095,-0.01016171,-0.006054805,-0.1472467,-3.04001,2.173969
90,3.8111,477,173,485,500,-0.01597513,-0.01067112,0.00271703,-1.483487,3.058079,-0.06534705,0.000581895,-0.01017894,0.004576006,-0.1470821,-3.041834,2.175691
90,3.822211,462,172,488,498,-0.01384336,-0.01171716,0.004856278,-1.483339,3.058202,-0.06526076,0.001681529,-0.008056104,0.009901419,-0.146836,-3.043163,2.176998
90,3.833322,462,172,488,498,-0.01385075,-0.00854535,0.004825652,-1.482992,3.058085,-0.06515903,-0.001474312,-0.002733045,0.01631504,-0.1465122,-3.042725,2.176731
90,3.844433,462,172,488,498,-0.01281061,-0.002143832,0.005856805,-1.483182,3.058166,-0.06504504,0.0006310968,0.002601228,0.01311596,-0.1463279,-3.041916,2.175907
90,3.855544,462,172,488,498,-0.008563352,0.003223095,0.01008635,-1.48339,3.058262,-0.06522401,-0.002587014,0.002605575,0.009942441,-0.1462949,-3.041834,2.175954
90,3.866655,446,180,503,496,-0.01071772,0.00852098,0.007920162,-1.483477,3.058222,-0.06494491,-0.009022363,0.005807889,0.003595662,-0.1464153,-3.040149,2.174552
90,3.877766,446,180,503,496,-0.009625529,0.006367615,0.005819167,-1.483293,3.058493,-0.06512441,-0.003706087,0.002617964,0.002501657,-0.1462683,-3.041126,2.175441
90,3.888877,446,180,503,496,-0.0106487,-7.191615E-05,0.001582732,-1.482804,3.058283,-0.06513985,-0.007882349,-0.008053115,0.01422989,-0.146141,-3.045094,2.179545
90,3.899988,446,180,503,496,-0.008499638,-0.005391881,0.002690542,-1.48249,3.058521,-0.06511962,-0.005766414,-0.006988003,0.01315016,-0.1461106,-3.045855,2.1804
90,3.911099,446,180,503,496,-0.01063781,-0.003270804,0.004796639,-1.482315,3.058495,-0.06498433,-0.006854954,0.000473693,0.009972921,-0.1459663,-3.044819,2.17948
90,3.92221,488,185,505,495,-0.01171735,-8.471333E-05,0.003719217,-1.482408,3.058609,-0.0647766,-0.01110179,0.0004706942,0.01214221,-0.1456813,-3.045968,2.180851
90,3.933321,488,185,505,495,-0.009562021,0.00205359,0.005828932,-1.482303,3.058554,-0.06524052,-0.0078979,0.004739143,0.01424831,-0.1454405,-3.04467,2.179632
90,3.944432,488,185,505,495,-0.01169816,0.002042389,0.004764818,-1.482347,3.058652,-0.06493959,-0.0004408685,0.002612557,0.01419149,-0.1453511,-3.045036,2.179798
90,3.955544,488,185,505,495,-0.0096085,0.0116245,0.005786421,-1.482476,3.058835,-0.06486395,0.002747511,0.002614611,0.01310391,-0.1452339,-3.045321,2.179964
90,3.966655,488,185,505,495,-0.00854084,0.01376267,0.007916096,-1.482575,3.059102,-0.06502055,-0.006895644,-0.006950679,0.005699618,-0.1454299,-3.0458,2.180884
90,3.977766,528,172,456,499,-0.008544901,0.01692436,0.001506679,-1.482882,3.058922,-0.06488419,-0.007988822,-0.006943051,0.002518654,-0.1454027,-3.046063,2.18134
90,3.988877,528,172,456,499,-0.01067524,0.01585016,0.0004429743,-1.483048,3.05887,-0.06462107,-0.01223641,-0.004814978,0.003612719,-0.1454203,-3.046256,2.181693
90,3.999988,528,172,456,499,-0.01063959,0.005211248,0.002633501,-1.482885,3.058995,-0.0645236,-0.01114243,-0.0005595982,0.007882687,-0.1450437,-3.046914,2.182431
90,4.011099,528,172,456,499,-0.007434858,0.0009675089,0.002661694,-1.482871,3.059045,-0.06443465,-0.004698657,0.004753581,0.01424107,-0.144648,-3.047499,2.182746
89.8,4.02221,476,189,527,494,-0.007432382,-0.001144557,0.005869432,-1.482836,3.0592,-0.06435315,-0.004723086,0.005822569,0.01105534,-0.1444946,-3.047734,2.183071
89.60001,4.033321,476,189,527,494,-0.007439062,-0.003276407,0.005875567,-1.482742,3.059201,-0.06406447,-0.004771844,-0.002691813,0.002524734,-0.144812,-3.049082,2.184342
89.40001,4.044433,476,189,527,494,-0.0053167,-0.002205109,0.005885012,-1.482738,3.059457,-0.06403837,-0.003723423,-0.001631382,-0.0006645707,-0.1447918,-3.050043,2.185235
89.20001,4.055544,476,189,527,494,-0.008536169,0.003111675,0.005844344,-1.482949,3.059436,-0.06381573,-0.009041436,-0.006964744,0.0004322389,-0.1448909,-3.051847,2.187264
89.00002,4.066655,476,189,527,494,-0.007472706,0.006339003,0.00796551,-1.483326,3.059641,-0.06395741,-0.01111177,-0.001650506,0.01003172,-0.144631,-3.051829,2.187499
88.80002,4.077766,491,177,483,490,-0.005354799,0.008472471,0.00690078,-1.483508,3.059811,-0.06388924,-0.01324266,0.005810592,0.0100625,-0.1443007,-3.050659,2.186526
88.60002,4.088878,491,177,483,490,-1.374609E-05,0.002086471,0.006943578,-1.483145,3.05992,-0.06393611,-0.007838309,0.02390179,0.02070802,-0.1434474,-3.048961,2.184721
88.40002,4.099989,491,177,483,490,-0.001074347,-0.001099748,0.009093717,-1.483081,3.060137,-0.06383917,-0.0004223417,0.01751972,0.01425797,-0.1433819,-3.049178,2.184695
88.20003,4.1111,491,177,483,490,0.001037312,-4.883856E-06,0.01122252,-1.483287,3.060325,-0.06373903,-0.002672373,0.001569858,-0.003865316,-0.1441441,-3.049068,2.184629
88.00003,4.122211,509,158,474,499,-0.004292187,-2.247281E-05,0.01121781,-1.483332,3.060479,-0.06351213,-0.00594138,-0.005875156,-0.01450041,-0.1446714,-3.049193,2.184937
87.80003,4.133323,509,158,474,499,-0.003227156,0.001059199,0.009080499,-1.483696,3.060436,-0.06351,-0.004749488,-0.01654896,0.004645621,-0.1444025,-3.053508,2.18937
87.60004,4.144434,509,158,474,499,-0.005334567,0.001054084,0.007996457,-1.483808,3.060258,-0.06368896,-0.004743617,-0.01015259,0.005718947,-0.1442475,-3.052908,2.188833
87.40004,4.155545,509,158,474,499,0.003199208,-0.001062647,0.004826386,-1.483719,3.06027,-0.06392971,-0.01116529,0.004767378,0.001532294,-0.143995,-3.050209,2.186417
87.20004,4.166656,509,158,474,499,0.006411664,-0.002092176,0.006960905,-1.483849,3.060317,-0.0642935,-0.0111378,0.02180593,0.006869864,-0.143554,-3.046272,2.182766
87.00005,4.177768,542,160,503,497,0.01176031,-0.00950587,0.01127349,-1.483555,3.060621,-0.06461148,-0.002631536,0.02713417,0.004694061,-0.1432525,-3.044437,2.180725
86.80005,4.188879,542,160,503,497,0.01707966,-0.01159246,0.01448854,-1.48348,3.060861,-0.06481975,-0.002664631,0.02714096,-0.0006347978,-0.1432488,-3.042123,2.178426
86.60005,4.19999,542,160,503,497,0.02453266,-0.0104995,0.01449462,-1.483433,3.061043,-0.0653023,-0.001601737,0.02926893,-0.0006388845,-0.1430538,-3.040125,2.176464
86.40005,4.211102,542,160,503,497,0.03198341,-0.009394283,0.01556326,-1.483481,3.061215,-0.06585838,-0.006960172,0.03779804,-0.003793779,-0.1428647,-3.035132,2.171881
86.20006,4.222213,479,183,518,496,0.0415612,-0.008271201,0.01983217,-1.483417,3.06156,-0.06658223,-0.002644084,0.05270328,0.004715262,-0.1421446,-3.030047,2.166795
86.00006,4.233324,479,183,518,496,0.05749436,0.002476946,0.02617902,-1.483765,3.061888,-0.06772205,0.02101724,0.07289325,0.03760695,-0.140322,-3.028127,2.164068
85.80006,4.244435,479,183,518,496,0.07556433,0.01112154,0.03362007,-1.484337,3.0625,-0.06905577,0.03154042,0.06546764,0.01940724,-0.1402756,-3.023423,2.158857
85.60007,4.255547,479,183,518,496,0.08726072,0.01544993,0.03787363,-1.484661,3.063019,-0.07038735,0.02386251,0.05059529,-0.01252023,-0.1410676,-3.019121,2.154572
85.40007,4.266658,479,183,518,496,0.1053412,0.02511324,0.03785188,-1.485336,3.063463,-0.07212745,0.03130551,0.04633497,-0.01471413,-0.1410048,-3.01603,2.150957
85.20007,4.277769,417,184,507,499,0.126614,0.03372749,0.03996614,-1.485998,3.063962,-0.07416637,0.0320816,0.04852436,-0.05626426,-0.1421531,-3.006034,2.140639
85.00008,4.28888,417,184,507,499,0.1446832,0.04444038,0.03887619,-1.486814,3.064457,-0.07626761,0.02207763,0.05714153,-0.1158439,-0.1441628,-2.98917,2.124003
84.80008,4.299992,417,184,507,499,0.1755527,0.05409818,0.03141033,-1.487657,3.06456,-0.07907138,0.0156299,0.07313475,-0.123225,-0.1446997,-2.976448,2.111398
84.60008,4.311103,417,184,507,499,0.1926252,0.04668236,0.02934832,-1.487845,3.064872,-0.08157369,0.01991438,0.09230557,-0.1200256,-0.144852,-2.963668,2.098336
84.40009,4.322214,417,184,507,499,0.2097071,0.03714921,0.02836151,-1.487979,3.06517,-0.0843503,0.01884864,0.09975945,-0.120004,-0.145309,-2.951589,2.086196
84.20009,4.333325,446,160,477,494,0.2311199,0.01058414,0.02960122,-1.48717,3.065575,-0.08764996,0.02508139,0.09340513,-0.1424205,-0.1467061,-2.939562,2.073903
84.00009,4.344437,446,160,477,494,0.2471411,-0.001068719,0.03075393,-1.48686,3.065985,-0.09089262,0.03663383,0.07213519,-0.1670395,-0.1488638,-2.930228,2.063955
83.80009,4.355548,446,160,477,494,0.2695498,-0.01061475,0.02764693,-1.486264,3.066308,-0.09437177,0.0481276,0.06686319,-0.1990768,-0.1510108,-2.917263,2.050306
83.6001,4.366659,446,160,477,494,0.2780639,-0.008444747,0.02551262,-1.486528,3.066448,-0.09761924,0.0383725,0.04878873,-0.2224728,-0.1536703,-2.907364,2.040489
83.4001,4.37777,415,163,532,503,0.2886454,0.01286633,0.01901565,-1.487297,3.066393,-0.1010515,0.02563548,0.04452185,-0.2159875,-0.1552783,-2.898902,2.032186
83.2001,4.388882,415,163,532,503,0.2907312,0.02670319,0.01681703,-1.487877,3.066535,-0.1043656,0.0204355,0.0530181,-0.1978291,-0.1564154,-2.888993,2.022299
83.00011,4.399993,415,163,532,503,0.2939006,0.0331185,0.01891646,-1.488439,3.066745,-0.1077174,0.005668707,0.07961342,-0.1753072,-0.1569071,-2.876759,2.010586
82.80011,4.411104,415,163,532,503,0.2885879,0.02990392,0.01892374,-1.488695,3.066878,-0.1108328,0.01321772,0.1072996,-0.1614641,-0.1573747,-2.861457,1.995119
82.60011,4.422215,415,163,532,503,0.2790326,0.02029291,0.02109657,-1.488677,3.067193,-0.1136893,0.02496325,0.121144,-0.1572639,-0.1581774,-2.847319,1.980564
82.40012,4.433327,441,187,479,494,0.2737011,0.01174918,0.02114385,-1.488594,3.067541,-0.1160872,0.03662615,0.1254101,-0.1658629,-0.1596464,-2.834414,1.96703
82.20012,4.444438,441,187,479,494,0.299361,-0.01371688,0.02238721,-1.487653,3.067945,-0.1202167,0.03638578,0.09137375,-0.2010684,-0.1625482,-2.826129,1.958451
82.00012,4.455549,441,187,479,494,0.3004739,-0.02223075,0.02029441,-1.487468,3.067997,-0.1238093,0.031933,0.06478668,-0.228781,-0.165589,-2.818242,1.95051
81.80013,4.46666,441,187,479,494,0.2941381,-0.03401466,0.01396721,-1.486817,3.068227,-0.1269486,0.02650326,0.05735125,-0.242619,-0.1683565,-2.807886,1.940208
81.60013,4.477772,350,142,501,498,0.2952348,-0.04253292,0.01401634,-1.48614,3.068478,-0.1302872,0.02656369,0.05626712,-0.2340955,-0.1703289,-2.800138,1.932278
81.40013,4.488883,350,142,501,498,0.2932003,-0.06704564,0.01415826,-1.48476,3.068956,-0.1336396,0.03207901,0.07219983,-0.2064173,-0.1714687,-2.790608,1.9224
81.20013,4.499994,350,142,501,498,0.292191,-0.08301678,0.0163766,-1.483466,3.06937,-0.1369025,0.04180507,0.0892158,-0.1862185,-0.1724562,-2.779709,1.910944
81.00014,4.511106,350,142,501,498,0.2901096,-0.1000424,0.01859893,-1.48216,3.069769,-0.1399704,0.04082534,0.09345622,-0.1734146,-0.1735614,-2.7705,1.901501
80.80014,4.522217,350,142,501,498,0.2890982,-0.1118059,0.0112058,-1.480596,3.069912,-0.1431683,0.03333302,0.08280998,-0.1787049,-0.175374,-2.76309,1.894034
80.60014,4.533328,544,166,487,496,0.2912374,-0.1160654,0.00911346,-1.479377,3.07031,-0.1463524,0.03116011,0.0785659,-0.1840346,-0.1773569,-2.753972,1.884831
80.40015,4.544439,544,166,487,496,0.2922604,-0.1054245,0.01118795,-1.478127,3.070674,-0.149676,0.02254259,0.060475,-0.1978661,-0.1799253,-2.74801,1.878953
80.20015,4.555551,544,166,487,496,0.2953859,-0.08623704,0.01214803,-1.477609,3.070879,-0.1530657,0.02469027,0.06153818,-0.195741,-0.18161,-2.740859,1.871551
80.00015,4.566662,544,166,487,496,0.293185,-0.06599467,0.01310909,-1.47749,3.071221,-0.1563829,0.03981896,0.09771535,-0.1638439,-0.181994,-2.727748,1.857807
79.80016,4.577773,544,166,487,496,0.2866546,-0.03292952,0.02463387,-1.478123,3.071725,-0.159412,0.05155439,0.08812235,-0.1618096,-0.1834694,-2.721538,1.850793
79.60016,4.588884,520,150,489,491,0.2801385,-0.005240977,0.02976093,-1.478564,3.071622,-0.1621231,0.03851828,0.07326829,-0.1969078,-0.1864879,-2.713976,1.8434
79.40016,4.599996,520,150,489,491,0.2789978,0.01179923,0.03179881,-1.478935,3.071991,-0.1650947,0.02442751,0.05414245,-0.2330518,-0.1897433,-2.708686,1.838211
79.20016,4.611107,520,150,489,491,0.2811571,0.007501081,0.02436633,-1.478869,3.072057,-0.1683128,0.01157564,0.04457606,-0.2436156,-0.1923644,-2.703163,1.832952
79.00017,4.622218,520,150,489,491,0.2843785,0.003202283,0.01800901,-1.478616,3.072212,-0.1715875,0.01598249,0.04454198,-0.222355,-0.1943687,-2.698459,1.828117
78.80017,4.633329,502,153,490,494,0.2833479,-0.005349467,0.01273053,-1.478415,3.072279,-0.1746267,0.02785864,0.07327508,-0.2000119,-0.1954483,-2.688641,1.817785
78.60017,4.644441,502,153,490,494,0.2812698,-0.02241293,0.01284961,-1.477682,3.072905,-0.1775924,0.02910721,0.1158376,-0.1722637,-0.1961951,-2.67595,1.805027
78.40018,4.655552,502,153,490,494,0.2759858,-0.03729876,0.02144768,-1.476984,3.0735,-0.1805921,0.02591728,0.1233013,-0.1711563,-0.1975879,-2.6656,1.794697
78.20018,4.666663,502,153,490,494,0.2770866,-0.05007462,0.02153351,-1.476299,3.074045,-0.1835738,0.0193064,0.09884019,-0.2031153,-0.2006362,-2.660272,1.789425
78.00018,4.677774,502,153,490,494,0.2792584,-0.05967806,0.01732897,-1.475416,3.074308,-0.1867536,0.01073074,0.08391817,-0.2116129,-0.2031667,-2.655658,1.784943
77.80019,4.688886,526,193,503,499,0.2846386,-0.07246917,0.01527554,-1.474146,3.074605,-0.1901689,0.01709599,0.06688119,-0.2159443,-0.2055683,-2.651611,1.78064
77.60019,4.699997,526,193,503,499,0.279307,-0.06616841,0.002448976,-1.473449,3.074508,-0.1930984,0.03863353,0.08807017,-0.1894527,-0.2067545,-2.643782,1.772392
77.40019,4.711108,526,193,503,499,0.2835025,-0.0490809,0.009831846,-1.473235,3.075023,-0.1965093,0.04390299,0.09774365,-0.1905195,-0.2084818,-2.634177,1.761944
77.2002,4.722219,526,193,503,499,0.2908488,-0.02557787,0.01823708,-1.473506,3.075426,-0.199818,0.04381229,0.09138043,-0.2033061,-0.2108648,-2.627525,1.755005
77.0002,4.733331,602,186,485,495,0.2929398,-0.01596481,0.02138236,-1.473635,3.075729,-0.2031683,0.05003148,0.06264911,-0.228965,-0.2140739,-2.625391,1.752208
76.8002,4.744442,602,186,485,495,0.2939878,-0.01065866,0.02138283,-1.473417,3.076388,-0.206542,0.03709562,0.0328556,-0.2512986,-0.2175659,-2.623997,1.750802
76.6002,4.755553,602,186,485,495,0.2950863,-0.01603476,0.01182665,-1.473092,3.076354,-0.2098677,0.02541894,0.02964741,-0.2448202,-0.2198461,-2.620593,1.747556
76.40021,4.766665,602,186,485,495,0.3015177,-0.02565232,0.002294129,-1.472544,3.076134,-0.2131988,0.03091966,0.03706782,-0.2192922,-0.2217167,-2.616298,1.742893
76.20021,4.777776,602,186,485,495,0.2962587,-0.04273386,0.001320563,-1.471546,3.076408,-0.2164766,0.03640564,0.06260149,-0.1958479,-0.2229689,-2.609154,1.735343
76.00021,4.788887,581,171,485,498,0.2984218,-0.05440062,0.008847978,-1.470763,3.076924,-0.2199105,0.04296885,0.09346535,-0.1692251,-0.2239782,-2.599375,1.725254
75.80022,4.799998,581,171,485,498,0.2941553,-0.05334488,0.009901192,-1.470243,3.077179,-0.2230797,0.04408793,0.1019771,-0.1628224,-0.2253881,-2.592749,1.718138
75.60022,4.81111,581,171,485,498,0.2909121,-0.04375391,0.01519188,-1.470014,3.077811,-0.2262483,0.04187653,0.1094527,-0.1723888,-0.2274723,-2.5848,1.710148
75.40022,4.822221,581,171,485,498,0.284487,-0.03527954,0.01195945,-1.469824,3.078132,-0.229182,0.03877758,0.1190147,-0.1574419,-0.2286643,-2.577321,1.702602
75.20023,4.833332,437,154,472,495,0.2822826,-0.01609442,0.01504464,-1.470215,3.078305,-0.2322724,0.05066799,0.1306875,-0.1319409,-0.229263,-2.569749,1.694375
75.00023,4.844443,437,154,472,495,0.2811244,0.0116132,0.01917184,-1.470983,3.078747,-0.2356019,0.06150131,0.1359752,-0.1064363,-0.2295251,-2.562696,1.686559
74.80023,4.855555,437,154,472,495,0.2884274,0.05004972,0.02962025,-1.472619,3.078975,-0.2390283,0.06576173,0.1242646,-0.1075399,-0.2305158,-2.556903,1.68002
74.60023,4.866666,437,154,472,495,0.2904252,0.0841692,0.03263734,-1.474519,3.079079,-0.2422134,0.06355651,0.1040401,-0.1182146,-0.2321318,-2.553569,1.676219
74.40024,4.877777,437,154,472,495,0.2892355,0.1182601,0.03350978,-1.476824,3.078929,-0.2453922,0.06576838,0.07419494,-0.1076128,-0.2328934,-2.553153,1.675023
74.20024,4.888888,378,166,516,498,0.2859933,0.1299577,0.03451911,-1.478363,3.079132,-0.2484474,0.07215757,0.05928411,-0.1076877,-0.234143,-2.551322,1.672333
74.00024,4.9,378,166,516,498,0.2796269,0.1245945,0.03455362,-1.479462,3.079415,-0.2515063,0.05822766,0.05396419,-0.1203825,-0.2358261,-2.549078,1.669817
73.80025,4.911111,378,166,516,498,0.2828888,0.1075437,0.03145812,-1.480211,3.079494,-0.25475,0.03149117,0.0475874,-0.1351213,-0.2377281,-2.546805,1.668049
73.60025,4.922222,378,166,516,498,0.2798424,0.07021189,0.02527269,-1.480017,3.079659,-0.2578739,0.02927127,0.07103424,-0.146791,-0.2394885,-2.540325,1.661459
73.40025,4.933333,378,166,516,498,0.2799713,0.03609926,0.02120278,-1.479531,3.079903,-0.2610137,0.03760726,0.0763967,-0.1724095,-0.2419716,-2.535369,1.656075
73.20026,4.944445,463,160,515,501,0.2779764,-0.001224447,0.01927912,-1.478429,3.080329,-0.2640918,0.03641967,0.08388659,-0.1883679,-0.2443115,-2.529642,1.650254
73.00026,4.955556,463,160,515,501,0.278109,-0.03640236,0.01521505,-1.477175,3.080729,-0.2672269,0.03530748,0.08283618,-0.1958095,-0.2463925,-2.525086,1.645404
72.80026,4.966667,463,160,515,501,0.2792201,-0.04703929,0.01634813,-1.47663,3.081168,-0.2705612,0.03207203,0.08390667,-0.1989936,-0.2487691,-2.520342,1.640746
72.60027,4.977778,463,160,515,501,0.2909759,-0.05659652,0.01428898,-1.47578,3.081517,-0.2741416,0.02674564,0.07858577,-0.1989586,-0.250817,-2.516423,1.636815
72.40027,4.98889,488,170,491,496,0.2973705,-0.0565776,0.01431953,-1.47531,3.082064,-0.2777304,0.02345706,0.06368544,-0.2117371,-0.2534451,-2.514882,1.635236
72.20027,5.000001,488,170,491,496,0.3016453,-0.05766344,0.007940242,-1.474657,3.082138,-0.2811925,0.03421625,0.07858338,-0.1957994,-0.2549812,-2.509251,1.629107
72.00027,5.011112,488,170,491,496,0.3016934,-0.07259131,0.009071591,-1.47322,3.082357,-0.2844672,0.05795155,0.1030292,-0.1522572,-0.255362,-2.501477,1.620268
71.80028,5.022223,488,170,491,496,0.2963956,-0.08218323,0.01125081,-1.472208,3.082903,-0.2876342,0.06113392,0.1009016,-0.1533478,-0.2571127,-2.497222,1.615499
71.60028,5.033335,488,170,491,496,0.295358,-0.09175056,0.01556416,-1.471055,3.08354,-0.290944,0.05669221,0.1052002,-0.178878,-0.2597866,-2.491723,1.609671
71.40028,5.044446,475,182,480,495,0.2985497,-0.0917486,0.01345196,-1.470227,3.08402,-0.2942772,0.03412667,0.0988437,-0.2053603,-0.2627672,-2.487586,1.606068
71.20029,5.055557,475,182,480,495,0.2985508,-0.09070127,0.01025016,-1.469299,3.084343,-0.2976141,0.04055469,0.07965375,-0.2022426,-0.2649009,-2.486478,1.604261
71.00029,5.066669,475,182,480,495,0.3017177,-0.08430165,0.01235576,-1.46846,3.084846,-0.3010858,0.05122366,0.09456263,-0.1990924,-0.2669036,-2.480929,1.598087
70.80029,5.07778,475,182,480,495,0.3016571,-0.0672573,0.01225987,-1.468227,3.085053,-0.3044387,0.06179288,0.08394751,-0.2119572,-0.269391,-2.477299,1.593544
70.6003,5.088891,482,177,495,498,0.2984143,-0.05238025,0.01005054,-1.467925,3.08529,-0.3077357,0.04145412,0.04774397,-0.2257245,-0.2723604,-2.47883,1.595251
70.4003,5.100002,482,177,495,498,0.2962321,-0.03748117,0.009981651,-1.467885,3.085616,-0.3110572,0.03400996,0.04987465,-0.2245956,-0.2746571,-2.476087,1.592368
70.2003,5.111114,482,177,495,498,0.2919298,-0.02683158,0.01204551,-1.467938,3.085813,-0.3142019,0.02747994,0.0637522,-0.2426532,-0.2780138,-2.471285,1.58768
70.00031,5.122225,482,177,495,498,0.2919382,-0.02789778,0.01100619,-1.467726,3.086215,-0.3175404,0.02110936,0.0616119,-0.2415413,-0.280597,-2.46932,1.585554
69.80031,5.133336,482,177,495,498,0.2930182,-0.03110179,0.008895346,-1.467339,3.086387,-0.320879,0.03088896,0.05411333,-0.2160487,-0.2822594,-2.468086,1.583651
69.60031,5.144447,445,159,495,498,0.2898367,-0.03326216,0.00785456,-1.466851,3.086829,-0.3241243,0.05224621,0.05411189,-0.2076827,-0.2844341,-2.465449,1.580037
69.40031,5.155559,445,159,495,498,0.285568,-0.03114672,0.007835849,-1.466612,3.087005,-0.3272343,0.07144625,0.05623835,-0.2046142,-0.2866653,-2.463108,1.576465
69.20032,5.16667,445,159,495,498,0.2834061,-0.02263878,0.007792503,-1.466526,3.087187,-0.3303332,0.06713656,0.05838992,-0.2088568,-0.2892608,-2.459886,1.572988
69.00032,5.177781,445,159,495,498,0.2855251,-0.0183821,0.005641399,-1.46644,3.08722,-0.3335561,0.04572907,0.04669102,-0.2257659,-0.2922042,-2.459177,1.572197
68.80032,5.188892,394,192,508,490,0.3004781,-0.0258019,0.00251757,-1.466031,3.087359,-0.3374262,0.03503479,0.04776278,-0.2310198,-0.2949653,-2.4573,1.57033
68.60033,5.200004,394,192,508,490,0.3240517,-0.06091989,-0.004682958,-1.464489,3.087858,-0.3416916,0.03083579,0.05520574,-0.2224442,-0.2970154,-2.454456,1.567291
68.40033,5.211115,394,192,508,490,0.3327572,-0.1099284,-0.01078482,-1.462089,3.088424,-0.345682,0.03956688,0.04771672,-0.191633,-0.2984061,-2.452765,1.56511
68.20033,5.222226,394,192,508,490,0.3296972,-0.1461711,-0.01271037,-1.4597,3.089164,-0.3493647,0.05557635,0.04130852,-0.1874909,-0.3004056,-2.452517,1.563817
68.00034,5.233337,394,192,508,490,0.3277375,-0.1951752,-0.01137265,-1.456367,3.090256,-0.3530702,0.06419997,0.07111837,-0.1736506,-0.3019167,-2.447423,1.557885
67.80034,5.244449,418,195,505,497,0.3246032,-0.2047867,-0.01663674,-1.454223,3.090907,-0.3568966,0.05993215,0.09137034,-0.1725302,-0.3039146,-2.441787,1.552064
67.60034,5.25556,418,195,505,497,0.3149767,-0.1962685,-0.01137389,-1.452394,3.091594,-0.3602202,0.0545734,0.1052189,-0.1777912,-0.3059754,-2.437429,1.54733
67.40034,5.266671,418,195,505,497,0.308513,-0.1771065,-0.008280091,-1.450983,3.092302,-0.3636046,0.04704485,0.1201538,-0.1862492,-0.3084793,-2.431464,1.5414
67.20035,5.277782,418,195,505,497,0.302084,-0.1675297,-0.006213978,-1.449471,3.092864,-0.3668803,0.05026432,0.1094977,-0.1852143,-0.3104228,-2.428945,1.538205
67.00035,5.288894,418,195,505,497,0.2945265,-0.1419583,3.819913E-05,-1.448677,3.093549,-0.3700734,0.07049448,0.09033009,-0.1864554,-0.3126066,-2.427381,1.535482
66.80035,5.300005,469,208,504,495,0.2880749,-0.1259898,0.002068156,-1.447821,3.093989,-0.3731637,0.07683666,0.0658381,-0.1961194,-0.3149822,-2.427638,1.53457
66.60036,5.311116,469,208,504,495,0.2847258,-0.08550364,0.005035013,-1.44795,3.094151,-0.3761662,0.06925067,0.0328474,-0.2142278,-0.3178195,-2.429322,1.535766
66.40036,5.322227,469,208,504,495,0.279295,-0.05465299,0.002717866,-1.447835,3.094076,-0.3791809,0.0553447,0.009426564,-0.2226808,-0.3203793,-2.430912,1.537088
66.20036,5.333339,469,208,504,495,0.272834,-0.03444128,0.001527864,-1.447961,3.094007,-0.3820454,0.04043958,0.01048203,-0.2204435,-0.322732,-2.430655,1.536883
66.00037,5.34445,491,200,458,505,0.2717754,-0.03446373,-0.001648007,-1.447523,3.094381,-0.3851037,0.02027728,0.0243064,-0.2085665,-0.3247826,-2.428649,1.53524
65.80037,5.355561,491,200,458,505,0.2707138,-0.03553279,-0.001643762,-1.447122,3.094518,-0.3881019,0.04503128,0.06049213,-0.1724588,-0.3258671,-2.423601,1.529234
65.60037,5.366673,491,200,458,505,0.2696287,-0.03340103,-0.001642266,-1.446919,3.094802,-0.3909297,0.06211767,0.07220487,-0.1661689,-0.3275923,-2.420333,1.525002
65.40038,5.377784,491,200,458,505,0.2759534,-0.01525689,0.0003966372,-1.447246,3.094737,-0.3941414,0.05992173,0.06264111,-0.1778739,-0.3298293,-2.419285,1.523249
65.20038,5.388895,491,200,458,505,0.2993259,0.000814355,0.002482738,-1.447695,3.094732,-0.3980275,0.04708875,0.05733272,-0.1841796,-0.3320253,-2.417768,1.521749
65.00038,5.400006,425,214,494,498,0.3131036,0.02320575,-0.002931226,-1.448403,3.09443,-0.4017794,0.0394683,0.05736899,-0.2075626,-0.3349681,-2.416088,1.51993
64.80038,5.411118,425,214,494,498,0.2917454,0.03486017,-0.0008790102,-1.449133,3.094495,-0.4043339,0.03720598,0.04035319,-0.2256932,-0.3380862,-2.41651,1.520043
64.60039,5.422229,425,214,494,498,0.2683281,0.02735386,-0.001951084,-1.449595,3.094204,-0.4065411,0.04160614,0.04352957,-0.206538,-0.3397831,-2.414769,1.517727
64.40039,5.43334,425,214,494,498,0.2556121,0.008133899,-0.001864295,-1.449207,3.094364,-0.40902,0.06832336,0.05630261,-0.1928611,-0.3414769,-2.411469,1.513191
64.20039,5.444451,416,189,489,493,0.2567657,-0.01952942,0.003620209,-1.448405,3.094937,-0.411967,0.07150248,0.03713249,-0.1960952,-0.3435994,-2.412276,1.5131
64.0004,5.455563,416,189,489,493,0.2579912,-0.04083346,-0.0005594585,-1.447527,3.094666,-0.4160784,0.07152705,-0.007613793,-0.1940351,-0.3456368,-2.416709,1.516526
63.8004,5.466674,416,189,489,493,0.2591,-0.05250876,-0.002641547,-1.447266,3.094498,-0.4188801,0.06840535,-0.003379554,-0.1833708,-0.3476283,-2.416909,1.516038
63.6004,5.477785,416,189,489,493,0.2569581,-0.04720386,-0.004807137,-1.446857,3.094548,-0.421735,0.0640392,-0.002302617,-0.1982545,-0.3502515,-2.417568,1.51606
63.40039,5.488896,416,189,489,493,0.2591313,-0.03970087,-0.0080778,-1.447153,3.093811,-0.4254959,0.051231,0.007286638,-0.2013453,-0.3526052,-2.417082,1.515369
63.20039,5.500008,472,176,502,497,0.2548751,-0.04182947,-0.004878331,-1.446658,3.094055,-0.4282278,0.04378344,0.02220094,-0.1980788,-0.3547671,-2.415343,1.513539
63.00039,5.511119,472,176,502,497,0.2550045,-0.07692087,-0.004722763,-1.445569,3.094042,-0.4310294,0.03851403,0.03390436,-0.1895007,-0.3566825,-2.413647,1.511664
62.80039,5.52223,472,176,502,497,0.2562435,-0.0949824,-0.003629167,-1.444297,3.093579,-0.435445,0.04172137,0.0424273,-0.1873826,-0.3588178,-2.412066,1.509604
62.60039,5.533341,472,176,502,497,0.2733935,-0.1205282,-0.01091626,-1.442296,3.094164,-0.4390024,0.03653604,0.04772096,-0.1670956,-0.3602117,-2.410387,1.507746
62.40039,5.544453,472,176,502,497,0.3267423,-0.1373932,-0.01505704,-1.440324,3.094046,-0.4441828,0.05372136,0.06048119,-0.1458964,-0.3614144,-2.407596,1.504124
62.20039,5.555564,416,161,513,497,0.3565273,-0.1308202,-0.002263967,-1.439273,3.094893,-0.4490793,0.0772509,0.09029219,-0.1321619,-0.3626155,-2.402802,1.498128
62.00039,5.566675,416,161,513,497,0.3181614,-0.1138387,0.006044509,-1.438791,3.094716,-0.4523427,0.08129518,0.08714615,-0.1630898,-0.3652765,-2.400777,1.495184
61.80039,5.577786,416,161,513,497,0.2861661,-0.1085763,0.01555425,-1.438005,3.095562,-0.4547326,0.070559,0.0775778,-0.1758315,-0.3678305,-2.399725,1.493686
61.60039,5.588898,416,161,513,497,0.2733386,-0.09475997,0.01331517,-1.437677,3.095669,-0.4574997,0.06298608,0.03286193,-0.1939592,-0.3704127,-2.402563,1.495841
61.40039,5.600009,524,163,507,502,0.2817985,-0.07873735,0.01536924,-1.437396,3.096065,-0.460917,0.063999,0.02008611,-0.2014385,-0.3727115,-2.403237,1.495739
61.20039,5.61112,524,163,507,502,0.2902424,-0.05422039,0.01095669,-1.437442,3.095678,-0.4645144,0.06930229,0.02222316,-0.2046685,-0.3751302,-2.402948,1.494542
61.00039,5.622231,524,163,507,502,0.2923167,-0.0467839,0.01411712,-1.436676,3.096308,-0.4675323,0.04802506,0.03393728,-0.1991704,-0.3771563,-2.401098,1.4929
60.80038,5.633343,524,163,507,502,0.302984,-0.04679806,0.004545491,-1.436173,3.096361,-0.4711334,0.01707749,0.0445943,-0.2053306,-0.3797194,-2.399557,1.492075
60.60038,5.644454,524,163,507,502,0.3094397,-0.06165984,0.006766904,-1.435497,3.096841,-0.4749492,-0.002104849,0.04459082,-0.2062607,-0.3820699,-2.398706,1.491813
60.40038,5.655565,592,178,483,497,0.3245373,-0.11272,0.01027056,-1.433343,3.098166,-0.4791176,0.0022038,0.04139725,-0.2009658,-0.3841237,-2.397958,1.490857
60.20038,5.666677,592,178,483,497,0.3332293,-0.1553626,-0.002246421,-1.430987,3.099259,-0.4830399,0.01815046,0.03820948,-0.2042772,-0.3864833,-2.397575,1.489958
60.00038,5.677788,592,178,483,497,0.3364628,-0.1659976,-0.001116801,-1.429118,3.100272,-0.4869878,0.02995001,0.04033847,-0.1947664,-0.3883896,-2.396366,1.487982
59.80038,5.688899,592,178,483,497,0.3469866,-0.1392945,0.005144216,-1.428568,3.100908,-0.4908584,0.05569402,0.1052759,-0.1682026,-0.3896247,-2.389235,1.480014
59.60038,5.70001,574,160,462,496,0.3479532,-0.1019607,0.01026457,-1.428732,3.101121,-0.4954518,0.05345547,0.1202084,-0.1841513,-0.3924045,-2.385803,1.47627
59.40038,5.711122,574,160,462,496,0.3499452,-0.06781654,0.01859961,-1.429035,3.101444,-0.4994349,0.03724493,0.1159959,-0.2170689,-0.395816,-2.383537,1.474217
59.20038,5.722233,574,160,462,496,0.3530529,-0.05287167,0.02386358,-1.428908,3.102169,-0.503127,0.02758832,0.103218,-0.2266165,-0.3986752,-2.382524,1.473295
59.00038,5.733344,574,160,462,496,0.3605145,-0.05496284,0.02601724,-1.428507,3.102794,-0.5074131,0.03392834,0.077666,-0.2352253,-0.4015323,-2.382586,1.47278
58.80038,5.744455,574,160,462,496,0.3680198,-0.06562665,0.02182773,-1.427441,3.103491,-0.5118276,0.0681608,0.04993857,-0.2152735,-0.4034199,-2.383682,1.472251
58.60038,5.755567,519,143,505,498,0.3712485,-0.07309268,0.01761609,-1.426641,3.104102,-0.5161195,0.06485334,0.06913686,-0.2301334,-0.4064453,-2.381165,1.469305
58.40038,5.766678,519,143,505,498,0.3669891,-0.07629662,0.0186855,-1.425961,3.104672,-0.5200269,0.05735005,0.06487892,-0.235423,-0.40942,-2.380152,1.468145
58.20037,5.777789,519,143,505,498,0.3626893,-0.06780927,0.01435393,-1.425536,3.104751,-0.5237926,0.04664235,0.05104047,-0.2449544,-0.4123356,-2.380595,1.468194
58.00037,5.7889,519,143,505,498,0.3573622,-0.06677549,0.01220947,-1.424968,3.105183,-0.527676,0.03703213,0.05210815,-0.248081,-0.4152119,-2.379833,1.467344
57.80037,5.800012,446,155,515,498,0.3627868,-0.0965792,0.01665886,-1.423407,3.106611,-0.5320303,0.03815215,0.05101462,-0.2395608,-0.4175363,-2.379469,1.466625
57.60037,5.811123,446,155,515,498,0.3596862,-0.1190102,0.008256216,-1.421728,3.10747,-0.5360703,0.05614308,0.04571995,-0.256741,-0.420871,-2.379393,1.465433
57.40037,5.822234,446,155,515,498,0.3670933,-0.1157558,0.01571231,-1.420844,3.108488,-0.5400923,0.07205381,0.04784986,-0.2653719,-0.4240653,-2.379389,1.46432
57.20037,5.833345,446,155,515,498,0.3755613,-0.1008138,0.0145803,-1.420377,3.109011,-0.5445376,0.07739526,0.05212076,-0.2643328,-0.4269463,-2.37817,1.462103
57.00037,5.844457,446,155,515,498,0.3808524,-0.09224252,0.02201865,-1.419907,3.110085,-0.5491662,0.07834882,0.05640528,-0.2781948,-0.4306246,-2.377283,1.460563
56.80037,5.855568,444,149,485,496,0.3733603,-0.08058093,0.0166162,-1.419436,3.110448,-0.5531583,0.07294867,0.04683194,-0.2888255,-0.434164,-2.377652,1.460258
56.60037,5.866679,444,149,485,496,0.3743752,-0.06888942,0.01444279,-1.418988,3.111116,-0.5572675,0.06879722,0.02655104,-0.2739035,-0.4365869,-2.379285,1.461132
56.40037,5.87779,444,149,485,496,0.378638,-0.06887823,0.01338519,-1.418427,3.111647,-0.5616681,0.06890696,0.01905963,-0.2589898,-0.4388676,-2.380033,1.461035
56.20037,5.888902,444,149,485,496,0.3850603,-0.07949863,0.01451422,-1.417513,3.112383,-0.5661428,0.0712004,0.02648112,-0.2355574,-0.4408373,-2.379359,1.459568
56.00037,5.900013,444,149,485,496,0.4139283,-0.1081584,0.01471738,-1.415851,3.113633,-0.5717828,0.08406614,0.04671201,-0.2228347,-0.4431021,-2.377181,1.456308
55.80037,5.911124,469,142,490,496,0.4491045,-0.1186834,0.0169645,-1.414487,3.114838,-0.5778122,0.08932585,0.03928344,-0.233535,-0.4459538,-2.3771,1.454987
55.60036,5.922235,469,142,490,496,0.4203375,-0.1219589,0.02014774,-1.413657,3.115971,-0.5817004,0.08179407,0.03184347,-0.2462671,-0.4489323,-2.377818,1.454819
55.40036,5.933347,469,142,490,496,0.3873089,-0.1210115,0.02009449,-1.412716,3.116909,-0.5852835,0.08176842,0.04356673,-0.2494444,-0.4518713,-2.376755,1.452954
55.20036,5.944458,469,142,490,496,0.3584471,-0.09558038,0.01883691,-1.412205,3.117317,-0.5884665,0.0837481,0.05638438,-0.2686331,-0.4556732,-2.375258,1.45076
55.00036,5.955569,466,156,527,495,0.3583767,-0.07745281,0.02193125,-1.412096,3.117794,-0.5925304,0.07082755,0.03830202,-0.2888114,-0.4594315,-2.376406,1.451348
54.80036,5.966681,466,156,527,495,0.3604231,-0.05611094,0.02606924,-1.412318,3.118076,-0.5966945,0.07631727,0.04148383,-0.2696896,-0.4622161,-2.37567,1.449319
54.60036,5.977792,466,156,527,495,0.3582315,-0.03907579,0.02596912,-1.412474,3.118306,-0.6006786,0.1073756,0.0233466,-0.2465085,-0.464352,-2.376468,1.447995
54.40036,5.988903,466,156,527,495,0.3549738,-0.02522198,0.02909382,-1.412797,3.118755,-0.6044918,0.1084386,-0.002196699,-0.2508096,-0.4671014,-2.378464,1.44831
54.20036,6.000014,466,156,527,495,0.3559865,-0.01351633,0.02904494,-1.412994,3.119193,-0.6084008,0.09669119,-0.01391375,-0.2550123,-0.4700495,-2.380119,1.449117
54.00036,6.011126,408,155,498,496,0.3505864,0.007757915,0.02678673,-1.413676,3.119032,-0.6121462,0.1020196,-0.01710045,-0.2561177,-0.4728496,-2.381373,1.44882
53.80036,6.022237,408,155,498,496,0.3526798,0.01093579,0.026779,-1.41376,3.1194,-0.6158134,0.09119107,-0.02345963,-0.2816175,-0.4765871,-2.383405,1.44989
53.60036,6.033348,408,155,498,496,0.34841,0.01515764,0.02248743,-1.414104,3.119326,-0.6195775,0.06445009,-0.03302312,-0.2984897,-0.4803554,-2.385749,1.451935
53.40036,6.044459,408,155,498,496,0.3483938,0.01086496,0.02253016,-1.41406,3.119903,-0.6230913,0.08379875,-0.009645328,-0.2740804,-0.4825696,-2.385752,1.450395
53.20036,6.055571,417,157,495,498,0.3484748,-0.01361244,0.02692878,-1.413627,3.120729,-0.6270977,0.1115221,0.008462101,-0.2689191,-0.485457,-2.385207,1.447983
53.00035,6.066682,417,157,495,498,0.3357692,-0.03718645,0.01320817,-1.41258,3.121392,-0.630219,0.09986562,-0.003265783,-0.2592761,-0.4882054,-2.386526,1.44849
52.80035,6.077793,417,157,495,498,0.3378962,-0.03718963,0.01428435,-1.412319,3.121928,-0.6341136,0.08608077,-0.00967215,-0.2517343,-0.490778,-2.387844,1.448924
52.60035,6.088904,417,157,495,498,0.3325484,-0.0297696,0.01103831,-1.41223,3.122039,-0.6376795,0.07971211,-0.0118095,-0.248497,-0.4934065,-2.388941,1.449174
52.40035,6.100016,417,157,495,498,0.3314443,-0.02232861,0.01206955,-1.412173,3.122403,-0.6412594,0.07860871,-0.007529169,-0.2527543,-0.4964995,-2.389255,1.448646
52.20035,6.111127,402,159,548,497,0.3292873,-0.01167737,0.01305174,-1.412291,3.122229,-0.6450166,0.0861177,-0.006473795,-0.2453481,-0.4989922,-2.389957,1.448102
52.00035,6.122238,402,159,548,497,0.3282047,-0.006391915,0.01198396,-1.412238,3.122776,-0.6487535,0.1074188,-0.009664536,-0.2465632,-0.5016884,-2.391222,1.447376
51.80035,6.133349,402,159,548,497,0.3186223,-0.00852594,0.01729872,-1.412287,3.123034,-0.6521267,0.1106309,-0.00326845,-0.2444405,-0.5042648,-2.391443,1.446246
51.60035,6.144461,402,159,548,497,0.312224,-0.007492267,0.01622242,-1.412336,3.123249,-0.6554077,0.1212651,-0.01925236,-0.2477391,-0.5070307,-2.393745,1.446691
51.40035,6.155572,430,180,495,493,0.3089825,0.007386423,0.0118726,-1.412704,3.122979,-0.6587089,0.1030663,-0.02136627,-0.2604155,-0.5104209,-2.395151,1.44723
51.20035,6.166683,430,180,495,493,0.3057612,0.009518471,0.01505258,-1.412929,3.123147,-0.6618871,0.08500403,-0.03096895,-0.2539121,-0.5129962,-2.397008,1.448402
51.00035,6.177794,430,180,495,493,0.3046524,0.02546279,0.01069852,-1.413421,3.122711,-0.6652523,0.08714402,-0.03735246,-0.2528745,-0.5157238,-2.398688,1.448726
50.80035,6.188906,430,180,495,493,0.3015121,0.01157905,0.006510016,-1.413204,3.122805,-0.668504,0.09038581,-0.04162306,-0.2465122,-0.5182021,-2.400548,1.449248
50.60035,6.200017,430,180,495,493,0.2962874,-0.01826971,0.005610367,-1.412588,3.12345,-0.6716881,0.09582779,-0.04164872,-0.2305558,-0.520061,-2.401967,1.449265
50.40034,6.211128,467,158,495,497,0.2953716,-0.05877784,0.001574323,-1.411229,3.124401,-0.6751071,0.09587696,-0.03633374,-0.2230894,-0.5222667,-2.403082,1.449171
50.20034,6.222239,467,158,495,497,0.2922241,-0.08335324,-0.004675232,-1.40969,3.12548,-0.6777963,0.08841379,-0.03525521,-0.2219786,-0.5247838,-2.404024,1.44934
50.00034,6.233351,467,158,495,497,0.2997058,-0.09395334,-0.0003338642,-1.408843,3.126464,-0.6813889,0.08411969,-0.03098732,-0.2262014,-0.5273352,-2.405108,1.449466
49.80034,6.244462,467,158,495,497,0.3028452,-0.08972375,-0.0003406927,-1.407845,3.12742,-0.6844547,0.08622745,-0.0203298,-0.2293872,-0.5298908,-2.405632,1.448867
49.60034,6.255573,467,158,495,497,0.3123888,-0.08014123,0.003846057,-1.406529,3.127906,-0.6882657,0.09918264,-0.002242953,-0.2060237,-0.5317321,-2.404982,1.446688
49.40034,6.266685,429,140,507,498,0.3144993,-0.07909612,0.0006604642,-1.405841,3.12862,-0.6916405,0.1066554,-0.0001437068,-0.2039402,-0.5338807,-2.406116,1.446299
49.20034,6.277796,429,140,507,498,0.3187612,-0.08549461,0.001766331,-1.404671,3.129539,-0.6952097,0.09078147,-0.02041627,-0.1889574,-0.5357471,-2.408161,1.447565
49.00034,6.288907,429,140,507,498,0.3369418,-0.1046253,-0.001293346,-1.403327,3.130555,-0.6995874,0.0919163,-0.02895369,-0.1793911,-0.5374084,-2.409644,1.447794
48.80034,6.300018,429,140,507,498,0.3476634,-0.1237755,0.002008505,-1.401503,3.13187,-0.7040833,0.09188718,-0.0385282,-0.1847256,-0.5394456,-2.411305,1.448113
48.60034,6.31113,377,148,508,496,0.3487451,-0.1290923,0.003105156,-1.400339,3.132937,-0.7081527,0.08859172,-0.0406345,-0.1996222,-0.5420002,-2.412923,1.448544
48.40034,6.322241,377,148,508,496,0.3284857,-0.1302337,0.002014495,-1.399189,3.133945,-0.7110177,0.08204776,-0.03528199,-0.2208733,-0.5448934,-2.414221,1.448923
48.20034,6.333352,377,148,508,496,0.3113688,-0.1121338,0.008288968,-1.398982,3.134683,-0.714108,0.07982129,-0.0224784,-0.2336188,-0.5477696,-2.414739,1.448582
48.00034,6.344463,377,148,508,496,0.307038,-0.09295039,0.01670092,-1.398611,3.135539,-0.717732,0.08838521,-0.005438238,-0.2272548,-0.5500317,-2.414423,1.447063
47.80033,6.355575,377,148,508,496,0.3133231,-0.08012797,0.01773518,-1.398636,3.136298,-0.7206913,0.08519381,-0.0107546,-0.2261641,-0.5523002,-2.415279,1.446976
47.60033,6.366686,372,154,501,498,0.3165134,-0.07693908,0.01452668,-1.398123,3.136862,-0.7243884,0.08415417,-0.02354363,-0.2229816,-0.5545911,-2.416994,1.44752
47.40033,6.377797,372,154,501,498,0.3250317,-0.07908726,0.01351579,-1.39731,3.138173,-0.7282957,0.07572861,-0.05446976,-0.2101739,-0.5561506,-2.420369,1.449822
47.20033,6.388908,372,154,501,498,0.3378313,-0.08120432,0.008222383,-1.396559,3.13878,-0.7325168,0.06398299,-0.06298846,-0.2143666,-0.5585469,-2.422762,1.451486
47.00033,6.40002,372,154,501,498,0.377228,-0.09600056,0.01267025,-1.395635,3.140532,-0.737146,0.08537529,-0.03957865,-0.201699,-0.5604936,-2.423062,1.450209
46.80033,6.411131,461,139,504,497,0.4167274,-0.1193224,0.009671424,-1.394194,-3.141294,-0.7430955,0.1160203,-0.01181807,-0.2359598,-0.564016,-2.422734,1.44779
46.60033,6.422242,461,139,504,497,0.4455087,-0.1330981,0.01088994,-1.392922,-3.13948,-0.7488569,0.1030416,-0.00540036,-0.2635511,-0.5676214,-2.423798,1.447989
46.40033,6.433353,461,139,504,497,0.4360464,-0.1735574,0.01856152,-1.391104,-3.137102,-0.7539744,0.09128039,0.002066419,-0.269847,-0.5707501,-2.424118,1.447607
46.20033,6.444465,461,139,504,497,0.3881792,-0.1928601,0.02178036,-1.389537,-3.135222,-0.7574142,0.09774181,0.01910552,-0.2581504,-0.5733455,-2.42318,1.445588
46.00033,6.455576,461,139,504,497,0.3807008,-0.185418,0.02173335,-1.388511,-3.133762,-0.761737,0.09785792,0.01375,-0.2443047,-0.5755629,-2.423983,1.444973
45.80033,6.466687,489,145,526,497,0.3817076,-0.1630451,0.01946049,-1.387726,-3.133071,-0.7663528,0.09703693,-0.007610872,-0.2102428,-0.5768614,-2.425629,1.445299
45.60033,6.477798,489,145,526,497,0.386824,-0.1257206,0.02460034,-1.387749,-3.132283,-0.7698911,0.1045266,0.003026366,-0.2070863,-0.5792279,-2.425822,1.443944
45.40033,6.48891,489,145,526,497,0.3845868,-0.09376954,0.02441747,-1.387829,-3.131975,-0.7741447,0.1086896,-0.001208961,-0.2220375,-0.5821084,-2.426748,1.443306
45.20033,6.500021,489,145,526,497,0.3856026,-0.08418493,0.02122534,-1.387937,-3.130925,-0.7783093,0.0979545,0.0009176284,-0.2347341,-0.5849149,-2.427781,1.44336
45.00032,6.511132,489,145,526,497,0.3866446,-0.07989037,0.0265296,-1.387717,-3.130075,-0.7827914,0.09043585,0.01264784,-0.2431852,-0.5878417,-2.427595,1.442434
44.80032,6.522243,390,138,519,499,0.3866345,-0.0831212,0.02660375,-1.387367,-3.12845,-0.7871122,0.09039117,0.01690297,-0.2495686,-0.5907163,-2.428094,1.441833
44.60032,6.533355,390,138,519,499,0.3823698,-0.08207,0.02659038,-1.386949,-3.127596,-0.7913775,0.09683368,-0.002276644,-0.2443187,-0.593225,-2.429687,1.44179
44.40032,6.544466,390,138,519,499,0.3812502,-0.0756762,0.02440988,-1.386758,-3.127248,-0.7951214,0.1064765,-0.02892515,-0.236967,-0.595421,-2.43225,1.442534
44.20032,6.555577,390,138,519,499,0.3779949,-0.05436342,0.02533997,-1.387012,-3.127193,-0.7994554,0.1128224,-0.03849691,-0.2444819,-0.5982754,-2.434078,1.442566
44.00032,6.566689,433,139,486,497,0.3736109,-0.02667326,0.03265977,-1.387659,-3.12666,-0.8032914,0.1266542,-0.04703456,-0.24885,-0.6009859,-2.436433,1.44269
43.80032,6.5778,433,139,486,497,0.3756443,-0.0180984,0.04115494,-1.388309,-3.126075,-0.8068771,0.2045885,-0.08647192,-0.2281442,-0.6027303,-2.440411,1.441836
43.60032,6.588911,433,139,486,497,0.3755831,-0.00208929,0.04639134,-1.389062,-3.125923,-0.811095,0.2096256,-0.08534086,-0.2697251,-0.6066154,-2.442963,1.441412
43.40032,6.600022,433,139,486,497,0.3745331,0.0159983,0.04092657,-1.389551,-3.126556,-0.8160256,0.1519416,-0.07785979,-0.2927501,-0.6104812,-2.444749,1.442971
43.20032,6.611134,433,139,486,497,0.3776784,0.02987524,0.04405001,-1.390458,-3.126684,-0.8202839,0.1308165,-0.08749324,-0.2670503,-0.6125217,-2.447437,1.444411
43.00032,6.622245,379,126,499,502,0.3915561,0.03849575,0.04294743,-1.391654,-3.127375,-0.8256843,0.1299006,-0.07048392,-0.246773,-0.6144791,-2.448559,1.443584
42.80032,6.633356,379,126,499,502,0.4001302,0.02788493,0.04194976,-1.392054,-3.127238,-0.8306,0.1277869,-0.0545094,-0.2435344,-0.6170486,-2.449337,1.442878
42.60032,6.644467,379,126,499,502,0.3767321,-0.002064756,0.03783211,-1.391683,-3.126158,-0.833432,0.1236928,-0.07054487,-0.220087,-0.6186576,-2.452266,1.444036
42.40031,6.655579,379,126,499,502,0.3588695,-0.05758474,0.02318483,-1.390385,-3.125051,-0.8376914,0.1120461,-0.08974752,-0.2125639,-0.6204286,-2.45563,1.445677
42.20031,6.66669,344,157,527,498,0.3590739,-0.1141043,0.01285065,-1.388504,-3.123129,-0.8420239,0.1035734,-0.08230472,-0.2050353,-0.6224388,-2.457258,1.446082
42.00031,6.677801,344,157,527,498,0.357051,-0.1407452,0.01297882,-1.387137,-3.121593,-0.8465917,0.1131751,-0.06419377,-0.2029351,-0.6245059,-2.458076,1.445169
41.80031,6.688912,344,157,527,498,0.3582073,-0.1705453,0.0174103,-1.385547,-3.119277,-0.8510349,0.1194955,-0.02263235,-0.2114382,-0.6271611,-2.457113,1.442845
41.60031,6.700024,344,157,527,498,0.3625317,-0.1833086,0.01852073,-1.384035,-3.11769,-0.8558329,0.1055956,0.001882061,-0.2187518,-0.6297566,-2.456636,1.4416
41.40031,6.711135,344,157,527,498,0.3699711,-0.1811174,0.02491259,-1.383103,-3.115876,-0.8604849,0.1056723,0.01145132,-0.2070189,-0.6317902,-2.456466,1.440299
41.20031,6.722246,436,143,504,497,0.3806821,-0.1842615,0.02387675,-1.382111,-3.114343,-0.86593,0.1057804,0.002911747,-0.1910503,-0.6334009,-2.45708,1.439644
41.00031,6.733357,436,143,504,497,0.396639,-0.1725111,0.01851123,-1.381244,-3.113176,-0.8710289,0.1102194,-0.03123362,-0.1666304,-0.6345311,-2.45937,1.440134
40.80031,6.744469,436,143,504,497,0.4115673,-0.1735351,0.01322668,-1.380295,-3.111757,-0.8762908,0.1166049,-0.040792,-0.168821,-0.6363075,-2.460949,1.439926
40.60031,6.75558,436,143,504,497,0.3999314,-0.1916688,0.01332118,-1.378944,-3.109636,-0.881092,0.1112669,-0.0450452,-0.1730541,-0.6383128,-2.462377,1.439777
40.40031,6.766691,446,145,498,491,0.3786592,-0.20028,0.01013863,-1.377408,-3.107709,-0.8850867,0.1005675,-0.03971991,-0.180423,-0.6403869,-2.463526,1.439832
40.20031,6.777802,446,145,498,491,0.3627479,-0.2088108,0.01015774,-1.376282,-3.106005,-0.8895459,0.1025898,-0.02371958,-0.1963742,-0.6426905,-2.463967,1.438908
40.00031,6.788914,446,145,498,491,0.3605784,-0.2013129,0.01863434,-1.3753,-3.104083,-0.8938538,0.09725253,-0.01200137,-0.1973848,-0.6449249,-2.464197,1.438148
39.8003,6.800025,446,145,498,491,0.358414,-0.1852761,0.02494911,-1.375036,-3.102642,-0.8984946,0.0984348,0.003940344,-0.1824613,-0.6466928,-2.464227,1.436816
39.6003,6.811136,446,145,498,491,0.3562361,-0.1682338,0.02378676,-1.374413,-3.101379,-0.9027568,0.1165845,0.002868772,-0.1761975,-0.6484962,-2.464667,1.435449
39.4003,6.822248,383,122,489,496,0.3562235,-0.1617963,0.02802305,-1.373986,-3.099873,-0.9072133,0.132564,-0.01098317,-0.1774058,-0.650598,-2.466211,1.43473
39.2003,6.833359,383,122,489,496,0.3540423,-0.1458291,0.0268633,-1.373478,-3.098768,-0.9112932,0.1228966,-0.01949055,-0.1890698,-0.6529182,-2.467575,1.434679
39.0003,6.84447,383,122,489,496,0.3507969,-0.1309308,0.02889156,-1.372886,-3.097626,-0.9154616,0.09728561,-0.0237426,-0.1952984,-0.6552932,-2.468408,1.435063
38.8003,6.855581,383,122,489,496,0.3486601,-0.1277386,0.02886819,-1.372326,-3.096379,-0.9196033,0.09094371,-0.03759684,-0.188881,-0.6570333,-2.469901,1.435332
38.6003,6.866693,383,122,489,496,0.340063,-0.1064727,0.03192345,-1.371981,-3.095348,-0.9234234,0.08782324,-0.0440059,-0.1782161,-0.6586455,-2.471405,1.435635
38.4003,6.877804,429,130,487,496,0.3421603,-0.09045576,0.03504671,-1.372249,-3.094555,-0.9278139,0.09419304,-0.03654441,-0.1814425,-0.6606903,-2.472169,1.434979
38.2003,6.888915,429,130,487,496,0.3409949,-0.06379135,0.04128603,-1.372768,-3.094185,-0.9316249,0.1005234,-0.028007,-0.1899956,-0.6630211,-2.472792,1.43416
38.0003,6.900026,429,130,487,496,0.3420608,-0.06268682,0.04659678,-1.372788,-3.09329,-0.9358396,0.09516521,-0.0312025,-0.1942274,-0.6652417,-2.474121,1.434352
37.8003,6.911138,429,130,487,496,0.3410225,-0.06590272,0.04234974,-1.372656,-3.09256,-0.9398439,0.1038015,-0.0301594,-0.1783081,-0.6667826,-2.47504,1.43366
37.6003,6.922249,334,119,503,504,0.3367889,-0.06912003,0.04130281,-1.372564,-3.091568,-0.9438807,0.1186968,-0.02376789,-0.1805269,-0.6687171,-2.475784,1.432534
37.4003,6.93336,334,119,503,504,0.3315107,-0.07875615,0.03495434,-1.372086,-3.090532,-0.9476928,0.113376,-0.02164638,-0.177288,-0.6705541,-2.476453,1.432163
37.20029,6.944471,334,119,503,504,0.3294063,-0.08197264,0.03071274,-1.371835,-3.089603,-0.9515821,0.1059465,-0.02803428,-0.173,-0.6724786,-2.477449,1.432034
37.00029,6.955583,334,119,503,504,0.3283378,-0.07771247,0.02961932,-1.371721,-3.088907,-0.955474,0.1091875,-0.01632552,-0.1655453,-0.6740871,-2.477591,1.430882
36.80029,6.966694,334,119,503,504,0.3325823,-0.07131031,0.02638616,-1.371585,-3.088409,-0.9593894,0.1134385,0.01030029,-0.1655444,-0.6761398,-2.476797,1.428885
36.60029,6.977805,405,150,496,498,0.3443481,-0.08299053,0.0253997,-1.371118,-3.087332,-0.9637953,0.1102044,0.006052107,-0.1719186,-0.6782107,-2.477401,1.428165
36.40029,6.988916,405,150,496,498,0.3764115,-0.1127214,0.02348876,-1.370129,-3.085502,-0.9691845,0.1048549,-0.01418373,-0.1761738,-0.6801777,-2.479005,1.428395
36.20029,7.000028,405,150,496,498,0.3977999,-0.1371506,0.02046274,-1.36915,-3.08376,-0.9743921,0.1017193,-0.04295734,-0.1708751,-0.6817682,-2.481384,1.428993
36.00029,7.011139,405,150,496,498,0.3798649,-0.1820209,0.007910144,-1.36723,-3.081167,-0.9787682,0.1028409,-0.05894785,-0.1634501,-0.6832196,-2.483464,1.42943
35.80029,7.02225,380,151,506,498,0.3511861,-0.2013192,0.002657909,-1.365829,-3.078917,-0.9825227,0.1081718,-0.06320232,-0.1624386,-0.6850071,-2.484955,1.429264
35.60029,7.033361,380,151,506,498,0.3394992,-0.208812,0.002677295,-1.364481,-3.076856,-0.9865366,0.1092759,-0.04719663,-0.1645189,-0.6867366,-2.485965,1.42871
35.40029,7.044473,380,151,506,498,0.3319957,-0.1970957,0.005800758,-1.363728,-3.075252,-0.9903604,0.09854208,-0.01740254,-0.1665703,-0.6889139,-2.485255,1.427434
35.20029,7.055584,380,151,506,498,0.3372031,-0.162974,0.009871684,-1.363325,-3.074354,-0.9945319,0.104944,0.01136212,-0.1644365,-0.6907569,-2.484167,1.425179
35.00029,7.066695,380,151,506,498,0.3360156,-0.1341313,0.0214333,-1.363566,-3.073523,-0.998337,0.09749956,0.02946346,-0.1611592,-0.6925715,-2.483291,1.423639
34.80029,7.077806,403,130,510,499,0.3359852,-0.1235038,0.01711994,-1.363051,-3.072415,-1.002258,0.09859457,0.01879965,-0.1568995,-0.6938307,-2.483964,1.423091
34.60028,7.088918,403,130,510,499,0.3423804,-0.123494,0.01499958,-1.36241,-3.071128,-1.006498,0.1040112,-0.01104456,-0.1452634,-0.6950057,-2.48569,1.423127
34.40028,7.100029,403,130,510,499,0.3509949,-0.1426525,0.01085523,-1.361315,-3.069391,-1.011268,0.1114702,-0.03341947,-0.1442841,-0.6964251,-2.487586,1.423326
34.20028,7.11114,403,130,510,499,0.3574629,-0.1586336,0.005617112,-1.360037,-3.067672,-1.01596,0.1092854,-0.05364543,-0.1538871,-0.6980374,-2.489584,1.423854
34.00028,7.122252,379,123,490,498,0.363864,-0.1639018,0.01098158,-1.359298,-3.065928,-1.020471,0.1124615,-0.03872457,-0.1549595,-0.7000524,-2.490055,1.422809
33.80028,7.133363,379,123,490,498,0.4065296,-0.1776059,0.01005971,-1.358192,-3.063914,-1.026593,0.1135555,0.008149311,-0.148493,-0.7015869,-2.488125,1.420041
33.60028,7.144474,379,123,490,498,0.4342778,-0.1913345,0.01125392,-1.357223,-3.061759,-1.032714,0.1189478,0.05394086,-0.1367417,-0.7030277,-2.485581,1.416637
33.40028,7.155585,379,123,490,498,0.4406713,-0.1913185,0.0101987,-1.356202,-3.059808,-1.038645,0.1211594,0.05925118,-0.125029,-0.7041882,-2.484677,1.414521
33.20028,7.166697,379,123,490,498,0.3651102,-0.2086278,0.01017616,-1.35487,-3.057272,-1.041039,0.1254162,0.0421894,-0.1272152,-0.7056152,-2.485662,1.413709
33.00028,7.177808,350,127,516,503,0.3363704,-0.2161566,0.01334063,-1.353571,-3.055178,-1.044794,0.1231791,-0.00358887,-0.1443097,-0.7074229,-2.487993,1.414245
32.80028,7.188919,350,127,516,503,0.3406547,-0.2330597,0.03581468,-1.352886,-3.051942,-1.049389,0.1294535,-0.02699584,-0.1624989,-0.7095412,-2.489954,1.414113
32.60028,7.20003,350,127,516,503,0.3427173,-0.2065211,0.01968395,-1.351811,-3.050678,-1.053792,0.1316318,-0.05685358,-0.1572324,-0.7108116,-2.492727,1.414701
32.40028,7.211142,350,127,516,503,0.3511507,-0.1840787,0.0270276,-1.351557,-3.049095,-1.058287,0.1380068,-0.05791312,-0.1594066,-0.7124749,-2.494134,1.414107
32.20028,7.222253,350,127,516,503,0.4053951,-0.1593727,0.02803814,-1.351444,-3.04815,-1.064479,0.1412039,-0.05367485,-0.1583635,-0.7141895,-2.495706,1.413726
32.00027,7.233364,392,133,498,499,0.4372605,-0.132604,0.03220002,-1.351531,-3.047211,-1.070512,0.1231249,-0.05474938,-0.1539753,-0.7156036,-2.49691,1.41375
31.80027,7.244475,392,133,498,499,0.3945613,-0.1114115,0.03840623,-1.351744,-3.046266,-1.073884,0.1220851,-0.03984471,-0.1486183,-0.7170646,-2.497414,1.412922
31.60027,7.255587,392,133,498,499,0.335986,-0.1180338,0.03410165,-1.351357,-3.044588,-1.076185,0.1178245,-0.01215602,-0.1474753,-0.7186514,-2.497058,1.411396
31.40027,7.266698,392,133,498,499,0.3296408,-0.1340048,0.0395086,-1.350945,-3.04258,-1.080135,0.1093084,-0.007899135,-0.146345,-0.7202231,-2.497389,1.410655
31.20027,7.277809,403,131,501,498,0.3370804,-0.1318232,0.04269741,-1.3508,-3.041235,-1.084411,0.113669,-0.02390513,-0.132543,-0.7210578,-2.498961,1.410465
31.00027,7.28892,403,131,501,498,0.3381771,-0.1403343,0.04380628,-1.350314,-3.039402,-1.088696,0.115751,-0.03241718,-0.1389598,-0.7226216,-2.500223,1.41017
30.80027,7.300032,403,131,501,498,0.3541566,-0.1402727,0.04596414,-1.35007,-3.037603,-1.093492,0.1113509,-0.03238425,-0.1581196,-0.7250094,-2.50124,1.409885
30.60027,7.311143,403,131,501,498,0.398877,-0.1347797,0.04813464,-1.349983,-3.036128,-1.099406,0.1123957,-0.01426907,-0.1602282,-0.7268209,-2.501148,1.408555
30.40027,7.322254,403,131,501,498,0.4510902,-0.1451835,0.06106116,-1.350067,-3.033857,-1.106412,0.1092039,0.02087149,-0.1580271,-0.728692,-2.499918,1.406498
30.20027,7.333365,392,125,496,497,0.4202072,-0.1453068,0.05780672,-1.349751,-3.032314,-1.110633,0.1070808,0.03471795,-0.155858,-0.7304124,-2.499168,1.404854
30.00027,7.344477,392,125,496,497,0.3509987,-0.1551289,0.05775354,-1.349471,-3.030295,-1.113016,0.09959948,0.0304617,-0.1590156,-0.732357,-2.499344,1.404146
29.80027,7.355588,392,125,496,497,0.3297178,-0.1594936,0.05241521,-1.349012,-3.028385,-1.116542,0.09852487,0.0049043,-0.1612005,-0.7343858,-2.500841,1.404219
29.60027,7.366699,392,125,496,497,0.3425136,-0.1647472,0.05459431,-1.34881,-3.026431,-1.121139,0.09323175,-0.03132226,-0.1580225,-0.7358149,-2.503296,1.405163
29.40026,7.37781,343,125,485,497,0.3478118,-0.1604608,0.0567092,-1.348712,-3.024537,-1.12548,0.1038871,-0.04515573,-0.1581398,-0.7377766,-2.504771,1.404811
29.20026,7.388922,343,125,485,497,0.3562979,-0.151885,0.06093538,-1.348828,-3.022829,-1.12999,0.1071281,-0.04516241,-0.1528363,-0.7392184,-2.505869,1.404252
29.00026,7.400033,343,125,485,497,0.3987935,-0.1261376,0.06725147,-1.349339,-3.021759,-1.135438,0.1049659,-0.01961251,-0.1559707,-0.7409484,-2.506059,1.403345
28.80026,7.411144,343,125,485,497,0.4359843,-0.09935093,0.07141019,-1.34984,-3.021055,-1.141488,0.09960393,-0.001511231,-0.1612517,-0.7431481,-2.506273,1.402447
28.60026,7.422256,343,125,485,497,0.418875,-0.08445188,0.07662598,-1.35056,-3.020234,-1.145695,0.09540075,0.02617085,-0.1515935,-0.7447461,-2.505071,1.400632
28.40026,7.433367,330,129,499,497,0.3667234,-0.0953225,0.07021097,-1.350543,-3.018753,-1.148552,0.09547831,0.02615604,-0.1398699,-0.7458971,-2.504935,1.399503
28.20026,7.444478,330,129,499,497,0.3668221,-0.1209433,0.06076704,-1.350043,-3.016682,-1.152977,0.1061616,0.01015352,-0.1250284,-0.7463765,-2.505641,1.399657
28.00026,7.455589,330,129,499,497,0.3732532,-0.1326623,0.05657287,-1.34972,-3.014951,-1.157668,0.1082641,-0.002654344,-0.1293342,-0.7480068,-2.507197,1.399614
27.80026,7.466701,330,129,499,497,0.3711936,-0.1508094,0.0513457,-1.349268,-3.012795,-1.162195,0.1081864,-0.01542065,-0.1410711,-0.7497475,-2.508435,1.39932
27.60026,7.477812,301,116,504,500,0.3743867,-0.1519036,0.04389881,-1.348927,-3.011203,-1.166462,0.1081079,-0.01972236,-0.154958,-0.7521065,-2.510614,1.399522
27.40026,7.488923,301,116,504,500,0.3755698,-0.192302,0.05797824,-1.348611,-3.007764,-1.171432,0.1016685,-0.005865723,-0.1612842,-0.7540985,-2.510624,1.398594
27.20026,7.500034,301,116,504,500,0.3713203,-0.1860319,0.03983239,-1.347906,-3.005985,-1.17585,0.1081118,0.01430148,-0.1538827,-0.7560938,-2.511336,1.397682
27.00026,7.511146,301,116,504,500,0.3776991,-0.1870141,0.05050233,-1.347851,-3.003703,-1.180749,0.1186842,0.03349775,-0.1656447,-0.7583489,-2.510504,1.395339
26.80025,7.522257,301,116,504,500,0.383003,-0.1869785,0.05371593,-1.347843,-3.001431,-1.185408,0.1209027,0.02277982,-0.1539779,-0.7599128,-2.51196,1.395006
26.60025,7.533368,288,128,495,498,0.3850962,-0.1773727,0.05579624,-1.347874,-2.999575,-1.190136,0.1262697,0.02277315,-0.1476205,-0.761328,-2.511967,1.393517
26.40025,7.544479,288,128,495,498,0.3903724,-0.1623933,0.06104669,-1.348216,-2.998104,-1.195047,0.1327339,0.006749898,-0.1381213,-0.7627549,-2.513436,1.392953
26.20025,7.555591,288,128,495,498,0.3871951,-0.1666619,0.06319678,-1.348113,-2.995733,-1.199907,0.1305645,-0.006028727,-0.1445056,-0.7643033,-2.514414,1.392238
26.00025,7.566702,288,128,495,498,0.3861526,-0.1656681,0.05040828,-1.347704,-2.994005,-1.20462,0.126297,-0.01028948,-0.1455469,-0.7658825,-2.515155,1.391489
25.80025,7.577813,288,128,495,498,0.3925296,-0.1603436,0.04720721,-1.347672,-2.992096,-1.209598,0.1347627,-0.0124329,-0.1541368,-0.767784,-2.516354,1.390626
25.60025,7.588924,316,136,494,499,0.4330377,-0.1655607,0.04197017,-1.347259,-2.990112,-1.215949,0.132603,-0.02094941,-0.1583915,-0.7695001,-2.517411,1.389995
25.40025,7.600036,316,136,494,499,0.5002379,-0.1855828,0.04114277,-1.346908,-2.987247,-1.224152,0.1316543,-0.03268777,-0.1424058,-0.7703438,-2.518595,1.389398
25.20025,7.611147,316,136,494,499,0.5003047,-0.2047733,0.03912113,-1.34634,-2.984413,-1.230351,0.1380735,-0.03481929,-0.1392534,-0.771652,-2.51955,1.388309
25.00025,7.622258,316,136,494,499,0.4588228,-0.2251937,0.03277909,-1.34556,-2.981502,-1.234711,0.1348738,-0.03908829,-0.1403019,-0.7731178,-2.520893,1.387858
24.80025,7.633369,353,146,496,500,0.4300457,-0.221071,0.02737808,-1.344856,-2.979114,-1.239154,0.1327206,-0.02205183,-0.143472,-0.7749543,-2.521263,1.386669
24.60025,7.644481,353,146,496,500,0.4033045,-0.1923648,0.03249972,-1.34491,-2.977663,-1.243257,0.1188284,0.007780299,-0.1486626,-0.7768633,-2.520522,1.385173
24.40025,7.655592,353,146,496,500,0.390377,-0.1540109,0.04078906,-1.345329,-2.976713,-1.247587,0.1177966,0.04186526,-0.144356,-0.7786561,-2.519176,1.382771
24.20024,7.666703,353,146,496,500,0.389207,-0.125234,0.04381929,-1.345675,-2.975937,-1.252072,0.110397,0.05143999,-0.1357693,-0.7800846,-2.518364,1.381135
24.00024,7.677814,353,146,496,500,0.3997597,-0.09320644,0.04791006,-1.346194,-2.975605,-1.257179,0.106177,0.04397224,-0.1293531,-0.7812895,-2.518393,1.380156
23.80024,7.688926,328,147,511,503,0.408253,-0.07719143,0.0467734,-1.346585,-2.975,-1.262428,0.1029478,0.02054225,-0.1346869,-0.7828362,-2.519316,1.379755
23.60024,7.700037,328,147,511,503,0.4071946,-0.07721949,0.04251054,-1.346681,-2.974068,-1.267107,0.1177999,-0.006056935,-0.144391,-0.7842706,-2.520409,1.378865
23.40024,7.711148,328,147,511,503,0.4083194,-0.09108505,0.03832296,-1.346516,-2.97265,-1.272062,0.1295026,-0.02735327,-0.1487586,-0.7858168,-2.522027,1.378141
23.20024,7.72226,328,147,511,503,0.4030244,-0.09644283,0.03621909,-1.346544,-2.97129,-1.276838,0.1230564,-0.05715652,-0.1572728,-0.7874653,-2.524219,1.378545
23.00024,7.733371,295,159,497,499,0.4030709,-0.1071041,0.0351953,-1.346259,-2.969829,-1.281775,0.125215,-0.06566039,-0.1530144,-0.7885748,-2.52536,1.377991
22.80024,7.744482,295,159,497,499,0.404166,-0.1156226,0.03524552,-1.346198,-2.96823,-1.286635,0.1242163,-0.06567317,-0.1434196,-0.789786,-2.526747,1.377623
22.60024,7.755593,295,159,497,499,0.4062384,-0.1049208,0.04050054,-1.346431,-2.967446,-1.291168,0.1263461,-0.06139462,-0.1434133,-0.791068,-2.52759,1.376754
22.40024,7.766705,295,159,497,499,0.4062042,-0.09848654,0.04792106,-1.346902,-2.966282,-1.295936,0.1295373,-0.04434896,-0.1434133,-0.7926207,-2.528049,1.375545
22.20024,7.777816,295,159,497,499,0.4050981,-0.08353894,0.05209808,-1.347484,-2.965724,-1.300787,0.1316484,-0.02408557,-0.1444514,-0.7941408,-2.52767,1.373855
22.00024,7.788927,306,169,491,500,0.4017819,-0.05261476,0.05937413,-1.348358,-2.965773,-1.305138,0.1337665,-0.008103922,-0.1455078,-0.7958207,-2.52761,1.372246
21.80024,7.800038,306,169,491,500,0.4017029,-0.03130273,0.06032598,-1.349176,-2.965798,-1.309555,0.1263424,-0.009157062,-0.1411832,-0.797074,-2.527841,1.371179
21.60023,7.81115,306,169,491,500,0.4005461,-0.005733873,0.06124382,-1.350036,-2.96629,-1.313857,0.1156926,0.004705667,-0.1389554,-0.7985872,-2.527289,1.369914
21.40023,7.822261,306,169,491,500,0.3961928,0.02301729,0.06319924,-1.35094,-2.966967,-1.318185,0.1199959,0.018549,-0.1325781,-0.8000184,-2.526802,1.368081
21.20023,7.833372,306,169,491,500,0.3982412,0.0443164,0.06201092,-1.351726,-2.967726,-1.322354,0.1307178,0.01428328,-0.1230791,-0.8011737,-2.527006,1.366441
21.00023,7.844483,298,161,496,500,0.3939058,0.06455379,0.06401949,-1.352791,-2.968769,-1.326419,0.1327868,-0.001682967,-0.1327022,-0.8027561,-2.528043,1.365635
20.80023,7.855595,298,161,496,500,0.3938577,0.08053141,0.06179605,-1.353735,-2.97001,-1.330569,0.1358955,-0.01549388,-0.146587,-0.8045974,-2.528983,1.364657
20.60023,7.866706,298,161,496,500,0.3884864,0.09329592,0.06171497,-1.354705,-2.971196,-1.334476,0.1432091,-0.02931215,-0.1679624,-0.8068749,-2.530598,1.363978
20.40023,7.877817,298,161,496,500,0.389551,0.09652573,0.06595571,-1.355779,-2.972163,-1.338911,0.1410551,-0.03354666,-0.1711396,-0.808557,-2.531259,1.362991
20.20023,7.888928,301,165,500,499,0.3778291,0.09754972,0.06593136,-1.356748,-2.973101,-1.342571,0.1357419,-0.04739809,-0.1700515,-0.8101288,-2.53299,1.362815
20.00023,7.90004,301,165,500,499,0.3746348,0.09433477,0.0638039,-1.357444,-2.973949,-1.346254,0.1335714,-0.04098895,-0.1742751,-0.8119041,-2.533652,1.361972
19.80023,7.911151,301,165,500,499,0.3682825,0.08260061,0.06492588,-1.3583,-2.974331,-1.350099,0.13886,-0.02606583,-0.1796182,-0.814024,-2.534124,1.360521
19.60023,7.922262,301,165,500,499,0.3629971,0.07192107,0.06392036,-1.35916,-2.974609,-1.353984,0.1377831,-0.01754007,-0.1774496,-0.8156293,-2.534432,1.359572
19.40023,7.933373,301,165,500,499,0.3523832,0.05808707,0.07142453,-1.360042,-2.974881,-1.357607,0.1335975,0.003732085,-0.1592648,-0.816702,-2.534007,1.358497
19.20023,7.944485,242,141,497,500,0.3428391,0.0494823,0.06293608,-1.360554,-2.975142,-1.361112,0.1240864,0.01862754,-0.1474608,-0.8181108,-2.533643,1.35711
19.00023,7.955596,242,141,497,500,0.3396597,0.04734744,0.06401081,-1.36142,-2.975501,-1.364915,0.117677,0.02606383,-0.1399252,-0.8192059,-2.533436,1.356743
18.80022,7.966707,242,141,497,500,0.3312229,0.01650962,0.07908753,-1.362498,-2.974735,-1.368527,0.1070808,0.03457151,-0.1313177,-0.8205343,-2.53293,1.355457
18.60022,7.977818,242,141,497,500,0.3269394,0.03238104,0.06300893,-1.362915,-2.9755,-1.372061,0.1071431,0.03455414,-0.1227975,-0.8217642,-2.532985,1.35421
18.40022,7.98893,270,140,502,501,0.3248844,0.01001508,0.06526357,-1.363542,-2.974782,-1.375761,0.1114938,0.01003857,-0.111141,-0.8225317,-2.534036,1.353566
18.20022,8.000041,270,140,502,501,0.3153523,-0.0006830398,0.05994673,-1.364171,-2.974553,-1.379243,0.1104167,-0.05070211,-0.1026449,-0.8222968,-2.537145,1.355775
18.00022,8.011152,270,140,502,501,0.3132141,-0.0007047735,0.05998329,-1.364739,-2.974302,-1.382631,0.1166896,-0.06243655,-0.1090507,-0.8228145,-2.538936,1.356635
17.80022,8.022264,270,140,502,501,0.3057618,-0.000699986,0.06316552,-1.365529,-2.974342,-1.385934,0.1187169,-0.0656127,-0.1239835,-0.8243666,-2.540572,1.35639
17.60022,8.033375,270,140,502,501,0.3036272,0.0003513147,0.06313757,-1.365987,-2.974251,-1.389272,0.1229764,-0.04751433,-0.12504,-0.825508,-2.541125,1.35513
17.40022,8.044486,304,163,504,499,0.302595,-0.007133236,0.0589173,-1.366517,-2.97385,-1.392682,0.1209105,-0.01556948,-0.1143321,-0.8266585,-2.540483,1.353437
17.20022,8.055597,304,163,504,499,0.3016201,-0.03588159,0.06334264,-1.367093,-2.97249,-1.396224,0.1252654,0.0004010946,-0.1026355,-0.8277318,-2.540257,1.351545
17.00022,8.066709,304,163,504,499,0.3006756,-0.06995979,0.06460113,-1.36758,-2.97069,-1.399868,0.1083717,0.01847798,-0.08012328,-0.8281541,-2.539416,1.350227
16.80022,8.07782,304,163,504,499,0.2986787,-0.09989496,0.04878926,-1.367401,-2.968848,-1.403602,0.09884328,0.02378961,-0.07474564,-0.8292434,-2.539356,1.349024
16.60022,8.088931,236,201,504,497,0.2966696,-0.1329453,0.04577813,-1.367437,-2.966372,-1.407347,0.08291318,0.009931833,-0.07038525,-0.8297659,-2.539893,1.348664
16.40022,8.100042,236,201,504,497,0.2988719,-0.1574353,0.04698856,-1.367638,-2.963887,-1.411034,0.07753585,0.004620314,-0.0778255,-0.8309931,-2.540269,1.348167
16.20021,8.111154,236,201,504,497,0.3021259,-0.1734093,0.0460193,-1.367724,-2.961409,-1.414967,0.07114885,-0.003902338,-0.07992423,-0.8319151,-2.540926,1.347741
16.00021,8.122265,236,201,504,497,0.3544247,-0.2061896,0.0558819,-1.368211,-2.958183,-1.42074,0.07326198,0.003551014,-0.08206879,-0.8329979,-2.541069,1.346956
15.80021,8.133376,236,201,504,497,0.4632387,-0.2494676,0.05522921,-1.368193,-2.954486,-1.429278,0.07437866,0.01100165,-0.07567181,-0.8336733,-2.54078,1.345783
15.60021,8.144487,254,159,498,499,0.4877286,-0.2493379,0.06272422,-1.368676,-2.951543,-1.436132,0.08097453,0.004558019,-0.0469609,-0.8333681,-2.541158,1.344898
15.40021,8.155599,254,159,498,499,0.4333995,-0.2526839,0.06798112,-1.369197,-2.948786,-1.439575,0.07792754,-0.002891332,-0.04594474,-0.834705,-2.541765,1.342539
15.20021,8.16671,254,159,498,499,0.349374,-0.2892153,0.06592676,-1.369298,-2.944379,-1.441894,0.06620386,0.01521493,-0.04584119,-0.835351,-2.541061,1.341648
15.00021,8.177821,254,159,498,499,0.3153079,-0.3009902,0.07765052,-1.369826,-2.940613,-1.445312,0.06215367,0.03332042,-0.03090751,-0.8359977,-2.539798,1.338569
14.80021,8.188932,254,159,498,499,0.3141554,-0.2764928,0.07750887,-1.370351,-2.938144,-1.449286,0.04736013,0.04927244,-0.01267477,-0.83584,-2.538357,1.337489
14.60021,8.200044,198,143,499,497,0.3269098,-0.279531,0.09673698,-1.371731,-2.934818,-1.453918,0.03050797,0.07481638,0.003423642,-0.8362006,-2.536403,1.334979
14.40022,8.211155,198,143,499,497,0.3908067,-0.266611,0.08078431,-1.371902,-2.932205,-1.460581,0.02098481,0.1014303,0.01524195,-0.8361292,-2.53389,1.333436
14.20022,8.222266,198,143,499,497,0.4418935,-0.2653122,0.0893961,-1.372941,-2.929077,-1.467175,0.02735408,0.1163732,0.001342814,-0.8373266,-2.53178,1.330375
14.00022,8.233377,198,143,499,497,0.4269888,-0.2706942,0.08940779,-1.373667,-2.925777,-1.471864,0.0379139,0.1227849,-0.01150581,-0.8381852,-2.529967,1.328455
13.80022,8.244489,169,155,496,493,0.3716294,-0.2752251,0.07656212,-1.373874,-2.922493,-1.475204,0.04741354,0.09513317,-0.03399816,-0.8395706,-2.529692,1.32669
13.60022,8.2556,169,155,496,493,0.3375328,-0.2753138,0.07970001,-1.374516,-2.919495,-1.47857,0.05915133,0.06212451,-0.0405116,-0.8401112,-2.530046,1.325258
13.40022,8.266711,169,155,496,493,0.327895,-0.2635996,0.08494437,-1.375345,-2.916712,-1.482416,0.0729386,0.02698849,-0.05130548,-0.8407648,-2.531149,1.324795
13.20022,8.277822,169,155,496,493,0.3352622,-0.244321,0.09019864,-1.376608,-2.914868,-1.48654,0.07292971,0.004639633,-0.05773633,-0.8416111,-2.531782,1.324081
13.00022,8.288934,169,155,496,493,0.3448007,-0.2367503,0.1040195,-1.377917,-2.912327,-1.491119,0.07820228,-0.009196237,-0.06631319,-0.8424553,-2.532789,1.323721
12.80022,8.300045,199,182,508,501,0.3468983,-0.22504,0.1007367,-1.378644,-2.909959,-1.495506,0.0516073,-0.02944171,-0.06829786,-0.8431504,-2.534046,1.324098
12.60022,8.311156,199,182,508,501,0.3491089,-0.2431969,0.09125628,-1.379118,-2.906673,-1.500029,0.05465766,-0.04965654,-0.08645782,-0.8442993,-2.535946,1.325114
12.40022,8.322268,199,182,508,501,0.3575947,-0.2335425,0.09760778,-1.380172,-2.904183,-1.504786,0.06328148,-0.04964658,-0.07906368,-0.8449731,-2.53661,1.323839
12.20022,8.333379,199,182,508,501,0.3575905,-0.2250287,0.09647634,-1.380952,-2.901742,-1.509542,0.06766572,-0.04112528,-0.0652495,-0.8454791,-2.536746,1.322646
12.00022,8.34449,176,172,502,499,0.3661221,-0.2271346,0.09543655,-1.381768,-2.899133,-1.514318,0.06975271,-0.04218126,-0.0716572,-0.8462354,-2.537597,1.322335
