ref,t,emg1,emg2,emg1raw,emg2raw,aDotS,bDotS,gDotS,aS,bS,gS,aDotSH,bDotSH,gDotSH,aSH,bSH,gSH
90,0,567,137,474,500,0.3897351,2.05748,1.008781,-1.400686,3.041924,-0.1552911,-0.6827341,-1.853653,0.2402965,-0.3053357,2.970707,2.878689
90,0.01111111,567,137,474,500,0.3143146,2.000117,0.9409683,-1.403646,3.044916,-0.1336934,-0.6396486,-1.811474,0.266735,-0.2964839,2.91826,2.938241
90,0.02222222,602,177,517,492,0.1954784,1.928311,0.8690157,-1.403705,3.048106,-0.1136477,-0.6099958,-1.702653,0.2443204,-0.2905391,2.873601,2.990442
90,0.03333334,602,177,517,492,0.07243955,1.866714,0.8232725,-1.403225,3.052159,-0.09380772,-0.578837,-1.618012,0.2967149,-0.2829768,2.827122,3.043365
90,0.04444445,602,177,517,492,0.0006500483,1.814778,0.7740334,-1.40261,3.055985,-0.07465427,-0.5297826,-1.551986,0.3154194,-0.2769997,2.777821,3.098601
90,0.05555556,602,177,517,492,-0.08334732,1.631739,0.7104615,-1.401209,3.060077,-0.06088252,-0.4762505,-1.457172,0.2907847,-0.2733485,2.733091,-3.134271
90,0.06666667,602,177,517,492,-0.1054231,1.509668,0.6830784,-1.401316,3.064704,-0.04704101,-0.4148134,-1.325711,0.2471991,-0.2716222,2.693843,-3.090017
90,0.07777778,579,210,518,495,-0.1133732,1.309337,0.6925077,-1.40141,3.071247,-0.03768799,-0.3670889,-1.266903,0.1718729,-0.2718827,2.65277,-3.043707
90,0.08888889,579,210,518,495,-0.09970927,1.177452,0.6766841,-1.402169,3.076642,-0.02746571,-0.3344719,-1.235611,0.07621527,-0.2742715,2.611129,-2.995869
90,0.1,579,210,518,495,-0.07746243,1.08578,0.6166359,-1.402983,3.080513,-0.01770416,-0.3470608,-1.025208,-0.1122419,-0.2794844,2.597933,-2.975854
90,0.1111111,579,210,518,495,-0.08444536,1.057183,0.5651149,-1.402953,3.083773,-0.00625683,-0.1784117,-1.085918,-0.2538301,-0.2890254,2.557863,-2.933501
90,0.1222222,609,208,489,499,-0.1240269,1.019393,0.5122784,-1.401456,3.086938,0.004037352,-0.3321774,-1.031773,-0.1567011,-0.2877876,2.530622,-2.896681
90,0.1333333,609,208,489,499,-0.1473795,0.9528308,0.4873596,-1.400096,3.091,0.01294563,-0.2440785,-1.036187,0.01024106,-0.2858712,2.488213,-2.852285
90,0.1444445,609,208,489,499,-0.1184996,0.8372905,0.4463295,-1.400304,3.094141,0.01946291,-0.192892,-0.8695227,0.09883156,-0.2842978,2.467744,-2.830848
90,0.1555556,609,208,489,499,-0.1014649,0.7024168,0.4247275,-1.400416,3.097817,0.0237506,-0.1364415,-0.718532,0.05441383,-0.2859713,2.455578,-2.8175
90,0.1666667,609,208,489,499,-0.09544224,0.6297967,0.4110755,-1.400266,3.101652,0.02907053,-0.1036336,-0.6473979,-0.04332186,-0.2903458,2.441837,-2.801139
90,0.1777778,616,213,480,498,-0.07610577,0.5210722,0.3771099,-1.400559,3.104698,0.0320048,-0.1111421,-0.5446138,-0.08859925,-0.2929951,2.435267,-2.791811
90,0.1888889,616,213,480,498,-0.062509,0.4717317,0.3572743,-1.400729,3.107659,0.0361146,-0.08191767,-0.4877333,-0.1169977,-0.2953552,2.424844,-2.779862
90,0.2,616,213,480,498,-0.0311071,0.3888716,0.3319929,-1.401706,3.110348,0.03821423,-0.1108708,-0.38791,-0.06238458,-0.294732,2.420821,-2.773688
90,0.2111111,616,213,480,498,-0.002185673,0.3404128,0.3232554,-1.403034,3.113427,0.04063185,-0.1114593,-0.3559855,-0.02863967,-0.2945403,2.41076,-2.761752
90,0.2222222,616,213,480,498,0.05124235,0.2711076,0.3060979,-1.405523,3.115869,0.04158686,-0.1112127,-0.337335,0.02046946,-0.2939096,2.400106,-2.749469
90,0.2333333,851,215,489,502,0.1205472,0.2265287,0.2852916,-1.409071,3.11788,0.04289394,-0.1235735,-0.3243628,0.04834265,-0.2932273,2.389082,-2.736181
90,0.2444444,851,215,489,502,0.1715515,0.2025327,0.2559442,-1.41242,3.119287,0.04460102,-0.106412,-0.2504727,0.06400332,-0.2920614,2.386537,-2.733051
90,0.2555556,851,215,489,502,0.2114704,0.1742491,0.2391864,-1.416098,3.120883,0.04570197,-0.1028942,-0.1675197,0.05995586,-0.2911149,2.387482,-2.733187
90,0.2666667,851,215,489,502,0.2320021,0.1566022,0.2256497,-1.419269,3.122537,0.04684074,-0.109009,-0.1055523,0.01486321,-0.2911325,2.390307,-2.734665
90,0.2777778,888,235,488,504,0.2475202,0.09936263,0.1958169,-1.422612,3.123563,0.04641144,-0.1101872,-0.07087181,-0.03455416,-0.2921131,2.394309,-2.737135
90,0.2888889,888,235,488,504,0.2592362,0.06695648,0.1835347,-1.425843,3.12503,0.04635445,-0.09701118,-0.07285877,-0.02368121,-0.2919038,2.391309,-2.733233
90,0.3,888,235,488,504,0.2605443,0.04035646,0.1624462,-1.428932,3.125921,0.04602369,-0.03166863,-0.03849994,0.03742847,-0.2903714,2.38806,-2.731753
90,0.3111111,888,235,488,504,0.2553982,0.03838504,0.150665,-1.431704,3.126923,0.04635552,-0.008695222,-0.007291419,0.05546384,-0.2889397,2.388053,-2.732592
90,0.3222222,888,235,488,504,0.2412114,0.02841747,0.1290021,-1.434086,3.127458,0.04634752,-0.002855254,0.01361987,0.02798928,-0.2890574,2.39082,-2.735656
90,0.3333333,796,252,480,508,0.2304538,0.001348369,0.09443302,-1.436309,3.127435,0.04568759,-0.02590191,0.01728054,-0.01544971,-0.2898041,2.395194,-2.738716
90,0.3444445,796,252,480,508,0.2255571,-0.01357576,0.08060847,-1.438792,3.127778,0.04513313,-0.03429991,0.02806202,-0.01150337,-0.2891735,2.396815,-2.739946
90,0.3555556,796,252,480,508,0.2156076,-0.01875098,0.06376417,-1.440964,3.127803,0.04476188,-0.04415899,0.03909776,0.0180907,-0.2878813,2.398226,-2.741018
90,0.3666667,796,252,480,508,0.198978,-0.01394369,0.05346808,-1.44263,3.128067,0.0448258,-0.04119268,0.03512944,0.04128435,-0.2866845,2.397108,-2.739759
90,0.3777778,879,325,452,500,0.1375845,0.007925421,0.03214285,-1.442577,3.127778,0.0455049,-0.03092511,0.03291385,0.06552739,-0.2852869,2.395818,-2.738769
90,0.3888889,879,325,452,500,0.1036545,0.01554052,0.02161935,-1.44295,3.127685,0.04569825,-0.0180398,0.02797419,0.07078651,-0.2844149,2.39447,-2.737629
90,0.4,879,325,452,500,0.04974867,-7.050438E-05,0.002510651,-1.442014,3.127369,0.04532327,0.0003592782,0.04343916,0.02806095,-0.2848629,2.397965,-2.741671
90,0.4111111,879,325,452,500,0.01290876,-0.03415603,-0.02091141,-1.441332,3.126898,0.04394322,0.001474783,0.03944042,-0.0007983325,-0.2854946,2.399851,-2.743418
90,0.4222222,879,325,452,500,-0.002963945,-0.05142406,-0.03499308,-1.440772,3.126284,0.04293122,0.0007627383,0.03997438,-0.005221358,-0.2854919,2.401542,-2.745169
90,0.4333333,854,286,506,503,-0.02294898,-0.04719977,-0.05105442,-1.440002,3.12552,0.04259886,-7.487461E-05,0.03625538,0.01087037,-0.2848922,2.401558,-2.745324
90,0.4444444,854,286,506,503,-0.02592501,-0.04708822,-0.05266652,-1.439661,3.125048,0.0421099,0.00376574,0.03352441,0.01580648,-0.2846051,2.402212,-2.746092
90,0.4555556,854,286,506,503,-0.004910823,-0.03990132,-0.05602896,-1.440039,3.124221,0.04194585,0.02340012,0.01885321,0.02439602,-0.2843883,2.400217,-2.744914
90,0.4666667,854,286,506,503,0.01418533,-0.03485926,-0.04799528,-1.440662,3.123856,0.04179299,0.02396756,0.01640673,0.03527736,-0.2838589,2.398763,-2.743863
90,0.4777778,854,286,506,503,0.0589166,-0.02622327,-0.03866769,-1.442417,3.123461,0.04169339,0.03718201,0.03334812,0.04134429,-0.2832772,2.399519,-2.745678
90,0.4888889,841,273,512,502,0.0701475,-0.02097519,-0.03530073,-1.443438,3.122914,0.04160177,0.0373603,0.03330238,0.04029836,-0.2828757,2.3997,-2.746412
90,0.5,841,273,512,502,0.1117083,-0.009207286,-0.02651352,-1.445786,3.122578,0.04186755,0.03053288,0.02530592,0.01354616,-0.2834669,2.400467,-2.747247
90,0.5111111,841,273,512,502,0.140275,-0.0052123,-0.03047622,-1.448006,3.121697,0.04191123,0.01437188,0.02631379,0.0186137,-0.2830471,2.402008,-2.748574
90,0.5222223,841,273,512,502,0.1541592,-0.001865324,-0.03041841,-1.450018,3.121114,0.04192242,0.02050417,0.01952818,0.03471825,-0.282391,2.400347,-2.747475
90,0.5333334,773,263,489,506,0.1664623,0.00331936,-0.02729385,-1.452171,3.120536,0.04204173,0.02827347,0.03648088,0.02274356,-0.2823355,2.402703,-2.750681
90,0.5444446,773,263,489,506,0.16199,0.006296754,-0.02690798,-1.453796,3.120049,0.04215997,0.02472774,0.04446018,-0.005893422,-0.2828959,2.406114,-2.754256
90,0.5555557,773,263,489,506,0.1468226,0.01020836,-0.02691364,-1.454916,3.119584,0.04239007,0.01636663,0.03137789,-0.04686998,-0.284538,2.409028,-2.756787
90,0.5666668,773,263,489,506,0.128184,0.009137135,-0.03208906,-1.455563,3.119005,0.04249233,0.01791677,0.02741638,-0.04656082,-0.2849875,2.410162,-2.758094
90,0.577778,773,263,489,506,0.1074668,0.006989978,-0.03763457,-1.456111,3.118379,0.04253068,0.03408913,0.03690596,-0.002106361,-0.2836149,2.409308,-2.758505
90,0.5888891,777,243,489,500,0.08010749,0.0009268261,-0.03471669,-1.456261,3.118144,0.04237995,0.03255167,0.04658609,0.01370465,-0.2829939,2.410973,-2.760828
90,0.6000003,777,243,489,500,0.0636984,-0.001645394,-0.03310816,-1.456598,3.117822,0.04225478,0.03033992,0.04773981,0.01012975,-0.2828629,2.412414,-2.762672
90,0.6111114,777,243,489,500,0.05952004,-0.004878461,-0.03400698,-1.457089,3.117491,0.04218394,0.03528034,0.04444432,-0.0138049,-0.2837689,2.414486,-2.765249
90,0.6222225,777,243,489,500,0.06594776,-0.003731303,-0.03407849,-1.457994,3.116997,0.04218767,0.03741184,0.03803913,-0.01874405,-0.2841689,2.415316,-2.766532
90,0.6333337,702,233,475,496,0.06757148,-0.005040027,-0.03073379,-1.458712,3.116744,0.0420854,0.04159854,0.0304404,-0.003940383,-0.2836969,2.414788,-2.766603
90,0.6444448,702,233,475,496,0.06535922,0.0002235994,-0.03070556,-1.459414,3.116252,0.04229899,0.04109143,0.0199308,0.01120684,-0.2832927,2.413435,-2.76576
90,0.655556,702,233,475,496,0.05304909,0.005129647,-0.02786181,-1.459668,3.115983,0.04250085,0.04173187,0.02753069,0.002604483,-0.2835255,2.415036,-2.767771
90,0.6666671,702,233,475,496,0.04659544,0.002869526,-0.02791668,-1.459985,3.115725,0.04238953,0.0389249,0.03502269,-0.02054615,-0.2843015,2.41825,-2.771228
90,0.6777782,702,233,475,496,0.04758586,-0.003584627,-0.02718722,-1.460484,3.115416,0.04216636,0.04518801,0.01868424,-0.02684862,-0.2849928,2.417671,-2.771128
90,0.6888894,660,226,485,500,0.05661288,-0.003252726,-0.0301908,-1.461365,3.114849,0.04222229,0.0427724,0.001673438,-0.01300305,-0.2849843,2.415175,-2.768899
90,0.7000005,660,226,485,500,0.06150497,0.001361735,-0.03457472,-1.462148,3.114244,0.04239113,0.02696838,-0.006452542,0.005043361,-0.2845124,2.413448,-2.767052
90,0.7111117,660,226,485,500,0.05278945,0.00707351,-0.02681768,-1.462495,3.114111,0.04265905,0.0191445,-0.006682897,0.01134202,-0.2842637,2.413471,-2.767167
90,0.7222228,660,226,485,500,0.04745957,0.008639041,-0.01994821,-1.462937,3.114079,0.04273415,0.01701931,0.003071542,0.01518054,-0.2839122,2.413782,-2.767723
90,0.7333339,625,257,491,498,0.04067582,0.00837304,-0.01772155,-1.463205,3.113954,0.04293016,0.02122209,0.006048432,0.00288298,-0.2841401,2.414683,-2.768985
90,0.7444451,625,257,491,498,0.04114453,0.005958978,-0.01351319,-1.463649,3.113988,0.04294507,0.01974852,0.009051557,0.004764907,-0.2840272,2.414922,-2.769457
90,0.7555562,625,257,491,498,0.03432749,0.007819813,-0.0111474,-1.463887,3.113833,0.0431235,0.02268065,0.006861504,0.006346188,-0.2839888,2.414477,-2.769408
90,0.7666674,625,257,491,498,0.03262834,0.009651438,-0.006957547,-1.464241,3.113899,0.04335307,0.01908593,-0.008567611,0.001659977,-0.2843612,2.412946,-2.767958
90,0.7777785,625,257,491,498,0.02278761,0.0110807,0.001423849,-1.464235,3.114126,0.04351179,0.0005977823,-0.001579515,0.0061505,-0.2840059,2.413675,-2.768281
90,0.7888896,588,211,487,496,0.01667638,0.01648757,-0.001252222,-1.464211,3.114075,0.04381379,-0.003336109,0.004051776,0.00975326,-0.2837332,2.414506,-2.769014
90,0.8000008,588,211,487,496,0.01703877,0.01189203,0.003882415,-1.464419,3.114218,0.04378716,-0.003432563,0.009783817,0.02584311,-0.282971,2.414208,-2.768888
90,0.8111119,588,211,487,496,0.03246853,0.01565556,0.01604787,-1.465179,3.114619,0.04408703,-0.00457485,0.01324047,0.03209234,-0.282342,2.414409,-2.769211
90,0.8222231,588,211,487,496,0.04741306,0.01478205,0.01701941,-1.466122,3.114755,0.0442383,-0.005996794,0.008115131,0.03193663,-0.2819963,2.413747,-2.768521
90,0.8333342,588,211,487,496,0.06037202,0.01501994,0.0166886,-1.467012,3.114922,0.0444194,-0.007575262,-0.001284872,0.02104549,-0.2819127,2.412944,-2.767502
90,0.8444453,548,205,489,492,0.06212419,0.0187126,0.02682615,-1.4677,3.115328,0.04465748,-0.007449684,-0.0003344445,0.01781644,-0.2818013,2.412938,-2.767443
90,0.8555565,548,205,489,492,0.0625171,0.01414759,0.03192867,-1.468398,3.115743,0.04458877,-0.002042381,0.01302945,0.0163305,-0.2814727,2.414759,-2.769553
90,0.8666676,548,205,489,492,0.06653486,0.009807305,0.03431098,-1.469229,3.116073,0.04447798,-0.008219404,0.009806091,0.01970845,-0.2810855,2.414816,-2.7695
90,0.8777788,548,205,489,492,0.06242422,0.00447127,0.03335391,-1.46986,3.116354,0.04436081,-0.01087365,0.01388782,0.02678448,-0.2805273,2.415036,-2.769678
90,0.8888899,514,199,516,491,0.0592259,-0.001986852,0.03355443,-1.470346,3.116737,0.04417225,-0.01802528,0.0179673,0.0256035,-0.2799041,2.416394,-2.770786
90,0.900001,514,199,516,491,0.05205426,-0.00515997,0.03125768,-1.470789,3.117002,0.04407372,-0.02902328,0.0138193,0.00988728,-0.2800553,2.417204,-2.770895
90,0.9111122,514,199,516,491,0.05527698,-0.005553154,0.03918177,-1.471484,3.117692,0.04394482,-0.02526771,0.01155288,0.006204816,-0.2798663,2.417886,-2.771399
90,0.9222233,514,199,516,491,0.06282805,-0.01015744,0.04740894,-1.472503,3.118398,0.04362524,-0.02783571,0.01327505,-0.003942519,-0.2798758,2.419409,-2.772515
90,0.9333345,514,199,516,491,0.07652567,-0.01433426,0.05001087,-1.473644,3.118886,0.04339354,-0.02792603,0.007559467,-0.01899853,-0.2803542,2.420432,-2.773101
90,0.9444456,544,183,505,497,0.07842004,-0.009679256,0.04399953,-1.47465,3.119153,0.04338609,-0.03538045,0.006382719,-0.01260126,-0.2800106,2.420925,-2.773004
90,0.9555568,544,183,505,497,0.06945913,-0.007371204,0.03859291,-1.475046,3.119414,0.04338503,-0.04191001,-0.001117092,-0.003809656,-0.2797182,2.420567,-2.772019
90,0.9666679,544,183,505,497,0.06390481,-0.006456554,0.04001018,-1.47559,3.119881,0.04324121,-0.0376344,0.0003654622,0.009817529,-0.2791046,2.420212,-2.771536
90,0.977779,544,183,505,497,0.04372504,-0.007728741,0.03831867,-1.475614,3.120302,0.04310113,-0.04241593,0.003273021,-0.003940614,-0.2792564,2.421739,-2.772428
90,0.9888902,492,209,506,497,0.03726971,-0.007818751,0.03850779,-1.475978,3.120598,0.04305905,-0.04498393,0.0006554238,-0.01078822,-0.2794306,2.422357,-2.772294
90,1.000001,492,209,506,497,0.007674254,-0.006997906,0.03463081,-1.475354,3.121005,0.04292962,-0.04200191,-0.007317729,-0.01019556,-0.2795201,2.421937,-2.771424
90,1.011112,492,209,506,497,0.003436296,-0.005967816,0.03411933,-1.475346,3.12132,0.04287317,-0.04219992,-0.01450404,0.001765123,-0.2792431,2.420525,-2.76967
90,1.022224,492,209,506,497,-0.007005947,-0.004933182,0.03170883,-1.475027,3.12162,0.04282895,-0.03328441,-0.01207085,0.02040293,-0.2787525,2.419746,-2.768807
90,1.033335,492,209,506,497,-0.01582995,0.0001888871,0.03296215,-1.47461,3.121958,0.04290299,-0.03497466,-0.007568989,0.0125267,-0.2786561,2.420301,-2.768946
90,1.044446,513,185,497,505,-0.01900784,0.009801541,0.03200251,-1.474444,3.122357,0.04321831,-0.03484958,-0.01138397,-0.008988429,-0.2792356,2.421241,-2.769264
90,1.055557,513,185,497,505,-0.02195438,0.01308629,0.02963125,-1.474145,3.122641,0.04345001,-0.0377049,-0.01493091,-0.0115441,-0.2794119,2.421559,-2.768958
90,1.066668,513,185,497,505,-0.01892483,0.01199765,0.03105553,-1.47405,3.123143,0.0436327,-0.03558526,-0.0180257,-0.01765364,-0.2797704,2.421535,-2.768402
90,1.077779,513,185,497,505,-0.009274311,0.01213621,0.03128998,-1.474301,3.123497,0.04374775,-0.03877245,-0.02539327,-0.008316898,-0.2796516,2.420253,-2.766546
90,1.08889,504,184,446,497,0.007230664,0.01962943,0.03606959,-1.474904,3.12396,0.04423351,-0.03583084,-0.03192076,-0.003432239,-0.2796516,2.419165,-2.764997
90,1.100002,504,184,446,497,0.007305883,0.02394963,0.03524067,-1.474992,3.124376,0.04451367,-0.04323027,-0.01777312,0.009244517,-0.2790141,2.419806,-2.765008
90,1.111113,504,184,446,497,0.008367431,0.02677359,0.04306203,-1.475174,3.125029,0.04486095,-0.04765182,-0.01156956,0.007395702,-0.2787914,2.420475,-2.765062
90,1.122224,504,184,446,497,0.01048175,0.02680649,0.04333275,-1.475408,3.125427,0.04508306,-0.04008475,-0.009945765,-0.008728934,-0.2794668,2.420893,-2.765193
90,1.133335,504,184,446,497,0.01671491,0.02469528,0.04511741,-1.475823,3.125941,0.045278,-0.0352129,-0.003237918,-0.01994604,-0.2798221,2.422413,-2.766384
90,1.144446,517,159,488,491,0.03409782,0.02290079,0.04408385,-1.476691,3.126278,0.04543353,-0.0283591,-0.01161684,-0.01335797,-0.2800516,2.421103,-2.764813
90,1.155557,517,159,488,491,0.0432384,0.02540347,0.04001402,-1.477397,3.126513,0.04577761,-0.01792489,-0.01362039,-0.0009030439,-0.2798535,2.419976,-2.763747
90,1.166668,517,159,488,491,0.04142164,0.02552911,0.03759306,-1.477889,3.126794,0.04613128,-0.01756433,-0.009837098,0.002333289,-0.2798274,2.419589,-2.763314
90,1.17778,517,159,488,491,0.04050079,0.02198614,0.0447919,-1.478391,3.127459,0.04620851,-0.02349123,-0.007335439,0.004613547,-0.2796143,2.419764,-2.763116
90,1.188891,517,159,488,491,0.03862059,0.01672123,0.04317863,-1.478812,3.127902,0.04623567,-0.02454708,-0.001958774,0.005449649,-0.2794343,2.420463,-2.763528
90,1.200002,453,179,499,496,0.0368646,0.01256463,0.04056675,-1.479182,3.128224,0.04622342,-0.02431201,-5.842187E-05,-0.001015404,-0.2795328,2.421259,-2.764031
90,1.211113,453,179,499,496,0.02926784,0.003182791,0.03370161,-1.479388,3.128322,0.0460125,-0.01887894,-0.002053101,0.00632643,-0.2794508,2.420346,-2.763062
90,1.222224,453,179,499,496,0.02355871,-0.0009149946,0.02843426,-1.47958,3.128507,0.04587828,-0.01709837,0.002569592,-0.002093804,-0.2795989,2.421388,-2.763984
90,1.233335,453,179,499,496,0.01339704,0.0002229214,0.02392501,-1.479453,3.12865,0.04591076,-0.01942926,-0.01348297,-0.006543539,-0.2800021,2.420184,-2.762397
90,1.244446,503,218,513,496,0.001615322,0.002207922,0.02354654,-1.479315,3.128969,0.04594219,-0.01875111,-0.009716616,-0.005419497,-0.2800026,2.420616,-2.762658
90,1.255558,503,218,513,496,-0.01419126,-0.001118243,0.02128818,-1.478723,3.129205,0.04582395,-0.02315175,-0.008324418,-0.01044089,-0.280164,2.42117,-2.762774
90,1.266669,503,218,513,496,-0.02550224,-0.00324415,0.01751712,-1.478183,3.129336,0.04569239,-0.02392535,-0.001545126,-0.007440661,-0.2801582,2.422273,-2.763635
90,1.27778,503,218,513,496,-0.03317216,0.001261113,0.01024793,-1.477638,3.129318,0.04583087,-0.016666,0.000133466,-0.006331353,-0.280189,2.422436,-2.763807
90,1.288891,503,218,513,496,-0.0341355,0.004488815,0.009193581,-1.477246,3.129408,0.04588414,-0.01309,0.006487306,-0.0004796355,-0.2800319,2.423423,-2.764785
90,1.300002,516,224,479,496,-0.02702014,-0.0005137254,0.004510199,-1.477122,3.129324,0.04574299,-0.006258935,0.005830505,-0.01342488,-0.2805076,2.424318,-2.765718
90,1.311113,516,224,479,496,-0.004678894,-0.002423326,0.006345628,-1.477603,3.129516,0.04557361,-0.002580112,0.005479491,-0.02147164,-0.2809662,2.424909,-2.766359
90,1.322224,516,224,479,496,0.01211764,-0.004484354,0.009549825,-1.478245,3.129653,0.04535789,2.003484E-05,0.007149998,-0.02755868,-0.2813816,2.425957,-2.767417
90,1.333336,516,224,479,496,0.03204097,0.006314607,0.0127141,-1.479153,3.129802,0.04570464,-0.00225183,0.002098029,-0.02245994,-0.2815478,2.426077,-2.767425
90,1.344447,526,197,510,500,0.04273137,0.007517285,0.01307586,-1.479844,3.129809,0.04584685,0.001003814,-0.0001588503,-0.007894713,-0.2813534,2.425411,-2.766754
90,1.355558,526,197,510,500,0.0562256,0.008982472,0.008418209,-1.480754,3.129721,0.04594805,-0.006324795,6.28517E-05,0.001731883,-0.2810253,2.425201,-2.766365
90,1.366669,526,197,510,500,0.0606031,0.008001086,0.007833512,-1.481429,3.129874,0.04599173,-0.002812569,-0.004112642,0.00449451,-0.281094,2.424777,-2.765915
90,1.37778,526,197,510,500,0.05956625,0.006929084,0.007606346,-1.482095,3.129905,0.04604339,0.006647191,-0.003580542,-0.005883885,-0.2814546,2.42485,-2.76623
90,1.388891,526,197,510,500,0.0563527,0.01116766,0.007345946,-1.482726,3.129773,0.04635552,0.009731539,0.006214778,-0.02817953,-0.2822461,2.427403,-2.768836
90,1.400002,464,184,516,498,0.04584108,0.01752272,0.005195925,-1.482955,3.129731,0.04673634,0.004112797,0.006303744,-0.04418317,-0.2830679,2.429195,-2.770339
90,1.411114,464,184,516,498,0.03484068,0.0229966,-0.001359575,-1.483163,3.12961,0.04725087,0.006960395,0.01368252,-0.03628267,-0.2832474,2.430437,-2.771781
90,1.422225,464,184,516,498,0.03058566,0.02509201,-0.001828156,-1.483385,3.129581,0.04758376,0.008876706,0.01107257,-0.01975569,-0.283168,2.429869,-2.771466
90,1.433336,464,184,516,498,0.01774562,0.01639124,-0.001714856,-1.48323,3.129589,0.04752624,0.005468854,0.008504123,-0.006241493,-0.2829199,2.429528,-2.771152
90,1.444447,464,184,516,498,0.01208885,0.01301828,0.0006333274,-1.483189,3.129701,0.04753317,0.008662865,0.003868017,0.007276524,-0.2827132,2.428459,-2.770438
90,1.455558,453,181,485,496,0.01384684,0.008639777,0.003891729,-1.48341,3.129819,0.04749055,0.007054974,0.006420428,0.003748023,-0.2827196,2.428863,-2.770895
90,1.466669,453,181,485,496,0.02259069,0.007731775,0.002814806,-1.483986,3.129682,0.04759016,0.006191379,0.0003130902,-0.01249258,-0.2833768,2.429411,-2.771336
90,1.47778,453,181,485,496,0.03050521,0.01009286,-0.0003801752,-1.484525,3.129532,0.04778297,0.006987978,-0.00214393,-0.01880386,-0.2837545,2.42967,-2.771559
90,1.488891,453,181,485,496,0.02925936,0.01429653,0.0007041449,-1.484839,3.1296,0.04805621,0.005956305,0.00274314,-0.02443655,-0.2841369,2.430447,-2.772312
90,1.500003,479,202,497,497,0.02809484,0.01211555,0.001528426,-1.485133,3.129611,0.04812492,0.005428922,0.004242446,-0.03209718,-0.2846466,2.431538,-2.773355
90,1.511114,479,202,497,497,0.02797753,0.009941005,0.002494714,-1.485288,3.129645,0.04813397,0.008987177,0.001971588,-0.01961884,-0.284652,2.430935,-2.772941
90,1.522225,479,202,497,497,0.02325018,0.009006907,-0.0024522,-1.485412,3.12948,0.04821866,0.009771347,0.006194644,-0.01307222,-0.2845886,2.431339,-2.773516
90,1.533336,479,202,497,497,0.02472584,0.008075899,-0.005533345,-1.485703,3.129315,0.04829003,0.01026906,-0.005357007,-0.002038095,-0.2845002,2.429339,-2.771622
90,1.544447,479,202,497,497,0.01910353,0.002585162,-0.003253113,-1.485754,3.129317,0.0481409,0.01696305,0.008366662,-0.005458902,-0.284693,2.430537,-2.773088
90,1.555558,445,219,494,493,0.01346861,-0.001840083,-0.0009295202,-1.485762,3.129347,0.04802478,0.01157514,0.01798432,-0.01725105,-0.2849369,2.432656,-2.775224
90,1.566669,445,219,494,493,0.01479555,-0.001747102,-0.002904492,-1.485978,3.129295,0.04805461,0.0136337,0.02017742,-0.01370459,-0.285036,2.433279,-2.776118
90,1.577781,445,219,494,493,0.01229187,-0.002957157,-5.146128E-05,-1.486072,3.129319,0.04797738,0.01298402,0.01641401,-0.01483564,-0.2851968,2.433762,-2.776687
90,1.588892,445,219,494,493,0.0101606,-0.001902532,-0.0002765628,-1.486065,3.129343,0.0480642,0.009286145,0.009576087,-0.01103792,-0.2853609,2.433516,-2.776421
90,1.600003,451,228,509,501,0.01017382,-0.00296711,-0.000319333,-1.486187,3.129322,0.0479875,0.008377188,0.01296973,0.008195329,-0.2847777,2.433148,-2.776292
90,1.611114,451,228,509,501,0.01124844,-0.004018745,-0.0002299343,-1.486435,3.129267,0.04796886,0.009729519,0.01186471,0.01706468,-0.2844075,2.432652,-2.776055
90,1.622225,451,228,509,501,0.01960262,-0.007191438,0.001768528,-1.486806,3.129278,0.04779468,0.01529609,0.00753283,0.007242051,-0.2846866,2.432633,-2.77628
90,1.633336,451,228,509,501,0.02342646,-0.005896509,-0.003075895,-1.487176,3.129076,0.04778989,0.009931982,-0.0005337577,-0.01187461,-0.2853215,2.433062,-2.776488
90,1.644447,451,228,509,501,0.02720716,-0.001415382,-0.007800942,-1.487527,3.128849,0.04784156,0.01291128,0.005864107,-0.002840083,-0.285199,2.433248,-2.77684
90,1.655559,458,186,507,499,0.01954268,-0.001553155,-0.006622976,-1.487549,3.128778,0.04779948,0.01619567,0.009847666,0.003044392,-0.2850312,2.433366,-2.777297
90,1.66667,458,186,507,499,0.01158284,0.0003483463,-0.003246029,-1.487439,3.128927,0.04769668,0.01712277,0.01069611,0.009657246,-0.2848911,2.432999,-2.777183
90,1.677781,458,186,507,499,0.006178631,-0.0007969178,-0.002895886,-1.48738,3.128905,0.0476578,0.01480182,0.01141184,0.000635921,-0.2850839,2.433726,-2.777997
90,1.688892,458,186,507,499,-5.884166E-05,0.001325388,-0.004673233,-1.487181,3.128793,0.04772331,0.01008098,0.01427274,-0.01313059,-0.285526,2.435075,-2.779187
90,1.700003,469,178,515,500,-0.008220217,-0.0007820353,-0.007938772,-1.486858,3.128608,0.0476791,0.009115303,0.0200915,-0.006885692,-0.2853535,2.436132,-2.780414
90,1.711114,469,178,515,500,-0.01052113,0.00341898,-0.006988199,-1.486628,3.128605,0.0478357,0.008047734,0.009153665,0.004955772,-0.285101,2.434519,-2.77886
90,1.722225,469,178,515,500,-0.01390347,-0.0009505823,-0.005446293,-1.486427,3.128541,0.04763117,0.01159725,0.004023287,0.009923123,-0.285077,2.433563,-2.778239
90,1.733337,469,178,515,500,-0.01114774,1.081172E-05,-0.001835522,-1.48639,3.128583,0.0476823,0.01172047,0.001623782,0.007815439,-0.2850792,2.43318,-2.778015
90,1.744448,469,178,515,500,-0.005610509,0.00120249,-0.003232853,-1.486469,3.12851,0.04778403,0.01269031,0.003466617,-0.002843994,-0.2853918,2.433649,-2.778555
90,1.755559,409,223,477,491,0.0009842787,0.002398122,-0.004498568,-1.48664,3.128406,0.04785008,0.008409975,0.007723502,-0.01548099,-0.2857662,2.434989,-2.779812
90,1.76667,409,223,477,491,0.002159247,0.003509864,-0.005383388,-1.486612,3.128265,0.04790121,0.006064627,0.006477037,-0.005053006,-0.285533,2.434391,-2.779202
90,1.777781,409,223,477,491,0.00761358,0.0003983718,-0.005893266,-1.486793,3.128135,0.04784475,0.009562695,0.005169638,0.005258329,-0.2852927,2.433741,-2.778822
90,1.788892,409,223,477,491,0.01516879,-0.001634234,-0.006093776,-1.487153,3.128078,0.04780268,0.01188444,0.009262742,0.002349966,-0.2853279,2.434365,-2.779638
90,1.800003,409,223,477,491,0.02297181,-0.003903379,0.0001719538,-1.487449,3.128279,0.04774728,0.008086257,0.005319871,-0.0003842714,-0.2854046,2.434283,-2.779519
90,1.811115,482,200,484,493,0.02545409,-0.001954594,0.005921645,-1.487813,3.128423,0.0477883,-0.0005985992,0.002786333,-0.005024342,-0.2855558,2.434299,-2.779152
90,1.822226,482,200,484,493,0.02636333,-0.0009195926,0.007142432,-1.488053,3.12844,0.04782984,-0.006703306,-0.001904516,-0.005968588,-0.2856134,2.43419,-2.778712
90,1.833337,482,200,484,493,0.01987665,5.696714E-05,0.007440159,-1.488135,3.128514,0.04785381,-0.002922616,0.0001479136,-0.01293609,-0.2859116,2.434927,-2.779462
90,1.844448,482,200,484,493,0.01280265,0.005451669,0.003547263,-1.487995,3.128508,0.04816913,-0.00838157,-0.002679502,-0.02244548,-0.2863505,2.435631,-2.779786
90,1.855559,419,176,491,496,0.002026041,0.001347238,-0.004408809,-1.487677,3.128253,0.04805088,-0.00980322,0.0002916614,-0.006520231,-0.2860075,2.435474,-2.779503
90,1.86667,419,176,491,496,-0.001211702,-0.004041024,-0.003949529,-1.48762,3.128249,0.04783517,-0.0002335776,0.004648778,0.002566658,-0.28573,2.435329,-2.77981
90,1.877781,419,176,491,496,-0.0005923865,-0.0009619799,-0.0005292463,-1.487634,3.12832,0.04791506,-0.001858777,0.008162068,-0.003149938,-0.2857987,2.436203,-2.780632
90,1.888893,419,176,491,496,0.001037151,-0.003983667,-0.004739611,-1.487718,3.128139,0.04780534,-0.01059442,0.007560156,-0.01214802,-0.2859766,2.437156,-2.78117
90,1.900004,419,176,491,496,0.005827217,-0.007297528,2.743941E-05,-1.487887,3.128211,0.04765141,-0.01199006,0.007677329,-0.003739712,-0.2857359,2.437293,-2.781221
90,1.911115,470,178,496,493,0.01535428,-0.008288885,0.001182528,-1.488346,3.128311,0.04755607,-0.01213386,0.006733404,-0.0005086267,-0.2855612,2.4375,-2.781361
90,1.922226,470,178,496,493,0.01403806,-0.008370349,0.003160194,-1.488508,3.128335,0.04756246,-0.01270418,0.002936723,0.012414,-0.285061,2.436654,-2.780472
90,1.933337,470,178,496,493,0.00956022,-0.009547753,0.004703693,-1.488505,3.128419,0.0474293,-0.01081737,0.003747056,-0.001322497,-0.2852895,2.437255,-2.781092
90,1.944448,470,178,496,493,-0.007241769,-0.007510296,0.001601406,-1.488044,3.128278,0.04736965,-0.01201394,0.008650318,-0.005920298,-0.2854594,2.438482,-2.782069
90,1.955559,463,180,528,502,-0.02654646,-0.006675828,0.001344604,-1.487245,3.128307,0.04732544,-0.01073644,0.00472373,-0.01862261,-0.2859649,2.439274,-2.782622
90,1.966671,463,180,528,502,-0.03629661,-0.007566455,-0.006394433,-1.486669,3.127985,0.04728283,-0.008126634,0.009251522,-0.01717646,-0.2860949,2.439824,-2.783133
90,1.977782,463,180,528,502,-0.03969374,-0.01086663,-0.00483265,-1.486106,3.127977,0.04710227,-0.00954467,-0.0001968052,-0.014044,-0.2861987,2.439265,-2.782347
90,1.988893,463,180,528,502,-0.0323947,-0.01298135,-0.002924729,-1.486107,3.127935,0.04690785,-0.005965606,0.003267049,-0.001613749,-0.2859447,2.438882,-2.782143
90,2.000004,463,180,528,502,-0.01978776,-0.01718709,-0.0004261467,-1.486294,3.127944,0.04660425,-0.009934573,-0.002562412,-0.01300061,-0.2863431,2.439277,-2.782188
90,2.011115,393,168,472,497,-0.00637988,-0.01184757,0.003635697,-1.486609,3.128064,0.04661597,-0.01371084,0.003055154,-0.01047141,-0.2862685,2.440403,-2.783129
90,2.022226,393,168,472,497,0.007790381,-0.01407492,0.0106891,-1.487085,3.128268,0.04644766,-0.01296468,0.01159808,-0.007224628,-0.2861023,2.441745,-2.784435
90,2.033337,393,168,472,497,0.01815471,-0.007645808,0.01331421,-1.487578,3.128456,0.04652063,-0.008606989,0.01263975,-0.01516087,-0.286465,2.442647,-2.785386
90,2.044448,393,168,472,497,0.02887164,-0.007520516,0.01355645,-1.488237,3.128519,0.04640931,-0.006866521,0.0110406,-0.01484901,-0.2865711,2.443142,-2.78584
90,2.055559,401,175,506,500,0.04406139,-0.006215685,0.01222576,-1.489105,3.128527,0.04635498,-0.001949199,0.0110795,-0.02374912,-0.287035,2.444157,-2.786856
90,2.06667,401,175,506,500,0.04725336,-0.00725774,0.01254978,-1.489678,3.128708,0.04619519,-0.003293332,0.00211939,-0.02926767,-0.2875862,2.444176,-2.786681
90,2.077781,401,175,506,500,0.03877364,-0.005192144,0.01158612,-1.48992,3.128819,0.04617282,-0.01742714,0.004859143,-0.02738132,-0.2876187,2.445566,-2.787487
90,2.088892,401,175,506,500,0.03791256,0.0002014111,0.009534517,-1.490311,3.12895,0.04626869,-0.02227877,0.01055263,-0.01855886,-0.2874195,2.44648,-2.788174
90,2.100003,401,175,506,500,0.03024151,0.001133128,0.01079501,-1.49045,3.129279,0.04629586,-0.0149739,0.009379215,-0.01081916,-0.2873199,2.446509,-2.788282
90,2.111114,457,198,489,492,0.02577066,-4.035514E-05,0.01235018,-1.490649,3.129416,0.04626017,-0.01129548,0.01383503,-0.01566621,-0.2875383,2.447859,-2.789626
90,2.122225,457,198,489,492,0.02579607,-0.002171337,0.01226871,-1.490907,3.12958,0.04613234,-0.01137235,0.01337721,-0.02108379,-0.2877881,2.448951,-2.790541
90,2.133336,457,198,489,492,0.01826632,-0.00226561,0.01242914,-1.490936,3.129724,0.04610251,-0.003688938,0.006933603,-0.02402095,-0.2882574,2.449384,-2.791042
90,2.144447,457,198,489,492,0.01894276,-0.002372899,0.01572674,-1.491171,3.13002,0.04605724,-0.005144424,0.007998364,-0.01780506,-0.2883218,2.449533,-2.791122
90,2.155558,457,198,489,492,0.01722066,-0.0033332,0.01225878,-1.491294,3.129987,0.04604233,-0.006320905,0.004272674,-0.01579676,-0.2884246,2.449686,-2.791142
90,2.166669,545,194,489,498,0.02368285,-0.002168203,0.01200489,-1.491715,3.130175,0.04616057,-0.005516266,0.004675474,-0.01458112,-0.2884853,2.450028,-2.791482
90,2.17778,545,194,489,498,0.03058061,-0.005162954,0.008409028,-1.492282,3.130153,0.04598054,-0.00284066,0.009675549,-0.007701691,-0.2883367,2.450657,-2.792226
90,2.188891,545,194,489,498,0.02954932,-0.007297008,0.008200414,-1.492564,3.130224,0.04588041,-0.004208329,0.01124876,-0.01013167,-0.2885466,2.451787,-2.793342
90,2.200002,545,194,489,498,0.02941274,-0.006268126,0.00928387,-1.492864,3.13031,0.04584845,-0.003557584,0.006420471,-0.0164453,-0.2888699,2.452153,-2.793591
90,2.211113,458,216,508,503,0.02761263,0.000215298,0.006061738,-1.493296,3.130118,0.04601942,-0.005342282,0.006603378,-0.02001001,-0.2891474,2.453478,-2.794731
90,2.222224,458,216,508,503,0.02543158,-0.004095868,0.006707295,-1.493612,3.130107,0.04582874,0.001723525,0.007378329,-0.01555202,-0.2892326,2.453619,-2.795095
90,2.233335,458,216,508,503,0.02578142,-0.001856886,0.003600493,-1.493877,3.130052,0.04586496,0.005235807,0.006579391,-0.01385288,-0.2893343,2.454232,-2.795789
90,2.244446,458,216,508,503,0.0274354,-0.004111855,0.007999675,-1.494341,3.130284,0.04576483,0.006255944,0.01366713,-0.01593371,-0.2895831,2.455699,-2.797252
90,2.255557,458,216,508,503,0.03298842,-0.005065076,0.006451176,-1.494874,3.130279,0.04566469,0.00627372,0.01798386,-0.01922746,-0.2897817,2.457073,-2.798711
90,2.266668,412,219,529,501,0.03180862,-0.005111543,0.007377369,-1.495197,3.130425,0.04555177,0.007440339,0.01836045,-0.02010719,-0.2899703,2.457984,-2.799672
90,2.277779,412,219,529,501,0.02778721,-0.001879366,0.004868302,-1.49542,3.130397,0.04560291,0.000232216,0.01566848,-0.01917603,-0.2900699,2.458811,-2.800299
90,2.28889,412,219,529,501,0.0235485,-0.0008429094,0.004408277,-1.495678,3.130433,0.04564978,0.001224073,0.01078022,-0.013542,-0.2902313,2.459013,-2.800671
90,2.300001,412,219,529,501,0.02325806,-0.003841133,-0.002170006,-1.495948,3.130203,0.0455065,0.003028467,0.008675138,-0.005624836,-0.2901077,2.458931,-2.800724
90,2.311112,396,185,507,497,0.02221473,-0.005980163,-0.002353192,-1.496042,3.130344,0.04533712,0.0007395529,-0.0002484731,0.008145773,-0.2897812,2.457949,-2.799744
90,2.322223,396,185,507,497,0.02120402,-0.01024864,-0.002615459,-1.496305,3.130359,0.04509051,0.002226354,-0.01091589,0.01070447,-0.28977,2.45638,-2.798185
90,2.333334,396,185,507,497,0.01276428,-0.001755203,-0.004366028,-1.496212,3.130322,0.04536482,-0.001281842,-0.0101097,0.008997666,-0.2897482,2.45609,-2.79777
90,2.344445,396,185,507,497,0.003624219,0.003340224,0.0001282009,-1.495899,3.13057,0.04559971,0.005420246,-0.01068385,-0.001723753,-0.2902089,2.45603,-2.797907
90,2.355556,396,185,507,497,-0.004777672,0.008633189,-0.001740703,-1.495666,3.130544,0.04579305,0.009425713,-0.001420128,-0.01952277,-0.2908161,2.457505,-2.799501
90,2.366668,376,153,491,494,-0.002678468,0.009714633,-0.001462086,-1.495631,3.130548,0.0459342,0.003780993,-0.0004196521,-0.02269637,-0.2911288,2.458046,-2.799966
90,2.377779,376,153,491,494,0.00254486,0.008952512,-0.009468119,-1.495778,3.130195,0.04601143,0.005026437,-0.002479836,-0.01163223,-0.2910382,2.457527,-2.799534
90,2.38889,376,153,491,494,0.01240067,0.01125176,-0.01146878,-1.496001,3.130121,0.04622395,0.008682094,-0.009575412,0.01072991,-0.2904843,2.455335,-2.797689
90,2.400001,376,153,491,494,0.01479911,0.01533531,-0.004638157,-1.496279,3.130156,0.04658188,0.008046114,-0.00806128,0.004109981,-0.2906276,2.455235,-2.797633
90,2.411112,369,168,513,500,0.01993343,0.01853341,-0.002885493,-1.496645,3.130143,0.04684927,0.004890145,-0.006321964,-0.001873675,-0.2908342,2.455611,-2.797882
90,2.422223,369,168,513,500,0.02297928,0.01958979,-0.001442723,-1.497021,3.130134,0.0471028,0.001877342,-0.01033517,-0.008840382,-0.2911485,2.455374,-2.797475
90,2.433334,369,168,513,500,0.01909155,0.02177965,-0.005049508,-1.497106,3.129982,0.04742717,0.003690825,-0.008119146,-0.004230053,-0.2912689,2.455192,-2.797359
90,2.444445,369,168,513,500,0.01308425,0.02395453,-0.008892344,-1.496996,3.129873,0.04778883,0.008233086,-0.00806592,0.003058123,-0.2910665,2.454486,-2.79688
90,2.455556,369,168,513,500,0.007646663,0.01986092,-0.01715207,-1.496949,3.129527,0.04790867,0.01607403,-0.0145346,0.01315832,-0.2908705,2.452592,-2.79536
90,2.466667,387,150,527,502,0.00407928,0.02186661,-0.014291,-1.496853,3.129438,0.0480903,0.01621771,-0.0116496,0.005576173,-0.2911485,2.452543,-2.795483
90,2.477778,387,150,527,502,-0.000596486,0.01745091,-0.01067046,-1.496763,3.129447,0.04813983,0.02246899,-0.01070667,-0.01279764,-0.2919101,2.452746,-2.795929
90,2.488889,387,150,527,502,-0.01009905,0.01631597,-0.01181893,-1.496443,3.129297,0.04834276,0.01883787,-0.000812009,-0.01463976,-0.2920806,2.453712,-2.797131
90,2.5,387,150,527,502,-0.007673562,0.02280592,-0.01457845,-1.496435,3.129036,0.04875715,0.01586273,-0.002441233,-0.02054724,-0.2924694,2.453961,-2.797349
90,2.511111,387,150,527,502,-0.006315449,0.01755356,-0.01670919,-1.496233,3.128877,0.04883492,0.0139653,-0.007074076,-0.01216727,-0.2924188,2.452991,-2.796537
90,2.522222,361,156,502,499,0.002536424,0.01663765,-0.01892499,-1.496507,3.128502,0.04905703,0.01131646,-0.01835397,0.002649234,-0.2921712,2.450783,-2.794353
90,2.533333,361,156,502,499,0.003607962,0.01557731,-0.01883138,-1.496553,3.128282,0.0492035,0.002460144,-0.03099178,0.01639759,-0.291924,2.448316,-2.791647
90,2.544444,361,156,502,499,-0.002734507,0.01553031,-0.01957746,-1.496291,3.128133,0.04940483,0.01309427,-0.03624473,0.02803855,-0.2915879,2.445397,-2.789103
90,2.555555,361,156,502,499,-0.009493841,0.01965026,-0.01705102,-1.49599,3.12802,0.04974306,0.01745033,-0.01985577,0.01128269,-0.2918745,2.446144,-2.790132
90,2.566666,347,171,504,499,-0.0248434,0.02367581,-0.01449247,-1.495221,3.127972,0.05009033,0.01919901,-0.01613844,-0.007920049,-0.2926281,2.446587,-2.790512
90,2.577777,347,171,504,499,-0.02963192,0.0258875,-0.01932462,-1.494714,3.127637,0.05047276,0.03583209,-0.01179105,-0.02020088,-0.2934058,2.446592,-2.791155
90,2.588888,347,171,504,499,-0.03235868,0.02169684,-0.02300599,-1.494333,3.127327,0.05056597,0.04352228,-0.001459159,-0.01466535,-0.2935975,2.446336,-2.791586
90,2.599999,347,171,504,499,-0.02435325,0.01631663,-0.01789444,-1.494302,3.12731,0.05058195,0.0432574,3.577769E-05,-0.0233597,-0.2941653,2.446744,-2.792335
90,2.61111,347,171,504,499,-0.01875958,0.01215717,-0.01947552,-1.494286,3.127141,0.05054147,0.03361118,0.0003668815,-0.01532268,-0.2941179,2.446712,-2.792394
90,2.622221,359,205,477,497,0.0004172176,0.0101918,-0.01827103,-1.494779,3.126981,0.05049194,0.02379767,-0.003602829,-0.002941483,-0.2938708,2.445842,-2.791557
90,2.633332,359,205,477,497,0.0117338,0.01257069,-0.02328185,-1.495187,3.126531,0.05072629,0.009653809,-0.01056696,0.02169867,-0.2930633,2.443877,-2.789467
90,2.644443,359,205,477,497,0.01901885,0.01152295,-0.02136846,-1.495596,3.126297,0.05085146,0.01114151,-0.009278633,0.03058401,-0.2926159,2.442475,-2.788403
90,2.655554,359,205,477,497,0.02454479,0.003906906,-0.01341204,-1.496045,3.126146,0.05080779,0.01967589,-0.001850123,0.01034962,-0.2930244,2.443051,-2.789382
90,2.666665,363,171,501,500,0.02617662,0.001678312,-0.008993442,-1.496382,3.126291,0.05065119,0.01908452,0.002061952,-0.009254349,-0.29363,2.443932,-2.79036
90,2.677776,363,171,501,500,0.01704967,0.0006255955,-0.01333383,-1.496268,3.126025,0.0506448,0.02036,0.000105096,-0.03926985,-0.2948774,2.445371,-2.791758
90,2.688887,363,171,501,500,-0.004231983,-0.001468776,-0.023457,-1.495775,3.125357,0.05057343,0.006401199,-0.005455824,-0.01243946,-0.294699,2.44412,-2.790454
90,2.699998,363,171,501,500,-0.004231983,-0.001468776,-0.023457,-1.495775,3.125357,0.05057343,0.006401199,-0.005455824,-0.01243946,-0.294699,2.44412,-2.790454
90,2.711109,363,171,501,500,-0.01232154,0.0006890316,-0.02759931,-1.495373,3.124933,0.05069434,0.007957734,-0.008959554,0.007343228,-0.2942388,2.442521,-2.789078
90,2.72222,370,202,482,492,-0.002264306,0.0006468128,-0.0220978,-1.495615,3.124731,0.0506448,0.006947576,-0.009372532,0.02122653,-0.2937701,2.441268,-2.787934
90,2.733331,370,202,482,492,0.006675833,-0.001781444,-0.007135614,-1.495937,3.125046,0.05052442,0.01340625,0.004441978,0.004871182,-0.2940535,2.442741,-2.789743
90,2.744442,370,202,482,492,0.01953995,-0.001872694,0.001904222,-1.496528,3.12515,0.05055479,0.01414721,0.01302384,-0.01997373,-0.2947533,2.444995,-2.791948
90,2.755553,370,202,482,492,0.03380228,0.002392688,0.007991502,-1.497277,3.125336,0.05065492,0.01401569,0.01163085,-0.03619668,-0.2954974,2.446329,-2.793277
90,2.766664,370,202,482,492,0.04300467,0.003686197,0.002655613,-1.497921,3.125203,0.0507183,0.009962521,0.008131893,-0.03145465,-0.2956322,2.446063,-2.792947
90,2.777775,410,231,484,496,0.04208275,0.002639844,0.001429703,-1.498316,3.125144,0.05073854,0.001908532,-0.00173652,-0.0154345,-0.2954239,2.444935,-2.791644
90,2.788886,410,231,484,496,0.04301139,-0.002506062,-0.006131446,-1.498858,3.124797,0.0505681,-0.00176295,0.0009413227,0.006598339,-0.2947257,2.444487,-2.791404
90,2.799997,410,231,484,496,0.02149335,-0.003812004,-0.005461533,-1.498452,3.124801,0.05045412,-0.005389521,-0.003083734,0.03089485,-0.29376,2.442623,-2.789572
90,2.811108,410,231,484,496,-0.001566011,-0.007362192,-0.0007525211,-1.497944,3.124953,0.05028474,-0.005079903,-0.00358319,0.02338345,-0.293833,2.442327,-2.789247
90,2.822219,440,225,536,498,-0.009103289,-0.006383024,-0.0005429813,-1.497558,3.125072,0.05027302,0.0009280607,0.001671159,0.002734311,-0.2943432,2.443398,-2.790405
90,2.83333,440,225,536,498,-0.02181557,-0.004354233,-0.002008648,-1.496806,3.12507,0.05018674,-0.003137296,0.008733264,-0.01754076,-0.2949898,2.446027,-2.792776
90,2.844441,440,225,536,498,-0.02181557,-0.004354233,-0.002008648,-1.496806,3.12507,0.05018674,-0.003137296,0.008733264,-0.01754076,-0.2949898,2.446027,-2.792776
90,2.855552,440,225,536,498,-0.02890983,-0.009677809,-0.005159496,-1.49627,3.124946,0.04995131,-0.005649025,0.00509024,0.005868496,-0.2944002,2.445184,-2.79195
90,2.866663,466,193,498,498,-0.01222134,-0.01067306,-0.001043817,-1.496379,3.125078,0.049636,-0.01402235,-0.002363838,0.03912335,-0.2929221,2.44247,-2.789069
90,2.877774,466,193,498,498,-0.0009261072,-0.01386628,0.003428193,-1.496682,3.125218,0.04937074,-0.005187677,0.006930205,0.02648287,-0.292912,2.442984,-2.789897
90,2.888885,466,193,498,498,-0.0009261072,-0.01386628,0.003428193,-1.496682,3.125218,0.04937074,-0.005187677,0.006930205,0.02648287,-0.292912,2.442984,-2.789897
90,2.899997,466,193,498,498,0.01147882,-0.009566681,0.007159829,-1.49723,3.125417,0.04934944,-0.006766166,0.01044267,0.006693206,-0.2932273,2.444428,-2.791174
90,2.911108,466,193,498,498,0.03089983,-0.003153232,0.0149647,-1.498084,3.125755,0.0494778,-0.01112354,0.00893645,-0.01893193,-0.2939709,2.446095,-2.79241
90,2.922219,496,180,506,497,0.03406593,-0.00206184,0.01535052,-1.498456,3.125901,0.04944638,-0.01032679,0.009344803,-0.01771408,-0.2939485,2.446427,-2.792699
90,2.93333,496,180,506,497,0.03199012,-0.005271832,0.01501144,-1.498749,3.126044,0.04929724,-0.01135417,0.01228709,-0.004951435,-0.2935858,2.446772,-2.792992
90,2.944441,496,180,506,497,0.02564908,-0.005323985,0.01426762,-1.498918,3.126177,0.04917048,-0.009525932,0.01161688,0.02026137,-0.2927229,2.445964,-2.792369
90,2.955552,496,180,506,497,0.01718799,-0.005388986,0.01328117,-1.499112,3.126441,0.04902347,-0.01417415,-0.004696797,0.01102326,-0.2926574,2.445104,-2.790965
90,2.966663,496,180,506,497,0.01718799,-0.005388986,0.01328117,-1.499112,3.126441,0.04902347,-0.01417415,-0.004696797,0.01102326,-0.2926574,2.445104,-2.790965
90,2.977774,467,172,533,499,7.584156E-05,-0.00022747,0.01251432,-1.498809,3.126707,0.04909111,-0.01624388,0.009371147,0.01047174,-0.2921381,2.446848,-2.792557
90,2.988885,467,172,533,499,7.584156E-05,-0.00022747,0.01251432,-1.498809,3.126707,0.04909111,-0.01624388,0.009371147,0.01047174,-0.2921381,2.446848,-2.792557
90,2.999996,467,172,533,499,-0.01136877,-0.000510212,0.01868588,-1.498382,3.127262,0.04904797,-0.0117491,0.01664804,0.007908899,-0.2918212,2.448854,-2.794551
90,3.011107,507,169,490,500,-0.01345869,-0.003720864,0.01834896,-1.498161,3.127365,0.04899205,-0.01428473,0.01017314,0.0107961,-0.2916289,2.448642,-2.794137
90,3.022218,507,169,490,500,-0.01503889,-0.007888613,0.01375897,-1.497984,3.127392,0.0487955,-0.009355083,0.002543436,0.02041275,-0.2912508,2.447343,-2.792936
90,3.033329,507,169,490,500,-0.01503889,-0.007888613,0.01375897,-1.497984,3.127392,0.0487955,-0.009355083,0.002543436,0.02041275,-0.2912508,2.447343,-2.792936
90,3.04444,507,169,490,500,-0.01528526,-0.007950185,0.01587195,-1.497838,3.127635,0.04869057,-0.00573793,-0.005420505,0.0178999,-0.2912555,2.446582,-2.792137
90,3.055551,507,169,490,500,-0.008144159,-0.005818891,0.01890573,-1.497977,3.127895,0.04865489,-0.02076499,-0.006946675,0.0142345,-0.2910782,2.446756,-2.791635
90,3.066662,507,169,490,500,0.0008047232,-0.004570227,0.01568753,-1.498226,3.127959,0.04863944,-0.02190066,-0.004932139,0.01617098,-0.2908502,2.446992,-2.791563
90,3.077773,546,195,484,493,-0.0004061805,-0.001413325,0.01670816,-1.498263,3.128371,0.04861547,-0.01864651,0.005813248,0.005765629,-0.2907575,2.448804,-2.793085
90,3.088884,546,195,484,493,-0.0004061805,-0.001413325,0.01670816,-1.498263,3.128371,0.04861547,-0.01864651,0.005813248,0.005765629,-0.2907575,2.448804,-2.793085
90,3.099995,546,195,484,493,-0.000500361,-0.003576231,0.01770966,-1.498283,3.12859,0.04846953,-0.01299362,0.005795039,0.006757581,-0.2904747,2.448932,-2.79326
90,3.111106,546,195,484,493,0.008613751,-0.01000006,0.02286819,-1.498615,3.129089,0.04817871,-0.006817912,0.002369201,0.005706485,-0.2904497,2.448917,-2.793024
90,3.122217,471,212,499,497,0.005538529,-0.007866505,0.02149924,-1.498613,3.129289,0.04815208,-0.01603438,0.001776738,-0.0002111848,-0.290488,2.449529,-2.793211
90,3.133328,471,212,499,497,0.00471715,-0.00675115,0.01928763,-1.498694,3.129394,0.04813451,-0.01600314,0.004165519,0.000847331,-0.2903368,2.449898,-2.793445
90,3.144439,471,212,499,497,0.001640449,-0.00461816,0.01791912,-1.498639,3.129558,0.04812492,-0.02413719,0.002502836,0.004869967,-0.2900582,2.450098,-2.793206
90,3.15555,471,212,499,497,0.007088804,-0.007748641,0.01738499,-1.498798,3.129737,0.04787938,-0.02063776,-0.001644932,0.007698244,-0.2899165,2.449706,-2.792667
90,3.166661,471,212,499,497,0.007088804,-0.007748641,0.01738499,-1.498798,3.129737,0.04787938,-0.02063776,-0.001644932,0.007698244,-0.2899165,2.449706,-2.792667
90,3.177772,481,196,506,504,0.006493788,-0.00657548,0.0130602,-1.498698,3.129951,0.04776806,-0.01762131,-0.007652448,0.003986463,-0.2898435,2.448806,-2.79135
90,3.188883,481,196,506,504,0.01058398,-0.004441933,0.01466609,-1.498896,3.130251,0.04773024,-0.01785485,0.002916716,-0.005930333,-0.2899384,2.450336,-2.792628
90,3.199994,481,196,506,504,0.01058398,-0.004441933,0.01466609,-1.498896,3.130251,0.04773024,-0.01785485,0.002916716,-0.005930333,-0.2899384,2.450336,-2.792628
90,3.211105,481,196,506,504,0.023228,0.002040228,0.01627146,-1.499631,3.130652,0.04767804,-0.01533845,-0.00398132,-0.01838737,-0.2904284,2.451111,-2.792862
90,3.222216,481,196,506,504,0.023228,0.002040228,0.01627146,-1.499631,3.130652,0.04767804,-0.01533845,-0.00398132,-0.01838737,-0.2904284,2.451111,-2.792862
90,3.233327,418,181,492,501,0.01907567,0.006294372,0.01484029,-1.499771,3.130789,0.04776593,-0.01591523,-0.002015399,-0.01959969,-0.2906127,2.451795,-2.793313
90,3.244438,418,181,492,501,0.01524609,0.002072119,0.01107352,-1.499794,3.130808,0.04749801,-0.01595456,-0.002038998,-0.005541408,-0.2902286,2.451654,-2.793024
90,3.255549,418,181,492,501,0.002785739,0.00202628,0.007511891,-1.499608,3.130879,0.04748629,-0.01923369,0.006840987,0.006752888,-0.289721,2.452231,-2.793264
90,3.26666,476,196,498,501,-0.001688831,0.001938615,0.009141312,-1.499493,3.130941,0.0475289,-0.01320982,-0.001883058,0.0262991,-0.2890478,2.450222,-2.79138
90,3.277771,476,196,498,501,0.003368759,0.001921619,0.01185412,-1.49972,3.131099,0.04748789,-0.006223623,0.007100844,0.004676828,-0.2894574,2.451736,-2.792922
90,3.288882,476,196,498,501,0.001000409,0.002918327,0.01375191,-1.499703,3.131215,0.0475843,-0.006632233,0.006704054,-0.01269303,-0.2899607,2.452868,-2.793859
90,3.299993,476,196,498,501,0.001000409,0.002918327,0.01375191,-1.499703,3.131215,0.0475843,-0.006632233,0.006704054,-0.01269303,-0.2899607,2.452868,-2.793859
90,3.311104,476,196,498,501,0.00663617,0.004109093,0.01120914,-1.499832,3.13134,0.04766419,0.0009017903,-0.00734916,-0.0241749,-0.2906286,2.452027,-2.792927
90,3.322215,476,196,498,501,0.008904915,0.0009621093,0.01030933,-1.499949,3.131408,0.04762478,0.002036787,0.004974931,-0.01873018,-0.2904731,2.453087,-2.794107
90,3.333326,380,178,481,494,0.01559444,-0.008511273,0.008664793,-1.500351,3.131491,0.04736645,-0.009844543,0.007368594,0.02567772,-0.2890489,2.452016,-2.792882
90,3.344437,380,178,481,494,0.01886406,-0.01700826,0.008795933,-1.500625,3.131586,0.04698349,-0.004513372,0.01836806,0.02321322,-0.2886984,2.4531,-2.794197
90,3.355548,380,178,481,494,0.02376935,-0.01385148,0.01264757,-1.500973,3.131917,0.04694514,-0.00256679,0.01151835,0.01390704,-0.2888694,2.453192,-2.79423
90,3.366659,380,178,481,494,0.02376935,-0.01385148,0.01264757,-1.500973,3.131917,0.04694514,-0.00256679,0.01151835,0.01390704,-0.2888694,2.453192,-2.79423
90,3.37777,406,181,507,501,0.02639929,-0.01692552,0.008534372,-1.501623,3.131902,0.04642369,-0.00576973,0.003237712,-0.002761442,-0.2893764,2.453123,-2.79382
90,3.388881,406,181,507,501,0.01778042,-0.01382338,0.008735076,-1.501591,3.132023,0.04633687,-0.007202274,0.006699162,0.004515359,-0.2890664,2.453398,-2.794086
90,3.399992,406,181,507,501,0.007318059,-0.01494196,0.00648285,-1.501367,3.132139,0.04611796,-0.01430189,0.01116653,0.008631924,-0.2887559,2.454085,-2.794478
90,3.411103,406,181,507,501,-0.000195045,-0.01716218,0.006661404,-1.501075,3.132267,0.04581915,-0.01482623,0.0241615,0.001879987,-0.2886409,2.456357,-2.796674
90,3.422215,400,183,482,497,-0.002078922,-0.01712221,0.004306421,-1.500995,3.132262,0.0456306,-0.01138425,0.02817193,-0.007317254,-0.2889082,2.45796,-2.798247
90,3.433326,400,183,482,497,0.005493404,-0.02023659,0.003971932,-1.501383,3.13222,0.04525137,-0.00503934,0.02568071,-0.0115915,-0.289165,2.458692,-2.799037
90,3.444437,400,183,482,497,0.01608143,-0.02015464,0.005125338,-1.501808,3.132268,0.04507613,-0.007037673,0.02348685,-0.01516127,-0.2893098,2.459851,-2.800061
90,3.455548,400,183,482,497,0.03312369,-0.01786323,0.005953449,-1.502652,3.13235,0.04503405,-0.000646973,0.01810179,-0.01288724,-0.2893519,2.459697,-2.800112
90,3.466659,400,183,482,497,0.04022554,-0.02001795,0.009848003,-1.503287,3.132531,0.04477839,0.001586739,0.028919,-0.01695595,-0.2894446,2.46188,-2.802459
90,3.47777,398,181,530,497,0.04445468,-0.01785308,0.01032953,-1.50395,3.132633,0.04465056,-0.0005252659,0.03246813,-0.01954046,-0.2896369,2.463555,-2.804059
90,3.488881,398,181,530,497,0.04557702,-0.02317197,0.01026958,-1.504503,3.132655,0.04422552,-0.003404554,0.02551011,-0.006979533,-0.2893849,2.463755,-2.804228
90,3.499992,398,181,530,497,0.04540779,-0.02296967,0.001658336,-1.504976,3.132405,0.04399009,-6.6448E-05,0.02277509,0.000132509,-0.2892411,2.463828,-2.804393
90,3.511103,398,181,530,497,0.04258591,-0.02611099,-0.001956707,-1.505314,3.132334,0.04359541,-0.001562964,0.01856512,0.0118208,-0.2887761,2.464059,-2.804637
90,3.522214,365,153,492,497,0.03420348,-0.02507697,-0.003885404,-1.505373,3.132146,0.04342178,0.005012114,0.01844429,0.007576707,-0.2887996,2.46447,-2.805299
90,3.533325,365,153,492,497,0.01292922,-0.02844596,-0.005118207,-1.504904,3.132137,0.04301644,0.01062693,0.02418962,-0.004476371,-0.2891112,2.465944,-2.807101
90,3.544436,365,153,492,497,0.007597018,-0.02528742,-0.005599661,-1.504814,3.131992,0.04284067,0.01200441,0.01887365,-0.02039147,-0.2897258,2.466851,-2.808061
90,3.555547,365,153,492,497,0.003109908,-0.02217526,-0.003841465,-1.504799,3.132006,0.04271018,0.002545253,0.01730859,-0.009071937,-0.2893791,2.466801,-2.807947
90,3.566658,365,153,492,497,0.001665415,-0.02415079,-0.01048066,-1.504733,3.131709,0.04238154,-0.003666151,0.02211715,0.00924339,-0.288693,2.467372,-2.808517
90,3.577769,382,178,490,498,-0.00535018,-0.01982299,-0.01537707,-1.504522,3.131468,0.04234852,-0.006601665,0.01276946,0.02074489,-0.2881183,2.466318,-2.80732
90,3.58888,382,178,490,498,-0.01323352,-0.01678776,-0.01183824,-1.504142,3.131449,0.04227236,0.00110364,0.01727066,0.02638394,-0.2876347,2.466434,-2.807822
90,3.599991,382,178,490,498,-0.01447108,-0.02110772,-0.009950805,-1.503942,3.131414,0.04193307,0.007001843,0.01918603,0.007936622,-0.2880997,2.467411,-2.80908
90,3.611102,382,178,490,498,-0.01212651,-0.02209624,-0.0118903,-1.503833,3.131152,0.04164705,0.01329753,0.02205063,-0.01476608,-0.2887239,2.468593,-2.810544
90,3.622213,402,183,499,501,-0.00798974,-0.02315849,-0.01042534,-1.50386,3.131083,0.04137274,0.009203645,0.01761835,-0.007868719,-0.2886409,2.468726,-2.810721
90,3.633324,402,183,499,501,-0.006425886,-0.01873351,-0.01549329,-1.503857,3.130796,0.04140363,0.002542971,0.01767522,0.01041909,-0.2880134,2.468212,-2.810337
90,3.644435,402,183,499,501,-0.01724371,-0.017796,-0.01444922,-1.503554,3.13066,0.04134078,-0.001108807,0.03043773,0.01611303,-0.2874712,2.469931,-2.812183
90,3.655546,402,183,499,501,-0.01724371,-0.017796,-0.01444922,-1.503554,3.13066,0.04134078,-0.001108807,0.03043773,0.01611303,-0.2874712,2.469931,-2.812183
90,3.666657,402,183,499,501,-0.04240591,-0.02458987,-0.008752086,-1.502168,3.130694,0.04064463,0.0003691986,0.03943631,0.007621541,-0.2871319,2.473279,-2.815928
90,3.677768,402,183,499,501,-0.04240591,-0.02458987,-0.008752086,-1.502168,3.130694,0.04064463,0.0003691986,0.03943631,0.007621541,-0.2871319,2.473279,-2.815928
90,3.688879,404,206,488,500,-0.05475023,-0.03843858,-0.01272223,-1.5007,3.130477,0.03942011,0.01578962,0.03398053,0.02452747,-0.2864134,2.473367,-2.817069
90,3.69999,404,206,488,500,-0.06587242,-0.04580685,-0.01851684,-1.499658,3.13022,0.03871917,0.01362958,0.03745117,0.03600423,-0.2855942,2.473953,-2.817973
90,3.711101,404,206,488,500,-0.08482765,-0.05442249,-0.02097133,-1.49827,3.130072,0.03795324,0.0006245412,0.04736143,0.03573293,-0.2848698,2.476458,-2.820379
90,3.722212,404,206,488,500,-0.08482765,-0.05442249,-0.02097133,-1.49827,3.130072,0.03795324,0.0006245412,0.04736143,0.03573293,-0.2848698,2.476458,-2.820379
90,3.733323,401,183,495,503,-0.1464794,-0.07839485,-0.02383208,-1.493903,3.129881,0.03577744,-0.0004747957,0.06842107,0.0493938,-0.2830876,2.481185,-2.82568
90,3.744434,401,183,495,503,-0.1782989,-0.09892584,-0.0255862,-1.491139,3.129762,0.03422428,0.01343561,0.08315089,0.05718761,-0.2820735,2.483726,-2.829168
90,3.755545,401,183,495,503,-0.191094,-0.1161552,-0.02523222,-1.488675,3.129686,0.032514,0.01589037,0.0996372,0.05425831,-0.2812197,2.487485,-2.833552
90,3.766656,401,183,495,503,-0.1980823,-0.1357831,-0.0191165,-1.486311,3.12993,0.03053048,0.01158945,0.1273796,0.05326588,-0.2800921,2.493602,-2.84027
90,3.777767,398,170,498,494,-0.1755622,-0.1462002,-0.01867424,-1.485062,3.129853,0.02869556,0.0006863326,0.1359076,0.03931107,-0.2795264,2.498881,-2.845652
90,3.788878,398,170,498,494,-0.1432298,-0.153161,-0.02011279,-1.484298,3.129702,0.02686916,-0.009820178,0.158347,0.02744888,-0.2788042,2.507246,-2.854118
90,3.799989,398,170,498,494,-0.09516208,-0.1686516,-0.01814345,-1.484591,3.12955,0.02456233,-0.0116834,0.1884907,0.01711944,-0.2780958,2.517171,-2.864439
90,3.8111,398,170,498,494,-0.04703121,-0.1894526,-0.01680262,-1.485163,3.129493,0.0219567,-0.01039471,0.218175,0.01718177,-0.2770913,2.527267,-2.875197
90,3.822211,398,170,498,494,-0.001593143,-0.2149504,-0.009973371,-1.486298,3.129623,0.01892655,-0.02017519,0.253677,0.01180977,-0.2760361,2.540209,-2.888428
90,3.833322,382,152,539,497,0.02927397,-0.2414602,-0.00728218,-1.487337,3.129758,0.0156775,-0.02674446,0.274274,0.01911447,-0.274615,2.551903,-2.900477
90,3.844433,382,152,539,497,0.04989299,-0.2709848,-0.009487414,-1.488257,3.129749,0.01202098,-0.009180635,0.2526845,0.03046844,-0.2736371,2.558649,-2.908112
90,3.855544,382,152,539,497,0.06667817,-0.2904799,-0.01800757,-1.489385,3.129461,0.008309063,-0.01222965,0.2635438,0.04291756,-0.2721687,2.569108,-2.919155
90,3.866655,382,152,539,497,0.05933022,-0.3225899,-0.03228669,-1.489811,3.128986,0.003914314,-0.01460269,0.2849907,0.0282496,-0.271383,2.582204,-2.932714
90,3.877766,427,152,495,498,0.03440344,-0.3509347,-0.04170485,-1.489385,3.12869,-0.0007925567,-0.02368167,0.2987631,0.01543491,-0.2708046,2.595779,-2.946555
90,3.888877,427,152,495,498,-0.008000374,-0.3766679,-0.04604112,-1.48837,3.128675,-0.005616074,-0.01428348,0.3486001,0.002009079,-0.2702278,2.614401,-2.966081
90,3.899988,427,152,495,498,-0.05222836,-0.4106275,-0.05398382,-1.486667,3.128577,-0.01109366,-0.01056096,0.4142304,-0.04215197,-0.2707732,2.638179,-2.990567
90,3.911099,427,152,495,498,-0.0792127,-0.4310917,-0.06579432,-1.485196,3.128197,-0.01631293,-0.005150348,0.4277301,-0.05620252,-0.2708568,2.655883,-3.008838
90,3.92221,427,152,495,498,-0.1478219,-0.4577349,-0.09304436,-1.481711,3.127479,-0.02213193,0.0144181,0.4504127,-0.06251217,-0.2711908,2.675791,-3.030019
90,3.933321,447,176,504,498,-0.213529,-0.489978,-0.1151904,-1.47762,3.126834,-0.02852725,0.02813032,0.4585827,-0.05794537,-0.2714224,2.694498,-3.049937
90,3.944432,447,176,504,498,-0.2627916,-0.525331,-0.1266223,-1.473464,3.126522,-0.03528156,0.06056401,0.4665338,-0.005736098,-0.2701127,2.711535,-3.069555
90,3.955544,447,176,504,498,-0.2642382,-0.5542405,-0.1179443,-1.470575,3.126802,-0.04239593,0.08713853,0.4930881,0.06288205,-0.2677457,2.731417,-3.092532
90,3.966655,447,176,504,498,-0.2294949,-0.5974905,-0.1050466,-1.469039,3.127444,-0.0500376,0.08340365,0.519763,0.053756,-0.2674288,2.754144,-3.11697
90,3.977766,407,136,505,499,-0.1868237,-0.6276026,-0.1013485,-1.468017,3.127892,-0.05790724,0.05909014,0.5547683,0.005986243,-0.2686645,2.780304,3.139459
90,3.988877,407,136,505,499,-0.1372905,-0.6375159,-0.1147545,-1.467733,3.127628,-0.06527461,0.0477249,0.5748159,-0.02332295,-0.2698224,2.805397,3.113646
90,3.999988,407,136,505,499,-0.1035097,-0.6439352,-0.1421468,-1.467146,3.126865,-0.07282893,0.0480023,0.5986707,-0.04190779,-0.271293,2.831028,3.086941
89,4.011099,407,136,505,499,-0.09466422,-0.6487606,-0.1607983,-1.46621,3.126144,-0.08028153,0.04750955,0.6143738,-0.04752098,-0.2725495,2.856573,3.060373
88,4.02221,407,136,505,499,-0.09642005,-0.6662331,-0.1808234,-1.464961,3.125467,-0.08843825,0.04242927,0.6443084,-0.05136284,-0.2738182,2.884019,3.031955
87,4.033321,434,136,489,503,-0.1299758,-0.6966457,-0.1869964,-1.462527,3.125371,-0.09728207,0.04399562,0.6539196,-0.05546987,-0.2754449,2.910349,3.004762
86,4.044433,434,136,489,503,-0.129482,-0.7277127,-0.1929679,-1.461046,3.125255,-0.1064061,0.06164449,0.6034994,-0.06867118,-0.27774,2.927479,2.986423
85,4.055544,434,136,489,503,-0.1576142,-0.7471082,-0.190743,-1.458769,3.125489,-0.1154491,0.08683866,0.6278479,0.1327559,-0.2729943,2.955515,2.954431
84,4.066655,434,136,489,503,-0.1555765,-0.769483,-0.1751177,-1.457066,3.126561,-0.1247382,0.147622,0.65924,0.2132177,-0.2711172,2.984044,2.920978
83,4.077766,434,136,489,503,-0.1553771,-0.8235551,-0.1542181,-1.455639,3.128354,-0.1353131,0.1513622,0.7181886,0.1480258,-0.2745336,3.015054,2.887958
82,4.088878,350,152,504,498,-0.1439821,-0.8567488,-0.1602127,-1.454409,3.129502,-0.1460216,0.1457381,0.7462705,0.08926104,-0.2779451,3.045316,2.856127
81,4.099989,350,152,504,498,-0.168501,-0.8981028,-0.2075512,-1.451818,3.129635,-0.1575462,0.1698227,0.7707831,-0.0247288,-0.2841593,3.071716,2.82818
80,4.1111,350,152,504,498,-0.1931559,-0.9029428,-0.2478692,-1.449059,3.129358,-0.1681951,0.2082214,0.8418337,-0.1116729,-0.2913322,3.100927,2.796716
79,4.122211,350,152,504,498,-0.281,-0.9080201,-0.3038608,-1.443376,3.128912,-0.1792212,0.2059695,0.8324151,-0.07467723,-0.2950846,3.128366,2.767052
78,4.133323,528,220,479,488,-0.2980948,-0.9389125,-0.33745,-1.439624,3.128881,-0.1912965,0.2042615,0.8030549,0.03239861,-0.2954777,-3.128007,2.737218
77,4.144434,528,220,479,488,-0.2980948,-0.9389125,-0.33745,-1.439624,3.128881,-0.1912965,0.2042615,0.8030549,0.03239861,-0.2954777,-3.128007,2.737218
76,4.155545,528,220,479,488,-0.2733449,-0.9556728,-0.3330585,-1.437293,3.129785,-0.2028908,0.2383264,0.8110379,0.1569441,-0.2953883,-3.097711,2.702008
75,4.166656,528,220,479,488,-0.1710221,-0.9767853,-0.2901184,-1.435857,3.132986,-0.2258185,0.2570124,0.9297079,0.1239884,-0.3059652,-3.030528,2.628984
74,4.177768,528,220,479,488,-0.08994418,-1.011437,-0.289567,-1.437104,3.134747,-0.23846,0.2560607,0.9812625,0.04550427,-0.3140027,-3.000363,2.597305
73,4.188879,463,222,504,504,-0.0663954,-1.039817,-0.3156031,-1.436952,3.135467,-0.2518908,0.286232,1.041878,-0.01116234,-0.323386,-2.969788,2.564406
72,4.19999,463,222,504,504,-0.05269861,-1.100685,-0.3692416,-1.436458,3.136103,-0.2667566,0.3308816,1.076665,-0.04292417,-0.3326299,-2.942049,2.533422
71,4.211102,463,222,504,504,-0.03805888,-1.16467,-0.4199526,-1.436243,3.137015,-0.282572,0.3768655,1.092429,-0.162733,-0.3454455,-2.922694,2.511928
70,4.222213,463,222,504,504,-0.03805888,-1.16467,-0.4199526,-1.436243,3.137015,-0.282572,0.3768655,1.092429,-0.162733,-0.3454455,-2.922694,2.511928
69,4.233324,470,258,515,508,0.002390862,-1.366788,-0.5451984,-1.436913,3.139759,-0.3200203,0.4180936,1.02471,-0.1549512,-0.3650608,-2.88983,2.47302
68,4.244435,470,258,515,508,0.004414558,-1.393248,-0.5801778,-1.436901,3.141154,-0.3378278,0.4313642,1.117356,0.04324138,-0.3712548,-2.850585,2.428412
67,4.255547,470,258,515,508,-0.01381361,-1.380981,-0.5884928,-1.436116,-3.140161,-0.3541871,0.4876437,1.247854,0.2177122,-0.3801748,-2.808408,2.379391
66,4.266658,470,258,515,508,0.001791596,-1.365082,-0.5926681,-1.436504,-3.138386,-0.3705847,0.5226461,1.31984,0.2120778,-0.3924296,-2.779155,2.346003
65,4.277769,470,258,515,508,0.08457434,-1.36141,-0.5995721,-1.440013,-3.13665,-0.3871517,0.546338,1.375561,0.09703237,-0.4077326,-2.756491,2.321196
64,4.28888,348,228,502,498,0.1627861,-1.39425,-0.6715786,-1.443763,-3.136141,-0.4062466,0.6048434,1.402209,-0.07262617,-0.4257137,-2.740893,2.303695
63,4.299992,348,228,502,498,0.2327111,-1.461606,-0.7861879,-1.447848,-3.136506,-0.4278368,0.6190296,1.299875,-0.1205791,-0.4379845,-2.7309,2.290679
62,4.311103,348,228,502,498,0.2551723,-1.502615,-0.8873003,-1.450812,-3.137009,-0.4491331,0.612225,1.244166,0.009901404,-0.4465429,-2.710396,2.265586
61,4.322214,348,228,502,498,0.2291659,-1.492324,-0.9351556,-1.452355,-3.136898,-0.4692021,0.6997069,1.265646,0.06477171,-0.4600408,-2.691609,2.240314
60,4.333325,489,254,501,494,0.1309944,-1.462991,-0.9509737,-1.450317,-3.13631,-0.4874544,0.8227739,1.323351,0.09682536,-0.4763809,-2.674114,2.21501
59,4.344437,489,254,501,494,0.08194005,-1.455357,-0.9744896,-1.448032,-3.135921,-0.5056789,0.8870074,1.367785,0.09456301,-0.4933133,-2.657598,2.192532
58,4.355548,489,254,501,494,0.02453423,-1.485148,-1.040783,-1.44661,-3.134861,-0.527699,0.9560076,1.421769,0.03220522,-0.5125024,-2.643932,2.174137
57,4.366659,489,254,501,494,0.00716877,-1.497268,-1.111418,-1.445354,-3.134395,-0.5494086,0.9714429,1.353389,-0.01381618,-0.528442,-2.635887,2.161386
56,4.37777,489,254,501,494,-0.02957654,-1.506974,-1.187167,-1.443803,-3.133719,-0.5722324,0.9391447,1.297016,0.002812266,-0.5423634,-2.625029,2.146411
55,4.388882,410,223,503,492,-0.08599424,-1.502579,-1.226159,-1.440641,-3.132144,-0.5941459,0.9159871,1.237373,0.06542021,-0.5551903,-2.613364,2.129743
54,4.399993,410,223,503,492,-0.1171005,-1.50325,-1.241213,-1.438633,-3.12962,-0.6163215,0.9276472,1.219265,0.1448293,-0.5690563,-2.600262,2.110589
53,4.411104,410,223,503,492,-0.1399721,-1.481686,-1.267389,-1.436385,-3.127706,-0.6380668,0.9341728,1.299911,0.2464845,-0.5848051,-2.581851,2.086689
52,4.422215,410,223,503,492,-0.142821,-1.466158,-1.302807,-1.43448,-3.125697,-0.6603931,0.9205528,1.315854,0.2936676,-0.5995793,-2.566208,2.066536
51,4.433327,410,223,503,492,-0.155499,-1.444589,-1.322977,-1.432286,-3.123291,-0.6822598,0.8960847,1.357402,0.3303506,-0.6149452,-2.54886,2.045927
50,4.444438,484,206,498,493,-0.1450145,-1.401742,-1.346314,-1.430676,-3.121508,-0.7034447,0.8702842,1.323358,0.3711905,-0.6282445,-2.534855,2.027928
49,4.455549,484,206,498,493,-0.09516442,-1.345729,-1.386041,-1.430794,-3.121013,-0.7246264,0.8435753,1.2667,0.451514,-0.6398021,-2.520112,2.007959
48,4.46666,484,206,498,493,-0.05299914,-1.283975,-1.419774,-1.430952,-3.120783,-0.7455248,0.9218376,1.143411,0.4302757,-0.6526289,-2.51471,1.994892
47,4.477772,484,206,498,493,-0.01506925,-1.226431,-1.431469,-1.431356,-3.120256,-0.7657888,0.9716138,1.088729,0.3481345,-0.6675943,-2.51046,1.985388
46,4.488883,386,200,500,494,0.008661628,-1.183853,-1.452034,-1.43168,-3.119673,-0.7864544,0.9533217,1.022462,0.2155552,-0.6814598,-2.50833,1.98077
45,4.499994,386,200,500,494,0.02815366,-1.150616,-1.481723,-1.43208,-3.119111,-0.8074417,0.8199743,1.016795,0.2331768,-0.6919521,-2.497782,1.969656
44,4.511106,386,200,500,494,0.007403374,-1.131581,-1.50036,-1.431459,-3.117769,-0.8287044,0.8106947,1.049357,0.335664,-0.7047986,-2.484921,1.952629
43,4.522217,386,200,500,494,-0.06515217,-1.124226,-1.484744,-1.428656,-3.114794,-0.8491441,0.8257368,1.065667,0.4543397,-0.7175333,-2.472016,1.934394
42,4.533328,386,200,500,494,-0.1444702,-1.129767,-1.45414,-1.425227,-3.110743,-0.8692845,0.8566447,1.076172,0.4895577,-0.7313935,-2.461224,1.918913
41,4.544439,432,195,507,497,-0.2270172,-1.147015,-1.435864,-1.420819,-3.105608,-0.8900008,0.9036111,1.019727,0.4568089,-0.7450736,-2.456339,1.908938
40,4.555551,432,195,507,497,-0.2628409,-1.142893,-1.439096,-1.417065,-3.100971,-0.91075,0.9256741,0.9354942,0.3956476,-0.7574936,-2.453673,1.90144
39,4.566662,432,195,507,497,-0.2761161,-1.116109,-1.438355,-1.41375,-3.096554,-0.9307812,0.9171719,0.8385524,0.2988468,-0.769376,-2.453237,1.897547
38,4.577773,432,195,507,497,-0.2634746,-1.076617,-1.45323,-1.411252,-3.092844,-0.9507347,0.7857032,0.6945636,0.297342,-0.7748504,-2.450173,1.891128
37,4.588884,506,150,482,496,-0.2286932,-1.021623,-1.464788,-1.4096,-3.089797,-0.9702338,0.7414292,0.6484429,0.3466092,-0.7825614,-2.445055,1.881445
36,4.599996,506,150,482,496,-0.2024721,-0.9784805,-1.462542,-1.407879,-3.086367,-0.989203,0.7617445,0.6729362,0.4407227,-0.7932598,-2.43677,1.867186
35,4.611107,506,150,482,496,-0.185985,-0.9603845,-1.449172,-1.406255,-3.08195,-1.008142,0.8205022,0.695901,0.473221,-0.8057069,-2.431123,1.855609
34,4.622218,506,150,482,496,-0.1877427,-0.9565761,-1.438128,-1.404287,-3.07673,-1.027308,0.858344,0.7124149,0.4204206,-0.818677,-2.427662,1.848415
33,4.633329,506,150,482,496,-0.1915371,-0.9451336,-1.44107,-1.402167,-3.07168,-1.046481,0.8974341,0.6693792,0.3556075,-0.830462,-2.427165,1.843199
32,4.644441,510,158,504,498,-0.1898975,-0.9280425,-1.470009,-1.40012,-3.066708,-1.066417,0.9406044,0.6027191,0.3315085,-0.8418433,-2.427839,1.837643
31,4.655552,510,158,504,498,-0.1849343,-0.9082773,-1.51195,-1.398114,-3.061929,-1.087027,0.9351317,0.4978257,0.3356146,-0.8507037,-2.428926,1.831607
30,4.666663,510,158,504,498,-0.1775252,-0.8739672,-1.532655,-1.396285,-3.057282,-1.106906,0.9620566,0.4460789,0.3378372,-0.8610687,-2.430117,1.825478
29,4.677774,510,158,504,498,-0.1764951,-0.8552169,-1.54285,-1.394429,-3.051908,-1.126601,1.054379,0.363301,0.3054881,-0.8729522,-2.435819,1.821969
28,4.688886,455,134,507,497,-0.1580875,-0.8264467,-1.548996,-1.39331,-3.046787,-1.146266,1.106573,0.2851087,0.2584628,-0.8840608,-2.442056,1.81958
27,4.699997,455,134,507,497,-0.1045687,-0.7629819,-1.53275,-1.393455,-3.043277,-1.164262,1.115194,0.2565071,0.2298961,-0.8950623,-2.44679,1.816982
26,4.711108,455,134,507,497,-0.04210258,-0.6669871,-1.504435,-1.394422,-3.041324,-1.18098,1.11862,0.2488284,0.1824041,-0.9068543,-2.450898,1.815029
25,4.722219,455,134,507,497,0.009358287,-0.5766311,-1.471735,-1.395388,-3.039899,-1.197117,1.061648,0.223358,0.1726462,-0.916236,-2.454419,1.812534
24,4.733331,455,134,507,497,0.03548431,-0.4886993,-1.472118,-1.396031,-3.039068,-1.21387,1.002468,0.2085374,0.1739953,-0.9249483,-2.457135,1.80967
23,4.744442,452,138,507,497,0.06225109,-0.4288373,-1.49695,-1.397031,-3.038073,-1.231806,0.9021839,0.2115715,0.2014973,-0.931913,-2.457394,1.805203
22,4.755553,452,138,507,497,0.05870509,-0.4170573,-1.503288,-1.397414,-3.035474,-1.249581,0.8755838,0.2178576,0.2493677,-0.9404171,-2.458045,1.799673
21,4.766665,452,138,507,497,0.05275142,-0.4871946,-1.492825,-1.398079,-3.029729,-1.267651,0.9106374,0.2719344,0.3321726,-0.951483,-2.456702,1.791201
20,4.777776,452,138,507,497,-0.00541842,-0.4970816,-1.50279,-1.396638,-3.024842,-1.285779,0.9614356,0.3067916,0.4040329,-0.9632606,-2.455954,1.782575
19,4.788887,452,138,507,497,-0.05547988,-0.5512415,-1.564183,-1.395131,-3.018044,-1.306487,1.001216,0.314936,0.4322971,-0.9748507,-2.456419,1.77545
18,4.799998,506,120,500,500,-0.06883848,-0.5934213,-1.630173,-1.394418,-3.010749,-1.327712,0.9675361,0.2553933,0.4163353,-0.9834862,-2.458279,1.770202
17,4.81111,506,120,500,500,-0.06883848,-0.5934213,-1.630173,-1.394418,-3.010749,-1.327712,0.9675361,0.2553933,0.4163353,-0.9834862,-2.458279,1.770202
16,4.822221,506,120,500,500,-0.07073855,-0.6260402,-1.648449,-1.393524,-2.995825,-1.367262,0.9421004,0.01379353,0.2964392,-0.9978811,-2.470992,1.766239
15,4.833332,506,120,500,500,-0.05815923,-0.6181583,-1.636051,-1.393521,-2.988518,-1.386181,0.9198676,-0.05361927,0.2697688,-1.004955,-2.476772,1.76386
14,4.844443,434,145,503,497,-0.003293991,-0.5989287,-1.634371,-1.395113,-2.981493,-1.405214,0.8782358,-0.1124359,0.2496733,-1.010746,-2.483032,1.762047
13,4.855555,434,145,503,497,0.04280424,-0.5592061,-1.649418,-1.396971,-2.975193,-1.424738,0.8341099,-0.1572693,0.2665795,-1.01629,-2.487905,1.758505
12,4.866666,434,145,503,497,0.1160904,-0.5365241,-1.686739,-1.400454,-2.968626,-1.445022,0.8039843,-0.1600749,0.3079595,-1.022033,-2.491689,1.753788
11,4.877777,434,145,503,497,0.1589772,-0.4706127,-1.709092,-1.403301,-2.96353,-1.464606,0.7311229,-0.1427689,0.3807342,-1.026224,-2.49297,1.746832
10,4.888888,434,145,503,497,0.1927619,-0.4185749,-1.707543,-1.406228,-2.958237,-1.48396,0.6718539,-0.08316416,0.4560627,-1.031213,-2.492304,1.738749
9,4.9,428,123,501,499,0.2337767,-0.3677081,-1.654027,-1.410074,-2.953708,-1.501348,0.6567923,-0.02144295,0.5223125,-1.037408,-2.490842,1.729678
8,4.911111,428,123,501,499,0.2373761,-0.3010429,-1.612871,-1.412623,-2.949896,-1.518499,0.6361633,-0.01387772,0.5325581,-1.042654,-2.491618,1.72296
7,4.922222,428,123,501,499,0.2436045,-0.2182622,-1.558797,-1.41534,-2.947388,-1.534567,0.686301,0.006839782,0.478193,-1.050627,-2.49353,1.718431
6,4.933333,428,123,501,499,0.2922524,-0.2199823,-1.563946,-1.419968,-2.942418,-1.552377,0.7470697,-0.007616937,0.3872533,-1.059023,-2.498162,1.716605
5,4.944445,431,125,492,502,0.3238518,-0.2268564,-1.573968,-1.424647,-2.937023,-1.570353,0.7728039,-4.351139E-05,0.3623176,-1.067087,-2.500955,1.712948
4,4.955556,431,125,492,502,0.2480793,-0.1226427,-1.580302,-1.425966,-2.934355,-1.588192,0.7920287,0.03056708,0.4256883,-1.075401,-2.501207,1.705464
3,4.966667,431,125,492,502,0.2480793,-0.1226427,-1.580302,-1.425966,-2.934355,-1.588192,0.7920287,0.03056708,0.4256883,-1.075401,-2.501207,1.705464
2,4.977778,431,125,492,502,0.3328968,-0.02702169,-1.467155,-1.43419,-2.929858,-1.619211,0.7643024,-0.06166238,0.4936543,-1.088109,-2.505874,1.691679
1,4.98889,431,125,492,502,0.3612473,0.04607967,-1.41204,-1.438725,-2.929561,-1.633588,0.7295933,-0.1373932,0.455531,-1.092665,-2.510859,1.687762
-2.421439E-08,5.000001,334,190,510,496,0.415907,0.2162366,-1.315927,-1.444049,-2.933619,-1.646553,0.6518596,-0.2054677,0.3837863,-1.095245,-2.516311,1.686038
-2.421439E-08,5.011112,334,190,510,496,0.4238839,0.2824214,-1.290413,-1.448621,-2.935594,-1.660709,0.6046304,-0.2171783,0.3775496,-1.099085,-2.519212,1.681541
-2.421439E-08,5.022223,334,190,510,496,0.4467746,0.4646539,-1.185924,-1.453272,-2.943211,-1.672253,0.5566135,-0.2280288,0.3835793,-1.101976,-2.522205,1.677003
-2.421439E-08,5.033335,334,190,510,496,0.4498061,0.5508354,-1.132833,-1.457683,-2.948861,-1.684553,0.5559933,-0.261219,0.3946641,-1.105906,-2.526546,1.672094
-2.421439E-08,5.044446,381,220,491,498,0.4388101,0.6390849,-1.050895,-1.46176,-2.955982,-1.695268,0.5388099,-0.3149344,0.3652604,-1.108624,-2.532173,1.668946
-2.421439E-08,5.055557,381,220,491,498,0.4192575,0.7020807,-0.9684482,-1.465238,-2.963131,-1.705229,0.5402636,-0.3467911,0.3303576,-1.112087,-2.538141,1.666517
-2.421439E-08,5.066669,381,220,491,498,0.4017518,0.7122197,-0.8944142,-1.468783,-2.969235,-1.714509,0.5480202,-0.3344509,0.3036422,-1.11625,-2.543052,1.664015
-2.421439E-08,5.07778,381,220,491,498,0.4017518,0.7122197,-0.8944142,-1.468783,-2.969235,-1.714509,0.5480202,-0.3344509,0.3036422,-1.11625,-2.543052,1.664015
-2.421439E-08,5.088891,381,220,491,498,0.3153925,0.6894451,-0.6370018,-1.472936,-2.981705,-1.725518,0.5055296,-0.266807,0.3023241,-1.123701,-2.548426,1.656905
-2.421439E-08,5.100002,308,209,492,500,0.2811767,0.6701365,-0.5536155,-1.474831,-2.98754,-1.730824,0.4448171,-0.2690997,0.3233132,-1.12537,-2.551041,1.652606
-2.421439E-08,5.111114,308,209,492,500,0.2831298,0.6703617,-0.5101295,-1.477582,-2.993765,-1.73672,0.4293653,-0.2778159,0.3273548,-1.127822,-2.554459,1.648738
-2.421439E-08,5.122225,308,209,492,500,0.2737477,0.6699666,-0.4733999,-1.480071,-2.999933,-1.742373,0.3679671,-0.2955245,0.291162,-1.128336,-2.558245,1.646674
-2.421439E-08,5.133336,308,209,492,500,0.2605379,0.6428497,-0.4223101,-1.482221,-3.005418,-1.746903,0.3513771,-0.2998458,0.2373455,-1.13017,-2.562435,1.645659
-2.421439E-08,5.144447,308,209,492,500,0.2516292,0.6205602,-0.3811303,-1.484539,-3.010845,-1.751294,0.3468761,-0.2972012,0.1973453,-1.132174,-2.56661,1.6447
-2.421439E-08,5.155559,308,209,492,500,0.2366239,0.5661465,-0.3163546,-1.486405,-3.015114,-1.754105,0.3176826,-0.2913269,0.1823964,-1.133492,-2.570039,1.642896
-2.421439E-08,5.16667,308,209,492,500,0.221586,0.5205933,-0.2582884,-1.488189,-3.019272,-1.756179,0.2367232,-0.2881176,0.1487027,-1.132507,-2.572824,1.642351
-2.421439E-08,5.177781,308,209,492,500,0.2009544,0.4932473,-0.208167,-1.489548,-3.023705,-1.758422,0.1680157,-0.3001636,0.1312024,-1.130998,-2.57579,1.641451
-2.421439E-08,5.188892,308,209,492,500,0.1852633,0.4779667,-0.1801061,-1.490854,-3.028186,-1.760571,0.1363021,-0.2937495,0.1266832,-1.130209,-2.578423,1.64027
-2.421439E-08,5.200004,148,279,501,503,0.1725373,0.4672374,-0.1071831,-1.49199,-3.033261,-1.760935,0.09260748,-0.2502598,0.1158798,-1.129454,-2.579561,1.639114
-2.421439E-08,5.211115,148,279,501,503,0.158805,0.465225,-0.07239187,-1.493082,-3.038393,-1.762087,0.087991,-0.2204199,0.0996473,-1.129598,-2.581397,1.638566
-2.421439E-08,5.222226,148,279,501,503,0.1457134,0.4466609,-0.008690052,-1.493994,-3.043217,-1.761337,0.07963581,-0.1617047,0.08752906,-1.130117,-2.581576,1.637877
-2.421439E-08,5.233337,148,279,501,503,0.1312534,0.3971028,0.04632451,-1.494928,-3.046834,-1.760372,0.07995611,-0.1274119,0.07885845,-1.130656,-2.582227,1.637119
-2.421439E-08,5.244449,148,279,501,503,0.1171503,0.3534538,0.07661416,-1.495617,-3.050017,-1.759223,0.06566664,-0.1149448,0.04937763,-1.130574,-2.583325,1.63755
-2.421439E-08,5.25556,147,271,501,500,0.1026475,0.2861545,0.1081966,-1.496193,-3.051939,-1.757635,0.03570674,-0.1377594,0.009436171,-1.129218,-2.585768,1.638867
-2.421439E-08,5.266671,147,271,501,500,0.08638383,0.211664,0.1171914,-1.496711,-3.052761,-1.756224,0.008725651,-0.1765991,-0.0411614,-1.127368,-2.589097,1.641194
-2.421439E-08,5.277782,147,271,501,500,0.0726017,0.1350414,0.1192938,-1.497232,-3.052855,-1.75492,-0.001579106,-0.1926636,-0.07324278,-1.126097,-2.592038,1.643074
-2.421439E-08,5.288894,147,271,501,500,0.06180409,0.05737809,0.1312791,-1.497653,-3.052013,-1.752951,-0.01212113,-0.1733804,-0.08256575,-1.125151,-2.5937,1.64448
-2.421439E-08,5.300005,146,259,501,501,0.06024519,0.01213406,0.1389531,-1.498312,-3.051658,-1.751106,-0.03540061,-0.1533405,-0.08907858,-1.123762,-2.594813,1.645668
-2.421439E-08,5.311116,146,259,501,501,0.04869287,-0.05319911,0.1559026,-1.498607,-3.049997,-1.748613,-0.06205592,-0.1105029,-0.100621,-1.122488,-2.594822,1.647248
-2.421439E-08,5.322227,146,259,501,501,0.03716095,-0.1079199,0.1627231,-1.498907,-3.047975,-1.746211,-0.07659982,-0.08261312,-0.09353186,-1.121298,-2.594791,1.648204
-2.421439E-08,5.333339,146,259,501,501,0.02676664,-0.1445504,0.1688938,-1.499029,-3.046013,-1.743992,-0.0809294,-0.0707644,-0.09642881,-1.120177,-2.595416,1.649566
-2.421439E-08,5.34445,146,259,501,501,0.01231776,-0.1752387,0.176762,-1.499018,-3.043926,-1.741428,-0.09144308,-0.07625222,-0.1154742,-1.118669,-2.596496,1.651599
-2.421439E-08,5.355561,145,258,501,507,-0.0005635768,-0.191635,0.1861419,-1.498804,-3.042002,-1.738742,-0.09971558,-0.07715009,-0.1333438,-1.117062,-2.597567,1.653845
-2.421439E-08,5.366673,145,258,501,507,-0.0235271,-0.1963775,0.2028146,-1.498083,-3.0403,-1.735686,-0.1035721,-0.06247865,-0.1479008,-1.115878,-2.598122,1.656145
-2.421439E-08,5.377784,145,258,501,507,-0.04122071,-0.2097997,0.2129726,-1.4974,-3.038306,-1.732751,-0.1150622,-0.02617867,-0.1351203,-1.114763,-2.597325,1.65732
-2.421439E-08,5.388895,145,258,501,507,-0.03808247,-0.2125049,0.2105234,-1.497234,-3.036391,-1.730108,-0.1468544,0.02324352,-0.115716,-1.113259,-2.59517,1.658033
-2.421439E-08,5.400006,145,258,501,507,-0.03743736,-0.2215672,0.2010281,-1.497021,-3.034199,-1.727739,-0.1689608,0.05170614,-0.1020625,-1.111657,-2.593185,1.658781
-2.421439E-08,5.411118,144,282,501,510,-0.03277582,-0.2491976,0.1827343,-1.497137,-3.031153,-1.72593,-0.1790833,0.09337294,-0.08414705,-1.110546,-2.590517,1.659136
-2.421439E-08,5.422229,144,282,501,510,-0.0369363,-0.2893343,0.1626643,-1.496863,-3.027205,-1.723918,-0.1684788,0.1064936,-0.07609097,-1.109823,-2.588572,1.659659
-2.421439E-08,5.43334,144,282,501,510,-0.04283117,-0.3234716,0.1440199,-1.496491,-3.023062,-1.722219,-0.1587488,0.09579003,-0.07838732,-1.108765,-2.587645,1.660803
-2.421439E-08,5.444451,144,282,501,510,-0.05056603,-0.3371715,0.1313974,-1.496114,-3.019639,-1.72032,-0.1537105,0.08458512,-0.08557181,-1.107656,-2.586809,1.662057
-2.421439E-08,5.455563,145,282,501,495,-0.05236502,-0.3337871,0.1227206,-1.495781,-3.015985,-1.718739,-0.1544235,0.08512935,-0.08511855,-1.106544,-2.585482,1.663104
-2.421439E-08,5.466674,145,282,501,495,-0.05200534,-0.3112952,0.1074148,-1.495551,-3.013359,-1.717582,-0.1479657,0.1009566,-0.07645071,-1.105979,-2.583658,1.663675
-2.421439E-08,5.477785,145,282,501,495,-0.0419201,-0.2760965,0.09723711,-1.495444,-3.011533,-1.716447,-0.1462647,0.1204521,-0.07005085,-1.105427,-2.581357,1.664019
-2.421439E-08,5.488896,145,282,501,495,-0.03512265,-0.2513843,0.08349293,-1.495481,-3.009537,-1.715469,-0.1390055,0.1452298,-0.06197748,-1.105117,-2.578724,1.66431
-2.421439E-08,5.500008,145,282,501,495,-0.03572525,-0.2321538,0.08152833,-1.495194,-3.007606,-1.714266,-0.1352791,0.1530497,-0.06242918,-1.104747,-2.576603,1.664893
-2.421439E-08,5.511119,135,292,501,500,-0.03383245,-0.202136,0.08081274,-1.494815,-3.006275,-1.713319,-0.1206525,0.1577565,-0.05375094,-1.104637,-2.574717,1.6652
-2.421439E-08,5.52223,135,292,501,500,-0.03589015,-0.1611581,0.0836665,-1.494484,-3.005689,-1.712209,-0.1022381,0.1587009,-0.038025,-1.104664,-2.572749,1.665259
-2.421439E-08,5.533341,135,292,501,500,-0.03633987,-0.1093438,0.08228509,-1.494004,-3.005849,-1.711525,-0.09086251,0.1528075,-0.02525777,-1.104786,-2.570976,1.664839
-2.421439E-08,5.544453,135,292,501,500,-0.03303459,-0.06398349,0.08165104,-1.493751,-3.006324,-1.710692,-0.07596659,0.139269,-0.009020754,-1.10489,-2.569469,1.664345
-2.421439E-08,5.555564,122,283,500,498,-0.02977366,-0.03310428,0.08207702,-1.493498,-3.006881,-1.709807,-0.06260179,0.123402,-0.01522218,-1.10489,-2.568553,1.664697
-2.421439E-08,5.566675,122,283,500,498,-0.02543864,7.405877E-06,0.07751538,-1.493302,-3.007813,-1.709185,-0.04246496,0.08222681,-0.02473343,-1.104899,-2.568994,1.6653
-2.421439E-08,5.577786,122,283,500,498,-0.01780999,0.03204013,0.07378175,-1.493192,-3.009042,-1.708711,-0.02858568,0.04129931,-0.02577586,-1.104576,-2.569602,1.665716
-2.421439E-08,5.588898,122,283,500,498,-0.01448046,0.04941688,0.06566144,-1.493039,-3.01015,-1.708351,-0.02497653,0.01930021,-0.02030996,-1.10425,-2.569912,1.665836
-2.421439E-08,5.600009,122,283,500,498,-0.00550222,0.06171494,0.05749127,-1.493205,-3.011204,-1.708125,-0.03463551,0.02092025,-0.01065131,-1.103692,-2.569197,1.665639
-2.421439E-08,5.61112,124,296,500,504,0.002617259,0.07058856,0.04964535,-1.493362,-3.012295,-1.707902,-0.03495237,0.02556382,-0.006669811,-1.103521,-2.568617,1.665556
-2.421439E-08,5.622231,124,296,500,504,0.005697183,0.07541784,0.03872001,-1.493435,-3.013264,-1.707889,-0.04143991,0.0694854,0.02844836,-1.103788,-2.565742,1.663868
-2.421439E-08,5.633343,124,296,500,504,0.008902447,0.0765567,0.03459889,-1.493502,-3.01422,-1.707765,-0.03372507,0.09830284,0.04827224,-1.104334,-2.563582,1.662639
-2.421439E-08,5.644454,124,296,500,504,0.01231541,0.07457742,0.02978405,-1.493625,-3.015005,-1.707622,-0.02215204,0.1124516,0.05291682,-1.105096,-2.561793,1.661672
-2.421439E-08,5.655565,137,282,501,511,0.01570336,0.07236072,0.02601485,-1.493722,-3.015701,-1.707713,-0.01408334,0.1139448,0.05976445,-1.105624,-2.560406,1.660707
-2.421439E-08,5.666677,137,282,501,511,0.01570146,0.05880877,0.01318546,-1.49386,-3.015929,-1.707893,-0.00827273,0.09621103,0.0534803,-1.105937,-2.55968,1.660169
-2.421439E-08,5.677788,137,282,501,511,0.01753777,0.04862349,0.005466755,-1.494088,-3.016138,-1.708055,-0.007077437,0.08190639,0.04829417,-1.106001,-2.559063,1.65959
-2.421439E-08,5.688899,137,282,501,511,0.02561022,0.02530796,-0.005157524,-1.494652,-3.015714,-1.708369,-0.02016185,0.0602914,0.04606755,-1.105466,-2.558545,1.659084
-2.421439E-08,5.70001,137,282,501,511,0.0283911,0.0002514675,-0.009624604,-1.49505,-3.015052,-1.708469,-0.02822501,0.05084727,0.03885207,-1.105134,-2.557932,1.658771
-2.421439E-08,5.711122,163,290,504,501,0.02606927,-0.01263217,-0.01139742,-1.495273,-3.014638,-1.708603,-0.02967557,0.05128296,0.04167375,-1.105084,-2.557026,1.658214
-2.421439E-08,5.722233,163,290,504,501,0.02706661,-0.01105744,-0.01322118,-1.495557,-3.014552,-1.708709,-0.03128928,0.05216153,0.05165929,-1.104965,-2.555909,1.6572
-2.421439E-08,5.733344,163,290,504,501,0.02586601,-0.009047126,-0.01277658,-1.495895,-3.014423,-1.708825,-0.02132006,0.05254478,0.0657912,-1.105221,-2.55496,1.655925
-2.421439E-08,5.744455,163,290,504,501,0.02497741,0.002715081,-0.006903967,-1.496178,-3.014755,-1.708768,-0.01519037,0.04653333,0.06348708,-1.105358,-2.554388,1.655159
-2.421439E-08,5.755567,163,290,504,501,0.02667902,0.02346223,-0.001234826,-1.496441,-3.01562,-1.708753,-0.009816322,0.03526944,0.04904507,-1.105307,-2.554244,1.655116
-2.421439E-08,5.766678,191,312,505,518,0.02950977,0.04347728,0.003170213,-1.496769,-3.016709,-1.708713,0.000838127,0.03605804,0.04115296,-1.105749,-2.553883,1.654801
-2.421439E-08,5.777789,191,312,505,518,0.02845624,0.05869748,0.003246859,-1.496888,-3.017675,-1.708846,0.003545251,0.03760747,0.03300775,-1.105894,-2.553378,1.654621
-2.421439E-08,5.7889,191,312,505,518,0.02914374,0.07856926,0.007601469,-1.497159,-3.019121,-1.708835,0.007906698,0.04900184,0.03145123,-1.106476,-2.552517,1.654198
-2.421439E-08,5.800012,191,312,505,518,0.03368327,0.08749713,0.01823075,-1.497577,-3.020396,-1.70848,-0.0003483444,0.06298907,0.03946504,-1.106613,-2.551082,1.653351
-2.421439E-08,5.811123,219,329,506,505,0.02754389,0.08167,0.02779692,-1.497635,-3.02124,-1.707993,-0.005025763,0.06688473,0.04772881,-1.106713,-2.549932,1.652526
-2.421439E-08,5.822234,219,329,506,505,0.0254735,0.0645256,0.03055167,-1.497775,-3.02156,-1.707589,0.0004919171,0.05967893,0.04162837,-1.107042,-2.549415,1.652136
-2.421439E-08,5.833345,219,329,506,505,0.0262074,0.05392784,0.02930759,-1.497955,-3.021997,-1.707412,0.006230902,0.05002278,0.03806899,-1.107294,-2.54917,1.651814
-2.421439E-08,5.844457,219,329,506,505,0.02998417,0.04721511,0.02129417,-1.498342,-3.02239,-1.707404,0.02398527,0.01993922,0.02222246,-1.107727,-2.550134,1.652085
-2.421439E-08,5.855568,219,329,506,505,0.03292286,0.03640879,0.01675164,-1.498798,-3.02254,-1.707339,0.0267095,0.01108492,0.01615253,-1.107968,-2.550388,1.652145
-2.421439E-08,5.866679,247,361,506,507,0.03450794,0.03035901,0.009982454,-1.49923,-3.022701,-1.707423,0.02065975,0.00879862,0.01899963,-1.108041,-2.550286,1.651828
-2.421439E-08,5.87779,247,361,506,507,0.03586431,0.02651007,0.008053321,-1.499595,-3.022872,-1.707319,0.01175605,-0.003355577,0.01664537,-1.107848,-2.550421,1.65177
-2.421439E-08,5.888902,247,361,506,507,0.0320645,0.03438015,0.01082071,-1.499797,-3.023509,-1.7072,0.009841718,-0.0147837,0.01299939,-1.107681,-2.550856,1.651751
-2.421439E-08,5.900013,247,361,506,507,0.02773774,0.04839277,0.020345,-1.499889,-3.024458,-1.706827,0.0158394,-0.01663703,0.007549373,-1.107887,-2.551318,1.651765
-2.421439E-08,5.911124,261,365,506,504,0.02668937,0.06138641,0.03071284,-1.500162,-3.025598,-1.706243,0.03360508,-0.000749819,0.004665729,-1.108803,-2.551226,1.651634
-2.421439E-08,5.922235,261,365,506,504,0.0264811,0.07825621,0.0386157,-1.50046,-3.02702,-1.705824,0.03479274,0.01602894,0.004605317,-1.109472,-2.550822,1.651517
-2.421439E-08,5.933347,261,365,506,504,0.02492156,0.08370689,0.04841495,-1.500632,-3.028202,-1.705162,0.02242654,0.0160329,0.006186308,-1.109459,-2.55053,1.651326
-2.421439E-08,5.944458,261,365,506,504,0.02833945,0.08127732,0.04566633,-1.50097,-3.029099,-1.704824,0.01525071,0.007215791,0.004638337,-1.109378,-2.550663,1.651347
-2.421439E-08,5.955569,261,365,506,504,0.0255413,0.07631031,0.04239763,-1.501085,-3.029812,-1.704517,0.008258908,-0.00204233,-0.004043004,-1.109043,-2.550965,1.651734
-2.421439E-08,5.966681,269,377,505,510,0.02051488,0.05827609,0.03310893,-1.501289,-3.030097,-1.704455,0.0117153,-0.0037968,-0.01004502,-1.109179,-2.551275,1.652071
-2.421439E-08,5.977792,269,377,505,510,0.01953462,0.05717628,0.032849,-1.501403,-3.030829,-1.704183,0.01794219,-0.003822004,-0.007965403,-1.109509,-2.551446,1.652156
-2.421439E-08,5.988903,269,377,505,510,0.01648236,0.04069174,0.02718154,-1.501517,-3.030787,-1.704028,0.02081314,0.001777747,-0.007762754,-1.109857,-2.551466,1.652241
-2.421439E-08,6.000014,269,377,505,510,0.01678619,0.03545065,0.03149681,-1.50172,-3.031163,-1.703464,0.02074461,0.0143917,-0.009047311,-1.110192,-2.551204,1.652288
-2.421439E-08,6.011126,276,379,506,507,0.0150373,0.02946249,0.03348597,-1.501819,-3.031406,-1.703006,0.01606973,0.01599947,-0.009758495,-1.110341,-2.551075,1.652409
