ref,t,emg1,emg2,emg1raw,emg2raw,aDotS,bDotS,gDotS,aS,bS,gS,aDotSH,bDotSH,gDotSH,aSH,bSH,gSH
90,0,692,184,486,498,0.612751,1.41306,0.9532079,-1.269338,3.051643,-0.1655815,-0.4521024,-1.220621,0.1362884,-0.2661483,2.932946,2.907231
90,0.01111111,692,184,486,498,0.5689495,1.365299,0.930692,-1.276548,3.053546,-0.1498252,-0.4093734,-1.165527,0.1761267,-0.2601141,2.895678,2.948349
90,0.02222222,692,184,486,498,0.5403585,1.326636,0.9093714,-1.28388,3.055724,-0.1346271,-0.3838407,-1.148201,0.1675099,-0.2557796,2.853957,2.994615
90,0.03333334,693,179,476,496,0.5173109,1.278836,0.8712674,-1.291007,3.057715,-0.1200755,-0.3422428,-1.114214,0.1213852,-0.2538397,2.813293,3.039499
90,0.04444445,693,179,476,496,0.4961634,1.227776,0.8269229,-1.297755,3.059731,-0.1066367,-0.2966952,-0.9000883,-0.2789747,-0.2653824,2.797409,3.06196
90,0.05555556,693,179,476,496,0.4743095,1.202588,0.7926496,-1.304251,3.062006,-0.09287775,-0.2197288,-1.031634,-0.4958329,-0.2757357,2.746358,3.119186
90,0.06666667,693,179,476,496,0.4264902,1.152243,0.7577822,-1.309413,3.064715,-0.08068419,-0.2919104,-1.186388,-0.05226123,-0.2687753,2.682746,-3.095232
90,0.07777778,693,179,476,496,0.3822066,1.115321,0.7421688,-1.313541,3.067836,-0.06781953,-0.263815,-1.082848,0.08152992,-0.2575133,2.650712,-3.061371
90,0.08888889,685,213,507,503,0.3141251,1.053993,0.718238,-1.316845,3.071669,-0.05740817,-0.1558172,-0.8646768,-0.04059029,-0.261924,2.639764,-3.050456
90,0.1,685,213,507,503,0.2324681,0.9952367,0.6821687,-1.318822,3.075376,-0.04759761,-0.2010512,-0.8116875,-0.05966517,-0.2637264,2.617523,-3.023067
90,0.1111111,685,213,507,503,0.1366243,0.9432303,0.6376199,-1.31859,3.07847,-0.03718572,-0.2488401,-0.7402212,-0.08014676,-0.2648961,2.600645,-3.000633
90,0.1222222,685,213,507,503,0.07292795,0.9047887,0.6012992,-1.319134,3.081863,-0.02793336,-0.2423668,-0.6922591,-0.0854966,-0.265441,2.580888,-2.977065
90,0.1333333,765,205,445,500,-0.004925489,0.8432398,0.5564844,-1.31833,3.085216,-0.02008556,-0.2191816,-0.6747202,-0.05877167,-0.2661052,2.557932,-2.951043
90,0.1444445,765,205,445,500,-0.08772349,0.7495091,0.4859749,-1.31698,3.087953,-0.01332166,-0.2110741,-0.6374888,-0.06095563,-0.2664184,2.538616,-2.928679
90,0.1555556,765,205,445,500,-0.1236051,0.7009958,0.4529589,-1.315768,3.090872,-0.006876815,-0.2209286,-0.6289563,-0.04997246,-0.2675731,2.519823,-2.905542
90,0.1666667,765,205,445,500,-0.1851283,0.6253231,0.4064035,-1.313129,3.093759,-0.001816808,-0.2039064,-0.6057462,-0.0002394617,-0.2672615,2.499015,-2.882007
90,0.1777778,765,205,445,500,-0.2185282,0.5776667,0.3791267,-1.310978,3.096723,0.003882889,-0.1786696,-0.5737348,0.02089494,-0.267693,2.481495,-2.862208
90,0.1888889,778,273,494,498,-0.2750817,0.5042896,0.3419199,-1.307274,3.099701,0.007466438,-0.1310205,-0.4718714,0.01497701,-0.2684892,2.47381,-2.853899
90,0.2,778,273,494,498,-0.3134497,0.4468053,0.3120301,-1.303797,3.102625,0.01094985,-0.1256041,-0.4409015,-0.003099278,-0.2698485,2.461951,-2.839806
90,0.2111111,778,273,494,498,-0.3217779,0.4474949,0.3032297,-1.301301,3.105501,0.01623996,-0.1234025,-0.3987043,-0.06661131,-0.2728121,2.455278,-2.830495
90,0.2222222,778,273,494,498,-0.3184243,0.4364977,0.2824005,-1.298768,3.107867,0.02095482,-0.1286607,-0.3474097,-0.08622877,-0.2746337,2.451114,-2.823992
90,0.2333333,790,266,455,502,-0.2927125,0.3989128,0.2651604,-1.297044,3.109996,0.02453837,-0.1368567,-0.2932507,-0.09434035,-0.2745469,2.448787,-2.819524
90,0.2444444,790,266,455,502,-0.214419,0.3190818,0.2501729,-1.297517,3.111996,0.02581988,-0.1331044,-0.2353884,-0.09213349,-0.2753959,2.448071,-2.817027
90,0.2555556,790,266,455,502,-0.1328659,0.2444471,0.2516506,-1.298934,3.11424,0.02661297,-0.1244658,-0.2038209,-0.1027403,-0.2760228,2.446698,-2.814252
90,0.2666667,790,266,455,502,-0.03611828,0.1949849,0.2549439,-1.301794,3.116301,0.02736824,-0.1349546,-0.185168,-0.1144261,-0.2774481,2.445846,-2.810999
90,0.2777778,790,266,455,502,0.02526399,0.1713549,0.2625446,-1.30395,3.118305,0.02914617,-0.142348,-0.179764,-0.1099686,-0.2776111,2.443235,-2.805854
90,0.2888889,763,248,506,502,0.09936622,0.1562066,0.2664123,-1.307886,3.120139,0.03034246,-0.1556013,-0.170527,-0.09912191,-0.2783025,2.44112,-2.801166
90,0.3,763,248,506,502,0.1717437,0.1509289,0.2684195,-1.312215,3.122033,0.03133795,-0.1617328,-0.1483268,-0.06445837,-0.2772058,2.440026,-2.798351
90,0.3111111,763,248,506,502,0.2098604,0.1522383,0.2687871,-1.316292,3.123734,0.03298805,-0.1255136,-0.1332073,-0.01069019,-0.2758438,2.43487,-2.792865
90,0.3222222,763,248,506,502,0.2572756,0.12003,0.2736056,-1.320863,3.125882,0.03316488,-0.1037572,-0.08662695,-0.02619971,-0.2761735,2.437335,-2.794783
90,0.3333333,795,250,483,501,0.2754919,0.09116079,0.2677514,-1.324983,3.127978,0.03302426,-0.109556,-0.0605525,-0.08614095,-0.2783158,2.442738,-2.798216
90,0.3444445,795,250,483,501,0.296165,0.04961137,0.2494303,-1.329288,3.129496,0.03229456,-0.120654,-0.05083895,-0.09688722,-0.2792751,2.445391,-2.798924
90,0.3555556,795,250,483,501,0.2921961,0.04956073,0.2290173,-1.332527,3.130393,0.03300029,-0.1090394,-0.05076081,-0.07652482,-0.2794529,2.444982,-2.797481
90,0.3666667,795,250,483,501,0.2708411,0.06180785,0.1901226,-1.335177,3.130707,0.0340043,-0.08901397,-0.03568261,-0.06475235,-0.2797161,2.445928,-2.797939
90,0.3777778,795,250,483,501,0.2355867,0.05896854,0.1616015,-1.336795,3.131256,0.03482083,-0.07394707,-0.01580483,-0.02685284,-0.2792538,2.446735,-2.798582
90,0.3888889,809,235,522,500,0.2238236,0.04197144,0.1450695,-1.339168,3.131908,0.03479154,-0.05647093,0.0005506761,-0.01658368,-0.278996,2.448128,-2.799855
90,0.4,809,235,522,500,0.2020365,0.008657061,0.1081809,-1.340641,3.131911,0.03414385,-0.05607293,-0.004213467,-0.0500623,-0.2804234,2.45067,-2.801494
90,0.4111111,809,235,522,500,0.1907612,0.004318774,0.08839476,-1.341954,3.131778,0.03483628,-0.06136104,-0.009424075,-0.0617769,-0.2813576,2.452693,-2.802295
90,0.4222222,809,235,522,500,0.1648162,0.01015682,0.06130209,-1.343057,3.131451,0.0350946,-0.05485909,-0.001982935,-0.05539548,-0.2816128,2.454329,-2.803433
90,0.4333333,809,235,522,500,0.134375,0.01674463,0.03442403,-1.343879,3.131031,0.035452,-0.04398701,-0.007540099,-0.01773352,-0.2808261,2.452877,-2.801949
90,0.4444444,768,254,474,495,0.1008994,0.009744643,0.01527504,-1.344114,3.130704,0.03541578,-0.02010145,-0.01542288,0.01673226,-0.2800516,2.449693,-2.799288
90,0.4555556,768,254,474,495,0.08680524,-0.01175073,-0.001864143,-1.344881,3.130459,0.03461364,-0.01060693,-0.01543806,0.01511501,-0.2798327,2.449466,-2.798934
90,0.4666667,768,254,474,495,0.08325067,-0.02856036,-0.01753173,-1.345528,3.129823,0.03385464,-0.01435195,-0.02605851,0.01355547,-0.2798578,2.447788,-2.796918
90,0.4777778,768,254,474,495,0.07581581,-0.02826206,-0.02728742,-1.34619,3.129319,0.03338805,-0.009088444,-0.02418772,0.012279,-0.2794993,2.447513,-2.796566
90,0.4888889,771,257,444,498,0.05093291,-0.009488132,-0.04212789,-1.345851,3.128379,0.03386689,0.0007364685,-0.01036348,0.01157963,-0.2793944,2.447901,-2.79731
90,0.5,771,257,444,498,0.02484215,0.007206526,-0.05212899,-1.34538,3.127746,0.03436596,0.01033374,0.005486855,-0.006435853,-0.2794093,2.450383,-2.800279
90,0.5111111,771,257,444,498,0.01436852,-0.001473337,-0.0666858,-1.345235,3.126739,0.03395477,0.00507494,0.01184578,-0.01711405,-0.279429,2.451845,-2.801748
90,0.5222223,771,257,444,498,0.01782245,-0.02210208,-0.07114965,-1.345304,3.125931,0.03316861,0.008671338,0.001364532,-0.007722892,-0.279437,2.450671,-2.800722
90,0.5333334,771,257,444,498,0.02645187,-0.03395912,-0.07474038,-1.345861,3.125025,0.03243943,0.02804785,-0.002222704,0.01612305,-0.2786551,2.448694,-2.799762
90,0.5444446,742,244,468,495,0.05511739,-0.03335515,-0.05835588,-1.34714,3.124597,0.03207191,0.04658115,0.007709809,0.02774645,-0.2782689,2.447908,-2.800143
90,0.5555557,742,244,468,495,0.0672989,-0.02662551,-0.05054723,-1.348259,3.124186,0.03196965,0.05042048,0.01977824,0.01855801,-0.2781299,2.449222,-2.802256
90,0.5666668,742,244,468,495,0.09505696,-0.02108622,-0.04364101,-1.349955,3.123525,0.03185833,0.05412443,0.02048553,-0.005610853,-0.2786833,2.45053,-2.804039
90,0.577778,742,244,468,495,0.1160578,-0.01417115,-0.04049978,-1.351785,3.122874,0.03173902,0.06136601,0.02404918,-0.008707801,-0.2789768,2.451109,-2.805513
90,0.5888891,791,245,488,510,0.1409062,-0.01130045,-0.04404683,-1.353925,3.1218,0.0317012,0.05892304,0.02862604,-0.01129187,-0.2789906,2.452504,-2.807514
90,0.6000003,791,245,488,510,0.1612362,-0.001203485,-0.04737875,-1.356134,3.120644,0.03185247,0.06021919,0.0235827,0.006276282,-0.2786753,2.451589,-2.807423
90,0.6111114,791,245,488,510,0.1708446,0.0008944497,-0.05162147,-1.358197,3.119606,0.03176885,0.06555496,0.01860875,0.02020572,-0.2783813,2.450552,-2.807371
90,0.6222225,791,245,488,510,0.1709089,0.003574729,-0.04353583,-1.360006,3.118941,0.03188762,0.07222979,0.02791118,0.02126259,-0.2782226,2.451078,-2.809046
90,0.6333337,791,245,488,510,0.1591994,0.01971729,-0.04118245,-1.361377,3.118217,0.03246393,0.07523119,0.02153923,-0.002912043,-0.2787808,2.451873,-2.810688
90,0.6444448,715,234,467,496,0.1387515,0.04629771,-0.03888224,-1.362259,3.117427,0.03381469,0.07208113,0.01535836,-0.02492687,-0.2796037,2.452459,-2.811868
90,0.655556,715,234,467,496,0.1171236,0.03659538,-0.05815203,-1.362788,3.116205,0.03379924,0.07343916,0.01473823,-0.0246366,-0.279682,2.45256,-2.812786
90,0.6666671,715,234,467,496,0.1076626,0.005425356,-0.06851478,-1.363499,3.115113,0.0330429,0.0773187,0.01603022,0.004098738,-0.279127,2.451113,-2.812497
90,0.6777782,715,234,467,496,0.0990209,-0.00467518,-0.06916875,-1.364212,3.114423,0.03256726,0.07701851,0.01923189,0.01914818,-0.2779797,2.451093,-2.813353
90,0.6888894,748,273,498,494,0.07755992,-0.00539837,-0.07103807,-1.364292,3.113563,0.0325172,0.07753336,0.02878941,0.00841042,-0.277788,2.45337,-2.816527
90,0.7000005,748,273,498,494,0.05930446,0.01345586,-0.07295534,-1.364467,3.112702,0.03312227,0.06899436,0.02610737,-0.01674405,-0.2787115,2.45484,-2.818352
90,0.7111117,748,273,498,494,0.04595181,0.03288973,-0.07698798,-1.36464,3.111704,0.0340368,0.06478165,0.01640148,-0.004385127,-0.278172,2.453647,-2.817847
90,0.7222228,748,273,498,494,0.03717047,0.02097566,-0.08568529,-1.364563,3.110528,0.03401602,0.0739935,0.01191676,0.01238776,-0.27792,2.451831,-2.817191
90,0.7333339,748,273,498,494,0.03827176,0.008017413,-0.08556106,-1.364931,3.109733,0.03365969,0.07189468,-0.0003092587,0.01108882,-0.2776393,2.449995,-2.816057
90,0.7444451,652,231,478,493,0.04617558,-0.0008968487,-0.08199774,-1.365497,3.108827,0.03339018,0.0765821,-0.004630119,0.006567395,-0.2774817,2.448718,-2.815669
90,0.7555562,652,231,478,493,0.05390132,0.005192317,-0.07795828,-1.366125,3.107934,0.03368792,0.08581062,-0.002278276,0.008145044,-0.2776814,2.447518,-2.815651
90,0.7666674,652,231,478,493,0.0609237,0.01477008,-0.07569878,-1.366907,3.106946,0.03406077,0.08337665,0.007216468,-0.005290773,-0.2782843,2.448951,-2.817769
90,0.7777785,652,231,478,493,0.06969038,0.02084661,-0.07147107,-1.367767,3.106005,0.03445651,0.06996745,0.0119723,0.002055939,-0.2781544,2.449178,-2.818505
90,0.7888896,652,231,478,493,0.08325229,0.01769147,-0.06892604,-1.368928,3.105112,0.0345428,0.06974739,0.01284696,0.01496953,-0.277855,2.448267,-2.818481
90,0.8000008,624,230,491,503,0.09853973,0.011034,-0.06443083,-1.370302,3.104232,0.03451244,0.07161018,0.007204384,0.03689875,-0.2774971,2.445216,-2.816229
90,0.8111119,624,230,491,503,0.1015399,0.00937745,-0.05411622,-1.371293,3.103715,0.03456251,0.07653833,0.006254107,0.03019666,-0.2778774,2.44447,-2.816173
90,0.8222231,624,230,491,503,0.09014899,0.01097662,-0.04762907,-1.371925,3.103192,0.03474893,0.0753976,0.007958718,0.01272087,-0.2783488,2.444515,-2.816951
90,0.8333342,624,230,491,503,0.07904672,0.01032062,-0.04700695,-1.372496,3.102535,0.03480592,0.06897134,0.005909085,0.000822573,-0.2791983,2.44408,-2.81682
90,0.8444453,562,212,525,501,0.0571377,0.0201132,-0.04700042,-1.372415,3.101938,0.03532683,0.05956525,0.003586523,0.0002986975,-0.2793688,2.443748,-2.816832
90,0.8555565,562,212,525,501,0.03461461,0.01906263,-0.05346671,-1.372213,3.101205,0.03546798,0.06341495,-0.0001934394,0.006396205,-0.2797608,2.442227,-2.815928
90,0.8666676,562,212,525,501,0.02560608,0.01303274,-0.05214163,-1.372374,3.100822,0.03548023,0.05918631,-0.003170557,0.01755873,-0.2794519,2.440603,-2.814918
90,0.8777788,562,212,525,501,0.02098028,0.008622803,-0.04620809,-1.372414,3.100451,0.03545307,0.05211648,0.000729043,-0.01720491,-0.2809592,2.441705,-2.816145
90,0.8888899,562,212,525,501,0.01678763,0.008224487,-0.05167835,-1.372487,3.099644,0.03544934,0.03842333,-0.004055545,-0.01416231,-0.281478,2.440906,-2.815375
90,0.900001,589,208,509,498,0.01388563,0.01483802,-0.0534273,-1.372439,3.098929,0.03584402,0.0382972,-0.005537704,-0.003358559,-0.2813848,2.439837,-2.814745
90,0.9111122,589,208,509,498,0.007015131,0.01321175,-0.05196555,-1.372358,3.098441,0.0359793,0.03499938,-0.0004396066,0.004634049,-0.2815808,2.439708,-2.815109
90,0.9222233,589,208,509,498,-0.0006168615,0.01351875,-0.04259422,-1.372129,3.098238,0.03614282,0.03145853,0.008450877,0.01903207,-0.2810082,2.439694,-2.815548
90,0.9333345,589,208,509,498,0.0003180746,0.006181452,-0.03698513,-1.372106,3.098,0.03601446,0.03589339,0.01662304,0.01537273,-0.2814109,2.439914,-2.816469
90,0.9444456,546,229,483,491,0.0005930383,0.004087886,-0.02397154,-1.372315,3.098115,0.03593723,0.04657474,0.009464696,-0.01074046,-0.2823856,2.440205,-2.817319
90,0.9555568,546,229,483,491,0.01096883,0.004152723,-0.02156783,-1.372829,3.097785,0.03594735,0.04651039,0.00613144,-0.009640407,-0.2829587,2.439405,-2.816931
90,0.9666679,546,229,483,491,0.01591887,0.004006028,-0.01934392,-1.373145,3.097595,0.03591219,0.04049263,0.006272707,-0.008535152,-0.2830903,2.439545,-2.817353
90,0.977779,546,229,483,491,0.01983852,0.00526325,-0.0126969,-1.373524,3.097473,0.03597505,0.03415961,-0.004151955,0.004500998,-0.2832522,2.43784,-2.815835
90,0.9888902,546,229,483,491,0.02187145,0.006322267,-0.01205503,-1.373882,3.097273,0.03607944,0.02721289,-0.002013948,0.006478386,-0.2833518,2.437669,-2.815748
90,1.000001,528,240,483,496,0.03263199,0.0008169557,-0.001683465,-1.374554,3.097442,0.03591646,0.01728073,0.01249139,-0.008437803,-0.2835755,2.439884,-2.817939
90,1.011112,528,240,483,496,0.03749252,0.002780121,0.0008565248,-1.375033,3.09746,0.03597451,0.01429402,0.01381208,-0.02090481,-0.2844245,2.44083,-2.818651
90,1.022224,528,240,483,496,0.04282394,-0.0003380543,0.001517364,-1.375647,3.097393,0.03586852,0.009739211,0.01241869,-0.03143804,-0.2849646,2.44198,-2.819653
90,1.033335,528,240,483,496,0.04966241,0.002319232,0.0001675105,-1.376324,3.097193,0.03592498,-0.001534004,0.001557073,-0.02901435,-0.2855111,2.441433,-2.818791
90,1.044446,517,229,475,497,0.05325919,-0.001323141,0.003652863,-1.377012,3.097213,0.03580886,-0.006248329,-0.00571264,-0.01244147,-0.2853002,2.44037,-2.817555
90,1.055557,517,229,475,497,0.05253208,-0.006217763,0.007047834,-1.377752,3.09729,0.03555107,-0.01473096,0.004649042,-2.993841E-05,-0.2849742,2.440742,-2.817677
90,1.066668,517,229,475,497,0.04505835,-0.005016117,0.01107946,-1.378112,3.097441,0.03550792,-0.01443707,0.009406956,0.001040609,-0.2848309,2.441543,-2.818385
90,1.077779,517,229,475,497,0.04183637,-0.01131303,0.01591197,-1.378546,3.097668,0.03516331,-0.01427458,0.0142872,-0.02394516,-0.2859915,2.444212,-2.820801
90,1.08889,517,229,475,497,0.0339398,-0.01292755,0.01718171,-1.379012,3.097959,0.03498115,-0.02086855,0.02601309,-0.03181027,-0.2862104,2.447255,-2.823469
90,1.100002,470,238,490,491,0.03114729,-0.01488464,0.01511285,-1.379311,3.098067,0.03475425,-0.0194697,0.02828112,-0.03813162,-0.2868464,2.449502,-2.825297
90,1.111113,470,238,490,491,0.02898927,-0.01031327,0.01979348,-1.379773,3.098284,0.03469566,-0.01491883,0.03020224,-0.03520626,-0.2873604,2.451363,-2.827183
90,1.122224,470,238,490,491,0.03049299,-0.00996434,0.01795959,-1.380157,3.098366,0.03458061,-0.01619151,0.03165498,-0.01162218,-0.2867425,2.452011,-2.827839
90,1.133335,470,238,490,491,0.03287506,-0.01083243,0.01721827,-1.380878,3.098608,0.0343372,-0.01193073,0.03023054,-0.00651048,-0.2868379,2.453023,-2.828732
90,1.144446,470,238,490,491,0.02541901,-0.009617097,0.02129158,-1.381005,3.098962,0.03425038,-0.01656583,0.03167608,-0.009555088,-0.28688,2.454657,-2.830122
90,1.155557,474,254,537,503,0.02602432,-0.01289575,0.0285966,-1.381397,3.099465,0.03384345,-0.01945649,0.0325317,-0.02748746,-0.2877492,2.457088,-2.832278
90,1.166668,474,254,537,503,0.03139354,-0.01351738,0.03406269,-1.381994,3.099909,0.03360057,-0.02063547,0.0307527,-0.02986624,-0.2879399,2.45878,-2.833702
90,1.17778,474,254,537,503,0.03136738,-0.01246872,0.03420417,-1.382385,3.100176,0.03338965,-0.01733182,0.02028987,-0.01938709,-0.2881562,2.458585,-2.83342
90,1.188891,474,254,537,503,0.03600696,-0.01209559,0.03303891,-1.383021,3.100461,0.03318565,-0.01468227,0.005635915,-0.01545483,-0.2882659,2.457899,-2.832571
90,1.200002,553,297,507,492,0.03818633,0.0002408698,0.03769661,-1.383688,3.100731,0.03345995,-0.01449943,-0.006408204,-0.009843799,-0.288406,2.455989,-2.830519
90,1.211113,553,297,507,492,0.03651807,0.02691193,0.03940756,-1.384224,3.100914,0.03440005,-0.01426133,-0.005394506,-0.02608254,-0.2890787,2.457051,-2.831282
90,1.222224,553,297,507,492,0.03544319,0.0279748,0.03931854,-1.384651,3.101293,0.03467649,-0.01485549,-0.01054653,-0.04349864,-0.2902654,2.457299,-2.831131
90,1.233335,553,297,507,492,0.03327716,0.007707618,0.03006086,-1.385051,3.101302,0.03416729,-0.01782136,-0.002598042,-0.04417219,-0.290585,2.458816,-2.832311
90,1.244446,553,297,507,492,0.028905,-0.006908126,0.02565629,-1.385279,3.101496,0.03368473,-0.01645769,-0.002780986,-0.03851048,-0.2909541,2.458771,-2.832139
90,1.255558,577,276,488,497,0.01303833,-0.009701038,0.01848584,-1.385033,3.101574,0.03355636,-0.01663416,0.001927452,-0.02234099,-0.2907767,2.458694,-2.831857
90,1.266669,577,276,488,497,0.00238442,-0.007024888,0.01220825,-1.384755,3.101582,0.0335521,-0.0150312,0.006981874,-0.0101788,-0.2904571,2.459179,-2.83232
90,1.27778,577,276,488,497,-0.004986488,-0.004985688,0.01095442,-1.384594,3.101842,0.03342374,-0.0149376,0.002575289,0.005066271,-0.2902009,2.458401,-2.831337
90,1.288891,577,276,488,497,-0.00287556,-0.003101879,0.006198577,-1.384667,3.101816,0.03338858,-0.007446663,0.008119019,-0.003359469,-0.2904044,2.459247,-2.832308
90,1.300002,543,247,531,494,-0.001221491,0.002011339,0.008471011,-1.384789,3.101818,0.03353932,-0.0153833,0.005623042,-0.02437038,-0.2914356,2.460645,-2.833203
90,1.311113,543,247,531,494,-0.005333698,0.006353966,0.007181734,-1.384664,3.101937,0.03367727,-0.01931386,0.01700113,-0.02092483,-0.2912689,2.462616,-2.834831
90,1.322224,543,247,531,494,-0.002893013,0.008802636,0.005897772,-1.38472,3.102,0.03377421,-0.0168132,0.01623729,-0.01394692,-0.2912785,2.46285,-2.835058
90,1.333336,543,247,531,494,0.0005042637,0.007937917,0.005391733,-1.384966,3.102069,0.03378593,-0.009766412,-0.002790584,0.0136454,-0.290936,2.459369,-2.831761
90,1.344447,543,247,531,494,0.0001028022,0.00655638,0.007289838,-1.384977,3.102199,0.03381522,-0.004308141,-0.000977885,0.02440458,-0.2904412,2.45863,-2.831264
90,1.355558,517,253,506,497,0.009148449,0.006054108,0.005847058,-1.385419,3.102197,0.03375663,0.003156487,0.001724822,0.009498544,-0.2910728,2.458954,-2.831861
90,1.366669,517,253,506,497,0.02126904,0.006632239,0.005223213,-1.385978,3.10212,0.03384824,0.01619554,-0.001801737,-0.009676176,-0.2919421,2.45893,-2.832149
90,1.37778,517,253,506,497,0.03204498,0.009135989,0.005703245,-1.386636,3.102049,0.03395317,0.01169005,-0.004728887,-0.01048752,-0.2920603,2.458063,-2.831259
90,1.388891,517,253,506,497,0.03228515,0.01115412,-0.0005511735,-1.386971,3.101758,0.03411669,0.001542068,-0.00384773,0.004932672,-0.2915629,2.457676,-2.830702
90,1.400002,517,253,506,497,0.03023469,0.004655264,-0.0009265058,-1.387239,3.101691,0.03395424,0.007830456,0.002674586,0.01361143,-0.2913136,2.457268,-2.830558
90,1.411114,641,242,478,499,0.02371147,7.346692E-05,-0.0008407398,-1.387314,3.101693,0.03382321,0.01276844,0.007497848,0.007966604,-0.2916406,2.457845,-2.831423
90,1.422225,641,242,478,499,0.01108461,-0.005857409,-0.007780216,-1.387159,3.101465,0.03352441,0.01335933,0.007457322,0.004828473,-0.2916779,2.458043,-2.8318
90,1.433336,641,242,478,499,0.009137561,-0.007169117,-0.01390867,-1.387191,3.101229,0.03348818,0.01500748,0.0005709939,0.01064068,-0.2915325,2.456902,-2.830893
90,1.444447,641,242,478,499,0.01089099,-0.005870985,-0.02214677,-1.387275,3.100764,0.03344291,0.007709973,0.007445164,0.01675882,-0.2912385,2.456954,-2.831103
90,1.455558,630,259,462,497,0.01006921,-0.005714318,-0.02339305,-1.38738,3.100552,0.03345037,0.002515102,0.01128469,0.01789863,-0.2909823,2.457765,-2.831958
90,1.466669,630,259,462,497,0.01079062,-0.009188857,-0.02158614,-1.387498,3.100389,0.03323732,0.006804283,0.01182271,0.01869839,-0.2907767,2.457778,-2.83223
90,1.47778,630,259,462,497,0.009433048,-0.01267211,-0.0202179,-1.387566,3.100288,0.0330999,0.007103722,0.0175312,0.01760017,-0.2906286,2.457663,-2.832538
90,1.488891,630,259,462,497,0.005377206,-0.01771394,-0.01637478,-1.387503,3.100272,0.03272386,0.01085295,0.007147842,0.01300828,-0.2908582,2.456847,-2.831856
90,1.500003,630,259,462,497,0.002252671,-0.01772715,-0.01704363,-1.387381,3.100109,0.03262106,0.01152935,0.0123928,0.004402896,-0.2909722,2.4578,-2.832967
90,1.511114,560,287,476,488,-5.250704E-05,-0.01789641,-0.0164585,-1.387249,3.100013,0.03249216,0.012237,0.0186061,-0.006370672,-0.2911772,2.459341,-2.834676
90,1.522225,560,287,476,488,0.004682226,-0.01527084,-0.01834328,-1.387392,3.099739,0.03239523,0.01325094,0.00564541,-0.01577299,-0.2917317,2.45874,-2.834057
90,1.533336,560,287,476,488,0.008217033,-0.00845281,-0.01981158,-1.387642,3.099488,0.03244795,0.009875556,0.004449117,-0.001219712,-0.2913733,2.45844,-2.833844
90,1.544447,560,287,476,488,0.01230551,-0.002756969,-0.01363703,-1.387884,3.099431,0.0325156,0.01282763,0.008430471,0.005793627,-0.2911474,2.458514,-2.834225
90,1.555558,574,257,521,501,0.01535344,0.002931414,-0.007687373,-1.388104,3.099433,0.03263597,0.01427726,0.01450836,0.003818745,-0.2912326,2.4589,-2.834781
90,1.566669,574,257,521,501,0.02514754,0.01336451,-0.002885982,-1.388642,3.099338,0.03306474,0.01046574,0.0182596,-0.002365378,-0.2913274,2.460119,-2.836034
90,1.577781,574,257,521,501,0.0329533,-0.00384173,-0.008366407,-1.389072,3.099103,0.03262266,0.005297193,0.01390481,0.009709921,-0.2910004,2.460145,-2.83595
90,1.588892,574,257,521,501,0.03883707,-0.01165579,-0.005083437,-1.389651,3.099085,0.03224662,0.01263641,0.0001501134,0.03076311,-0.2904603,2.457556,-2.833865
90,1.600003,574,257,521,501,0.04167269,-0.01154544,0.002105383,-1.390238,3.099185,0.03209376,0.01543285,0.004654281,0.03122987,-0.2901503,2.457271,-2.833982
90,1.611114,512,244,507,503,0.03458885,-0.01144122,-0.000466954,-1.390386,3.09903,0.03196113,0.006782731,0.0089571,0.01219967,-0.2905482,2.459027,-2.835456
90,1.622225,512,244,507,503,0.01983105,-0.007333717,-0.002895186,-1.390223,3.098958,0.03199575,-0.003202757,0.001862483,-0.0004428037,-0.2909195,2.459331,-2.835291
90,1.633336,512,244,507,503,0.008850954,-0.002723102,-0.007764626,-1.39007,3.098781,0.03204529,-0.002680709,-0.002493998,-0.0003037568,-0.2910665,2.459125,-2.835096
90,1.644447,512,244,507,503,-0.0162383,0.001060582,-0.01793022,-1.389322,3.098424,0.0321369,-0.008691261,-0.001428549,-0.001454909,-0.2910324,2.459463,-2.83515
90,1.655559,486,224,498,492,-0.02101041,-0.0005052174,-0.01587643,-1.388973,3.098414,0.0320586,-0.005141017,0.003931506,0.005649124,-0.2908364,2.459801,-2.835543
90,1.66667,486,224,498,492,-0.01958707,-0.006404405,-0.01210097,-1.388835,3.098459,0.03175234,0.004479595,0.009704887,0.004140228,-0.2909386,2.460173,-2.836219
90,1.677781,486,224,498,492,-0.006762219,-0.006547514,-0.0006218039,-1.389111,3.098692,0.03166445,0.005282621,0.01106784,0.003192456,-0.2909019,2.46061,-2.836771
90,1.688892,486,224,498,492,0.01070164,-0.005529421,0.004289364,-1.389592,3.098757,0.03161811,0.005772162,0.01491653,-0.007605649,-0.2911815,2.46208,-2.838213
90,1.700003,486,224,498,492,0.02655944,-0.005254081,0.006522773,-1.390256,3.098768,0.03155739,-0.000679011,0.009376905,-0.01744413,-0.2916055,2.462714,-2.838561
90,1.711114,518,228,514,500,0.03236467,0.0009423639,0.009788998,-1.390754,3.098891,0.03162025,0.004277061,0.005017876,-0.009936912,-0.2915927,2.461902,-2.837946
90,1.722225,518,228,514,500,0.0384152,0.0008291467,0.01210139,-1.391373,3.098989,0.03163622,0.0003347481,0.005796896,0.003400824,-0.2912151,2.461717,-2.837781
90,1.733337,518,228,514,500,0.04225072,-0.001570801,0.01469012,-1.391921,3.099147,0.03144448,-0.0006916802,0.01593385,0.006329286,-0.2910073,2.46327,-2.83942
90,1.744448,518,228,514,500,0.04513032,-0.006083079,0.01674556,-1.39254,3.099334,0.03119201,0.0006048903,0.01196961,0.007709976,-0.290879,2.463128,-2.839333
90,1.755559,518,228,514,500,0.04622502,-0.007126625,0.01677104,-1.393096,3.099324,0.03107696,-0.0009557167,0.01117968,0.005246999,-0.2909477,2.46368,-2.839792
90,1.76667,520,220,502,499,0.05088557,-0.002402878,0.01512331,-1.393823,3.099347,0.03118562,-0.005085672,0.003999184,-0.007385884,-0.2913695,2.463902,-2.839714
90,1.777781,520,220,502,499,0.04901056,-0.001473019,0.008272453,-1.39417,3.099131,0.03128096,-0.0003850311,-0.0001913463,-0.0237875,-0.291997,2.464269,-2.839908
90,1.788892,520,220,502,499,0.04296115,-0.001361036,0.00594611,-1.394497,3.099127,0.03126125,0.002378275,0.001940347,-0.02437059,-0.2922361,2.464857,-2.840521
90,1.800003,520,220,502,499,0.02387041,-0.005753765,0.009079171,-1.394342,3.099231,0.03105778,-0.001724179,0.01570824,-0.01882087,-0.2920683,2.46684,-2.842471
90,1.811115,459,222,491,492,0.01455387,-0.007931815,0.006847746,-1.394278,3.099246,0.03086977,-0.004487127,0.006792785,-0.00405764,-0.2918009,2.466221,-2.841746
90,1.822226,459,222,491,492,0.006569676,-0.0120485,0.003493088,-1.39413,3.09924,0.03062316,-0.005563097,0.017823,0.009705598,-0.2911522,2.467314,-2.842986
90,1.833337,459,222,491,492,-0.0001196675,-0.01704878,-0.0008456039,-1.393991,3.099064,0.03032914,-0.002029682,0.01751607,0.003879438,-0.2912427,2.467905,-2.843664
90,1.844448,459,222,491,492,0.002697041,-0.02435476,-0.009101821,-1.394085,3.09881,0.02986043,0.002759016,0.01369158,0.004842625,-0.2913168,2.468184,-2.844021
90,1.855559,459,222,491,492,0.00699647,-0.02206085,-0.008980939,-1.394192,3.098721,0.02965217,0.00448165,0.01067057,0.001956962,-0.2913818,2.468297,-2.844243
90,1.86667,399,209,514,499,0.01092217,-0.02113741,-0.006950129,-1.394418,3.098707,0.02944231,0.003272838,0.007917793,0.001757176,-0.2913727,2.46834,-2.84429
90,1.877781,399,209,514,499,0.01271298,-0.02460208,-0.004937212,-1.394693,3.09872,0.02905509,-0.003237315,0.01618014,0.006912563,-0.2909647,2.469581,-2.845458
90,1.888893,399,209,514,499,0.01565759,-0.02010606,0.001839455,-1.394947,3.09891,0.02892353,-0.002259081,0.01514518,0.003842827,-0.2911847,2.470082,-2.845995
90,1.900004,399,209,514,499,0.0141893,-0.01964294,-0.001686419,-1.395056,3.098809,0.02870142,-0.002192371,0.01708449,-0.0005080695,-0.2912252,2.471022,-2.846938
90,1.911115,414,202,511,497,0.01255006,-0.02039541,-0.004341361,-1.395091,3.098654,0.02837279,-0.003343603,0.0190988,0.001418124,-0.2910265,2.471863,-2.847676
90,1.922226,414,202,511,497,0.01408173,-0.01596024,-0.01214051,-1.395212,3.098295,0.02833018,-0.009774035,0.02065181,0.007751404,-0.2905764,2.472555,-2.848215
90,1.933337,414,202,511,497,0.01424473,-0.01474815,-0.01302216,-1.395347,3.098164,0.02814961,-0.01043301,0.01733504,0.01199882,-0.2904188,2.472521,-2.848253
90,1.944448,414,202,511,497,0.01903546,-0.02045604,-0.009667497,-1.395657,3.098124,0.02775813,-0.002993522,0.02322068,0.02205395,-0.2898585,2.472846,-2.848969
90,1.955559,414,202,511,497,0.02640207,-0.02225384,-0.002999518,-1.396172,3.0984,0.02741138,0.003924625,0.02499523,0.01251265,-0.2901594,2.473935,-2.850488
90,1.966671,357,212,481,495,0.03350991,-0.02236532,-0.000534581,-1.396743,3.098405,0.02715039,0.005144762,0.02491821,0.006244079,-0.2902196,2.474694,-2.85137
90,1.977782,357,212,481,495,0.04186209,-0.02204542,0.006627632,-1.397395,3.098724,0.02687822,0.00585692,0.01913885,0.002105902,-0.2903613,2.475096,-2.851916
90,1.988893,357,212,481,495,0.0491027,-0.02015973,0.002818914,-1.39803,3.098594,0.0266902,0.008612252,0.01117864,0.003822983,-0.2903043,2.474066,-2.851004
90,2.000004,357,212,481,495,0.05304209,-0.01951142,-0.0007390985,-1.398712,3.098411,0.02650271,-0.002239842,0.01557648,0.009258261,-0.2899266,2.474934,-2.851688
90,2.011115,366,202,506,503,0.05004045,5.439948E-05,-0.002712715,-1.399152,3.098264,0.02708062,-0.006909646,0.008810747,0.01710337,-0.2896081,2.47514,-2.851685
90,2.022226,366,202,506,503,0.03639193,0.0196705,-0.0001876187,-1.399207,3.098204,0.02784175,-0.008519102,0.008909627,0.02547352,-0.2890744,2.474996,-2.851542
90,2.033337,366,202,506,503,0.03008395,0.008495802,-0.006401558,-1.399369,3.097988,0.02757544,-0.005843935,0.008105946,0.03142345,-0.2887208,2.474478,-2.851177
90,2.044448,366,202,506,503,0.03667948,-0.0179912,-0.0003982708,-1.399977,3.098161,0.02659965,0.001546985,0.007354939,0.0306906,-0.2884805,2.474096,-2.851109
90,2.055559,366,202,506,503,0.04501192,-0.02202994,0.007134608,-1.400767,3.098437,0.02617248,0.008872686,-0.001406542,0.01592643,-0.2889748,2.473393,-2.850614
90,2.06667,399,202,516,494,0.05594192,-0.01185775,0.006344867,-1.40168,3.098306,0.02632908,0.001135978,0.007585029,0.007816166,-0.288954,2.474573,-2.851666
90,2.077781,399,202,516,494,0.06887234,-0.004989702,0.006498687,-1.402723,3.098218,0.0264894,0.0009298194,0.006191043,0.005619933,-0.2889445,2.474914,-2.852011
90,2.088892,399,202,516,494,0.07856828,0.003654955,0.0007862793,-1.403833,3.097842,0.02676424,-0.006111261,0.003563341,0.00536388,-0.2889839,2.47517,-2.852203
90,2.100003,399,202,516,494,0.07978074,0.01675188,-0.0003927927,-1.404673,3.097551,0.02733256,-0.009075582,0.004281507,0.01346437,-0.2885695,2.475167,-2.852138
90,2.111114,399,202,516,494,0.0794534,0.02080993,0.001160336,-1.405601,3.097363,0.02777411,0.0005995217,0.0009149623,0.0121153,-0.2886606,2.475009,-2.852369
90,2.122225,431,239,513,499,0.08501165,0.01271342,0.00640228,-1.406722,3.097383,0.02771712,0.007500214,-0.004572985,0.01134392,-0.2886883,2.474075,-2.851658
90,2.133336,431,239,513,499,0.09289628,0.01424984,0.004705704,-1.407966,3.097224,0.02797651,0.01306587,-0.003597652,-0.001693994,-0.289116,2.474123,-2.851762
90,2.144447,431,239,513,499,0.0896931,0.01632563,0.004328272,-1.408845,3.097101,0.02821193,0.01158905,0.001032823,-0.02156102,-0.2898372,2.475464,-2.853045
90,2.155558,431,239,513,499,0.07933549,0.02095629,0.00739847,-1.40947,3.097135,0.02867426,0.003488823,-0.003923211,-0.01765802,-0.2899314,2.475327,-2.852763
90,2.166669,430,233,531,498,0.07572787,0.02134996,0.00344919,-1.410198,3.096897,0.02893152,0.004889565,-0.009849073,-0.0129749,-0.2900427,2.474381,-2.851839
90,2.17778,430,233,531,498,0.06601573,0.02430503,0.003126233,-1.410678,3.096745,0.02932833,0.002055999,-0.01595359,0.008244522,-0.2895431,2.472916,-2.850362
90,2.188891,430,233,531,498,0.05621233,0.02796561,-0.002568311,-1.411008,3.096427,0.02983326,-0.003293404,-0.01110592,0.008224586,-0.2896087,2.473135,-2.850472
90,2.200002,430,233,531,498,0.03885671,0.03248323,-0.008433023,-1.410977,3.096126,0.03030784,-0.003591148,-0.02247611,-0.003635016,-0.2900417,2.471878,-2.848977
90,2.211113,430,233,531,498,0.03175448,0.03150724,-0.01098227,-1.411192,3.095953,0.03060824,-0.002313467,-0.02298791,-0.0153315,-0.2907171,2.472082,-2.849031
90,2.222224,429,216,530,501,0.01818017,0.03035402,-0.01364906,-1.411003,3.095705,0.03094593,-0.002895977,-0.02719399,-0.02190498,-0.2911762,2.471411,-2.848146
90,2.233335,429,216,530,501,0.01154931,0.02897254,-0.01288322,-1.410991,3.095628,0.03125699,-0.001141911,-0.02500365,-0.01724328,-0.2912257,2.470809,-2.84761
90,2.244446,429,216,530,501,-0.002806325,0.03231766,-0.01729621,-1.410483,3.095327,0.03173956,0.00402284,-0.01975425,-0.01847528,-0.2915213,2.470889,-2.847778
90,2.255557,429,216,530,501,-0.01828877,0.03376951,-0.01564327,-1.409942,3.095236,0.03216672,0.01366886,-0.01257596,-0.01668129,-0.2917402,2.470482,-2.847805
90,2.266668,469,187,509,500,-0.01877303,0.0301797,-0.01294019,-1.409714,3.095234,0.03238617,0.02070217,-0.01370346,-0.02072226,-0.2922223,2.46997,-2.847574
90,2.277779,469,187,509,500,-0.01588864,0.03217131,-0.01105305,-1.409604,3.095138,0.03280855,0.01575794,-0.01754961,-0.01729573,-0.2923767,2.468795,-2.846431
90,2.28889,469,187,509,500,0.0006232597,0.03320305,-0.006715851,-1.409986,3.095159,0.0331979,0.01111404,-0.02291462,-0.006200643,-0.2923118,2.467398,-2.845065
90,2.300001,469,187,509,500,0.00860633,0.03298239,-0.003069819,-1.410309,3.095147,0.03353932,0.008057168,-0.02793457,0.001945461,-0.2922079,2.465954,-2.843543
90,2.311112,469,187,509,500,0.02090376,0.03504415,0.0005960551,-1.410818,3.095172,0.03397501,0.009593757,-0.02812029,0.006582146,-0.2922345,2.464023,-2.841735
90,2.322223,524,181,542,496,0.02260791,0.03478459,0.003046941,-1.411147,3.095185,0.03435158,0.01210016,-0.02111706,-0.002781527,-0.2925647,2.463991,-2.841823
90,2.333334,524,181,542,496,0.0209076,0.03000655,0.006461973,-1.411305,3.095309,0.03455292,0.02056883,-0.007481392,-0.01431748,-0.2930415,2.465207,-2.843638
90,2.344445,524,181,542,496,0.02326599,0.02156964,0.005788005,-1.411625,3.09529,0.03454866,0.02399866,-0.002028162,-0.01913459,-0.2934345,2.465597,-2.844294
90,2.355556,524,181,542,496,0.02752545,0.01948702,0.006293852,-1.412101,3.095209,0.03472389,0.02576143,0.001138989,-0.01665627,-0.2936002,2.465774,-2.8446
90,2.366668,506,189,503,497,0.03589941,0.01809826,0.002198174,-1.412709,3.094986,0.03489753,0.0203663,-0.007458536,-0.01326467,-0.29376,2.464682,-2.843502
90,2.377779,506,189,503,497,0.0392731,0.01719978,0.001597979,-1.413247,3.094873,0.03512923,0.01154611,-0.01047082,-0.009517285,-0.2937925,2.464238,-2.842938
90,2.38889,506,189,503,497,0.04218547,0.01166604,0.003589195,-1.413772,3.094887,0.03506105,0.009606508,-0.006012267,-0.002349161,-0.293605,2.464706,-2.84373
90,2.400001,506,189,503,497,0.0345652,0.008175798,0.003891996,-1.413995,3.094879,0.03507596,0.01008332,-0.009313788,-0.01632512,-0.2942393,2.464735,-2.843708
90,2.411112,506,189,503,497,0.03142696,0.001683774,0.003554177,-1.414338,3.094858,0.03502057,0.009306625,-0.008292259,-0.01432001,-0.2944332,2.464656,-2.843698
90,2.422223,508,190,481,493,0.02239141,0.001880124,-0.0002901526,-1.414343,3.094745,0.03505146,0.007534622,-0.006242962,-0.009263439,-0.2944077,2.464521,-2.843602
90,2.433334,508,190,481,493,0.01650103,0.002088372,-0.003551649,-1.414434,3.094585,0.03493535,0.006077453,0.002505138,-0.007480288,-0.29434,2.465547,-2.844832
90,2.444445,508,190,481,493,0.003448018,-0.001566228,-0.003176006,-1.414104,3.094572,0.03485492,0.004636862,0.004607885,-0.01646958,-0.2947107,2.466169,-2.845383
90,2.455556,508,190,481,493,-0.0001226056,-0.002260655,-0.007211855,-1.41406,3.094367,0.03471697,0.01027598,0.003136456,-0.01860936,-0.2951176,2.466435,-2.845666
90,2.466667,508,190,481,493,0.003211969,-0.002106065,-0.007663619,-1.414197,3.094239,0.0346962,0.007424483,0.001897287,-0.00721316,-0.2949004,2.466182,-2.845494
90,2.477778,457,198,490,498,0.008344151,-0.005369897,-0.006036155,-1.41435,3.094185,0.03458434,0.005648819,0.003943107,-0.002160328,-0.2948183,2.466228,-2.845588
90,2.488889,457,198,490,498,0.01084698,-0.00363497,-0.002083402,-1.414598,3.094079,0.03455292,0.001403049,0.008154804,-0.0008811927,-0.2948865,2.466911,-2.84613
90,2.5,457,198,490,498,0.008878671,-0.007877468,-0.002993464,-1.414653,3.094031,0.03434785,0.009373894,0.002662903,-0.006850088,-0.2952253,2.466625,-2.846058
90,2.511111,457,198,490,498,0.01395682,-0.009031605,-0.00112358,-1.41499,3.09387,0.03420351,0.01432049,0.006529477,-0.01026032,-0.2954122,2.46698,-2.846695
90,2.522222,399,194,502,492,0.02172812,-0.008312197,0.003673117,-1.415446,3.093979,0.03412681,0.01162645,0.02116117,-0.01421486,-0.2955145,2.468503,-2.848282
90,2.533333,399,194,502,492,0.03245794,-0.01022189,0.004294276,-1.416046,3.093905,0.03396276,0.00632281,0.02067107,-0.009817168,-0.2953041,2.469804,-2.849549
90,2.544444,399,194,502,492,0.03458919,-0.004790807,0.004271698,-1.416506,3.093876,0.0340581,0.008410133,0.0156986,-0.01043126,-0.2954553,2.470095,-2.849972
90,2.555555,399,194,502,492,0.04094868,-0.006866394,0.00513356,-1.41722,3.093754,0.03385357,0.006611296,0.0153569,-0.006433069,-0.2953446,2.470186,-2.850143
90,2.566666,399,194,502,492,0.03374946,-0.008623014,0.00904116,-1.41748,3.093962,0.03366449,0.003352812,0.02375969,-0.0006580753,-0.2950511,2.471682,-2.851723
90,2.577777,338,185,494,502,0.03308083,-0.008372588,0.00675109,-1.417797,3.093867,0.03354944,0.007638944,0.02394583,-0.0171815,-0.2955997,2.472983,-2.853034
90,2.588888,338,185,494,502,0.02574765,-0.008426851,0.005407661,-1.417916,3.093891,0.03342747,0.006633081,0.03125337,-0.02071244,-0.2956359,2.475172,-2.855301
90,2.599999,338,185,494,502,0.02017795,-0.01336688,0.000499825,-1.417985,3.093785,0.03317234,0.006902028,0.02487723,-0.003202467,-0.2952551,2.474907,-2.855219
90,2.61111,338,185,494,502,0.01775887,-0.01181251,-0.004116641,-1.418169,3.093521,0.03306634,0.003759377,0.02407734,0.01464849,-0.2945893,2.474542,-2.855036
90,2.622221,353,167,488,496,0.01738216,-0.01207341,-0.002040865,-1.41835,3.093525,0.032922,0.004265086,0.0173345,0.01374037,-0.2944678,2.474394,-2.85498
90,2.633332,353,167,488,496,0.01624062,-0.01538229,-0.001578679,-1.418565,3.093541,0.03266154,0.00467441,0.01350861,0.007349773,-0.2946447,2.474469,-2.854992
90,2.644443,353,167,488,496,0.01362037,-0.02042844,-0.004874337,-1.41863,3.093437,0.03229882,0.009994956,0.01885329,-0.00685304,-0.295042,2.476053,-2.85679
90,2.655554,353,167,488,496,0.00788801,-0.0200777,-0.009138551,-1.418501,3.093266,0.03207564,0.01246279,0.02153717,-0.01290175,-0.2953243,2.476956,-2.857961
90,2.666665,353,167,488,496,0.009739723,-0.02166164,-0.01337392,-1.418652,3.093046,0.03176299,0.01100285,0.02162258,-0.005588875,-0.2951469,2.477689,-2.858837
90,2.677776,424,176,504,501,0.008349121,-0.02298439,-0.01162053,-1.418746,3.092922,0.03151265,0.008494507,0.02175444,0.006944637,-0.2946974,2.477608,-2.858897
90,2.688887,424,176,504,501,0.01210997,-0.02110857,-0.008532491,-1.419071,3.092955,0.03125379,0.008132239,0.01516622,-0.001745983,-0.2949739,2.478172,-2.859485
90,2.699998,424,176,504,501,0.01275353,-0.02030385,-0.006142102,-1.419178,3.092916,0.03106897,0.0103926,0.01158197,-0.0001614722,-0.2949568,2.477963,-2.859439
90,2.711109,424,176,504,501,0.008589011,-0.02138791,-0.007024991,-1.419158,3.092856,0.03080532,0.0115647,0.015744,0.003291419,-0.2947768,2.47863,-2.860249
90,2.72222,424,176,504,501,0.006364021,-0.02074841,-0.01279639,-1.419116,3.092581,0.0305912,0.01240536,0.01569674,-0.0008810274,-0.2949019,2.479213,-2.860987
90,2.733331,405,191,469,493,0.007713651,-0.01836258,-0.01443546,-1.419152,3.092435,0.03042129,0.006230306,0.009080872,0.00230155,-0.2947219,2.478591,-2.86029
90,2.744442,405,191,469,493,0.007923553,-0.01928485,-0.01561082,-1.419217,3.092249,0.03017894,0.002786523,0.0098102,0.01246462,-0.2943358,2.478757,-2.860505
90,2.755553,405,191,469,493,0.01094949,-0.01503669,-0.01453171,-1.419463,3.092163,0.03016136,0.004651731,0.008628191,0.01720424,-0.2939736,2.478325,-2.860295
90,2.766664,405,191,469,493,0.01240593,-0.01225102,-0.01065023,-1.419681,3.092166,0.0300591,-0.0007807761,0.002519226,0.009663597,-0.2940854,2.478123,-2.859859
90,2.777775,403,203,491,501,0.01857441,-0.007987505,-0.009021327,-1.419988,3.092132,0.03002608,-0.0005182344,0.003483054,0.006439609,-0.2941877,2.478597,-2.860446
90,2.788886,403,203,491,501,0.01922906,-0.007192381,-0.006628025,-1.420284,3.092157,0.02990091,0.003992209,0.008871035,-0.003578154,-0.2944226,2.479508,-2.861544
90,2.799997,403,203,491,501,0.02626652,-0.009518228,-0.00351608,-1.420795,3.09218,0.02980344,0.008093936,0.004213207,-0.009215319,-0.2946782,2.479353,-2.861545
90,2.811108,403,203,491,501,0.03604193,-0.008137449,-0.00383849,-1.421435,3.091931,0.02982794,0.007042792,0.004265052,-0.003986571,-0.2944956,2.479,-2.861298
90,2.822219,403,203,491,501,0.0434228,-0.002681163,-0.002980071,-1.422129,3.091865,0.0299286,0.01171806,-0.003880509,0.0003037003,-0.2945296,2.477844,-2.860347
90,2.83333,387,213,514,498,0.0443868,0.0004915241,-0.002441814,-1.422687,3.091731,0.03001649,0.005488453,-0.01135362,-0.006304083,-0.2949014,2.477526,-2.859834
90,2.844441,387,213,514,498,0.0377076,0.007717592,-0.00161816,-1.422943,3.09168,0.03025884,-0.002488724,-0.009637373,-0.004669119,-0.294837,2.477839,-2.8599
90,2.855552,387,213,514,498,0.03089704,0.00623661,0.0002952907,-1.4231,3.091836,0.0303398,-0.001824195,-0.007390887,0.005223613,-0.2945073,2.477132,-2.859321
90,2.866663,387,213,514,498,0.02037326,0.007221543,-0.001399628,-1.423066,3.091753,0.0304378,-0.004595682,-0.005718006,0.01007816,-0.2942814,2.477297,-2.85941
90,2.877774,443,202,487,499,0.01060522,0.007666633,-0.007390628,-1.422988,3.09149,0.03063807,-0.002862955,-0.007332484,0.01044827,-0.2941946,2.476249,-2.858455
90,2.888885,443,202,487,499,0.007253439,0.008577965,-0.006772784,-1.423067,3.09141,0.0308165,0.006313324,-0.003813475,-0.001876661,-0.294609,2.476507,-2.858932
90,2.899997,443,202,487,499,0.001082206,0.01077709,-0.008662793,-1.422908,3.091265,0.03100026,0.006645096,-0.003296174,-0.01050726,-0.2949259,2.476781,-2.8592
90,2.911108,443,202,487,499,0.0009937016,0.01394505,-0.008294591,-1.422876,3.091134,0.03119254,0.005935932,-0.002722422,-0.01391291,-0.2951406,2.476671,-2.859178
90,2.922219,443,202,487,499,0.005545227,0.0124128,-0.003338311,-1.423107,3.091202,0.03126977,0.005758552,-0.004123029,-0.0161055,-0.2954,2.476641,-2.859129
90,2.93333,422,190,494,490,0.005451255,0.01377968,0.003339818,-1.423192,3.091354,0.03153023,0.001857261,-0.008139219,-0.005982904,-0.2953073,2.475729,-2.858175
90,2.944441,422,190,494,490,0.01475786,0.01913299,0.005593834,-1.423661,3.091406,0.03181093,0.001510885,-0.01103055,0.001584458,-0.2951789,2.47518,-2.857627
90,2.955552,422,190,494,490,0.01752644,0.02176784,0.002026272,-1.42393,3.091262,0.03214808,0.0003605038,-0.01520032,-0.001869878,-0.2955651,2.474452,-2.856946
90,2.966663,422,190,494,490,0.02130844,0.02366226,0.005070658,-1.424315,3.09133,0.03242292,-0.003523662,-0.01435088,-0.00157268,-0.2955432,2.474359,-2.856695
90,2.977774,450,239,512,497,0.0197441,0.02222551,0.00788757,-1.424479,3.091473,0.03261413,-0.008463421,-0.01334832,-0.008006592,-0.2956977,2.4747,-2.856878
90,2.988885,450,239,512,497,0.01815802,0.02184644,0.01082584,-1.424743,3.09169,0.03281121,-0.005971284,-0.01455538,-0.006404274,-0.2957781,2.474113,-2.856236
90,2.999996,450,239,512,497,0.02133517,0.0208065,0.01124497,-1.425052,3.091827,0.03289377,0.007295319,-0.01056184,-0.004876258,-0.2959645,2.47303,-2.855646
90,3.011107,450,239,512,497,0.02179063,0.02256606,0.01478215,-1.425369,3.092001,0.03317393,0.003919628,-0.01019227,-0.01207366,-0.2962783,2.472818,-2.855428
90,3.022218,450,239,512,497,0.02179397,0.02257152,0.01477117,-1.425649,3.092122,0.03340563,0.002571647,-0.009584686,-0.01235098,-0.2964253,2.472723,-2.855264
90,3.033329,522,211,487,497,0.0215943,0.02351888,0.01591365,-1.42605,3.092232,0.0337268,-0.001842729,-0.00439882,-0.01220962,-0.2965217,2.472745,-2.855119
90,3.04444,522,211,487,497,0.01844511,0.02350122,0.01535854,-1.426179,3.092324,0.03396276,-0.002427431,-0.003392998,-0.01125284,-0.2966042,2.47292,-2.855228
90,3.055551,522,211,487,497,0.0082644,0.0164703,0.01822295,-1.426035,3.092589,0.03386262,0.0003146585,-0.008492432,-0.003034836,-0.2965068,2.471729,-2.854169
90,3.066662,522,211,487,497,0.001296455,0.01382271,0.02106197,-1.425909,3.092904,0.03392441,-0.001299832,-0.01122171,-0.001155458,-0.2965398,2.471377,-2.853728
90,3.077773,425,209,516,504,-0.01257086,0.009965367,0.01385823,-1.425398,3.092972,0.03396702,-0.005894913,-0.007430975,-0.003210321,-0.296616,2.471819,-2.853967
90,3.088884,425,209,516,504,-0.01472839,0.01206511,0.01372516,-1.425248,3.093146,0.03412628,-0.01268151,-0.002975961,-0.001365249,-0.2964604,2.472628,-2.854471
90,3.099995,425,209,516,504,-0.02148344,0.01026635,0.009066732,-1.424783,3.093223,0.03430844,-0.01384491,-0.00716039,-0.004812164,-0.2967102,2.47211,-2.853711
90,3.111106,425,209,516,504,-0.03405096,0.009118935,0.006713799,-1.424125,3.093386,0.03448847,-0.01703256,-0.01032307,0.01198412,-0.2961451,2.471138,-2.852473
90,3.122217,425,209,516,504,-0.03745421,0.004610842,0.007751048,-1.423641,3.093579,0.03441177,-0.00331765,-0.01154932,0.00386931,-0.2964348,2.470514,-2.852091
90,3.133328,403,237,483,493,-0.03320341,0.002522317,0.008247898,-1.423408,3.093714,0.03440005,0.002786583,-0.009609288,-0.0134069,-0.2971539,2.470862,-2.852462
90,3.144439,403,237,483,493,-0.02567928,0.002697763,0.008504161,-1.423323,3.0938,0.03444373,0.001543047,-0.00229507,-0.01591759,-0.29731,2.471905,-2.853457
90,3.15555,403,237,483,493,-0.01435915,0.003708825,0.01171609,-1.423422,3.093986,0.03441443,-0.00787165,0.0004455997,-0.009141155,-0.297041,2.472459,-2.853629
90,3.166661,403,237,483,493,0.002172785,0.002201714,0.01009789,-1.423887,3.093972,0.03439632,-0.01306363,-0.006836295,0.008379878,-0.29651,2.471582,-2.852527
90,3.177772,403,237,483,493,0.009356672,-0.005395495,0.01264162,-1.424198,3.094193,0.03416782,-0.01551846,-0.005719737,0.01874241,-0.2960796,2.471067,-2.851862
90,3.188883,423,206,511,500,0.00275859,-0.007806523,0.01337228,-1.424122,3.094358,0.03399046,-0.01376574,-0.008730934,0.0158739,-0.2959544,2.470753,-2.851392
90,3.199994,423,206,511,500,-0.0001511639,-0.009829669,0.01153022,-1.424002,3.094456,0.0337774,-0.01375544,-0.008736638,0.01587973,-0.2958335,2.470052,-2.850602
90,3.211105,423,206,511,500,-0.02416354,-0.007764149,0.006442318,-1.423038,3.094474,0.03382428,-0.01156622,-0.01319863,0.007686893,-0.2959315,2.469329,-2.849655
90,3.222216,423,206,511,500,-0.03659642,-0.006677613,0.003263784,-1.422346,3.094577,0.03376675,-0.01409331,-0.009532517,-0.004812252,-0.2962383,2.47022,-2.850242
90,3.233327,391,177,503,501,-0.04884069,-0.005465033,-0.0009819819,-1.421493,3.094595,0.03374811,-0.02225594,-0.003057869,1.340592E-05,-0.2959294,2.470812,-2.85041
90,3.244438,391,177,503,501,-0.052045,-0.003375468,-0.001334014,-1.420896,3.09466,0.03378806,-0.01692018,-0.001224419,0.01082797,-0.2955363,2.470623,-2.850294
90,3.255549,391,177,503,501,-0.05238701,-0.004692894,0.0005971594,-1.420328,3.094803,0.03369964,-0.0172192,-0.002104659,0.002098302,-0.2956311,2.470595,-2.849932
90,3.26666,391,177,503,501,-0.04147356,-0.002880066,0.006038696,-1.420228,3.095026,0.03368739,-0.01831879,-0.004342125,-0.005703113,-0.2958932,2.471217,-2.850184
90,3.277771,391,177,503,501,-0.02885188,-0.000975823,0.001990654,-1.420225,3.094952,0.03374811,-0.01682102,-0.004511861,-0.001055263,-0.2957227,2.470944,-2.849835
90,3.288882,449,165,494,502,-0.01186345,0.001819237,0.00973921,-1.420533,3.095221,0.03385517,-0.0114364,-0.003140365,0.00434482,-0.2955219,2.470698,-2.849438
90,3.299993,449,165,494,502,0.002784808,0.0001183171,0.01868957,-1.421013,3.095603,0.03379445,-0.006435439,-0.009344792,0.003237262,-0.2956093,2.469842,-2.848571
90,3.311104,449,165,494,502,0.01007222,0.002291054,0.02024834,-1.421341,3.095805,0.0338589,-0.009245095,-0.001418846,0.001500788,-0.2955491,2.470454,-2.848994
90,3.322215,449,165,494,502,0.01906025,0.005292142,0.02437951,-1.421857,3.096081,0.033983,-0.01654161,-0.0002127644,-0.005389458,-0.2956652,2.471297,-2.849419
90,3.333326,369,172,486,503,0.02366392,0.004522858,0.02291224,-1.422273,3.096225,0.0340043,-0.01343648,-0.003834588,-0.00799151,-0.2958101,2.471213,-2.849245
90,3.344437,369,172,486,503,0.01252248,0.003632156,0.01865456,-1.422098,3.096326,0.03402454,-0.01739996,-0.01112207,-0.008684865,-0.2959347,2.47077,-2.848423
90,3.355548,369,172,486,503,0.0024306,0.002747159,0.01457956,-1.421849,3.096403,0.03403893,-0.01062456,-0.02138843,0.001484345,-0.2957238,2.468698,-2.846401
90,3.366659,369,172,486,503,0.002307717,0.003368136,0.009183981,-1.421883,3.096381,0.03409538,-0.005483915,-0.01372377,0.001312855,-0.2957238,2.469096,-2.8469
90,3.37777,369,172,486,503,-0.005280124,0.005305172,0.009156668,-1.421633,3.096519,0.03420031,-0.01233154,0.001835521,-0.01326847,-0.2960668,2.471389,-2.848881
90,3.388881,397,220,494,495,0.003052445,0.00748463,0.01089827,-1.421927,3.09663,0.03434413,-0.01724274,0.006167717,-0.02081689,-0.2962873,2.472811,-2.849874
90,3.399992,397,220,494,495,0.0104557,0.005424211,0.01196279,-1.422266,3.096748,0.03434466,-0.01530471,0.004544554,-0.02148778,-0.2963725,2.472526,-2.849501
90,3.411103,397,220,494,495,0.005608907,0.001720041,0.01501605,-1.422225,3.097025,0.03423973,-0.01371626,-0.004730795,-0.01671246,-0.2964641,2.471711,-2.848495
90,3.422215,397,220,494,495,0.01143818,0.001079164,0.01270162,-1.422495,3.097045,0.03427275,-0.01301211,-0.007305607,0.003013065,-0.2959544,2.470871,-2.847601
90,3.433326,397,220,494,495,0.01168369,-0.0009116745,0.0114149,-1.422643,3.097121,0.03420031,-0.01693002,-0.00743778,0.005499984,-0.2958378,2.47065,-2.847106
90,3.444437,365,185,483,499,0.01083616,-0.001864385,0.01005864,-1.422534,3.097156,0.03402614,-0.01079922,0.00299815,0.006579201,-0.2956833,2.471671,-2.848301
90,3.455548,365,185,483,499,0.01453266,-0.004323032,0.01367778,-1.422728,3.09732,0.03391109,-0.01530262,0.01454991,-0.01183873,-0.2960402,2.474345,-2.850717
90,3.466659,365,185,483,499,0.01629507,-0.005615316,0.01600866,-1.422949,3.097553,0.03377527,-0.007195019,0.01091357,-0.01018944,-0.2961435,2.474463,-2.850934
90,3.47777,365,185,483,499,0.01227897,-0.01199577,0.01452407,-1.422993,3.097635,0.03348446,-0.00889406,0.003865018,-0.005014111,-0.2961179,2.474213,-2.850602
90,3.488881,409,173,518,501,0.01117164,-0.009885347,0.01458005,-1.423075,3.097781,0.03344185,-0.002110462,0.005604324,-0.001516673,-0.2960695,2.474473,-2.851026
90,3.499992,409,173,518,501,0.006134183,-0.007993704,0.006293417,-1.423018,3.097594,0.03347434,-0.01178325,-0.003558235,0.001022031,-0.2959432,2.474019,-2.850081
90,3.511103,409,173,518,501,0.003882593,-0.009196052,0.006841186,-1.423025,3.097714,0.03328206,-0.01080885,0.006817985,0.01085629,-0.2956354,2.474908,-2.851063
90,3.522214,409,173,518,501,0.007120235,-0.01234853,0.007028236,-1.423221,3.097779,0.03305622,-0.004414063,0.01545011,-0.009704829,-0.2961531,2.476787,-2.853021
90,3.533325,409,173,518,501,0.005120071,-0.009056436,0.005982447,-1.423251,3.097803,0.0331505,-0.007868897,0.0211155,-0.02133811,-0.296593,2.478628,-2.854659
90,3.544436,449,195,496,502,-0.001455816,-0.01252482,0.006584597,-1.423019,3.09793,0.03293425,-0.005653325,0.01419076,-0.01864189,-0.2966793,2.478734,-2.854705
90,3.555547,449,195,496,502,-0.0008862009,-0.01320394,0.003336128,-1.422877,3.09794,0.03282772,0.002292565,0.004208115,0.002624541,-0.2962575,2.477023,-2.853323
90,3.566658,449,195,496,502,0.001329225,-0.01741934,0.003213062,-1.422956,3.098011,0.03254383,0.003653438,-0.001255149,0.01273535,-0.2959571,2.475932,-2.852361
90,3.577769,449,195,496,502,0.005466677,-0.01527281,0.004191277,-1.423094,3.097999,0.03244369,0.002626426,0.008424598,0.0102522,-0.2957323,2.477003,-2.853403
90,3.58888,448,199,486,504,0.008082885,-0.01382685,0.001545631,-1.423202,3.097826,0.03227378,-0.002694501,0.0127966,0.004794202,-0.295702,2.478356,-2.854608
90,3.599991,448,199,486,504,0.005145852,-0.01478126,-0.0001761457,-1.423158,3.097808,0.03206979,-0.001109174,0.0107616,0.0007852218,-0.2958399,2.478615,-2.854893
90,3.611102,448,199,486,504,0.0003857417,-0.01232464,-0.003979462,-1.422972,3.097714,0.03196965,0.0005820463,0.004391837,-0.0009795568,-0.2959667,2.478343,-2.854551
90,3.622213,448,199,486,504,2.000201E-05,-0.01257524,-0.001898126,-1.422969,3.097759,0.03185939,0.0004970473,0.002456614,0.003370859,-0.295809,2.47819,-2.854412
90,3.633324,448,199,486,504,0.002783541,-0.009936245,-0.005458111,-1.422976,3.097519,0.03185833,-0.004283874,0.003796271,0.01326215,-0.2953904,2.478275,-2.854445
90,3.644435,426,228,494,504,0.007251163,-0.001816123,-0.0004277122,-1.423154,3.097531,0.03208417,-0.004243032,0.004767877,0.0110855,-0.2953009,2.478609,-2.854759
90,3.655546,426,228,494,504,0.007697607,-0.004739067,-0.002889896,-1.423168,3.09735,0.03192438,-0.003915866,0.007661952,0.003513423,-0.2953909,2.479347,-2.855351
90,3.666657,426,228,494,504,0.002422946,-0.003717841,-0.003686744,-1.423047,3.097274,0.0319084,-0.002236878,0.003765072,-0.009141778,-0.2957494,2.479565,-2.855459
90,3.677768,426,228,494,504,-0.001624419,-0.002562521,-0.005343027,-1.422831,3.097191,0.03190733,-0.00377516,0.0005851267,-0.01268154,-0.29607,2.479726,-2.855518
90,3.688879,402,231,489,493,-0.01777373,-0.005462405,-0.01180276,-1.422091,3.096981,0.03177364,-0.000568761,-0.006049157,0.0021659,-0.2957259,2.478161,-2.854073
90,3.69999,402,231,489,493,-0.03689873,-0.007193821,-0.01976654,-1.421116,3.096725,0.03161066,-0.002703065,-0.00927786,0.01372203,-0.2953808,2.477217,-2.853127
90,3.711101,402,231,489,493,-0.05125751,-0.004903613,-0.02426238,-1.420022,3.09651,0.03170174,-5.766749E-06,-0.002559433,0.04025076,-0.2941808,2.475924,-2.852103
90,3.722212,402,231,489,493,-0.06604594,-0.01012327,-0.01998392,-1.418906,3.096583,0.03147111,-0.0001181792,0.009018169,0.02923519,-0.2940385,2.477478,-2.853717
90,3.733323,402,231,489,493,-0.06807028,-0.01224085,-0.02067446,-1.418036,3.096509,0.03132463,-0.001901161,0.01937086,0.01139002,-0.2941951,2.47944,-2.855558
90,3.744434,466,211,489,496,-0.06865202,-0.01804722,-0.01720808,-1.417262,3.096551,0.03099014,0.01087304,0.02356237,-0.008915426,-0.2948125,2.480721,-2.85722
90,3.755545,466,211,489,496,-0.05914944,-0.02009583,-0.0157947,-1.416846,3.0964,0.03065032,0.01467053,0.02325275,-0.01573968,-0.2950133,2.481449,-2.85827
90,3.766656,466,211,489,496,-0.04761689,-0.020014,-0.01372298,-1.416616,3.096359,0.03041916,0.01203373,0.01668539,-0.0009864531,-0.2946213,2.480921,-2.857866
90,3.777767,466,211,489,496,-0.01919054,-0.02113342,-0.01529414,-1.417107,3.096034,0.03014112,0.005883178,0.02038092,0.02924337,-0.2933248,2.480739,-2.857976
90,3.788878,466,211,489,496,-0.006582217,-0.02210458,-0.01316042,-1.417359,3.095971,0.02986043,0.003505334,0.01725455,0.02988887,-0.2929648,2.480621,-2.857943
90,3.799989,425,209,485,502,0.008736663,-0.02412808,-0.001976749,-1.417838,3.096145,0.02947374,-0.002087455,0.02565658,0.005870408,-0.2934218,2.483079,-2.86016
90,3.8111,425,209,485,502,0.02172663,-0.02774126,0.004204334,-1.418395,3.096286,0.02908492,-0.0007984582,0.03293998,-0.02111707,-0.2941323,2.485994,-2.86288
90,3.822211,425,209,485,502,0.02885889,-0.02676891,0.00666099,-1.418938,3.096386,0.02880901,-0.0007286072,0.03011899,-0.02759497,-0.2944513,2.487342,-2.864171
90,3.833322,425,209,485,502,0.03489539,-0.02831557,0.003120215,-1.419394,3.09611,0.02839995,-0.007392157,0.02257192,-0.02015021,-0.2941983,2.487703,-2.864229
90,3.844433,392,219,506,503,0.03588686,-0.02619781,0.003546389,-1.419852,3.096129,0.02815547,-0.01022207,0.02458401,0.002085215,-0.293458,2.488277,-2.864834
90,3.855544,392,219,506,503,0.02901725,-0.02558479,0.005685281,-1.419963,3.096254,0.02788756,-0.007469784,0.02812278,0.004770045,-0.2933089,2.48963,-2.866317
90,3.866655,392,219,506,503,0.01904402,-0.03439042,0.01368722,-1.420055,3.096736,0.02716371,-0.004335765,0.04226508,-0.003452246,-0.2933994,2.49315,-2.869982
90,3.877766,392,219,506,503,0.003521059,-0.03728318,0.01605965,-1.419807,3.097121,0.02671364,-0.003900066,0.04756477,-0.009941634,-0.293433,2.495846,-2.872714
90,3.888877,392,219,506,503,-0.002167013,-0.04091453,0.01785016,-1.41966,3.09749,0.02606915,0.001358971,0.05907509,-0.01767738,-0.2935741,2.498356,-2.875417
90,3.899988,354,206,498,501,-0.002126008,-0.04197972,0.01769817,-1.419655,3.097764,0.02558232,0.008685999,0.06854457,-0.0314831,-0.2940758,2.502031,-2.879382
90,3.911099,354,206,498,501,0.000943616,-0.03879892,0.01863028,-1.419785,3.097996,0.02518019,0.01102421,0.0747352,-0.04845852,-0.2947949,2.506103,-2.883698
90,3.92221,354,206,498,501,0.004950766,-0.04515648,0.02717292,-1.420063,3.098622,0.02445581,0.01394648,0.06873286,-0.05103926,-0.2953131,2.508481,-2.886268
90,3.933321,354,206,498,501,0.001838673,-0.04707761,0.03289345,-1.420015,3.099199,0.02379428,0.02800217,0.07736657,-0.05030244,-0.2957877,2.511196,-2.889771
90,3.944432,381,207,497,503,0.0004101805,-0.05174805,0.03526292,-1.420047,3.099728,0.02305925,0.02115703,0.0853755,-0.05943002,-0.296347,2.516209,-2.894804
90,3.955544,381,207,497,503,-0.009335484,-0.05965975,0.03577397,-1.419712,3.100316,0.02221502,0.01751487,0.07798124,-0.05032483,-0.296559,2.518245,-2.897034
90,3.966655,381,207,497,503,-0.01590905,-0.06129375,0.03003301,-1.419362,3.100641,0.02147467,-0.005973801,0.08941309,-0.003168343,-0.2948316,2.521424,-2.90024
90,3.977766,381,207,497,503,-0.04546257,-0.07380309,0.01993429,-1.418085,3.100922,0.02028796,-0.01841879,0.1029048,0.02127831,-0.2935863,2.525845,-2.904671
90,3.988877,381,207,497,503,-0.06294966,-0.08559372,0.01521112,-1.417333,3.101412,0.01906983,-0.03101094,0.1254283,0.01943352,-0.2926963,2.531665,-2.910421
90,3.999988,367,216,504,505,-0.07649234,-0.08890065,0.01225061,-1.41579,3.101798,0.01786342,-0.02456096,0.1290646,0.02188453,-0.2923134,2.537319,-2.91625
90,4.011099,367,216,504,505,-0.08833247,-0.09128422,0.01844113,-1.414612,3.10246,0.01679656,-0.0112817,0.1523574,0.04224097,-0.2889881,2.544056,-2.924283
89,4.02221,367,216,504,505,-0.0803499,-0.1166319,0.02354745,-1.413979,3.103215,0.01483487,-0.002556384,0.1751975,0.02330604,-0.2887644,2.552445,-2.93333
88,4.033321,367,216,504,505,-0.06188177,-0.1506871,0.0311473,-1.41377,3.104281,0.01224628,-0.006347016,0.2088218,-0.002857596,-0.2888502,2.563848,-2.944663
87,4.044433,424,228,486,496,-0.04997505,-0.1906735,0.03314234,-1.413579,3.105214,0.009116533,-0.0001865774,0.2250759,-0.006963439,-0.2882898,2.5737,-2.955353
86,4.055544,424,228,486,496,-0.02472973,-0.2953296,0.01515958,-1.413813,3.105934,0.002987002,-0.003782004,0.2480977,-0.02430408,-0.2883586,2.585577,-2.967552
85,4.066655,424,228,486,496,0.006686866,-0.3542865,0.009986602,-1.414665,3.106643,-0.002539058,-0.004480571,0.2666498,-0.02570228,-0.2881892,2.59685,-2.979123
84,4.077766,424,228,486,496,0.007398278,-0.3580013,-0.001770029,-1.414755,3.107037,-0.00654605,-0.01436117,0.294466,0.04208299,-0.2845769,2.609642,-2.993257
83,4.088878,424,228,486,496,0.006818295,-0.3563889,-0.01282152,-1.414705,3.107283,-0.01040337,-0.01574492,0.3172083,0.07135993,-0.2818018,2.622839,-3.007153
82,4.099989,382,202,496,498,-0.007450581,-0.3738052,-0.009932376,-1.414189,3.108252,-0.01514593,-0.004303187,0.3319925,0.09063062,-0.2801507,2.635733,-3.02126
81,4.1111,382,202,496,498,0.001687318,-0.399705,-0.004321848,-1.414546,3.109242,-0.02034762,0.01063538,0.3838616,0.08992089,-0.2784548,2.653927,-3.041034
80,4.122211,382,202,496,498,0.01351374,-0.418377,-0.002792065,-1.415031,3.110173,-0.02558552,0.01532611,0.4082273,0.006657884,-0.2800868,2.672818,-3.060445
79,4.133323,382,202,496,498,0.03248489,-0.4479121,-0.006121565,-1.41604,3.11114,-0.03136778,0.0121572,0.4200853,-0.0480115,-0.2814301,2.690605,-3.078329
78,4.144434,382,202,496,498,0.02782115,-0.4680113,-0.02869146,-1.41611,3.111349,-0.03720862,0.006565481,0.4560478,-0.0551392,-0.2817944,2.712104,-3.100368
77,4.155545,359,186,499,498,-0.01014465,-0.4890866,-0.06146133,-1.414767,3.111396,-0.04325879,0.003731042,0.483192,-0.04276721,-0.2817065,2.733473,-3.122483
76,4.166656,359,186,499,498,-0.07152981,-0.5266773,-0.1056898,-1.412302,3.111091,-0.05027888,-0.01805222,0.5265633,-0.02261396,-0.2812735,2.7583,3.135776
75,4.177768,359,186,499,498,-0.141112,-0.6095946,-0.1510769,-1.408649,3.110953,-0.05941299,-0.0467853,0.578356,0.001869038,-0.2803169,2.786872,3.107386
74,4.188879,359,186,499,498,-0.1902194,-0.6904958,-0.1773419,-1.405084,3.111466,-0.06951117,-0.06730843,0.6538171,0.03153703,-0.2796538,2.820094,3.0741
73,4.19999,385,174,512,499,-0.2701166,-0.8337772,-0.2058636,-1.399735,3.113077,-0.08303203,-0.06335115,0.6717314,0.04878883,-0.2790785,2.848827,3.04488
72,4.211102,385,174,512,499,-0.3272735,-0.9805411,-0.2147706,-1.393589,3.115374,-0.09680324,-0.02297807,0.6270678,0.2206227,-0.2726321,2.868028,3.022281
71,4.222213,385,174,512,499,-0.3252252,-1.064703,-0.2217704,-1.389256,3.11752,-0.1103694,0.0663625,0.6089258,0.3647263,-0.2664663,2.888725,2.995677
70,4.233324,385,174,512,499,-0.2932233,-1.135694,-0.2265469,-1.386829,3.120368,-0.1253864,0.1233395,0.7187142,0.3639611,-0.2658362,2.9286,2.951329
69,4.244435,385,174,512,499,-0.2554559,-1.151955,-0.234603,-1.383964,3.12221,-0.138102,0.1622556,0.8734649,0.2111915,-0.2714342,2.974821,2.902373
68,4.255547,286,180,502,498,-0.2130029,-1.14895,-0.2387836,-1.382523,3.12458,-0.1513128,0.1510746,0.9523226,0.1415149,-0.2754672,3.01876,2.856781
67,4.266658,286,180,502,498,-0.1583086,-1.156703,-0.2459728,-1.381183,3.126536,-0.164063,0.1468629,1.0448,0.1210584,-0.2788644,3.065907,2.807636
66,4.277769,286,180,502,498,-0.114978,-1.207911,-0.2732851,-1.380802,3.12903,-0.1795972,0.1884623,1.178349,0.07310432,-0.2859548,3.118547,2.752005
65,4.28888,286,180,502,498,-0.07921612,-1.269569,-0.3158644,-1.380021,3.130501,-0.1954281,0.2147549,1.239477,-0.05437744,-0.2963704,-3.122838,2.708781
64,4.299992,311,190,506,502,-0.03066683,-1.372371,-0.3941251,-1.379962,3.131423,-0.213855,0.240535,1.198477,-0.1522529,-0.3059269,-3.093349,2.677916
63,4.311103,311,190,506,502,-0.02351344,-1.446903,-0.4604821,-1.379523,3.133461,-0.2333307,0.3051808,1.199618,-0.09337944,-0.312963,-3.059414,2.639696
62,4.322214,311,190,506,502,-0.04453039,-1.475982,-0.5098641,-1.376964,3.13399,-0.2512496,0.3991171,1.298006,-0.03555381,-0.3223091,-3.015644,2.590057
61,4.333325,311,190,506,502,-0.0392853,-1.49902,-0.5287164,-1.376491,3.137095,-0.2699828,0.5255463,1.342838,-0.08460879,-0.3358635,-2.984823,2.55257
60,4.344437,311,190,506,502,0.007498264,-1.542456,-0.5398063,-1.376587,3.139798,-0.2890409,0.5053608,1.324154,-0.1236821,-0.3470674,-2.957258,2.522686
59,4.355548,320,212,486,494,0.08142722,-1.563202,-0.5575881,-1.379427,-3.140197,-0.3084297,0.4922317,1.324289,-0.1488356,-0.358862,-2.93012,2.493237
58,4.366659,320,212,486,494,0.158031,-1.540993,-0.5750383,-1.382233,-3.13846,-0.3259304,0.543769,1.419225,-0.1924951,-0.3744522,-2.900168,2.459837
57,4.37777,320,212,486,494,0.1916698,-1.498857,-0.5955916,-1.384313,-3.136719,-0.3428596,0.5954753,1.46709,-0.2489619,-0.3909345,-2.874617,2.431176
56,4.388882,320,212,486,494,0.1947531,-1.48673,-0.6256982,-1.386287,-3.134251,-0.3611385,0.5998797,1.465895,-0.2667783,-0.4059462,-2.851685,2.406184
55,4.399993,320,212,486,494,0.205102,-1.489098,-0.6653157,-1.388081,-3.13228,-0.3797673,0.605096,1.439553,-0.2136727,-0.4188209,-2.828456,2.37976
54,4.411104,420,239,500,506,0.2041038,-1.498235,-0.7101213,-1.390143,-3.130053,-0.399267,0.6413431,1.424987,-0.2051973,-0.4334375,-2.809122,2.356803
53,4.422215,420,239,500,506,0.2046485,-1.503324,-0.7502308,-1.391998,-3.127626,-0.4187869,0.6438293,1.359513,-0.159528,-0.4457961,-2.792057,2.336203
52,4.433327,420,239,500,506,0.2028303,-1.514249,-0.8166428,-1.394077,-3.125964,-0.4393294,0.6743259,1.354732,-0.1104861,-0.459284,-2.772873,2.312951
51,4.444438,420,239,500,506,0.1777034,-1.474006,-0.8526919,-1.394791,-3.124631,-0.4579417,0.7106924,1.303992,-0.0970943,-0.4727729,-2.758969,2.29458
50,4.455549,294,196,501,497,0.1456882,-1.424636,-0.8793674,-1.395334,-3.123318,-0.4759367,0.7190188,1.243573,-0.07204044,-0.4850128,-2.746629,2.278007
49,4.46666,294,196,501,497,0.1011474,-1.380366,-0.894924,-1.394897,-3.121599,-0.4936861,0.7089006,1.250164,-0.0596754,-0.4983089,-2.730957,2.259398
48,4.477772,294,196,501,497,0.05945599,-1.353702,-0.9043725,-1.394392,-3.119442,-0.511581,0.7167091,1.285534,-0.07456028,-0.5135022,-2.715055,2.241262
47,4.488883,294,196,501,497,-0.008863926,-1.341166,-0.9135971,-1.392277,-3.116459,-0.5299467,0.7292197,1.300683,-0.07206941,-0.5282987,-2.700548,2.224078
46,4.499994,294,196,501,497,-0.04955029,-1.3454,-0.9299694,-1.390909,-3.113137,-0.5490661,0.694928,1.280298,0.02039063,-0.5399144,-2.683577,2.203931
45,4.511106,360,175,485,501,-0.06569517,-1.335906,-0.9536954,-1.389758,-3.110412,-0.5675995,0.6536484,1.227465,0.1770534,-0.5486863,-2.665047,2.180933
44,4.522217,360,175,485,501,-0.06740832,-1.31583,-0.9748079,-1.388884,-3.107892,-0.5860696,0.6860961,1.209385,0.2543782,-0.5602343,-2.6492,2.159614
43,4.533328,360,175,485,501,-0.05691135,-1.305388,-0.9923445,-1.388408,-3.104889,-0.6045535,0.7397218,1.201293,0.3161869,-0.5725898,-2.634537,2.1387
42,4.544439,360,175,485,501,-0.04810262,-1.277491,-1.014591,-1.388005,-3.102372,-0.6229485,0.76712,1.174564,0.2676517,-0.5857847,-2.624114,2.124182
41,4.555551,344,185,503,499,-0.05355,-1.245228,-1.027548,-1.387119,-3.099611,-0.6409845,0.7555159,1.125357,0.1957101,-0.598227,-2.616006,2.113242
40,4.566662,344,185,503,499,-0.0566889,-1.224678,-1.043371,-1.386231,-3.096906,-0.6590482,0.7430041,1.113874,0.1793132,-0.6106703,-2.605635,2.100103
39,4.577773,344,185,503,499,-0.07544303,-1.205476,-1.071213,-1.38475,-3.094006,-0.6775279,0.7028614,1.055242,0.2609717,-0.6199711,-2.592964,2.083166
38,4.588884,344,185,503,499,-0.09095657,-1.185596,-1.094421,-1.383262,-3.091246,-0.695819,0.6589236,0.9938868,0.3546426,-0.6283084,-2.580547,2.066013
37,4.599996,344,185,503,499,-0.1230047,-1.17894,-1.099476,-1.381197,-3.08729,-0.7142188,0.6683137,0.9760747,0.4036409,-0.6382234,-2.568784,2.049274
36,4.611107,395,191,514,498,-0.1220343,-1.15252,-1.108377,-1.379818,-3.084324,-0.7318276,0.7161542,0.9741122,0.4278074,-0.6497799,-2.558537,2.033312
35,4.622218,395,191,514,498,-0.106789,-1.126976,-1.119246,-1.378965,-3.081095,-0.749699,0.751197,0.9865106,0.379832,-0.6625987,-2.549675,2.020545
34,4.633329,395,191,514,498,-0.09021187,-1.109643,-1.131412,-1.37839,-3.077996,-0.7674841,0.7289183,0.9803339,0.3208133,-0.6742517,-2.541304,2.009827
33,4.644441,395,191,514,498,-0.08668208,-1.09627,-1.15185,-1.377437,-3.074432,-0.7858844,0.7079681,0.9748901,0.3150093,-0.6854444,-2.531688,1.997603
32,4.655552,520,191,490,498,-0.1183954,-1.094138,-1.168115,-1.375359,-3.070283,-0.8042405,0.6916673,0.9460668,0.3365503,-0.6957482,-2.522516,1.984885
31,4.666663,520,191,490,498,-0.1759542,-1.111842,-1.182149,-1.372258,-3.064717,-0.8234835,0.7058167,0.916414,0.3680596,-0.7062149,-2.514138,1.972046
30,4.677774,520,191,490,498,-0.2297595,-1.119782,-1.194489,-1.368736,-3.05882,-0.8422444,0.7337185,0.8356158,0.3815158,-0.7159099,-2.509542,1.961198
29,4.688886,520,191,490,498,-0.3140277,-1.168126,-1.245694,-1.363181,-3.051406,-0.8634266,0.6813095,0.7143163,0.3894431,-0.7223158,-2.505311,1.952106
28,4.699997,520,191,490,498,-0.3169804,-1.207499,-1.372735,-1.360089,-3.045222,-0.8871991,0.690935,0.7036288,0.4106766,-0.7314106,-2.499067,1.940976
27,4.711108,539,175,474,503,-0.3014784,-1.207028,-1.481236,-1.357047,-3.039744,-0.910979,0.7128793,0.6831075,0.4466686,-0.7407742,-2.493006,1.928868
26,4.722219,539,175,474,503,-0.291546,-1.164805,-1.474699,-1.35409,-3.033791,-0.9312313,0.7648216,0.7114922,0.4645236,-0.7522392,-2.486562,1.916559
25,4.733331,539,175,474,503,-0.3138791,-1.095636,-1.32517,-1.35047,-3.026832,-0.9458813,0.8207324,0.7245977,0.4303455,-0.764667,-2.482561,1.907339
24,4.744442,539,175,474,503,-0.2988107,-1.038938,-1.20816,-1.348205,-3.019962,-0.9602523,0.8105985,0.645717,0.3494228,-0.7735583,-2.482474,1.903159
23,4.755553,539,175,474,503,-0.2682176,-1.020625,-1.226077,-1.346408,-3.013775,-0.9785088,0.8151162,0.5857798,0.3437857,-0.7825353,-2.481161,1.896119
22,4.766665,437,150,502,499,-0.2101265,-1.002729,-1.285058,-1.345695,-3.008267,-0.9981118,0.8511674,0.5536132,0.3621002,-0.7926127,-2.479702,1.887797
21,4.777776,437,150,502,499,-0.1609451,-0.9980832,-1.388616,-1.345047,-3.002668,-1.019807,0.8813574,0.5272347,0.3837906,-0.8028808,-2.478071,1.879017
20,4.788887,437,150,502,499,-0.07854092,-0.9620585,-1.501,-1.346216,-2.998403,-1.042509,0.8605505,0.4904246,0.4075735,-0.8113038,-2.475939,1.870355
19,4.799998,437,150,502,499,-0.009029746,-0.8789393,-1.501364,-1.347754,-2.995278,-1.060894,0.8246442,0.4947353,0.449138,-0.8198627,-2.471649,1.860223
18,4.81111,441,161,488,497,0.0445298,-0.7907674,-1.432123,-1.349372,-2.992474,-1.076762,0.7974827,0.5119322,0.4964363,-0.8287869,-2.46623,1.849015
17,4.822221,441,161,488,497,0.07365716,-0.7278877,-1.385818,-1.350807,-2.989327,-1.092808,0.7894491,0.5163505,0.546794,-0.837692,-2.46075,1.837108
16,4.833332,441,161,488,497,0.103358,-0.66681,-1.365405,-1.352383,-2.986935,-1.108955,0.8369683,0.4715923,0.5386268,-0.8473374,-2.460032,1.828658
15,4.844443,441,161,488,497,0.1297919,-0.625505,-1.380103,-1.354235,-2.98437,-1.126315,0.914844,0.3645664,0.4760457,-0.8569477,-2.464284,1.823689
14,4.855555,441,161,488,497,0.1489279,-0.5899127,-1.398349,-1.356111,-2.981967,-1.14354,0.9535438,0.2753813,0.421397,-0.8658448,-2.469076,1.819733
13,4.866666,433,150,496,498,0.1874388,-0.5494592,-1.459577,-1.35879,-2.980326,-1.162281,1.011446,0.1922293,0.3557253,-0.8754284,-2.476335,1.8175
12,4.877777,433,150,496,498,0.215196,-0.5042253,-1.53314,-1.361395,-2.97906,-1.182118,1.027063,0.1648074,0.3475947,-0.8850228,-2.479761,1.812209
11,4.888888,433,150,496,498,0.2448074,-0.4345518,-1.56456,-1.364204,-2.979049,-1.200713,1.017742,0.1516683,0.3542649,-0.8940072,-2.482739,1.806796
10,4.9,433,150,496,498,0.2552583,-0.3715928,-1.507199,-1.366939,-2.978858,-1.215971,1.044037,0.2138467,0.4025347,-0.9054364,-2.482412,1.798368
9,4.911111,357,151,531,504,0.2544848,-0.3359775,-1.445393,-1.369467,-2.978014,-1.230827,1.03441,0.2143183,0.4233973,-0.9152773,-2.483715,1.791324
8,4.922222,357,151,531,504,0.2584112,-0.305636,-1.44808,-1.372062,-2.977207,-1.247566,1.016136,0.2143129,0.4214129,-0.9248754,-2.485059,1.785077
7,4.933333,357,151,531,504,0.2720903,-0.2764428,-1.464767,-1.374865,-2.976511,-1.264779,0.9860317,0.2017468,0.3870889,-0.933839,-2.48732,1.780616
6,4.944445,357,151,531,504,0.2834649,-0.244278,-1.46835,-1.377842,-2.97599,-1.281473,0.9594893,0.2001198,0.369267,-0.9428336,-2.48894,1.775779
5,4.955556,357,151,531,504,0.2848134,-0.2265155,-1.471643,-1.380629,-2.975075,-1.29834,0.9436414,0.1978898,0.3782554,-0.9519043,-2.490175,1.769849
4,4.966667,415,175,500,501,0.2964301,-0.1777262,-1.48174,-1.383634,-2.975469,-1.315083,0.8900422,0.1766486,0.3957992,-0.959187,-2.490875,1.763727
3,4.977778,415,175,500,501,0.2983465,-0.1371232,-1.486395,-1.386466,-2.975916,-1.331653,0.8571118,0.1485856,0.3936003,-0.9662747,-2.492735,1.758582
2,4.98889,415,175,500,501,0.2961607,-0.08848435,-1.501326,-1.389248,-2.97677,-1.348713,0.8257546,0.1127736,0.3658246,-0.9733518,-2.495321,1.754682
1,5.000001,415,175,500,501,0.2946501,-0.05759579,-1.502993,-1.392107,-2.977008,-1.365625,0.8211801,0.09207299,0.3586836,-0.9807298,-2.497798,1.750166
-2.421439E-08,5.011112,390,187,506,500,0.2922031,-0.04694283,-1.502833,-1.394873,-2.976755,-1.382437,0.8170278,0.04099977,0.3177687,-0.9876375,-2.502374,1.747635
-2.421439E-08,5.022223,390,187,506,500,0.2830775,-0.01828808,-1.496361,-1.397378,-2.9771,-1.398937,0.8392015,0.002817512,0.3157497,-0.9952334,-2.507024,1.743973
-2.421439E-08,5.033335,390,187,506,500,0.2643241,0.0116241,-1.490638,-1.399282,-2.977406,-1.415473,0.880705,-0.02288193,0.3400226,-1.00393,-2.511122,1.738746
-2.421439E-08,5.044446,390,187,506,500,0.2835935,0.03082895,-1.482642,-1.402578,-2.977679,-1.431655,0.8764455,-0.0683707,0.3277213,-1.010846,-2.516397,1.735424
-2.421439E-08,5.055557,390,187,506,500,0.2930092,0.07754727,-1.488346,-1.405573,-2.97899,-1.448255,0.8657638,-0.09963286,0.317227,-1.017373,-2.521265,1.732359
-2.421439E-08,5.066669,308,210,518,502,0.3023903,0.1247228,-1.500507,-1.408658,-2.980559,-1.465336,0.8407251,-0.1465986,0.2854956,-1.023317,-2.527177,1.730293
-2.421439E-08,5.07778,308,210,518,502,0.3282604,0.1971543,-1.474374,-1.412285,-2.983299,-1.480857,0.8068118,-0.1736535,0.2718735,-1.028673,-2.532631,1.727903
-2.421439E-08,5.088891,308,210,518,502,0.3394569,0.2488488,-1.466868,-1.41576,-2.986037,-1.497138,0.7881138,-0.1860524,0.2668586,-1.034485,-2.537785,1.72515
-2.421439E-08,5.100002,308,210,518,502,0.3565497,0.2979793,-1.461718,-1.419496,-2.98894,-1.513196,0.7351991,-0.1882957,0.282124,-1.039203,-2.541504,1.721619
-2.421439E-08,5.111114,308,210,518,502,0.3722718,0.3684606,-1.443739,-1.423276,-2.993397,-1.528762,0.6853751,-0.1648226,0.3173118,-1.043953,-2.543765,1.716638
-2.421439E-08,5.122225,353,231,498,507,0.3824255,0.4101512,-1.422543,-1.427045,-2.996936,-1.544247,0.659602,-0.1526556,0.3358982,-1.04887,-2.546403,1.712064
-2.421439E-08,5.133336,353,231,498,507,0.392045,0.42375,-1.392651,-1.431038,-3.000061,-1.55933,0.6138805,-0.1392437,0.334203,-1.053033,-2.548675,1.708071
-2.421439E-08,5.144447,353,231,498,507,0.3833301,0.4760655,-1.271995,-1.434439,-3.005172,-1.570693,0.5843328,-0.1307982,0.3124012,-1.057335,-2.551599,1.704924
-2.421439E-08,5.155559,353,231,498,507,0.3903229,0.4889179,-1.220416,-1.438511,-3.009037,-1.583497,0.5797595,-0.1163023,0.3195466,-1.062294,-2.553668,1.700972
-2.421439E-08,5.16667,399,258,468,496,0.3799752,0.5557925,-1.164493,-1.441725,-3.015207,-1.595357,0.5818663,-0.0749523,0.3669529,-1.067944,-2.554015,1.694829
-2.421439E-08,5.177781,399,258,468,496,0.3769801,0.6103928,-1.142589,-1.445313,-3.021255,-1.608088,0.5720062,-0.05453837,0.3997585,-1.073044,-2.554471,1.688717
-2.421439E-08,5.188892,399,258,468,496,0.3807384,0.6622862,-1.130811,-1.448977,-3.027654,-1.621194,0.5650625,-0.04348657,0.4018909,-1.078196,-2.555317,1.683562
-2.421439E-08,5.200004,399,258,468,496,0.3684318,0.6952706,-1.08653,-1.452193,-3.034075,-1.632884,0.5487958,-0.07801914,0.3377736,-1.082223,-2.558915,1.681926
-2.421439E-08,5.211115,399,258,468,496,0.3630161,0.7124693,-1.011705,-1.455341,-3.040663,-1.643089,0.5354897,-0.09433559,0.3337002,-1.086454,-2.561154,1.678086
-2.421439E-08,5.222226,428,258,484,504,0.3602809,0.7174413,-0.9501261,-1.458724,-3.046857,-1.652881,0.5202925,-0.1136171,0.3564983,-1.090239,-2.563263,1.673213
-2.421439E-08,5.233337,428,258,484,504,0.3387338,0.7231258,-0.9149394,-1.461433,-3.052984,-1.663169,0.5157838,-0.1224787,0.3572817,-1.094477,-2.565558,1.668943
-2.421439E-08,5.244449,428,258,484,504,0.3291829,0.7115512,-0.8706867,-1.464286,-3.058694,-1.67256,0.4771203,-0.1852162,0.3220035,-1.096504,-2.569855,1.666403
-2.421439E-08,5.25556,428,258,484,504,0.3293242,0.7013938,-0.8330224,-1.467654,-3.064381,-1.681773,0.4226864,-0.2359273,0.2698655,-1.09775,-2.574268,1.665054
-2.421439E-08,5.266671,489,269,480,503,0.3283023,0.6736459,-0.7898217,-1.470934,-3.069435,-1.690459,0.4035073,-0.2411798,0.2441899,-1.099985,-2.577843,1.66308
-2.421439E-08,5.277782,489,269,480,503,0.3100396,0.6538193,-0.7438816,-1.473608,-3.074609,-1.698755,0.388782,-0.1993045,0.2457304,-1.103119,-2.579286,1.660077
-2.421439E-08,5.288894,489,269,480,503,0.2999054,0.6338536,-0.7102433,-1.476348,-3.079491,-1.706751,0.3653361,-0.1280031,0.2838208,-1.106381,-2.578572,1.655173
-2.421439E-08,5.300005,489,269,480,503,0.2941289,0.599156,-0.6621196,-1.47922,-3.083948,-1.713913,0.3126178,-0.08406401,0.3012634,-1.108269,-2.577662,1.650919
-2.421439E-08,5.311116,489,269,480,503,0.2791885,0.59267,-0.6224929,-1.481564,-3.088884,-1.720705,0.2796057,-0.05974424,0.2911354,-1.110086,-2.577658,1.647751
-2.421439E-08,5.322227,558,273,479,504,0.2628304,0.56049,-0.5471045,-1.483643,-3.093161,-1.72578,0.2663548,-0.04975995,0.2900459,-1.112204,-2.577666,1.644227
-2.421439E-08,5.333339,558,273,479,504,0.2543055,0.5434796,-0.4845171,-1.48595,-3.097857,-1.730753,0.2613482,-0.04316592,0.2998587,-1.11457,-2.577637,1.640309
-2.421439E-08,5.34445,558,273,479,504,0.2364033,0.5326133,-0.4346496,-1.487837,-3.102598,-1.735331,0.260922,-0.04672867,0.2875732,-1.116883,-2.578183,1.63714
-2.421439E-08,5.355561,558,273,479,504,0.2202453,0.5310971,-0.3997176,-1.489455,-3.107484,-1.740155,0.2539654,-0.07765742,0.2595457,-1.118582,-2.579902,1.634809
-2.421439E-08,5.366673,580,286,482,501,0.1979134,0.5177925,-0.3560199,-1.490768,-3.112098,-1.743985,0.2466459,-0.1101668,0.2401168,-1.119951,-2.581995,1.632545
-2.421439E-08,5.377784,580,286,482,501,0.1877963,0.4871832,-0.3040957,-1.492508,-3.116126,-1.747237,0.2174061,-0.1575107,0.1975618,-1.120079,-2.584938,1.631537
-2.421439E-08,5.388895,580,286,482,501,0.1836951,0.4592244,-0.2735887,-1.494196,-3.119962,-1.750273,0.2043525,-0.1638623,0.1656469,-1.120916,-2.587227,1.630604
-2.421439E-08,5.400006,580,286,482,501,0.1542436,0.4198092,-0.2220572,-1.494998,-3.123339,-1.752265,0.2073596,-0.14648,0.1173953,-1.122564,-2.589325,1.630658
-2.421439E-08,5.411118,580,286,482,501,0.1425701,0.3811315,-0.1913401,-1.495991,-3.126101,-1.754329,0.2085187,-0.1278306,0.1069352,-1.124249,-2.590673,1.629484
-2.421439E-08,5.422229,556,276,484,501,0.11397,0.3088696,-0.1216961,-1.496331,-3.127743,-1.754045,0.198879,-0.1045188,0.09119593,-1.1258,-2.591744,1.628861
-2.421439E-08,5.43334,556,276,484,501,0.1071076,0.2396283,-0.07764621,-1.497335,-3.128805,-1.754198,0.1599538,-0.104645,0.08297957,-1.125848,-2.592936,1.62815
-2.421439E-08,5.444451,556,276,484,501,0.09114269,0.1916973,-0.05091828,-1.49788,-3.12972,-1.754228,0.1258069,-0.1200732,0.06579213,-1.125499,-2.594647,1.627978
-2.421439E-08,5.455563,556,276,484,501,0.0768569,0.1171711,-0.01148309,-1.498346,-3.129572,-1.753361,0.0963262,-0.1482807,0.03139974,-1.124643,-2.597419,1.628895
-2.421439E-08,5.466674,556,276,484,501,0.07029059,0.0514751,0.02382196,-1.499026,-3.128774,-1.751955,0.09856384,-0.1680482,0.004140491,-1.124659,-2.600482,1.62985
-2.421439E-08,5.477785,507,259,487,502,0.05875289,0.01406118,0.04694309,-1.499328,-3.128466,-1.75083,0.1001233,-0.1754991,-0.01947317,-1.125052,-2.603398,1.630808
-2.421439E-08,5.488896,507,259,487,502,0.04528733,-0.02635197,0.07267658,-1.499526,-3.127453,-1.749059,0.08454266,-0.1755646,-0.03692953,-1.124693,-2.605798,1.631921
-2.421439E-08,5.500008,507,259,487,502,0.04175304,-0.04647224,0.08509003,-1.499947,-3.126833,-1.747668,0.04403842,-0.1588054,-0.06044385,-1.123577,-2.607171,1.633385
-2.421439E-08,5.511119,507,259,487,502,0.02386508,-0.08477008,0.1016844,-1.499717,-3.125199,-1.745634,0.0258847,-0.1454078,-0.07360613,-1.122903,-2.608751,1.634636
-2.421439E-08,5.52223,407,251,492,500,0.00841701,-0.1262878,0.1153759,-1.499494,-3.123106,-1.743645,0.002070934,-0.1262259,-0.08348933,-1.121978,-2.609825,1.63603
-2.421439E-08,5.533341,407,251,492,500,-0.005005732,-0.1684906,0.1290466,-1.499181,-3.120493,-1.74146,-0.02404758,-0.1182842,-0.08088679,-1.12064,-2.610801,1.636919
-2.421439E-08,5.544453,407,251,492,500,-0.01831067,-0.2012056,0.1364491,-1.498839,-3.117867,-1.739276,-0.0410371,-0.105059,-0.08167284,-1.119483,-2.61155,1.63802
-2.421439E-08,5.555564,407,251,492,500,-0.02551387,-0.2286362,0.134256,-1.498587,-3.114985,-1.737459,-0.06317224,-0.0655111,-0.07989635,-1.118525,-2.611052,1.639041
-2.421439E-08,5.566675,407,251,492,500,-0.03332131,-0.238741,0.1287107,-1.498264,-3.112428,-1.735767,-0.08502577,-0.02030862,-0.07843764,-1.117623,-2.609775,1.639863
-2.421439E-08,5.577786,332,270,492,493,-0.04435685,-0.261351,0.1233232,-1.497639,-3.109162,-1.734107,-0.1021826,0.007568337,-0.07960821,-1.116538,-2.608881,1.640886
-2.421439E-08,5.588898,332,270,492,493,-0.05809066,-0.2772338,0.1118541,-1.496858,-3.10596,-1.732664,-0.1050949,0.01461622,-0.07866763,-1.115602,-2.608349,1.6418
-2.421439E-08,5.600009,332,270,492,493,-0.06834772,-0.2854842,0.1022884,-1.496085,-3.102791,-1.731224,-0.107809,0.01935697,-0.06703312,-1.114568,-2.607796,1.642175
-2.421439E-08,5.61112,332,270,492,493,-0.07473605,-0.2884724,0.09072916,-1.495361,-3.099711,-1.729899,-0.1142656,0.0262709,-0.05608971,-1.113422,-2.606998,1.642588
-2.421439E-08,5.622231,271,245,495,502,-0.07567967,-0.292802,0.08215044,-1.494774,-3.096528,-1.728711,-0.1162008,0.03590839,-0.05093218,-1.112531,-2.605969,1.643017
-2.421439E-08,5.633343,271,245,495,502,-0.07784396,-0.2946968,0.07187718,-1.494106,-3.093354,-1.727766,-0.1157312,0.04099351,-0.05836511,-1.111548,-2.605253,1.64399
-2.421439E-08,5.644454,271,245,495,502,-0.07610108,-0.3000629,0.04971972,-1.493534,-3.089916,-1.727268,-0.1013974,0.04579638,-0.05976091,-1.11125,-2.604614,1.644714
-2.421439E-08,5.655565,271,245,495,502,-0.07640909,-0.2921714,0.02626543,-1.492918,-3.086824,-1.727175,-0.0846803,0.05304085,-0.0550288,-1.111117,-2.603972,1.645186
-2.421439E-08,5.666677,271,245,495,502,-0.07441105,-0.2752077,0.01163454,-1.492394,-3.084215,-1.727113,-0.0785521,0.0616451,-0.04631303,-1.11088,-2.602917,1.645414
-2.421439E-08,5.677788,208,282,497,502,-0.07829773,-0.2368851,0.02538841,-1.491501,-3.082652,-1.726088,-0.0762288,0.0705018,-0.03432721,-1.110533,-2.601701,1.645394
-2.421439E-08,5.688899,208,282,497,502,-0.07959487,-0.2129456,0.03121775,-1.4907,-3.081047,-1.725281,-0.08107965,0.07680363,-0.02279926,-1.109921,-2.600258,1.645262
-2.421439E-08,5.70001,208,282,497,502,-0.07862255,-0.1641597,0.04422852,-1.489893,-3.080687,-1.724365,-0.08198992,0.07839999,-0.01617684,-1.109486,-2.598991,1.6452
-2.421439E-08,5.711122,208,282,497,502,-0.07142818,-0.1072729,0.04823098,-1.489216,-3.080894,-1.72388,-0.06777062,0.07120793,-0.001038395,-1.109239,-2.598075,1.644709
-2.421439E-08,5.722233,149,253,498,508,-0.06466994,-0.07141505,0.05262638,-1.488735,-3.081095,-1.723248,-0.05302525,0.05017945,0.0019584,-1.109071,-2.597935,1.644562
-2.421439E-08,5.733344,149,253,498,508,-0.05685012,-0.02095352,0.06057749,-1.488223,-3.082388,-1.722545,-0.04740981,0.03418025,0.003018913,-1.108702,-2.597757,1.644527
-2.421439E-08,5.744455,149,253,498,508,-0.05399998,0.0122497,0.06537525,-1.48782,-3.083506,-1.721977,-0.05167062,0.02244312,0.005523598,-1.108039,-2.597503,1.644457
-2.421439E-08,5.755567,149,253,498,508,-0.04981969,0.0299243,0.06201775,-1.487322,-3.084233,-1.721547,-0.0644732,0.03811078,0.01300577,-1.107427,-2.596123,1.644105
-2.421439E-08,5.766678,149,253,498,508,-0.04625374,0.02782187,0.05384524,-1.486902,-3.084571,-1.72119,-0.07119481,0.06252069,0.02352529,-1.107138,-2.594247,1.643408
-2.421439E-08,5.777789,120,225,499,508,-0.04338327,0.01996837,0.04646171,-1.486499,-3.08462,-1.720877,-0.07341533,0.1028045,0.04240309,-1.107195,-2.591399,1.642277
-2.421439E-08,5.7889,120,225,499,508,-0.03245407,-0.01016235,0.03369077,-1.486598,-3.083732,-1.720625,-0.06822152,0.1281336,0.0459878,-1.107569,-2.588892,1.641436
-2.421439E-08,5.800012,120,225,499,508,-0.03089482,-0.04457216,0.02203311,-1.486376,-3.082325,-1.720435,-0.07050811,0.1384417,0.03879867,-1.107599,-2.5867,1.640815
-2.421439E-08,5.811123,120,225,499,508,-0.02871585,-0.08699766,0.007317777,-1.486294,-3.080287,-1.720456,-0.07007743,0.1267686,0.02511457,-1.107312,-2.585592,1.641045
-2.421439E-08,5.822234,120,225,499,508,-0.03020641,-0.1234479,-0.005968385,-1.486124,-3.077933,-1.720446,-0.06967942,0.1131167,0.01537217,-1.107038,-2.584458,1.641089
-2.421439E-08,5.833345,116,221,500,501,-0.02984587,-0.1431264,-0.01079276,-1.485936,-3.075883,-1.720429,-0.06989915,0.1026585,0.009270653,-1.106608,-2.583277,1.641173
-2.421439E-08,5.844457,116,221,500,501,-0.03172453,-0.1624218,-0.01332319,-1.485741,-3.07352,-1.720282,-0.07489663,0.08974011,-0.0001398269,-1.106045,-2.58237,1.641392
-2.421439E-08,5.855568,116,221,500,501,-0.02909216,-0.1717868,-0.0101007,-1.485585,-3.071488,-1.720029,-0.07653581,0.08829185,0.0009073857,-1.105699,-2.580978,1.641255
-2.421439E-08,5.866679,116,221,500,501,-0.02549855,-0.1808003,-0.003399379,-1.48563,-3.069448,-1.719485,-0.07397833,0.08155628,-0.006785013,-1.105358,-2.580019,1.641451
-2.421439E-08,5.87779,128,229,501,501,-0.02468517,-0.1794069,0.0002867351,-1.485542,-3.067554,-1.719092,-0.06967501,0.06967997,-0.01563498,-1.105011,-2.579464,1.641855
-2.421439E-08,5.888902,128,229,501,501,-0.02128168,-0.1669921,2.409564E-05,-1.485434,-3.066202,-1.718975,-0.06802174,0.06675837,-0.01591894,-1.104682,-2.57847,1.642047
-2.421439E-08,5.900013,128,229,501,501,-0.01607572,-0.1492858,0.001099098,-1.485568,-3.065085,-1.718828,-0.06263579,0.08301005,-0.009949642,-1.104773,-2.576926,1.64188
-2.421439E-08,5.911124,128,229,501,501,-0.01295845,-0.1332482,0.003908882,-1.485537,-3.064116,-1.718704,-0.05874594,0.09336373,-0.004660066,-1.104814,-2.575404,1.641707
-2.421439E-08,5.922235,128,229,501,501,-0.007496213,-0.1211736,0.01021666,-1.485758,-3.063158,-1.71834,-0.05314769,0.1029339,-0.001221446,-1.105045,-2.573852,1.641503
-2.421439E-08,5.933347,138,234,502,507,-0.004531655,-0.1176106,0.01005175,-1.485942,-3.061909,-1.718055,-0.04996024,0.1080396,-0.002385304,-1.105159,-2.57248,1.641504
-2.421439E-08,5.944458,138,234,502,507,-0.0001178905,-0.1046041,0.01214928,-1.486052,-3.061128,-1.7178,-0.0385331,0.09901381,-0.006033215,-1.105453,-2.571739,1.641626
-2.421439E-08,5.955569,138,234,502,507,0.004748826,-0.09804458,0.0138063,-1.486305,-3.060282,-1.717481,-0.0328821,0.0723574,-0.007907719,-1.105344,-2.571692,1.64186
-2.421439E-08,5.966681,138,234,502,507,0.008895963,-0.08089568,0.01689192,-1.486597,-3.059926,-1.717191,-0.03150221,0.05294838,-0.01309333,-1.105094,-2.571435,1.642189
-2.421439E-08,5.977792,153,246,501,500,0.01464425,-0.05637237,0.02173977,-1.4869,-3.059992,-1.716796,-0.03363873,0.04180797,-0.01207745,-1.104797,-2.571129,1.642289
-2.421439E-08,5.988903,153,246,501,500,0.01862795,-0.03740294,0.02629909,-1.48711,-3.060101,-1.71652,-0.02939137,0.03455631,-0.008738496,-1.104482,-2.570791,1.642248
-2.421439E-08,6.000014,153,246,501,500,0.02533901,-0.008750075,0.02330651,-1.487518,-3.060805,-1.716454,-0.02305513,0.03422625,-0.01146851,-1.104586,-2.570512,1.642459
-2.421439E-08,6.011126,153,246,501,500,0.02809908,-0.001338553,0.02069305,-1.487822,-3.060829,-1.716419,-0.01379758,0.03738474,-0.01240102,-1.104858,-2.570039,1.642492
-2.421439E-08,6.022237,153,246,501,500,0.02764072,0.003899245,0.02630546,-1.488152,-3.061057,-1.716014,-0.000802232,0.03636988,-0.008757993,-1.105358,-2.569833,1.642425
