ref,t,emg1,emg2,emg1raw,emg2raw,aDotS,bDotS,gDotS,aS,bS,gS,aDotSH,bDotSH,gDotSH,aSH,bSH,gSH
90,0,512,151,528,497,0.2906537,2.402,0.9794677,-1.320397,3.089448,-0.1585529,-0.6591363,-2.060774,0.5261963,-0.3175212,3.018804,2.843412
90,0.01111111,514,148,494,496,0.2411878,2.336289,0.9056302,-1.322722,3.088829,-0.1322004,-0.5823318,-1.998883,0.5186291,-0.306418,2.96386,2.90397
90,0.02222222,514,148,494,496,0.2024267,2.22085,0.8409646,-1.325382,3.089525,-0.1096599,-0.5442425,-1.954376,0.4104417,-0.2995731,2.905216,2.970093
90,0.03333334,514,148,494,496,0.2004172,2.082114,0.7606389,-1.328404,3.089266,-0.08830883,-0.5236765,-1.917818,0.4188201,-0.2909786,2.844875,3.037712
90,0.04444445,514,148,494,496,0.2102866,1.964718,0.6917198,-1.332415,3.089498,-0.06843845,-0.468218,-1.830029,0.4139189,-0.284612,2.78922,3.098963
90,0.05555556,514,148,494,496,0.1844003,1.815534,0.6624973,-1.334565,3.090784,-0.05054414,-0.4134326,-1.825276,0.3650332,-0.2814269,2.724147,-3.113076
90,0.06666667,565,153,475,501,0.150389,1.72655,0.6387824,-1.336411,3.092245,-0.03250654,-0.359725,-1.68671,0.3224198,-0.2791952,2.674186,-3.057957
90,0.07777778,565,153,475,501,0.05052733,1.569801,0.6092757,-1.336114,3.095635,-0.01865864,-0.3077533,-1.589148,0.2486615,-0.2796106,2.624799,-3.003364
90,0.08888889,565,153,475,501,0.01683736,1.481311,0.5668127,-1.337174,3.097007,-0.004511395,-0.2602268,-1.520339,0.2656882,-0.2783568,2.573141,-2.947299
90,0.1,565,153,475,501,-0.02500653,1.325557,0.5149138,-1.337071,3.099521,0.006383065,-0.2084976,-1.38634,0.2006904,-0.2800889,2.535351,-2.905921
90,0.1111111,540,185,508,497,-0.04604518,1.228043,0.4670492,-1.337149,3.101579,0.01809245,-0.1508946,-1.21038,-0.05737823,-0.2884235,2.513962,-2.880349
90,0.1222222,540,185,508,497,-0.07071841,1.092767,0.3997637,-1.336499,3.10292,0.0265123,-0.09320366,-1.176866,-0.2857933,-0.3008014,2.489161,-2.850718
90,0.1333333,540,185,508,497,-0.08743018,0.9883566,0.3413456,-1.335581,3.104045,0.03550633,-0.1497033,-1.162676,-0.1974568,-0.3026347,2.454357,-2.809312
90,0.1444445,540,185,508,497,-0.1355549,0.9071951,0.2832245,-1.333499,3.104934,0.04375893,0.01830554,-1.161307,-0.003514737,-0.3034427,2.404562,-2.76181
90,0.1555556,540,185,508,497,-0.1425503,0.8581939,0.2504572,-1.332356,3.106061,0.0520861,0.03574276,-0.8862903,0.011825,-0.3033814,2.397474,-2.755454
90,0.1666667,536,253,470,493,-0.119702,0.7435973,0.2229685,-1.332342,3.107166,0.05736129,0.04018503,-0.8058914,-0.01571351,-0.3068563,2.379924,-2.736323
90,0.1777778,536,253,470,493,-0.05406106,0.5741615,0.2262755,-1.333435,3.109073,0.05989077,-0.0265063,-0.6195077,-0.01205355,-0.3069724,2.375991,-2.729617
90,0.1888889,536,253,470,493,-0.03200084,0.5421684,0.2233011,-1.334238,3.110783,0.06526822,-0.04356408,-0.4891977,-0.0124384,-0.3077538,2.370933,-2.723258
90,0.2,536,253,470,493,0.07164437,0.41056,0.229791,-1.338409,3.112534,0.06596544,-0.05742717,-0.2874637,-0.01970536,-0.3069735,2.378741,-2.730567
90,0.2111111,709,249,511,506,0.1519661,0.3222503,0.24101,-1.342424,3.114613,0.0673572,-0.04535043,-0.2555407,-0.03966878,-0.308532,2.373249,-2.724058
90,0.2222222,709,249,511,506,0.211777,0.2645422,0.2494103,-1.346882,3.116501,0.06858439,-0.04774293,-0.2263212,-0.07392738,-0.3105608,2.371752,-2.721166
90,0.2333333,709,249,511,506,0.3114069,0.1932798,0.2682702,-1.353385,3.118772,0.06866588,-0.03901416,-0.2126292,-0.07585435,-0.3119313,2.367568,-2.715969
90,0.2444444,709,249,511,506,0.3721952,0.1547084,0.2777613,-1.359762,3.120858,0.0690073,-0.01514527,-0.1648778,-0.00827508,-0.310743,2.362982,-2.712089
90,0.2555556,709,249,511,506,0.4301368,0.1204056,0.2854935,-1.366494,3.123141,0.06910157,0.01583856,-0.1233403,0.007546589,-0.3106162,2.360966,-2.711139
90,0.2666667,713,233,529,502,0.473989,0.0952263,0.2749829,-1.373136,3.124665,0.06926882,0.002015725,-0.09613799,-0.01235163,-0.3112473,2.361541,-2.711139
90,0.2777778,713,233,529,502,0.510015,0.06169339,0.2563105,-1.380084,3.125981,0.06880809,-0.04005799,-0.04709383,-0.04254802,-0.3117006,2.367946,-2.715855
90,0.2888889,713,233,529,502,0.5300642,0.04121056,0.237749,-1.386778,3.12703,0.06851142,-0.06608462,-0.003501043,-0.02919043,-0.310744,2.372381,-2.719328
90,0.3,713,233,529,502,0.5248951,0.0261242,0.2174935,-1.392709,3.128196,0.06807253,-0.05574938,0.02564329,0.01288221,-0.3091168,2.373986,-2.721092
90,0.3111111,713,233,529,502,0.4626007,0.02018829,0.1820535,-1.396312,3.128932,0.06806081,-0.03812172,0.07483256,0.01038855,-0.3082396,2.37954,-2.727228
90,0.3222222,683,275,461,504,0.3837225,0.00219053,0.1423619,-1.398423,3.129146,0.06759742,-0.03721768,0.09071252,-0.02542939,-0.3085997,2.385835,-2.733287
90,0.3333333,683,275,461,504,0.3259584,-0.05542343,0.1074259,-1.400731,3.129453,0.06532521,-0.04128437,0.09120815,-0.05315147,-0.3091371,2.390877,-2.737764
90,0.3444445,683,275,461,504,0.2938771,-0.09540755,0.08749958,-1.403102,3.12974,0.06308283,-0.03619847,0.08682176,-0.03497948,-0.3087024,2.393406,-2.740226
90,0.3555556,683,275,461,504,0.252204,-0.1047107,0.06955912,-1.405127,3.130136,0.06168946,-0.01299378,0.08698133,0.02824377,-0.3065352,2.393885,-2.741925
90,0.3666667,732,298,477,505,0.2005275,-0.08256469,0.04594571,-1.40589,3.129902,0.06137415,-0.009024717,0.09302525,0.03961239,-0.3054284,2.396069,-2.744608
90,0.3777778,732,298,477,505,0.1616693,-0.0654435,0.0334968,-1.406836,3.129914,0.06104285,-0.02688576,0.08632465,0.007617643,-0.3056558,2.400948,-2.748595
90,0.3888889,732,298,477,505,0.09982988,-0.06791699,0.01720394,-1.406194,3.129923,0.06029716,-0.02694879,0.06751277,-0.02235739,-0.3064883,2.403598,-2.750774
90,0.4,732,298,477,505,0.08531076,-0.07560415,0.01402531,-1.406913,3.130244,0.05898369,-0.01084988,0.06371397,-0.009878734,-0.3062635,2.404133,-2.751943
90,0.4111111,732,298,477,505,0.08602762,-0.06880468,0.01043324,-1.408086,3.130065,0.05837915,0.005247395,0.05990074,0.002613613,-0.305782,2.404552,-2.753066
90,0.4222222,758,305,515,510,0.06371951,-0.03756906,-0.008490948,-1.408306,3.129665,0.05860019,0.006234109,0.07132673,0.01017778,-0.305112,2.406903,-2.755879
90,0.4333333,758,305,515,510,0.05128257,-0.02096996,-0.0071737,-1.408676,3.129872,0.05858368,0.006154828,0.07322592,0.005815435,-0.305227,2.410209,-2.759508
90,0.4444444,758,305,515,510,0.03929869,-0.02185765,-0.002220569,-1.408786,3.129981,0.0583211,0.01566187,0.07971226,-0.004518552,-0.305292,2.413318,-2.763204
90,0.4555556,758,305,515,510,0.04697756,-0.03451763,-0.00201687,-1.409639,3.130128,0.05732188,0.01578568,0.09016193,-0.01758815,-0.3055216,2.417794,-2.768123
90,0.4666667,708,271,466,505,0.06587738,-0.03698546,-0.003779586,-1.410842,3.129885,0.0568228,0.008372746,0.07248846,-0.0261749,-0.3059402,2.420071,-2.770201
90,0.4777778,708,271,466,505,0.09427359,-0.02373489,0.0003155395,-1.412896,3.129736,0.05685795,0.005953737,0.05456945,-0.007939873,-0.3055391,2.419813,-2.770054
90,0.4888889,708,271,466,505,0.1197269,-0.01581839,0.003042045,-1.415038,3.129552,0.0568276,0.002353165,0.04108836,0.02731567,-0.3043546,2.418834,-2.769358
90,0.5,708,271,466,505,0.1338023,-0.006822448,0.01326741,-1.416951,3.129668,0.05696075,0.01439872,0.05360104,0.02166802,-0.3039988,2.420537,-2.771758
90,0.5111111,708,271,466,505,0.1397722,-0.003729552,0.01568319,-1.418547,3.129956,0.05670349,0.01992729,0.05984727,0.0009503458,-0.3043317,2.42366,-2.775367
90,0.5222223,845,294,467,496,0.167443,0.002581829,0.01285384,-1.421125,3.129632,0.05686701,0.02177439,0.05247428,-0.03968865,-0.3056201,2.426694,-2.778447
90,0.5333334,845,294,467,496,0.170342,0.005063429,0.008962099,-1.423172,3.129429,0.05680203,0.02837973,0.04532026,-0.06001762,-0.3065985,2.429111,-2.781073
90,0.5444446,845,294,467,496,0.1813736,0.01550104,0.001984861,-1.425516,3.128865,0.05728246,0.02354957,0.02181088,-0.04214768,-0.3066918,2.427736,-2.779687
90,0.5555557,845,294,467,496,0.1883841,0.01963086,0.004444312,-1.427747,3.128837,0.05748806,0.02208848,0.01810548,-0.03801834,-0.3069975,2.428264,-2.780366
90,0.5666668,756,277,532,513,0.1801582,0.02276983,0.001724105,-1.429516,3.12851,0.05784705,0.01747931,0.01418705,-0.008489342,-0.3063493,2.427891,-2.780199
90,0.577778,756,277,532,513,0.1702234,0.02775467,0.002124744,-1.431239,3.12844,0.05805585,0.02059507,0.01019384,0.01051341,-0.3058816,2.426817,-2.77956
90,0.5888891,756,277,532,513,0.1464683,0.02502853,0.00149991,-1.432187,3.128431,0.05825931,0.02618233,0.01220257,0.007164631,-0.3060238,2.427509,-2.780769
90,0.6000003,756,277,532,513,0.1218664,0.02240735,-0.0002888348,-1.432902,3.128276,0.05843614,0.0383604,0.01802066,-0.0231613,-0.307023,2.429046,-2.782891
90,0.6111114,756,277,532,513,0.1061747,0.02223433,-0.003404776,-1.43371,3.12825,0.05846544,0.03913544,0.02844681,-0.03936039,-0.3076143,2.430897,-2.785177
90,0.6222225,688,255,481,505,0.08510202,0.02152877,-0.001000129,-1.434099,3.128237,0.05867743,0.03581851,0.03010554,-0.0442864,-0.3081597,2.432526,-2.787049
90,0.6333337,688,255,481,505,0.08029875,0.02228131,0.001342017,-1.434971,3.128294,0.05892936,0.03448708,0.03213277,-0.04127859,-0.308311,2.434284,-2.789306
90,0.6444448,688,255,481,505,0.08439768,0.01968636,0.008337648,-1.436042,3.128418,0.05906305,0.0273373,0.03311221,-0.02310167,-0.3079706,2.434956,-2.790243
90,0.655556,688,255,481,505,0.09350579,0.02326258,0.005865028,-1.437412,3.128158,0.05939116,0.01241866,0.01742495,-0.01371317,-0.3078763,2.434822,-2.789951
90,0.6666671,688,255,481,505,0.09560969,0.02326756,0.006149475,-1.438528,3.128065,0.05965374,0.008926807,0.0171838,-0.01326511,-0.3079397,2.435527,-2.790679
90,0.6777782,713,229,513,501,0.0881286,0.02782831,-0.0003964212,-1.439332,3.127818,0.0601411,0.01741759,0.007528997,-0.03104696,-0.3087589,2.436079,-2.791467
90,0.6888894,713,229,513,501,0.08108605,0.02743765,0.002507641,-1.440313,3.127798,0.0603712,0.01884429,0.0036272,-0.02964886,-0.3091941,2.436654,-2.79205
90,0.7000005,713,229,513,501,0.06491692,0.02455756,0.00794328,-1.440635,3.127982,0.06055123,0.02970426,0.006738581,-0.03199851,-0.3097011,2.436964,-2.792907
90,0.7111117,713,229,513,501,0.05841868,0.01690391,0.008289931,-1.441166,3.12795,0.06048784,0.02280923,0.0138746,-0.03661404,-0.3100058,2.438611,-2.794595
90,0.7222228,708,201,490,500,0.0521163,0.0179081,0.007168988,-1.441613,3.127971,0.06068812,0.01897473,0.01127289,-0.03511132,-0.3101741,2.43922,-2.795292
90,0.7333339,708,201,490,500,0.06230511,0.0193519,0.004747711,-1.44266,3.127798,0.06093845,0.02004677,0.005004307,-0.03264812,-0.3104447,2.438835,-2.795061
90,0.7444451,708,201,490,500,0.0705554,0.02579818,0.006657652,-1.443667,3.127762,0.06139492,0.01728882,-0.006244421,-0.01675574,-0.3104005,2.437296,-2.793617
90,0.7555562,708,201,490,500,0.07039701,0.02855691,0.01326398,-1.444574,3.128041,0.06169692,0.004813968,-0.005843429,0.01883502,-0.3091898,2.436282,-2.792551
90,0.7666674,708,201,490,500,0.05759001,0.03049918,0.01211387,-1.444861,3.128079,0.06210012,0.009176149,0.0005457802,0.01846352,-0.3092148,2.436555,-2.792996
90,0.7777785,730,250,508,497,0.03824973,0.02585685,0.01150476,-1.444829,3.12823,0.06217309,0.01168797,-0.0101618,-0.009087911,-0.3100873,2.436484,-2.792835
90,0.7888896,730,250,508,497,0.03136438,0.02665376,0.01353912,-1.445013,3.128393,0.0624964,0.0111204,-0.009198232,-0.02112866,-0.310735,2.436164,-2.79264
90,0.8000008,730,250,508,497,0.0254946,0.02176212,0.00452257,-1.445183,3.128183,0.06256618,0.007036618,0.003464066,-0.02857128,-0.3110817,2.438034,-2.794454
90,0.8111119,730,250,508,497,0.02270167,0.02008794,-0.003712344,-1.445399,3.127845,0.06279201,0.004415023,0.007037097,-0.003079888,-0.3101075,2.43793,-2.794624
90,0.8222231,606,227,488,495,0.01362376,0.0165424,-0.001277157,-1.44536,3.127902,0.06292091,0.0126527,0.01463947,0.0178584,-0.3094183,2.437577,-2.794852
90,0.8333342,606,227,488,495,0.01962378,0.01219857,0.00169457,-1.445921,3.127999,0.06281012,0.01780553,0.02145234,0.0187354,-0.3091211,2.438159,-2.795938
90,0.8444453,606,227,488,495,0.02758784,0.004627547,0.005890913,-1.446441,3.128128,0.06264074,0.01642629,0.01007418,0.001299552,-0.3097347,2.438237,-2.795943
90,0.8555565,606,227,488,495,0.03588743,0.0003767232,0.008173665,-1.447273,3.12815,0.06243941,0.01377243,0.008324325,-0.01866528,-0.3102934,2.439475,-2.797177
90,0.8666676,606,227,488,495,0.05900312,-0.001535805,0.01216622,-1.448626,3.128232,0.06233608,0.009407861,-0.0009059319,0.001231883,-0.3098769,2.438223,-2.79601
90,0.8777788,565,207,493,491,0.06397637,-0.005870028,0.01488383,-1.449611,3.128309,0.062196,0.008002199,0.001115641,0.01719318,-0.309307,2.437512,-2.795511
90,0.8888899,565,207,493,491,0.05988931,-0.005168956,0.01957547,-1.450235,3.128619,0.06206017,-0.007983107,0.003611418,0.01525309,-0.3090433,2.43841,-2.795992
90,0.900001,565,207,493,491,0.04530744,-0.004555707,0.0224229,-1.450403,3.128929,0.06201756,-0.02069025,0.008279499,0.009560669,-0.3088478,2.439626,-2.7967
90,0.9111122,565,207,493,491,0.03325645,-0.003414716,0.01708919,-1.450371,3.128879,0.0619888,-0.01971052,0.007275335,0.006522568,-0.3085006,2.440372,-2.797184
90,0.9222233,565,207,493,491,0.01579981,-0.00345051,0.01181166,-1.450052,3.128898,0.06195099,-0.01679903,0.008027662,0.001633944,-0.3085586,2.440926,-2.797633
90,0.9333345,516,195,518,509,0.01317941,-0.001153043,0.008231274,-1.450247,3.12883,0.06203088,-0.01725481,0.01284603,0.005817773,-0.308255,2.441673,-2.798293
90,0.9444456,516,195,518,509,0.006631397,-0.003086167,0.002606427,-1.450164,3.128696,0.06195258,-0.01144962,0.01577881,-0.0007432883,-0.3085645,2.442615,-2.799299
90,0.9555568,516,195,518,509,0.009266544,-0.005385521,0.006174767,-1.450451,3.128765,0.06175284,-0.01227325,0.01964957,-0.005303688,-0.3087291,2.444103,-2.800572
90,0.9666679,516,195,518,509,0.02940867,-0.009768869,0.01487312,-1.451385,3.129084,0.06150464,-0.009254239,0.02851889,-0.01028192,-0.3087829,2.446148,-2.802685
90,0.977779,534,185,508,498,0.06711606,-0.007649367,0.02804169,-1.453157,3.129375,0.061486,-0.007834332,0.02365032,-0.006694834,-0.3087051,2.446485,-2.803029
90,0.9888902,534,185,508,498,0.08495656,-0.005339142,0.03117509,-1.454582,3.129645,0.06145191,-0.0103087,0.02287819,-0.01690729,-0.3087424,2.448271,-2.804569
90,1.000001,534,185,508,498,0.1000204,-0.002935119,0.03160486,-1.456119,3.12982,0.06146096,-0.01980359,0.02400884,-0.02524909,-0.3089634,2.450325,-2.806113
90,1.011112,534,185,508,498,0.1089791,-0.001601145,0.02981739,-1.457507,3.129909,0.06147801,-0.02002596,0.0245275,-0.01878043,-0.308605,2.451594,-2.807166
90,1.022224,534,185,508,498,0.1012416,0.001422277,0.03073478,-1.45849,3.130196,0.06157015,-0.02130343,0.03466246,-0.01591605,-0.3084425,2.453748,-2.809214
90,1.033335,500,188,493,499,0.08443135,0.002340749,0.02789713,-1.45894,3.130358,0.06160211,-0.02402678,0.03918956,-0.01758763,-0.3082097,2.456321,-2.81165
90,1.044446,500,188,493,499,0.06621989,0.001742888,0.03341633,-1.459251,3.130862,0.06157122,-0.0246853,0.03159582,-0.02196747,-0.3084047,2.457497,-2.812477
90,1.055557,500,188,493,499,0.0563816,-0.01453697,0.03513767,-1.45968,3.131247,0.06090383,-0.01618167,0.0209799,-0.02452186,-0.3085299,2.458011,-2.812969
90,1.066668,500,188,493,499,0.04965301,-0.01901831,0.03697222,-1.460095,3.131686,0.06054217,-0.0117117,0.01253747,-0.01052414,-0.3083189,2.457383,-2.81238
90,1.077779,486,191,490,498,0.02474939,-0.01701607,0.03075938,-1.459833,3.131924,0.06036268,-0.01963983,0.01789877,0.007432656,-0.3073086,2.45821,-2.813189
90,1.08889,486,191,490,498,0.01638815,-0.01922335,0.02923648,-1.459855,3.132252,0.06013098,-0.01986147,0.02032676,0.009525372,-0.3069724,2.459778,-2.814664
90,1.100002,486,191,490,498,0.003375666,-0.02591,0.02992963,-1.459607,3.132649,0.05964629,-0.02693337,0.03328799,0.005816292,-0.3066145,2.462413,-2.817021
90,1.111113,486,191,490,498,0.005023576,-0.02892217,0.02677963,-1.45981,3.132829,0.05924894,-0.02614385,0.02942342,0.01036194,-0.3062092,2.463354,-2.817755
90,1.122224,486,191,490,498,0.0146977,-0.03948505,0.02776588,-1.460234,3.133136,0.05851178,-0.02451938,0.02932472,0.001987546,-0.3061932,2.464768,-2.818993
90,1.133335,486,181,493,501,0.01427331,-0.03500807,0.02360995,-1.460421,3.133296,0.05825718,-0.02743883,0.03482509,-0.0008297819,-0.3059738,2.467068,-2.820984
90,1.144446,486,181,493,501,0.02071205,-0.03170115,0.02375777,-1.460873,3.133518,0.0579866,-0.02287483,0.04120879,-0.01415481,-0.3062598,2.469815,-2.823646
90,1.155557,486,181,493,501,0.01506644,-0.02867468,0.02515285,-1.460915,3.133826,0.05776556,-0.02534397,0.03662392,-0.01569059,-0.3063855,2.471306,-2.824825
90,1.166668,486,181,493,501,0.01800745,-0.02551305,0.02687994,-1.461235,3.134144,0.05754505,-0.0298556,0.02882947,-0.005618619,-0.3060355,2.471819,-2.82498
90,1.17778,559,217,494,494,0.02254865,-0.02430736,0.02551784,-1.461588,3.134581,0.05714718,-0.02307577,0.01539626,0.006737799,-0.3056515,2.470978,-2.824184
90,1.188891,559,217,494,494,0.03056793,-0.02008662,0.02919446,-1.4622,3.13495,0.05701349,-0.01513943,0.009038862,0.01597141,-0.305292,2.470074,-2.823431
90,1.200002,559,217,494,494,0.03512122,-0.01029193,0.02722385,-1.462651,3.135214,0.05711735,-0.0161579,0.02256165,-0.008291767,-0.305797,2.472996,-2.826143
90,1.211113,559,217,494,494,0.03525376,-0.007052361,0.0263092,-1.463072,3.135312,0.05692773,-0.01664586,0.02167024,-0.01598626,-0.3060015,2.474574,-2.827494
90,1.222224,559,217,494,494,0.02530635,-0.008369971,0.02788018,-1.463117,3.135677,0.05678073,-0.01758799,0.0222282,-0.01835869,-0.3061469,2.475735,-2.828413
90,1.233335,528,198,504,498,0.01383343,-0.01379122,0.02575444,-1.463021,3.136109,0.05648884,-0.01958179,0.02524781,-0.01445171,-0.3059717,2.477174,-2.829642
90,1.244446,528,198,504,498,0.009193191,-0.02005372,0.02141821,-1.463032,3.13623,0.05612026,-0.01967544,0.02715169,-0.005805304,-0.3056238,2.478263,-2.830638
90,1.255558,528,198,504,498,0.01254521,-0.02102686,0.02081281,-1.463319,3.136444,0.05592585,-0.01903031,0.02180079,0.008518748,-0.3050289,2.47779,-2.830003
90,1.266669,528,198,504,498,0.01114911,-0.02008959,0.0227965,-1.463437,3.136745,0.05571386,-0.02482622,0.02221279,0.02584329,-0.3041154,2.477956,-2.830006
90,1.27778,528,198,504,498,0.0168472,-0.02239672,0.02789053,-1.463817,3.137362,0.05535433,-0.02007557,0.006557392,0.02262653,-0.3040883,2.477118,-2.828931
90,1.288891,491,180,488,492,0.01091247,-0.02161969,0.03130648,-1.463784,3.137794,0.05508376,-0.01941336,0.006045459,0.01407577,-0.3041506,2.477262,-2.828696
90,1.300002,491,180,488,492,-0.0005909279,-0.01634902,0.02870195,-1.463485,3.138087,0.05503263,-0.01780862,0.000673227,0.01119983,-0.3040989,2.477011,-2.828265
90,1.311113,491,180,488,492,-0.0299683,-0.006583983,0.01593367,-1.462214,3.138126,0.05523609,-0.02000955,-0.007313251,0.02173576,-0.3035961,2.475567,-2.826564
90,1.322224,491,180,488,492,-0.06982458,0.004870525,0.0079327,-1.460342,3.138172,0.05561,-0.01746457,-0.01085867,0.02228135,-0.3033921,2.47464,-2.825537
90,1.333336,474,187,517,506,-0.1085889,0.005616887,0.0004225606,-1.458106,3.138259,0.05550507,-0.01745765,-0.01085577,0.02228818,-0.3031444,2.474151,-2.824893
90,1.344447,474,187,517,506,-0.1220594,-0.005163736,-0.002611578,-1.456378,3.138373,0.05513915,-0.01745077,-0.0108529,0.02229496,-0.3028994,2.473666,-2.824253
90,1.355558,474,187,517,506,-0.1156971,-0.008319634,-0.001856412,-1.455307,3.138694,0.05492344,-0.01744387,-0.01085001,0.02230177,-0.3026528,2.473177,-2.823609
90,1.366669,474,187,517,506,-0.1023298,-0.001907035,0.001767753,-1.454598,3.138917,0.05508696,-0.0004981563,0.0007383744,0.012412,-0.3034656,2.476583,-2.827933
90,1.37778,474,187,517,506,-0.07119358,0.00892405,0.008711949,-1.454597,3.139107,0.05546885,-0.0002425727,-0.007399563,0.01038369,-0.3035146,2.473641,-2.825141
90,1.388891,488,203,496,493,-0.04884239,0.01243852,0.01050003,-1.454664,3.139227,0.0556867,2.863817E-06,-0.01218515,0.007232764,-0.3035561,2.472016,-2.824081
90,1.400002,488,203,496,493,-0.01080195,0.02034855,0.01517759,-1.455487,3.139256,0.05604409,0.004895702,-0.01063937,0.002739595,-0.3037388,2.472603,-2.824806
90,1.411114,488,203,496,493,0.007883079,0.02363717,0.01955574,-1.456044,3.139403,0.05624916,0.006042732,-0.0121729,0.006233922,-0.3039066,2.472001,-2.823926
90,1.422225,488,203,496,493,0.03515951,0.02745998,0.01777124,-1.4572,3.139392,0.05664543,0.01029538,-0.00916662,0.008107692,-0.3038203,2.471586,-2.823751
90,1.433336,476,186,515,498,0.06517292,0.0257734,0.01927198,-1.458642,3.139558,0.05667526,0.008824229,-0.006142678,-0.003065038,-0.3045341,2.472484,-2.824391
90,1.444447,476,186,515,498,0.08127052,0.02817098,0.01977131,-1.459915,3.139635,0.05703,0.001972569,0.002094316,-0.02186843,-0.3051056,2.474665,-2.826301
90,1.455558,476,186,515,498,0.09298967,0.03047073,0.02060556,-1.461187,3.139776,0.05741882,0.007896459,-0.0007277317,-0.0282718,-0.3055333,2.47506,-2.826732
90,1.466669,476,186,515,498,0.1018182,0.0274747,0.0195589,-1.462425,3.139766,0.05761536,0.008988084,-0.0008389801,-0.02154519,-0.3058246,2.473252,-2.825046
90,1.47778,476,186,515,498,0.1106719,0.02340798,0.01841941,-1.463898,3.139791,0.05776929,0.01041695,-0.005770588,-0.006011058,-0.3056084,2.472134,-2.824111
90,1.488891,576,180,498,495,0.1164436,0.02181527,0.0093539,-1.465346,3.139601,0.0579115,0.0109193,-0.009184707,0.004977631,-0.3053639,2.470936,-2.823068
90,1.500003,576,180,498,495,0.1042813,0.01434072,0.004785876,-1.466136,3.139293,0.05795092,0.003353487,-0.005732356,0.0002082038,-0.3051551,2.470591,-2.822433
90,1.511114,576,180,498,495,0.08488416,0.01188829,0.004797851,-1.466587,3.139279,0.05804626,0.0004277368,-0.0002466856,-0.002602123,-0.3053969,2.471442,-2.82305
90,1.522225,576,180,498,495,0.06354341,0.009474521,0.003467479,-1.466702,3.139281,0.05809153,0.0036943,-0.004758676,-0.01602072,-0.30601,2.471519,-2.823091
90,1.533336,576,180,498,495,0.04633715,0.008460307,-0.003614118,-1.466773,3.139031,0.0581448,0.005244947,-0.006315169,-0.01461545,-0.3062673,2.470921,-2.822287
90,1.544447,552,180,464,496,0.02076828,0.004193859,-0.0121599,-1.466205,3.138715,0.05808887,0.009520046,0.001444194,0.001319244,-0.3058859,2.471,-2.822724
90,1.555558,552,180,464,496,0.005523842,0.002091371,-0.01791515,-1.465836,3.138366,0.05804413,0.01725304,0.003720088,0.004969205,-0.306084,2.470463,-2.822643
90,1.566669,552,180,464,496,-0.0008526361,-0.004392134,-0.01817552,-1.465638,3.138167,0.05785877,0.01484798,0.006746037,0.01097367,-0.3057927,2.470443,-2.822821
90,1.577781,552,180,464,496,0.003202423,-0.00547754,-0.01650596,-1.465791,3.138061,0.05770644,0.008809856,0.01102969,0.008657887,-0.3059248,2.471343,-2.823709
90,1.588892,547,174,505,494,0.007289786,-0.008685721,-0.01494591,-1.465952,3.137906,0.05754185,0.004685569,0.009890446,0.01437698,-0.3056073,2.471256,-2.82365
90,1.600003,547,174,505,494,0.003721853,-0.01419025,-0.01254868,-1.465953,3.137887,0.05722388,0.01694932,-0.009223492,0.02891955,-0.3054273,2.468422,-2.821359
90,1.611114,547,174,505,494,-0.00644195,-0.01235456,-0.009746147,-1.465575,3.137878,0.0571328,0.01647873,-0.01154003,0.01799968,-0.3057842,2.467509,-2.82052
90,1.622225,547,174,505,494,-0.01184984,-0.0135139,-0.009586775,-1.465308,3.137789,0.05693199,0.01308477,-0.01172756,0.005407865,-0.3061101,2.467531,-2.820463
90,1.633336,547,174,505,494,-0.01909556,-0.01032573,-0.0116619,-1.46488,3.137579,0.05693945,0.004466006,-0.001527594,0.003607121,-0.3059493,2.468456,-2.821211
90,1.644447,492,221,512,501,-0.01999542,-0.009213694,-0.01283163,-1.464656,3.13741,0.05686861,0.0001617149,0.007882752,-0.0006013128,-0.3058715,2.469796,-2.822487
90,1.655559,492,221,512,501,-0.01427043,-0.006871894,-0.01503785,-1.464635,3.137246,0.0569256,0.0009612991,0.01453175,-0.007033582,-0.3058513,2.471054,-2.823817
90,1.66667,492,221,512,501,-0.0003282698,-0.01021427,-0.007602209,-1.464993,3.137316,0.05672267,0.005511123,0.01229556,-0.01371968,-0.3062907,2.471758,-2.824548
90,1.677781,492,221,512,501,0.02019737,-0.009137387,-0.001065367,-1.465809,3.137547,0.05666674,0.006592927,0.007457117,-0.02104768,-0.3067365,2.472044,-2.824804
90,1.688892,412,194,509,496,0.04186532,-0.002678015,0.004798788,-1.466827,3.137666,0.05678552,0.005603105,0.001785212,-0.01574687,-0.3068217,2.471833,-2.824535
90,1.700003,412,194,509,496,0.062564,-0.0004774637,0.0102246,-1.468067,3.13779,0.05682174,-0.003838106,0.003424766,-0.006764463,-0.306549,2.47218,-2.824668
90,1.711114,412,194,509,496,0.07051086,-0.0005625067,0.01461936,-1.469012,3.137999,0.0567461,-0.01060932,0.0005853763,-0.008065855,-0.3067908,2.472305,-2.824508
90,1.722225,412,194,509,496,0.07089788,0.001379135,0.01903152,-1.469842,3.138258,0.05681588,-0.009615871,0.006260281,-0.01337579,-0.3069799,2.473619,-2.825736
90,1.733337,412,194,509,496,0.06876544,0.003496618,0.01877838,-1.470448,3.138534,0.05691015,-0.0100557,0.008675604,-0.01023531,-0.3068926,2.474212,-2.826203
90,1.744448,430,171,502,497,0.0546503,0.004633633,0.01235663,-1.470626,3.138475,0.05700549,-0.002668886,0.007162558,-0.008760091,-0.3069639,2.474115,-2.826286
90,1.755559,430,171,502,497,0.04587087,0.006596663,0.01326104,-1.470848,3.138637,0.05713386,-0.003634617,-0.005206314,-0.001198914,-0.3069314,2.472847,-2.824971
90,1.76667,430,171,502,497,0.0290086,0.007514182,0.01073921,-1.470785,3.138733,0.05718499,-0.005966615,-0.005029729,-0.001661929,-0.3069469,2.473116,-2.825051
90,1.777781,430,171,502,497,0.01375024,0.009375083,0.01173866,-1.470599,3.138898,0.057381,-0.004762891,-0.004117318,-0.02207764,-0.3077943,2.474344,-2.82605
90,1.788892,412,177,498,501,0.004386365,0.01253131,0.009374461,-1.470512,3.138959,0.05753547,-0.008884046,0.003355897,-0.0229939,-0.3079946,2.475682,-2.827194
90,1.800003,412,177,498,501,-0.01026416,0.01670864,0.006239685,-1.470026,3.138989,0.0578364,-0.009832405,0.005305745,-0.01016969,-0.3077485,2.475661,-2.827134
90,1.811115,412,177,498,501,-0.01415463,0.01677488,0.003479498,-1.469804,3.138996,0.05809579,-0.004120191,0.002942539,0.001855182,-0.3074465,2.474946,-2.826587
90,1.822226,412,177,498,501,-0.01515948,0.01357243,0.003175291,-1.469604,3.13904,0.05814267,0.002471277,-0.009516982,0.01307902,-0.3072574,2.472872,-2.824687
90,1.833337,412,177,498,501,-0.004958516,0.01357337,0.006903321,-1.469823,3.139153,0.0583472,0.00586362,-0.007829681,0.003956598,-0.3074992,2.473121,-2.825065
90,1.844448,383,175,504,502,0.007130386,0.0127539,0.005490302,-1.470256,3.139131,0.05843242,0.005715443,-0.01829374,-0.008973846,-0.3080713,2.472343,-2.82411
90,1.855559,383,175,504,502,0.0195692,0.01494708,0.008570543,-1.470756,3.139225,0.05862896,-0.003355962,-0.0157081,-0.01622652,-0.3084521,2.472645,-2.8241
90,1.86667,383,175,504,502,0.02475591,0.02031817,0.009592377,-1.471171,3.139325,0.0589741,-0.01281332,-0.009774866,-0.01055444,-0.3081469,2.472769,-2.823972
90,1.877781,383,175,504,502,0.02474057,0.02138302,0.009620665,-1.47144,3.139327,0.05919035,-0.01655522,-0.01190286,-0.004744462,-0.3080361,2.472362,-2.823263
90,1.888893,409,191,511,499,0.02342831,0.02265847,0.004070953,-1.471631,3.13918,0.05948064,-0.01158253,-0.009412681,0.0005410048,-0.3080649,2.472186,-2.822972
90,1.900004,409,191,511,499,0.005592718,0.01824801,0.001149154,-1.471163,3.139222,0.05958983,0.003098425,-0.005681405,-0.01073183,-0.308508,2.47238,-2.823475
90,1.911115,409,191,511,499,4.592538E-05,0.01598004,0.002343903,-1.471181,3.139237,0.0596825,0.003712255,-0.003779862,-0.03018697,-0.3093821,2.473398,-2.824289
90,1.922226,409,191,511,499,-0.002802961,0.01710722,-0.000208583,-1.471049,3.139157,0.05990834,0.00774252,-0.00739855,-0.03694591,-0.3100457,2.473399,-2.824296
90,1.933337,409,191,511,499,0.006300366,0.02029385,0.003479167,-1.471431,3.139201,0.06017892,0.007448107,-0.0121724,-0.02499963,-0.3101038,2.472626,-2.823484
90,1.944448,421,182,497,499,0.01563082,0.01927038,0.005943622,-1.471876,3.139284,0.0603451,0.003558709,-0.01335884,-0.008378698,-0.3097928,2.471619,-2.822456
90,1.955559,421,182,497,499,0.02474477,0.02246714,0.009608068,-1.47252,3.139337,0.06066788,-0.00130405,-0.001080147,-0.004062617,-0.3095275,2.472632,-2.823313
90,1.966671,421,182,497,499,0.02970882,0.02137288,0.01245855,-1.473009,3.139427,0.06089904,0.001059082,0.0006691157,-0.007960656,-0.3097619,2.473009,-2.823734
90,1.977782,421,182,497,499,0.04004833,0.0184768,0.008501873,-1.47372,3.139349,0.06101728,0.005922112,-0.001062538,-0.0352195,-0.3109603,2.474261,-2.824878
90,1.988893,421,182,497,499,0.04946452,0.01213704,0.01073275,-1.474491,3.139534,0.06098319,0.01063921,-0.008075698,-0.03200831,-0.3111808,2.473483,-2.824305
90,2.000004,425,175,508,500,0.05325141,0.01339123,0.007008099,-1.475094,3.139409,0.06116322,0.01044175,-0.008061539,-0.0309603,-0.3115355,2.473501,-2.824322
90,2.011115,425,175,508,500,0.04872832,0.01326548,0.008440139,-1.475576,3.139479,0.06118027,0.00811523,-0.01413326,-0.01179861,-0.3112468,2.472291,-2.823127
90,2.022226,425,175,508,500,0.041746,0.01518095,0.01175047,-1.475896,3.139682,0.06132461,-0.00177237,-0.007245458,-0.006250083,-0.3110625,2.473027,-2.823644
90,2.033337,425,175,508,500,0.0307325,0.01497933,0.01330417,-1.475965,3.139799,0.06153873,-0.0007467186,-0.008269884,-0.009288613,-0.3112468,2.472839,-2.823382
90,2.044448,452,199,485,491,0.0270022,0.01505614,0.009498028,-1.4762,3.139759,0.06165857,0.003949913,-0.006676037,-0.01271994,-0.3115542,2.473061,-2.823689
90,2.055559,452,199,485,491,0.03943155,0.01215817,0.005847202,-1.476902,3.139577,0.0617651,0.0120866,-0.008672003,-0.007808626,-0.3116197,2.471976,-2.823002
90,2.06667,452,199,485,491,0.04994136,0.01438412,0.007465411,-1.477754,3.139645,0.06198667,0.01240493,-0.004871665,-0.005618314,-0.3116308,2.472012,-2.823298
90,2.077781,452,199,485,491,0.05117249,0.01336304,0.006493666,-1.478354,3.139483,0.06210864,0.001042771,-0.00456102,-0.01440535,-0.3119052,2.472675,-2.823612
90,2.088892,452,199,485,491,0.04820979,0.01849619,0.01157498,-1.478838,3.139534,0.06243355,-0.005043898,-0.002235663,-0.01239072,-0.3119078,2.473144,-2.823878
90,2.100003,444,198,482,496,0.03954254,0.01302913,0.01224307,-1.479057,3.139666,0.0624213,-0.0001770556,-0.007827476,-0.007002086,-0.3119552,2.472194,-2.823031
90,2.111114,444,198,482,496,0.02396177,0.008649467,0.008699153,-1.478985,3.139726,0.06223701,0.007579032,-0.002623541,-0.009874661,-0.3123835,2.47237,-2.823525
90,2.122225,444,198,482,496,0.01685403,0.00458417,-0.001117064,-1.47907,3.139466,0.06212676,0.00716347,-0.002599953,-0.007782405,-0.3124101,2.471968,-2.823181
90,2.133336,444,198,482,496,0.0141926,0.002528281,-0.004814951,-1.479144,3.1393,0.06210491,0.007808059,-0.006939486,-0.007599235,-0.3125784,2.471394,-2.822644
90,2.144447,487,218,493,498,0.01554511,0.003668077,-0.006733896,-1.479368,3.139165,0.06219972,0.002111479,-0.00989362,-0.01413542,-0.3129688,2.471548,-2.822558
90,2.155558,487,218,493,498,0.008449277,0.002370551,-0.002443823,-1.479206,3.139259,0.06208361,-0.005541268,-0.007959276,0.002782795,-0.3124367,2.471078,-2.821952
90,2.166669,487,218,493,498,0.009046854,0.001212608,0.0008387768,-1.479334,3.139352,0.06204739,-0.003093356,-0.002395691,0.002115244,-0.3123787,2.471463,-2.822292
90,2.17778,487,218,493,498,0.001845601,0.0001199498,-0.001338994,-1.479197,3.139373,0.06205698,0.008312955,-0.006037471,0.01203537,-0.3121731,2.470075,-2.82132
90,2.188891,487,218,493,498,-0.005283586,-0.00630019,-0.003684991,-1.478972,3.139364,0.06179706,0.01266225,0.001323884,-0.002395984,-0.3126008,2.471074,-2.822435
90,2.200002,520,222,562,507,-0.006577606,-0.008272376,-0.00933311,-1.47884,3.139109,0.06166336,0.008435377,0.00782712,-0.01309781,-0.3129348,2.472549,-2.823783
90,2.211113,520,222,562,507,0.002314963,-0.008091965,-0.01122966,-1.479053,3.139001,0.06162661,0.006654555,0.008425402,-0.01128599,-0.3129267,2.472929,-2.824245
90,2.222224,520,222,562,507,0.004720172,-0.006941512,-0.01298908,-1.479165,3.138806,0.06156057,-0.008950235,0.01042186,0.004034649,-0.3123057,2.47324,-2.824254
90,2.233335,520,222,562,507,0.01297553,-0.005840435,-0.01064891,-1.479556,3.138745,0.06152808,-0.01698475,0.007125426,0.02855004,-0.3114354,2.472085,-2.822901
90,2.244446,520,222,562,507,0.01415636,-0.00709107,-0.004045832,-1.479689,3.13897,0.0614306,-0.003718119,0.01386507,0.01807112,-0.3114503,2.47278,-2.823963
90,2.255557,579,217,504,495,0.01959052,-0.008077137,-0.004358114,-1.479986,3.13889,0.06130437,0.004008176,0.01240497,-0.006439229,-0.3122077,2.473556,-2.824816
90,2.266668,579,217,504,495,0.02062066,-0.007009757,-0.004169116,-1.480117,3.13892,0.06116269,0.01541151,0.01596887,-0.03026527,-0.3131153,2.475326,-2.826883
90,2.277779,579,217,504,495,0.02817768,-0.009043048,-0.004215985,-1.480642,3.138822,0.06100556,0.02154399,0.01461502,-0.03443412,-0.3136847,2.476003,-2.827852
90,2.28889,579,217,504,495,0.03696625,-0.0131626,-0.005233269,-1.481234,3.138792,0.06077493,0.02168847,0.0203176,-0.02360176,-0.3135979,2.47652,-2.8287
90,2.300001,508,210,490,496,0.04207963,-0.01315469,-0.003436683,-1.481848,3.138774,0.06062686,0.0006842259,0.01882967,0.002594469,-0.3126828,2.476583,-2.82843
90,2.311112,508,210,490,496,0.04075564,-0.01642413,-0.001591177,-1.482196,3.138879,0.06038771,-0.0008378495,0.01937087,0.02727836,-0.3117102,2.476122,-2.828137
90,2.322223,508,210,490,496,0.02933815,-0.01862383,-0.004395859,-1.482211,3.138779,0.0601134,0.005254554,0.0170403,0.02527323,-0.3115664,2.476103,-2.828437
90,2.333334,508,210,490,496,0.01261737,-0.01872935,-0.007885274,-1.481828,3.1387,0.05997812,0.008927826,0.01632825,0.01407473,-0.3117139,2.47656,-2.829131
90,2.344445,508,210,490,496,0.003005305,-0.02097194,-0.008275578,-1.481629,3.138656,0.05968304,0.009139358,0.004413362,-0.003124237,-0.3123339,2.476382,-2.828849
90,2.355556,470,185,503,501,-0.01537922,-0.01885703,-0.01518987,-1.48099,3.138337,0.05962605,0.001790529,0.006816445,0.005140188,-0.3120548,2.47665,-2.829135
90,2.366668,470,185,503,501,-0.01961022,-0.01782239,-0.01578358,-1.480639,3.138152,0.05946892,-0.001800831,0.007051155,0.01093332,-0.3117502,2.476534,-2.828961
90,2.377779,470,185,503,501,-0.02749651,-0.0137289,-0.01357941,-1.480122,3.138103,0.05944282,-0.001214246,0.009401563,0.008849623,-0.3116687,2.476988,-2.82947
90,2.38889,470,185,503,501,-0.02646706,-0.01158568,-0.01336585,-1.479916,3.137985,0.05939329,-0.001212474,0.009401269,0.008850178,-0.311544,2.477178,-2.829698
90,2.400001,456,197,486,496,-0.02167043,-0.0105826,-0.009404263,-1.479816,3.138009,0.05930114,-0.001210727,0.009400981,0.008850724,-0.311421,2.477366,-2.829922
90,2.411112,456,197,486,496,0.0007634079,-0.01032294,-0.008278769,-1.480362,3.137927,0.05912803,0.00787192,0.02074065,-0.007913275,-0.3123116,2.481133,-2.834107
90,2.422223,456,197,486,496,0.02047867,-0.008918776,-0.01077227,-1.481,3.137626,0.05912537,0.01272132,0.003210113,-0.006727087,-0.312539,2.479081,-2.832043
90,2.433334,456,197,486,496,0.03832185,-0.003684628,-0.0005149443,-1.481931,3.137816,0.0592042,0.008233973,0.001608321,-0.004364676,-0.3125848,2.478239,-2.831495
90,2.444445,456,197,486,496,0.04192356,-0.002720607,0.004318491,-1.48245,3.137973,0.05918769,0.0004686229,0.01360326,-0.002827648,-0.3125422,2.481615,-2.833989
90,2.455556,529,195,448,495,0.05004184,-0.000803344,0.01518852,-1.483228,3.138339,0.05923296,0.002329642,0.0201581,-0.002524269,-0.3124916,2.482904,-2.835117
90,2.466667,529,195,448,495,0.04796898,-0.002944452,0.01480032,-1.483696,3.138401,0.05917704,0.004021765,0.01574982,-0.007566433,-0.3129848,2.482439,-2.834607
90,2.477778,529,195,448,495,0.04071159,-0.001693207,0.005194147,-1.483919,3.138169,0.05922178,0.0095171,0.002464743,-0.0008490707,-0.3129907,2.481077,-2.83345
90,2.488889,529,195,448,495,0.03040469,0.002539006,0.00172208,-1.483936,3.138168,0.05935334,0.001757541,-0.007038791,0.005290191,-0.3128543,2.480294,-2.832851
90,2.5,463,201,480,495,0.01789764,0.002460987,-0.001123076,-1.483852,3.138077,0.05938636,-0.001984071,-0.003917386,0.005577092,-0.312752,2.480271,-2.832757
90,2.511111,463,201,480,495,0.01624818,0.002330232,0.002945356,-1.484025,3.138238,0.05947691,0.00256257,-0.0003998405,-0.001153852,-0.3132623,2.480353,-2.832878
90,2.522222,463,201,480,495,0.02120618,0.003372402,0.005821005,-1.484334,3.138315,0.05945987,0.001818161,0.006847677,-0.01879292,-0.313796,2.48193,-2.834357
90,2.533333,463,201,480,495,0.03200062,0.007787316,0.005302415,-1.484969,3.138285,0.05966333,-0.008285382,-0.004408004,-0.0207384,-0.3143255,2.4817,-2.833954
90,2.544444,463,201,480,495,0.04084957,0.01008318,0.003366768,-1.485501,3.138243,0.05985188,-0.007088278,-0.00116977,-0.004215238,-0.3139068,2.481512,-2.833849
90,2.555555,471,190,499,495,0.04174557,0.01112729,0.004577007,-1.485988,3.138284,0.06000901,-0.001437568,0.0008208208,0.004535188,-0.3135286,2.481067,-2.833763
90,2.566666,471,190,499,495,0.03590723,0.008842848,0.007995453,-1.486224,3.138434,0.06012193,0.001348417,-0.007015244,0.007376304,-0.3134908,2.479557,-2.832267
90,2.577777,471,190,499,495,0.02807091,0.007818874,0.002565059,-1.486328,3.138305,0.06018904,0.007014129,-0.001639169,-0.008926479,-0.3139585,2.480349,-2.833187
90,2.588888,471,190,499,495,0.01753054,0.006661545,0.00106196,-1.486215,3.138269,0.06024497,-0.002922237,-0.007152669,-0.02395036,-0.314595,2.480987,-2.833485
90,2.599999,471,190,499,495,-0.003353307,0.01291838,-0.003841481,-1.485629,3.138153,0.06049051,-0.005761317,-0.009842146,-0.01579762,-0.3145795,2.480601,-2.832925
90,2.61111,474,181,506,494,-0.01372399,0.01072594,-0.006442004,-1.485239,3.138069,0.06057626,-0.001833643,-0.00344061,-0.002020551,-0.3142658,2.480213,-2.832829
90,2.622221,474,181,506,494,-0.02379879,0.009459234,-0.00360639,-1.484756,3.138119,0.06061728,-0.00595477,-0.002688232,-0.0006987306,-0.3141795,2.48035,-2.832792
90,2.633332,474,181,506,494,-0.02817786,0.01046023,-0.003141855,-1.484337,3.13808,0.06082394,-0.003873904,0.0005137473,-0.0003093558,-0.3140991,2.480602,-2.832921
90,2.644443,474,181,506,494,-0.02880615,0.01267095,-0.006409725,-1.484014,3.137992,0.06104977,-0.006392647,0.005938173,-0.005247315,-0.3143041,2.481324,-2.833442
90,2.655554,474,188,513,500,-0.02393172,0.008368089,-0.002607778,-1.48386,3.138075,0.06104285,0.002251834,0.003452155,-0.007793592,-0.3145252,2.48121,-2.833511
90,2.666665,474,188,513,500,-0.02394022,0.009432095,-0.002591157,-1.483667,3.138001,0.06117281,0.004854775,-0.003412318,-0.006088498,-0.3146732,2.480023,-2.832438
90,2.677776,474,188,513,500,-0.01158926,0.00948493,0.001334586,-1.483899,3.138116,0.06126655,0.0007073707,-0.00361902,-0.002586237,-0.3146099,2.479895,-2.832225
90,2.688887,474,188,513,500,-0.006264572,0.005267751,0.001979741,-1.483931,3.138155,0.06113659,0.0005124183,-0.0131484,-0.004686981,-0.3148996,2.479268,-2.831573
90,2.699998,474,188,513,500,-0.004608766,0.005196655,0.005444067,-1.483942,3.138321,0.06119465,-0.00389494,-0.01619986,-0.005550431,-0.3150184,2.478712,-2.830775
90,2.711109,496,167,485,500,0.0005083354,0.006483665,-0.0002458375,-1.484159,3.138172,0.06138799,-0.01096057,-0.01430625,-0.003751469,-0.3149002,2.478447,-2.830262
90,2.72222,496,167,485,500,0.0048885,0.005488616,-0.0007247489,-1.484298,3.138136,0.06144126,-0.005407936,-0.01706724,0.003944881,-0.3147776,2.47726,-2.829177
90,2.733331,496,167,485,500,0.004125454,0.00660708,-0.002959337,-1.484343,3.138005,0.06162022,-0.005819828,-0.006542811,0.006994802,-0.3145124,2.477106,-2.829183
90,2.744442,496,167,485,500,0.004705708,0.0086562,0.0004047996,-1.484497,3.138063,0.06172195,-0.005581109,-0.005607311,0.003773821,-0.3145625,2.476502,-2.828497
90,2.755553,537,169,479,498,0.003950629,0.008512489,0.005674704,-1.484536,3.138228,0.06179918,-0.005744847,0.0006262511,-0.01482632,-0.3150786,2.477888,-2.829705
90,2.766664,537,169,479,498,-0.0008708509,0.008542398,0.001755845,-1.484366,3.138139,0.06177628,-0.005317505,0.004904484,-0.02023706,-0.3153737,2.479073,-2.830822
90,2.777775,537,169,479,498,-0.004061596,0.01064382,0.001353979,-1.48426,3.138164,0.06196377,-0.0080249,0.01224419,-0.01653614,-0.3153135,2.480313,-2.831987
90,2.788886,537,169,479,498,-0.003597438,0.009660516,-0.001838058,-1.484169,3.138012,0.06198294,-0.01462297,0.01077234,-0.0157054,-0.3153662,2.481206,-2.832628
90,2.799997,537,169,479,498,-0.003458101,0.0107531,-0.002866528,-1.484153,3.137949,0.06213048,-0.009012066,0.003210588,0.01382669,-0.314563,2.479523,-2.831201
90,2.811108,397,161,515,504,-0.003882631,0.008539666,0.0002473984,-1.484166,3.138139,0.06217789,-0.004199837,1.924671E-05,0.02029627,-0.3140416,2.47833,-2.830175
90,2.822219,397,161,515,504,-0.002548327,0.009481805,0.005846981,-1.484161,3.138335,0.06229879,-0.0004046983,-0.001183028,0.01564769,-0.3140325,2.478059,-2.830012
90,2.83333,397,161,515,504,-0.003674365,0.004311424,-0.0009153063,-1.484114,3.13812,0.06222422,0.008293193,-0.002672897,-0.01299387,-0.3149726,2.478862,-2.830876
90,2.844441,397,161,515,504,0.0008502614,0.004403782,-0.002411773,-1.484279,3.138086,0.06224127,0.01328288,-0.007768543,-0.01517122,-0.3153332,2.478271,-2.830443
90,2.855552,397,161,515,504,0.001015537,0.003367389,-0.003492792,-1.484287,3.137985,0.06225565,0.00791361,-0.02079152,-0.007411728,-0.3153907,2.476456,-2.828482
90,2.866663,418,174,504,501,-0.006018089,0.0001526312,-0.006744259,-1.484054,3.137872,0.06199146,0.001383904,-0.01750537,0.006446086,-0.3146354,2.476208,-2.828303
90,2.877774,418,174,504,501,-0.01690213,0.003195202,-0.006083523,-1.483573,3.137862,0.06212569,-0.006341706,-0.001734175,0.02316122,-0.3137459,2.476759,-2.82885
90,2.888885,418,174,504,501,-0.03279499,-0.002302325,-0.007485704,-1.482801,3.137704,0.06190038,0.001940724,0.003936471,0.01064706,-0.3138035,2.477525,-2.829776
90,2.899997,418,174,504,501,-0.0230761,-0.00857092,-0.007334211,-1.482749,3.137602,0.06171823,0.00190119,0.002039653,0.003052445,-0.3139574,2.477676,-2.829898
90,2.911108,536,214,518,501,-0.01348962,-0.00419157,-0.006890978,-1.482845,3.137558,0.06187482,0.009287613,0.0005954839,0.004580321,-0.3137486,2.477548,-2.83009
90,2.922219,536,214,518,501,-0.004905043,-0.00535251,0.0007854709,-1.483023,3.137772,0.06179706,0.01339224,-0.001094797,-0.006518637,-0.3141646,2.477406,-2.830066
90,2.93333,536,214,518,501,0.01407438,-0.005177307,0.003530073,-1.483689,3.137782,0.06177628,-0.003245148,-0.0004685242,-0.001217262,-0.3138892,2.477682,-2.829956
90,2.944441,536,214,518,501,0.01888471,-0.003952761,-5.980546E-05,-1.483927,3.137542,0.06183114,-0.01056671,0.003841144,0.002680027,-0.3136016,2.478088,-2.830224
90,2.955552,536,214,518,501,0.01493005,-0.0007378589,-0.002692365,-1.483981,3.137439,0.06190571,-0.005535883,0.005874052,0.0145513,-0.3131739,2.477782,-2.830115
90,2.966663,541,205,503,497,0.01571086,-0.00291791,-0.0005003541,-1.4842,3.137367,0.06180078,7.031951E-06,0.002158469,0.01246182,-0.3131867,2.477057,-2.829655
90,2.977774,541,205,503,497,0.01198718,-0.006062457,-0.004354543,-1.48422,3.137232,0.06165111,0.005066514,0.0008784756,0.0015477,-0.3135132,2.477108,-2.829819
90,2.988885,541,205,503,497,0.01049164,-0.007221358,-0.001378571,-1.484301,3.137207,0.061584,0.006961972,0.005046218,0.0008020308,-0.3133774,2.477375,-2.830167
90,2.999996,541,205,503,497,0.007191507,-0.008346472,-0.0008091694,-1.4843,3.137192,0.061437,0.004467673,0.007130693,-0.002990727,-0.3134413,2.477938,-2.830725
90,3.011107,540,210,496,494,0.002915043,-0.00305828,-0.001284238,-1.484328,3.137003,0.06158613,-0.002546333,0.01095485,-0.005551813,-0.3134051,2.479039,-2.831573
90,3.022218,540,210,496,494,-0.002944304,-0.004091241,-0.005384768,-1.484106,3.136811,0.06152115,-0.006731083,0.0002326001,0.008955174,-0.3129305,2.477793,-2.830087
90,3.033329,540,210,496,494,-0.008502115,-0.005259662,-0.004066085,-1.483897,3.136775,0.0614631,0.00447233,-0.001497418,0.01559504,-0.3127275,2.476843,-2.829525
90,3.04444,540,210,496,494,-0.006241811,-0.005211208,-0.004816433,-1.483897,3.136715,0.06140344,0.007407562,0.00164984,0.01180391,-0.3127196,2.476926,-2.829803
90,3.055551,540,210,496,494,0.003258829,-0.006193418,-0.003484201,-1.484161,3.136626,0.06133846,0.0111099,0.01048296,0.00375762,-0.3128799,2.478165,-2.831249
90,3.066662,453,174,490,495,0.009620322,-0.008271953,-0.002632459,-1.484572,3.136658,0.0611302,0.01176224,0.01570505,-0.004863944,-0.3130482,2.479388,-2.832469
90,3.077773,453,174,490,495,0.02000163,-0.007144285,-5.272066E-05,-1.48509,3.136682,0.06107321,0.007562468,-0.004559256,0.006478027,-0.3129017,2.477388,-2.830404
90,3.088884,453,174,490,495,0.01774806,-0.007189701,0.0006984017,-1.485262,3.136672,0.06104125,0.001088938,-0.009882035,0.02696435,-0.3121837,2.475901,-2.828802
90,3.099995,453,174,490,495,0.005969898,-0.005191239,0.0001585153,-1.485012,3.136656,0.06104445,-0.001540528,-0.01019229,0.03512837,-0.3116335,2.474869,-2.827808
90,3.111106,453,174,490,495,-0.01076288,-0.004241181,-0.003269111,-1.484522,3.13668,0.06111582,-0.0008956771,-0.008293094,0.01567371,-0.3120122,2.475401,-2.828247
90,3.122217,456,161,517,503,-0.02026348,-0.003260878,-0.004604055,-1.484095,3.136678,0.06109079,-9.364681E-06,-0.001144601,-0.01031977,-0.312604,2.477034,-2.829679
90,3.133328,456,161,517,503,-0.03067879,-0.001190051,-0.007127073,-1.483498,3.136666,0.06117707,0.001855854,0.005433273,-0.02198137,-0.3130535,2.478313,-2.830944
90,3.144439,456,161,517,503,-0.03048395,-0.004345171,-0.008274725,-1.48319,3.136607,0.06115577,-1.083408E-05,0.007469697,-0.01694826,-0.3129118,2.479061,-2.83157
90,3.15555,456,161,517,503,-0.0222279,-0.002171509,-0.005947238,-1.483163,3.136594,0.06119678,0.0009474568,0.007860306,-0.00479868,-0.3126562,2.479005,-2.831646
90,3.166661,521,161,506,497,-0.003437776,9.671482E-05,-0.00208823,-1.483536,3.136733,0.06126229,-0.004040172,0.003418057,0.006205506,-0.3121917,2.478899,-2.831459
90,3.177772,521,161,506,497,0.01884213,0.001190011,0.007588894,-1.484348,3.137009,0.06128839,-0.002485809,0.00189722,-0.004332485,-0.3124666,2.47925,-2.831743
90,3.188883,521,161,506,497,0.03103354,0.001410611,0.005024938,-1.484794,3.137008,0.06129318,-0.004366826,-0.001312822,-0.005753451,-0.3124602,2.479126,-2.831506
90,3.199994,521,161,506,497,0.0525268,0.005943471,0.004925451,-1.485933,3.136958,0.06151529,-0.001988857,-0.008168533,-0.003011801,-0.3125315,2.478267,-2.830616
90,3.211105,521,161,506,497,0.05401344,0.007090828,0.001905432,-1.486468,3.136841,0.0615318,0.002104695,-0.005580159,-0.005474137,-0.3126977,2.478317,-2.830779
90,3.222216,573,182,488,493,0.04772241,0.003839274,0.0009170857,-1.486762,3.136797,0.06150677,-0.004550979,0.003957756,0.001754256,-0.3122647,2.47972,-2.832245
90,3.233327,573,182,488,493,0.03447736,0.002549364,0.003335351,-1.486736,3.1371,0.06141143,0.01010963,0.009166859,-0.006194897,-0.3125699,2.480225,-2.833194
90,3.244438,573,182,488,493,0.03000597,-0.0007480362,0.004753034,-1.487013,3.137095,0.06114991,0.01014962,0.005850433,-0.01701783,-0.3130743,2.480798,-2.83374
90,3.255549,573,182,488,493,0.03163914,0.000431933,0.0006969417,-1.487374,3.136983,0.06117601,0.0135268,0.0089749,-0.02287847,-0.3133678,2.481481,-2.834536
90,3.26666,513,176,488,497,0.02967148,0.0004351852,-0.0006451327,-1.487618,3.137172,0.06112381,0.01384913,0.004187861,-0.02601556,-0.313763,2.481587,-2.834674
90,3.277771,513,176,488,497,0.02740156,0.001454329,0.0001339028,-1.487853,3.137169,0.06116642,-0.0004312061,0.01087979,-0.01596784,-0.3133348,2.482812,-2.835634
90,3.288882,513,176,488,497,0.01958439,0.0002361801,0.002242535,-1.487792,3.137287,0.06098106,-0.006017588,0.01268889,-0.009522196,-0.3131265,2.48362,-2.836316
90,3.299993,513,176,488,497,0.01650881,-0.00724641,0.001620683,-1.487917,3.13728,0.06070516,-0.006772756,0.008896032,0.002334228,-0.3127744,2.483216,-2.835896
90,3.311104,513,176,488,497,0.01243763,-0.008321488,-3.486604E-05,-1.487842,3.137416,0.06059224,0.004719946,0.002363282,0.005862216,-0.3126594,2.48228,-2.835334
90,3.322215,433,166,494,493,0.008531628,-0.01043283,-0.002782105,-1.487793,3.13733,0.060474,0.0119512,0.007124071,0.0007664924,-0.3128287,2.48261,-2.835975
90,3.333326,433,166,494,493,0.01030322,-0.00922626,-0.007886322,-1.487935,3.137106,0.06040795,0.01130607,0.01296003,-0.02008038,-0.3133656,2.48478,-2.838058
90,3.344437,433,166,494,493,0.01965798,-0.009171685,-0.005530966,-1.488525,3.136932,0.06036481,0.005727871,0.006179743,-0.01897557,-0.3135633,2.484773,-2.837877
90,3.355548,433,166,494,493,0.02265118,-0.007042333,-0.003996093,-1.488868,3.136892,0.06034563,0.0003045653,0.007950505,-0.001619976,-0.3129704,2.484894,-2.83798
90,3.366659,505,206,523,504,0.02369821,-0.007036956,-0.003860612,-1.489033,3.136811,0.06019809,-0.006278555,0.008390082,0.006809685,-0.3125672,2.48509,-2.838044
90,3.37777,505,206,523,504,0.02393733,-0.01144185,0.002505502,-1.489326,3.137006,0.05992965,-0.00629841,0.01173981,0.00566924,-0.3125917,2.486073,-2.838979
90,3.388881,505,206,523,504,0.02283913,-0.00825481,0.002440624,-1.489461,3.137111,0.05994562,0.01057641,0.01535815,-0.003944093,-0.3130471,2.486618,-2.840072
90,3.399992,505,206,523,504,0.02221494,-0.008188614,-0.0008749098,-1.489681,3.136987,0.05985934,0.009463334,0.01164758,-0.01391973,-0.3134503,2.487294,-2.84071
90,3.411103,505,206,523,504,0.01882415,-0.005946949,-0.007726765,-1.489723,3.136798,0.05982791,0.01321655,0.005182892,-0.01306654,-0.3136394,2.487177,-2.840692
90,3.422215,444,195,498,498,0.009754717,-0.005947443,-0.01218589,-1.489586,3.136579,0.05983697,0.004472481,0.004809904,-0.00399693,-0.3134035,2.487435,-2.840834
90,3.433326,444,195,498,498,-6.648223E-05,-0.002883514,-0.01129979,-1.489329,3.136485,0.05985614,0.001835232,0.00211373,0.003114586,-0.3130157,2.487085,-2.840594
90,3.444437,444,195,498,498,-0.009299994,-0.009493675,-0.006277544,-1.488951,3.136546,0.0596383,0.006574993,0.005586944,0.007318849,-0.3127893,2.486869,-2.840709
90,3.455548,444,195,498,498,-0.01007886,-0.008383822,-0.008510228,-1.488798,3.136411,0.05957651,0.00781932,0.01890487,-0.003442767,-0.3128692,2.488723,-2.842805
90,3.466659,414,163,504,500,-0.006209532,-0.007154446,-0.01332542,-1.488725,3.136177,0.05960261,0.01531603,0.01695468,-0.007296354,-0.3131361,2.488853,-2.843272
90,3.47777,414,163,504,500,-0.001533304,-0.009167543,-0.01596365,-1.488808,3.135922,0.05945241,0.01742493,0.005802444,-0.0002075243,-0.3130764,2.487757,-2.842317
90,3.488881,414,163,504,500,0.00345325,-0.009173354,-0.01312665,-1.488975,3.135921,0.05941619,0.009024248,-0.01035725,0.01127741,-0.3128746,2.485321,-2.8398
90,3.499992,414,163,504,500,0.003919523,-0.008204471,-0.008736633,-1.489027,3.135936,0.05938636,0.0021449,-0.008480797,0.02397113,-0.3122615,2.484586,-2.839031
90,3.511103,414,163,504,500,0.0008674948,-0.005009195,-0.01015283,-1.489053,3.135712,0.05946945,0.002273617,-0.003720478,0.02502544,-0.3120394,2.484509,-2.839186
90,3.522214,433,160,512,504,-0.002319745,-0.002907696,-0.01053653,-1.488997,3.135576,0.05944815,0.01027884,0.005758381,0.01786628,-0.3120506,2.485139,-2.840183
90,3.533325,433,160,512,504,-0.01553165,-0.005249382,-0.008105148,-1.488473,3.135571,0.05935067,0.01181699,0.01428615,0.003953211,-0.312229,2.486347,-2.841521
90,3.544436,433,160,512,504,-0.01567503,-0.005275919,-0.007062681,-1.488309,3.135392,0.05929209,0.01119341,0.01005711,-0.001565486,-0.3124106,2.486785,-2.842007
90,3.555547,433,160,512,504,-0.01460616,-0.006330233,-0.006946572,-1.488138,3.13533,0.05919941,0.01163618,0.006683076,-0.002530296,-0.3126216,2.486486,-2.841761
90,3.566658,433,160,512,504,-0.01007747,-0.007299029,-0.008504335,-1.488203,3.135134,0.05918503,0.003780298,0.0004978669,0.01440298,-0.3120367,2.485314,-2.840515
90,3.577769,406,187,477,490,-0.0003675984,-0.0007761819,-0.009155554,-1.488455,3.134985,0.05936719,0.003088859,-0.009044528,0.02633325,-0.3114929,2.483183,-2.838454
90,3.58888,406,187,477,490,0.004289058,-0.0006600088,-0.01174334,-1.48864,3.134784,0.05939329,0.003462951,-0.01098738,0.0286097,-0.311119,2.482288,-2.837621
90,3.599991,406,187,477,490,0.006589269,-0.0007943953,-0.00498003,-1.488793,3.134905,0.05937731,0.008033834,-0.00316761,0.01858191,-0.3111872,2.482708,-2.83826
90,3.611102,406,187,477,490,0.007514244,-0.001879496,-0.003807487,-1.488904,3.134887,0.05930966,0.009118368,0.001078898,0.01007518,-0.3110151,2.482919,-2.838654
90,3.622213,452,183,506,496,0.006027564,-0.001969031,-0.0007864131,-1.488921,3.134936,0.05926705,0.005632011,0.005159019,0.007140267,-0.3109454,2.483454,-2.839202
90,3.633324,452,183,506,496,1.351582E-05,-0.004098722,-0.003811443,-1.488825,3.134798,0.05916692,0.002805893,0.002507776,0.003332519,-0.3109278,2.483254,-2.838881
90,3.644435,452,183,506,496,-0.01158585,-0.004195566,-0.005400611,-1.488561,3.134703,0.05915946,-0.001271057,-0.002493753,0.01669034,-0.3104511,2.482229,-2.837831
90,3.655546,452,183,506,496,-0.01222034,-0.003057105,-0.008687344,-1.488391,3.134528,0.05916478,0.004087719,-0.004336538,0.02324064,-0.3101012,2.481226,-2.837107
90,3.666657,452,183,506,496,-0.01461403,-0.003130724,-0.006869979,-1.488227,3.134488,0.05911206,0.006645259,-0.004516493,0.02268019,-0.3098737,2.480634,-2.836952
90,3.677768,444,175,482,494,-0.01490209,-0.003185268,-0.004762054,-1.488066,3.134513,0.05906146,0.007974661,-0.01032188,0.01649318,-0.3099733,2.479718,-2.836107
90,3.688879,444,175,482,494,-0.01128617,-0.004132756,-0.007518795,-1.488083,3.134364,0.05910087,0.004182387,-0.00572542,0.008058906,-0.3100868,2.479887,-2.83614
90,3.69999,444,175,482,494,-0.007510969,-0.003114659,-0.00374804,-1.488104,3.134422,0.05909661,0.01034746,-0.005231502,0.01147716,-0.3099754,2.479197,-2.83574
90,3.711101,444,175,482,494,0.00367059,-0.004167058,0.0009875189,-1.488385,3.134642,0.05891765,0.007639073,-0.003159518,0.02068469,-0.3094311,2.478787,-2.835224
90,3.722212,445,177,502,501,0.01391098,-0.001998371,0.004587102,-1.488784,3.134716,0.05898049,0.002363165,-0.01043254,0.02729838,-0.3091605,2.477531,-2.833915
90,3.733323,445,177,502,501,0.02141729,0.004306077,0.01220999,-1.489199,3.134917,0.05915467,0.009771112,-0.008633376,0.03962589,-0.3085267,2.476115,-2.832975
90,3.744434,445,177,502,501,0.02463637,0.0011415,0.0125466,-1.489649,3.13496,0.05905613,0.01586081,-0.005682567,0.02017447,-0.308924,2.475884,-2.832914
90,3.755545,445,177,502,501,0.01968897,0.002041673,0.01727385,-1.489778,3.135276,0.059103,0.02528314,-0.0211332,0.01137818,-0.3093379,2.473806,-2.83115
90,3.766656,445,177,502,501,0.01319072,0.004095202,0.01751292,-1.489814,3.13532,0.05922391,0.01705751,-0.01821015,0.02922505,-0.3087163,2.471804,-2.829387
90,3.777767,427,179,510,496,0.004975975,0.008334315,0.01435644,-1.489658,3.135408,0.05943536,0.01379494,-0.02179049,0.02969188,-0.3085198,2.470364,-2.828007
90,3.788878,427,179,510,496,-0.00589693,0.02205914,0.01428085,-1.489352,3.135575,0.05995308,0.00444226,-0.03590848,0.03016817,-0.3084457,2.467507,-2.824903
90,3.799989,427,179,510,496,-0.02388817,0.04857942,0.01024912,-1.48866,3.135653,0.06114831,0.007149858,-0.02510389,0.02296821,-0.3084138,2.467248,-2.824808
90,3.8111,427,179,510,496,-0.0314865,0.05274559,0.01033186,-1.488138,3.135792,0.06177735,0.001933581,-0.01228744,0.009826426,-0.3086961,2.467993,-2.825458
90,3.822211,427,179,510,496,-0.04546462,0.0365571,0.01122647,-1.487272,3.135996,0.06169958,0.008477977,-0.007473582,-0.004137683,-0.3091674,2.468477,-2.826108
90,3.833322,405,168,503,499,-0.03830589,0.01842898,0.01502685,-1.487032,3.136258,0.06135018,0.01068344,-0.01240855,-0.004730972,-0.3094476,2.467112,-2.824887
90,3.844433,405,168,503,499,-0.02869413,0.02067419,0.01534128,-1.487017,3.136428,0.06165644,0.002796902,-0.009980658,0.01864782,-0.3085639,2.466122,-2.82391
90,3.855544,405,168,503,499,-0.03033784,0.01860507,0.01180786,-1.486647,3.136358,0.06188441,-0.006675156,-0.006931972,0.03085236,-0.3079062,2.465363,-2.823089
90,3.866655,405,168,503,499,-0.03343759,0.01307246,0.01875162,-1.486137,3.136797,0.06194619,-0.01199261,-0.01133027,0.04397975,-0.3071498,2.464303,-2.821943
90,3.877766,445,193,509,498,-0.03815622,0.004388524,0.02215941,-1.485613,3.1372,0.06173793,-0.01086675,-0.01951688,0.0377918,-0.3070465,2.462846,-2.820347
90,3.888877,445,193,509,498,-0.03912442,-0.000948377,0.02187702,-1.485486,3.137411,0.06165111,-0.001913909,-0.02012846,0.01675029,-0.3075594,2.462607,-2.820241
90,3.899988,445,193,509,498,-0.04057617,-0.006004766,0.009678788,-1.484964,3.137247,0.06149079,-0.008962365,-0.008610161,0.009798045,-0.3074571,2.463832,-2.821234
90,3.911099,445,193,509,498,-0.03786896,-0.005870021,0.005752538,-1.484599,3.137337,0.06152222,-0.008026026,-0.0005447399,0.005547834,-0.3072217,2.464585,-2.821908
90,3.92221,445,193,509,498,-0.03562397,-0.004555582,-0.002521701,-1.484197,3.137163,0.06166922,-0.01416934,0.01424409,0.005252688,-0.3068382,2.466101,-2.823222
90,3.933321,513,187,514,498,-0.0438104,-0.01205571,-0.005008932,-1.483501,3.137117,0.06132514,-0.01815261,0.03319447,0.003145599,-0.3064952,2.469021,-2.826027
90,3.944432,513,187,514,498,-0.03389631,-0.02148633,-0.006003506,-1.483366,3.137138,0.06095123,-0.006370768,0.0308516,0.0141846,-0.3060574,2.469049,-2.82644
90,3.955544,513,187,514,498,-0.01572853,-0.0287482,-0.004679604,-1.483609,3.137124,0.0604495,0.01051917,0.03433384,0.0163849,-0.3058438,2.469571,-2.827663
90,3.966655,513,187,514,498,0.004559677,-0.03705694,-0.003102619,-1.484144,3.137197,0.05987532,0.009437593,0.03108295,0.0107892,-0.3058119,2.470033,-2.828278
90,3.977766,503,180,507,501,0.03980296,-0.03666746,-0.00136015,-1.485536,3.137134,0.05946838,0.01227422,0.03903319,-0.002847993,-0.3060792,2.472209,-2.830651
90,3.988877,503,180,507,501,0.06712518,-0.03965921,0.003378401,-1.486965,3.13743,0.05898422,0.003288608,0.05500717,-0.002639057,-0.30583,2.475261,-2.833694
90,3.999988,503,180,507,501,0.08285059,-0.04275504,0.006417693,-1.488235,3.137484,0.058442,-0.00402946,0.06325273,-0.00636252,-0.3056276,2.478714,-2.83709
90,4.011099,503,180,507,501,0.088966,-0.04808688,0.009123973,-1.489292,3.137507,0.0578167,-0.009885535,0.06370133,-0.001009418,-0.3051439,2.480593,-2.838911
89,4.02221,503,180,507,501,0.08286776,-0.06177569,-0.0008204617,-1.489992,3.137187,0.05679084,-0.008974403,0.07036163,-0.007421149,-0.3050821,2.483767,-2.842203
88,4.033321,527,179,511,501,0.04856607,-0.07261789,-0.00901779,-1.489714,3.13693,0.05574316,-0.001340583,0.06196214,0.01921723,-0.3043141,2.483322,-2.842156
87,4.044433,527,179,511,501,0.02473888,-0.07697246,-0.01561399,-1.489469,3.136671,0.05480413,-0.001240328,0.0743906,0.01694911,-0.3037921,2.486407,-2.845516
86,4.055544,527,179,511,501,-0.00475201,-0.08356667,-0.01983155,-1.488648,3.136427,0.05374259,-0.009792343,0.08526184,-0.00337713,-0.3039018,2.491048,-2.849988
85,4.066655,527,179,511,501,-0.01736347,-0.0889634,-0.0217618,-1.488378,3.136167,0.05264217,-0.01724993,0.1054914,-0.0007667243,-0.3033846,2.495713,-2.854577
84,4.077766,527,179,511,501,-0.03523768,-0.09544864,-0.02448879,-1.487483,3.135934,0.05141659,-0.02003981,0.1091026,0.0007994547,-0.3029026,2.499867,-2.858755
83,4.088878,569,178,507,504,-0.03878068,-0.1080627,-0.02986319,-1.487,3.135594,0.04979632,-0.01420872,0.1253533,0.004022077,-0.3024371,2.505274,-2.864458
82,4.099989,569,178,507,504,-0.04313729,-0.1184422,-0.03747211,-1.486368,3.135077,0.04823517,-0.01072429,0.1389783,0.001372736,-0.3020003,2.511033,-2.870607
81,4.1111,569,178,507,504,-0.03541813,-0.1256904,-0.03907374,-1.486182,3.134757,0.0467422,-0.01045425,0.1471059,0.002462652,-0.3015369,2.516338,-2.876157
80,4.122211,569,178,507,504,-0.03128543,-0.143756,-0.03741461,-1.485911,3.1345,0.04463352,-0.01370312,0.1703566,0.009211946,-0.300705,2.523836,-2.883981
79,4.133323,569,178,507,504,-0.03383812,-0.1658763,-0.04232278,-1.485395,3.134049,0.04221324,-0.03205694,0.203749,0.01480757,-0.2994096,2.533937,-2.894004
78,4.144434,569,178,507,504,-0.04449144,-0.1846573,-0.05149535,-1.484457,3.133401,0.03976472,-0.0538637,0.2549594,0.01724064,-0.2979912,2.547244,-2.907146
77,4.155545,569,178,507,504,-0.1068926,-0.2261451,-0.08400542,-1.481514,3.132093,0.03619555,-0.09732035,0.3263632,0.002460308,-0.2965344,2.566427,-2.925263
76,4.166656,569,178,507,504,-0.1754787,-0.2560157,-0.1099028,-1.477644,3.130805,0.03270575,-0.1361364,0.3867615,-0.00395146,-0.2950367,2.587327,-2.944727
75,4.177768,569,178,507,504,-0.2870336,-0.3637371,-0.1501167,-1.471141,3.129226,0.02588007,-0.2165456,0.4578565,0.00122489,-0.2923128,2.614247,-2.968518
74,4.188879,458,208,485,494,-0.4689302,-0.5640699,-0.1829803,-1.4611,3.128695,0.0143081,-0.2830926,0.5195881,0.0665765,-0.2876278,2.640124,-2.991683
73,4.19999,458,208,485,494,-0.6733726,-0.7913961,-0.168879,-1.448786,3.130828,0.0001235707,-0.2937142,0.6226364,0.22906,-0.2790039,2.670704,-3.021961
72,4.211102,458,208,485,494,-0.8232549,-0.977885,-0.1606006,-1.435643,3.133896,-0.01576591,-0.1911845,0.8608635,0.395793,-0.2699971,2.718426,-3.07434
71,4.222213,458,208,485,494,-1.010296,-1.321239,-0.162403,-1.419874,3.139701,-0.0394249,-0.07558715,1.082624,0.483471,-0.262675,2.77923,-3.141142
70,4.233324,447,207,500,493,-1.165859,-1.727323,-0.3054277,-1.402016,-3.139198,-0.07016578,0.08566606,1.289508,0.5393789,-0.2581429,2.847662,3.06554
69,4.244435,447,207,500,493,-1.286491,-2.094138,-0.5461562,-1.383906,-3.136945,-0.1037584,0.1720724,1.255413,0.3865604,-0.2606441,2.893673,3.014324
68,4.255547,447,207,500,493,-1.44681,-2.345337,-0.8364989,-1.362766,-3.135304,-0.137426,0.2158855,1.446763,0.0266059,-0.2741682,2.962272,2.944342
67,4.266658,447,207,500,493,-1.644766,-2.517134,-1.084199,-1.33746,-3.131026,-0.1733803,0.3450898,1.6818,-0.1874889,-0.2886392,3.037927,2.86352
66,4.277769,447,207,500,493,-1.754589,-2.616227,-1.25585,-1.31294,-3.124415,-0.2076307,0.5588166,1.893085,-0.3430514,-0.3076558,3.106164,2.786665
65,4.28888,443,213,478,488,-1.874584,-2.707353,-1.491328,-1.285884,-3.116577,-0.246368,0.752383,2.042428,-0.3320069,-0.3243272,-3.111501,2.710919
64,4.299992,443,213,478,488,-1.762903,-2.737873,-1.634585,-1.266516,-3.109264,-0.2832751,0.8809233,1.947306,-0.1441087,-0.3346289,-3.067312,2.654393
63,4.311103,443,213,478,488,-1.557749,-2.864696,-1.738073,-1.252549,-3.098143,-0.3256966,0.8583407,2.014947,0.1842926,-0.3402939,-2.998775,2.576279
62,4.322214,443,213,478,488,-1.106654,-3.197871,-1.666914,-1.251839,-3.078821,-0.375796,1.040909,2.213549,0.4150836,-0.3543315,-2.921056,2.483215
61,4.333325,418,228,528,511,-0.7877724,-3.235299,-1.793696,-1.248575,-3.067675,-0.4203501,1.27165,2.286056,0.4581053,-0.3757331,-2.869271,2.414825
60,4.344437,418,228,528,511,-0.3719938,-3.26815,-1.832513,-1.253321,-3.054449,-0.4653267,1.57156,2.461294,0.4068111,-0.4053907,-2.823122,2.350626
59,4.355548,418,228,528,511,0.07883954,-3.235891,-1.788149,-1.264771,-3.041658,-0.5077136,1.643854,2.673916,0.3699768,-0.436409,-2.769404,2.285967
58,4.366659,418,228,528,511,0.3552079,-3.108428,-1.824235,-1.273751,-3.032076,-0.5467832,1.762483,2.844065,0.2720436,-0.4713683,-2.726954,2.234196
57,4.37777,418,228,528,511,0.7137535,-2.925601,-1.904153,-1.289255,-3.027376,-0.5838464,1.841274,2.985025,0.04054213,-0.5112923,-2.694325,2.196532
56,4.388882,314,177,504,498,0.963845,-2.834094,-2.035138,-1.305075,-3.021371,-0.62431,1.851954,2.965774,2.932549E-05,-0.5454591,-2.664767,2.161756
55,4.399993,314,177,504,498,1.196235,-2.656724,-2.320181,-1.321694,-3.022808,-0.6656422,1.750118,2.943216,0.02440226,-0.5772108,-2.631798,2.127373
54,4.411104,314,177,504,498,1.224572,-2.471769,-2.36205,-1.334575,-3.019646,-0.7019198,1.646734,2.890815,0.1601593,-0.6051331,-2.597238,2.090197
53,4.422215,314,177,504,498,1.062598,-2.280036,-2.342846,-1.340755,-3.015618,-0.7350357,1.417448,2.79426,0.4174365,-0.625967,-2.55549,2.048186
52,4.433327,314,177,504,498,0.8444779,-2.147571,-2.491504,-1.342832,-3.012125,-0.7730555,1.362184,2.658046,0.569651,-0.6497644,-2.525797,2.014261
51,4.444438,276,146,503,498,0.7653365,-2.040983,-2.669813,-1.347864,-3.010129,-0.8134983,1.374916,2.439616,0.587059,-0.6723672,-2.505753,1.989436
50,4.455549,276,146,503,498,0.6378424,-1.895794,-2.926473,-1.350238,-3.010148,-0.8557664,1.398337,2.250323,0.5655273,-0.6948555,-2.48978,1.968679
49,4.46666,276,146,503,498,0.4548156,-1.688978,-2.863008,-1.349712,-3.008181,-0.8894564,1.372436,2.009165,0.508324,-0.7146763,-2.478795,1.953445
48,4.477772,276,146,503,498,0.2948675,-1.554225,-2.755275,-1.348093,-3.004005,-0.9210446,1.36222,1.829158,0.4609089,-0.7335911,-2.469601,1.939523
47,4.488883,231,125,499,500,0.131161,-1.4926,-2.619353,-1.34496,-2.99663,-0.9517472,1.38224,1.736105,0.4343278,-0.7550792,-2.459106,1.924914
46,4.499994,231,125,499,500,0.06971812,-1.468279,-2.608093,-1.344187,-2.988607,-0.9862255,1.418235,1.693676,0.4222842,-0.7772702,-2.44812,1.910024
45,4.511106,231,125,499,500,0.05878568,-1.409567,-2.622981,-1.343955,-2.982113,-1.019717,1.46104,1.675955,0.3874874,-0.8009388,-2.438291,1.897446
44,4.522217,231,125,499,500,0.03310394,-1.331333,-2.637459,-1.342864,-2.975478,-1.053026,1.516159,1.573704,0.3894756,-0.822676,-2.432236,1.885684
43,4.533328,231,125,499,500,-0.01257873,-1.218702,-2.662414,-1.340505,-2.970093,-1.085393,1.45519,1.461065,0.4630312,-0.8400334,-2.423068,1.871106
42,4.544439,324,309,504,495,0.02513695,-1.124156,-2.597696,-1.341353,-2.964333,-1.115235,1.311955,1.307482,0.5591245,-0.8537077,-2.413526,1.856228
41,4.555551,324,309,504,495,0.05379057,-1.036745,-2.559219,-1.34203,-2.958637,-1.144845,1.20341,1.158317,0.6280897,-0.8656046,-2.405312,1.841859
40,4.566662,324,309,504,495,0.0891006,-0.9087766,-2.497914,-1.343082,-2.954822,-1.172404,1.067798,0.9464028,0.7369942,-0.8729837,-2.398654,1.826489
39,4.577773,324,309,504,495,0.1469736,-0.8144156,-2.49767,-1.34546,-2.950658,-1.201809,1.01426,0.7485871,0.8124101,-0.8810525,-2.394462,1.811604
38,4.588884,318,295,522,499,0.2261715,-0.6597764,-2.496276,-1.34882,-2.949893,-1.229621,1.017581,0.6424973,0.79552,-0.8916939,-2.392073,1.800202
37,4.599996,318,295,522,499,0.3785642,-0.4261728,-2.453731,-1.355814,-2.954513,-1.254512,0.9880224,0.508009,0.6963266,-0.8999402,-2.393391,1.793783
36,4.611107,318,295,522,499,0.5052974,-0.1830853,-2.326339,-1.363218,-2.961608,-1.274883,1.028172,0.4653337,0.5741337,-0.9118956,-2.395262,1.789239
35,4.622218,318,295,522,499,0.5704702,0.05117887,-2.165818,-1.369235,-2.969945,-1.292803,1.114019,0.4538009,0.4816236,-0.926151,-2.397731,1.784487
34,4.633329,318,295,522,499,0.5857319,0.2074391,-2.055696,-1.374501,-2.977596,-1.311329,1.156631,0.4460093,0.4588749,-0.9397843,-2.398544,1.777881
33,4.644441,406,323,484,499,0.5788856,0.2917653,-1.993321,-1.379331,-2.984164,-1.330373,1.199824,0.4438051,0.4592255,-0.9541659,-2.399164,1.770679
32,4.655552,406,323,484,499,0.5671073,0.3362122,-1.913225,-1.384169,-2.989653,-1.348676,1.238061,0.4046699,0.4844581,-0.967609,-2.400624,1.762354
31,4.666663,406,323,484,499,0.5215516,0.2970082,-1.844138,-1.388288,-2.991587,-1.367104,1.165192,0.2505043,0.4879173,-0.9750701,-2.405031,1.75625
30,4.677774,406,323,484,499,0.4077243,0.1473364,-1.848635,-1.392543,-2.984709,-1.390417,1.098315,0.0849697,0.4762311,-0.9813008,-2.411351,1.751398
29,4.688886,432,293,503,497,0.2386233,0.02994078,-1.781337,-1.388415,-2.983933,-1.407363,1.087624,-0.01162016,0.4525256,-0.989498,-2.418174,1.747056
28,4.699997,432,293,503,497,0.222213,-0.02056456,-1.735266,-1.390652,-2.980958,-1.426044,1.108792,-0.1618378,0.411346,-0.9972111,-2.428943,1.744493
27,4.711108,432,293,503,497,0.2148911,-0.09914352,-1.675132,-1.393462,-2.976749,-1.443484,1.186189,-0.3468615,0.32085,-1.005721,-2.444908,1.745493
26,4.722219,432,293,503,497,0.2207165,-0.1450793,-1.609469,-1.396202,-2.97258,-1.460238,1.233605,-0.5304164,0.2280225,-1.012815,-2.462985,1.748088
25,4.733331,432,293,503,497,0.2401429,-0.1565429,-1.525527,-1.399425,-2.969162,-1.47535,1.246648,-0.5758766,0.2095178,-1.021119,-2.476547,1.747811
24,4.744442,471,280,488,497,0.2729454,-0.1245944,-1.476215,-1.403145,-2.967558,-1.490928,1.205129,-0.5641427,0.2148917,-1.028847,-2.486592,1.746267
23,4.755553,471,280,488,497,0.3176529,0.002953723,-1.372832,-1.407242,-2.969928,-1.503409,1.118189,-0.4926487,0.2265583,-1.035712,-2.493634,1.74397
22,4.766665,471,280,488,497,0.3402151,0.08028726,-1.322684,-1.41098,-2.971393,-1.517075,1.000658,-0.4055103,0.2508641,-1.041436,-2.498155,1.740447
21,4.777776,471,280,488,497,0.3655679,0.1368807,-1.272438,-1.415287,-2.973298,-1.529692,0.8929261,-0.3790903,0.2591051,-1.045537,-2.503577,1.737729
20,4.788887,471,280,488,497,0.4030395,0.2481923,-1.174575,-1.419766,-2.978109,-1.540272,0.7399852,-0.3712292,0.2300797,-1.047077,-2.509065,1.736553
19,4.799998,371,209,503,499,0.4110712,0.3051163,-1.12904,-1.423955,-2.981612,-1.551748,0.7216223,-0.3774182,0.2100632,-1.0516,-2.516298,1.735481
18,4.81111,371,209,503,499,0.414063,0.3500332,-1.086669,-1.428082,-2.98558,-1.562653,0.752843,-0.3626778,0.2085223,-1.057939,-2.523325,1.73365
17,4.822221,371,209,503,499,0.4147354,0.3974278,-1.032688,-1.431942,-2.990317,-1.572676,0.7890408,-0.3571195,0.2352538,-1.064601,-2.530205,1.73065
16,4.833332,371,209,503,499,0.4083529,0.4441479,-0.9602236,-1.435766,-2.995311,-1.581746,0.7770921,-0.3781841,0.2569265,-1.069424,-2.537242,1.727686
15,4.844443,379,191,467,501,0.419048,0.4553681,-0.9196119,-1.44046,-2.999492,-1.591291,0.6660504,-0.5174668,0.2338908,-1.069969,-2.547143,1.726366
14,4.855555,379,191,467,501,0.4224011,0.4611241,-0.8585938,-1.444846,-3.003725,-1.599378,0.6137869,-0.6055654,0.1835407,-1.070433,-2.558096,1.727208
13,4.866666,379,191,467,501,0.4364526,0.4695944,-0.8100812,-1.449659,-3.008243,-1.607325,0.6135774,-0.6786998,0.1277698,-1.072285,-2.570321,1.728991
12,4.877777,379,191,467,501,0.4565827,0.4646386,-0.7789094,-1.454997,-3.01234,-1.615584,0.6007267,-0.6893451,0.1405041,-1.074052,-2.580218,1.728373
11,4.888888,379,191,467,501,0.4493225,0.4514988,-0.7512735,-1.459358,-3.015936,-1.623648,0.5665677,-0.6577677,0.1444674,-1.075788,-2.588016,1.72732
10,4.9,396,216,484,502,0.4408929,0.42601,-0.7345173,-1.463851,-3.018911,-1.631804,0.5421711,-0.6350924,0.1523721,-1.077444,-2.595992,1.726357
9,4.911111,396,216,484,502,0.4175674,0.3892927,-0.6919968,-1.467558,-3.021262,-1.638556,0.4847772,-0.6313802,0.134687,-1.077558,-2.604041,1.726523
8,4.922222,396,216,484,502,0.384674,0.3585306,-0.6646441,-1.470807,-3.023421,-1.645617,0.4549824,-0.5995296,0.1069084,-1.078534,-2.611492,1.727147
7,4.933333,396,216,484,502,0.3622676,0.3416421,-0.6381634,-1.474189,-3.02574,-1.652274,0.4724948,-0.5358793,0.1341302,-1.081512,-2.617522,1.725429
6,4.944445,381,223,484,502,0.3425235,0.3250501,-0.6158968,-1.47712,-3.02799,-1.658886,0.4733097,-0.492313,0.1735778,-1.084081,-2.622947,1.722816
5,4.955556,381,223,484,502,0.3222393,0.2985994,-0.606414,-1.480041,-3.029476,-1.665655,0.4202073,-0.4612421,0.2151908,-1.084791,-2.627145,1.719633
4,4.966667,381,223,484,502,0.3051021,0.2421348,-0.5824775,-1.483126,-3.029852,-1.671746,0.352024,-0.4498125,0.2112146,-1.084334,-2.631643,1.71786
3,4.977778,381,223,484,502,0.3062986,0.2153797,-0.5615786,-1.486495,-3.030734,-1.67768,0.2932571,-0.4469984,0.1900924,-1.083466,-2.636734,1.717134
2,4.98889,381,223,484,502,0.2932571,0.1835912,-0.5309801,-1.489252,-3.03119,-1.683136,0.2593843,-0.4445515,0.1576064,-1.083062,-2.642075,1.716928
1,5.000001,493,250,481,500,0.2663533,0.1702369,-0.5152012,-1.491395,-3.031706,-1.688565,0.2700334,-0.4155644,0.1479541,-1.084099,-2.646725,1.716014
-2.421439E-08,5.011112,493,250,481,500,0.2548598,0.1716784,-0.5007169,-1.493802,-3.032905,-1.694176,0.2817156,-0.3519431,0.1634928,-1.086183,-2.649561,1.713815
-2.421439E-08,5.022223,493,250,481,500,0.2464005,0.1911057,-0.4715513,-1.496148,-3.034682,-1.698944,0.2559315,-0.2913198,0.1787422,-1.087248,-2.65119,1.711377
-2.421439E-08,5.033335,493,250,481,500,0.2424821,0.2152505,-0.4304395,-1.498598,-3.037082,-1.703096,0.2251496,-0.2356385,0.2107128,-1.087909,-2.652002,1.708035
-2.421439E-08,5.044446,493,250,481,500,0.239671,0.2312694,-0.3747292,-1.500984,-3.039454,-1.706398,0.200694,-0.196154,0.2444096,-1.088607,-2.652327,1.704123
-2.421439E-08,5.055557,493,250,481,500,0.2293759,0.2476649,-0.3297858,-1.503168,-3.04205,-1.709432,0.1580009,-0.1689609,0.2683992,-1.088383,-2.652256,1.700222
-2.421439E-08,5.066669,493,250,481,500,0.21307,0.2621341,-0.3079126,-1.504823,-3.044842,-1.712882,0.1382903,-0.1700068,0.2359232,-1.088303,-2.65404,1.698839
-2.421439E-08,5.07778,493,250,481,500,0.1938061,0.2716201,-0.2816898,-1.506477,-3.04753,-1.715866,0.1472012,-0.1603129,0.2047882,-1.089159,-2.655805,1.697443
-2.421439E-08,5.088891,493,250,481,500,0.1810424,0.2675241,-0.2573407,-1.508102,-3.049992,-1.718569,0.1443396,-0.1290921,0.1925192,-1.090222,-2.656297,1.695428
-2.421439E-08,5.100002,610,264,480,506,0.1686046,0.2369812,-0.2290492,-1.50959,-3.05148,-1.720745,0.1184557,-0.07447472,0.1909791,-1.09102,-2.655183,1.693021
-2.421439E-08,5.111114,610,264,480,506,0.1630245,0.2058711,-0.2107461,-1.511181,-3.052533,-1.722912,0.1091414,-0.06313754,0.1934223,-1.091546,-2.655129,1.690587
-2.421439E-08,5.122225,610,264,480,506,0.1529813,0.1582009,-0.1950531,-1.512648,-3.052686,-1.724728,0.0933171,-0.0706799,0.1946734,-1.091532,-2.655409,1.68823
-2.421439E-08,5.133336,610,264,480,506,0.1416671,0.1079581,-0.1930105,-1.513856,-3.052201,-1.726908,0.08480663,-0.08947396,0.1812616,-1.091426,-2.656542,1.68649
-2.421439E-08,5.144447,610,264,480,506,0.1355384,0.07370578,-0.1962427,-1.515322,-3.051887,-1.729437,0.09055623,-0.08949403,0.1603459,-1.091943,-2.657518,1.685236
-2.421439E-08,5.155559,587,278,483,507,0.1282458,0.06160535,-0.1967574,-1.516564,-3.051808,-1.731677,0.103926,-0.06264839,0.1259522,-1.093418,-2.658037,1.684729
-2.421439E-08,5.16667,587,278,483,507,0.1258827,0.04305848,-0.1911036,-1.517878,-3.051478,-1.733676,0.08358675,-0.001279332,0.1073972,-1.094451,-2.656277,1.683576
-2.421439E-08,5.177781,587,278,483,507,0.1111782,0.03287278,-0.1573747,-1.518842,-3.051441,-1.734651,0.05600576,0.05682698,0.1194417,-1.09525,-2.653518,1.681481
-2.421439E-08,5.188892,587,278,483,507,0.1097213,0.0326384,-0.1410697,-1.51999,-3.051696,-1.735926,0.0438391,0.09766675,0.1338077,-1.096257,-2.650888,1.679135
-2.421439E-08,5.200004,518,369,488,500,0.1092102,0.04042527,-0.1164155,-1.521191,-3.052253,-1.736756,0.06228572,0.14889,0.1550687,-1.098526,-2.647547,1.676182
-2.421439E-08,5.211115,518,369,488,500,0.1046819,0.04754651,-0.1006471,-1.522069,-3.052838,-1.737764,0.07526886,0.1606431,0.1493423,-1.100409,-2.645686,1.674284
-2.421439E-08,5.222226,518,369,488,500,0.09564955,0.0556645,-0.08246902,-1.52294,-3.053649,-1.738414,0.06331946,0.1655042,0.1285251,-1.101647,-2.6436,1.673046
-2.421439E-08,5.233337,518,369,488,500,0.08293739,0.05044323,-0.06617786,-1.523516,-3.054032,-1.738773,0.03009863,0.1351122,0.08094181,-1.101424,-2.642834,1.673363
-2.421439E-08,5.244449,518,369,488,500,0.07227864,0.02065175,-0.05210873,-1.524055,-3.053533,-1.739039,0.02355133,0.1227917,0.04714432,-1.10197,-2.642066,1.673673
-2.421439E-08,5.25556,371,283,492,500,0.07127155,-0.03171784,-0.04959374,-1.524911,-3.051816,-1.73925,0.04860769,0.1385776,0.01787896,-1.103921,-2.640908,1.673979
-2.421439E-08,5.266671,371,283,492,500,0.07044424,-0.06788442,-0.04558051,-1.52594,-3.050256,-1.739391,0.06312156,0.1582419,0.02582926,-1.10587,-2.638912,1.672963
-2.421439E-08,5.277782,371,283,492,500,0.07079131,-0.1109137,-0.04959392,-1.526844,-3.047694,-1.739641,0.06685053,0.175458,0.04463045,-1.107674,-2.636628,1.671605
-2.421439E-08,5.288894,371,283,492,500,0.06970298,-0.1836333,-0.05463202,-1.52771,-3.04368,-1.739787,0.0556123,0.1739925,0.05246978,-1.108753,-2.634654,1.670533
-2.421439E-08,5.300005,330,263,495,506,0.07010952,-0.2096828,-0.0558444,-1.528607,-3.040706,-1.739923,0.03086497,0.1572367,0.04433985,-1.108979,-2.633196,1.670119
-2.421439E-08,5.311116,330,263,495,506,0.06719211,-0.2260301,-0.0582036,-1.529452,-3.03779,-1.740156,0.008222334,0.1467777,0.02283584,-1.109119,-2.63184,1.670316
-2.421439E-08,5.322227,330,263,495,506,0.05812909,-0.22978,-0.05675089,-1.529951,-3.035123,-1.740307,-0.0007244125,0.1488978,0.009376083,-1.109632,-2.630238,1.670433
-2.421439E-08,5.333339,330,263,495,506,0.03419846,-0.2117021,-0.05391392,-1.529896,-3.033088,-1.740495,-0.002341747,0.1473727,-0.001210555,-1.110417,-2.628793,1.670601
-2.421439E-08,5.34445,330,263,495,506,0.03940349,-0.2031725,-0.0442863,-1.530588,-3.03109,-1.740514,-0.0006126761,0.1446462,-0.004854802,-1.11113,-2.627404,1.670576
-2.421439E-08,5.355561,237,270,498,501,0.03123072,-0.1915209,-0.0373239,-1.530765,-3.029292,-1.740435,0.007555142,0.1275449,-0.0008825846,-1.111841,-2.626632,1.670362
-2.421439E-08,5.366673,237,270,498,501,0.02688256,-0.1693094,-0.02588436,-1.530942,-3.028014,-1.740277,0.01203974,0.1163122,0.0001183953,-1.112503,-2.625816,1.670215
-2.421439E-08,5.377784,237,270,498,501,0.02389796,-0.1471989,-0.02321294,-1.53117,-3.026942,-1.74025,0.0005185604,0.09859286,0.005957074,-1.112482,-2.62501,1.669793
-2.421439E-08,5.388895,237,270,498,501,0.01235309,-0.1166761,-0.02426563,-1.531021,-3.026299,-1.740578,-0.005910344,0.09278193,0.004272198,-1.112704,-2.624071,1.669695
-2.421439E-08,5.400006,237,270,498,501,0.008449612,-0.09481923,-0.02606856,-1.531088,-3.025795,-1.740861,-0.007704195,0.110187,0.004682723,-1.113314,-2.622394,1.669427
-2.421439E-08,5.411118,143,236,502,507,0.003395952,-0.05689957,-0.0265568,-1.530886,-3.025996,-1.741237,-0.008589037,0.1223606,0.01464443,-1.114019,-2.620557,1.668804
-2.421439E-08,5.422229,143,236,502,507,0.006961958,-0.04267377,-0.02891254,-1.531095,-3.025777,-1.741589,-0.01266015,0.1316595,0.02668842,-1.114514,-2.618586,1.667948
-2.421439E-08,5.43334,143,236,502,507,0.0037318,-0.02665423,-0.02869204,-1.530988,-3.025817,-1.74192,-0.0129099,0.1263917,0.03765274,-1.114899,-2.617061,1.667155
-2.421439E-08,5.444451,143,236,502,507,-0.004822057,-0.01801215,-0.0333553,-1.530654,-3.025565,-1.742451,-0.01128819,0.113678,0.04115387,-1.115207,-2.615922,1.666443
-2.421439E-08,5.455563,141,257,501,504,-0.01173412,-0.01495304,-0.03159647,-1.530341,-3.025402,-1.742746,-0.006490432,0.08718247,0.03820636,-1.115328,-2.615603,1.666015
-2.421439E-08,5.466674,141,257,501,504,-0.02603865,-0.01287404,-0.03005067,-1.529681,-3.02516,-1.743026,0.004879147,0.07410057,0.0176031,-1.115885,-2.615383,1.666309
-2.421439E-08,5.477785,141,257,501,504,-0.03280421,-0.01129821,-0.02643465,-1.529196,-3.025022,-1.743231,0.02225016,0.06578502,0.008797837,-1.116742,-2.615249,1.666412
-2.421439E-08,5.488896,141,257,501,504,-0.02806891,0.0008960734,-0.02373575,-1.528924,-3.025283,-1.743534,0.02630762,0.06307867,0.002448255,-1.117331,-2.614701,1.666343
-2.421439E-08,5.500008,141,257,501,504,-0.02456115,0.004764471,-0.0141457,-1.528776,-3.025456,-1.743472,0.01643415,0.04655457,0.008240091,-1.117318,-2.614462,1.666055
-2.421439E-08,5.511119,147,241,502,504,-0.02215909,0.002293078,-0.01142872,-1.528558,-3.025301,-1.743562,0.005051464,0.03052536,0.0168093,-1.117073,-2.614218,1.665606
-2.421439E-08,5.52223,147,241,502,504,-0.02066861,-0.002277561,-0.004814133,-1.528315,-3.025091,-1.743463,-0.008259729,-0.007237423,0.02083019,-1.116344,-2.614924,1.665405
-2.421439E-08,5.533341,147,241,502,504,-0.01538909,-0.002037137,-0.002582692,-1.52828,-3.025071,-1.743417,-0.01241064,-0.02940568,0.01432372,-1.115741,-2.615675,1.665509
-2.421439E-08,5.544453,147,241,502,504,-0.01619855,0.01172718,-0.0005983575,-1.528156,-3.025513,-1.74351,-0.01101735,-0.02141098,0.01324991,-1.115738,-2.61556,1.665462
-2.421439E-08,5.555564,157,265,502,502,-0.01518833,0.02783377,0.001918899,-1.527979,-3.026242,-1.743561,-0.01606283,-0.0006760657,0.01094025,-1.115693,-2.614902,1.665333
-2.421439E-08,5.566675,157,265,502,502,-0.01513511,0.035417,0.002532789,-1.527813,-3.026787,-1.743633,-0.0291775,0.02719724,0.005876703,-1.115492,-2.613643,1.665309
-2.421439E-08,5.577786,157,265,502,502,-0.01805635,0.02535695,0.001378777,-1.527533,-3.026793,-1.743647,-0.03560455,0.04228728,0.01692278,-1.115327,-2.612388,1.664703
-2.421439E-08,5.588898,157,265,502,502,-0.01982816,0.006591294,0.0004486842,-1.527389,-3.026284,-1.743495,-0.02696526,0.0405675,0.02598745,-1.115366,-2.611824,1.664064
-2.421439E-08,5.600009,157,265,502,502,-0.02196107,-0.01676232,-0.004798971,-1.527139,-3.025468,-1.743547,-0.01615046,0.02882779,0.02776413,-1.115463,-2.611755,1.663679
-2.421439E-08,5.61112,184,290,503,503,-0.01673255,-0.02411423,-0.003172774,-1.527186,-3.025039,-1.743392,-0.01295948,0.02335018,0.02065359,-1.115411,-2.611597,1.663648
-2.421439E-08,5.622231,184,290,503,503,-0.01856977,-0.02644805,-0.003700182,-1.526909,-3.024688,-1.743352,-0.01893437,0.03081757,0.002649538,-1.115268,-2.611043,1.664049
-2.421439E-08,5.633343,184,290,503,503,-0.01679524,-0.03191993,-0.0027414,-1.526921,-3.0243,-1.743232,-0.02643873,0.04522008,-0.003527728,-1.115208,-2.610162,1.664265
-2.421439E-08,5.644454,184,290,503,503,-0.02131902,-0.03157294,0.002799749,-1.526576,-3.023983,-1.742951,-0.03724845,0.06134748,0.005403821,-1.114982,-2.60881,1.663778
-2.421439E-08,5.655565,184,290,503,503,-0.02224171,-0.04939593,0.003165681,-1.52634,-3.022944,-1.742687,-0.04054157,0.06490833,0.0107855,-1.114864,-2.607713,1.663408
-2.421439E-08,5.666677,200,282,505,504,-0.02536569,-0.05887359,0.004297913,-1.525991,-3.022133,-1.742518,-0.04701208,0.05292765,0.01394309,-1.114285,-2.607173,1.66312
-2.421439E-08,5.677788,200,282,505,504,-0.02942907,-0.07021311,0.008301195,-1.525598,-3.021099,-1.74213,-0.04304972,0.01512564,0.008387943,-1.113609,-2.60776,1.663251
-2.421439E-08,5.688899,200,282,505,504,-0.03250432,-0.07233213,0.01108037,-1.525168,-3.020316,-1.741894,-0.03420216,-0.0061194,-0.006437678,-1.113203,-2.608468,1.663909
-2.421439E-08,5.70001,200,282,505,504,-0.0299874,-0.06033774,0.01815912,-1.524895,-3.020016,-1.741447,-0.02074946,-0.01859317,-0.02845725,-1.113018,-2.609236,1.664889
-2.421439E-08,5.711122,218,304,505,500,-0.0342164,-0.04559536,0.02363616,-1.524295,-3.019967,-1.74119,-0.0132238,-0.008529667,-0.03471642,-1.113189,-2.609322,1.665491
-2.421439E-08,5.722233,218,304,505,500,-0.03628201,-0.0312724,0.03232176,-1.524001,-3.020123,-1.740713,-0.006073758,0.006404912,-0.03468351,-1.113567,-2.60901,1.66583
-2.421439E-08,5.733344,218,304,505,500,-0.03752525,-0.02172941,0.03337995,-1.523569,-3.020204,-1.740297,-0.008163739,0.02042424,-0.02150132,-1.113532,-2.608305,1.665587
-2.421439E-08,5.744455,218,304,505,500,-0.03701396,-0.01859935,0.03954287,-1.523251,-3.020191,-1.739712,-0.02116865,0.03199605,-0.005602872,-1.113252,-2.607333,1.66508
-2.421439E-08,5.755567,218,304,505,500,-0.04034005,-0.009546989,0.04157555,-1.522735,-3.020371,-1.739266,-0.03399052,0.02655135,0.001112123,-1.11264,-2.606793,1.664827
-2.421439E-08,5.766678,240,335,505,508,-0.04034326,-0.002057193,0.04762325,-1.522285,-3.020592,-1.738652,-0.034778,0.02769003,-0.005223136,-1.112504,-2.60645,1.665136
-2.421439E-08,5.777789,240,335,505,508,-0.03848227,0.008685381,0.05003353,-1.521887,-3.021093,-1.738123,-0.02968776,0.02753368,-0.004084184,-1.11248,-2.606093,1.665135
-2.421439E-08,5.7889,240,335,505,508,-0.03767294,0.0113798,0.04845206,-1.521495,-3.021381,-1.737595,-0.02664101,0.02243883,-0.006461831,-1.112374,-2.605955,1.665269
-2.421439E-08,5.800012,240,335,505,508,-0.03739569,0.009123788,0.04903229,-1.521055,-3.021487,-1.737113,-0.02541749,0.01623824,-0.008813054,-1.112172,-2.605898,1.665434
-2.421439E-08,5.811123,244,349,506,499,-0.04336705,-0.003302415,0.04733699,-1.520427,-3.021148,-1.736564,-0.02800909,0.005864387,-0.01861874,-1.111657,-2.606088,1.665955
-2.421439E-08,5.822234,244,349,506,499,-0.04276301,-0.01587875,0.040142,-1.519985,-3.020684,-1.736225,-0.02637656,0.005227732,-0.01803696,-1.111455,-2.606014,1.666152
-2.421439E-08,5.833345,244,349,506,499,-0.04101528,-0.0372907,0.02877124,-1.519789,-3.01977,-1.7361,-0.02657083,0.007650491,-0.01488705,-1.111243,-2.605733,1.666284
-2.421439E-08,5.844457,244,349,506,499,-0.03950772,-0.04895259,0.02287838,-1.519516,-3.01892,-1.735809,-0.02906959,0.02186411,-0.01989327,-1.111169,-2.60521,1.666665
-2.421439E-08,5.855568,244,349,506,499,-0.04053184,-0.05823102,0.01967853,-1.518979,-3.01808,-1.735571,-0.02641413,0.03181427,-0.02057674,-1.111246,-2.604645,1.66687
-2.421439E-08,5.866679,253,317,506,505,-0.03650714,-0.06437916,0.01499079,-1.518652,-3.01713,-1.735525,-0.0269249,0.0490962,-0.01809767,-1.11138,-2.603754,1.666855
-2.421439E-08,5.87779,253,317,506,505,-0.02818584,-0.06235505,0.01546409,-1.518628,-3.016583,-1.735223,-0.0251943,0.05060988,-0.007629202,-1.111432,-2.602989,1.666612
-2.421439E-08,5.888902,253,317,506,505,-0.02584116,-0.06277321,0.008788654,-1.518321,-3.015792,-1.735275,-0.02277616,0.04050366,-0.005813058,-1.111265,-2.602813,1.666669
-2.421439E-08,5.900013,253,317,506,505,-0.02225201,-0.05665068,0.007986112,-1.518155,-3.015359,-1.73511,-0.0226474,0.01579195,-0.001512597,-1.110815,-2.6031,1.666582
-2.421439E-08,5.911124,253,334,505,504,-0.02382642,-0.05193827,0.005754985,-1.517854,-3.014817,-1.735085,-0.02230824,-0.003240848,-0.003395102,-1.110326,-2.603525,1.666725
-2.421439E-08,5.922235,253,334,505,504,-0.02420171,-0.04789834,0.002285321,-1.517654,-3.014388,-1.735111,-0.01867127,-0.001022995,-0.00344295,-1.110248,-2.603462,1.66677
-2.421439E-08,5.933347,253,334,505,504,-0.02001784,-0.03636222,-0.002762402,-1.517623,-3.014275,-1.735287,-0.008155537,0.01650756,-0.004433869,-1.110804,-2.603025,1.6668
-2.421439E-08,5.944458,253,334,505,504,-0.01578321,-0.03517319,-0.00577369,-1.517595,-3.013896,-1.735373,-0.006379838,0.03634087,0.00415088,-1.111169,-2.60198,1.666377
-2.421439E-08,5.955569,253,334,505,504,-0.007679624,-0.04818823,-0.01200375,-1.517738,-3.013001,-1.735587,-0.01954373,0.05422787,0.01768584,-1.111138,-2.600462,1.665619
-2.421439E-08,5.966681,250,339,505,506,-0.005611366,-0.05632249,-0.01384138,-1.517839,-3.012169,-1.735639,-0.03108184,0.07582293,0.03678211,-1.111145,-2.598631,1.664508
-2.421439E-08,5.977792,250,339,505,506,-0.004773963,-0.07144941,-0.01945786,-1.517931,-3.010957,-1.735824,-0.03778476,0.08925948,0.04519508,-1.111156,-2.596809,1.663554
-2.421439E-08,5.988903,250,339,505,506,-0.003505063,-0.08129498,-0.02388682,-1.517966,-3.009729,-1.736024,-0.03126773,0.09919073,0.04371845,-1.111541,-2.595435,1.663019
-2.421439E-08,6.000014,250,339,505,506,-0.003364914,-0.08232272,-0.02412902,-1.517999,-3.008799,-1.736152,-0.01451495,0.1023832,0.03536336,-1.112342,-2.594326,1.662702
-2.421439E-08,6.011126,250,318,505,503,-0.003590003,-0.07859121,-0.03096954,-1.517937,-3.008018,-1.736545,-0.002450988,0.1010668,0.03342538,-1.11303,-2.5934,1.662306
-2.421439E-08,6.022237,250,318,505,503,-0.006956162,-0.06803802,-0.03078508,-1.517797,-3.007483,-1.736779,-0.003448881,0.09671135,0.03564607,-1.113372,-2.592284,1.661691
