ref,t,emg1,emg2,emg1raw,emg2raw,aDotS,bDotS,gDotS,aS,bS,gS,aDotSH,bDotSH,gDotSH,aSH,bSH,gSH
0,0,104,222,498,500,0.3763707,-0.945648,0.6508685,-1.361951,3.139224,-1.653853,0.03233184,0.1290771,-0.3388374,-0.9448938,-2.804709,1.449231
0,0.01111111,104,222,498,500,0.336866,-0.9137006,0.6644032,-1.370409,-3.135034,-1.658553,-0.02275316,0.2357382,-0.3436043,-0.9496156,-2.799629,1.447952
0,0.02222222,104,222,498,500,0.3005922,-0.8924941,0.6641631,-1.378397,-3.126281,-1.662616,-0.02770119,0.2794321,-0.3222524,-0.9530506,-2.79529,1.445769
0,0.03333334,104,222,498,500,0.2504212,-0.8553737,0.66589,-1.386483,-3.118064,-1.665689,0.004990287,0.2953098,-0.2587697,-0.9556184,-2.790933,1.442106
0,0.04444445,88,179,498,501,0.2354724,-0.8394901,0.6625292,-1.394589,-3.109417,-1.669724,0.02577675,0.2313549,-0.1897395,-0.9562511,-2.789878,1.440507
0,0.05555556,88,179,498,501,0.2237473,-0.826857,0.645375,-1.402182,-3.101186,-1.673337,0.00590872,0.170687,-0.2353276,-0.9602304,-2.790042,1.441121
0,0.06666667,88,179,498,501,0.2205442,-0.8270804,0.6219087,-1.409453,-3.092268,-1.676937,-0.0009542853,0.1462157,-0.2725442,-0.9644425,-2.789179,1.440686
0,0.07777778,88,179,498,501,0.2301907,-0.8357071,0.6038815,-1.416726,-3.08344,-1.681156,0.02458136,0.1620223,-0.284581,-0.9678284,-2.787272,1.439001
0,0.08888889,88,179,498,501,0.223724,-0.8187271,0.5994817,-1.424252,-3.075372,-1.684463,0.01705895,0.1909083,-0.2961918,-0.9720991,-2.783915,1.436714
0,0.1,88,441,496,486,0.1831844,-0.7933067,0.5949463,-1.43161,-3.067945,-1.686499,-0.02216854,0.2187349,-0.2872576,-0.9755383,-2.780668,1.436219
0,0.1111111,88,441,496,486,0.1458103,-0.7509617,0.5743023,-1.438169,-3.061261,-1.688014,-0.03120117,0.2113295,-0.2338942,-0.9770051,-2.778213,1.435325
0,0.1222222,88,441,496,486,0.1340166,-0.7116933,0.5590625,-1.444652,-3.055089,-1.69006,-0.02552493,0.1740309,-0.1902675,-0.9779074,-2.7774,1.43483
0,0.1333333,88,441,496,486,0.1134686,-0.5586468,0.5131737,-1.455987,-3.047631,-1.693146,0.04069237,0.05480539,-0.1173059,-0.9778547,-2.77372,1.433197
0,0.1444445,87,330,499,499,0.08644623,-0.3853381,0.4809314,-1.460325,-3.048332,-1.693507,0.07622103,-0.007113464,-0.06337646,-0.9772874,-2.775772,1.432761
0,0.1555556,87,330,499,499,0.06804615,-0.288535,0.4716688,-1.465411,-3.047956,-1.693493,0.08901282,-0.02415495,-0.04859343,-0.9772587,-2.775769,1.432801
0,0.1666667,87,330,499,499,0.06804615,-0.288535,0.4716688,-1.465411,-3.047956,-1.693493,0.08901282,-0.02415495,-0.04859343,-0.9772587,-2.775769,1.432801
0,0.1777778,87,330,499,499,-0.004045814,-0.005543798,0.4449802,-1.473865,-3.055006,-1.691069,0.05772445,0.01963282,-0.08661153,-0.980276,-2.774487,1.433118
0,0.1888889,87,314,498,492,-0.02127385,0.08262672,0.4166156,-1.477349,-3.058539,-1.690033,0.0409852,0.04737053,-0.06726677,-0.9807889,-2.773319,1.432305
0,0.2,87,314,498,492,-0.02239683,0.1175725,0.3929222,-1.480726,-3.060777,-1.689564,0.04337701,0.04310765,-0.04385953,-0.9807895,-2.772865,1.431218
0,0.2111111,87,314,498,492,-0.02239683,0.1175725,0.3929222,-1.480726,-3.060777,-1.689564,0.04337701,0.04310765,-0.04385953,-0.9807895,-2.772865,1.431218
0,0.2222222,87,314,498,492,-0.01708582,0.1534929,0.348992,-1.483011,-3.063728,-1.689304,0.0350506,0.009038256,-0.01608066,-0.980226,-2.774022,1.431669
0,0.2333333,87,314,498,492,-0.01174498,0.2346437,0.2259079,-1.484334,-3.070841,-1.688646,0.02789775,-0.09120204,-0.06613694,-0.9831102,-2.781754,1.434379
0,0.2444444,98,304,499,496,-0.03102586,0.3235495,0.1527998,-1.483138,-3.076928,-1.68719,0.04960771,-0.1669143,-0.1057898,-0.985074,-2.786979,1.435963
0,0.2555556,98,304,499,496,-0.07589786,0.4283126,0.07208011,-1.480764,-3.084339,-1.684473,0.0621632,-0.2394431,-0.1069986,-0.9859491,-2.793513,1.438485
0,0.2666667,98,304,499,496,-0.07589786,0.4283126,0.07208011,-1.480764,-3.084339,-1.684473,0.0621632,-0.2394431,-0.1069986,-0.9859491,-2.793513,1.438485
0,0.2777778,98,304,499,496,-0.08347347,0.5214978,-0.003159367,-1.477552,-3.09751,-1.68094,0.05134957,-0.2255415,-0.0312711,-0.9848423,-2.799194,1.440223
0,0.2888889,89,287,499,499,-0.06746264,0.5140304,-0.01054435,-1.476688,-3.102873,-1.680214,0.04864231,-0.1680046,-0.003549643,-0.984071,-2.799491,1.439834
0,0.3,89,287,499,499,-0.06746264,0.5140304,-0.01054435,-1.476688,-3.102873,-1.680214,0.04864231,-0.1680046,-0.003549643,-0.984071,-2.799491,1.439834
0,0.3111111,89,287,499,499,-0.02756183,0.339319,-0.02415556,-1.475374,-3.106416,-1.680279,0.02748164,0.01957615,0.05310006,-0.9822835,-2.79347,1.43623
0,0.3222222,89,287,499,499,-0.01978517,0.2146567,-0.02750706,-1.475239,-3.105096,-1.680164,0.03095114,0.06112282,0.06583063,-0.9816039,-2.791074,1.434372
0,0.3333333,89,287,499,499,-0.01517819,0.0867838,-0.03404768,-1.474986,-3.102902,-1.680275,0.03252639,0.08349461,0.1062907,-0.9794904,-2.788977,1.432771
0,0.3444445,93,429,499,498,-0.00322891,0.003671282,-0.04089719,-1.474597,-3.100504,-1.680805,-0.003497198,0.09213736,0.1215808,-0.9780283,-2.787228,1.432805
0,0.3555556,93,429,499,498,0.01726101,-0.08792792,-0.04553482,-1.474447,-3.097113,-1.681888,-0.05832687,0.1008158,0.07317249,-0.9787927,-2.785832,1.434186
0,0.3666667,93,429,499,498,0.03335472,-0.1357795,-0.03877036,-1.474601,-3.094435,-1.682934,-0.06531574,0.09336781,0.01998415,-0.9800854,-2.785058,1.434635
0,0.3777778,93,429,499,498,0.02262855,-0.1186579,-0.0250544,-1.474827,-3.093715,-1.682906,-0.02849459,0.07406823,-0.01771042,-0.9813674,-2.784891,1.433698
0,0.3888889,98,571,499,491,-0.00417776,-0.06215523,-0.009519067,-1.475062,-3.094579,-1.682086,-0.01585108,0.04738859,-0.02316631,-0.9816417,-2.7852,1.433689
0,0.4,98,571,499,491,-0.0128443,-0.01524161,0.001860097,-1.47536,-3.095448,-1.681643,-0.02748398,0.02613176,-0.009185282,-0.9813067,-2.785278,1.434378
0,0.4111111,98,571,499,491,-0.0194541,0.06153388,0.01409715,-1.475572,-3.0983,-1.681084,-0.03789745,-0.00153039,0.02076872,-0.9800838,-2.786044,1.4355
0,0.4222222,98,571,499,491,-0.02178895,0.1319497,0.0306486,-1.476063,-3.101737,-1.680579,-0.04633219,-0.03238543,0.03576782,-0.9793572,-2.78718,1.436527
0,0.4333333,98,571,499,491,-0.01445215,0.1767654,0.03887732,-1.476483,-3.104703,-1.680553,-0.04967612,-0.05049109,0.02728605,-0.9791698,-2.788481,1.437871
0,0.4444444,91,363,499,502,-0.01132212,0.1960071,0.04726974,-1.476904,-3.10743,-1.680265,-0.05118592,-0.05367246,-0.0142491,-0.9805386,-2.789206,1.438609
0,0.4555556,91,363,499,502,-0.01133748,0.1949621,0.05154395,-1.477438,-3.10942,-1.6798,-0.05461552,-0.02704044,-0.04404603,-0.9818617,-2.788928,1.439074
0,0.4666667,91,363,499,502,-0.02192135,0.1693745,0.05276797,-1.477931,-3.110636,-1.679206,-0.05661417,0.01663902,-0.04509509,-0.982496,-2.787444,1.438841
0,0.4777778,91,363,499,502,-0.03031424,0.1181675,0.04778859,-1.478409,-3.11041,-1.67848,-0.06489488,0.04331165,-0.03116374,-0.9826697,-2.785882,1.43882
0,0.4888889,91,363,499,502,-0.03332472,0.04889846,0.04614143,-1.479069,-3.109174,-1.67819,-0.06696559,0.05077124,-0.02793848,-0.982904,-2.785144,1.439209
0,0.5,90,369,499,500,-0.02890213,-0.01290566,0.04338519,-1.479664,-3.107436,-1.678096,-0.05415239,0.02729431,-0.0184926,-0.9829397,-2.785552,1.439697
0,0.5111111,90,369,499,500,-0.0277709,-0.04056084,0.04890743,-1.480467,-3.106466,-1.677968,-0.0424571,0.004882045,-0.01435186,-0.9828907,-2.78628,1.440232
0,0.5222223,90,369,499,500,-0.02877691,-0.06293946,0.04906514,-1.481199,-3.105193,-1.677746,-0.03190009,-0.02071258,-0.0165868,-0.982968,-2.787272,1.440738
0,0.5333334,90,369,499,500,-0.02877691,-0.06293946,0.04906514,-1.481199,-3.105193,-1.677746,-0.03190009,-0.02071258,-0.0165868,-0.982968,-2.787272,1.440738
0,0.5444446,90,369,499,500,-0.02663328,-0.06719332,0.04909447,-1.481755,-3.104465,-1.677608,-0.03818638,-0.02814236,-0.004809706,-0.9828417,-2.787749,1.441599
0,0.5555557,84,283,499,499,-0.02878555,-0.06503636,0.05440217,-1.482579,-3.10386,-1.677189,-0.04544938,-0.01853499,0.0101886,-0.9823022,-2.787674,1.442244
0,0.5666668,84,283,499,499,-0.03838048,-0.06081805,0.05221926,-1.483069,-3.103304,-1.676555,-0.04636519,0.0006490722,0.01871791,-0.9819618,-2.786922,1.442412
0,0.577778,84,283,499,499,-0.04258948,-0.07261983,0.04163747,-1.48335,-3.102246,-1.676138,-0.04927101,0.03687668,0.03472533,-0.9812822,-2.785318,1.442095
0,0.5888891,84,283,499,499,-0.04468809,-0.07907495,0.03528043,-1.483616,-3.101031,-1.675768,-0.05129224,0.05394144,0.04007358,-0.980847,-2.783856,1.441952
0,0.6000003,84,283,499,499,-0.04462771,-0.09301008,0.02259385,-1.483692,-3.09969,-1.675416,-0.05450001,0.06034175,0.03691029,-0.9806627,-2.782867,1.442059
0,0.6111114,82,214,499,495,-0.0456416,-0.1058589,0.0130945,-1.483774,-3.098247,-1.675037,-0.05456803,0.05287449,0.0326719,-0.9801509,-2.782561,1.442464
0,0.6222225,82,214,499,495,-0.04451302,-0.1186818,0.00572628,-1.483804,-3.096793,-1.674931,-0.05153317,0.04966622,0.01879048,-0.9803554,-2.782014,1.442652
0,0.6333337,82,214,499,495,-0.0445017,-0.1208347,0.002545407,-1.483896,-3.095386,-1.67456,-0.04530052,0.05282947,0.002750074,-0.9806973,-2.781431,1.442607
0,0.6444448,82,214,499,495,-0.04446668,-0.1293788,-0.001655038,-1.483958,-3.093836,-1.674263,-0.03570998,0.06558646,-0.001603702,-0.980765,-2.780111,1.441891
0,0.655556,79,346,500,504,-0.0444299,-0.1400564,-0.005844739,-1.483939,-3.092063,-1.673947,-0.03026901,0.07622352,0.005791461,-0.9806766,-2.778744,1.441337
0,0.6666671,79,346,500,504,-0.04656678,-0.1358098,-0.00694484,-1.483968,-3.090658,-1.673526,-0.02916516,0.07301994,0.01004776,-0.9804305,-2.77794,1.441186
0,0.6777782,79,346,500,504,-0.04657129,-0.1273349,-0.01446684,-1.483635,-3.089482,-1.673203,-0.01954222,0.06553223,0.01526937,-0.9802068,-2.777313,1.440755
0,0.6888894,79,346,500,504,-0.04451142,-0.1039414,-0.01889596,-1.483308,-3.088647,-1.672576,-0.006776124,0.05056774,0.01835272,-0.9796108,-2.777213,1.440465
0,0.7000005,79,346,500,504,-0.04884347,-0.07624193,-0.01803894,-1.483045,-3.088572,-1.671997,0.003883008,0.0409455,0.02143183,-0.9793658,-2.77696,1.439909
0,0.7111117,74,317,499,505,-0.05206867,-0.05926874,-0.0256166,-1.482651,-3.08815,-1.671379,0.00069727,0.03137542,0.02467372,-0.9788811,-2.776603,1.439723
0,0.7222228,74,317,499,505,-0.05744219,-0.03588964,-0.03218769,-1.482,-3.08835,-1.670621,0.000757847,0.0335151,0.02999178,-0.9786084,-2.775867,1.439364
0,0.7333339,74,317,499,505,-0.06277271,-0.02851675,-0.04289439,-1.48135,-3.0882,-1.669736,0.001823086,0.0335117,0.02998022,-0.9783218,-2.775379,1.439055
0,0.7444451,74,317,499,505,-0.06172486,-0.0189546,-0.04722283,-1.480679,-3.088189,-1.669094,0.008183941,0.02708939,0.02885633,-0.9779202,-2.775334,1.43874
0,0.7555562,73,317,499,502,-0.06067036,-0.01046222,-0.05260376,-1.479987,-3.08828,-1.668467,0.02101772,0.006809724,0.03937384,-0.9771026,-2.775822,1.438405
0,0.7666674,73,317,499,502,-0.06390342,0.004433637,-0.0537793,-1.479374,-3.088654,-1.667686,0.03597978,-0.01349071,0.04881066,-0.9760933,-2.776759,1.438002
0,0.7777785,73,317,499,502,-0.06396046,0.02681653,-0.05287572,-1.478602,-3.089498,-1.666912,0.0380318,-0.03160865,0.04665886,-0.9755542,-2.777702,1.438032
0,0.7888896,73,317,499,502,-0.06293739,0.04279326,-0.05404704,-1.477932,-3.09034,-1.666121,0.03898133,-0.03588246,0.03812822,-0.9752768,-2.778393,1.438141
0,0.8000008,73,317,499,502,-0.05978197,0.05667728,-0.05094489,-1.477329,-3.091317,-1.665448,0.03581578,-0.03054631,0.03922661,-0.9748117,-2.778545,1.4379
0,0.8111119,74,275,499,498,-0.054465,0.0662557,-0.05420038,-1.476524,-3.092217,-1.665018,0.03288224,-0.0007043444,0.05417091,-0.97391,-2.777377,1.436902
0,0.8222231,74,275,499,498,-0.05127181,0.06732929,-0.05420215,-1.475849,-3.092948,-1.664459,0.03612557,0.006742207,0.05626739,-0.973233,-2.776943,1.436151
0,0.8333342,74,275,499,498,-0.04910721,0.05667318,-0.05624065,-1.475319,-3.093292,-1.663959,0.02874267,0.01529262,0.06060512,-0.9724661,-2.776308,1.435658
0,0.8444453,74,275,499,498,-0.04587619,0.04811963,-0.06150661,-1.47442,-3.093501,-1.663556,0.01139316,0.03558143,0.02562314,-0.97338,-2.775404,1.435333
0,0.8555565,72,278,499,497,-0.04263037,0.03212039,-0.06565061,-1.473583,-3.093382,-1.663198,0.001666728,0.04626254,0.009746678,-0.973804,-2.774496,1.435063
0,0.8666676,72,278,499,497,-0.04261739,0.02785191,-0.06668608,-1.472797,-3.093495,-1.662714,-0.001650855,0.04840904,-0.003015269,-0.9744064,-2.77379,1.43458
0,0.8777788,72,278,499,497,-0.03510769,0.00764282,-0.06653616,-1.472074,-3.093061,-1.662619,-0.0005154293,0.04840633,0.00336346,-0.9742887,-2.77315,1.434157
0,0.8888899,72,278,499,497,-0.02230876,-0.006101888,-0.05683132,-1.471669,-3.092728,-1.662614,-0.002499115,0.04309298,0.01830447,-0.9737018,-2.772561,1.433879
0,0.900001,72,278,499,497,-0.01804607,-0.009256174,-0.05254167,-1.471186,-3.092498,-1.662565,-0.005644828,0.03351665,0.02579581,-0.9732528,-2.772354,1.4339
0,0.9111122,75,308,499,497,-0.01485976,-0.009188343,-0.04295093,-1.470936,-3.092252,-1.662611,-0.007818144,0.01647992,0.02688477,-0.9729348,-2.77264,1.43419
0,0.9222233,75,308,499,497,-0.006338639,-0.01232475,-0.03758886,-1.470658,-3.092013,-1.662773,-0.01225919,0.01861049,0.009882369,-0.9733896,-2.77253,1.434415
0,0.9333345,75,308,499,497,-0.002090778,-0.009074481,-0.03013995,-1.470648,-3.091891,-1.662989,-0.01766351,0.03034405,-0.000714411,-0.9737657,-2.771823,1.434344
0,0.9444456,75,308,499,497,0.001074621,-0.004763012,-0.02376504,-1.470628,-3.091898,-1.662939,-0.01553757,0.04524224,-0.005005215,-0.9740501,-2.770902,1.433997
0,0.9555568,75,308,499,497,0.003212564,-0.008994217,-0.02054083,-1.470414,-3.091691,-1.663093,-0.02284452,0.07402982,0.0003962736,-0.974122,-2.768902,1.433323
0,0.9666679,73,211,499,499,0.008557873,-0.02387574,-0.01722776,-1.470427,-3.090975,-1.663162,-0.0504169,0.1039339,0.002823646,-0.9742136,-2.766852,1.433332
0,0.977779,73,211,499,499,0.0117822,-0.03450992,-0.01608368,-1.4703,-3.090342,-1.663498,-0.06005079,0.107159,-0.002400123,-0.9745604,-2.765414,1.433406
0,0.9888902,73,211,499,499,0.01184652,-0.06434071,-0.01693914,-1.470244,-3.088879,-1.663534,-0.05805831,0.1060677,-0.01414955,-0.9752634,-2.764462,1.433545
0,1.000001,73,211,499,499,0.01403783,-0.08986896,-0.01249877,-1.470319,-3.08725,-1.663948,-0.04429671,0.09643427,-0.01962367,-0.9757247,-2.763578,1.433128
0,1.011112,79,270,498,495,0.01299572,-0.1005146,-0.01242163,-1.470354,-3.086067,-1.664114,-0.03051467,0.06655768,-0.01658474,-0.9759447,-2.763821,1.433282
0,1.022224,79,270,498,495,0.0140554,-0.09942078,-0.009234579,-1.470386,-3.085047,-1.664441,-0.0252203,0.03884209,-0.01131628,-0.975942,-2.764174,1.433678
0,1.033335,79,270,498,495,0.008680239,-0.08976059,0.001343788,-1.470782,-3.084566,-1.664365,-0.02415774,0.027121,-0.008129822,-0.9759436,-2.76422,1.433935
0,1.044446,79,270,498,495,0.009687799,-0.0705283,0.009739796,-1.471235,-3.084261,-1.664652,-0.03258525,0.03991761,-0.002709501,-0.975876,-2.763441,1.434163
0,1.055557,79,270,498,495,0.003245164,-0.0524237,0.01172629,-1.471336,-3.084102,-1.664531,-0.04210984,0.05592772,-0.00154332,-0.9760059,-2.762192,1.434177
0,1.066668,81,262,499,491,-0.002115173,-0.04281475,0.01698112,-1.471753,-3.083827,-1.66442,-0.04519306,0.06339709,0.007009717,-0.97586,-2.761057,1.434166
0,1.077779,81,262,499,491,-0.01595922,-0.04180601,0.01375001,-1.471809,-3.08341,-1.663974,-0.04515938,0.06339816,0.01020827,-0.975714,-2.760192,1.434193
0,1.08889,81,262,499,491,-0.01487941,-0.04290545,0.008436642,-1.471875,-3.08288,-1.663942,-0.04302193,0.05591926,0.01337445,-0.9756283,-2.759948,1.434524
0,1.100002,81,262,499,491,-0.01809933,-0.03648274,0.01370871,-1.472127,-3.082696,-1.663715,-0.02821502,0.02178216,0.01322417,-0.9753188,-2.760796,1.434833
0,1.111113,80,324,498,479,-0.02024454,-0.03118687,0.01046553,-1.472075,-3.082459,-1.663388,-0.0188555,-0.01023171,0.001406946,-0.9754754,-2.762438,1.435685
0,1.122224,80,324,498,479,-0.02025285,-0.02799105,0.01044322,-1.472206,-3.082254,-1.663188,-0.02223479,-0.03152898,-0.00920414,-0.9757044,-2.763582,1.43668
0,1.133335,80,324,498,479,-0.02453502,-0.01841203,0.01037138,-1.472357,-3.082359,-1.662835,-0.0231935,-0.02941034,-0.0006727222,-0.9754248,-2.764116,1.437163
0,1.144446,80,324,498,479,-0.03093763,-0.01097845,0.009245994,-1.472487,-3.082426,-1.662416,-0.02731888,-0.02087856,0.008950965,-0.9751867,-2.764156,1.437538
0,1.155557,80,324,498,479,-0.03307428,-0.007794444,0.008157535,-1.472602,-3.082431,-1.662011,-0.0272577,-0.01981242,0.01427694,-0.9748768,-2.764341,1.437934
0,1.166668,85,289,498,500,-0.03733807,-0.004626213,0.005998179,-1.472649,-3.082429,-1.661514,-0.02512611,-0.01875236,0.01426173,-0.9745923,-2.764491,1.438258
0,1.17778,85,289,498,500,-0.03737858,0.008186975,0.01016762,-1.472807,-3.082844,-1.661063,-0.02098198,-0.03261546,0.007826948,-0.9745588,-2.765351,1.438905
0,1.188891,85,289,498,500,-0.04063644,0.02629502,0.01217022,-1.473007,-3.083513,-1.660315,-0.0178283,-0.04328191,0.006733618,-0.9743292,-2.766309,1.439501
0,1.200002,85,289,498,500,-0.04176739,0.05185993,0.01199152,-1.473047,-3.084823,-1.659718,-0.01260212,-0.0592787,0.002413974,-0.9743351,-2.767613,1.440279
0,1.211113,85,289,498,500,-0.04503765,0.07319932,0.01823596,-1.473413,-3.086154,-1.658906,-0.01469913,-0.07418482,0.009896602,-0.9738716,-2.769062,1.441306
0,1.222224,85,310,498,497,-0.05465202,0.08594494,0.01706855,-1.473534,-3.087354,-1.658015,-0.0146415,-0.08057993,0.01734545,-0.9734951,-2.770339,1.442238
0,1.233335,85,310,498,497,-0.0599809,0.08803928,0.01384673,-1.473495,-3.088359,-1.65707,-0.01568009,-0.08696719,0.02162209,-0.9729758,-2.771644,1.443171
0,1.244446,85,310,498,497,-0.06103363,0.08269592,0.01069448,-1.47358,-3.089218,-1.656202,-0.01142158,-0.09549297,0.02476675,-0.9725992,-2.772953,1.444057
0,1.255558,85,310,498,497,-0.05994581,0.07522596,0.008616544,-1.473559,-3.089825,-1.655506,-0.009307329,-0.09976022,0.02474392,-0.972196,-2.774352,1.44494
0,1.266669,83,346,498,494,-0.05565923,0.06672052,0.008685739,-1.473628,-3.090439,-1.655008,-0.008296393,-0.1114862,0.02260967,-0.9717363,-2.776218,1.445959
0,1.27778,83,346,498,494,-0.0492443,0.06244182,0.003397926,-1.473419,-3.091055,-1.654598,-0.01480373,-0.1114663,0.0131006,-0.9715744,-2.777655,1.447302
0,1.288891,83,346,498,494,-0.04818003,0.05923227,0.001285082,-1.473229,-3.091603,-1.653841,-0.007373065,-0.1050989,0.008757472,-0.971487,-2.778883,1.447902
0,1.300002,83,346,498,494,-0.04711625,0.05925335,0.00447986,-1.473282,-3.092227,-1.653326,-0.00731663,-0.09975978,0.01195032,-0.9711835,-2.77985,1.448446
0,1.311113,83,346,498,494,-0.04711078,0.05712277,0.004494829,-1.473271,-3.092784,-1.652735,-0.01040373,-0.08376935,0.01730798,-0.9707989,-2.780407,1.448939
0,1.322224,80,261,498,508,-0.04603588,0.0560598,0.004500797,-1.473216,-3.093371,-1.652306,-0.01562338,-0.06883592,0.02375643,-0.9702982,-2.780802,1.449638
0,1.333336,80,261,498,508,-0.04711236,0.06137605,0.003396674,-1.473144,-3.094166,-1.651661,-0.01563953,-0.0667063,0.02162369,-0.9700676,-2.7816,1.450263
0,1.344447,80,261,498,508,-0.04499879,0.06137493,0.003392874,-1.473036,-3.094748,-1.650922,-0.01141158,-0.07522747,0.02158981,-0.9695739,-2.782607,1.450926
0,1.355558,80,261,498,508,-0.04716424,0.07626816,0.001151919,-1.472837,-3.096014,-1.650196,-0.002877221,-0.09762506,0.0289583,-0.9688702,-2.784607,1.451823
0,1.366669,79,270,499,506,-0.04611218,0.0847941,0.001101272,-1.472846,-3.097206,-1.649715,-0.001949672,-0.1082754,0.02042599,-0.9687312,-2.786244,1.452922
0,1.37778,79,270,499,506,-0.05148299,0.1007755,0.003110219,-1.472798,-3.098807,-1.64883,-0.007369246,-0.1167733,0.01410398,-0.9684393,-2.787861,1.454018
0,1.388891,79,270,499,506,-0.05362519,0.1039359,-0.0001109717,-1.472663,-3.09989,-1.647951,-0.009474564,-0.1125051,0.01519148,-0.9681006,-2.789198,1.454938
0,1.400002,79,270,499,506,-0.04935848,0.1018278,0.002043551,-1.472665,-3.100908,-1.64748,-0.01046917,-0.1039822,0.01840337,-0.9675956,-2.790306,1.45557
0,1.411114,79,270,499,506,-0.0450724,0.09225155,0.002118244,-1.472641,-3.101673,-1.647009,-0.01477934,-0.09438256,0.01099115,-0.9675999,-2.791274,1.456374
0,1.422225,76,231,499,495,-0.04184307,0.07946624,7.50809E-05,-1.472433,-3.102271,-1.646513,-0.01369148,-0.07732745,0.006711751,-0.9676511,-2.791579,1.456437
0,1.433336,76,231,499,495,-0.03328089,0.06562513,-0.001943344,-1.472338,-3.102599,-1.646359,-0.01155517,-0.06455175,0.003487442,-0.9676761,-2.792086,1.456797
0,1.444447,76,231,499,495,-0.02683093,0.04540378,-0.0007179738,-1.472478,-3.102515,-1.646321,-0.01043223,-0.05709737,0.007732572,-0.9674561,-2.792638,1.457378
0,1.455558,76,231,499,495,-0.02360586,0.03370278,0.0004367947,-1.472549,-3.102612,-1.646149,-0.007198089,-0.03793225,0.005565817,-0.9674497,-2.79252,1.457277
0,1.466669,76,256,499,499,-0.01931478,0.01878683,-0.0005284724,-1.47238,-3.10238,-1.645885,-0.009298678,-0.01874785,0.002384907,-0.967617,-2.792168,1.457197
0,1.47778,76,256,499,499,-0.02036387,0.01452156,-0.0005026797,-1.472347,-3.102462,-1.645689,-0.013549,-0.007007432,0.000294094,-0.9677576,-2.791832,1.457311
0,1.488891,76,256,499,499,-0.01395189,0.006023572,0.0006336708,-1.472398,-3.102302,-1.645724,-0.01148038,-0.01553709,-0.002923032,-0.9678279,-2.792292,1.45766
0,1.500003,76,256,499,499,-0.0128859,0.004977616,0.00277271,-1.472469,-3.102366,-1.645631,-0.009316534,-0.02512753,0.002376318,-0.9676798,-2.792884,1.457952
0,1.511114,76,256,499,499,-0.01396036,0.00393163,0.005968587,-1.472535,-3.102383,-1.645345,-0.01050302,-0.03790892,-0.005065543,-0.9678338,-2.793832,1.458628
0,1.522225,74,208,498,501,-0.01184009,0.006088152,0.01022147,-1.4728,-3.102409,-1.645312,-0.01382271,-0.03256602,-0.01781417,-0.9683653,-2.794005,1.459004
0,1.533336,74,208,498,501,-0.01184367,0.008211247,0.0091413,-1.472852,-3.102556,-1.645174,-0.01066834,-0.02405493,-0.02424102,-0.9687813,-2.794121,1.459089
0,1.544447,74,208,498,501,-0.009737961,0.01676416,0.01333618,-1.47295,-3.102915,-1.645158,-0.003174461,-0.008096926,-0.02538929,-0.9690838,-2.79377,1.458767
0,1.555558,74,208,498,501,-0.005481411,0.01575022,0.01867568,-1.473246,-3.103141,-1.645221,-0.005259134,0.005758006,-0.025369,-0.9694088,-2.793326,1.458603
0,1.566669,74,208,498,501,-0.001231452,0.01791058,0.02294355,-1.473776,-3.103281,-1.645319,-0.008444003,0.01642562,-0.02747373,-0.96992,-2.792758,1.458477
0,1.577781,73,286,498,499,0.0009074546,0.01577881,0.02189394,-1.473933,-3.103412,-1.645384,-0.004166028,0.01216447,-0.02537134,-0.96992,-2.792563,1.458175
0,1.588892,73,286,498,499,0.003063763,0.005141119,0.02196852,-1.474125,-3.103306,-1.645454,-0.01057371,0.01431516,-0.02743288,-0.9702833,-2.79238,1.458343
0,1.600003,73,286,498,499,0.006323492,-0.014059,0.01784548,-1.474251,-3.102615,-1.645766,-0.0137907,0.02285246,-0.03167232,-0.9709758,-2.791776,1.45827
0,1.611114,73,286,498,499,0.01276394,-0.03426751,0.02012898,-1.474601,-3.101724,-1.646153,-0.007449429,0.03880841,-0.0413342,-0.9718333,-2.790889,1.457636
0,1.622225,72,264,498,498,0.009630748,-0.05559989,0.01814549,-1.474865,-3.100589,-1.646337,-0.003088694,0.06117325,-0.03926254,-0.9724735,-2.789374,1.456612
0,1.633336,72,264,498,498,0.01710886,-0.06304475,0.01714965,-1.475148,-3.099749,-1.646786,-0.00409954,0.07395883,-0.03819132,-0.9730487,-2.78809,1.455941
0,1.644447,72,264,498,498,0.01923437,-0.06514203,0.02036196,-1.475484,-3.099106,-1.64704,-0.002015663,0.06970124,-0.04246013,-0.9735137,-2.787235,1.455232
0,1.655559,72,264,498,498,0.02243461,-0.06618202,0.02357237,-1.475908,-3.098314,-1.647534,0.001105301,0.0494501,-0.04355589,-0.9740165,-2.78738,1.4552
0,1.66667,72,264,498,498,0.02560756,-0.0565937,0.02244585,-1.476162,-3.097963,-1.647948,-0.004244678,0.04628377,-0.04457231,-0.9747527,-2.786725,1.455055
0,1.677781,71,265,498,485,0.02560046,-0.05445479,0.02349409,-1.476449,-3.097439,-1.648284,-0.007378934,0.04522723,-0.03814149,-0.9750056,-2.786192,1.454979
0,1.688892,71,265,498,485,0.02345655,-0.05230733,0.02666642,-1.476764,-3.096915,-1.648523,0.0002374267,0.04094475,-0.02224306,-0.9749044,-2.785745,1.454536
0,1.700003,71,265,498,485,0.02557661,-0.04593007,0.02343021,-1.476973,-3.096602,-1.648898,0.003475454,0.0398703,-0.01695653,-0.9751143,-2.785257,1.454322
0,1.711114,71,265,498,485,0.02660957,-0.03420192,0.0244157,-1.477289,-3.096526,-1.649239,0.01299111,0.03557763,-0.0223859,-0.9755175,-2.784985,1.453763
0,1.722225,71,282,499,494,0.0276527,-0.02673575,0.02543219,-1.477631,-3.096436,-1.649565,0.009663506,0.0259955,-0.03191657,-0.9758536,-2.785031,1.45374
0,1.733337,71,282,499,494,0.02759909,-0.002271575,0.01993541,-1.47766,-3.097056,-1.649829,0.004306093,0.02707732,-0.03505468,-0.9763665,-2.784694,1.453647
0,1.744448,71,282,499,494,0.02544501,0.003050028,0.02096676,-1.478008,-3.097125,-1.649941,-0.006327596,0.03030316,-0.03492947,-0.9766078,-2.78429,1.453673
0,1.755559,71,282,499,494,0.0275903,0.003004555,0.0135147,-1.47798,-3.097158,-1.650347,-0.007402877,0.03030558,-0.03598498,-0.9770909,-2.783967,1.453563
0,1.76667,71,282,499,494,0.03292613,0.0008583083,0.008208163,-1.477884,-3.097195,-1.650763,-0.002147704,0.02602663,-0.04029969,-0.9776363,-2.783814,1.453519
0,1.777781,70,253,499,511,0.03295118,-0.004504154,0.002920622,-1.477829,-3.097014,-1.65116,-6.156601E-05,0.03347541,-0.04671665,-0.9784139,-2.783227,1.453118
0,1.788892,70,253,499,511,0.03725482,-0.01942169,0.0009018997,-1.477852,-3.096399,-1.651752,-0.005433347,0.0473373,-0.05517875,-0.9792838,-2.782334,1.452806
0,1.800003,70,253,499,511,0.04260942,-0.03007306,-0.002193318,-1.478032,-3.095983,-1.652307,-0.01070651,0.06120747,-0.0551234,-0.9799751,-2.781144,1.452271
0,1.811115,70,253,499,511,0.04158362,-0.04604737,-0.001018416,-1.478133,-3.095054,-1.652842,-0.01370216,0.08039491,-0.04230956,-0.9802728,-2.779503,1.451597
0,1.822226,70,253,499,511,0.04694749,-0.05884477,-0.005177461,-1.478088,-3.094105,-1.653539,-0.0114741,0.08678623,-0.03702618,-0.9809466,-2.778187,1.450662
0,1.833337,71,255,499,499,0.04591865,-0.0716365,-0.006152289,-1.478138,-3.093009,-1.654162,-0.01353099,0.09531602,-0.03274306,-0.9813226,-2.776674,1.45001
0,1.844448,71,255,499,499,0.03632517,-0.07271544,-0.006157542,-1.478186,-3.092358,-1.654244,-0.017792,0.09532166,-0.03376363,-0.9818723,-2.77562,1.449581
0,1.855559,71,255,499,499,0.02352905,-0.06742352,-0.006216045,-1.478208,-3.091753,-1.654258,-0.02209845,0.08042048,-0.03371257,-0.9822819,-2.775102,1.449619
0,1.86667,71,255,499,499,0.02243144,-0.05146861,-0.009524059,-1.478044,-3.091584,-1.654559,-0.01470994,0.06654672,-0.03593272,-0.9829099,-2.774738,1.449378
0,1.877781,72,326,499,485,0.02345915,-0.03971803,-0.005345158,-1.478082,-3.091455,-1.654871,0.003377187,0.03985953,-0.02973598,-0.9831001,-2.774928,1.44906
0,1.888893,72,326,499,485,0.01807631,-0.0173413,-0.003369308,-1.47824,-3.091957,-1.654969,0.01817597,0.0003962088,-0.0288249,-0.9832737,-2.776093,1.449129
0,1.900004,72,326,499,485,0.01480844,0.001846956,0.0007467562,-1.478248,-3.09233,-1.654827,0.02125805,-0.0241271,-0.03204292,-0.9834995,-2.777279,1.449543
0,1.911115,72,326,499,485,0.01472552,0.03169675,0.003734153,-1.478253,-3.093508,-1.654884,0.0243578,-0.04331308,-0.03526961,-0.9838718,-2.778583,1.449908
0,1.922226,72,326,499,485,0.01144195,0.06579319,0.005616787,-1.478176,-3.095044,-1.654856,0.02327079,-0.04225274,-0.03739107,-0.9843065,-2.779214,1.450084
0,1.933337,71,270,499,510,0.01352551,0.08180001,0.008704796,-1.478235,-3.096387,-1.654928,0.02222458,-0.0326619,-0.03844666,-0.9847278,-2.779407,1.449975
0,1.944448,71,270,499,510,0.0134674,0.0988923,0.01496685,-1.478291,-3.097946,-1.654888,0.02017578,-0.02092665,-0.0331057,-0.9850468,-2.779144,1.449857
0,1.955559,71,270,499,510,0.009149775,0.1149288,0.02442897,-1.478577,-3.099704,-1.654746,0.02125701,-0.0166698,-0.03311849,-0.9853888,-2.779315,1.449659
0,1.966671,71,270,499,510,0.009143526,0.1159851,0.0233511,-1.478623,-3.100981,-1.654651,0.02659896,-0.0284034,-0.02678056,-0.9854112,-2.780061,1.449854
0,1.977782,70,245,498,506,0.008081168,0.1138586,0.02442932,-1.478815,-3.102182,-1.654616,0.02979166,-0.03693337,-0.02470114,-0.9858229,-2.780842,1.44986
0,1.988893,70,245,498,506,0.01024176,0.1021394,0.02238592,-1.47894,-3.10309,-1.654681,0.03092565,-0.0625014,-0.01085939,-0.9853994,-2.782441,1.450366
0,2.000004,70,245,498,506,0.01453166,0.09362366,0.02137567,-1.478869,-3.103978,-1.654921,0.0341571,-0.06995447,-0.005581753,-0.9854825,-2.783341,1.450376
0,2.011115,70,245,498,506,0.01457724,0.08184621,0.01293552,-1.478733,-3.104542,-1.655036,0.02875141,-0.07313442,-0.01191472,-0.985669,-2.784449,1.450823
0,2.022226,70,245,498,506,0.0156721,0.07435887,0.008730676,-1.478728,-3.105135,-1.655221,0.0223471,-0.06138529,-0.01718571,-0.9861621,-2.784704,1.450792
0,2.033337,71,290,499,492,0.01357761,0.06261355,0.00561481,-1.478695,-3.105537,-1.655275,0.01817051,-0.04219607,-0.01501286,-0.9862708,-2.784626,1.450683
0,2.044448,71,290,499,492,0.0146706,0.05726738,0.003532909,-1.478792,-3.105971,-1.655569,0.01517081,-0.02407587,-0.004326714,-0.9859874,-2.78436,1.450107
0,2.055559,71,290,499,492,0.0147182,0.04020806,0.001519924,-1.478734,-3.105947,-1.655725,0.01216588,-0.01767075,0.01168317,-0.9854564,-2.784319,1.450063
0,2.06667,71,290,499,492,0.01367552,0.0337943,-0.0005623496,-1.478746,-3.106117,-1.655858,0.007908332,-0.01552435,0.01172954,-0.9853291,-2.78443,1.450192
0,2.077781,70,237,499,503,0.01477604,0.02417402,-0.005818837,-1.478514,-3.106174,-1.656069,0.00679281,-0.02084038,0.007477893,-0.9853962,-2.784803,1.450172
0,2.088892,70,237,499,503,0.01266349,0.01561112,-0.01108516,-1.47833,-3.106172,-1.655954,0.00458205,-0.03148714,0.0032421,-0.9853861,-2.785572,1.450613
0,2.100003,70,237,499,503,0.009469058,0.01769724,-0.01536439,-1.478092,-3.10633,-1.655953,0.01092754,-0.03576868,-1.708674E-05,-0.9853557,-2.786158,1.450583
0,2.111114,70,237,499,503,0.001997566,0.02406202,-0.01648779,-1.477838,-3.106717,-1.655725,0.00992264,-0.04214877,0.007444901,-0.9851262,-2.786759,1.450834
0,2.122225,70,237,499,503,0.001967529,0.0347209,-0.0176224,-1.477647,-3.107575,-1.655639,0.00998366,-0.04534582,0.01384391,-0.9846346,-2.787396,1.451071
0,2.133336,71,235,498,494,-0.003394594,0.04855557,-0.01772864,-1.477372,-3.108468,-1.655364,0.001455756,-0.03999242,0.01180488,-0.9845179,-2.787742,1.45148
0,2.144447,71,235,498,494,-0.006632101,0.06350408,-0.01144464,-1.477353,-3.109532,-1.655236,0.0003714683,-0.03678647,0.008594492,-0.9848732,-2.788035,1.45157
0,2.155558,71,235,498,494,-0.01410987,0.07095929,-0.00938255,-1.477169,-3.110557,-1.654828,0.001358271,-0.03679196,0.00112698,-0.9849813,-2.788581,1.451773
0,2.166669,71,235,498,494,-0.01624111,0.07414103,-0.009409211,-1.476972,-3.11131,-1.65463,0.001410529,-0.03892583,0.007522268,-0.9846042,-2.789185,1.45224
0,2.17778,71,235,498,494,-0.02899416,0.0666257,-0.01364785,-1.476559,-3.111897,-1.65396,0.003458032,-0.04424213,7.215887E-06,-0.9852577,-2.789726,1.452211
0,2.188891,74,208,499,503,-0.02576641,0.05280037,-0.01141503,-1.476469,-3.112131,-1.653733,0.002370248,-0.05489146,0.001085987,-0.9851267,-2.790797,1.452815
0,2.200002,74,208,499,503,-0.01617067,0.04753171,-0.007107452,-1.476372,-3.112551,-1.653841,0.007835273,-0.04851296,0.01167895,-0.984641,-2.791127,1.452747
0,2.211113,74,208,499,503,-0.01400797,0.03581185,-0.008087166,-1.47628,-3.112624,-1.653761,0.008956764,-0.03253488,0.012729,-0.9844822,-2.790997,1.452636
0,2.222224,74,208,499,503,-0.01507051,0.03791509,-0.01129889,-1.476027,-3.11309,-1.653534,0.00361687,-0.01653678,0.00531698,-0.9848263,-2.790726,1.452373
0,2.233335,74,208,498,491,-0.01720063,0.03474347,-0.007019356,-1.476031,-3.113378,-1.653247,-0.004993234,-0.007988713,-0.005244473,-0.9852045,-2.790612,1.452625
0,2.244446,74,208,498,491,-0.01293675,0.03052918,-0.002714993,-1.476195,-3.113725,-1.653192,-0.003814045,-0.006934375,0.001107538,-0.985343,-2.79091,1.452176
0,2.255557,74,208,498,491,-0.01290303,0.01774672,-0.00262991,-1.476107,-3.113566,-1.653062,0.0005766675,-0.01333803,0.01490941,-0.9847672,-2.79121,1.452242
0,2.266668,74,208,498,491,-0.01071673,-0.001448966,-0.006748285,-1.476016,-3.113111,-1.653015,0.004797487,-0.020817,0.01378698,-0.9847672,-2.791853,1.452507
0,2.277779,74,208,498,491,-0.01175604,-0.0120992,-0.005612478,-1.475999,-3.112703,-1.652894,0.0003675474,-0.02294125,-0.001087041,-0.985245,-2.792377,1.452921
0,2.28889,74,221,498,508,-0.008537252,-0.0216835,-0.00660671,-1.475847,-3.112005,-1.652763,-0.004944673,-0.001609473,-0.007432309,-0.9857669,-2.79184,1.452667
0,2.300001,74,221,498,508,-0.008537252,-0.0216835,-0.00660671,-1.475847,-3.112005,-1.652763,-0.004944673,-0.001609473,-0.007432309,-0.9857669,-2.79184,1.452667
0,2.311112,74,221,498,508,-0.009627599,-0.0142071,-0.003464823,-1.475874,-3.112042,-1.652614,-0.006985128,0.02291325,-0.006364817,-0.9861584,-2.790512,1.45204
0,2.322223,74,221,498,508,-0.009658781,-0.007781663,0.0007495941,-1.475956,-3.112182,-1.652393,-0.006902203,0.01760715,3.400468E-05,-0.9859225,-2.790171,1.451486
0,2.333334,74,253,499,505,-0.007547407,-0.0003192826,0.0007014215,-1.475942,-3.112384,-1.652347,-0.003693032,0.003748882,0.00532795,-0.9856652,-2.790527,1.451638
0,2.344445,74,253,499,505,-0.005437545,0.006077281,-0.0003979107,-1.475957,-3.112702,-1.652201,-0.00381669,-0.01436683,0.001060299,-0.985842,-2.791394,1.452464
0,2.355556,74,253,499,505,-0.003333517,0.01251611,0.003833705,-1.476241,-3.113202,-1.652117,-0.001834299,-0.02822377,-0.00854325,-0.9860561,-2.792211,1.452877
0,2.366668,74,253,499,505,-0.005476652,0.01678003,0.004865537,-1.476287,-3.113501,-1.651956,-0.002935691,-0.02609728,-0.01282841,-0.9867683,-2.792696,1.453139
0,2.377779,74,253,499,505,-0.006556553,0.01570382,0.005940344,-1.476429,-3.11342,-1.65164,-0.005076082,-0.01543892,-0.01706276,-0.9869755,-2.792594,1.453163
0,2.38889,74,247,499,498,-0.007640962,0.02206796,0.001639564,-1.476424,-3.114143,-1.651228,-0.002717788,0.005905489,-0.002155376,-0.9865558,-2.791001,1.452334
0,2.400001,74,247,499,498,-0.007640962,0.02206796,0.001639564,-1.476424,-3.114143,-1.651228,-0.002717788,0.005905489,-0.002155376,-0.9865558,-2.791001,1.452334
0,2.411112,74,247,499,498,-0.00872228,0.02529071,0.005876436,-1.476595,-3.114538,-1.651071,-0.001630924,-0.009011084,0.004227135,-0.9862666,-2.791521,1.452629
0,2.422223,74,247,499,498,-0.01085013,0.02952477,0.002651918,-1.476563,-3.115006,-1.650982,-0.0006296933,-0.01966652,0.00105968,-0.9857813,-2.792046,1.45283
0,2.433334,71,217,499,502,-0.007668242,0.03275117,0.00583113,-1.47667,-3.115486,-1.65094,0.01313458,-0.03142966,-0.003349404,-0.9858372,-2.792885,1.452757
0,2.444445,71,217,499,502,-0.004459783,0.03168001,0.003715259,-1.47666,-3.115813,-1.651048,0.01840611,-0.02717722,-0.01090387,-0.9867161,-2.793008,1.452296
0,2.455556,71,217,499,502,-0.004448851,0.02741892,0.003745043,-1.476694,-3.116004,-1.650992,0.009895208,-0.01223538,-0.01400757,-0.9869334,-2.792671,1.452302
0,2.466667,71,217,499,502,-0.001222383,0.01782165,0.001678331,-1.47652,-3.115905,-1.651068,0.00142999,0.01337327,-0.01608404,-0.9877451,-2.791487,1.451914
0,2.477778,71,217,499,502,0.0009397353,0.01140544,-0.001469568,-1.476454,-3.115738,-1.651288,-0.0006576236,0.0261631,-0.01605874,-0.9879337,-2.790765,1.451537
0,2.488889,71,263,498,503,0.004150143,0.005029534,-0.000353939,-1.476501,-3.115597,-1.651445,-0.0006411597,0.02615861,-0.01391937,-0.9879246,-2.790545,1.451492
0,2.5,71,263,498,503,0.009503171,-0.005596839,0.0007931087,-1.476534,-3.115318,-1.651834,0.002558547,0.0005874094,-0.005404149,-0.9875033,-2.790979,1.451679
0,2.511111,71,263,498,503,0.009503171,-0.005596839,0.0007931087,-1.476534,-3.115318,-1.651834,0.002558547,0.0005874094,-0.005404149,-0.9875033,-2.790979,1.451679
0,2.522222,71,263,498,503,0.009502766,-0.005592003,0.001853346,-1.476499,-3.115212,-1.651963,0.01329383,-0.01967519,0.007284746,-0.986723,-2.791625,1.451445
0,2.533333,71,263,498,503,0.009492581,-0.002388781,0.002896322,-1.476559,-3.115273,-1.652061,0.01222145,-0.02606394,0.008365784,-0.9865286,-2.792134,1.45161
0,2.544444,70,228,498,505,0.007357117,0.0007834832,0.0007408105,-1.476543,-3.115329,-1.652184,0.003735323,0.002729327,0.003121807,-0.9867235,-2.791224,1.451169
0,2.555555,70,228,498,505,0.005215696,0.009288684,-0.001448958,-1.476521,-3.115726,-1.65227,-0.003792371,0.02512285,-0.007484237,-0.9876413,-2.790276,1.451313
0,2.566666,70,228,498,505,0.003093563,0.006089114,-0.001435073,-1.476436,-3.115713,-1.652265,-0.0005793348,0.02617859,-0.006489976,-0.9882011,-2.790018,1.451047
0,2.577777,70,228,498,505,0.003093563,0.006089114,-0.001435073,-1.476436,-3.115713,-1.652265,-0.0005793348,0.02617859,-0.006489976,-0.9882011,-2.790018,1.451047
0,2.588888,71,294,499,497,0.003090803,0.007154392,-0.001442487,-1.476404,-3.115829,-1.652304,0.005809109,0.01444029,-0.003361639,-0.9881478,-2.790209,1.450907
0,2.599999,71,294,499,497,0.006297607,0.007134528,-0.005698557,-1.476228,-3.115905,-1.652505,0.003714881,0.002715271,0.003101069,-0.987236,-2.790676,1.451131
0,2.61111,71,294,499,497,0.007373878,0.002876227,-0.005666897,-1.476179,-3.115808,-1.652613,0.001499309,-0.005800929,-0.002200569,-0.987384,-2.791084,1.451395
0,2.622221,71,294,499,497,0.002061898,0.0007171695,-0.007796964,-1.475977,-3.115741,-1.652552,-0.002776799,-0.002579618,-0.004306015,-0.9877968,-2.790836,1.451441
0,2.633332,72,279,498,498,0.002078993,-0.004615542,-0.008822136,-1.475827,-3.115505,-1.652644,-0.01004417,0.002770662,0.01175279,-0.9872178,-2.790526,1.451648
0,2.644443,72,279,498,498,-0.001133866,-0.0003311675,-0.004598357,-1.475863,-3.115638,-1.652579,-0.0005011205,-0.0004564328,0.008457372,-0.987164,-2.79062,1.451455
0,2.655554,72,279,498,498,-0.001133866,-0.0003311675,-0.004598357,-1.475863,-3.115638,-1.652579,-0.0005011205,-0.0004564328,0.008457372,-0.987164,-2.79062,1.451455
0,2.666665,72,279,498,498,-0.003275128,0.001814265,-0.001414249,-1.475992,-3.11566,-1.652493,-0.006890146,-0.006822551,0.00960502,-0.9867326,-2.790783,1.451664
0,2.677776,72,279,498,498,-0.003275128,0.001814265,-0.001414249,-1.475992,-3.11566,-1.652493,-0.006890146,-0.006822551,0.00960502,-0.9867326,-2.790783,1.451664
0,2.688887,71,292,498,493,-0.00539074,-0.002511097,-0.008842593,-1.475709,-3.115396,-1.652242,-0.01416596,0.01240048,0.02035813,-0.9858974,-2.789483,1.451386
0,2.699998,71,292,498,493,-0.00539074,-0.002511097,-0.008842593,-1.475709,-3.115396,-1.652242,-0.01416596,0.01240048,0.02035813,-0.9858974,-2.789483,1.451386
0,2.711109,71,292,498,493,-0.008572089,-0.008903552,-0.007738473,-1.475674,-3.115114,-1.652082,-0.01096214,0.01132504,0.02138887,-0.9856508,-2.789314,1.451338
0,2.72222,71,292,498,493,-0.01177044,-0.00786018,-0.009876278,-1.475605,-3.115081,-1.651823,-0.006798593,0.003852695,0.01387101,-0.9859028,-2.789608,1.451329
0,2.733331,71,292,498,493,-0.0117622,-0.01104632,-0.008792366,-1.475496,-3.1149,-1.651745,-0.004814302,0.001713881,0.001070257,-0.9861824,-2.789684,1.451389
0,2.744442,71,252,498,487,-0.009651991,-0.00356787,-0.006703902,-1.475538,-3.115099,-1.651728,-0.01112407,0.003861604,0.007529174,-0.9859225,-2.789604,1.451561
0,2.755553,71,252,498,487,-0.01178892,-0.004651823,-0.007768063,-1.475318,-3.114865,-1.651262,-0.01636207,0.01026921,0.01288612,-0.9859315,-2.789218,1.451679
0,2.766664,71,252,498,487,-0.009650416,-0.008889439,-0.005596879,-1.475432,-3.114699,-1.651263,-0.01522975,0.01131753,0.02137832,-0.9856924,-2.789265,1.452256
0,2.777775,71,252,498,487,-0.009650416,-0.008889439,-0.005596879,-1.475432,-3.114699,-1.651263,-0.01522975,0.01131753,0.02137832,-0.9856924,-2.789265,1.452256
0,2.788886,70,261,498,495,-0.009615001,-0.01851345,-0.01084917,-1.475227,-3.114031,-1.65112,-0.01217039,-0.002531294,0.01068289,-0.9858308,-2.789487,1.452228
0,2.799997,70,261,498,495,-0.009615001,-0.01851345,-0.01084917,-1.475227,-3.114031,-1.65112,-0.01217039,-0.002531294,0.01068289,-0.9858308,-2.789487,1.452228
0,2.811108,70,261,498,495,-0.007475826,-0.02065292,-0.01295835,-1.474988,-3.113462,-1.651049,-0.01951714,0.008139571,0.01715403,-0.9852971,-2.78908,1.452494
0,2.822219,70,261,498,495,-0.01067604,-0.01852833,-0.01298569,-1.474768,-3.113324,-1.650888,-0.01733964,0.01878569,0.01820022,-0.9850511,-2.788463,1.452252
0,2.83333,70,309,498,491,-0.01388317,-0.01213188,-0.01089717,-1.474823,-3.113335,-1.650761,-0.01829515,0.02837799,0.02464553,-0.9840806,-2.78765,1.451885
0,2.844441,70,309,498,491,-0.01388317,-0.01213188,-0.01089717,-1.474823,-3.113335,-1.650761,-0.01829515,0.02837799,0.02464553,-0.9840806,-2.78765,1.451885
0,2.855552,70,309,498,491,-0.01494503,-0.01318884,-0.009832554,-1.474659,-3.113186,-1.650635,-0.02045321,0.02625263,0.02253672,-0.98394,-2.787395,1.451992
0,2.866663,70,309,498,491,-0.01706247,-0.01322657,-0.01516553,-1.474222,-3.112938,-1.650271,-0.01418829,0.008091966,0.01610802,-0.9832258,-2.788024,1.452496
0,2.877774,70,309,498,491,-0.01917737,-0.01856586,-0.01619748,-1.474058,-3.112586,-1.650029,-0.01215087,-0.01002524,0.01289195,-0.9830729,-2.788721,1.452959
0,2.888885,71,292,499,499,-0.01809995,-0.01961856,-0.01511459,-1.474045,-3.11239,-1.650041,-0.003658817,-0.01752908,0.01281234,-0.9826857,-2.789422,1.453263
0,2.899997,71,292,499,499,-0.01811403,-0.01640048,-0.01194108,-1.474006,-3.112287,-1.649845,-0.00255203,-0.01540157,0.01599616,-0.9824124,-2.789537,1.453336
0,2.911108,71,292,499,499,-0.01814616,-0.006782898,-0.008815269,-1.473938,-3.112563,-1.649601,-0.008904625,-0.007919457,0.01924464,-0.9823304,-2.78929,1.453781
0,2.922219,71,292,499,499,-0.02029823,-0.001423114,-0.003532961,-1.473973,-3.112709,-1.649328,-0.00998266,-0.004720371,0.01712526,-0.9822116,-2.789213,1.453878
0,2.93333,70,227,498,503,-0.01818703,0.006050354,-0.002511866,-1.474013,-3.113024,-1.64919,-0.005712636,-0.00046877,0.01602156,-0.9819698,-2.788982,1.453591
0,2.944441,70,227,498,503,-0.01818225,0.004987478,-0.00250627,-1.473946,-3.11305,-1.649022,-0.00468897,-0.002602778,0.01281799,-0.981851,-2.789092,1.45367
0,2.955552,70,227,498,503,-0.01818225,0.004987478,-0.00250627,-1.473946,-3.11305,-1.649022,-0.00468897,-0.002602778,0.01281799,-0.981851,-2.789092,1.45367
0,2.966663,70,227,498,503,-0.01605261,0.00922528,-0.00680179,-1.473541,-3.113346,-1.648716,0.001664719,-0.007935494,0.01590073,-0.9820534,-2.789237,1.454404
0,2.977774,70,227,498,503,-0.0171195,0.0113382,-0.008949122,-1.473377,-3.113519,-1.648492,0.003811422,-0.01007271,0.0180084,-0.9817759,-2.789402,1.454376
0,2.988885,71,227,498,491,-0.009664544,0.01030934,-0.006805807,-1.473245,-3.113627,-1.648579,0.006927935,-0.01221831,0.01052796,-0.9816949,-2.789647,1.454242
0,2.999996,71,227,498,491,-0.007531252,0.008201198,-0.004658583,-1.473233,-3.113701,-1.648546,0.002620776,-0.012205,0.006313269,-0.9817205,-2.789809,1.454417
0,3.011107,71,227,498,491,-0.005394612,0.0007856032,-0.0003376859,-1.473419,-3.113616,-1.648478,-0.0006733527,-0.002610124,-0.002137094,-0.9814659,-2.789538,1.454895
0,3.022218,71,227,498,491,0.002066138,-0.003451594,-0.0002926353,-1.473418,-3.113569,-1.648608,-0.001700561,0.009111293,-0.002125328,-0.9815006,-2.789039,1.454673
0,3.033329,70,190,498,499,0.002090408,-0.009872902,-0.00450913,-1.473273,-3.11326,-1.648675,-0.00161211,0.01763744,0.003188937,-0.9815133,-2.788495,1.454346
0,3.04444,70,190,498,499,0.002090408,-0.009872902,-0.00450913,-1.473273,-3.11326,-1.648675,-0.00161211,0.01763744,0.003188937,-0.9815133,-2.788495,1.454346
0,3.055551,70,190,498,499,0.006382829,-0.01840653,-0.007634289,-1.473174,-3.112835,-1.648947,-0.007936586,0.02405033,0.007518301,-0.9813562,-2.787947,1.454283
0,3.066662,70,190,498,499,0.009584282,-0.01735207,-0.009761708,-1.473038,-3.112399,-1.64932,-0.006914614,0.0155191,0.008576777,-0.9811149,-2.78782,1.454748
0,3.077773,70,190,498,499,0.008486472,-0.007737729,-0.005569429,-1.473078,-3.112572,-1.649358,0.003626958,0.002700431,0.002071605,-0.9812214,-2.788198,1.454638
0,3.088884,71,296,498,492,0.005263999,0.002931109,-0.002449663,-1.473165,-3.112928,-1.649397,0.00675588,-0.006888663,-0.0001197238,-0.981638,-2.788454,1.454825
0,3.099995,71,296,498,492,0.003109791,0.01251461,-0.00251972,-1.473103,-3.113333,-1.649351,0.003478268,-0.01433592,-0.005410171,-0.9817967,-2.788919,1.455138
0,3.111106,71,296,498,492,0.002018638,0.02211404,-0.0004542955,-1.473163,-3.113821,-1.649337,0.0002996679,-0.01538509,-0.004304537,-0.9817333,-2.789001,1.455162
0,3.122217,71,296,498,492,0.002018638,0.02211404,-0.0004542955,-1.473163,-3.113821,-1.649337,0.0002996679,-0.01538509,-0.004304537,-0.9817333,-2.789001,1.455162
0,3.133328,71,296,498,492,-0.001204755,0.03278154,0.002665124,-1.473252,-3.114745,-1.649223,0.001336019,-0.009003389,-0.007463486,-0.981272,-2.789129,1.455384
0,3.144439,70,259,499,504,-0.002266983,0.03171394,0.002673503,-1.473304,-3.115069,-1.649135,0.00561933,-0.01008328,-0.00537883,-0.9812379,-2.789332,1.455263
0,3.15555,70,259,499,504,-0.004420252,0.03066698,0.00693521,-1.473424,-3.115285,-1.648757,0.008711255,-0.01542853,-0.0118001,-0.9814308,-2.789883,1.455637
0,3.166661,70,259,499,504,-0.005494033,0.03174563,0.007995669,-1.473569,-3.115805,-1.648574,0.006556569,-0.02287401,-0.01391679,-0.9817573,-2.790395,1.455556
0,3.177772,70,259,499,504,-0.004427132,0.02963273,0.01014299,-1.473714,-3.116084,-1.64854,0.005511016,-0.02393563,-0.01177461,-0.981802,-2.790756,1.455727
0,3.188883,71,299,499,483,-0.005499652,0.02643033,0.01123055,-1.473884,-3.116153,-1.648274,0.003434446,-0.02287065,-0.006426652,-0.9817019,-2.791115,1.45605
0,3.199994,71,299,499,483,-0.003353642,0.01794531,0.01555518,-1.474176,-3.116184,-1.64831,0.005578676,-0.01861636,-0.006450383,-0.981768,-2.791229,1.455999
0,3.211105,71,299,499,483,0.0009074258,0.01902597,0.01555409,-1.474281,-3.116505,-1.648443,0.003383216,-0.01433626,-0.01391256,-0.9825535,-2.791172,1.455943
0,3.222216,71,299,499,483,0.003051581,0.01476414,0.01452407,-1.474432,-3.116586,-1.648528,0.002296234,-0.006861547,-0.01818413,-0.9832188,-2.790857,1.455771
0,3.233327,71,299,499,483,0.005194858,0.009455132,0.016696,-1.474681,-3.116519,-1.648655,0.00128697,-0.008981001,-0.01285678,-0.9833466,-2.790933,1.455755
0,3.244438,70,303,499,500,0.002026876,0.003031651,0.01460449,-1.474801,-3.116304,-1.648733,-0.002786807,-0.001501882,0.002069612,-0.9833829,-2.790617,1.45571
0,3.255549,70,303,499,500,0.004172787,-0.002297197,0.01358069,-1.47494,-3.116141,-1.648839,0.004679128,-0.005786954,0.004119775,-0.9832657,-2.790806,1.455569
0,3.26666,70,303,499,500,0.004172787,-0.002297197,0.01358069,-1.47494,-3.116141,-1.648839,0.004679128,-0.005786954,0.004119775,-0.9832657,-2.790806,1.455569
0,3.277771,70,303,499,500,0.002035003,-0.002322837,0.01038582,-1.475198,-3.116073,-1.648661,0.005663076,0.004876005,-0.007605221,-0.9836481,-2.790283,1.454877
0,3.288882,71,268,498,483,0.0009666989,-0.001288551,0.008236638,-1.475104,-3.115965,-1.648617,-0.0008731186,0.007021759,-0.02140074,-0.9844636,-2.790297,1.455089
0,3.299993,71,268,498,483,0.004156383,0.001907805,0.007151555,-1.475096,-3.11605,-1.648724,-0.0009193532,0.007021314,-0.02566168,-0.9848673,-2.790264,1.455078
0,3.311104,71,268,498,483,0.004150772,0.004038224,0.008200947,-1.47521,-3.116059,-1.64879,-0.000896221,0.001693647,-0.02140935,-0.985083,-2.790501,1.45527
0,3.322215,71,268,498,483,0.005194535,0.009397053,0.01242676,-1.475451,-3.116341,-1.648846,0.00243297,-0.0004466963,-0.008660791,-0.9848284,-2.790545,1.455151
0,3.333326,71,268,498,483,0.008358732,0.01477438,0.01984037,-1.475685,-3.116519,-1.648939,0.002466742,-0.01108087,-0.002275445,-0.9847714,-2.790706,1.455221
0,3.344437,72,340,499,494,0.001956532,0.02008188,0.01978774,-1.475829,-3.116833,-1.64879,0.003520269,-0.0260097,-0.0001527411,-0.9846255,-2.791697,1.455508
0,3.355548,72,340,499,494,0.001941971,0.02646603,0.01867789,-1.475988,-3.117282,-1.648769,0.006538227,-0.04519636,-0.01083716,-0.9849179,-2.793006,1.456071
0,3.366659,72,340,499,494,0.005143141,0.02860556,0.01653663,-1.476037,-3.117873,-1.648956,0.008516978,-0.05055844,-0.02468757,-0.9851123,-2.794304,1.456437
0,3.37777,72,340,499,494,0.001921417,0.0371343,0.01860187,-1.476239,-3.11853,-1.648838,0.003178537,-0.03349692,-0.03101741,-0.98554,-2.794261,1.456497
0,3.388881,72,327,499,497,0.004053431,0.03607864,0.01967375,-1.476407,-3.118852,-1.648908,7.964112E-05,-0.01429277,-0.02885292,-0.9858053,-2.793577,1.456045
0,3.399992,72,327,499,497,0.001902891,0.04458786,0.01854509,-1.476521,-3.119586,-1.648785,0.002496762,-0.0004474763,-0.006503866,-0.9852726,-2.793011,1.455685
0,3.411103,72,327,499,497,-0.0002129655,0.03925794,0.01857234,-1.476611,-3.119903,-1.648709,0.001405646,-0.003646478,-0.005445728,-0.9855651,-2.793365,1.456271
0,3.422215,72,327,499,497,-0.0002129655,0.03925794,0.01857234,-1.476611,-3.119903,-1.648709,0.001405646,-0.003646478,-0.005445728,-0.9855651,-2.793365,1.456271
0,3.433326,72,327,499,497,0.001960203,0.03072732,0.0175649,-1.47687,-3.120412,-1.649044,0.008731048,-0.02604228,-0.01190745,-0.9857366,-2.794659,1.456456
0,3.444437,71,286,499,493,0.001990137,0.01791105,0.01339759,-1.476985,-3.120235,-1.648934,0.00545001,-0.03455479,-0.01719576,-0.9859667,-2.795427,1.456917
0,3.455548,71,286,499,493,0.00308248,0.01042721,0.009190489,-1.476969,-3.120134,-1.649014,0.002384739,-0.02709913,-0.005411881,-0.9852178,-2.795688,1.45743
0,3.466659,71,286,499,493,0.004194941,0.0008161288,0.004997594,-1.476936,-3.119963,-1.649316,0.001352726,-0.02173748,-0.00651045,-0.9859789,-2.795348,1.456845
0,3.47777,71,286,499,493,-2.820708E-05,-0.01094258,0.0008105825,-1.476874,-3.1195,-1.649235,-0.004937042,-0.004671648,-0.002182369,-0.9859523,-2.794794,1.456785
0,3.488881,71,286,499,493,-0.001107068,-0.007729173,0.002913162,-1.476908,-3.119618,-1.649184,-0.005909765,0.007050339,0.002060383,-0.9862617,-2.794389,1.456536
0,3.499992,71,250,498,495,-0.001108675,-0.005613492,0.00076777,-1.476851,-3.119586,-1.64918,-0.002695604,0.009170645,0.003090652,-0.9862292,-2.794201,1.456369
0,3.511103,71,250,498,495,-0.001108675,-0.005613492,0.00076777,-1.476851,-3.119586,-1.64918,-0.002695604,0.009170645,0.003090652,-0.9862292,-2.794201,1.456369
0,3.522214,71,250,498,495,-0.00432965,-0.001332781,0.002857997,-1.476861,-3.119897,-1.648862,-0.005888166,-0.00039578,0.006290798,-0.9865526,-2.794171,1.456452
0,3.533325,71,250,498,495,-0.01180719,0.008196162,-0.003609584,-1.476713,-3.120402,-1.648273,-0.008030098,-0.004666429,0.005276403,-0.9859933,-2.794761,1.456878
0,3.544436,70,250,498,501,-0.01392723,0.00709565,-0.007867085,-1.476503,-3.120418,-1.648062,-0.003781764,-0.01534806,0.006323033,-0.9854335,-2.795512,1.457056
0,3.555547,70,250,498,501,-0.01710518,0.0006797572,-0.008897933,-1.476333,-3.120093,-1.647817,-0.001744846,-0.02281263,-9.050826E-05,-0.9855608,-2.796082,1.457335
0,3.566658,70,250,498,501,-0.01816932,0.003863624,-0.008924422,-1.476225,-3.120078,-1.647729,0.0003974838,-0.02068362,-0.0001354818,-0.9858468,-2.796195,1.457265
0,3.577769,70,250,498,501,-0.01604619,0.006007107,-0.007870153,-1.476161,-3.120201,-1.647593,-0.001650832,-0.02387176,0.008409934,-0.9854863,-2.796564,1.457544
0,3.58888,70,250,498,501,-0.01604619,0.006007107,-0.007870153,-1.476161,-3.120201,-1.647593,-0.001650832,-0.02387176,0.008409934,-0.9854863,-2.796564,1.457544
0,3.599991,69,208,499,499,-0.01075109,0.01564745,-0.001535083,-1.476241,-3.120689,-1.647492,-0.01330792,-0.03236125,0.0160035,-0.9846825,-2.797619,1.458573
0,3.611102,69,208,499,499,-0.007583509,0.02528614,0.004798745,-1.476463,-3.121168,-1.647557,-0.01438322,-0.03981738,0.01708453,-0.9843634,-2.798418,1.45916
0,3.622213,69,208,499,499,-0.002258681,0.02741559,0.002663043,-1.476406,-3.121522,-1.647634,-0.004759063,-0.04623969,0.02230748,-0.983891,-2.79923,1.459377
0,3.633324,69,208,499,499,-0.006554177,0.03911866,0.00258126,-1.476476,-3.122218,-1.647306,0.003902124,-0.04839306,0.03283515,-0.9836279,-2.799815,1.458981
0,3.644435,70,264,498,494,-0.003375582,0.04657639,0.001469763,-1.476406,-3.122954,-1.647292,0.007107906,-0.04947976,0.03284193,-0.9826239,-2.800579,1.45909
0,3.655546,70,264,498,494,-0.001301498,0.06790413,0.003459002,-1.476452,-3.12432,-1.647231,0.01019158,-0.05907845,0.02535185,-0.9824465,-2.801672,1.4595
0,3.666657,70,264,498,494,0.0007852325,0.07752235,0.005525398,-1.47646,-3.125565,-1.646959,0.01003025,-0.0548228,0.009374144,-0.9827059,-2.802354,1.459805
0,3.677768,70,264,498,494,0.0007852325,0.07752235,0.005525398,-1.47646,-3.125565,-1.646959,0.01003025,-0.0548228,0.009374144,-0.9827059,-2.802354,1.459805
0,3.688879,70,264,498,494,0.008286493,0.06369516,0.006695151,-1.476469,-3.126697,-1.647344,-0.001783224,-0.02601823,-0.01288174,-0.9836172,-2.802301,1.459268
0,3.69999,69,209,498,500,0.01047516,0.04343832,0.003644374,-1.47642,-3.126658,-1.647512,-0.007073652,-0.01854385,-0.01175961,-0.9837147,-2.802297,1.459472
0,3.711101,69,209,498,500,0.01266307,0.02212445,0.00166176,-1.476324,-3.126395,-1.647695,-0.002736199,-0.01640401,-0.006492384,-0.9838005,-2.802111,1.459119
0,3.722212,69,209,498,500,0.01694347,0.01467859,0.001721511,-1.476346,-3.126363,-1.647993,0.003684219,-0.02175076,-0.002300176,-0.9836679,-2.802562,1.459151
0,3.733323,69,209,498,500,0.01906862,0.01577712,0.005987315,-1.476638,-3.126635,-1.648311,0.003614442,-0.02813422,-0.008702621,-0.9840716,-2.803107,1.459082
0,3.744434,72,298,498,488,0.02011904,0.0200558,0.008090042,-1.476765,-3.126984,-1.648534,-0.0006638374,-0.02277552,-0.01293975,-0.9846522,-2.802982,1.458984
0,3.755545,72,298,498,488,0.02011904,0.0200558,0.008090042,-1.476765,-3.126984,-1.648534,-0.0006638374,-0.02277552,-0.01293975,-0.9846522,-2.802982,1.458984
0,3.766656,72,298,498,488,-0.01087496,0.0435128,0.02277509,-1.477357,-3.128522,-1.647433,-0.01126382,-0.007800196,-0.01072683,-0.9853483,-2.802498,1.459468
0,3.777767,72,298,498,488,-0.0374772,0.03700004,0.01531462,-1.477321,-3.128772,-1.646227,-0.01438319,-0.005658665,-0.004300986,-0.9852306,-2.802406,1.459651
0,3.788878,72,298,498,488,-0.03211415,0.02419974,0.01008883,-1.477303,-3.12874,-1.645975,-0.0153083,-0.01844414,0.01277738,-0.9842916,-2.8031,1.460269
0,3.799989,71,277,498,493,-0.0150259,0.005091337,0.01344942,-1.477586,-3.128332,-1.646291,-0.01854656,-0.02802153,0.01174812,-0.9840785,-2.803769,1.460952
0,3.8111,71,277,498,493,-0.004352548,-0.004473137,0.012475,-1.477806,-3.128125,-1.646463,-0.01975552,-0.03974061,0.001065048,-0.9849094,-2.804831,1.461628
0,3.822211,71,277,498,493,0.002061706,-0.01507629,0.01681428,-1.478022,-3.127764,-1.646743,-0.01565428,-0.04614712,-0.01176338,-0.9853387,-2.805739,1.462184
0,3.833322,71,277,498,493,0.00314263,-0.0203939,0.01791698,-1.478256,-3.127388,-1.646886,-0.007148016,-0.03658152,-0.01294465,-0.9858112,-2.80583,1.462557
0,3.844433,71,277,498,493,-5.926751E-05,-0.01402497,0.01680708,-1.478502,-3.127337,-1.646909,-0.0027877,-0.02381148,-0.007666193,-0.98576,-2.805676,1.462374
0,3.855544,70,260,499,499,-0.005398668,-0.009770292,0.01783294,-1.47872,-3.127367,-1.646693,-0.0132532,0.01776931,-0.00434249,-0.9855661,-2.803944,1.46164
0,3.866655,70,260,499,499,-0.00967687,-0.00127208,0.01669445,-1.478773,-3.127501,-1.646506,-0.01852689,0.03270739,-0.005343524,-0.9856338,-2.80299,1.46124
0,3.877766,70,260,499,499,-0.01501237,0.002967776,0.01558979,-1.478902,-3.127666,-1.646163,-0.02720837,0.02634249,-0.01803309,-0.9861792,-2.802839,1.461683
0,3.888877,70,260,499,499,-0.01393453,-0.002376125,0.01349807,-1.479015,-3.127378,-1.646002,-0.03266327,0.01039588,-0.02327629,-0.9862197,-2.803003,1.462523
0,3.899988,71,328,498,497,-0.01707702,-0.02157411,0.01149556,-1.479127,-3.126619,-1.645795,-0.03163958,-0.002391085,-0.0232864,-0.9864562,-2.803448,1.463095
0,3.911099,71,328,498,497,-0.0149265,-0.02689932,0.01259077,-1.479193,-3.126025,-1.645856,-0.02304436,-0.01522435,-0.007399007,-0.9859683,-2.804348,1.464418
0,3.92221,71,328,498,497,-0.01383886,-0.03858471,0.01693565,-1.479566,-3.12529,-1.645793,-0.01236302,-0.03123773,-5.614851E-05,-0.9856822,-2.805284,1.464764
0,3.933321,71,328,498,497,-0.01384387,-0.03325238,0.01795896,-1.479729,-3.125106,-1.645816,-0.00700205,-0.03443999,0.003115594,-0.9850452,-2.80553,1.464703
0,3.944432,71,328,498,497,-0.0117333,-0.02684283,0.02003941,-1.479869,-3.124937,-1.645757,-0.01766965,-0.02273643,-0.003141826,-0.9849376,-2.806241,1.465397
0,3.955544,71,251,499,499,-0.01174788,-0.02045859,0.01892959,-1.480053,-3.124881,-1.645612,-0.02943016,-0.0003279783,-0.01366929,-0.9854101,-2.805604,1.465684
0,3.966655,71,251,499,499,-0.01707886,-0.01196051,0.01672829,-1.480143,-3.125033,-1.645465,-0.03377613,0.01464561,-0.02646628,-0.9869888,-2.804343,1.465363
0,3.977766,71,251,499,499,-0.01922981,-0.005559605,0.01881033,-1.48039,-3.125163,-1.645189,-0.03798844,0.02957359,-0.02642159,-0.9873851,-2.803481,1.465413
0,3.988877,71,251,499,499,-0.01922734,-0.005597874,0.01347746,-1.48031,-3.125058,-1.644867,-0.0368516,0.02742826,-0.01577637,-0.9871539,-2.803438,1.466326
0,3.999988,74,253,498,499,-0.02452912,-0.01519903,0.01353473,-1.480482,-3.124659,-1.64448,-0.03042891,0.005037058,-0.006256193,-0.9868897,-2.804017,1.466809
1,4.011099,74,253,498,499,-0.02557668,-0.02264681,0.01359746,-1.480836,-3.124391,-1.644179,-0.02406999,-0.02802954,0.001208858,-0.9854804,-2.805639,1.467862
2,4.02221,74,253,498,499,-0.02662712,-0.02692546,0.01149475,-1.480939,-3.123978,-1.643892,-0.02091132,-0.03230128,-0.0009558517,-0.9854996,-2.806225,1.468324
3,4.033321,74,253,498,499,-0.02662712,-0.02692546,0.01149475,-1.480939,-3.123978,-1.643892,-0.02091132,-0.03230128,-0.0009558517,-0.9854996,-2.806225,1.468324
4,4.044433,74,253,498,499,-0.02767566,-0.03121243,0.007270854,-1.481252,-3.123303,-1.643263,-0.02612371,-0.03227867,-0.002059408,-0.9868988,-2.807202,1.46777
5,4.055544,73,225,499,497,-0.02661456,-0.02694328,0.007240709,-1.48132,-3.123203,-1.643108,-0.02278692,-0.006721756,0.003229593,-0.9867715,-2.806489,1.467539
6,4.066655,73,225,499,497,-0.02769317,-0.01739021,0.003972281,-1.48123,-3.123122,-1.64285,-0.02384009,0.009245349,-0.002072398,-0.9867678,-2.8062,1.467436
7,4.077766,73,225,499,497,-0.02773045,-0.00142607,0.001730234,-1.481157,-3.123542,-1.642513,-0.02175127,0.007107638,-0.00529103,-0.9869227,-2.806166,1.467596
8,4.088878,73,225,499,497,-0.03201975,0.007075577,0.0005971941,-1.481133,-3.12378,-1.641894,-0.01753784,-0.002500547,-0.005310899,-0.9865664,-2.806637,1.468185
9,4.099989,73,225,499,497,-0.02777931,0.0113848,0.005901529,-1.481326,-3.124052,-1.641664,-0.008972851,-0.02489853,0.00525131,-0.9861541,-2.807664,1.46862
10,4.1111,73,358,498,498,-0.02671452,0.01347897,0.0005682234,-1.481289,-3.124202,-1.64131,-0.00894803,-0.02702626,0.007394775,-0.9857909,-2.807973,1.468787
11,4.122211,73,358,498,498,-0.02349712,0.00813117,-0.003649876,-1.481148,-3.124128,-1.641124,-0.01312222,-0.0216855,0.0138319,-0.9854591,-2.808044,1.469112
12,4.133323,73,358,498,498,-0.02241175,-0.001465293,-0.004639312,-1.481193,-3.123771,-1.640835,-0.008880246,-0.001453787,0.007437976,-0.9849728,-2.807215,1.468865
13,4.144434,73,358,498,498,-0.02344622,-0.007903551,-0.01097861,-1.481057,-3.123532,-1.640611,-0.01311958,0.01021789,0.006435238,-0.9846319,-2.807763,1.469494
14,4.155545,75,305,497,491,-0.02130155,-0.01111614,-0.01414825,-1.480825,-3.123299,-1.640458,-0.006774528,0.01019684,0.002104822,-0.9847336,-2.807598,1.469336
15,4.166656,75,305,497,491,-0.02130155,-0.01111614,-0.01414825,-1.480825,-3.123299,-1.640458,-0.006774528,0.01019684,0.002104822,-0.9847336,-2.807598,1.469336
16,4.177768,75,305,497,491,-0.0160337,0.009160204,-0.01001362,-1.480696,-3.12377,-1.640146,0.003742877,-0.02078883,-0.001182455,-0.9843783,-2.809831,1.470269
17,4.188879,75,305,497,491,-0.00967622,0.01985897,-0.006873474,-1.48076,-3.124348,-1.64014,0.002742028,-0.02933781,0.006312005,-0.9836519,-2.810879,1.470721
18,4.19999,75,305,497,491,-0.008639466,0.029464,-0.004807989,-1.480723,-3.124922,-1.640013,0.00499086,-0.03573543,0.01907237,-0.9830399,-2.811506,1.470974
19,4.211102,77,301,498,509,-0.006538964,0.03906784,-0.003797636,-1.480764,-3.125639,-1.63987,-0.001321116,-0.04213567,0.02550546,-0.9829152,-2.812724,1.471396
20,4.222213,77,301,498,509,-0.01194292,0.06466506,0.002405909,-1.480886,-3.12709,-1.639463,0.001045719,-0.04427156,0.04785245,-0.9817466,-2.813235,1.471609
21,4.233324,77,301,498,509,-0.07081177,0.1626141,0.01546296,-1.481074,-3.131298,-1.636822,0.05155503,-0.0635805,0.1910995,-0.9760773,-2.813735,1.46987
22,4.244435,77,301,498,509,-0.09451464,0.2585116,0.02647426,-1.481335,-3.136556,-1.634745,0.1633855,-0.06390211,0.4818059,-0.9626768,-2.812847,1.464506
23,4.255547,83,325,498,499,-0.1654382,0.5000985,0.01826671,-1.480592,3.135068,-1.630164,0.3068879,-0.02063453,0.6336435,-0.9519917,-2.809564,1.455222
24,4.266658,83,325,498,499,-0.2693093,0.7096553,0.01235139,-1.479795,3.122032,-1.62327,0.2920076,-0.00676614,0.43881,-0.9530921,-2.809667,1.452869
25,4.277769,83,325,498,499,-0.4468451,1.007205,-0.02840167,-1.477482,3.102531,-1.611567,0.04619256,0.03233011,0.06114377,-0.9618411,-2.809387,1.458133
26,4.28888,83,325,498,499,-0.6783552,1.175643,-0.08006723,-1.474768,3.08562,-1.596643,-0.1436436,0.117055,-0.07735461,-0.96517,-2.806166,1.463382
27,4.299992,83,325,498,499,-0.9060981,1.107726,-0.1109045,-1.472701,3.074857,-1.579488,-0.2907395,0.2688066,-0.03102991,-0.9652222,-2.797508,1.465821
28,4.311103,81,339,498,507,-1.103353,0.8084907,-0.1730969,-1.469582,3.073996,-1.562895,-0.2941043,0.3806577,0.01916005,-0.9616851,-2.788782,1.463135
29,4.322214,81,339,498,507,-1.292633,0.3131987,-0.2434995,-1.465341,3.082342,-1.545211,-0.3585134,0.3840332,-0.02694935,-0.9626315,-2.784081,1.465689
30,4.333325,81,339,498,507,-1.438727,-0.02824935,-0.2669499,-1.461751,3.091095,-1.526538,-0.4442607,0.3416829,-0.05368645,-0.9636436,-2.781258,1.472589
31,4.344437,81,339,498,507,-1.696374,-0.4840205,-0.2951214,-1.457355,3.107147,-1.503019,-0.5544299,0.2248223,-0.05671178,-0.9637421,-2.782531,1.482764
32,4.355548,81,358,497,498,-1.877564,-0.8468271,-0.3131762,-1.452191,3.12573,-1.479494,-0.5901805,0.0576967,0.03637795,-0.9605942,-2.786755,1.49273
33,4.366659,81,358,497,498,-1.918762,-0.9716615,-0.3208673,-1.447213,3.138382,-1.459436,-0.5628132,-0.06384486,0.1458547,-0.9552812,-2.791064,1.501244
34,4.37777,81,358,497,498,-1.984839,-0.9822674,-0.2889512,-1.443497,-3.133817,-1.436941,-0.4918532,-0.2057287,0.3464569,-0.9452294,-2.798052,1.508709
35,4.388882,81,358,497,498,-2.119241,-0.9398285,-0.2703323,-1.439742,-3.126033,-1.410936,-0.5097769,-0.2472064,0.4745221,-0.9362939,-2.801633,1.516899
36,4.399993,81,358,497,498,-2.248192,-0.9125473,-0.2824682,-1.434625,-3.117373,-1.383551,-0.6212758,-0.2170235,0.4991873,-0.9300962,-2.803193,1.527751
37,4.411104,79,315,498,487,-2.492284,-0.826136,-0.3272355,-1.428162,-3.111335,-1.350355,-0.755077,-0.1526908,0.5208757,-0.9238154,-2.803157,1.539623
38,4.422215,79,315,498,487,-2.610807,-0.6829485,-0.3721834,-1.421834,-3.108213,-1.31933,-0.8230497,-0.04058498,0.5087377,-0.9194921,-2.799841,1.548426
39,4.433327,79,315,498,487,-2.694101,-0.6065131,-0.3950793,-1.416088,-3.105421,-1.287739,-0.9099452,0.2270844,0.4744741,-0.9157919,-2.787219,1.553553
40,4.444438,79,315,498,487,-2.816655,-0.5526878,-0.438426,-1.408868,-3.102405,-1.254414,-0.9818382,0.3679454,0.4837426,-0.9105023,-2.777065,1.560122
41,4.455549,75,299,498,494,-2.917877,-0.518056,-0.4772015,-1.401185,-3.099837,-1.219553,-1.166905,0.5324886,0.5741184,-0.9027243,-2.764322,1.569629
42,4.46666,75,299,498,494,-2.963666,-0.5107883,-0.4933716,-1.393892,-3.096635,-1.186767,-1.240879,0.5722668,0.616444,-0.893972,-2.755135,1.581266
43,4.477772,75,299,498,494,-3.010525,-0.5141246,-0.4966308,-1.386452,-3.093456,-1.152565,-1.297,0.60335,0.7384955,-0.8822525,-2.745466,1.591173
44,4.488883,75,299,498,494,-3.035021,-0.5151976,-0.4913994,-1.379258,-3.09039,-1.11921,-1.326146,0.5629047,0.9114946,-0.8670198,-2.739707,1.602462
45,4.499994,75,299,498,494,-3.047876,-0.4959673,-0.4787723,-1.372575,-3.088182,-1.085329,-1.344622,0.4404657,1.012904,-0.8530605,-2.738111,1.616695
46,4.511106,159,243,506,500,-3.026699,-0.4574641,-0.4629957,-1.366519,-3.087033,-1.052807,-1.381787,0.3712791,1.043172,-0.8406119,-2.736221,1.631486
47,4.522217,159,243,506,500,-2.989537,-0.4180498,-0.4439091,-1.360793,-3.085822,-1.020834,-1.392959,0.3531492,1.097671,-0.8266963,-2.732667,1.644685
48,4.533328,159,243,506,500,-2.947183,-0.3378523,-0.4166888,-1.356467,-3.086566,-0.9890075,-1.411072,0.3798444,1.188422,-0.8106417,-2.727556,1.657377
49,4.544439,159,243,506,500,-2.930313,-0.2835082,-0.4116841,-1.351547,-3.087426,-0.9562804,-1.379538,0.3743722,1.247791,-0.7949541,-2.724262,1.669559
50,4.555551,159,243,506,500,-2.9113,-0.2237738,-0.4078032,-1.347394,-3.089464,-0.9240636,-1.385257,0.3903724,1.305382,-0.7785831,-2.719934,1.68204
51,4.566662,426,185,494,498,-2.881792,-0.1098629,-0.3936112,-1.345199,-3.093248,-0.89198,-1.415805,0.4149288,1.341834,-0.7625099,-2.715312,1.695711
52,4.577773,426,185,494,498,-2.889534,-0.02127931,-0.367611,-1.344001,-3.09737,-0.8588758,-1.503742,0.3949606,1.392854,-0.7452377,-2.712968,1.713149
53,4.588884,426,185,494,498,-2.886575,0.07230356,-0.3779152,-1.342322,-3.102452,-0.8253434,-1.522934,0.3318231,1.410248,-0.7283399,-2.714808,1.732196
54,4.599996,426,185,494,498,-2.77159,0.08246833,-0.3491135,-1.340862,-3.105837,-0.7968301,-1.451532,0.2453339,1.435049,-0.7118491,-2.718882,1.749025
55,4.611107,451,169,490,495,-2.700522,0.1319935,-0.2778736,-1.341935,-3.108456,-0.7678128,-1.383579,0.2055296,1.403694,-0.6963559,-2.721437,1.763792
56,4.622218,451,169,490,495,-2.569587,0.1158195,-0.1997452,-1.342548,-3.108936,-0.7427748,-1.390192,0.1905203,1.376243,-0.6812595,-2.72353,1.781121
57,4.633329,451,169,490,495,-2.464242,0.1174503,-0.1502687,-1.343567,-3.110074,-0.7177325,-1.336361,0.2523675,1.312737,-0.6680252,-2.72057,1.792141
58,4.644441,451,169,490,495,-2.40886,0.1121785,-0.1323672,-1.342911,-3.111558,-0.6920182,-1.271513,0.2883426,1.206442,-0.6568421,-2.718056,1.80301
59,4.655552,451,169,490,495,-2.29058,0.08801717,-0.1148075,-1.342689,-3.112152,-0.6693088,-1.262345,0.2403784,1.180769,-0.6444221,-2.720527,1.818739
60,4.666663,338,143,507,500,-2.210714,0.08933514,-0.112365,-1.343088,-3.113675,-0.6463321,-1.283728,0.1807855,1.195851,-0.6308746,-2.726083,1.838275
61,4.677774,338,143,507,500,-2.091501,0.1248651,-0.1102692,-1.34429,-3.116058,-0.6258839,-1.315394,0.09991348,1.244136,-0.6165809,-2.735228,1.86111
62,4.688886,338,143,507,500,-1.999096,0.2019098,-0.09873414,-1.347609,-3.11918,-0.6048987,-1.34487,0.1244085,1.276383,-0.6014941,-2.739736,1.880932
63,4.699997,338,143,507,500,-1.952439,0.2426957,-0.04574999,-1.350857,-3.120311,-0.5842171,-1.324465,0.2457955,1.260183,-0.5868483,-2.736869,1.892763
64,4.711108,643,168,468,494,-1.897052,0.2145653,0.01327673,-1.353391,-3.119754,-0.5643819,-1.217459,0.4638247,1.266311,-0.5702387,-2.725379,1.894401
65,4.722219,643,168,468,494,-1.857571,0.1794805,0.02838504,-1.354147,-3.119532,-0.5448769,-1.13013,0.496537,1.271603,-0.5554928,-2.723964,1.903687
66,4.733331,643,168,468,494,-1.774364,0.1487747,0.0160504,-1.354845,-3.120061,-0.5271898,-1.038493,0.433443,1.288735,-0.5404299,-2.727552,1.915701
67,4.744442,643,168,468,494,-1.666678,0.15081,-0.01230124,-1.354246,-3.122454,-0.5118095,-0.9904545,0.3086416,1.232775,-0.5291648,-2.735994,1.932863
68,4.755553,643,168,468,494,-1.596414,0.168047,-0.01653776,-1.356153,-3.123918,-0.4956665,-0.9709438,0.2340167,1.182497,-0.5179443,-2.743549,1.949646
69,4.766665,774,184,545,501,-1.471047,0.195667,0.01206592,-1.35896,-3.124494,-0.481654,-0.9292256,0.1593598,1.115989,-0.5081301,-2.751536,1.965716
70,4.777776,774,184,545,501,-1.426275,0.2038008,0.03240556,-1.35892,-3.126505,-0.4662876,-0.8801149,0.1444203,1.034426,-0.4990769,-2.755978,1.978203
71,4.788887,774,184,545,501,-1.391126,0.1658835,0.07963425,-1.360611,-3.124898,-0.4521749,-0.7976811,0.1782815,0.9632362,-0.4899098,-2.757728,1.986431
72,4.799998,774,184,545,501,-1.353689,0.1139702,0.09621751,-1.361527,-3.123369,-0.4383446,-0.7874863,0.1505523,0.9269085,-0.4810617,-2.764122,2.000529
73,4.81111,774,184,545,501,-1.313062,0.06936565,0.09669462,-1.361663,-3.122206,-0.4249984,-0.7857835,0.1729716,0.8831522,-0.4723132,-2.766666,2.011558
74,4.822221,757,187,466,495,-1.229723,0.02152538,0.07400638,-1.360119,-3.121202,-0.4139122,-0.7767504,0.1591194,0.9331523,-0.4609804,-2.774997,2.027413
75,4.833332,757,187,466,495,-1.148656,0.01305553,0.04337251,-1.359825,-3.121455,-0.4033464,-0.7657776,0.1569291,0.9660403,-0.4498756,-2.783756,2.04342
76,4.844443,757,187,466,495,-1.101757,0.03526939,0.009336442,-1.360595,-3.122141,-0.3923241,-0.7339035,0.1878082,0.9528483,-0.439935,-2.787905,2.054522
77,4.855555,757,187,466,495,-1.062326,0.0438299,-0.003368616,-1.360999,-3.122569,-0.3814834,-0.7028416,0.2090312,0.9631723,-0.4289362,-2.79398,2.066961
78,4.866666,711,205,484,492,-1.035703,0.05024441,-0.004349887,-1.361724,-3.122369,-0.3706795,-0.6983514,0.1930532,0.9887027,-0.4177797,-2.804427,2.084265
79,4.877777,711,205,484,492,-0.9761058,0.07487126,-0.01289147,-1.362993,-3.123102,-0.361367,-0.6761379,0.2025708,0.9703698,-0.4076628,-2.811707,2.09786
80,4.888888,711,205,484,492,-0.9326185,0.1293041,-0.01415516,-1.365663,-3.123949,-0.3519239,-0.6272108,0.2418296,0.9506722,-0.3972387,-2.816476,2.107787
81,4.9,711,205,484,492,-0.9264359,0.1900618,-0.01241031,-1.369185,-3.125191,-0.3415185,-0.6050789,0.2758413,0.91319,-0.387213,-2.81996,2.11702
82,4.911111,711,205,484,492,-0.9329044,0.2123241,-0.01892748,-1.371771,-3.126272,-0.3306458,-0.5565692,0.269311,0.8679326,-0.3785737,-2.824969,2.126496
83,4.922222,712,193,495,506,-0.9158398,0.2228461,-0.04452303,-1.373855,-3.128223,-0.320521,-0.513584,0.1498595,0.8333936,-0.3724058,-2.841285,2.146184
84,4.933333,712,193,495,506,-0.8614657,0.2207083,-0.06990726,-1.375733,-3.130169,-0.3118508,-0.4898735,0.05391151,0.783081,-0.3673437,-2.857318,2.165901
85,4.944445,712,193,495,506,-0.8082493,0.2378193,-0.08480619,-1.378274,-3.132205,-0.3035609,-0.4339947,0.00477016,0.7409233,-0.3620104,-2.870369,2.181565
86,4.955556,712,193,495,506,-0.7731395,0.2612594,-0.1019386,-1.381156,-3.134807,-0.2954074,-0.3874509,0.0003777742,0.7106027,-0.3563112,-2.882266,2.195739
87,4.966667,713,251,492,496,-0.7539964,0.2709049,-0.1040698,-1.384058,-3.136759,-0.2869812,-0.3349686,-0.024288,0.6429205,-0.3525333,-2.893095,2.208215
88,4.977778,713,251,492,496,-0.7284508,0.2784364,-0.106198,-1.386858,-3.138922,-0.279184,-0.2982142,-0.0659405,0.6020468,-0.349117,-2.906901,2.223547
89,4.98889,713,251,492,496,-0.706139,0.2934028,-0.1083713,-1.390009,-3.141055,-0.2713617,-0.2857248,-0.1288289,0.5902037,-0.3461694,-2.925595,2.243928
90,5.000001,713,251,492,496,-0.6881308,0.326445,-0.1149553,-1.394074,3.139423,-0.2637824,-0.2847691,-0.142709,0.5806158,-0.3424942,-2.942089,2.262515
91,5.011112,713,251,492,496,-0.6860989,0.3530467,-0.12044,-1.398268,3.136875,-0.2555377,-0.2757495,-0.1544455,0.6305934,-0.3374428,-2.962805,2.284836
91,5.022223,634,194,495,497,-0.7106028,0.3623996,-0.1407678,-1.401989,3.133928,-0.2463062,-0.2973056,-0.09792614,0.6936768,-0.3301004,-2.981349,2.306282
91,5.033335,634,194,495,497,-0.7401073,0.2875184,-0.1701368,-1.402507,3.131033,-0.23682,-0.2870571,0.01390696,0.7276496,-0.3213711,-2.99289,2.320214
91,5.044446,634,194,495,497,-0.7289317,0.1478413,-0.190453,-1.399861,3.129004,-0.2285291,-0.2317891,0.08299622,0.7963088,-0.3121054,-3.009944,2.337428
91,5.055557,634,194,495,497,-0.6783708,0.02006641,-0.2065275,-1.396633,3.126866,-0.2219532,-0.2036761,0.09571478,0.8322345,-0.3040147,-3.030342,2.358485
91,5.066669,581,190,496,495,-0.6611364,-0.02998527,-0.2125344,-1.394455,3.124757,-0.2147168,-0.162207,0.0860084,0.827533,-0.2973089,-3.050688,2.378603
91,5.07778,581,190,496,495,-0.6674017,-0.06413966,-0.2176451,-1.392628,3.122547,-0.2064743,-0.1343764,0.03905341,0.7547909,-0.2935112,-3.068716,2.396887
91,5.088891,581,190,496,495,-0.6844103,-0.07063624,-0.224028,-1.391134,3.120069,-0.197948,-0.1194324,-0.03663144,0.6758029,-0.2917386,-3.088351,2.416557
91,5.100002,581,190,496,495,-0.7111108,-0.04729033,-0.2232108,-1.39075,3.117503,-0.1891627,-0.1274141,-0.06644383,0.6311396,-0.2887357,-3.106813,2.435714
91,5.111114,581,190,496,495,-0.7400134,-0.01113663,-0.2181983,-1.391105,3.115029,-0.1796893,-0.09874059,-0.08676136,0.6276422,-0.2854648,-3.128817,2.457246
91,5.122225,656,257,518,494,-0.7635484,0.01858434,-0.2216549,-1.391591,3.112275,-0.1701403,-0.0770234,-0.09001891,0.6668173,-0.2810626,3.128755,2.482028
91,5.133336,656,257,518,494,-0.7925025,0.07807998,-0.2316924,-1.393664,3.109172,-0.1601519,-0.06904687,-0.1273198,0.7253302,-0.2772223,3.09605,2.514005
91,5.144447,656,257,518,494,-0.8128517,0.11418,-0.2405123,-1.395443,3.105886,-0.1500478,-0.08969976,-0.1219565,0.784141,-0.272419,3.062457,2.547867
91,5.155559,656,257,518,494,-0.840665,0.1449905,-0.2375962,-1.397437,3.102913,-0.1394708,-0.09371293,-0.07507157,0.7958999,-0.26695,3.034734,2.575785
91,5.16667,656,257,518,494,-0.8491215,0.1311825,-0.2311388,-1.398003,3.100119,-0.1296635,-0.08703077,-0.04525912,0.8128698,-0.2617099,3.005317,2.604747
91,5.177781,608,259,486,489,-0.8510733,0.08006044,-0.2297042,-1.397381,3.097829,-0.1198353,-0.09583068,-0.0473586,0.7874039,-0.2580816,2.976485,2.633985
91,5.188892,608,259,486,489,-0.8423726,0.02900833,-0.2239773,-1.396129,3.095735,-0.1105798,-0.08196191,-0.09854308,0.7030994,-0.257524,2.952104,2.658298
91,5.200004,608,259,486,489,-0.8326367,-0.0220371,-0.2150559,-1.394595,3.093934,-0.1010968,-0.07372865,-0.1262896,0.6817136,-0.2563484,2.922776,2.687124
91,5.211115,608,259,486,489,-0.8112014,-0.06872302,-0.1987056,-1.392467,3.092316,-0.09230729,-0.07979362,-0.12096,0.6114456,-0.2554089,2.903271,2.707073
91,5.222226,562,261,532,493,-0.7908927,-0.09834219,-0.1835458,-1.390916,3.090764,-0.08367066,-0.0628702,-0.1103687,0.5963697,-0.2535186,2.877288,2.732511
91,5.233337,562,261,532,493,-0.7311665,-0.133096,-0.1565389,-1.388453,3.089922,-0.07713154,-0.0298402,-0.06464794,0.5853663,-0.25062,2.855066,2.753497
91,5.244449,562,261,532,493,-0.6895947,-0.1572604,-0.1339371,-1.386292,3.08893,-0.07031171,-0.01619311,-0.04658975,0.562845,-0.2487478,2.833178,2.774682
91,5.25556,562,261,532,493,-0.6010832,-0.1919909,-0.1196526,-1.383471,3.088194,-0.06583707,-0.003832147,-0.03702447,0.5201064,-0.2472314,2.815125,2.791906
91,5.266671,562,261,532,493,-0.5508425,-0.2324104,-0.1352449,-1.379758,3.086513,-0.06062793,0.008928806,-0.01571187,0.5135648,-0.2448031,2.795405,2.810897
91,5.277782,722,319,481,490,-0.4995491,-0.2749579,-0.1540149,-1.37596,3.084496,-0.05528403,0.0225493,-0.02108411,0.4942467,-0.2435887,2.77492,2.830162
91,5.288894,722,319,481,490,-0.4397087,-0.3217073,-0.1652822,-1.371205,3.082605,-0.05136545,0.03715295,-0.01047188,0.4631949,-0.2422837,2.758068,2.845821
91,5.300005,722,319,481,490,-0.4173324,-0.3279675,-0.1620054,-1.367736,3.080935,-0.04678375,0.06538558,0.0001011938,0.4085675,-0.2409436,2.744431,2.857536
91,5.311116,722,319,481,490,-0.3322274,-0.3072765,-0.1385301,-1.364768,3.080127,-0.04528173,0.05729163,-0.05740584,0.3628439,-0.242158,2.730814,2.870214
91,5.322227,687,410,507,498,-0.3015237,-0.2644172,-0.1206453,-1.363278,3.079325,-0.04241563,0.02827789,-0.07436049,0.3429126,-0.2422582,2.715407,2.88569
91,5.333339,687,410,507,498,-0.2752288,-0.1610263,-0.1255663,-1.364252,3.077678,-0.03977005,0.022932,-0.06475885,0.3387074,-0.2418821,2.699943,2.900632
91,5.34445,687,410,507,498,-0.2543077,-0.05652201,-0.1187997,-1.365869,3.076195,-0.0366925,0.0001813471,-0.04446721,0.2963511,-0.2412132,2.689908,2.910641
91,5.355561,687,410,507,498,-0.2195162,0.03328543,-0.09272575,-1.368651,3.075496,-0.03484267,-0.006650671,-0.03913413,0.2527527,-0.2412366,2.681689,2.918793
91,5.366673,687,410,507,498,-0.1675056,0.08041308,-0.08121453,-1.370597,3.074897,-0.03403413,0.004950747,-0.03277894,0.241965,-0.2410337,2.67186,2.928118
91,5.377784,814,334,523,502,-0.1345569,0.09551625,-0.07274397,-1.372089,3.073863,-0.03297419,0.0209685,-0.02324671,0.241806,-0.2405676,2.659742,2.939052
91,5.388895,814,334,523,502,-0.09739685,0.1286927,-0.06862962,-1.374315,3.073133,-0.03261094,0.04554014,-0.0009355247,0.2415119,-0.2394645,2.651086,2.946169
91,5.400006,814,334,523,502,-0.08149377,0.1511029,-0.06876314,-1.376314,3.072111,-0.03181625,0.08216787,0.01174347,0.174007,-0.2390112,2.650966,2.944063
91,5.411118,814,334,523,502,-0.05078903,0.2045225,-0.06161471,-1.379941,3.071399,-0.03197072,0.06896129,-0.06385888,0.05269489,-0.2420632,2.659671,2.935103
91,5.422229,800,409,502,489,-0.03700888,0.2237965,-0.05639824,-1.383031,3.070619,-0.03174381,0.06318243,-0.0968764,0.01653142,-0.2440707,2.659648,2.934337
91,5.43334,800,409,502,489,-0.0243443,0.2526749,-0.0459168,-1.386646,3.070279,-0.0317582,0.06716017,-0.1011476,-0.009079672,-0.2454668,2.661845,2.931347
91,5.444451,800,409,502,489,-0.01264206,0.2580264,-0.04912131,-1.389628,3.069528,-0.03166392,0.07142057,-0.09476285,-0.01231236,-0.2460974,2.660857,2.931148
91,5.455563,800,409,502,489,-0.006243378,0.254854,-0.04908135,-1.392396,3.068961,-0.03159734,0.06181298,-0.08515013,-0.01647098,-0.2468447,2.661519,2.93008
91,5.466674,800,409,502,489,0.003363878,0.2527522,-0.0501105,-1.395172,3.068266,-0.03187964,0.05568153,-0.062767,0.0006434713,-0.2468809,2.65921,2.93158
91,5.477785,552,309,495,497,0.0161804,0.2410913,-0.04895267,-1.397624,3.067411,-0.03214222,0.06002541,-0.02443266,-0.001527568,-0.2462167,2.659671,2.930198
91,5.488896,552,309,495,497,0.03121623,0.1954325,-0.03475434,-1.398636,3.067393,-0.03289057,0.05663522,-0.01163852,-0.02387249,-0.2462497,2.663949,2.925319
91,5.500008,552,309,495,497,0.04097362,0.1411996,-0.02478053,-1.398825,3.067227,-0.03367141,0.05668345,-0.01057154,-0.01960282,-0.2463658,2.663717,2.92493
91,5.511119,552,309,495,497,0.04972031,0.07832588,-0.031785,-1.39807,3.066727,-0.03437289,0.05470734,-0.01695591,-0.004675117,-0.2466135,2.662194,2.925665
91,5.52223,552,309,495,497,0.05089139,0.05271298,-0.04119324,-1.3984,3.065947,-0.03479367,0.04190011,-0.03715806,-0.003476621,-0.2475232,2.661692,2.925833
91,5.533341,560,247,463,492,0.04141507,0.0259761,-0.05168297,-1.397889,3.065086,-0.0348448,0.04419846,-0.003074408,0.0039573,-0.2466503,2.661439,2.925536
91,5.544453,560,247,463,492,0.04142904,0.01537893,-0.04630412,-1.398113,3.064342,-0.03502163,0.0365837,0.005460784,-0.01298815,-0.2465352,2.663047,2.923686
91,5.555564,560,247,463,492,0.03393405,0.02930509,-0.03151365,-1.398835,3.064235,-0.03577051,0.03760269,0.009719439,-0.01832572,-0.2463621,2.664657,2.921687
91,5.566675,560,247,463,492,0.03069036,0.03682484,-0.02091935,-1.399446,3.064272,-0.03602831,0.03631778,-0.02116636,-0.03216427,-0.2475339,2.666618,2.919286
91,5.577786,705,242,474,494,0.01784766,0.05488485,-0.02213329,-1.400501,3.063975,-0.03582111,0.02467222,-0.04884022,-0.01925163,-0.2488516,2.664741,2.921083
91,5.588898,705,242,474,494,0.001869582,0.06220826,-0.03393742,-1.401369,3.06326,-0.0353279,0.03155094,-0.04566321,0.02542377,-0.2489161,2.658227,2.926905
91,5.600009,705,242,474,494,-0.007730417,0.06113143,-0.02755015,-1.401597,3.063262,-0.03502856,0.03369775,-0.02862453,0.0222117,-0.2487467,2.65772,2.926837
91,5.61112,705,242,474,494,-0.009910531,0.07182109,-0.02123679,-1.402649,3.063148,-0.03483095,0.03895128,-0.02118063,0.01363272,-0.2487883,2.658027,2.925988
91,5.622231,705,242,474,494,-0.009970091,0.08362806,-0.01065946,-1.40413,3.063318,-0.03482935,0.03985834,-0.0222464,-0.002360401,-0.2491654,2.659507,2.923891
91,5.633343,670,271,498,489,-0.01326741,0.1029097,0.006245501,-1.405813,3.063818,-0.03466903,0.02648097,-0.0669539,-0.04696402,-0.2513939,2.664528,2.919045
91,5.644454,670,271,498,489,-0.02291083,0.1219911,0.0007621562,-1.407228,3.063584,-0.03404053,0.01370694,-0.08076647,-0.0436341,-0.2526232,2.664931,2.918758
91,5.655565,670,271,498,489,-0.02930237,0.1283029,-0.009945497,-1.409003,3.063133,-0.03346581,0.004674196,-0.07435334,0.006535234,-0.2529422,2.65856,2.925142
91,5.666677,670,271,498,489,-0.04101405,0.1261246,-0.01102188,-1.410323,3.062943,-0.03263118,-0.003274055,-0.03917974,0.05137422,-0.2519622,2.651477,2.932173
91,5.677788,731,291,472,490,-0.04311764,0.1165259,-0.01204669,-1.411389,3.062449,-0.03190254,-0.00536958,-0.02213729,0.05032536,-0.251747,2.649955,2.933676
91,5.688899,731,291,472,490,-0.04625282,0.09420254,-0.003378655,-1.411832,3.062642,-0.03141252,-0.008745974,-0.02425328,0.03331498,-0.252114,2.650549,2.933191
91,5.70001,731,291,472,490,-0.05047219,0.07825081,0.0009841397,-1.412452,3.062777,-0.03073607,-0.01209931,-0.03703577,0.0216092,-0.2530344,2.65121,2.932739
91,5.711122,731,291,472,490,-0.04821333,0.04417486,0.001218942,-1.412069,3.062733,-0.0305113,-0.01531593,-0.04981127,0.02270827,-0.2539292,2.649489,2.93467
91,5.722233,731,291,472,490,-0.0513602,0.03352479,0.001264903,-1.41239,3.062423,-0.0299808,-0.0227117,-0.04660028,0.02810786,-0.2542872,2.647618,2.937001
91,5.733344,691,286,508,500,-0.05773432,0.02817722,0.001287564,-1.412559,3.062412,-0.0291499,-0.01398635,-0.02957826,0.04293033,-0.2539814,2.644343,2.94009
91,5.744455,691,286,508,500,-0.05986252,0.0281628,0.0002175905,-1.412869,3.062376,-0.02842445,-0.0161373,-0.02638357,0.04080536,-0.2542887,2.643733,2.940965
91,5.755567,691,286,508,500,-0.062117,0.05490789,0.01601648,-1.414454,3.063074,-0.02780447,-0.02673028,-0.02103033,0.04518106,-0.2542674,2.641237,2.943964
91,5.766678,691,286,508,500,-0.06323774,0.07194739,0.01589753,-1.415698,3.063222,-0.02710885,-0.02775601,-0.01569897,0.04730553,-0.254203,2.640027,2.945421
91,5.777789,691,286,508,500,-0.06544348,0.09113737,0.01573429,-1.417544,3.062948,-0.02607661,-0.03096748,-0.01888886,0.04628181,-0.2544475,2.637427,2.948258
91,5.7889,629,281,476,489,-0.07291162,0.09959403,0.009273881,-1.418919,3.062922,-0.02509017,-0.03423283,-0.01995344,0.04097535,-0.2548128,2.636805,2.949465
91,5.800012,629,281,476,489,-0.07496647,0.08145087,0.002992302,-1.419553,3.062614,-0.02418097,-0.03404811,-0.01462837,0.05695372,-0.2545987,2.632607,2.95394
91,5.811123,629,281,476,489,-0.07489325,0.06329722,-0.003274136,-1.419765,3.06239,-0.02331757,-0.02659707,-0.02317042,0.0600628,-0.254987,2.62954,2.957237
91,5.822234,629,281,476,489,-0.07262933,0.02176594,-0.004050442,-1.419075,3.062334,-0.0224856,-0.0256556,-0.02210568,0.0483341,-0.255167,2.628693,2.958324
91,5.833345,590,279,479,498,-0.0661396,-0.01331548,0.003663197,-1.417951,3.062627,-0.02198972,-0.01831528,-0.02637889,0.03866783,-0.2554211,2.627919,2.959133
91,5.844457,590,279,479,498,-0.05651402,-0.03030458,0.004860912,-1.417508,3.0626,-0.02138731,-0.02374934,-0.02103286,0.02806022,-0.2554499,2.628528,2.959086
91,5.855568,590,279,479,498,-0.05013029,-0.02497952,-0.0004916885,-1.417606,3.062374,-0.02091807,-0.02999672,-0.00929955,0.03878208,-0.255109,2.625941,2.962101
91,5.866679,590,279,479,498,-0.04375713,-0.02069645,-0.0004964578,-1.417553,3.062527,-0.02054948,-0.02878541,0.007739678,0.04835574,-0.2544874,2.623262,2.964948
91,5.87779,590,279,479,498,-0.03423154,-0.009945599,0.01222989,-1.417431,3.062978,-0.02049995,-0.02117667,0.02263362,0.05892943,-0.2536608,2.619967,2.968165
91,5.888902,561,267,487,495,-0.03326638,0.007180965,0.02384871,-1.417985,3.063803,-0.01996838,-0.007224809,0.02792235,0.06624992,-0.25306,2.615902,2.971621
91,5.900013,561,267,487,495,-0.0322369,0.01785524,0.02484718,-1.418651,3.064137,-0.01968023,-0.01482528,0.01622427,0.05567642,-0.2531825,2.614612,2.973259
91,5.911124,561,267,487,495,-0.03436198,0.03372853,0.009816368,-1.419451,3.063768,-0.01953375,-0.02759808,0.007728156,0.05793346,-0.253412,2.612597,2.975879
91,5.922235,561,267,487,495,-0.03327698,0.03578762,0.0002029613,-1.419703,3.063325,-0.01919926,-0.03096926,-0.005052682,0.04411903,-0.2538466,2.611428,2.977317
91,5.933347,589,241,509,490,-0.03218308,0.03253641,-0.00829484,-1.419964,3.06299,-0.01880458,-0.03123656,-0.007180925,0.01961664,-0.2540858,2.613256,2.975891
91,5.944458,589,241,509,490,-0.02366471,0.0283527,-0.0007858626,-1.420138,3.06327,-0.01877795,-0.03349223,0.008807167,0.003654166,-0.253591,2.61573,2.973864
91,5.955569,589,241,509,490,-0.01622373,0.02842835,0.006686891,-1.420462,3.063548,-0.01883494,-0.02919705,0.008795992,0.006804214,-0.2534211,2.615187,2.974579
91,5.966681,589,241,509,490,-0.01311512,0.04341281,0.01298994,-1.421644,3.06396,-0.01844559,-0.01935424,0.01728744,0.02907341,-0.2529769,2.611492,2.978175
91,5.977792,589,241,509,490,-0.01317544,0.05939411,0.01392648,-1.42267,3.063853,-0.01819418,-0.01712589,0.01088891,0.0397023,-0.2529066,2.60854,2.981148
91,5.988903,562,234,478,495,-0.02168216,0.06359118,0.008556474,-1.423467,3.063845,-0.01798752,-0.03207222,-0.0007957742,0.04091302,-0.2532608,2.607332,2.983349
91,6.000014,562,234,478,495,-0.03975103,0.05282867,0.002188512,-1.423642,3.063553,-0.01693451,-0.03094354,0.003450833,0.0451556,-0.2531745,2.605297,2.985536
91,6.011126,562,234,478,495,-0.03324986,0.01874988,0.0003176606,-1.423056,3.063678,-0.01668044,-0.03322739,0.006654035,0.03132736,-0.2530248,2.605771,2.985684
91,6.022237,562,234,478,495,-0.01399802,-0.00570066,-0.000545932,-1.422345,3.063539,-0.01694196,-0.02477835,0.008751376,0.02271937,-0.2530807,2.605611,2.985674
