ref,t,emg1,emg2,emg1raw,emg2raw,aDotS,bDotS,gDotS,aS,bS,gS,aDotSH,bDotSH,gDotSH,aSH,bSH,gSH
0,0,128,222,500,498,0.2580824,-0.138243,0.4624591,-1.398255,-3.071104,-1.600856,0.1129926,0.1287151,-0.2148337,-0.9613159,-2.779729,1.500396
0,0.01111111,128,222,500,498,0.2485803,-0.1586527,0.4465985,-1.402718,-3.068682,-1.603685,0.09809843,0.1468864,-0.2146618,-0.9639136,-2.776992,1.498249
0,0.02222222,121,266,500,494,0.2326417,-0.1683471,0.4402481,-1.407555,-3.066604,-1.606187,0.09131661,0.1458803,-0.2550811,-0.968026,-2.775355,1.49652
0,0.03333334,121,266,500,494,0.2209529,-0.1748138,0.4349471,-1.412282,-3.064635,-1.608639,0.09847611,0.1127521,-0.2893975,-0.973763,-2.777427,1.495249
0,0.04444445,121,266,500,494,0.2124508,-0.1748955,0.4285359,-1.416929,-3.062813,-1.611217,0.107871,0.09570933,-0.3065512,-0.977697,-2.777107,1.493602
0,0.05555556,121,266,500,494,0.1996627,-0.1717631,0.4252955,-1.421643,-3.061165,-1.613319,0.1237009,0.04124267,-0.3196091,-0.9822921,-2.780457,1.492887
0,0.06666667,113,215,502,505,0.1836624,-0.1612081,0.4209155,-1.42604,-3.059722,-1.615257,0.1270216,0.01775575,-0.304725,-0.9848008,-2.78157,1.491788
0,0.07777778,113,215,502,505,0.1739701,-0.1334735,0.4302899,-1.431086,-3.059178,-1.617012,0.129669,-0.01426372,-0.2451215,-0.9858863,-2.782901,1.49101
0,0.08888889,113,215,502,505,0.1706745,-0.1067903,0.4386181,-1.436243,-3.058954,-1.618867,0.1289728,-0.02823325,-0.2046622,-0.9873595,-2.784951,1.490781
0,0.1,113,215,502,505,0.1694963,-0.07373103,0.4479704,-1.441491,-3.058984,-1.620866,0.1218401,-0.03570926,-0.1694441,-0.9881995,-2.785766,1.490056
0,0.1111111,113,215,502,505,0.1683526,-0.04607505,0.4424463,-1.44623,-3.0595,-1.622628,0.1143778,-0.02610922,-0.1768136,-0.9904776,-2.786092,1.488493
0,0.1222222,112,290,501,498,0.1683142,-0.02802821,0.4359318,-1.450949,-3.059744,-1.624591,0.09712195,-0.02499543,-0.1990201,-0.9932962,-2.786625,1.488204
0,0.1333333,112,290,501,498,0.1587726,-0.02820783,0.4135433,-1.454898,-3.059724,-1.626156,0.07751825,-0.0281256,-0.2435646,-0.996973,-2.78766,1.488402
0,0.1444445,112,290,501,498,0.1471059,-0.03898234,0.4018792,-1.45912,-3.0592,-1.627564,0.06214535,-0.01314345,-0.2945331,-1.001458,-2.787831,1.488147
0,0.1555556,112,290,501,498,0.1162429,-0.04235906,0.3901309,-1.463172,-3.058855,-1.628195,0.06960851,0.002825439,-0.2967206,-1.004859,-2.787627,1.48709
0,0.1666667,112,290,501,498,0.09174988,-0.03823101,0.3836578,-1.467196,-3.058747,-1.628771,0.08256596,0.01555898,-0.2840327,-1.007343,-2.787657,1.485426
0,0.1777778,112,228,500,497,0.0757257,-0.02127508,0.3781839,-1.4712,-3.059196,-1.629105,0.08588974,0.04324352,-0.2755165,-1.010253,-2.78646,1.483723
0,0.1888889,112,228,500,497,0.07887051,-0.005294601,0.3759362,-1.475181,-3.059912,-1.630036,0.06808408,0.06881744,-0.2497445,-1.012366,-2.785048,1.482544
0,0.2,112,228,500,497,0.0692654,0.004209591,0.3683953,-1.479063,-3.060487,-1.630477,0.05241398,0.07733846,-0.2186923,-1.01401,-2.783906,1.481797
0,0.2111111,112,228,500,497,0.05336276,-0.009819945,0.3492944,-1.482527,-3.060193,-1.630651,0.01125791,0.04433935,-0.1714436,-1.014353,-2.784543,1.483094
0,0.2222222,111,265,500,500,0.0620302,-0.03661333,0.3228763,-1.485678,-3.059256,-1.631894,-0.01433962,0.01775567,-0.1722866,-1.016332,-2.785301,1.483934
0,0.2333333,111,265,500,500,0.07390186,-0.06559397,0.2868803,-1.488021,-3.057894,-1.633129,-0.02227837,-0.01521422,-0.2169862,-1.019769,-2.786924,1.485308
0,0.2444444,111,265,500,500,0.08465825,-0.08384996,0.2614577,-1.49039,-3.056724,-1.634481,-0.01292375,-0.02693316,-0.2394404,-1.022659,-2.78787,1.48564
0,0.2555556,111,265,500,500,0.1070947,-0.079841,0.215659,-1.491616,-3.055975,-1.63639,0.007356465,-0.02697156,-0.2353719,-1.025164,-2.788515,1.485358
0,0.2666667,111,265,500,500,0.1017308,-0.05656286,0.196308,-1.493408,-3.056091,-1.637378,0.01500584,-0.01632622,-0.2173199,-1.026961,-2.788223,1.484832
0,0.2777778,111,256,499,497,0.09306937,0.002862356,0.1671106,-1.494365,-3.057744,-1.638061,0.01436485,0.0006808862,-0.1757492,-1.02779,-2.787752,1.484437
0,0.2888889,111,256,499,497,0.07162952,0.05278692,0.1560747,-1.495842,-3.059773,-1.638168,0.001949348,0.0251708,-0.1436396,-1.02855,-2.786838,1.484028
0,0.3,111,256,499,497,0.04474306,0.1399641,0.1426304,-1.496781,-3.063927,-1.637579,-0.005153105,0.04115023,-0.1094458,-1.028766,-2.785572,1.483571
0,0.3111111,111,256,499,497,0.006139681,0.2313074,0.1216842,-1.497431,-3.068688,-1.636381,0.006895289,0.01659752,-0.07336703,-1.028748,-2.786046,1.483004
0,0.3222222,106,287,499,495,-0.002450369,0.2567365,0.1076475,-1.49817,-3.071809,-1.635838,0.017757,-0.01966656,-0.04474033,-1.028433,-2.787387,1.483189
0,0.3333333,106,287,499,495,-0.01732162,0.2596678,0.07670723,-1.498003,-3.074827,-1.635012,0.03363401,-0.07189161,-0.04814559,-1.028925,-2.790113,1.483484
0,0.3444445,106,287,499,495,-0.01619171,0.2488864,0.05760568,-1.498028,-3.077205,-1.634708,0.03525759,-0.09847266,-0.09825984,-1.03132,-2.792201,1.483953
0,0.3555556,106,287,499,495,-0.01285401,0.2199244,0.02798637,-1.497388,-3.078824,-1.634535,0.03494314,-0.1165524,-0.1281049,-1.033382,-2.794515,1.484763
0,0.3666667,106,287,499,495,-0.01376133,0.1856513,0.002665883,-1.496862,-3.079916,-1.634369,0.04035342,-0.106978,-0.1228269,-1.034456,-2.795607,1.484488
0,0.3777778,106,226,500,498,-0.007246351,0.1546739,-0.01201954,-1.496268,-3.080778,-1.634379,0.04810446,-0.08890964,-0.09518266,-1.034689,-2.796163,1.484023
0,0.3888889,106,226,500,498,0.002413896,0.1354855,-0.01719919,-1.495853,-3.081788,-1.63464,0.0410111,-0.05910767,-0.06207499,-1.034702,-2.796129,1.483774
0,0.4,106,226,500,498,0.01094863,0.1312434,-0.01822664,-1.495475,-3.08315,-1.634841,0.03057846,-0.01969775,-0.04596428,-1.035019,-2.795391,1.483377
0,0.4111111,106,226,500,498,0.01628464,0.1259714,-0.01284631,-1.495506,-3.084415,-1.635107,0.0286542,0.01118316,-0.02993419,-1.035026,-2.794332,1.482583
0,0.4222222,101,288,499,496,0.02057507,0.1206252,-0.01705739,-1.4952,-3.085543,-1.635434,0.02985797,0.02505623,-0.02038804,-1.03582,-2.793252,1.481279
0,0.4333333,101,288,499,496,0.02377028,0.1153932,-0.005290102,-1.4955,-3.086773,-1.635724,0.02559404,0.03465374,-0.02246823,-1.036189,-2.792519,1.480731
0,0.4444444,101,288,499,496,0.02595519,0.0983472,-0.003032693,-1.495499,-3.087129,-1.636078,0.0138235,0.04000939,-0.02768788,-1.036829,-2.791908,1.480726
0,0.4555556,101,288,499,496,0.02922015,0.07704454,-0.003943292,-1.495421,-3.087418,-1.636457,0.009457134,0.04322464,-0.03936204,-1.037635,-2.791336,1.480463
0,0.4666667,101,288,499,496,0.0400072,0.03553692,-0.003622124,-1.495581,-3.086784,-1.637277,0.008351714,0.03791299,-0.04682517,-1.038559,-2.791055,1.479668
0,0.4777778,99,214,499,499,0.05929945,-0.004852634,0.002009413,-1.495681,-3.08565,-1.638506,0.02875954,0.01973764,-0.02573585,-1.038316,-2.791462,1.479026
0,0.4888889,99,214,499,499,0.0742837,-0.03139297,0.008616531,-1.496044,-3.08464,-1.639741,0.03309105,0.009071952,-0.01620542,-1.038326,-2.791551,1.478617
0,0.5,99,214,499,499,0.08069565,-0.03879992,0.01400711,-1.496397,-3.084023,-1.640913,0.02570374,-0.003711497,-0.00654848,-1.037959,-2.79198,1.478735
0,0.5111111,99,214,499,499,0.08918736,-0.03233442,0.0203685,-1.496812,-3.083918,-1.642148,0.01936205,-0.01116418,-0.0001071515,-1.037846,-2.792329,1.478822
0,0.5222223,99,214,499,499,0.0869603,-0.007731331,0.03723526,-1.497554,-3.084439,-1.643131,0.01822735,-0.004778316,-0.008612442,-1.038169,-2.79247,1.478719
0,0.5333334,93,243,500,496,0.08148506,0.02966271,0.05507546,-1.498528,-3.085806,-1.64381,0.0225057,0.01225818,-0.009703302,-1.038405,-2.791807,1.478061
0,0.5444446,93,243,500,496,0.05894525,0.07548393,0.06856716,-1.499466,-3.087664,-1.643778,0.02901874,0.03143384,-0.001212167,-1.03815,-2.790501,1.476805
0,0.5555557,93,243,500,496,0.04289892,0.09568834,0.07052889,-1.500182,-3.089334,-1.643714,0.03008727,0.03889009,-0.002279921,-1.038271,-2.789764,1.476074
0,0.5666668,93,243,500,496,0.0278903,0.1191534,0.08099069,-1.501175,-3.091288,-1.643507,0.02819078,0.03139675,0.02220335,-1.037825,-2.78978,1.475656
0,0.577778,88,189,500,506,0.01932373,0.1319162,0.08195424,-1.502004,-3.093193,-1.643353,0.03040399,0.02071732,0.03283404,-1.037063,-2.789972,1.475359
0,0.5888891,88,189,500,506,0.00870686,0.1275628,0.07449773,-1.502357,-3.09433,-1.643208,0.02936646,0.004750305,0.03385916,-1.037142,-2.790244,1.474532
0,0.6000003,88,189,500,506,0.007717218,0.1093453,0.06076147,-1.502402,-3.094912,-1.643248,0.03029242,-0.01762627,0.02320031,-1.036706,-2.791363,1.474712
0,0.6111114,88,189,500,506,0.01105907,0.07618311,0.03969262,-1.502342,-3.094887,-1.643423,0.02927868,-0.02826107,0.02528764,-1.036936,-2.791712,1.473855
0,0.6222225,88,189,500,506,0.01008182,0.05800875,0.03128989,-1.502428,-3.095127,-1.643761,0.02069792,-0.02716644,0.0189528,-1.037194,-2.791914,1.473946
0,0.6333337,84,331,499,495,0.01233207,0.02703386,0.01872531,-1.502321,-3.094603,-1.643979,0.01863412,-0.02181782,0.01893223,-1.037637,-2.791765,1.472883
0,0.6444448,84,331,499,495,0.01028275,0.006726423,0.01033768,-1.502218,-3.094213,-1.644071,0.0165138,-0.002633484,0.01578358,-1.037513,-2.791203,1.472405
0,0.655556,84,331,499,495,0.009300943,-0.01569935,0.003034828,-1.502156,-3.093385,-1.64424,0.01444147,0.02720206,0.01687082,-1.037849,-2.789977,1.471774
0,0.6666671,84,331,499,495,0.009394282,-0.041304,-0.002118236,-1.502004,-3.092252,-1.64446,0.008141987,0.03892388,0.0244006,-1.037442,-2.789073,1.471369
0,0.6777782,80,203,499,498,0.01266271,-0.06158889,-0.009436967,-1.501671,-3.091038,-1.644706,-0.003389254,0.04958497,0.04257011,-1.037464,-2.788068,1.471266
0,0.6888894,80,203,499,498,0.009523718,-0.07338772,-0.02001316,-1.501304,-3.089911,-1.644841,-0.006472353,0.05385295,0.05215805,-1.037193,-2.786977,1.470652
0,0.7000005,80,203,499,498,0.01063909,-0.08619181,-0.02311524,-1.501112,-3.088629,-1.645139,-0.005361348,0.06025353,0.05535207,-1.036617,-2.78574,1.469941
0,0.7111117,80,203,499,498,0.0117442,-0.0958209,-0.02943694,-1.50068,-3.087245,-1.645389,-0.006426074,0.06773261,0.05108004,-1.036701,-2.784408,1.468971
0,0.7222228,80,203,499,498,0.01072665,-0.1044008,-0.03684289,-1.50022,-3.085757,-1.645675,-0.005416103,0.07093816,0.04466558,-1.036712,-2.783322,1.468466
0,0.7333339,81,271,498,487,0.008621287,-0.1066389,-0.05066849,-1.499368,-3.084449,-1.645758,-0.003341973,0.08265719,0.0361296,-1.036744,-2.781966,1.467724
0,0.7444451,81,271,498,487,0.003310382,-0.1077616,-0.05811714,-1.498892,-3.083304,-1.645684,-0.007749878,0.08161573,0.02017038,-1.037258,-2.78108,1.46739
0,0.7555562,81,271,498,487,-0.00416591,-0.1014015,-0.05923875,-1.498277,-3.082299,-1.645507,-0.009944797,0.07949629,0.01379667,-1.037358,-2.780135,1.467072
0,0.7666674,81,271,498,487,4.065037E-05,-0.08750969,-0.05400932,-1.497756,-3.081583,-1.645663,-0.003535271,0.06670867,0.01685963,-1.037937,-2.779568,1.466473
0,0.7777785,81,271,498,487,-0.001078103,-0.07362384,-0.04877306,-1.497554,-3.08118,-1.645618,-0.003386747,0.06031069,0.03387465,-1.03748,-2.778696,1.466095
0,0.7888896,76,222,499,497,0.003128242,-0.06076149,-0.03926669,-1.497409,-3.080818,-1.645832,-0.006388437,0.04751905,0.05199383,-1.036577,-2.778218,1.465339
0,0.8000008,76,222,499,497,-0.00118624,-0.05220041,-0.03080773,-1.497328,-3.080294,-1.645472,-0.01157568,0.03364919,0.07009137,-1.036,-2.778315,1.465754
0,0.8111119,76,222,499,497,-0.006573412,-0.04148884,-0.01916889,-1.497564,-3.079934,-1.64523,-0.02863295,0.02196949,0.07344834,-1.034855,-2.778128,1.466719
0,0.8222231,76,222,499,497,-0.01195971,-0.02969976,-0.006478935,-1.497694,-3.07993,-1.644948,-0.03622549,0.01666772,0.06294578,-1.033287,-2.77784,1.467501
0,0.8333342,74,278,499,496,-0.01735571,-0.01050474,-0.001295262,-1.4978,-3.080323,-1.644582,-0.04066735,0.0007139556,0.04698987,-1.033152,-2.778321,1.468334
0,0.8444453,74,278,499,496,-0.02057977,-0.003040012,0.0007681858,-1.497657,-3.080478,-1.644253,-0.03966928,-0.009961884,0.04275941,-1.031953,-2.779058,1.469181
0,0.8555565,74,278,499,496,-0.0185014,0.012953,0.001725723,-1.497673,-3.081093,-1.64408,-0.04602794,-0.0248713,0.04919513,-1.031167,-2.779769,1.470238
0,0.8666676,74,278,499,496,-0.0153313,0.02361384,0.0005840489,-1.49746,-3.081703,-1.644042,-0.05462096,-0.0418997,0.04502051,-1.030321,-2.780818,1.471625
0,0.8777788,74,278,499,496,-0.0110906,0.03108284,-0.0005210927,-1.497479,-3.08234,-1.644001,-0.06328274,-0.05040274,0.03546591,-1.030653,-2.781845,1.473557
0,0.8888899,71,224,499,501,-0.005740449,0.02469321,-0.002597982,-1.497397,-3.08244,-1.644074,-0.06967618,-0.05145626,0.03552535,-1.030209,-2.782507,1.474831
0,0.900001,71,224,499,501,-0.002534459,0.02044811,-0.00150237,-1.497314,-3.082495,-1.644096,-0.07176344,-0.040798,0.03769799,-1.029556,-2.782541,1.475638
0,0.9111122,71,224,499,501,0.002828087,0.01299165,-0.004633298,-1.497225,-3.082506,-1.644356,-0.07064309,-0.02800435,0.03982955,-1.02913,-2.782199,1.476047
0,0.9222233,71,224,499,501,0.008180734,0.007671916,-0.005646768,-1.497253,-3.082438,-1.6447,-0.07063728,-0.01416385,0.03875351,-1.029105,-2.782167,1.476957
0,0.9333345,72,233,499,498,0.012473,-0.005060679,-0.0002240948,-1.497432,-3.082059,-1.644986,-0.07382397,0.01780685,0.03349265,-1.028989,-2.780938,1.477226
0,0.9444456,72,233,499,498,0.01572131,-0.02208065,0.0009738414,-1.497652,-3.081556,-1.645251,-0.0758627,0.04231346,0.03672354,-1.028701,-2.779811,1.477247
0,0.9555568,72,233,499,498,0.01362597,-0.03274756,-2.066127E-05,-1.497667,-3.08092,-1.645383,-0.07465582,0.04653022,0.05059095,-1.027542,-2.779209,1.477777
0,0.9666679,72,233,499,498,0.01585943,-0.06154445,-0.005145819,-1.497548,-3.079489,-1.645786,-0.06183349,0.03798357,0.05579996,-1.026632,-2.778783,1.477851
0,0.977779,72,233,499,498,0.0116418,-0.07436467,-0.009320784,-1.497478,-3.078459,-1.645823,-0.03629886,0.01129585,0.05655695,-1.026471,-2.779565,1.477874
0,0.9888902,71,245,500,495,0.008510287,-0.09145509,-0.01453185,-1.497351,-3.077027,-1.645956,-0.01607508,0.002735935,0.05635578,-1.025818,-2.779766,1.477615
0,1.000001,71,245,500,495,0.005349018,-0.1031938,-0.01657654,-1.49737,-3.075686,-1.645951,-0.0108301,0.003804386,0.04773362,-1.026269,-2.779584,1.477598
0,1.011112,71,245,500,495,0.006451493,-0.1117572,-0.0229064,-1.497055,-3.074188,-1.646167,0.009397205,0.02401329,0.04223863,-1.026045,-2.778667,1.476475
0,1.022224,71,245,500,495,0.009665947,-0.1170957,-0.02605715,-1.496849,-3.072756,-1.646407,0.01907126,0.03253454,0.0474762,-1.025537,-2.777583,1.475213
0,1.033335,71,221,499,497,0.006451651,-0.1107216,-0.02717224,-1.4966,-3.071654,-1.64647,0.02346699,0.05595223,0.05704917,-1.024761,-2.776013,1.474042
0,1.044446,71,221,499,497,0.005360132,-0.1053862,-0.02508138,-1.496466,-3.070574,-1.646505,0.02447838,0.06021965,0.05495157,-1.02373,-2.774992,1.473835
0,1.055557,71,221,499,497,0.007408915,-0.07981122,-0.02525396,-1.496203,-3.070363,-1.64665,0.0287554,0.06340647,0.05597989,-1.023162,-2.773999,1.472867
0,1.066668,71,221,499,497,0.008446351,-0.06916116,-0.02639025,-1.495948,-3.069836,-1.646868,0.02765547,0.06446771,0.05173661,-1.022687,-2.773282,1.472155
0,1.077779,71,221,499,497,0.007315509,-0.0542211,-0.02116655,-1.495925,-3.069427,-1.6468,0.02435468,0.04210158,0.04432334,-1.021852,-2.773502,1.472007
0,1.08889,70,220,497,488,0.004065335,-0.03823753,-0.01915258,-1.49574,-3.069388,-1.646758,0.0274501,0.02292516,0.04216331,-1.021098,-2.773676,1.472358
0,1.100002,70,220,497,488,0.004049428,-0.03185805,-0.02026542,-1.495449,-3.069093,-1.646867,0.03489091,0.01969073,0.04001489,-1.019891,-2.77373,1.471632
0,1.111113,70,220,497,488,0.004006204,-0.02221796,-0.01287294,-1.495536,-3.069067,-1.646921,0.04223672,0.0143623,0.02928585,-1.019861,-2.773726,1.470948
0,1.122224,70,220,497,488,0.005054634,-0.01794601,-0.01289381,-1.495494,-3.069047,-1.646961,0.03685547,0.01224287,0.02513571,-1.018782,-2.773529,1.470753
0,1.133335,70,220,497,488,0.01782833,-0.01365945,-0.01503236,-1.495293,-3.069002,-1.647499,0.0304034,0.01226183,0.01880483,-1.01877,-2.773326,1.47048
0,1.144446,71,324,499,488,0.0231537,-0.01150864,-0.01504469,-1.495016,-3.068944,-1.647969,0.03461529,0.01332031,0.01342917,-1.0189,-2.773201,1.469912
0,1.155557,71,324,499,488,0.03911512,-0.008230059,-0.009718544,-1.494968,-3.068852,-1.64886,0.03990956,0.001593385,0.01230051,-1.018769,-2.773512,1.469481
0,1.166668,71,324,499,488,0.03696702,-0.001840704,-0.009764067,-1.494871,-3.069058,-1.649186,0.04411485,-0.01438668,0.01011891,-1.018519,-2.774123,1.469281
0,1.17778,71,324,499,488,0.04014622,0.002478983,-0.004463407,-1.494925,-3.069356,-1.649791,0.04188852,-0.01649791,0.0005354946,-1.018974,-2.774334,1.469015
0,1.188891,72,350,498,497,0.04864668,0.008904374,-0.00342836,-1.494889,-3.069635,-1.650539,0.04294945,-0.01011077,0.0005435906,-1.0188,-2.77425,1.468696
0,1.200002,72,350,498,497,0.05177386,0.02496263,0.006053651,-1.495153,-3.070429,-1.651104,0.03449906,-0.001591701,0.00703593,-1.01852,-2.774084,1.468308
0,1.211113,72,350,498,497,0.04959669,0.03881845,0.00808342,-1.49522,-3.071228,-1.651524,0.03239876,0.0026787,0.009184444,-1.018357,-2.773844,1.468042
0,1.222224,72,350,498,497,0.04956913,0.04418554,0.01444262,-1.495552,-3.071773,-1.652047,0.03876246,0.002653386,0.008091262,-1.017816,-2.774004,1.467778
0,1.233335,72,350,498,497,0.04951119,0.06019457,0.01859271,-1.49578,-3.072893,-1.652532,0.04513787,-0.000553187,0.006961841,-1.017765,-2.774095,1.467161
0,1.244446,72,258,499,502,0.05054117,0.07085099,0.01852063,-1.495898,-3.073969,-1.653018,0.0482942,-0.001616776,0.004819393,-1.017478,-2.774033,1.466765
0,1.255558,72,258,499,502,0.05369746,0.08259192,0.02057447,-1.496051,-3.075187,-1.65363,0.04181594,-0.004791141,-0.003645545,-1.017735,-2.774245,1.46661
0,1.266669,72,258,499,502,0.05795126,0.08580054,0.02056144,-1.496245,-3.076197,-1.654352,0.03748249,-0.0164943,-0.008960421,-1.018148,-2.774863,1.466643
0,1.27778,72,258,499,502,0.06435908,0.07943767,0.02168022,-1.496427,-3.076931,-1.655155,0.03526917,-0.02180809,-0.01642394,-1.018783,-2.775409,1.46664
0,1.288891,72,307,499,497,0.06649975,0.07516903,0.01957812,-1.49647,-3.077636,-1.655779,0.03310554,-0.02180233,-0.01746093,-1.018857,-2.775685,1.466802
0,1.300002,72,307,499,497,0.06970045,0.07200506,0.02386013,-1.496711,-3.078261,-1.656627,0.02566836,-0.02071936,-0.01528931,-1.019369,-2.775875,1.466873
0,1.311113,72,307,499,497,0.06865751,0.06028942,0.02607387,-1.497092,-3.07851,-1.657181,0.02271795,-0.01861091,0.009246169,-1.018522,-2.775956,1.466617
0,1.322224,72,307,499,497,0.06654721,0.05284217,0.02612839,-1.497401,-3.079167,-1.657767,0.0163359,-0.01647327,0.009266735,-1.019064,-2.776247,1.466665
0,1.333336,72,307,499,497,0.06230924,0.0443214,0.02831111,-1.497753,-3.079461,-1.658341,0.007777482,-0.01432198,0.005088994,-1.019093,-2.776376,1.466883
0,1.344447,71,282,499,496,0.06445259,0.04219649,0.02832718,-1.498003,-3.079903,-1.659185,0.005610531,-0.01429534,-0.0002495552,-1.019701,-2.776356,1.466645
0,1.355558,71,282,499,496,0.06446691,0.03477677,0.03370554,-1.498526,-3.080128,-1.659896,0.006693998,-0.01536503,0.001869643,-1.01961,-2.776606,1.46668
0,1.366669,71,282,499,496,0.06871583,0.03795858,0.0304921,-1.498692,-3.080611,-1.660632,0.003492296,-0.01961518,-0.0002306756,-1.019547,-2.77696,1.466579
0,1.37778,71,282,499,496,0.06017141,0.04326904,0.03256492,-1.498988,-3.081214,-1.660997,-0.001809848,-0.01214938,0.0008934374,-1.019511,-2.776861,1.466692
0,1.388891,71,291,499,501,0.05590496,0.04431504,0.03148445,-1.499259,-3.081785,-1.6614,-0.009251109,-0.007876826,0.004173441,-1.019254,-2.776763,1.46731
0,1.400002,71,291,499,501,0.04840935,0.05601742,0.03245128,-1.499507,-3.082773,-1.661699,-0.01449092,-0.003610927,0.01272189,-1.019285,-2.776635,1.467603
0,1.411114,71,291,499,501,0.04094594,0.05917479,0.03028576,-1.499707,-3.083547,-1.661877,-0.01776087,-0.005735778,0.007451057,-1.018931,-2.77685,1.468266
0,1.422225,71,291,499,501,0.03242068,0.06127453,0.02919809,-1.500044,-3.08435,-1.661994,-0.01460355,-0.01532657,0.005284961,-1.018815,-2.777341,1.468594
0,1.433336,71,291,499,501,0.02286216,0.05376508,0.0260379,-1.500203,-3.084767,-1.661953,-0.0113728,-0.03451605,0.01269047,-1.018414,-2.778304,1.469142
0,1.444447,72,237,499,504,0.01329203,0.05051023,0.02178463,-1.500315,-3.085281,-1.661834,-0.01138305,-0.04196682,0.01371583,-1.018623,-2.778938,1.46971
0,1.455558,72,237,499,504,0.003714873,0.04833456,0.0196526,-1.500431,-3.085774,-1.661583,-0.01678395,-0.04940694,0.007366864,-1.018637,-2.779846,1.470516
0,1.466669,72,237,499,504,-0.004795612,0.04505334,0.01221063,-1.50045,-3.086114,-1.661131,-0.01899235,-0.05578991,0.0009585656,-1.019169,-2.780843,1.471395
0,1.47778,72,237,499,504,-0.01549069,0.05676101,0.015308,-1.500636,-3.087116,-1.66062,-0.02116033,-0.05576894,-0.003281469,-1.019283,-2.781407,1.47195
0,1.488891,72,237,499,504,-0.02614373,0.05778754,0.01422171,-1.500754,-3.087857,-1.660049,-0.02004487,-0.0578943,0.002027661,-1.019108,-2.781966,1.47237
0,1.500003,72,250,498,495,-0.03147388,0.06200708,0.01099297,-1.500787,-3.088615,-1.659586,-0.01888531,-0.05792078,0.01162348,-1.018348,-2.782867,1.472962
0,1.511114,72,250,498,495,-0.0367965,0.05880267,0.01207374,-1.500984,-3.08921,-1.658972,-0.02106494,-0.04724904,0.006347148,-1.01814,-2.783034,1.473603
0,1.522225,72,250,498,495,-0.037834,0.05137107,0.01425104,-1.501084,-3.089801,-1.658619,-0.0264095,-0.04512832,0.00325141,-1.017459,-2.783899,1.474377
0,1.533336,72,250,498,495,-0.03885125,0.03750085,0.01221463,-1.501151,-3.089829,-1.658166,-0.03702782,-0.03765385,0.005491203,-1.017324,-2.784141,1.475182
0,1.544447,71,252,499,496,-0.04199039,0.02468289,0.008036947,-1.501115,-3.089842,-1.65775,-0.04440074,-0.0270082,0.007749809,-1.016484,-2.784414,1.475388
0,1.555558,71,252,499,496,-0.04298335,0.002301527,0.007125909,-1.501226,-3.089227,-1.657287,-0.04758239,-0.02487287,0.008847749,-1.016334,-2.784622,1.476131
0,1.566669,71,252,499,496,-0.04717005,-0.02010225,0.005140649,-1.501259,-3.088403,-1.65671,-0.04660298,-0.02590412,-0.006164918,-1.018035,-2.78492,1.475919
0,1.577781,71,252,499,496,-0.04287478,-0.02968494,0.005209402,-1.501307,-3.08771,-1.656475,-0.04456182,-0.02802029,-0.01476681,-1.019256,-2.785306,1.476629
0,1.588892,71,252,499,496,-0.04499694,-0.03498098,0.01056809,-1.501583,-3.087249,-1.655976,-0.04140176,-0.0269601,-0.01904249,-1.019249,-2.785714,1.477198
0,1.600003,70,276,499,483,-0.04286041,-0.03709066,0.01377916,-1.50181,-3.086691,-1.655655,-0.04342301,-0.02589626,-0.01369938,-1.019264,-2.786003,1.477088
0,1.611114,70,276,499,483,-0.04075538,-0.02961388,0.01586235,-1.502064,-3.086572,-1.655305,-0.04748297,-0.03763278,0.009763735,-1.018491,-2.786761,1.478096
0,1.622225,70,276,499,483,-0.03756926,-0.02852923,0.01691848,-1.502186,-3.086307,-1.654917,-0.05056782,-0.03125014,0.01939889,-1.017903,-2.78699,1.478744
0,1.633336,70,276,499,483,-0.03860381,-0.03601904,0.01270765,-1.502265,-3.0857,-1.654487,-0.06115573,-0.02377928,0.0248347,-1.017488,-2.787006,1.479713
0,1.644447,70,239,500,496,-0.04286177,-0.03815985,0.01272077,-1.502528,-3.085284,-1.653879,-0.06539242,-0.02268552,0.02699589,-1.017325,-2.786899,1.480437
0,1.655559,70,239,500,496,-0.03643601,-0.0477421,0.01066777,-1.502665,-3.084474,-1.653742,-0.0590172,-0.02056444,0.02480699,-1.017106,-2.78706,1.481011
0,1.66667,70,239,500,496,-0.03323492,-0.04670433,0.005336829,-1.502576,-3.083995,-1.653477,-0.05041954,-0.007735867,0.02682799,-1.017469,-2.78576,1.4802
0,1.677781,70,239,500,496,-0.03005095,-0.04243397,0.006373134,-1.502662,-3.083517,-1.653319,-0.05465161,0.01787215,0.02473944,-1.01776,-2.784259,1.480121
0,1.688892,70,239,500,496,-0.02476246,-0.03388333,0.009516523,-1.502847,-3.083237,-1.653117,-0.06841984,0.03919788,0.02811857,-1.017023,-2.783105,1.480469
0,1.700003,71,240,499,497,-0.02157411,-0.03068618,0.008434404,-1.502936,-3.082961,-1.653002,-0.07260909,0.04558923,0.03451059,-1.017213,-2.782397,1.481004
0,1.711114,71,240,499,497,-0.01943616,-0.02962464,0.006305298,-1.503048,-3.082702,-1.652952,-0.07353327,0.03598726,0.05051096,-1.0159,-2.782064,1.48158
0,1.722225,71,240,499,497,-0.01410768,-0.03278196,0.01059351,-1.503263,-3.08215,-1.652955,-0.06936754,0.02103892,0.04832085,-1.015417,-2.782706,1.483223
0,1.733337,71,240,499,497,-0.01302923,-0.03809012,0.01276292,-1.503513,-3.081609,-1.652864,-0.06412636,0.01890796,0.03974585,-1.015215,-2.782531,1.483706
0,1.744448,72,260,500,494,-0.007685018,-0.04232368,0.01386219,-1.503655,-3.08113,-1.653042,-0.06531055,0.02528225,0.02914584,-1.014652,-2.782452,1.484851
0,1.755559,72,260,500,494,-0.005540453,-0.04658032,0.01388996,-1.50377,-3.080489,-1.653075,-0.07379213,0.03062105,0.03242858,-1.014259,-2.781853,1.485577
0,1.76667,72,260,500,494,-0.003386465,-0.05192513,0.009671474,-1.503851,-3.079857,-1.653105,-0.07687636,0.03383785,0.04202593,-1.013918,-2.780866,1.485795
0,1.777781,72,260,500,494,-0.005533194,-0.05085263,0.009660637,-1.50399,-3.079516,-1.652807,-0.07686012,0.03170483,0.04415403,-1.0134,-2.780452,1.486426
0,1.788892,72,260,500,494,-0.0129999,-0.04875347,0.008565772,-1.50408,-3.079015,-1.652422,-0.07572834,0.02102432,0.05271949,-1.011638,-2.780629,1.48721
0,1.800003,73,220,499,503,-0.01726441,-0.04664994,0.007472722,-1.504096,-3.078453,-1.65218,-0.07044262,0.0146438,0.05053277,-1.01116,-2.780266,1.48777
0,1.811115,73,220,499,503,-0.02154496,-0.04132565,0.009565655,-1.504397,-3.078128,-1.651869,-0.06202203,0.01463987,0.03979916,-1.011031,-2.780057,1.488116
0,1.822226,73,220,499,503,-0.03116661,-0.03176146,0.01054379,-1.504506,-3.07801,-1.65127,-0.05566518,0.007164292,0.03978921,-1.009717,-2.780143,1.488945
0,1.833337,73,220,499,503,-0.04825033,-0.02114038,0.0136364,-1.504729,-3.07808,-1.650277,-0.04709633,-0.005643673,0.04715059,-1.008975,-2.780548,1.489459
0,1.844448,73,220,499,503,-0.04613411,-0.01580989,0.01253819,-1.504838,-3.078099,-1.649864,-0.04386359,-0.008832168,0.05032009,-1.008234,-2.780371,1.489612
0,1.855559,72,230,498,497,-0.03442503,-0.01573597,0.01788439,-1.505202,-3.077955,-1.649803,-0.04163371,-0.004585877,0.05989178,-1.007315,-2.780193,1.489915
0,1.86667,72,230,498,497,-0.0195184,-0.01567048,0.02110251,-1.505484,-3.077718,-1.649987,-0.04280638,0.008179847,0.04716505,-1.006684,-2.78019,1.49058
0,1.877781,72,230,498,497,-0.01843768,-0.01887838,0.01899804,-1.505662,-3.077447,-1.649818,-0.04074324,0.01668304,0.03863708,-1.006421,-2.780099,1.490953
0,1.888893,72,230,498,497,-0.01627717,-0.0242281,0.01371111,-1.505679,-3.077124,-1.649744,-0.04075709,0.01882684,0.03544204,-1.006131,-2.779621,1.49098
0,1.900004,71,239,499,489,-0.01413416,-0.02953903,0.0137436,-1.505772,-3.076794,-1.649602,-0.03653938,0.03053702,0.02898015,-1.006644,-2.779019,1.491024
0,1.911115,71,239,499,489,-0.01198588,-0.03170738,0.007370481,-1.505724,-3.076375,-1.649552,-0.03440774,0.03266109,0.02897846,-1.006112,-2.778531,1.49113
0,1.922226,71,239,499,489,-0.009853318,-0.03061741,0.007370297,-1.505863,-3.076344,-1.649572,-0.03228308,0.02518826,0.03004544,-1.005288,-2.778567,1.491484
0,1.933337,71,239,499,489,-0.0119915,-0.02533494,0.002003162,-1.505746,-3.076185,-1.649386,-0.02267928,0.01238199,0.03420086,-1.004771,-2.778728,1.49156
0,1.944448,71,239,499,489,-0.01415566,-0.01787359,0.0030188,-1.50592,-3.076271,-1.649033,-0.02163008,-0.001493338,0.03524469,-1.004233,-2.779499,1.492207
0,1.955559,71,209,499,502,-0.01421403,-0.0008172318,0.003972194,-1.506046,-3.07678,-1.648786,-0.01733882,-0.0175125,0.0415848,-1.003433,-2.780557,1.492872
0,1.966671,71,209,499,502,-0.01532223,0.01196594,0.004948036,-1.506104,-3.077176,-1.648565,-0.01740061,-0.02176587,0.03841164,-1.002689,-2.780803,1.493535
0,1.977782,71,209,499,502,-0.01964116,0.02794361,0.005893369,-1.506112,-3.077929,-1.648092,-0.01419847,-0.01327396,0.03736127,-1.001774,-2.781024,1.493722
0,1.988893,71,209,499,502,-0.02071456,0.03218385,0.003735572,-1.50612,-3.078367,-1.647828,-0.008878581,-0.01541432,0.04053205,-1.000836,-2.781151,1.494226
0,2.000004,71,230,499,492,-0.0228705,0.03647259,0.006893765,-1.506185,-3.079049,-1.647381,-0.006718893,-0.01755753,0.04157821,-1.000257,-2.781541,1.494135
0,2.011115,71,230,499,492,-0.02926318,0.03330123,0.01329678,-1.506471,-3.079381,-1.646892,-0.003486276,-0.02502653,0.04686571,-0.9995749,-2.782039,1.494355
0,2.022226,71,230,499,492,-0.03564553,0.030073,0.01224435,-1.506565,-3.079562,-1.646302,-0.003499256,-0.02290121,0.04795925,-0.9986321,-2.782248,1.494912
0,2.033337,71,230,499,492,-0.03453115,0.01620568,0.009146981,-1.506606,-3.079381,-1.64595,-0.01093307,-0.02076722,0.0501423,-0.998287,-2.782558,1.49541
0,2.044448,71,230,499,492,-0.0334243,0.004469811,0.006032518,-1.506592,-3.079147,-1.645653,-0.01206728,-0.01969381,0.04377171,-0.9978215,-2.782781,1.495841
0,2.055559,71,222,499,495,-0.02487803,-0.001906815,0.00502672,-1.506668,-3.078897,-1.645663,-0.01107381,-0.02501852,0.03732569,-0.9980926,-2.783371,1.496266
0,2.06667,71,222,499,495,-0.02166445,-0.007237772,0.002941133,-1.506702,-3.078705,-1.64547,0.0005076285,-0.03461699,0.02869667,-0.9977086,-2.784076,1.496846
0,2.077781,71,222,499,495,-0.01846253,-0.007234684,0.002946817,-1.506749,-3.078543,-1.645422,0.00477806,-0.04208768,0.02655234,-0.9968792,-2.784895,1.496529
0,2.088892,71,222,499,495,-0.01741565,-0.0008444437,0.001840582,-1.506783,-3.078765,-1.645229,0.007955465,-0.04102592,0.02439255,-0.9966481,-2.785391,1.496628
0,2.100003,71,222,499,495,-0.01638257,0.004498897,0.003930057,-1.50679,-3.078922,-1.644898,0.004848406,-0.03462111,0.02864435,-0.9968606,-2.785454,1.496186
0,2.111114,69,209,499,498,-0.01425987,0.008744444,0.0007081325,-1.50669,-3.079124,-1.644768,-0.001559707,-0.02182076,0.02445871,-0.9966912,-2.785315,1.496295
0,2.122225,69,209,499,498,-0.01213628,0.01086785,-0.000368661,-1.506655,-3.079201,-1.644642,-0.001580553,-0.01117062,0.01811623,-0.9961383,-2.78529,1.496008
0,2.133336,69,209,499,498,-0.008949807,0.01617456,-0.004661479,-1.506455,-3.079525,-1.64461,0.000486955,-0.01223263,0.01170322,-0.9961602,-2.785486,1.496053
0,2.144447,69,209,499,498,-0.006820884,0.01618755,-0.004663644,-1.506322,-3.079761,-1.644548,0.0047251,-0.004782462,0.008436361,-0.9967067,-2.785432,1.495949
0,2.155558,70,239,500,503,-0.003636987,0.02150463,-0.007885583,-1.506177,-3.080199,-1.644539,0.006902472,-0.01758738,0.01585156,-0.9963493,-2.786206,1.496232
0,2.166669,70,239,500,503,-0.001514593,0.02682283,-0.01111745,-1.505914,-3.080733,-1.644575,0.004682621,-0.03248003,0.008402161,-0.9963408,-2.786957,1.496534
0,2.17778,70,239,500,503,-0.0004810384,0.03535614,-0.01011831,-1.50568,-3.081309,-1.64452,0.01101772,-0.03993846,0.004037898,-0.9968532,-2.787643,1.496638
0,2.188891,70,239,500,503,-0.001552843,0.03853374,-0.01227285,-1.505463,-3.081798,-1.644442,0.01636991,-0.04101548,0.006130156,-0.9964857,-2.788172,1.496463
0,2.200002,70,239,500,503,0.001649163,0.03643024,-0.009049537,-1.505519,-3.08206,-1.644608,0.01309564,-0.03355115,-0.003462156,-0.9973416,-2.788619,1.496672
0,2.211113,70,196,499,500,-0.0004690783,0.03427066,-0.01223421,-1.505279,-3.082362,-1.644537,0.01301603,-0.02182078,-0.01410151,-0.9977799,-2.788586,1.496504
0,2.222224,70,196,499,500,0.003789756,0.03534487,-0.01223369,-1.505152,-3.082721,-1.644676,0.01409998,-0.01539657,-0.0140963,-0.9978194,-2.788019,1.495909
0,2.233335,70,196,499,500,0.005906509,0.03751177,-0.007984065,-1.505136,-3.0832,-1.64474,0.01205034,-0.003679514,-0.007714943,-0.9983796,-2.787676,1.495682
0,2.244446,70,196,499,500,0.005900191,0.04179471,-0.004802939,-1.505328,-3.083814,-1.644929,0.009965847,-0.001534109,-0.004494173,-0.9983221,-2.787395,1.495315
0,2.255557,70,225,499,497,0.003755961,0.04604911,-0.004836078,-1.505243,-3.084433,-1.644882,0.00792901,-0.0004754905,0.005115739,-0.9979972,-2.787319,1.495221
0,2.266668,70,225,499,497,0.004833566,0.04180777,-0.002673123,-1.505264,-3.08479,-1.644954,0.007905875,0.002739129,0.0008561891,-0.9981746,-2.786972,1.494788
0,2.277779,70,225,499,497,0.002730208,0.03222441,-0.001547002,-1.505253,-3.084943,-1.644921,0.003630238,0.009143301,-0.002332218,-0.9988729,-2.786734,1.49468
0,2.28889,70,225,499,497,0.0006551573,0.01516599,-0.002497047,-1.505208,-3.084654,-1.644875,-0.0006267095,0.01128192,-0.002289113,-0.998907,-2.786517,1.494671
0,2.300001,70,225,499,497,0.000690632,0.002387205,-0.001350667,-1.505122,-3.08433,-1.644873,-0.002688554,0.01980756,0.003075677,-0.9986305,-2.785832,1.494364
0,2.311112,70,218,498,502,-0.006705883,-0.01576067,-0.003367424,-1.505065,-3.083626,-1.644651,-0.01636167,0.03474605,0.01708112,-0.9979962,-2.784565,1.494041
0,2.322223,70,218,498,502,-0.006660914,-0.02960174,-0.003264165,-1.505168,-3.083055,-1.644643,-0.01520979,0.04432442,0.023488,-0.9974449,-2.783669,1.493567
0,2.333334,70,218,498,502,-0.01511318,-0.05199914,-0.003122276,-1.505219,-3.08182,-1.644321,-0.01622839,0.05284508,0.0267036,-0.9971264,-2.782654,1.493204
0,2.344445,70,218,498,502,-0.02891977,-0.06479139,0.001200458,-1.505352,-3.080878,-1.643862,-0.01506092,0.04431093,0.03735999,-0.9961181,-2.782246,1.49287
0,2.355556,72,178,498,497,-0.03530296,-0.0680001,0.002276821,-1.505462,-3.080042,-1.643354,-0.006603701,0.02086086,0.03512142,-0.9957597,-2.782731,1.492968
0,2.366668,72,178,498,497,-0.04917419,-0.06057033,0.005400275,-1.505696,-3.07957,-1.642582,0.01993541,-0.03884035,0.0379618,-0.9955679,-2.784998,1.493405
0,2.377779,72,178,498,497,-0.06198196,-0.05315288,0.005327348,-1.505764,-3.079202,-1.641528,0.03488249,-0.06340396,0.04631173,-0.9947125,-2.786902,1.493673
0,2.38889,72,178,498,497,-0.07481959,-0.0340232,0.00303933,-1.505663,-3.07945,-1.640357,0.05297678,-0.08899713,0.05144794,-0.9937575,-2.788557,1.493764
0,2.400001,72,178,498,497,-0.08337969,-0.0180759,0.001820582,-1.505637,-3.079354,-1.639576,0.06256057,-0.09223174,0.05238332,-0.9935487,-2.790157,1.493784
0,2.411112,74,215,499,495,-0.08446844,-0.00851642,-0.001418455,-1.505528,-3.079797,-1.638443,0.0678439,-0.06666264,0.04279774,-0.9930193,-2.790096,1.492858
0,2.422223,74,215,499,495,-0.08774142,0.01701954,-0.003732756,-1.505401,-3.080531,-1.637349,0.06987777,-0.05279709,0.03109566,-0.9926832,-2.790223,1.492295
0,2.433334,74,215,499,495,-0.08461528,0.04150049,-0.008159248,-1.505122,-3.081611,-1.636423,0.06865562,-0.04425228,0.0130061,-0.993023,-2.790528,1.491728
0,2.444445,74,215,499,495,-0.08257817,0.07135918,-0.004096703,-1.505203,-3.083036,-1.635571,0.07375932,-0.06341437,-0.007335432,-0.9938976,-2.792125,1.491535
0,2.455556,74,215,499,495,-0.07944848,0.08951575,0.001108754,-1.505258,-3.084533,-1.634674,0.08103287,-0.07938966,-0.02340343,-0.9945016,-2.793799,1.491329
0,2.466667,73,186,499,501,-0.07100828,0.1151373,0.00520028,-1.505219,-3.086402,-1.634077,0.08282643,-0.1038482,-0.05431924,-0.9954172,-2.795918,1.491461
0,2.477778,73,186,499,501,-0.06467032,0.1301011,0.009367677,-1.505333,-3.088299,-1.633416,0.08170977,-0.097427,-0.06072471,-0.9966241,-2.796755,1.491059
0,2.488889,73,186,499,501,-0.04764714,0.1301681,0.01152224,-1.505354,-3.089653,-1.632989,0.08186345,-0.0739942,-0.05004394,-0.9967887,-2.796797,1.49007
0,2.5,73,186,499,501,-0.04229152,0.1227326,0.01158014,-1.505373,-3.09084,-1.632635,0.0681937,-0.0377202,-0.03926096,-0.9975775,-2.795567,1.488906
0,2.511111,70,187,499,502,-0.02411915,0.1046578,0.008541651,-1.50535,-3.091531,-1.632838,0.06713621,-0.01214623,-0.04348285,-0.9981815,-2.795002,1.487891
0,2.522222,70,187,499,502,-0.004880354,0.08337843,0.003385737,-1.505075,-3.091954,-1.633025,0.06390244,0.0006666481,-0.04987127,-0.9995541,-2.794572,1.487016
0,2.533333,70,187,499,502,0.01437808,0.0568072,0.003604878,-1.505145,-3.091856,-1.633707,0.05430897,0.01347199,-0.05296075,-1.000268,-2.794021,1.486375
0,2.544444,70,187,499,502,0.03150532,0.03233571,-0.0004391803,-1.505268,-3.091754,-1.634407,0.05119605,0.01666777,-0.04652226,-1.000399,-2.793799,1.485559
0,2.555555,70,187,499,502,0.04539071,0.02066183,-0.0003335543,-1.505277,-3.091666,-1.635302,0.05018382,0.01772895,-0.0411846,-1.000714,-2.793562,1.484899
0,2.566666,70,171,498,504,0.06781153,0.004746526,-0.001250515,-1.505258,-3.091355,-1.636592,0.05780199,0.04221274,-0.03057522,-1.000874,-2.792177,1.483088
0,2.577777,70,171,498,504,0.08060569,-0.002640265,0.002020285,-1.505381,-3.091252,-1.637697,0.04293433,0.0795335,-0.03357807,-1.0014,-2.790043,1.481715
0,2.588888,70,171,498,504,0.09556397,-0.01859334,2.115592E-05,-1.50528,-3.090608,-1.638987,0.03769592,0.1008478,-0.02816086,-1.001538,-2.788081,1.480466
0,2.599999,70,171,498,504,0.1020161,-0.03348846,-0.0009217919,-1.505371,-3.089972,-1.640479,0.02825845,0.1328623,-0.02060991,-1.002316,-2.78469,1.478274
0,2.61111,69,191,499,498,0.1074198,-0.05376089,-0.008228783,-1.505188,-3.088794,-1.64192,0.02523252,0.1381768,-0.004580781,-1.001883,-2.782647,1.476866
0,2.622221,69,191,499,498,0.1074954,-0.07297859,-0.0134277,-1.504964,-3.087366,-1.643298,0.02642111,0.1296627,0.002914608,-1.001004,-2.780895,1.474589
0,2.633332,69,191,499,498,0.108574,-0.07829653,-0.01232213,-1.50492,-3.086329,-1.64458,0.02963588,0.1126058,0.008190826,-1.00082,-2.779952,1.47367
0,2.644443,69,191,499,498,0.1021835,-0.07410491,-0.01982329,-1.504504,-3.085657,-1.645608,0.02639218,0.105124,0.003977111,-1.000615,-2.779364,1.473042
0,2.655554,69,191,499,498,0.09575237,-0.0603194,-0.02632973,-1.503985,-3.085317,-1.646418,0.01570866,0.09872761,0.001955349,-1.000524,-2.778687,1.472775
0,2.666665,68,153,499,501,0.08611208,-0.0443699,-0.0264533,-1.50379,-3.085199,-1.647113,0.01252559,0.09234913,0.003041524,-1.000592,-2.777522,1.47188
0,2.677776,68,153,499,501,0.06794672,-0.02419365,-0.0266206,-1.503533,-3.085357,-1.647507,0.008333161,0.08490473,0.009470873,-1.000309,-2.77641,1.470973
0,2.688887,68,153,499,501,0.04975428,0.001323408,-0.02575858,-1.503302,-3.085989,-1.647572,0.00936643,0.06785805,0.009441413,-1.000226,-2.776055,1.470662
0,2.699998,68,153,499,501,0.03906107,0.0151336,-0.02587477,-1.50295,-3.086418,-1.647746,0.01456867,0.04975221,-0.0002829917,-1.001435,-2.776029,1.470344
0,2.711109,68,153,499,501,0.02516096,0.03213898,-0.02601835,-1.50257,-3.087242,-1.647647,0.01662884,0.0231183,-0.00246376,-1.001499,-2.776526,1.470366
0,2.72222,68,145,498,505,0.01342418,0.03958112,-0.02289386,-1.502347,-3.087841,-1.647631,0.01550566,0.01140861,-0.003564733,-1.001991,-2.776624,1.470657
0,2.733331,68,145,498,505,0.00596961,0.04166297,-0.02611865,-1.501918,-3.088256,-1.647547,0.009114902,-0.004562536,-0.0003255176,-1.00183,-2.777204,1.47105
0,2.744442,68,145,498,505,-0.0057409,0.03952534,-0.02293204,-1.50162,-3.088702,-1.647276,0.003732672,-0.009893822,-0.002456856,-1.002524,-2.777794,1.471834
0,2.755553,68,145,498,505,-0.01319972,0.04056662,-0.02294938,-1.501342,-3.089145,-1.646946,0.005862687,-0.01520487,-0.001415047,-1.002464,-2.777806,1.471722
0,2.766664,70,248,499,498,-0.02280321,0.0427116,-0.01659068,-1.501246,-3.089669,-1.646483,0.009061408,-0.01199153,-0.006768843,-1.00271,-2.777596,1.470732
0,2.777775,70,248,499,498,-0.02708863,0.04595212,-0.008097069,-1.501374,-3.090266,-1.646058,0.008953189,-0.01415175,-0.01742803,-1.003182,-2.778604,1.471198
0,2.788886,70,248,499,498,-0.03562872,0.04811831,0.0003937935,-1.501475,-3.0909,-1.645456,0.005803144,-0.02799464,-0.009934376,-1.002714,-2.779213,1.471562
0,2.799997,70,248,499,498,-0.03884982,0.05134355,0.005687379,-1.501556,-3.091599,-1.644811,0.003654005,-0.05784373,-0.001474901,-1.003039,-2.781171,1.473268
0,2.811108,70,248,499,498,-0.04419727,0.0545771,0.01311103,-1.501811,-3.092358,-1.644164,0.003624141,-0.07382315,-0.00149253,-1.00294,-2.782639,1.474018
0,2.822219,69,218,498,491,-0.04955021,0.06101266,0.02158626,-1.502289,-3.093258,-1.643525,0.002586141,-0.08019235,-0.001509935,-1.003193,-2.783495,1.473913
0,2.83333,69,218,498,491,-0.0580708,0.05992506,0.0226451,-1.502527,-3.093857,-1.642652,-0.002731569,-0.0865766,0.0006646132,-1.003012,-2.784827,1.474811
0,2.844441,69,218,498,491,-0.06446825,0.05674845,0.02798154,-1.502897,-3.094401,-1.641542,0.001553874,-0.1025535,0.004928059,-1.001835,-2.786275,1.475254
0,2.855552,69,218,498,491,-0.0719343,0.05885303,0.03007385,-1.503089,-3.094918,-1.640619,0.005685978,-0.1110948,-0.006827656,-1.001859,-2.788429,1.47624
0,2.866663,70,249,499,497,-0.06980573,0.05883386,0.02688405,-1.503289,-3.095562,-1.639787,0.003417984,-0.1067937,-0.02170941,-1.00235,-2.789401,1.47684
0,2.877774,70,249,499,497,-0.06767983,0.06308664,0.02578891,-1.503454,-3.096259,-1.639096,-0.004186206,-0.0833095,-0.04288453,-1.002881,-2.789669,1.477072
0,2.888885,70,249,499,497,-0.06877361,0.06735165,0.02788934,-1.503807,-3.097046,-1.638089,-0.01156602,-0.06945283,-0.03747144,-1.00314,-2.790211,1.477661
0,2.899997,70,249,499,497,-0.06665325,0.06950397,0.03000854,-1.504145,-3.097908,-1.637354,-0.01041268,-0.06093237,-0.02785144,-1.002668,-2.790598,1.478229
0,2.911108,70,249,499,497,-0.06240163,0.07381704,0.03531409,-1.504627,-3.098925,-1.636896,-0.008251227,-0.06626748,-0.02361668,-1.002739,-2.791634,1.478833
0,2.922219,70,218,499,507,-0.05920445,0.07277918,0.03745713,-1.505025,-3.099756,-1.636261,-0.006246619,-0.07372561,-0.03104506,-1.002413,-2.792925,1.480132
0,2.93333,70,218,499,507,-0.05175462,0.07386181,0.03533369,-1.505333,-3.100774,-1.635736,-0.008444369,-0.07691058,-0.03741953,-1.002898,-2.794107,1.48091
0,2.944441,70,218,499,507,-0.04108349,0.06109819,0.03543635,-1.505631,-3.100946,-1.635219,-0.01818558,-0.07371554,-0.05325797,-1.003198,-2.795607,1.482297
0,2.955552,70,218,499,507,-0.03036161,0.04719761,0.02489704,-1.505626,-3.100978,-1.635231,-0.02570136,-0.04925421,-0.0626653,-1.002858,-2.796595,1.483496
0,2.966663,71,232,499,496,-0.02393598,0.03760228,0.02071863,-1.505802,-3.101218,-1.635032,-0.02991471,-0.02900692,-0.0615377,-1.003543,-2.796393,1.483842
0,2.977774,71,232,499,496,-0.01961217,0.02263991,0.01230344,-1.50566,-3.101047,-1.634947,-0.02656655,-0.01840061,-0.04769357,-1.003458,-2.796736,1.484222
0,2.988885,71,232,499,496,-0.01213576,0.01625445,0.01023327,-1.505802,-3.101082,-1.634925,-0.02741325,-0.01842634,-0.01997775,-1.002749,-2.796966,1.48533
0,2.999996,71,232,499,496,-0.01000625,0.01731819,0.009162726,-1.505849,-3.101304,-1.634844,-0.0273906,-0.03016345,-0.01570891,-1.002484,-2.797966,1.48613
0,3.011107,71,232,499,496,-0.006815667,0.01841754,0.01129087,-1.50599,-3.101709,-1.63484,-0.0273906,-0.03016345,-0.01570891,-1.002625,-2.798379,1.486661
0,3.022218,69,255,499,493,-0.007907121,0.0280067,0.01121497,-1.505996,-3.102343,-1.634738,-0.02320659,-0.03123005,-0.01999586,-1.00272,-2.798761,1.487487
0,3.033329,69,255,499,493,-0.007920104,0.03331389,0.006924463,-1.506027,-3.103001,-1.63454,-0.01576713,-0.01847981,-0.024265,-1.002391,-2.798968,1.487584
0,3.04444,69,255,499,493,-0.006851121,0.03226404,0.007997072,-1.506105,-3.103387,-1.634503,-0.01043053,-0.01742429,-0.0211098,-1.002375,-2.799114,1.487976
0,3.055551,69,255,499,493,-0.008981423,0.03437635,0.006916151,-1.506183,-3.103774,-1.634397,-0.00294245,-0.01639882,-0.01797616,-1.002332,-2.799679,1.488136
0,3.066662,69,255,499,493,-0.01110468,0.03432551,0.0005219908,-1.506008,-3.104165,-1.634151,0.005542548,-0.02067808,-0.01592109,-1.002281,-2.800083,1.488755
0,3.077773,70,256,499,491,-0.01217129,0.03537943,-0.000555631,-1.505905,-3.104599,-1.633961,0.008720954,-0.01961517,-0.01805969,-1.00221,-2.800273,1.488655
0,3.088884,70,256,499,491,-0.01430481,0.03642727,-0.002698421,-1.505797,-3.10508,-1.633694,0.01081195,-0.02174662,-0.01914363,-1.002377,-2.80058,1.488999
0,3.099995,70,256,499,491,-0.01111467,0.03540252,0.001574042,-1.505887,-3.105453,-1.633603,0.009748893,-0.01964646,-0.01912358,-1.002431,-2.801317,1.489346
0,3.111106,70,256,499,491,-0.01322154,0.03005275,-0.001592703,-1.505693,-3.105725,-1.633398,0.009719152,-0.02391768,-0.01804884,-1.002369,-2.801913,1.490033
0,3.122217,70,232,499,500,-0.01109991,0.03219915,0.0005216867,-1.505671,-3.106052,-1.633349,0.0161457,-0.02714129,-0.01384429,-1.002233,-2.80257,1.490035
0,3.133328,70,232,499,500,-0.0111042,0.03433584,0.001575037,-1.505725,-3.106462,-1.633266,0.02359024,-0.02930411,-0.0149524,-1.001971,-2.803315,1.489959
0,3.144439,70,232,499,500,-0.01112864,0.04071116,0.0004679557,-1.505665,-3.10688,-1.633038,0.02463685,-0.03783208,-0.01283107,-1.001875,-2.804096,1.490414
0,3.15555,70,232,499,500,-0.0100847,0.04710462,0.0004242838,-1.505639,-3.107622,-1.632859,0.02778406,-0.0474291,-0.01606143,-1.002009,-2.80516,1.490597
0,3.166661,70,232,499,500,-0.0122603,0.05774872,0.001416032,-1.505723,-3.108423,-1.632478,0.02566495,-0.05702057,-0.0117933,-1.001986,-2.806296,1.491138
0,3.177772,70,229,499,499,-0.006957121,0.06100406,0.006733554,-1.505966,-3.109285,-1.632448,0.02574611,-0.05172173,-0.004324527,-1.001667,-2.807101,1.491313
0,3.188883,70,229,499,499,-0.005880107,0.05992637,0.003545525,-1.505863,-3.109989,-1.632413,0.02151318,-0.04213744,-0.002135268,-1.001521,-2.807476,1.491532
0,3.199994,70,229,499,499,-0.003732864,0.05566522,0.002515257,-1.505852,-3.110501,-1.632396,0.02578091,-0.03896217,-0.002146797,-1.001126,-2.808051,1.491439
0,3.211105,70,229,499,499,-0.005863676,0.05459461,0.002510745,-1.505741,-3.111098,-1.632195,0.03109404,-0.04219189,-3.59274E-05,-1.000515,-2.809063,1.491885
0,3.222216,72,223,498,495,-0.003719257,0.05351803,0.0003942,-1.505709,-3.111627,-1.63227,0.03847964,-0.04646504,-0.006515621,-1.000885,-2.809925,1.491753
0,3.233327,72,223,498,495,0.001601162,0.05460651,0.001454159,-1.505619,-3.112257,-1.632345,0.0426194,-0.04857965,-0.01927698,-1.000533,-2.810448,1.49139
0,3.244438,72,223,498,495,0.001586804,0.05887881,0.002487897,-1.505584,-3.113078,-1.632333,0.03197041,-0.04750213,-0.01704524,-1.000655,-2.811127,1.491971
0,3.255549,72,223,498,495,0.003737068,0.05884508,-0.003887681,-1.505488,-3.113785,-1.632476,0.01828471,-0.03259046,-0.002983724,-0.9993927,-2.811229,1.492146
0,3.26666,72,223,498,495,0.003765536,0.04926756,-0.002755016,-1.505489,-3.114093,-1.632522,0.01511285,-0.0240876,0.003472642,-0.9988239,-2.811555,1.492964
0,3.277771,73,251,498,500,0.0006259182,0.03751956,-0.004814199,-1.505308,-3.114126,-1.632672,0.01524853,-0.01879603,0.01630668,-0.9976516,-2.811894,1.492947
0,3.288882,73,251,498,500,-0.003627641,0.03537045,-0.005872119,-1.505217,-3.114496,-1.632499,0.01945241,-0.03053486,0.02052106,-0.9972255,-2.812815,1.494175
0,3.299993,73,251,498,500,-0.003609414,0.02790512,-0.005825341,-1.505089,-3.114521,-1.632391,0.02371072,-0.04441576,0.02265343,-0.9960441,-2.814148,1.494505
0,3.311104,73,251,498,500,-0.008949589,0.03319934,-0.008000227,-1.504934,-3.115037,-1.632073,0.02682411,-0.06147582,0.02687558,-0.9954747,-2.815566,1.496205
0,3.322215,75,224,497,499,-0.01111513,0.04809082,-0.0102422,-1.504677,-3.115987,-1.631943,0.02251652,-0.07109424,0.02586051,-0.9946619,-2.817102,1.496824
0,3.333326,75,224,497,499,-0.01539007,0.05128393,-0.010266,-1.504606,-3.116734,-1.631585,0.009716153,-0.07216939,0.023915,-0.9936424,-2.818882,1.49832
0,3.344437,75,224,497,499,-0.01753239,0.05764888,-0.01351149,-1.504304,-3.117535,-1.63131,0.004260504,-0.05513704,0.01440933,-0.9935141,-2.819577,1.499739
0,3.355548,75,224,497,499,-0.01646575,0.05976134,-0.01884823,-1.503933,-3.118466,-1.631076,0.009558223,-0.04236156,0.009052891,-0.9934235,-2.819794,1.499632
0,3.366659,75,224,497,499,-0.01965478,0.05972379,-0.0231148,-1.503525,-3.119123,-1.63072,0.01173685,-0.03282202,0.01758587,-0.992648,-2.820551,1.500563
0,3.37777,75,237,498,494,-0.01751452,0.05756667,-0.02842711,-1.502963,-3.119721,-1.630463,0.01069193,-0.03175884,0.01970995,-0.9925926,-2.820977,1.500734
0,3.388881,75,237,498,494,-0.01752382,0.05971378,-0.02631331,-1.50266,-3.120434,-1.630244,0.009649174,-0.03710049,0.02503142,-0.9922954,-2.821875,1.501416
0,3.399992,75,237,498,494,-0.01963381,0.0512054,-0.02413216,-1.502356,-3.120849,-1.629902,0.007513572,-0.04026929,0.02402453,-0.9914592,-2.822095,1.501375
0,3.411103,75,237,498,494,-0.02067118,0.04372452,-0.02727408,-1.50201,-3.12113,-1.629638,0.002124145,-0.03494571,0.01768526,-0.9914864,-2.822694,1.501998
0,3.422215,75,237,498,494,-0.02381792,0.02773905,-0.02503604,-1.501826,-3.120845,-1.629323,-0.005308464,-0.02642946,0.0188427,-0.9910682,-2.823032,1.50245
0,3.433326,74,228,499,503,-0.02376755,0.008535471,-0.0291646,-1.501396,-3.120441,-1.628838,-0.006308356,-0.02430071,0.0252469,-0.9905792,-2.823238,1.502664
0,3.444437,74,228,499,503,-0.02798643,-0.005315541,-0.02800919,-1.501149,-3.120091,-1.628445,-0.009487803,-0.01790874,0.02311984,-0.9908461,-2.823452,1.50259
0,3.455548,74,228,499,503,-0.02796912,-0.007477056,-0.03119362,-1.500686,-3.119838,-1.628232,-0.00529237,-0.02323696,0.01674545,-0.9898943,-2.823878,1.502707
0,3.466659,74,228,499,503,-0.02372648,-0.003176936,-0.02802369,-1.5004,-3.119948,-1.628079,-0.001073214,-0.02538623,0.01457879,-0.9897159,-2.824519,1.503198
0,3.47777,73,219,498,497,-0.02377134,0.007487253,-0.02704149,-1.5,-3.120322,-1.627661,-0.002201823,-0.02537428,0.00818505,-0.9899439,-2.824786,1.503418
0,3.488881,73,219,498,497,-0.01635316,0.01503341,-0.01749346,-1.500033,-3.120662,-1.627645,-0.01925219,-0.03068961,0.009386573,-0.9900898,-2.825693,1.504669
0,3.499992,73,219,498,497,-0.01212238,0.02465776,-0.0143471,-1.500077,-3.121206,-1.627658,-0.0330384,-0.02428078,0.01485272,-0.98975,-2.825851,1.505512
0,3.511103,73,219,498,497,-0.009962684,0.0129858,-0.008936702,-1.500096,-3.121077,-1.627643,-0.04773613,0.00767196,0.03206885,-0.9889771,-2.824868,1.505991
0,3.522214,73,219,498,497,-0.0130952,-0.008343355,-0.009849674,-1.500114,-3.12025,-1.627366,-0.05400003,0.04601204,0.03965531,-0.9879726,-2.8231,1.505977
0,3.533325,71,254,498,484,-0.02459988,-0.07551765,-0.01471851,-1.500055,-3.117793,-1.626883,-0.07300963,0.08970201,0.04945628,-0.9874644,-2.820716,1.506077
0,3.544436,71,254,498,484,-0.04792396,-0.1075847,-0.01986466,-1.49976,-3.115775,-1.625925,-0.07728957,0.09928916,0.04627659,-0.9876248,-2.819336,1.506354
0,3.555547,71,254,498,484,-0.1020615,-0.1632435,-0.03129001,-1.499298,-3.112401,-1.6235,-0.0806605,0.08015643,0.03355339,-0.9869116,-2.818461,1.507074
0,3.566658,71,254,498,484,-0.09666579,-0.1813895,-0.03860559,-1.498886,-3.109922,-1.622791,-0.07222063,0.06415909,0.02811714,-0.9869515,-2.818211,1.507537
0,3.577769,72,222,498,496,-0.07644537,-0.1760033,-0.04073238,-1.498563,-3.108318,-1.622556,-0.06690781,0.04177291,0.03023569,-0.985654,-2.818313,1.508056
0,3.58888,72,222,498,496,-0.07649012,-0.1642552,-0.03654738,-1.498446,-3.106811,-1.621825,-0.07546277,0.03539424,0.02816778,-0.9856034,-2.818092,1.509021
0,3.599991,72,222,498,496,-0.08289179,-0.1568522,-0.04086973,-1.498005,-3.105169,-1.620895,-0.08929005,0.04184365,0.02509731,-0.9856892,-2.816775,1.509085
0,3.611102,72,222,498,496,-0.09780754,-0.1558376,-0.04196618,-1.497611,-3.103467,-1.619518,-0.1062927,0.05465248,0.02739512,-0.9854788,-2.815654,1.510149
0,3.622213,72,222,498,496,-0.1116654,-0.1569135,-0.03665891,-1.497408,-3.101624,-1.618024,-0.1082873,0.07382208,0.03592393,-0.9853936,-2.814101,1.510223
0,3.633324,72,281,498,497,-0.1213004,-0.1483925,-0.02928285,-1.497286,-3.099819,-1.61646,-0.09871554,0.08874214,0.03156492,-0.9855411,-2.812161,1.510039
0,3.644435,72,281,498,497,-0.1287974,-0.1387808,-0.02297122,-1.49723,-3.098559,-1.614974,-0.09665079,0.0823396,0.02618683,-0.98576,-2.811478,1.510753
0,3.655546,72,281,498,497,-0.135253,-0.1238471,-0.01776227,-1.49716,-3.097557,-1.613298,-0.09132157,0.05569457,0.03143088,-0.9853147,-2.811443,1.511613
0,3.666657,72,281,498,497,-0.1374332,-0.1089216,-0.01574769,-1.496948,-3.096743,-1.611807,-0.08710864,0.03650481,0.03029272,-0.9851699,-2.811654,1.512617
0,3.677768,72,216,498,506,-0.1385452,-0.09613171,-0.01370475,-1.49691,-3.095906,-1.610264,-0.08387181,0.01412503,0.03876092,-0.9845243,-2.811987,1.513634
0,3.688879,72,216,498,506,-0.1386106,-0.07377671,-0.0159895,-1.496716,-3.095605,-1.608758,-0.07965945,0.004530288,0.03550617,-0.9843081,-2.812232,1.514549
0,3.69999,72,216,498,506,-0.136529,-0.06095621,-0.01181569,-1.496698,-3.095247,-1.607317,-0.07542472,0.01091862,0.02691768,-0.9846969,-2.811965,1.514542
0,3.711101,72,216,498,506,-0.131252,-0.04495829,-0.0119254,-1.496479,-3.095181,-1.606032,-0.07227843,0.01731087,0.0205018,-0.9846522,-2.811523,1.515016
0,3.722212,72,216,498,506,-0.1248801,-0.03854002,-0.00982753,-1.496465,-3.094759,-1.604886,-0.07767127,0.03118075,0.009886861,-0.9852343,-2.810691,1.515445
0,3.733323,72,233,498,497,-0.1142411,-0.03529188,-0.00664139,-1.496397,-3.094402,-1.603943,-0.08296658,0.04298701,0.001327239,-0.986967,-2.808757,1.514161
0,3.744434,72,233,498,497,-0.1110218,-0.04168699,-0.008720998,-1.496269,-3.093768,-1.602836,-0.08079663,0.04936387,0.004498607,-0.9870064,-2.80804,1.514669
0,3.755545,72,233,498,497,-0.09924421,-0.05972367,-0.003244792,-1.496448,-3.092631,-1.602301,-0.0774997,0.04832706,0.0129615,-0.9870921,-2.80675,1.51442
0,3.766656,72,233,498,497,-0.09382101,-0.08742949,-0.007306276,-1.496261,-3.090963,-1.601569,-0.07107172,0.03339474,0.02031891,-0.9869941,-2.806768,1.515175
0,3.777767,72,233,498,497,-0.08203501,-0.1097699,-0.008196708,-1.496154,-3.089208,-1.60102,-0.06667618,0.02599339,0.0137871,-0.988412,-2.805768,1.512291
0,3.788878,77,196,498,497,-0.07349085,-0.11509,-0.01133828,-1.496029,-3.087823,-1.600506,-0.05153166,0.02487601,0.03813904,-0.9875353,-2.805423,1.512354
0,3.799989,77,196,498,497,-0.06286683,-0.1065189,-0.00925073,-1.495995,-3.086915,-1.600167,-0.01872139,0.0236618,0.1273134,-0.983777,-2.804884,1.511386
0,3.8111,77,196,498,497,-0.05659956,-0.06918392,-0.005241194,-1.496042,-3.087176,-1.599709,0.054802,0.005189301,0.3556416,-0.973429,-2.804664,1.508639
0,3.822211,77,196,498,497,-0.06100286,-0.02547965,-0.0002314141,-1.496101,-3.088205,-1.59887,0.1492353,-0.01005548,0.5400992,-0.9624467,-2.804154,1.503989
0,3.833322,73,179,498,494,-0.152065,0.1320055,0.01448504,-1.496483,-3.093887,-1.594531,0.1522207,-0.07273676,0.4194987,-0.9631556,-2.80598,1.503539
0,3.844433,73,179,498,494,-0.2130425,0.2201473,0.002045806,-1.496076,-3.098564,-1.590209,0.08770231,-0.1225418,0.2549284,-0.9648361,-2.809657,1.506411
0,3.855544,73,179,498,494,-0.2570271,0.3317261,-0.02012135,-1.495026,-3.105325,-1.585829,-0.02882748,-0.1594387,0.09720375,-0.9686401,-2.813024,1.510457
0,3.866655,73,179,498,494,-0.2763899,0.3965875,-0.02913042,-1.494374,-3.111426,-1.58189,-0.08537529,-0.02187695,0.0616588,-0.9689379,-2.808771,1.51052
0,3.877766,73,179,498,494,-0.3157302,0.3761911,-0.03225312,-1.493965,-3.114805,-1.577279,-0.1072459,0.1209058,0.08970691,-0.9673054,-2.802083,1.508801
0,3.888877,71,260,498,490,-0.376058,0.2671769,-0.0560944,-1.492872,-3.115081,-1.571784,-0.1307328,0.157067,0.1911914,-0.9625762,-2.799021,1.509242
0,3.899988,71,260,498,490,-0.4096859,0.1400494,-0.09148495,-1.490942,-3.113212,-1.566491,-0.1717387,0.125125,0.2544066,-0.9580637,-2.798026,1.51165
0,3.911099,71,260,498,490,-0.4527141,-0.0457113,-0.1286101,-1.48851,-3.10766,-1.560739,-0.2390393,0.05600885,0.2486033,-0.9554335,-2.799466,1.516887
0,3.92221,71,260,498,490,-0.4883858,-0.2142371,-0.1424104,-1.486597,-3.101366,-1.554982,-0.2641992,-0.05575264,0.2018647,-0.9541755,-2.803649,1.522875
0,3.933321,72,255,498,507,-0.5285972,-0.2995933,-0.1429493,-1.484904,-3.09567,-1.548498,-0.2572466,-0.1729076,0.171861,-0.9527448,-2.809253,1.528656
0,3.944432,72,255,498,507,-0.5697484,-0.4254549,-0.1453292,-1.483258,-3.087707,-1.541667,-0.2647992,-0.2389424,0.1750741,-0.9503608,-2.814357,1.53477
0,3.955544,72,255,498,507,-0.5587699,-0.5076993,-0.1809589,-1.480036,-3.080011,-1.536546,-0.3155672,-0.3177246,0.2255372,-0.946496,-2.820991,1.543072
0,3.966655,72,255,498,507,-0.5042357,-0.5556903,-0.2135509,-1.476611,-3.072813,-1.533115,-0.3928566,-0.3442658,0.2816424,-0.9418301,-2.826343,1.552711
0,3.977766,72,255,498,507,-0.4295227,-0.5917869,-0.2323457,-1.473419,-3.065724,-1.530938,-0.4459039,-0.3335146,0.3013307,-0.9380767,-2.830185,1.561073
0,3.988877,71,267,498,493,-0.3889697,-0.605622,-0.2492208,-1.470022,-3.058844,-1.528279,-0.4492411,-0.278063,0.277897,-0.9367887,-2.831846,1.567113
0,3.999988,71,267,498,493,-0.3623686,-0.593823,-0.2503209,-1.466971,-3.052793,-1.525509,-0.4145496,-0.1747274,0.2084222,-0.9364654,-2.830628,1.570038
0,4.011099,71,267,498,493,-0.3295635,-0.5223554,-0.2528842,-1.464051,-3.049153,-1.523067,-0.3693787,-0.07777855,0.1228217,-0.9378253,-2.828637,1.571873
1,4.02221,71,267,498,493,-0.299958,-0.4540475,-0.2479829,-1.461282,-3.046166,-1.520918,-0.337914,-0.006400466,0.05655294,-0.9387376,-2.826545,1.57365
2,4.033321,75,218,499,502,-0.2270489,-0.2841724,-0.2106939,-1.459948,-3.047489,-1.520157,-0.3081915,0.07455423,0.03290588,-0.9389624,-2.822889,1.574773
3,4.044433,75,218,499,502,-0.1783374,-0.2028934,-0.1877423,-1.458385,-3.047361,-1.519456,-0.2719763,0.1544673,0.02300776,-0.939543,-2.817404,1.574865
4,4.055544,75,218,499,502,-0.08725369,-0.06057772,-0.139575,-1.458135,-3.05034,-1.52044,-0.2302866,0.1959263,0.03331732,-0.9387611,-2.813759,1.575053
5,4.066655,75,218,499,502,-0.04800287,-0.01877991,-0.1216854,-1.457245,-3.051099,-1.520651,-0.1961337,0.1979811,0.03938773,-0.938156,-2.810959,1.574714
6,4.077766,75,218,499,502,-0.01084922,0.01344253,-0.1026614,-1.456738,-3.052221,-1.521373,-0.1355936,0.1861373,0.02284046,-0.9380261,-2.809193,1.573668
7,4.088878,274,246,456,499,0.02837943,0.05850235,-0.07521269,-1.456713,-3.054133,-1.522554,-0.09980284,0.1797086,-0.0201059,-0.9391909,-2.807071,1.572868
8,4.099989,274,246,456,499,0.05910106,0.1045423,-0.0541849,-1.456618,-3.056377,-1.523885,-0.05682984,0.192484,-0.09720535,-0.9424527,-2.804017,1.570465
9,4.1111,274,246,456,499,0.08455259,0.12824,-0.02768627,-1.456866,-3.058239,-1.52528,-0.028337,0.1977816,-0.1272879,-0.9445055,-2.801147,1.568288
10,4.122211,274,246,456,499,0.1068863,0.126351,-0.003134888,-1.457461,-3.059563,-1.52687,-0.0007279962,0.1923711,-0.1339046,-0.9453604,-2.799333,1.566642
11,4.133323,274,246,456,499,0.1238877,0.124477,0.02673484,-1.458516,-3.060765,-1.528575,-0.0133987,0.1923829,-0.1209755,-0.9460518,-2.796709,1.565741
12,4.144434,483,176,492,499,0.1345149,0.121457,0.04701382,-1.459564,-3.062013,-1.530183,-0.02484443,0.1827881,-0.09103933,-0.946169,-2.794507,1.564921
13,4.155545,483,176,492,499,0.1558269,0.1015161,0.07914902,-1.461293,-3.062685,-1.532405,-0.03843201,0.1550825,-0.05790754,-0.9458467,-2.793345,1.56499
14,4.166656,483,176,492,499,0.1761573,0.05493345,0.1114721,-1.463396,-3.062019,-1.534958,-0.04380078,0.108201,-0.05362655,-0.9461316,-2.79375,1.565684
15,4.177768,483,176,492,499,0.1933218,0.003983793,0.1299637,-1.465177,-3.060716,-1.53756,-0.02592197,0.01440869,-0.05813519,-0.9466334,-2.797171,1.567478
16,4.188879,324,332,498,516,0.1923321,-0.0205211,0.1301348,-1.466594,-3.059832,-1.539732,0.003551699,-0.06872943,-0.07979262,-0.9479091,-2.80116,1.568688
17,4.19999,324,332,498,516,0.191355,-0.04510162,0.1185877,-1.46754,-3.058761,-1.541785,0.01072465,-0.1038745,-0.1022678,-0.9496268,-2.803616,1.569844
18,4.211102,324,332,498,516,0.1806795,-0.03346606,0.1110215,-1.468461,-3.058753,-1.543522,0.02235142,-0.07727186,-0.1172523,-0.9510718,-2.80398,1.569583
19,4.222213,324,332,498,516,0.1806299,-0.01644408,0.1077071,-1.469596,-3.058977,-1.545478,0.03940004,-0.04321693,-0.1248279,-0.9525131,-2.803574,1.568318
20,4.233324,324,332,498,516,0.1837157,0.02296692,0.1042369,-1.470649,-3.060312,-1.547551,0.08848386,0.03125297,-0.1315957,-0.9539859,-2.800829,1.564499
21,4.244435,221,336,498,507,0.1857325,0.05604236,0.1104019,-1.472081,-3.061765,-1.54952,0.115198,0.04717314,-0.1275665,-0.9551837,-2.799855,1.561829
22,4.255547,221,336,498,507,0.1908968,0.109314,0.1089814,-1.473384,-3.064357,-1.551554,0.1364182,0.05140247,-0.1373487,-0.9569291,-2.799093,1.55935
23,4.266658,221,336,498,507,0.186378,0.1944865,0.1030533,-1.474445,-3.068735,-1.553072,0.1589859,0.05559324,-0.118378,-0.9576994,-2.79842,1.556576
24,4.277769,221,336,498,507,0.1551424,0.3177757,0.07550872,-1.47474,-3.075414,-1.553342,0.1908509,0.09496784,-0.1367414,-0.9595193,-2.795928,1.55219
25,4.28888,166,415,497,501,0.05351877,0.4822176,0.02412032,-1.474007,-3.084489,-1.550677,0.2173302,0.08533882,-0.1508618,-0.9617303,-2.795189,1.548674
26,4.299992,166,415,497,501,-0.1067705,0.6814681,-0.05211902,-1.472026,-3.096769,-1.544502,0.2553053,0.03522353,-0.180024,-0.9642566,-2.796583,1.545696
27,4.311103,166,415,497,501,-0.202954,0.8212801,-0.1278322,-1.469179,-3.109564,-1.53869,0.2112355,0.007653102,-0.2147869,-0.9674748,-2.797325,1.544957
28,4.322214,166,415,497,501,-0.3122295,1.048527,-0.1839342,-1.466368,-3.127043,-1.530842,0.06267175,0.04635504,-0.272992,-0.9721156,-2.795577,1.547135
29,4.333325,166,415,497,501,-0.515376,1.282275,-0.1816561,-1.465489,3.135951,-1.518092,-0.003126174,0.06882414,-0.2488989,-0.9741332,-2.793998,1.548193
30,4.344437,134,299,498,497,-0.8105794,1.342832,-0.2262712,-1.463141,3.119398,-1.500168,-0.02147944,0.0410668,-0.156077,-0.9733257,-2.79442,1.549125
31,4.355548,134,299,498,497,-1.104195,1.219322,-0.2376406,-1.460959,3.108742,-1.479937,-0.07290945,-0.06012699,-0.05452251,-0.9719169,-2.798166,1.553284
32,4.366659,134,299,498,497,-1.304178,1.102869,-0.1956426,-1.460925,3.099417,-1.459959,-0.1552564,-0.1911052,0.05053259,-0.9684681,-2.804922,1.561012
33,4.37777,134,299,498,497,-1.577083,0.8322529,-0.2272658,-1.458221,3.096632,-1.43509,-0.2443018,-0.3018031,0.119449,-0.9657506,-2.812008,1.569813
34,4.388882,134,299,498,497,-1.738278,0.617392,-0.2590795,-1.454733,3.094899,-1.411584,-0.3088388,-0.3880325,0.1838972,-0.9620137,-2.820103,1.5796
35,4.399993,154,325,499,507,-1.979067,0.2969053,-0.2774778,-1.450762,3.099817,-1.383614,-0.4265629,-0.5039939,0.2626919,-0.9571545,-2.830278,1.593276
36,4.411104,154,325,499,507,-2.225149,-0.03745174,-0.292634,-1.445639,3.107775,-1.35353,-0.5750172,-0.6092796,0.3577712,-0.9509344,-2.842243,1.610593
37,4.422215,154,325,499,507,-2.438213,-0.3484331,-0.3387975,-1.438391,3.11819,-1.322511,-0.705863,-0.6539057,0.4985394,-0.9422919,-2.853047,1.628057
38,4.433327,154,325,499,507,-2.623789,-0.5912371,-0.3917408,-1.429957,3.128964,-1.290353,-0.7804389,-0.647478,0.6089885,-0.9332851,-2.862221,1.643897
39,4.444438,148,314,497,512,-2.766983,-0.78051,-0.4310879,-1.421295,3.13989,-1.257241,-0.8928926,-0.6122675,0.7613911,-0.9211469,-2.870943,1.662115
40,4.455549,148,314,497,512,-2.850848,-0.8650771,-0.4519899,-1.412478,-3.134108,-1.22506,-1.042783,-0.4874836,0.8790418,-0.9093172,-2.875333,1.679611
41,4.46666,148,314,497,512,-2.979532,-0.9294833,-0.4720568,-1.403188,-3.125373,-1.190121,-1.191835,-0.2507632,0.9541462,-0.8974571,-2.873056,1.694931
42,4.477772,148,314,497,512,-3.065814,-0.9255741,-0.4839503,-1.393944,-3.118125,-1.154905,-1.244586,-0.09307671,0.971895,-0.8858308,-2.871369,1.70875
43,4.488883,148,314,497,512,-3.172459,-0.8854602,-0.5067875,-1.384837,-3.113203,-1.117535,-1.290501,0.09454799,0.9245806,-0.8760857,-2.864814,1.72035
44,4.499994,158,252,483,498,-3.240822,-0.815452,-0.5287403,-1.375866,-3.109823,-1.080765,-1.399142,0.2065789,0.9044459,-0.8660973,-2.860929,1.736122
45,4.511106,158,252,483,498,-3.304015,-0.7059414,-0.5296431,-1.3679,-3.108233,-1.042668,-1.452415,0.3088238,0.9966968,-0.8515436,-2.856625,1.750813
46,4.522217,158,252,483,498,-3.337234,-0.6442161,-0.5269558,-1.359908,-3.106411,-1.005134,-1.492366,0.4068274,1.031295,-0.8380814,-2.85058,1.764122
47,4.533328,158,252,483,498,-3.369522,-0.546191,-0.5233445,-1.353231,-3.106726,-0.9670577,-1.49638,0.4600818,1.047396,-0.8249615,-2.845451,1.777413
48,4.544439,349,254,534,506,-3.371916,-0.4714705,-0.5110474,-1.34694,-3.107316,-0.9295977,-1.578109,0.4282187,1.084386,-0.8114673,-2.844012,1.795986
49,4.555551,349,254,534,506,-3.351026,-0.3466443,-0.4831347,-1.342758,-3.109732,-0.892585,-1.6128,0.404676,1.138,-0.7968332,-2.843808,1.814404
50,4.566662,349,254,534,506,-3.319554,-0.2078036,-0.4605,-1.340157,-3.114108,-0.855492,-1.662526,0.3525186,1.183172,-0.7822114,-2.84535,1.835243
51,4.577773,349,254,534,506,-3.255033,-0.0647831,-0.4327396,-1.338511,-3.119031,-0.8199298,-1.685784,0.30667,1.209,-0.7677276,-2.847968,1.856467
52,4.588884,349,254,534,506,-3.144692,0.04872282,-0.383216,-1.338321,-3.123225,-0.786522,-1.692763,0.3012938,1.25598,-0.7519856,-2.850006,1.876882
53,4.599996,708,259,490,495,-3.042747,0.1208169,-0.3301709,-1.33891,-3.127382,-0.7541273,-1.686167,0.2905481,1.280503,-0.7364072,-2.852871,1.898031
54,4.611107,708,259,490,495,-2.968238,0.1326977,-0.3027198,-1.337542,-3.130291,-0.7223697,-1.614204,0.2499363,1.343725,-0.7201284,-2.858576,1.918184
55,4.622218,708,259,490,495,-2.831975,0.1335057,-0.2575757,-1.337928,-3.132645,-0.6938727,-1.587253,0.2690337,1.372258,-0.7039214,-2.861945,1.937659
56,4.633329,708,259,490,495,-2.736029,0.0985122,-0.2350271,-1.336084,-3.134115,-0.6652129,-1.558027,0.3030188,1.417774,-0.6867983,-2.865322,1.956941
57,4.644441,730,204,464,495,-2.738161,0.08580865,-0.2251211,-1.335652,-3.136189,-0.6340342,-1.513827,0.4083781,1.452606,-0.668267,-2.865152,1.972589
58,4.655552,730,204,464,495,-2.80553,0.1056734,-0.2007601,-1.336183,-3.138106,-0.5983665,-1.510864,0.4479287,1.422685,-0.6527104,-2.865485,1.989352
59,4.666663,730,204,464,495,-2.756665,0.1369577,-0.187947,-1.337576,-3.141119,-0.5683431,-1.478745,0.4701602,1.428856,-0.6358238,-2.8679,2.006721
60,4.677774,730,204,464,495,-2.629071,0.1946191,-0.177765,-1.338821,3.138854,-0.5414137,-1.485834,0.4594703,1.489409,-0.6179264,-2.873876,2.028498
61,4.688886,730,204,464,495,-2.52591,0.24078,-0.1766742,-1.341497,3.135236,-0.5152546,-1.50571,0.4093204,1.538546,-0.6001412,-2.883684,2.053758
62,4.699997,649,174,501,500,-2.372813,0.3255753,-0.1600788,-1.345486,3.131051,-0.4917111,-1.494828,0.4007392,1.562936,-0.5825191,-2.892455,2.077263
63,4.711108,649,174,501,500,-2.334601,0.3544809,-0.1400292,-1.348761,3.128018,-0.4659834,-1.474684,0.4614477,1.54256,-0.5647872,-2.896446,2.096468
64,4.722219,649,174,501,500,-2.244156,0.3625041,-0.09833547,-1.352579,3.126188,-0.4428986,-1.362725,0.5017245,1.540504,-0.546854,-2.901524,2.112927
65,4.733331,649,174,501,500,-2.100176,0.3184212,-0.0840064,-1.354383,3.12443,-0.4230937,-1.269516,0.4929811,1.560023,-0.5289986,-2.910455,2.130675
66,4.744442,649,174,501,500,-1.968904,0.2517171,-0.08966947,-1.354996,3.122931,-0.4040308,-1.151793,0.3905817,1.521489,-0.5146873,-2.924958,2.152738
67,4.755553,617,188,524,506,-1.875986,0.2084673,-0.091391,-1.355879,3.121171,-0.3858159,-1.144141,0.2703123,1.4552,-0.5030797,-2.941661,2.179929
68,4.766665,617,188,524,506,-1.839703,0.190458,-0.09227502,-1.357034,3.119548,-0.3657995,-1.110808,0.2309114,1.383463,-0.4911135,-2.955482,2.203744
69,4.777776,617,188,524,506,-1.796039,0.1938097,-0.09115455,-1.358766,3.117758,-0.3463942,-1.006975,0.2286785,1.325971,-0.4785754,-2.967949,2.223559
70,4.788887,617,188,524,506,-1.753471,0.2067377,-0.0911672,-1.360907,3.115874,-0.3277329,-0.9591716,0.2084013,1.315887,-0.4659898,-2.98411,2.247534
71,4.799998,586,187,451,499,-1.617285,0.2529411,-0.09230377,-1.364333,3.113563,-0.3124538,-0.9266433,0.1647276,1.271851,-0.4555492,-3.001473,2.272534
72,4.81111,586,187,451,499,-1.540694,0.2777369,-0.08065754,-1.36743,3.111857,-0.2967187,-0.9101081,0.1636893,1.21948,-0.4452486,-3.016472,2.295736
73,4.822221,586,187,451,499,-1.474658,0.2695984,-0.05811013,-1.370087,3.11099,-0.2820426,-0.8921223,0.2148043,1.195927,-0.4332079,-3.029928,2.317344
74,4.833332,586,187,451,499,-1.466065,0.2514886,-0.06223027,-1.372144,3.109582,-0.2656322,-0.8278345,0.2700688,1.224111,-0.419695,-3.045586,2.339022
75,4.844443,586,187,451,499,-1.41807,0.2386952,-0.07689926,-1.373935,3.108126,-0.2503723,-0.799648,0.2657048,1.277089,-0.4067419,-3.067821,2.367543
76,4.855555,629,197,479,501,-1.358408,0.2355959,-0.08418992,-1.376134,3.106612,-0.2364679,-0.7944784,0.2624092,1.366558,-0.392551,-3.096009,2.402199
77,4.866666,629,197,479,501,-1.272103,0.2337334,-0.08935308,-1.378331,3.104876,-0.2243948,-0.7656263,0.3252523,1.369475,-0.3788038,-3.115873,2.428556
78,4.877777,629,197,479,501,-1.215633,0.2285907,-0.08920047,-1.380505,3.103499,-0.2118209,-0.7442868,0.3752893,1.363989,-0.3649287,-3.137673,2.4566
79,4.888888,629,197,479,501,-1.184711,0.2190933,-0.08909987,-1.382357,3.102056,-0.198814,-0.6683256,0.347589,1.295,-0.3546233,3.123996,2.482281
80,4.9,625,174,505,506,-1.160174,0.2095856,-0.09005649,-1.384184,3.100626,-0.1863584,-0.6368773,0.3071064,1.25203,-0.3449539,3.098039,2.513147
81,4.911111,625,174,505,506,-1.111093,0.1905308,-0.09727846,-1.385629,3.099143,-0.1749239,-0.5775329,0.2155093,1.127779,-0.3394231,3.075499,2.539349
82,4.922222,625,174,505,506,-1.063047,0.1661192,-0.1087443,-1.386552,3.097424,-0.1640784,-0.5181758,0.1452183,1.000357,-0.3350299,3.055436,2.562611
83,4.933333,625,174,505,506,-1.013976,0.1460684,-0.1063894,-1.387447,3.096131,-0.1538492,-0.4913967,0.1037083,0.9116518,-0.3304807,3.035017,2.586783
84,4.944445,625,174,505,506,-0.9649578,0.1366976,-0.09774932,-1.388506,3.094988,-0.1438554,-0.4318779,0.04300106,0.7980893,-0.3281675,3.017493,2.60669
85,4.955556,649,225,577,501,-0.9351467,0.1410726,-0.09666187,-1.390017,3.093707,-0.1340443,-0.392211,-0.02305478,0.7252067,-0.3268221,2.997808,2.628583
86,4.966667,649,225,577,501,-0.8765558,0.1423326,-0.09869809,-1.391446,3.092358,-0.1256533,-0.3767965,-0.05498886,0.6707056,-0.3250276,2.978928,2.650274
87,4.977778,649,225,577,501,-0.8275462,0.1455999,-0.1114287,-1.392913,3.090493,-0.1170976,-0.3503079,-0.06458378,0.6491635,-0.3223639,2.959442,2.671444
88,4.98889,649,225,577,501,-0.7945288,0.1541729,-0.1199503,-1.394655,3.08874,-0.1087939,-0.3444977,-0.0401434,0.6927914,-0.318431,2.935016,2.698136
89,5.000001,719,234,514,504,-0.7774082,0.1371722,-0.1240714,-1.395577,3.087058,-0.1002627,-0.3202422,0.05563924,0.7586928,-0.3112777,2.90943,2.72544
90,5.011112,719,234,514,504,-0.7645404,0.1170327,-0.1207172,-1.396452,3.08565,-0.0920495,-0.276442,0.08215815,0.7646793,-0.306639,2.885653,2.749758
91,5.022223,719,234,514,504,-0.7292482,0.07778171,-0.1160987,-1.396204,3.084566,-0.08474658,-0.2602134,0.1151381,0.7837291,-0.301293,2.859344,2.777349
91,5.033335,719,234,514,504,-0.6865729,0.04910564,-0.1167258,-1.396286,3.083189,-0.0774916,-0.2205293,0.0927653,0.7066011,-0.2990085,2.842653,2.79467
91,5.044446,719,234,514,504,-0.6577112,0.0332418,-0.1210156,-1.395751,3.081702,-0.07105047,-0.2099841,0.07890525,0.6979635,-0.2961158,2.819125,2.81916
91,5.055557,775,207,471,498,-0.6235,0.01088047,-0.1389527,-1.395098,3.07932,-0.06467007,-0.1891211,0.06823474,0.6530133,-0.2938388,2.798774,2.840151
91,5.066669,775,207,471,498,-0.5946533,-0.009287886,-0.1430076,-1.394295,3.07775,-0.05866837,-0.1660578,0.05118039,0.6176172,-0.2920492,2.779482,2.859837
91,5.07778,775,207,471,498,-0.5583879,-0.02294441,-0.136452,-1.393818,3.076446,-0.05329198,-0.1425906,0.03405136,0.5480993,-0.2923389,2.762859,2.879005
91,5.088891,775,207,471,498,-0.5338759,-0.03129766,-0.1246287,-1.393189,3.075407,-0.04784529,-0.1176872,0.014807,0.4966968,-0.292316,2.746943,2.895991
91,5.100002,775,207,471,498,-0.4912259,-0.04699992,-0.1095673,-1.392287,3.074263,-0.04345001,-0.1001178,-0.0150041,0.4432344,-0.292463,2.734005,2.90902
91,5.111114,690,191,487,490,-0.4645702,-0.05750782,-0.1019885,-1.391302,3.073386,-0.03891624,-0.08752115,-0.02249162,0.4271445,-0.2920369,2.717758,2.925486
91,5.122225,690,191,487,490,-0.4357718,-0.06586891,-0.09337314,-1.390322,3.072456,-0.03479527,-0.08332568,-0.01290502,0.4185927,-0.2909344,2.702671,2.94076
91,5.133336,690,191,487,490,-0.4069757,-0.07323095,-0.09435618,-1.38921,3.071135,-0.03080319,-0.08014399,0.005485356,0.4165821,-0.2867585,2.684589,2.960356
91,5.144447,690,191,487,490,-0.3867386,-0.07630464,-0.08683837,-1.388273,3.070412,-0.02687343,-0.06819674,0.04059438,0.4335493,-0.2845668,2.666715,2.977865
91,5.155559,625,264,505,503,-0.3537688,-0.07083443,-0.08041742,-1.38751,3.069829,-0.02339321,-0.06630836,0.03961553,0.4186872,-0.2828368,2.648776,2.997213
91,5.16667,625,264,505,503,-0.3272187,-0.04940646,-0.07625602,-1.387509,3.069106,-0.02035401,-0.0695719,0.02364503,0.4144439,-0.2824171,2.632746,3.013455
91,5.177781,625,264,505,503,-0.3081436,-0.02582867,-0.07106543,-1.38824,3.068174,-0.01706021,-0.07498196,0.04920463,0.4006579,-0.2810263,2.618902,3.027707
91,5.188892,625,264,505,503,-0.2911752,-0.006580312,-0.06902863,-1.388701,3.067528,-0.01406575,-0.08263424,0.06094211,0.3773023,-0.2796293,2.606692,3.040482
91,5.200004,625,264,505,503,-0.2698486,-0.01504128,-0.07211979,-1.388407,3.066647,-0.01119007,-0.08422783,0.05776434,0.3250869,-0.2792442,2.600043,3.048057
91,5.211115,725,242,468,499,-0.2740618,-0.03628712,-0.06776942,-1.38782,3.065203,-0.007485613,-0.08667374,0.03338738,0.2995687,-0.2782066,2.588334,3.061168
91,5.222226,725,242,468,499,-0.2621836,-0.07995695,-0.07277428,-1.385848,3.06423,-0.004667989,-0.06889008,-0.01137207,0.2727363,-0.2792964,2.579165,3.070295
91,5.233337,725,242,468,499,-0.2045432,-0.1084803,-0.06927733,-1.384143,3.063436,-0.00408742,-0.04443276,-0.004977815,0.2672359,-0.2784287,2.56664,3.082494
91,5.244449,725,242,468,499,-0.1832664,-0.1051454,-0.0596723,-1.383063,3.063034,-0.002564624,-0.0160495,0.006668635,0.2296751,-0.2785933,2.561237,3.087589
91,5.25556,662,250,470,492,-0.1631471,-0.07518283,-0.05024363,-1.383186,3.06293,-0.001130778,-0.01090156,0.008781146,0.2115149,-0.2787051,2.554365,3.094409
91,5.266671,662,250,470,492,-0.1558524,-0.02617005,-0.05270102,-1.38422,3.062281,0.0005528723,-0.01212157,0.01092708,0.1944824,-0.2784676,2.548175,3.100518
91,5.277782,662,250,470,492,-0.1517641,0.02600789,-0.05839487,-1.385843,3.061269,0.002442119,-0.02282649,0.01524024,0.1871274,-0.2777198,2.541557,3.107385
91,5.288894,662,250,470,492,-0.1465277,0.0569234,-0.05647758,-1.386906,3.060629,0.003851996,-0.004840128,0.01414856,0.1699265,-0.2775344,2.535638,3.112161
91,5.300005,662,250,470,492,-0.1369591,0.0643903,-0.05970764,-1.387808,3.059872,0.005282114,0.01411276,0.0151873,0.1473748,-0.2774897,2.531895,3.115294
91,5.311116,564,243,498,499,-0.133768,0.0633654,-0.0586251,-1.388731,3.059249,0.006894391,0.03312716,0.009841982,0.1280387,-0.2774311,2.527192,3.11863
91,5.322227,564,243,498,499,-0.1059923,0.03897226,-0.05627297,-1.388478,3.058695,0.00736151,0.04775255,-0.009355567,0.1001742,-0.2783003,2.526291,3.11853
91,5.333339,564,243,498,499,-0.07608841,0.01989863,-0.05822586,-1.388425,3.057793,0.0075458,0.07088209,-0.04240206,0.07116558,-0.2797864,2.526005,3.117118
91,5.34445,564,243,498,499,-0.05473226,0.006106962,-0.06022045,-1.388143,3.057044,0.007770039,0.09520565,-0.0520229,0.05388018,-0.2806093,2.525244,3.116172
91,5.355561,612,227,468,500,-0.03767611,0.002969954,-0.06444937,-1.38862,3.055807,0.00814661,0.09729375,-0.04776067,0.04853768,-0.2810152,2.52379,3.116432
91,5.366673,612,227,468,500,-0.01424973,0.01153877,-0.06979188,-1.389116,3.054904,0.007784952,0.1036062,-0.02537702,0.03357562,-0.280417,2.524208,3.114523
91,5.377784,612,227,468,500,0.008115698,0.01689494,-0.0761792,-1.389457,3.053886,0.007301855,0.1044733,-0.01896758,0.01120089,-0.280433,2.526061,3.111526
91,5.388895,612,227,468,500,0.03046632,0.02969201,-0.08474721,-1.390092,3.052755,0.006583334,0.1022229,-0.04556571,0.002689334,-0.2813917,2.525858,3.110647
91,5.400006,612,227,468,500,0.05383356,0.05317008,-0.09019129,-1.391254,3.051625,0.00566774,0.1173525,-0.02750927,0.02173442,-0.2813651,2.523324,3.111293
91,5.411118,653,234,514,508,0.07077494,0.08088739,-0.09249678,-1.392517,3.050319,0.004983307,0.1259737,-0.005149856,0.02698114,-0.2807158,2.522736,3.110082
91,5.422229,653,234,514,508,0.07922987,0.1001053,-0.09048389,-1.394118,3.04935,0.004058658,0.124822,0.02362176,0.01210064,-0.2799084,2.523656,3.107804
91,5.43334,653,234,514,508,0.08448485,0.1203845,-0.08742135,-1.395904,3.048425,0.003170227,0.1224931,0.0215082,-0.01131921,-0.2798833,2.526278,3.103594
91,5.444451,653,234,514,508,0.08868867,0.135342,-0.08325621,-1.397781,3.047608,0.00223386,0.109346,-0.01040462,-0.04425103,-0.2809816,2.531079,3.098097
91,5.455563,653,234,514,508,0.1003669,0.1534366,-0.0897615,-1.399728,3.046249,0.0009523464,0.1071354,-0.02101213,-0.05060078,-0.2809209,2.532166,3.096005
91,5.466674,666,310,495,505,0.1046033,0.1651168,-0.09729205,-1.401876,3.044976,-9.906959E-05,0.113731,-0.02530715,-0.02829738,-0.281315,2.530969,3.095654
91,5.477785,666,310,495,505,0.09714855,0.1651246,-0.09199885,-1.403537,3.043764,-0.0009459548,0.1160771,-0.005089998,-0.004853736,-0.2807723,2.52849,3.097292
91,5.488896,666,310,495,505,0.04169674,0.1682906,-0.07188611,-1.405621,3.043435,0.0001885518,0.1203655,0.02263384,-0.001684047,-0.2793097,2.529124,3.096033
91,5.500008,666,310,495,505,0.02360739,0.1565788,-0.06225154,-1.407052,3.042992,0.0005060006,0.1192047,0.03116693,-0.01338542,-0.2787339,2.530959,3.092973
91,5.511119,599,281,499,497,0.04710183,0.1375064,-0.05887336,-1.408062,3.042461,-0.0007147924,0.09758604,-0.01033169,-0.03879435,-0.280237,2.535617,3.088016
91,5.52223,599,281,499,497,0.06741439,0.1204779,-0.06617138,-1.408992,3.041515,-0.00190203,0.09559558,-0.02952369,-0.02068542,-0.2810748,2.534852,3.087655
91,5.533341,599,281,499,497,0.06110656,0.0980275,-0.07454088,-1.409545,3.040609,-0.002163552,0.0966426,-0.02841693,-0.01641566,-0.2806205,2.534565,3.087783
91,5.544453,599,281,499,497,0.04837635,0.07666794,-0.07547606,-1.409914,3.039882,-0.001949434,0.102044,0.00139723,-0.01431581,-0.2798465,2.535223,3.085809
91,5.555564,599,281,499,497,0.04094402,0.06497709,-0.06795157,-1.410337,3.039322,-0.002118811,0.0848499,0.004666485,-0.02261752,-0.2791334,2.534188,3.087426
91,5.566675,628,279,506,497,0.02708653,0.05544128,-0.05620636,-1.411001,3.038813,-0.001717739,0.0784841,0.005732365,-0.02043145,-0.2792458,2.535119,3.085755
91,5.577786,628,279,506,497,0.0175482,0.03628654,-0.04863393,-1.410885,3.038458,-0.001578189,0.07331797,-0.0006874353,-0.001225699,-0.2797486,2.533734,3.086513
91,5.588898,628,279,506,497,0.01439362,0.03413385,-0.05184193,-1.411363,3.037467,-0.00194464,0.07576388,0.003501497,0.03286386,-0.2801661,2.528274,3.090989
91,5.600009,628,279,506,497,0.01012191,0.03731553,-0.05187211,-1.411862,3.03688,-0.001856756,0.07585022,0.005617693,0.04138063,-0.2800884,2.526153,3.092086
91,5.61112,597,261,448,494,-0.00586522,0.03517077,-0.04656141,-1.41223,3.036519,-0.001261273,0.05973552,0.005621657,0.02767647,-0.2805523,2.526837,3.091274
91,5.622231,597,261,448,494,-0.0314198,0.02555408,-0.03801585,-1.41221,3.036406,-0.0001613876,0.04481192,0.008839503,0.02568428,-0.2804309,2.526337,3.091614
91,5.633343,597,261,448,494,-0.03561128,0.004292818,-0.02937134,-1.411683,3.036027,0.0001885518,0.03958258,-0.00183237,0.04061399,-0.2809054,2.524339,3.09353
91,5.644454,597,261,448,494,-0.02171287,-0.01374619,-0.02495414,-1.410998,3.035941,4.95348E-05,0.03305997,-0.006077766,0.0268195,-0.2812043,2.524683,3.092894
91,5.655565,597,261,448,494,-0.0174346,-0.02008741,-0.01638961,-1.41028,3.035885,-7.723167E-05,0.03089969,-0.006122235,0.0278925,-0.2819254,2.52402,3.093771
91,5.666677,571,236,484,497,-0.02810941,-0.01580144,-0.008961126,-1.410415,3.036274,0.0004367584,0.0246901,0.02157096,0.04182256,-0.280866,2.52089,3.096625
91,5.677788,571,236,484,497,-0.03029091,-0.005096355,-0.0005173017,-1.410642,3.036481,0.0008000136,0.01502305,0.02580228,0.0365715,-0.2812101,2.520746,3.097353
91,5.688899,571,236,484,497,-0.03248933,0.01305346,0.004681695,-1.411455,3.036711,0.001148355,0.01286055,0.01622036,0.03445002,-0.2813166,2.519761,3.098116
91,5.70001,571,236,484,497,-0.03785666,0.02371087,0.007793345,-1.412058,3.036891,0.001696966,4.694564E-05,-0.00933931,0.03561383,-0.2823366,2.517756,3.10029
91,5.711122,710,238,490,496,-0.0495678,0.02369287,0.01309337,-1.412008,3.037121,0.002342517,-0.004222959,-0.01573605,0.03458887,-0.2828192,2.51609,3.101844
91,5.722233,710,238,490,496,-0.05809691,0.02158645,0.02054963,-1.412192,3.037529,0.003158509,-0.01068165,-0.01145763,0.0261264,-0.2828299,2.516109,3.102026
91,5.733344,710,238,490,496,-0.05918386,0.02590602,0.02690208,-1.412857,3.03789,0.003696467,-0.01610095,-0.01570289,0.01337043,-0.2832038,2.517756,3.100281
91,5.744455,710,238,490,496,-0.05707116,0.02807826,0.03221989,-1.413205,3.038448,0.004200337,-0.0267652,-0.001833567,0.009221736,-0.2828623,2.517826,3.100785
91,5.755567,710,238,490,496,-0.05601678,0.02497838,0.04395407,-1.413541,3.039102,0.004705273,-0.0373057,-0.01353979,0.02101009,-0.2832501,2.516731,3.102183
91,5.766678,634,217,501,498,-0.05920805,0.01754452,0.04718064,-1.413716,3.039467,0.005604356,-0.04145979,-0.009349618,0.03808742,-0.2841252,2.514,3.106154
91,5.777789,634,217,501,498,-0.05918469,0.007986765,0.05150844,-1.413541,3.040175,0.006170544,-0.04459732,-0.01574295,0.04556792,-0.284449,2.511368,3.109251
91,5.7889,634,217,501,498,-0.05916283,-0.0005092956,0.05581815,-1.413252,3.040747,0.006710633,-0.04576383,-0.01578734,0.03917215,-0.2853907,2.511156,3.110535
91,5.800012,634,217,501,498,-0.0580932,0.0005297549,0.05155157,-1.41328,3.041208,0.007219297,-0.06195983,-0.009342149,0.01482699,-0.2853433,2.513053,3.10983
91,5.811123,634,217,501,498,-0.05490751,0.003748529,0.05259567,-1.413484,3.041766,0.007629424,-0.06834427,0.0002335533,0.01381983,-0.2854514,2.512982,3.110796
91,5.822234,652,235,482,490,-0.05067737,0.01123613,0.05468357,-1.413825,3.042481,0.007988418,-0.0693367,0.0130135,0.01916897,-0.2849396,2.511711,3.112805
91,5.833345,652,235,482,490,-0.04539946,0.02195037,0.05994776,-1.414445,3.043327,0.008290953,-0.06621026,0.007687867,0.01274224,-0.2849635,2.51189,3.113289
91,5.844457,652,235,482,490,-0.0422338,0.03049084,0.06095967,-1.415007,3.044037,0.00857964,-0.06305902,-0.008299053,0.01056381,-0.2855692,2.511661,3.114053
91,5.855568,652,235,482,490,-0.03375891,0.04542239,0.05982115,-1.415868,3.0449,0.008635034,-0.06637313,-0.02426282,0.0009901728,-0.2862483,2.512353,3.114213
91,5.866679,620,229,471,492,-0.03376544,0.04755071,0.0598085,-1.416414,3.045615,0.008910937,-0.06421791,-0.0232062,0.003098598,-0.2864912,2.512155,3.115016
91,5.87779,620,229,471,492,-0.01994652,0.05189519,0.06512778,-1.417119,3.046492,0.008726646,-0.05155258,-0.02427557,-0.009843534,-0.2866978,2.515702,3.111757
91,5.888902,620,229,471,492,-0.01140896,0.050861,0.06728456,-1.417479,3.047355,0.008301605,-0.0451914,-0.02213977,-0.01523221,-0.2867351,2.516992,3.110661
91,5.900013,620,229,471,492,-0.001820534,0.05299295,0.06302572,-1.418121,3.047953,0.007975102,-0.05165002,-0.02318182,-0.02263156,-0.2869316,2.518582,3.1098
91,5.911124,620,229,471,492,-0.000708364,0.04972905,0.05239533,-1.418601,3.04821,0.007692807,-0.05470456,-0.0210814,-0.009816434,-0.2874312,2.517815,3.110955
91,5.922235,570,218,486,491,-0.0006616078,0.04113299,0.04180194,-1.418819,3.048397,0.007681089,-0.06103317,-0.0104185,-0.005486727,-0.2872326,2.517733,3.111814
91,5.933347,570,218,486,491,0.004710991,0.03049957,0.0429521,-1.418818,3.048951,0.007191068,-0.06637081,0.005725943,0.002133726,-0.2842754,2.512872,3.119016
91,5.944458,570,218,486,491,0.00582159,0.01770145,0.04091436,-1.418643,3.049411,0.007036072,-0.06523359,0.02275974,0.006397881,-0.2836266,2.512462,3.120052
91,5.955569,570,218,486,491,0.006948693,-0.006769165,0.04429625,-1.417971,3.050201,0.006964699,-0.05046224,0.01643154,-0.003292103,-0.2823984,2.511693,3.12158
91,5.966681,623,223,468,494,0.009140659,-0.02484821,0.04547953,-1.417489,3.050588,0.006693056,-0.04092601,0.01749025,-0.01297902,-0.2821907,2.513639,3.119391
91,5.977792,623,223,468,494,0.01555432,-0.03123035,0.04447173,-1.416942,3.0511,0.006291452,-0.03377082,-0.005933542,-0.04076701,-0.2829108,2.517936,3.115461
91,5.988903,623,223,468,494,0.01548478,-0.005714651,0.03896485,-1.417369,3.051373,0.006047506,-0.02625218,-0.01875042,-0.03336831,-0.2833193,2.517972,3.115313
91,6.000014,623,223,468,494,0.01328482,0.02189282,0.0270525,-1.418289,3.051427,0.005967611,-0.03259946,-0.0251364,-0.02906573,-0.2840714,2.518373,3.115301
91,6.011126,623,223,468,494,0.01215484,0.04211921,0.02370313,-1.41938,3.051486,0.005931392,-0.05050097,-0.003755447,-0.008606915,-0.2826578,2.515882,3.119034
91,6.022237,551,242,487,490,0.003575906,0.06335128,0.01714844,-1.420647,3.051503,0.006111955,-0.04822698,0.0122093,0.003102268,-0.2821001,2.514907,3.12035
91,6.033348,551,242,487,490,-0.02308402,0.07283839,0.01597003,-1.4215,3.051712,0.006988135,-0.03850915,0.028166,0.01151601,-0.2814237,2.515573,3.119523
