ref,t,emg1,emg2,emg1raw,emg2raw,aDotS,bDotS,gDotS,aS,bS,gS,aDotSH,bDotSH,gDotSH,aSH,bSH,gSH
0,0,98,258,497,500,0.3626312,-0.4953775,0.4548468,-1.388041,2.996865,-1.604825,0.1256879,0.1548056,-0.2607449,-1.003415,-2.928228,1.528489
0,0.01111111,98,258,497,500,0.3510586,-0.5401725,0.4530439,-1.393278,3.003917,-1.609715,0.1519455,0.129239,-0.2993805,-1.007722,-2.927509,1.525308
0,0.02222222,98,258,497,500,0.350098,-0.5678422,0.4575201,-1.398799,3.010754,-1.615106,0.160366,0.1377532,-0.3143626,-1.011465,-2.925701,1.522062
0,0.03333334,98,258,497,500,0.3544586,-0.6060785,0.4706091,-1.404735,3.018394,-1.620458,0.1571776,0.1494773,-0.3153852,-1.015101,-2.923577,1.519275
0,0.04444445,98,258,497,500,0.364123,-0.642212,0.4815536,-1.410758,3.026404,-1.625902,0.1449856,0.1835162,-0.2598236,-1.016393,-2.920344,1.516198
0,0.05555556,101,254,496,496,0.3737416,-0.6549234,0.486996,-1.416744,3.033792,-1.631491,0.1235291,0.2186087,-0.1690281,-1.015896,-2.916313,1.513302
0,0.06666667,101,254,496,496,0.377959,-0.6537465,0.5008301,-1.422975,3.040705,-1.636674,0.09649759,0.2590725,-0.1048078,-1.015791,-2.911599,1.510445
0,0.07777778,101,254,496,496,0.3651069,-0.6324638,0.5027782,-1.429103,3.046824,-1.64128,0.07867412,0.2739843,-0.07692346,-1.016055,-2.907511,1.507917
0,0.08888889,101,254,496,496,0.3330968,-0.6134092,0.4993791,-1.434913,3.052716,-1.644976,0.04814723,0.2677327,-0.1501646,-1.020159,-2.904406,1.506364
0,0.1,99,242,498,502,0.3021759,-0.5923449,0.4810553,-1.440251,3.058421,-1.648335,0.03590068,0.2539636,-0.2033415,-1.024173,-2.901733,1.504869
0,0.1111111,99,242,498,502,0.2690764,-0.5669446,0.4733482,-1.445804,3.063764,-1.651025,0.0536713,0.2166911,-0.2355162,-1.027834,-2.900276,1.502741
0,0.1222222,99,242,498,502,0.2679294,-0.5435289,0.4731598,-1.451573,3.06896,-1.654675,0.07815951,0.1804361,-0.2315441,-1.030408,-2.899065,1.500552
0,0.1333333,99,242,498,502,0.2730967,-0.4997452,0.4845487,-1.457623,3.072868,-1.658296,0.09208791,0.1527042,-0.218922,-1.032591,-2.898128,1.498671
0,0.1444445,99,242,498,502,0.2676169,-0.4517776,0.4926866,-1.463666,3.076386,-1.661725,0.09327781,0.1420443,-0.2040243,-1.034528,-2.896466,1.496833
0,0.1555556,97,261,498,498,0.2408423,-0.4081765,0.4933694,-1.469461,3.079229,-1.663959,0.05484742,0.07486695,-0.08973879,-1.032318,-2.897458,1.497731
0,0.1666667,97,261,498,498,0.1874982,-0.3596264,0.4598657,-1.473914,3.081851,-1.665075,-0.02343284,0.0622711,-0.1422811,-1.035373,-2.897044,1.499756
0,0.1777778,97,261,498,498,0.176804,-0.3363751,0.4415504,-1.478655,3.084772,-1.667161,-0.07372059,0.07529628,-0.2792141,-1.042257,-2.895812,1.501197
0,0.1888889,97,261,498,498,0.1693496,-0.3280809,0.4169738,-1.483015,3.08803,-1.669139,-0.05525655,0.05404743,-0.3507988,-1.047929,-2.8961,1.501375
0,0.2,100,299,498,519,0.1522928,-0.3123442,0.3944505,-1.487261,3.090915,-1.670686,-0.02222601,0.05187554,-0.3500514,-1.051682,-2.895695,1.500465
0,0.2111111,100,299,498,519,0.1479699,-0.2816207,0.3739654,-1.49108,3.092879,-1.67237,0.002796263,0.03793765,-0.2938452,-1.053335,-2.895632,1.499629
0,0.2222222,100,299,498,519,0.1436629,-0.259379,0.3599336,-1.494988,3.094938,-1.674069,0.003505751,0.02294199,-0.2171733,-1.05392,-2.895784,1.499719
0,0.2333333,100,299,498,519,0.1350093,-0.2052496,0.33713,-1.498165,3.09538,-1.675365,-0.0001339987,0.0250073,-0.1521503,-1.053967,-2.89543,1.499645
0,0.2444444,100,299,498,519,0.1273834,-0.1509697,0.3335019,-1.501869,3.095366,-1.676534,0.00658121,0.05373921,-0.1234219,-1.055014,-2.893842,1.498528
0,0.2555556,101,385,498,497,0.1218669,-0.08816767,0.3266261,-1.505371,3.094312,-1.677609,0.02482431,0.07500486,-0.1129157,-1.056133,-2.892393,1.497065
0,0.2666667,101,385,498,497,0.109949,-0.02427359,0.3282341,-1.508806,3.092577,-1.678481,0.06670735,0.1079393,-0.08345637,-1.05665,-2.89001,1.493981
0,0.2777778,101,385,498,497,0.0552353,0.1064785,0.3154137,-1.511524,3.08766,-1.677418,0.07685948,0.09294198,-0.02177956,-1.055258,-2.889158,1.492412
0,0.2888889,101,385,498,497,-0.01223549,0.2401997,0.2769732,-1.512837,3.081345,-1.67505,0.05456531,0.03105715,0.1083446,-1.050163,-2.890257,1.493052
0,0.3,95,423,502,529,-0.05291522,0.3438713,0.2004599,-1.512329,3.075389,-1.673144,-0.01110093,-0.03281623,0.158971,-1.046835,-2.892388,1.496061
0,0.3111111,95,423,502,529,-0.06794756,0.4147395,0.1402318,-1.511657,3.068969,-1.671608,-0.04023343,-0.09025846,0.1293498,-1.046285,-2.89505,1.49863
0,0.3222222,95,423,502,529,-0.07112444,0.4304816,0.1113373,-1.511701,3.06411,-1.670817,-0.02265723,-0.1211172,0.07800055,-1.046916,-2.897335,1.499354
0,0.3333333,95,423,502,529,-0.07204017,0.3993576,0.08174428,-1.51144,3.060464,-1.669765,0.01806971,-0.1658328,-0.001273141,-1.048973,-2.901094,1.499899
0,0.3444445,95,423,502,529,-0.0718443,0.3470359,0.06723948,-1.511755,3.058245,-1.66894,0.02124893,-0.1700973,-0.003440401,-1.048718,-2.903258,1.500585
0,0.3555556,91,453,499,506,-0.03941569,0.2032235,0.05348374,-1.512236,3.059697,-1.669356,0.0239216,-0.179755,0.05511721,-1.046333,-2.905759,1.501455
0,0.3666667,91,453,499,506,-0.01355542,0.1169566,0.04566295,-1.512614,3.060443,-1.670019,-0.004121177,-0.1563423,0.1267848,-1.04298,-2.906533,1.502579
0,0.3777778,91,453,499,506,0.01982742,0.01462343,0.02412933,-1.512512,3.063022,-1.671269,-0.02743252,-0.1083744,0.1323882,-1.041335,-2.906297,1.50342
0,0.3888889,91,453,499,506,0.02227313,-0.06761033,-0.004003714,-1.512015,3.065676,-1.671775,-0.0299125,-0.0007090494,0.07820919,-1.042231,-2.903021,1.502145
0,0.4,91,453,499,506,0.02553079,-0.08363464,-0.01239402,-1.511899,3.066607,-1.672049,-0.01718952,0.03230793,0.06641587,-1.041773,-2.901704,1.501294
0,0.4111111,89,459,499,490,0.02229194,-0.06769847,-0.01678288,-1.511605,3.067003,-1.672244,-0.01076408,0.0408158,0.06848793,-1.040996,-2.901174,1.500963
0,0.4222222,89,459,499,490,0.01901392,-0.04211753,-0.01378768,-1.511564,3.066706,-1.672411,-0.01382699,0.02907971,0.08449032,-1.039502,-2.901176,1.501248
0,0.4333333,89,459,499,490,0.01460397,0.002642493,-0.009876472,-1.51141,3.065458,-1.672383,-0.01886634,-0.008239113,0.1207171,-1.037034,-2.902329,1.502187
0,0.4444444,89,459,499,490,0.01343906,0.03778423,-0.01120987,-1.511135,3.064219,-1.672595,-0.03690316,-0.07214609,0.1399905,-1.034846,-2.904874,1.504522
0,0.4555556,87,326,498,497,0.01018662,0.05801101,-0.01242142,-1.511032,3.063037,-1.67262,-0.0445989,-0.1029967,0.1197857,-1.033951,-2.906853,1.506186
0,0.4666667,87,326,498,497,0.004818819,0.07180659,-0.01678524,-1.510789,3.062032,-1.672395,-0.04395121,-0.1189297,0.07821466,-1.034045,-2.908843,1.507629
0,0.4777778,87,326,498,497,0.002678037,0.07709493,-0.02109402,-1.510305,3.061074,-1.672294,-0.04311694,-0.1114386,0.05264639,-1.034077,-2.909883,1.508592
0,0.4888889,87,326,498,497,-0.009104341,0.09514005,-0.02338263,-1.509843,3.059785,-1.671675,-0.04327926,-0.06666589,0.02819073,-1.034495,-2.909335,1.50876
0,0.5,87,326,498,497,-0.01336324,0.09937145,-0.02448647,-1.509452,3.058762,-1.671572,-0.052761,-0.05174499,0.03682064,-1.033781,-2.909556,1.509675
0,0.5111111,89,572,497,488,-0.01869409,0.102526,-0.0277159,-1.508939,3.057602,-1.671153,-0.06652056,-0.0336212,0.04336448,-1.033103,-2.909377,1.5107
0,0.5222223,89,572,497,488,-0.01973754,0.09823471,-0.02981609,-1.508465,3.056865,-1.670969,-0.06768469,-0.02188304,0.03059698,-1.033228,-2.90935,1.511362
0,0.5333334,89,572,497,488,-0.02184273,0.09076304,-0.03082817,-1.508019,3.056122,-1.670614,-0.06025013,-0.01656425,0.02733645,-1.033013,-2.90939,1.51185
0,0.5444446,89,572,497,488,-0.03247509,0.08434165,-0.03080583,-1.507509,3.055327,-1.66995,-0.05173358,-0.02829267,0.02830685,-1.032596,-2.910082,1.512508
0,0.5555557,83,341,499,497,-0.0420278,0.07260165,-0.02966771,-1.50717,3.054885,-1.669196,-0.04311673,-0.04003317,0.03993181,-1.031766,-2.910853,1.513139
0,0.5666668,83,341,499,497,-0.04301497,0.05018993,-0.0348232,-1.506662,3.054978,-1.668669,-0.0420179,-0.04430293,0.04417913,-1.031106,-2.911532,1.513944
0,0.577778,83,341,499,497,-0.03439445,0.01825444,-0.03562742,-1.506345,3.055647,-1.66852,-0.04525959,-0.03470999,0.03783619,-1.030786,-2.911725,1.514662
0,0.5888891,83,341,499,497,-0.02365707,-0.003051673,-0.04077718,-1.505751,3.056187,-1.668713,-0.05272932,-0.0101922,0.03260978,-1.030577,-2.911075,1.515113
0,0.6000003,83,341,499,497,-0.01933879,-0.02436006,-0.04273537,-1.505186,3.056774,-1.668568,-0.05278303,0.01431518,0.02305655,-1.030538,-2.91022,1.51528
0,0.6111114,77,272,500,495,-0.02248943,-0.03606734,-0.04053465,-1.504821,3.05767,-1.668311,-0.04846963,0.03667666,0.02624442,-1.030119,-2.909084,1.515269
0,0.6222225,77,272,500,495,-0.02463301,-0.03816436,-0.035199,-1.504585,3.058126,-1.667826,-0.04201069,0.04306671,0.03258075,-1.029647,-2.908129,1.515114
0,0.6333337,77,272,500,495,-0.02568379,-0.04453489,-0.03195622,-1.50439,3.058819,-1.66755,-0.03340003,0.06115627,0.03891197,-1.02909,-2.906695,1.514496
0,0.6444448,77,272,500,495,-0.02883887,-0.05515293,-0.02762005,-1.504235,3.059516,-1.667405,-0.03440356,0.06435423,0.04425793,-1.028446,-2.905681,1.514314
0,0.655556,75,271,499,495,-0.03198846,-0.0669216,-0.03286235,-1.503827,3.060619,-1.667042,-0.04406524,0.06863999,0.03583198,-1.028344,-2.904633,1.514543
0,0.6666671,75,271,499,495,-0.03512978,-0.08185115,-0.03382852,-1.503425,3.061935,-1.666746,-0.04535604,0.05375469,0.01451533,-1.028903,-2.904438,1.514971
0,0.6777782,75,271,499,495,-0.03720033,-0.0978542,-0.03583203,-1.503284,3.063512,-1.666474,-0.03907872,0.03244416,0.00591115,-1.028979,-2.90471,1.515379
0,0.6888894,75,271,499,495,-0.03612896,-0.1020712,-0.03046824,-1.503258,3.064744,-1.666224,-0.03491526,0.02498905,-0.003728098,-1.029285,-2.904643,1.515539
0,0.7000005,75,271,499,495,-0.03613673,-0.1031009,-0.02620037,-1.503164,3.065877,-1.665854,-0.0328297,0.02073649,-0.009086636,-1.02964,-2.904401,1.515553
0,0.7111117,76,309,497,499,-0.03192484,-0.0923631,-0.01667905,-1.503411,3.066649,-1.665662,-0.03488897,0.03351847,-0.003724555,-1.02956,-2.903538,1.515524
0,0.7222228,76,309,497,499,-0.02980301,-0.08805287,-0.01031061,-1.503618,3.067593,-1.665681,-0.0358404,0.0409736,0.006949889,-1.029187,-2.902611,1.515444
0,0.7333339,76,309,497,499,-0.03196964,-0.07949688,-0.005053196,-1.503766,3.068211,-1.665338,-0.03367781,0.04203588,0.009060227,-1.029064,-2.901993,1.515293
0,0.7444451,76,309,497,499,-0.02562773,-0.06664389,0.001255547,-1.504004,3.068607,-1.665253,-0.02945802,0.04736848,0.003694759,-1.029299,-2.901149,1.515062
0,0.7555562,76,309,497,499,-0.02779931,-0.05596547,0.005431492,-1.504209,3.068916,-1.664901,-0.02519704,0.04736193,0.003654257,-1.029297,-2.900549,1.514908
0,0.7666674,76,276,498,499,-0.02891129,-0.045291,0.009608264,-1.504429,3.06923,-1.664472,-0.03056884,0.03244865,0.001554333,-1.029353,-2.900774,1.515536
0,0.7777785,76,276,498,499,-0.03424963,-0.03892753,0.009548746,-1.504552,3.069666,-1.664123,-0.03485917,0.02713058,-0.0005438298,-1.02946,-2.900605,1.515968
0,0.7888896,76,276,498,499,-0.03423821,-0.04317413,0.01171493,-1.504829,3.070294,-1.663818,-0.03594765,0.02713694,-0.00373035,-1.029604,-2.90021,1.516086
0,0.8000008,76,276,498,499,-0.03209452,-0.04742462,0.0128162,-1.505081,3.07099,-1.663601,-0.03066476,0.01967011,-0.006984917,-1.029759,-2.900276,1.516347
0,0.8111119,76,287,498,492,-0.03209309,-0.04848141,0.01389069,-1.505306,3.071504,-1.663266,-0.01675696,0.005790044,0.00138942,-1.029507,-2.900604,1.516351
0,0.8222231,76,287,498,492,-0.02677882,-0.04846521,0.01495589,-1.505426,3.072152,-1.663039,-0.009231761,-0.00274616,0.009822077,-1.029289,-2.900736,1.516332
0,0.8333342,76,287,498,492,-0.02147136,-0.04416296,0.01812832,-1.50573,3.072494,-1.662986,-0.005005874,-0.01233788,0.007640039,-1.029233,-2.901223,1.516528
0,0.8444453,76,287,498,492,-0.01617788,-0.03243092,0.01805164,-1.505991,3.072561,-1.662995,-0.008247366,-0.01019151,0.002344923,-1.029372,-2.901186,1.516698
0,0.8555565,76,287,498,492,-0.01088638,-0.02175698,0.01904102,-1.50616,3.072576,-1.663024,-0.01037383,0.007929928,-0.0008117801,-1.029504,-2.900495,1.516434
0,0.8666676,76,321,498,483,-0.005571757,-0.01641579,0.01794523,-1.506346,3.072546,-1.663153,-0.01453729,0.01857954,0.007762937,-1.029227,-2.89992,1.516417
0,0.8777788,76,321,498,483,-0.001325846,-0.01319775,0.01898816,-1.506506,3.072626,-1.663196,-0.01233619,0.02495846,0.01414781,-1.028837,-2.899409,1.51622
0,0.8888899,76,321,498,483,0.004015433,-0.01320937,0.01473951,-1.506619,3.072682,-1.663485,-0.0144551,0.0228257,0.01842244,-1.028558,-2.89916,1.516676
0,0.900001,76,321,498,483,0.005063478,-0.00894083,0.01576716,-1.506732,3.072693,-1.663543,-0.01565058,0.0175147,0.005652296,-1.028699,-2.899127,1.516866
0,0.9111122,73,281,498,502,0.007181044,-0.001531599,0.009322803,-1.506655,3.072607,-1.663643,-0.006236536,-0.002723267,-0.009375667,-1.029186,-2.899798,1.517043
0,0.9222233,73,281,498,502,0.00396066,0.005900722,0.008187681,-1.50662,3.072449,-1.663559,0.003290997,-0.006981839,-0.01478929,-1.029324,-2.899788,1.516787
0,0.9333345,73,281,498,502,0.006073016,0.01229088,0.007077266,-1.50665,3.07212,-1.663676,0.009736635,-0.01126035,-0.008463501,-1.029222,-2.900087,1.516649
0,0.9444456,73,281,498,502,0.01029537,0.02716836,0.0005800667,-1.506434,3.071482,-1.663807,0.005508445,-0.002736343,-0.005212751,-1.029122,-2.899832,1.516771
0,0.9555568,73,281,498,502,0.0102883,0.02824988,0.002702431,-1.506497,3.071123,-1.663893,-0.0008342736,0.002594998,-0.0008848399,-1.02902,-2.899619,1.516853
0,0.9666679,75,303,498,494,0.01028959,0.02611514,0.001651084,-1.506435,3.070865,-1.663874,-0.01258984,-0.0005832333,-0.002908332,-1.029133,-2.899769,1.51757
0,0.977779,75,303,498,494,0.01348028,0.02825145,0.001638749,-1.5064,3.070554,-1.664109,-0.008399852,-0.005908468,-0.009344592,-1.029356,-2.899999,1.517684
0,0.9888902,75,303,498,494,0.01350899,0.02074847,-0.003628341,-1.506262,3.070618,-1.664198,-0.002033575,-0.009111701,-0.01153956,-1.029527,-2.900221,1.517646
0,1.000001,75,303,498,494,0.01353467,0.01329573,-0.00357081,-1.50624,3.070575,-1.664374,-0.002075199,-0.006966822,-0.01579828,-1.029804,-2.900098,1.517685
0,1.011112,75,303,498,494,0.01352945,0.01436913,-0.002513681,-1.506217,3.070385,-1.664508,-0.004216044,-0.0005692791,-0.01790114,-1.030065,-2.899935,1.517694
0,1.022224,76,259,498,496,0.01248703,0.009028608,-0.003538745,-1.506166,3.070459,-1.664697,-0.00628954,0.006889815,-0.01255208,-1.030149,-2.899552,1.517697
0,1.033335,76,259,498,496,0.01461838,0.01009384,-0.004618017,-1.505955,3.070304,-1.66494,-0.008357828,0.01434392,-0.007196958,-1.030087,-2.899109,1.517602
0,1.044446,76,259,498,496,0.0114247,0.003730301,-0.0003211011,-1.505978,3.070355,-1.664826,-0.005110937,0.01860007,-0.002940827,-1.029747,-2.898649,1.517269
0,1.055557,76,259,498,496,0.007186598,-0.004788959,0.001867183,-1.506081,3.070631,-1.664798,-0.002985606,0.02179393,-0.004022628,-1.029851,-2.89826,1.517042
0,1.066668,75,293,498,495,0.007186106,-0.006915023,0.001871954,-1.505947,3.070714,-1.664791,-0.003104992,0.01221382,-0.01467948,-1.03019,-2.898488,1.517259
0,1.077779,75,293,498,495,0.009353841,-0.0133202,0.0008638273,-1.50603,3.071197,-1.665213,-0.004237527,0.001572034,-0.02001673,-1.030666,-2.898778,1.517481
0,1.08889,75,293,498,495,0.006164031,-0.01118316,0.001906723,-1.506064,3.071131,-1.665391,-0.001134114,-0.009076782,-0.02858408,-1.031238,-2.899268,1.517612
0,1.100002,75,293,498,495,0.007196194,-0.0005168924,0.003956286,-1.506138,3.070933,-1.665544,-0.001061764,-0.01228017,-0.02007066,-1.031291,-2.899425,1.517741
0,1.111113,75,293,498,495,0.002914779,0.001615264,0.00713143,-1.506351,3.070972,-1.665348,-0.003084358,-0.008028171,-0.009392991,-1.031118,-2.899376,1.517798
0,1.122224,75,251,498,500,-0.00456962,0.005891768,0.0134711,-1.506559,3.070926,-1.665047,-0.0008962885,-0.004836874,-0.005139754,-1.030996,-2.899259,1.517531
0,1.133335,75,251,498,500,-0.009913607,0.009103263,0.01769852,-1.506844,3.0707,-1.664758,0.0001910781,-0.01016874,-0.001960299,-1.030915,-2.899545,1.517654
0,1.144446,75,251,498,500,-0.01097897,0.008055483,0.01983011,-1.507031,3.070544,-1.664609,0.001204336,-0.01656038,-0.005175449,-1.031079,-2.900016,1.518013
0,1.155557,75,251,498,500,-0.01098458,0.008079884,0.0230259,-1.507373,3.070417,-1.664478,7.33491E-05,-0.01974715,-0.0115605,-1.031376,-2.900404,1.518233
0,1.166668,75,246,498,499,-0.01204497,0.006995647,0.02196259,-1.50752,3.070453,-1.664327,-0.001036054,-0.02082034,-0.01581639,-1.03171,-2.900945,1.51859
0,1.17778,75,246,498,499,-0.01202599,0.003782621,0.02091946,-1.507703,3.070634,-1.664318,0.001193001,-0.01551561,-0.00624795,-1.031555,-2.901086,1.518593
0,1.188891,75,246,498,499,-0.01308458,0.002685044,0.01773687,-1.507916,3.070708,-1.664136,0.001204893,-0.009123001,-0.005173033,-1.031518,-2.900973,1.518619
0,1.200002,75,246,498,499,-0.01200952,-0.000522189,0.01563295,-1.50805,3.070765,-1.66398,-0.00842724,0.00685816,-0.01251778,-1.031839,-2.900785,1.518861
0,1.211113,75,246,498,499,-0.01095043,0.00270249,0.01774202,-1.508295,3.070483,-1.663974,-0.008454037,-0.003794473,-0.01359564,-1.032,-2.901186,1.519176
0,1.222224,74,232,498,502,-0.006677663,0.001637174,0.01562706,-1.508411,3.070456,-1.664083,-0.00316757,-0.008086408,-0.01684304,-1.032164,-2.901923,1.519457
0,1.233335,74,232,498,502,-0.004539993,0.0005623744,0.01350836,-1.508501,3.070505,-1.664081,0.004237099,-0.01554996,-0.02118354,-1.032498,-2.902401,1.519447
0,1.244446,74,232,498,502,-0.003478184,0.0005513757,0.0103181,-1.508576,3.070334,-1.663921,0.004233629,-0.0176868,-0.02118045,-1.032639,-2.902777,1.519621
0,1.255558,74,232,498,502,0.0007848442,0.0005566936,0.009260217,-1.508667,3.070319,-1.664043,0.004297468,-0.009170649,-0.01584439,-1.032676,-2.902617,1.519486
0,1.266669,74,232,498,502,-0.0002734708,-0.0005001471,0.010333,-1.508841,3.070291,-1.664066,-0.003096318,0.0004143717,-0.01044613,-1.032783,-2.902432,1.519694
0,1.27778,75,313,499,490,0.006137315,-0.005812098,0.009323476,-1.508998,3.070462,-1.664316,-0.005163105,0.01106651,-0.006158832,-1.032852,-2.901957,1.519455
0,1.288891,75,313,499,490,0.005087181,-0.009060473,0.002951869,-1.508821,3.070671,-1.66428,-0.001995614,0.01213081,-0.009385986,-1.033092,-2.901789,1.519287
0,1.300002,75,313,499,490,0.006164227,-0.01013001,0.0008342445,-1.50882,3.070697,-1.664431,0.003276561,0.003600987,-0.01370598,-1.033351,-2.90213,1.519264
0,1.311113,75,313,499,490,0.008288113,-0.007992765,0.0008216545,-1.508829,3.07074,-1.664563,0.01069196,-0.005991019,-0.01805876,-1.033789,-2.902543,1.518918
0,1.322224,76,289,499,498,0.005076526,-0.003727748,0.002913737,-1.50891,3.070674,-1.664544,0.01393629,-0.002798544,-0.01382808,-1.033881,-2.902334,1.518564
0,1.333336,76,289,499,498,0.01248987,0.01119533,0.0006743248,-1.508673,3.070095,-1.664863,0.01187039,0.00677955,-0.008476419,-1.033917,-2.902037,1.518353
0,1.344447,76,289,499,498,0.01247171,0.01756701,-0.001500913,-1.50863,3.069793,-1.664954,0.007622657,0.008917068,-0.007368839,-1.034,-2.901844,1.51831
0,1.355558,76,289,499,498,0.01458664,0.0207939,0.001674158,-1.508726,3.06943,-1.665169,0.001267882,0.01318599,-0.004112659,-1.034023,-2.9015,1.518305
0,1.366669,76,289,499,498,0.01674022,0.01441615,0.001731294,-1.508794,3.069352,-1.665446,0.0001676464,0.0142615,-0.007298208,-1.034234,-2.901219,1.518277
0,1.37778,75,290,498,498,0.01357659,0.005876118,0.0007295995,-1.508846,3.069505,-1.665566,0.005463887,0.007866617,-0.009489235,-1.034425,-2.901303,1.518112
0,1.388891,75,290,498,498,0.01571527,0.002702266,0.002889394,-1.508959,3.069571,-1.665824,0.00755371,0.002537532,-0.01164565,-1.034583,-2.901493,1.51824
0,1.400002,75,290,498,498,0.01572148,0.0005712124,0.00184577,-1.509019,3.069499,-1.665963,0.006514752,0.0003931639,-0.008439191,-1.034518,-2.901726,1.518333
0,1.411114,75,290,498,498,0.01358148,0.002692247,0.001823868,-1.509016,3.06947,-1.666009,0.01190843,0.0003797114,-0.002103261,-1.034429,-2.901674,1.517927
0,1.422225,73,280,499,508,0.01462758,0.005875075,0.001802123,-1.50905,3.069552,-1.666086,0.01404376,0.0003763149,-0.002122351,-1.03444,-2.90165,1.517619
0,1.433336,73,280,499,508,0.01566274,0.01546578,0.00173069,-1.50903,3.069112,-1.666256,0.01514995,0.001432145,0.0021209,-1.034414,-2.901646,1.517437
0,1.444447,73,280,499,508,0.0135385,0.01334215,0.001748964,-1.509114,3.068841,-1.66632,0.009787095,0.003578503,-0.002097145,-1.034746,-2.901518,1.517419
0,1.455558,73,280,499,508,0.01248431,0.01012697,-0.001418916,-1.509099,3.068691,-1.66634,0.01077441,0.005713322,-0.01062849,-1.035115,-2.901466,1.517264
0,1.466669,73,280,499,508,0.01039072,-0.002648966,0.0008091528,-1.509258,3.069068,-1.666449,0.01081859,0.009975368,-0.006371277,-1.03521,-2.901109,1.516995
0,1.47778,72,307,498,492,0.01042047,-0.009076178,-0.003404011,-1.509123,3.069392,-1.66663,0.01404525,0.009970026,-0.003208943,-1.035197,-2.90092,1.516656
0,1.488891,72,307,498,492,0.01254619,-0.01118061,-0.000190837,-1.509233,3.069625,-1.666776,0.0151959,0.008894091,0.006367718,-1.034858,-2.900788,1.516465
0,1.500003,72,307,498,492,0.01359889,-0.005861478,-0.002357173,-1.509172,3.069489,-1.666952,0.01420508,0.004624088,0.01489524,-1.034444,-2.900836,1.516343
0,1.511114,72,307,498,492,0.01680737,-0.01115085,0.0008912538,-1.509395,3.06971,-1.667247,0.009940766,0.002494216,0.01599957,-1.034245,-2.900949,1.516556
0,1.522225,75,288,498,499,0.01145144,-0.002665163,-0.001306254,-1.509391,3.069561,-1.667133,0.004502885,0.005706882,0.003274583,-1.034532,-2.900872,1.516561
0,1.533336,75,288,498,499,0.00930828,0.004765402,-0.003494117,-1.509316,3.069407,-1.667275,0.006629928,0.003571905,0.003255217,-1.034451,-2.900885,1.516428
0,1.544447,75,288,498,499,0.009315804,0.001570338,-0.003477019,-1.509187,3.069491,-1.667345,0.01088394,0.00888862,0.002161932,-1.034366,-2.900673,1.516135
0,1.555558,75,288,498,499,0.009278895,0.01009995,-0.002480867,-1.509103,3.069178,-1.667329,0.00770278,0.005685242,0.004317523,-1.034286,-2.900842,1.516214
0,1.566669,75,288,498,499,0.009265616,0.01436059,-0.002513195,-1.509052,3.068905,-1.667399,0.007731357,0.002485329,0.007504298,-1.034193,-2.900916,1.516124
0,1.577781,73,269,498,497,0.006074625,0.01327989,-0.002511239,-1.509014,3.068891,-1.667401,0.006643732,0.001419826,0.005382637,-1.034182,-2.900986,1.51613
0,1.588892,73,269,498,497,0.007168394,0.005813434,-0.004589438,-1.508835,3.068996,-1.667528,0.003432286,0.007818846,0.003291281,-1.03421,-2.90067,1.516081
0,1.600003,73,269,498,497,0.003996143,-0.004829958,-0.00238501,-1.508851,3.06925,-1.667434,-0.0008646478,0.01101923,-0.0009219437,-1.034286,-2.900549,1.516154
0,1.611114,73,269,498,497,0.004021852,-0.01123805,-0.003401217,-1.50882,3.069647,-1.667564,-0.007304508,0.01316405,-0.007254387,-1.034604,-2.900375,1.516207
0,1.622225,72,235,499,515,0.001893362,-0.01124232,-0.003407592,-1.508756,3.069726,-1.667575,-0.003016122,0.003570641,-0.001983821,-1.034529,-2.900554,1.516308
0,1.633336,72,235,499,515,-0.0002708511,-0.001650563,-0.001358226,-1.508714,3.069567,-1.667521,0.001210324,-0.01241602,-0.003102483,-1.034501,-2.901249,1.516523
0,1.644447,72,235,499,515,0.001825201,0.006909722,0.002836528,-1.508759,3.069285,-1.667577,0.00229969,-0.0241395,0.001133589,-1.034369,-2.901877,1.516771
0,1.655559,72,235,499,515,-0.001417674,0.02183117,0.004845425,-1.508762,3.068655,-1.667494,-0.0019553,-0.01987443,0.001172854,-1.034449,-2.902037,1.517001
0,1.66667,72,235,499,515,-0.002497931,0.02503866,0.006948625,-1.508853,3.068336,-1.66739,-0.006156099,-0.008155532,0.005485825,-1.03432,-2.901747,1.517011
0,1.677781,72,277,498,486,-0.003556685,0.02185605,0.009100704,-1.508982,3.068162,-1.667315,-0.01251825,-0.002819308,0.007691075,-1.034074,-2.901567,1.517213
0,1.688892,72,277,498,486,-0.008842823,0.0111617,0.005973572,-1.508946,3.068333,-1.667086,-0.01360756,-0.007079151,0.006631977,-1.034008,-2.901827,1.517615
0,1.700003,72,277,498,486,-0.01307991,0.003653046,0.0006947684,-1.508803,3.068439,-1.666728,-0.01473899,-0.01026485,0.0002468422,-1.034175,-2.902036,1.517925
0,1.711114,72,277,498,486,-0.009848649,-0.0069976,-0.0002835556,-1.50882,3.068816,-1.666739,-0.0105073,-0.008138992,-0.001917145,-1.034189,-2.902093,1.518098
0,1.722225,72,277,498,486,-0.008759868,-0.01658418,-0.001274833,-1.508792,3.069129,-1.666566,-0.01367143,-0.0145243,0.00236558,-1.034051,-2.902361,1.518443
0,1.733337,72,265,498,492,-0.004478325,-0.02401388,-0.0001452321,-1.508871,3.069485,-1.666639,-0.01249361,-0.01028069,0.0140781,-1.033549,-2.902391,1.518635
0,1.744448,72,265,498,492,-0.005516111,-0.03253037,0.0009810249,-1.508944,3.070048,-1.666623,-0.0199459,0.009978041,0.01097553,-1.033584,-2.901596,1.518587
0,1.755559,72,265,498,492,-0.006552199,-0.04211972,-5.920418E-06,-1.509063,3.070603,-1.666505,-0.01252053,0.02169331,0.00559279,-1.033691,-2.900939,1.51819
0,1.76667,72,265,498,492,-0.007607653,-0.0421572,-0.004264063,-1.509029,3.071081,-1.666444,-0.009337721,0.02488865,0.00343256,-1.033765,-2.900558,1.517954
0,1.777781,70,232,499,505,-0.009723221,-0.04432417,-0.007448967,-1.508885,3.071712,-1.666354,-0.01043882,0.02169347,0.0002420648,-1.033866,-2.900429,1.518052
0,1.788892,70,232,499,505,-0.008675745,-0.03689892,-0.01176633,-1.508682,3.071982,-1.666272,-0.01150364,0.01423735,0.001310848,-1.033811,-2.900467,1.518204
0,1.800003,70,232,499,505,-0.01190321,-0.028376,-0.01183078,-1.50863,3.071937,-1.665971,-0.006235271,-0.003878204,-0.001963692,-1.033996,-2.901076,1.518451
0,1.811115,70,232,499,505,-0.008793919,-0.004919983,-0.009877611,-1.508496,3.071485,-1.665825,-0.004080796,-0.01453943,0.002264716,-1.033839,-2.901596,1.518705
0,1.822226,70,232,499,505,-0.009927788,0.01322574,-0.00469394,-1.50848,3.070949,-1.665626,-0.001881874,-0.0209438,0.009694258,-1.033472,-2.902059,1.518892
0,1.833337,71,291,499,497,-0.01314866,0.01958954,-0.005812244,-1.508372,3.070728,-1.665306,-0.002927809,-0.02094597,0.01183203,-1.033335,-2.902272,1.518977
0,1.844448,71,291,499,497,-0.01315029,0.02064671,-0.006889562,-1.508193,3.070513,-1.665146,-0.007173859,-0.02094379,0.01187747,-1.033142,-2.902577,1.519134
0,1.855559,71,291,499,497,-0.01528207,0.02277813,-0.004779945,-1.508159,3.070315,-1.665022,0.0002636067,-0.01988943,0.009673964,-1.033129,-2.902812,1.51908
0,1.86667,71,291,499,497,-0.01529229,0.02597364,-0.004804905,-1.508051,3.069938,-1.664826,0.004545022,-0.01243894,0.01071153,-1.032928,-2.902705,1.518883
0,1.877781,72,352,499,494,-0.01530615,0.02811275,-0.005877121,-1.508011,3.069337,-1.664494,0.009902118,-0.0124497,0.01279015,-1.032753,-2.902846,1.51856
0,1.888893,72,352,499,494,-0.01424797,0.03129721,-0.008034801,-1.507746,3.068885,-1.664325,0.004612934,-0.01351034,0.01710386,-1.032386,-2.903044,1.518778
0,1.900004,72,352,499,494,-0.01210746,0.03235096,-0.01017152,-1.507537,3.068549,-1.664361,0.004588398,-0.01669963,0.01710225,-1.032173,-2.903229,1.519112
0,1.911115,72,352,499,494,-0.01103368,0.0270358,-0.01012251,-1.507478,3.068296,-1.664119,0.002412498,-0.01988962,0.0128583,-1.032114,-2.903652,1.519348
0,1.922226,72,352,499,494,-0.01527075,0.01850909,-0.008998276,-1.507419,3.06829,-1.663849,0.003424942,-0.01349438,0.005398603,-1.032269,-2.903697,1.519173
0,1.933337,69,287,499,494,-0.012048,0.009970987,-0.01319291,-1.507117,3.068313,-1.663683,0.009763899,-0.008169878,-0.00104706,-1.032445,-2.903659,1.518893
0,1.944448,69,287,499,494,-0.009921996,0.01105058,-0.01213242,-1.506989,3.068176,-1.663645,0.01089612,-0.001781308,0.004268856,-1.032355,-2.90343,1.518543
0,1.955559,69,287,499,494,-0.006720645,0.01107829,-0.008927306,-1.507015,3.068168,-1.663796,0.00453657,-0.01455081,0.009644432,-1.03207,-2.903803,1.518836
0,1.966671,69,287,499,494,-0.007796106,0.01533125,-0.01002771,-1.50683,3.06786,-1.663678,0.005584962,-0.02520512,0.009624759,-1.031898,-2.904444,1.519085
0,1.977782,69,287,499,494,-0.00886626,0.0185079,-0.01112534,-1.506551,3.067693,-1.663578,0.007637493,-0.04012458,0.004274859,-1.031764,-2.905532,1.51955
0,1.988893,72,281,498,499,-0.007829707,0.02599677,-0.005857313,-1.506552,3.067388,-1.663576,0.01406605,-0.04227024,0.008474067,-1.031518,-2.906124,1.519534
0,2.000004,72,281,498,499,-0.005731307,0.03454513,-0.00379259,-1.506433,3.066736,-1.663522,0.01515656,-0.0369487,0.009531852,-1.031412,-2.906432,1.519395
0,2.011115,72,281,498,499,-0.003619029,0.0398852,-0.002758627,-1.506461,3.066156,-1.6635,0.01196886,-0.02522535,0.008511866,-1.031335,-2.90639,1.519367
0,2.022226,72,281,498,499,-0.004704748,0.0473369,-0.00282365,-1.506278,3.065494,-1.663415,0.01305678,-0.01883508,0.01063983,-1.031139,-2.906391,1.519295
0,2.033337,72,316,499,498,-0.004706817,0.04734076,-0.001758555,-1.506244,3.065033,-1.663338,0.009789488,-0.009236743,0.001088004,-1.031491,-2.906347,1.519172
0,2.044448,72,316,499,498,-0.0004394781,0.04837758,-0.007079875,-1.506058,3.064511,-1.663405,0.008662483,-0.002835985,-0.006353848,-1.031785,-2.906217,1.519052
0,2.055559,72,316,499,498,0.001727684,0.03771297,-0.00912957,-1.505846,3.064459,-1.663441,0.005532441,0.001431767,-0.002054332,-1.031642,-2.905974,1.518687
0,2.06667,72,316,499,498,0.002829069,0.02495035,-0.006901473,-1.505794,3.06449,-1.663495,0.008757725,-0.01136285,0.00322629,-1.031464,-2.906505,1.518803
0,2.077781,72,316,499,498,0.007118786,0.01749402,-0.007907227,-1.505606,3.064548,-1.663737,0.01940521,-0.02203218,0.004173485,-1.031436,-2.907131,1.518599
0,2.088892,71,293,498,493,0.008189978,0.01327129,-0.003614992,-1.505612,3.064474,-1.663849,0.02149438,-0.01990259,-0.0001068192,-1.031599,-2.907355,1.518529
0,2.100003,71,293,498,493,0.01033244,0.01011873,-0.0003890232,-1.505605,3.064268,-1.664112,0.0140037,-0.01562494,-0.004291904,-1.031765,-2.907438,1.518625
0,2.111114,71,293,498,493,0.009273315,0.006937705,0.001764123,-1.505737,3.064211,-1.664185,0.0118741,-0.001769638,-0.006384815,-1.031907,-2.907009,1.518317
0,2.122225,71,293,498,493,0.00927167,0.008004026,0.001758009,-1.50578,3.064071,-1.664316,0.005427314,0.006767595,-0.01162938,-1.032024,-2.906712,1.518526
0,2.133336,71,292,498,496,0.007129496,0.01332079,0.0006408489,-1.505601,3.063743,-1.664367,0.01076106,0.009956943,-0.01060277,-1.03203,-2.906455,1.518248
0,2.144447,71,292,498,496,0.007104761,0.01868702,0.00593403,-1.505911,3.063372,-1.664463,0.01076111,0.004628065,-0.009547049,-1.032152,-2.90661,1.518228
0,2.155558,71,292,498,496,0.009240359,0.021881,0.004847116,-1.505871,3.063038,-1.664765,0.005405092,0.0003838059,-0.01270471,-1.032476,-2.906634,1.518205
0,2.166669,71,292,498,496,0.004964474,0.02507913,0.006948084,-1.50601,3.062659,-1.664665,0.005382409,-0.00067777,-0.01483304,-1.032641,-2.906658,1.518165
0,2.17778,71,292,498,496,0.007120452,0.01655222,0.005962944,-1.506216,3.062746,-1.664766,0.003307252,-0.01240069,-0.007371738,-1.032535,-2.907168,1.518374
0,2.188891,69,250,499,508,0.006068958,0.006980704,0.009232802,-1.50648,3.062967,-1.664688,0.003324059,-0.007076367,-0.006301839,-1.0326,-2.907114,1.51833
0,2.200002,69,250,499,508,0.007178585,-0.005813981,0.007206184,-1.506574,3.063336,-1.664849,-0.0009744307,-0.001732618,-0.0115863,-1.032962,-2.906895,1.518256
0,2.211113,69,250,499,508,0.007197186,-0.01114842,0.006181595,-1.506627,3.063602,-1.664951,8.108933E-05,0.01105136,-0.01477596,-1.033216,-2.906417,1.517975
0,2.222224,69,250,499,508,0.002953926,-0.01862573,0.006226029,-1.506665,3.06408,-1.664818,-0.004144912,0.01956645,-0.01366401,-1.033406,-2.906109,1.517823
0,2.233335,70,273,498,504,0.004006574,-0.01543119,0.005145498,-1.506789,3.064105,-1.664835,-0.005172565,0.01957007,-0.0104615,-1.033492,-2.905813,1.517668
0,2.244446,70,273,498,504,0.0007906593,-0.01220024,0.01150709,-1.507103,3.064173,-1.664798,-0.008347949,0.01211169,-0.007245387,-1.033508,-2.905947,1.517883
0,2.255557,70,273,498,504,-0.0003124671,-0.001531343,0.01143359,-1.507282,3.063601,-1.664666,-0.00417356,-0.0113226,-0.01264376,-1.033799,-2.906788,1.51822
0,2.266668,70,273,498,504,0.0007343283,0.005921556,0.01031036,-1.507292,3.063359,-1.664728,-0.002039397,-0.01772535,-0.01162416,-1.034135,-2.907289,1.5184
0,2.277779,70,273,498,504,-0.002457435,0.003782682,0.01031199,-1.507272,3.063367,-1.664562,-0.00094538,-0.018796,-0.00843978,-1.034151,-2.907606,1.518528
0,2.28889,70,265,498,498,-0.006715193,0.0006056887,0.01458986,-1.507569,3.063433,-1.664381,-0.0008994052,-0.008136756,-0.006299951,-1.034241,-2.907223,1.518226
0,2.300001,70,265,498,498,-0.004550949,-0.008944118,0.01892899,-1.507939,3.063752,-1.664602,-0.01043078,0.01318192,-0.004047219,-1.034161,-2.906426,1.51816
0,2.311112,70,265,498,498,0.0008124169,-0.02167923,0.02435999,-1.508247,3.064283,-1.664825,-0.01046943,0.01958548,-0.009370398,-1.03447,-2.905959,1.518005
0,2.322223,70,265,498,498,0.00299,-0.0365955,0.02340903,-1.508645,3.065151,-1.664981,-0.01255748,0.02064881,-0.005088631,-1.034442,-2.90569,1.518047
0,2.333334,70,265,498,498,0.001943229,-0.04404852,0.02559061,-1.509007,3.065919,-1.665013,-0.01372664,0.008941961,-0.01467937,-1.034842,-2.906003,1.518318
0,2.344445,71,273,499,496,0.005158756,-0.04937125,0.02457003,-1.509303,3.06655,-1.665203,-0.00737079,-0.0006554774,-0.01688159,-1.035059,-2.906315,1.518399
0,2.355556,71,273,499,496,-0.003364347,-0.04727144,0.0245333,-1.50953,3.067026,-1.665064,-0.01058017,-0.009175169,-0.01686171,-1.035226,-2.906692,1.518801
0,2.366668,71,273,499,496,-0.00874367,-0.03339922,0.02974461,-1.509981,3.067008,-1.66485,-0.01059616,-0.008107396,-0.01898726,-1.035433,-2.90676,1.518915
0,2.377779,71,273,499,496,-0.02052647,-0.0131748,0.03275836,-1.510286,3.066705,-1.664405,-0.009500763,-0.004911679,-0.01578669,-1.035396,-2.906623,1.518981
0,2.38889,70,254,499,501,-0.02589673,-0.002548095,0.03053269,-1.510481,3.066396,-1.663771,-0.01368042,0.0004068511,-0.008279131,-1.035227,-2.906544,1.519184
0,2.400001,70,254,499,501,-0.02589856,-0.002524857,0.03373444,-1.511015,3.066427,-1.663576,-0.01900413,0.0004153028,-0.00822954,-1.035338,-2.906546,1.519489
0,2.411112,70,254,499,501,-0.01310277,0.0006809437,0.0305464,-1.511416,3.066384,-1.663982,-0.0179219,-0.001719411,-0.006111638,-1.035339,-2.906633,1.519704
0,2.422223,70,254,499,501,-0.007756552,-0.002530355,0.02632216,-1.511666,3.066493,-1.664078,-0.01373763,-0.01343664,-0.01256551,-1.035771,-2.907197,1.519988
0,2.433334,70,254,499,501,-0.007752262,-0.001488349,0.02311833,-1.51184,3.066454,-1.664,-0.006256407,-0.02410005,-0.008384973,-1.035722,-2.907697,1.520117
0,2.444445,70,259,498,495,-0.01094452,0.001649301,0.01669108,-1.511787,3.066338,-1.663821,-0.004106879,-0.02410653,-0.006274461,-1.035701,-2.908006,1.520288
0,2.455556,70,259,498,495,-0.01948977,0.007997331,0.01449511,-1.511824,3.066082,-1.663254,-0.008389262,-0.02409482,-0.008369076,-1.035942,-2.90825,1.520667
0,2.466667,70,259,498,495,-0.01844947,0.01756736,0.01229573,-1.511923,3.065708,-1.66308,-0.007235732,-0.01878167,0.0001474065,-1.03574,-2.908364,1.520774
0,2.477778,70,259,498,495,-0.02164891,0.0186297,0.01334942,-1.512109,3.065494,-1.662777,-0.008219944,-0.01450663,0.007623695,-1.035385,-2.908039,1.520676
0,2.488889,69,264,499,494,-0.0258862,0.01430553,0.006983914,-1.512024,3.065473,-1.662364,-0.008256517,-0.01769863,0.004427302,-1.035365,-2.908381,1.520964
0,2.5,69,264,499,494,-0.03120129,0.01002117,0.005940622,-1.512041,3.065478,-1.661809,0.0002130698,-0.01877292,-0.0009900359,-1.03568,-2.908725,1.520885
0,2.511111,69,264,499,494,-0.02264928,0.002574007,0.003882483,-1.512067,3.065672,-1.661871,0.002318982,-0.0208901,-0.002072818,-1.035646,-2.908812,1.521019
0,2.522222,69,264,499,494,-0.02049588,-0.001730382,-0.004598115,-1.511842,3.065602,-1.661614,0.00338819,-0.01876261,-0.002079356,-1.035641,-2.909023,1.521068
0,2.533333,69,264,499,494,-0.01943692,0.00357221,-0.008887103,-1.511765,3.065349,-1.661439,0.0001363512,-0.02300946,-0.006317575,-1.035843,-2.909383,1.521459
0,2.544444,72,341,498,495,-0.01518803,0.007846754,-0.008910685,-1.511676,3.065171,-1.661379,-0.004136713,-0.01767574,-0.008400908,-1.035987,-2.9095,1.521678
0,2.555555,72,341,498,495,-0.01417551,0.01960025,-0.004742303,-1.511627,3.064628,-1.661093,-0.001959794,-0.01341489,-0.004140405,-1.035704,-2.909403,1.521591
0,2.566666,72,341,498,495,-0.01423091,0.03665301,-0.003810606,-1.51147,3.063772,-1.660868,0.002432301,-0.02089807,0.0107219,-1.035189,-2.909918,1.521691
0,2.577777,72,341,498,495,-0.01318648,0.03989239,0.000428915,-1.511536,3.06315,-1.660663,0.001452623,-0.03050655,0.02138061,-1.034554,-2.91075,1.522164
0,2.588888,71,280,499,500,-0.01317874,0.03880982,-0.001692382,-1.511438,3.06279,-1.660526,0.001446713,-0.03476801,0.02137447,-1.034324,-2.911311,1.522426
0,2.599999,71,280,499,500,-0.009978823,0.03773393,-0.003813853,-1.511226,3.062494,-1.660441,0.00450251,-0.02836824,0.006442468,-1.034635,-2.911536,1.522512
0,2.61111,71,280,499,500,0.0006928691,0.03562898,-0.004842138,-1.51117,3.062159,-1.660879,0.006546683,-0.01556462,-0.005272434,-1.034895,-2.911201,1.522144
0,2.622221,71,280,499,500,0.002829161,0.03351346,-0.003760906,-1.511054,3.061841,-1.660943,0.005522519,-0.001716692,-0.003115204,-1.034889,-2.910804,1.521922
0,2.633332,71,280,499,500,0.007087053,0.03351959,-0.004821497,-1.510913,3.061468,-1.661024,0.002386708,0.008939506,0.001185704,-1.034806,-2.910318,1.521696
0,2.644443,70,259,499,498,0.011358,0.03244509,-0.00800214,-1.510703,3.061125,-1.661274,0.002439536,0.00999737,0.006512434,-1.034587,-2.910196,1.521591
0,2.655554,70,259,499,498,0.01244198,0.02818744,-0.009036008,-1.510536,3.060823,-1.66146,0.001382655,-0.001712845,0.007584626,-1.034321,-2.910483,1.521499
0,2.666665,70,259,499,498,0.01778832,0.01970953,-0.004692035,-1.510725,3.06088,-1.661803,0.002343154,-0.01022565,-0.0020226,-1.034577,-2.910893,1.521652
0,2.677776,70,259,499,498,0.01674736,0.01332864,-0.002512027,-1.510774,3.060882,-1.662077,0.005458249,-0.01554344,-0.01057849,-1.034883,-2.911209,1.521542
0,2.688887,70,259,499,498,0.01569545,0.009064223,-0.002481357,-1.510748,3.060893,-1.662226,0.005448121,-0.0155425,-0.01164414,-1.035025,-2.911399,1.521581
0,2.699998,71,334,499,489,0.01781233,0.01123309,0.002842511,-1.511045,3.060768,-1.662518,0.003417821,-0.008097427,-0.003087256,-1.03474,-2.911274,1.521419
0,2.711109,71,334,499,489,0.01673702,0.0144255,0.002816264,-1.511044,3.060532,-1.662666,0.003441086,-0.009155625,-0.0009505823,-1.034591,-2.911258,1.521307
0,2.72222,71,334,499,489,0.0177544,0.02408279,0.01126683,-1.51134,3.059955,-1.662819,0.003470492,-0.009160453,0.00224481,-1.034485,-2.911372,1.521333
0,2.733331,71,334,499,489,0.01455224,0.02194925,0.01127939,-1.511438,3.059695,-1.662712,0.001322425,-0.008080706,0.001204629,-1.034454,-2.911283,1.521464
0,2.744442,70,288,498,498,0.01345782,0.03048632,0.01334051,-1.511544,3.059086,-1.662839,0.003363403,-0.01340235,-0.007345953,-1.034803,-2.911657,1.521557
0,2.755553,70,288,498,498,0.01131744,0.03367908,0.01437544,-1.511683,3.058681,-1.662911,0.006523233,-0.02087145,-0.008448796,-1.034865,-2.91228,1.521922
0,2.766664,70,288,498,498,0.008104381,0.03794493,0.01646825,-1.511876,3.058162,-1.662908,0.01071173,-0.02620037,-0.01488852,-1.035205,-2.912846,1.522013
0,2.777775,70,288,498,498,0.01021615,0.04326331,0.01536724,-1.511989,3.057645,-1.662997,0.01287884,-0.01662014,-0.01276824,-1.035333,-2.912808,1.521772
0,2.788886,70,288,498,498,0.0123329,0.04648206,0.01747711,-1.512188,3.057003,-1.663155,0.007589766,-0.01235439,-0.009516774,-1.035347,-2.912834,1.521846
0,2.799997,71,298,499,498,0.009157395,0.04004972,0.01325627,-1.512145,3.056708,-1.663042,0.001254881,0.00363445,-0.006236816,-1.035319,-2.912243,1.521676
0,2.811108,71,298,499,498,0.009169793,0.03789483,0.01007669,-1.51213,3.056348,-1.663109,0.001241378,0.001505108,-0.007304529,-1.035427,-2.912297,1.521691
0,2.822219,71,298,499,498,0.007091031,0.02296782,0.009120675,-1.512215,3.056473,-1.663186,0.004489506,-0.004900964,-0.000947587,-1.035177,-2.912638,1.521689
0,2.83333,71,298,499,498,0.001809169,0.009094361,0.008149473,-1.512266,3.056762,-1.663056,0.01075044,-0.01662318,-0.01273514,-1.035553,-2.913404,1.521813
0,2.844441,70,215,499,502,0.003959804,0.003774208,0.00820189,-1.512483,3.056789,-1.66322,0.009622877,-0.02406911,-0.0180598,-1.035878,-2.913887,1.521996
0,2.855552,70,215,499,502,0.008231221,0.001643062,0.007154398,-1.512465,3.056924,-1.663448,0.009687944,-0.02300699,-0.01166605,-1.035803,-2.914059,1.521953
0,2.866663,70,215,499,502,0.01036018,0.001673437,0.01035241,-1.512647,3.056882,-1.663676,0.00544551,-0.01128277,-0.01161177,-1.035933,-2.913851,1.521884
0,2.877774,70,215,499,502,0.01143434,0.0006110849,0.01035683,-1.512685,3.056906,-1.663923,0.005482289,0.00257631,-0.01052472,-1.035982,-2.913211,1.521423
0,2.888885,70,215,499,502,0.009299268,0.002730746,0.00926737,-1.51268,3.056742,-1.66395,0.006553984,0.01002669,-0.011588,-1.036114,-2.913002,1.521134
0,2.899997,72,273,498,497,0.0103372,0.01232202,0.009185933,-1.512587,3.056338,-1.664123,0.007680699,0.01001726,-0.00520859,-1.036005,-2.912868,1.520938
0,2.911108,72,273,498,497,0.006063776,0.01762435,0.008070238,-1.512588,3.056052,-1.664095,0.006559683,-0.00595901,-0.008416716,-1.036213,-2.913499,1.521213
0,2.922219,72,273,498,497,0.002856758,0.01867676,0.009123462,-1.512728,3.055965,-1.663964,0.007595827,-0.01128214,-0.01056681,-1.036445,-2.913771,1.521242
0,2.93333,72,273,498,497,0.006037362,0.0229434,0.009087096,-1.512666,3.05567,-1.664092,0.006476525,-0.01340859,-0.01480485,-1.036484,-2.914051,1.521497
0,2.944441,73,275,498,502,0.004990609,0.01760683,0.008051835,-1.512599,3.055619,-1.664098,0.008626884,-0.01235121,-0.01269826,-1.036636,-2.914233,1.521469
0,2.955552,73,275,498,502,-0.0003244001,0.01440065,0.00913522,-1.512753,3.05555,-1.663977,0.01294289,-0.009174606,-0.007409269,-1.036565,-2.91434,1.521276
0,2.966663,73,275,498,502,-0.0003104745,0.01118091,0.005961,-1.512685,3.055511,-1.663949,0.008715793,-0.005977877,-0.004172622,-1.036573,-2.914362,1.521318
0,2.977774,73,275,498,502,-0.001357338,0.007965882,0.004911803,-1.512622,3.055618,-1.664002,0.003382887,-0.009158505,-0.003050727,-1.036454,-2.914435,1.521646
0,2.988885,73,275,498,502,0.001833689,0.004784555,0.003892189,-1.512833,3.05545,-1.663859,0.002332937,-0.01235523,-0.0009137695,-1.036397,-2.914688,1.521783
0,2.999996,76,232,498,507,-0.000295019,0.004769712,0.002823231,-1.512832,3.055402,-1.663801,0.0001659375,-0.01341072,-0.005158398,-1.036593,-2.914884,1.521846
0,3.011107,76,232,498,507,-0.003466018,0.0004700521,-0.002479109,-1.512631,3.055363,-1.663674,0.002289622,-0.0112822,-0.006241496,-1.036692,-2.914975,1.521815
0,3.022218,76,232,498,507,-0.001345587,0.002624816,-0.0003623902,-1.512638,3.055243,-1.663718,0.002349534,-0.005960522,-0.000915284,-1.036657,-2.91484,1.521708
0,3.033329,76,232,498,507,-0.00454883,0.005784778,-0.003593204,-1.512435,3.055158,-1.663542,0.000307702,-0.007026899,0.007619875,-1.036425,-2.914857,1.521639
0,3.04444,76,232,498,507,-0.00562948,0.01110809,-0.003635762,-1.512362,3.054884,-1.663458,-0.00185471,-0.008085125,0.004442025,-1.036509,-2.915014,1.521793
0,3.055551,76,258,498,494,-0.005672941,0.02071616,-0.001582844,-1.512281,3.05433,-1.66324,-0.004007952,-0.007011191,0.001260917,-1.036707,-2.915043,1.521824
0,3.066662,76,258,498,494,-0.005663132,0.0175281,-0.002612597,-1.51234,3.05401,-1.663133,-0.007186435,-0.002745373,0.002361327,-1.036634,-2.914958,1.521929
0,3.077773,76,258,498,494,-0.005657921,0.01645471,-0.00366972,-1.512265,3.053859,-1.663049,-0.008231448,-0.00167747,0.004500736,-1.036576,-2.914889,1.522038
0,3.088884,76,258,498,494,-0.007765248,0.009001762,-0.004681752,-1.512163,3.053711,-1.662864,-0.0125387,-0.004861018,0.000276719,-1.036685,-2.91505,1.522396
0,3.099995,77,333,498,497,-0.008791116,-0.001682306,-0.00778934,-1.512142,3.054073,-1.662774,-0.01044705,-0.008068625,-0.001863618,-1.036556,-2.915437,1.522827
0,3.111106,77,333,498,497,-0.01092306,-0.003795131,-0.006705751,-1.512172,3.053947,-1.662524,-0.006180502,-0.01020786,-0.0008352983,-1.03644,-2.915651,1.522897
0,3.122217,77,333,498,497,-0.008798289,-0.001662895,-0.006709266,-1.512217,3.053963,-1.662498,-0.008268181,-0.01447468,0.004503482,-1.036265,-2.916012,1.523263
0,3.133328,77,333,498,497,-0.01201037,0.002608071,-0.004606621,-1.512349,3.053774,-1.662278,-0.009269342,-0.01234154,0.01091691,-1.035863,-2.915955,1.523365
0,3.144439,77,333,498,497,-0.01627547,0.002609959,-0.002477874,-1.51246,3.053744,-1.661985,-0.01244911,-0.00807872,0.01201598,-1.035727,-2.915954,1.52362
0,3.15555,80,352,497,493,-0.0173336,0.003664022,-0.003551689,-1.512397,3.053676,-1.661892,-0.01569674,-0.003793658,0.005659338,-1.035866,-2.915674,1.523716
0,3.166661,80,352,497,493,-0.01838115,0.001510889,-0.005666555,-1.512303,3.053766,-1.661793,-0.01461727,-0.006996941,0.00777291,-1.035753,-2.915915,1.523973
0,3.177772,80,352,497,493,-0.01837633,-0.0006115052,-0.004585033,-1.512296,3.053829,-1.661592,-0.01354235,-0.01445478,0.009890296,-1.035475,-2.916275,1.524259
0,3.188883,80,352,497,493,-0.01835951,-0.002744691,-0.007757572,-1.512191,3.053606,-1.661433,-0.01039218,-0.0155187,0.005595917,-1.035554,-2.916451,1.524409
0,3.199994,79,279,498,505,-0.01941811,-0.004878564,-0.00774316,-1.512111,3.05372,-1.661204,-0.010435,-0.01125279,0.0002748098,-1.035678,-2.916506,1.524557
0,3.211105,79,279,498,505,-0.02048361,0.0004263013,-0.009910807,-1.512015,3.053611,-1.661139,-0.01146705,-0.001660878,0.001361367,-1.035625,-2.916172,1.524397
0,3.222216,79,279,498,505,-0.01728337,-0.001674538,-0.007761549,-1.51195,3.053644,-1.661049,-0.01140292,0.0004629828,0.00775687,-1.035358,-2.916104,1.524497
0,3.233327,79,279,498,505,-0.02155676,0.001509345,-0.006735158,-1.511805,3.05365,-1.660722,-0.00920888,-0.004878469,0.01518972,-1.034932,-2.916385,1.524661
0,3.244438,79,279,498,505,-0.02049359,0.002580245,-0.006741017,-1.511727,3.053576,-1.660506,-0.007085412,-0.01233552,0.01516048,-1.034784,-2.916708,1.524794
0,3.255549,77,281,498,489,-0.01834816,-0.002724991,-0.005629964,-1.511726,3.053643,-1.660361,-0.01342898,-0.01339895,0.02054423,-1.034432,-2.91692,1.525266
0,3.26666,77,281,498,489,-0.02046857,-0.005915915,-0.004548689,-1.511644,3.053758,-1.6601,-0.01558327,-0.009130685,0.01737376,-1.034326,-2.91688,1.525479
0,3.277771,77,281,498,489,-0.02043578,-0.01341337,-0.009818139,-1.511408,3.054136,-1.65991,-0.009181548,-0.00380641,0.01732266,-1.034094,-2.916572,1.525208
0,3.288882,77,281,498,489,-0.02148772,-0.01769184,-0.01192218,-1.511187,3.054404,-1.659599,0.0004005842,0.002559125,0.01618829,-1.033699,-2.916566,1.525007
0,3.299993,77,281,498,489,-0.02043208,-0.01342432,-0.01195486,-1.511049,3.054409,-1.659454,-0.000712065,0.005762617,0.01087418,-1.033749,-2.916397,1.525019
0,3.311104,76,280,498,498,-0.0172353,-0.01127722,-0.01302799,-1.510888,3.054302,-1.65942,0.0002980977,0.003626342,0.006612593,-1.033595,-2.916575,1.525241
0,3.322215,76,280,498,498,-0.01512628,-0.003812088,-0.01308925,-1.510642,3.054173,-1.659305,-0.005008377,-0.002762618,0.00985098,-1.03341,-2.916845,1.52558
0,3.333326,76,280,498,498,-0.01515039,0.003651765,-0.01208688,-1.510418,3.053991,-1.659137,-0.004999359,-0.000632355,0.009853741,-1.033288,-2.916789,1.525514
0,3.344437,76,280,498,498,-0.007705469,0.005830978,-0.008898805,-1.510334,3.053869,-1.659249,-0.008192737,-0.004893924,0.01094128,-1.033182,-2.917067,1.525831
0,3.355548,75,270,498,504,-0.009817014,0.002620023,-0.01101577,-1.510035,3.05385,-1.659158,-0.003830146,-0.007043376,0.02154974,-1.032654,-2.917176,1.525759
0,3.366659,75,270,498,504,-0.01089159,0.005838049,-0.007847338,-1.509996,3.053647,-1.65908,0.001505411,-0.01238469,0.0236186,-1.032384,-2.917556,1.52582
0,3.37777,75,270,498,504,-0.01087595,0.002617901,-0.01101874,-1.5098,3.053721,-1.658966,0.00144306,-0.01451146,0.01722335,-1.03241,-2.917846,1.525936
0,3.388881,75,270,498,504,-0.008774782,0.006917737,-0.006783686,-1.509882,3.053495,-1.658781,0.00347434,-0.01556355,0.006543437,-1.032712,-2.918005,1.525871
0,3.399992,75,270,498,504,-0.007721354,0.01118857,-0.005749937,-1.509813,3.053292,-1.65875,-0.00184535,0.00255309,0.004480353,-1.032795,-2.917517,1.525827
0,3.411103,76,275,498,497,-0.006682351,0.01548753,-0.0004561372,-1.50992,3.053095,-1.658627,-0.003936791,0.01001215,0.006627998,-1.032843,-2.917164,1.525633
0,3.422215,76,275,498,497,-0.003477876,0.0112599,0.002776268,-1.510004,3.053082,-1.658668,-0.007078839,0.01213872,0.011985,-1.032613,-2.917021,1.525724
0,3.433326,76,275,498,497,-0.004529781,0.004886355,0.006019754,-1.510187,3.053217,-1.658585,-0.008105019,0.004680214,0.01624759,-1.032316,-2.917154,1.525751
0,3.444437,76,275,498,497,-0.003437771,-0.001534185,0.00181612,-1.510184,3.05337,-1.65859,-0.006065072,-0.0006411741,0.007697969,-1.032486,-2.917371,1.52588
0,3.455548,75,282,498,497,-0.001293809,-0.005788516,0.001852299,-1.510233,3.053562,-1.658652,-0.005019422,-0.0006338619,0.005558404,-1.032457,-2.917283,1.525845
0,3.466659,75,282,498,497,-0.0002287519,-0.00683604,0.00399908,-1.510443,3.053652,-1.658693,-0.004011856,0.003636773,-0.001906347,-1.03271,-2.917088,1.525687
0,3.47777,75,282,498,497,-0.001305094,-0.00472469,0.001844737,-1.510301,3.05365,-1.658524,-0.003969297,0.01108775,0.001297324,-1.032634,-2.916772,1.525549
0,3.488881,75,282,498,497,0.001892667,-0.00364328,0.002911296,-1.510407,3.053682,-1.658738,-0.001847392,0.01534649,0.0002223594,-1.032592,-2.916461,1.525429
0,3.499992,75,282,498,497,0.001868811,0.001704834,0.006069512,-1.510591,3.053555,-1.65874,-0.002910198,0.01108314,0.00129078,-1.03257,-2.916502,1.52554
0,3.511103,77,230,499,502,0.0008024108,-0.002544411,0.007161348,-1.510636,3.053598,-1.658546,-0.002902241,-0.001703164,0.003404634,-1.032511,-2.916916,1.525665
0,3.522214,77,230,499,502,0.0008016424,-0.002537241,0.008224513,-1.510724,3.053631,-1.658587,-0.007255377,-0.00701459,-0.005085396,-1.032795,-2.91716,1.526031
0,3.533325,77,230,499,502,0.002945269,-0.005734719,0.006127633,-1.510822,3.053651,-1.658673,-0.006204934,-0.01127614,-0.006168081,-1.03293,-2.917439,1.526182
0,3.544436,77,230,499,502,0.000811426,-0.004670496,0.007185241,-1.510993,3.053698,-1.65865,-0.001974341,-0.004887392,-0.01046248,-1.033137,-2.917322,1.526009
0,3.555547,78,286,498,497,0.001852637,-0.0003802761,0.009293496,-1.511262,3.053399,-1.658561,-0.003005813,0.008957356,-0.008301035,-1.033133,-2.916848,1.525948
0,3.566658,78,286,498,497,0.00184929,-0.0003566084,0.01249175,-1.511523,3.053404,-1.658629,-0.00510344,0.01747876,-0.006142334,-1.033186,-2.916399,1.525855
0,3.577769,78,286,498,497,-0.00135147,-0.0003828521,0.01142541,-1.511668,3.053496,-1.658431,-0.01146527,0.01855026,-0.002882735,-1.033144,-2.916125,1.526049
0,3.58888,78,286,498,497,-0.001337759,-0.003586573,0.01038105,-1.511721,3.05364,-1.658461,-0.009358289,0.01002627,-0.003979831,-1.03323,-2.916256,1.526163
0,3.599991,78,286,498,497,-0.001320262,-0.0068148,0.006144349,-1.511677,3.053833,-1.658471,-0.005181567,-0.004887494,-0.01042824,-1.033478,-2.916786,1.526374
0,3.611102,78,255,498,506,-0.001308108,-0.01318642,0.007266027,-1.511904,3.05393,-1.658364,-0.003074804,-0.01234493,-0.01152328,-1.033631,-2.917162,1.526564
0,3.622213,78,255,498,506,-0.002379082,-0.01211269,0.009395954,-1.512221,3.054075,-1.658351,-0.006322786,-0.01339928,-0.0168192,-1.033948,-2.917354,1.526845
0,3.633324,78,255,498,506,-0.00452112,-0.01103272,0.01151101,-1.512356,3.054047,-1.658144,-0.005205018,-0.008079602,-0.01150188,-1.033983,-2.917271,1.526906
0,3.644435,78,255,498,506,-0.003478318,-0.005666026,0.0168051,-1.512761,3.053996,-1.6582,-0.005117873,0.00256476,-0.00403155,-1.033828,-2.916881,1.526768
0,3.655546,78,255,498,506,-0.00456216,-0.001403391,0.01676695,-1.512868,3.053792,-1.658022,-0.008294009,0.004702619,-0.001870008,-1.033832,-2.916684,1.526892
0,3.666657,77,223,498,499,-0.007760786,0.0006900248,0.0135476,-1.512895,3.053783,-1.657838,-0.008283571,0.006830457,-0.0008051234,-1.033873,-2.916582,1.526986
0,3.677768,77,223,498,499,-0.0056389,0.002813953,0.01033681,-1.512881,3.053546,-1.657734,-0.007276323,0.001506225,-0.00614877,-1.03411,-2.9168,1.527125
0,3.688879,77,223,498,499,-0.006714095,0.006011162,0.01137097,-1.512955,3.053426,-1.657654,-0.004120153,-0.002758799,-0.009381822,-1.034333,-2.917053,1.527245
0,3.69999,77,223,498,499,-0.009914298,0.01024583,0.009203456,-1.512979,3.053188,-1.657505,-0.005262308,-0.01020793,-0.01576794,-1.034599,-2.917446,1.527609
0,3.711101,75,222,499,509,-0.009921877,0.01129705,0.00598974,-1.512807,3.052918,-1.657262,-0.006365478,-0.01233552,-0.01895214,-1.034943,-2.917595,1.527745
0,3.722212,75,222,499,509,-0.01098221,0.009169944,0.007070928,-1.512933,3.05287,-1.657106,-0.01057729,-0.01446785,-0.01358769,-1.034801,-2.91796,1.528229
0,3.733323,75,222,499,509,-0.005649147,0.001753351,0.009258837,-1.512982,3.052938,-1.657021,-0.01263285,-0.01126947,-0.006107682,-1.034664,-2.917874,1.528378
0,3.744434,75,222,499,509,-0.008827986,-0.003582842,0.009288427,-1.513028,3.053102,-1.656846,-0.01254015,-0.01021668,0.003480658,-1.034391,-2.917982,1.528573
0,3.755545,75,222,499,509,-0.005610101,-0.01102828,0.009350948,-1.513154,3.053379,-1.656879,-0.0146947,-0.00382068,0.0003151351,-1.034456,-2.917868,1.528782
0,3.766656,74,249,499,499,-0.006663878,-0.01317553,0.008299671,-1.513234,3.053648,-1.656848,-0.01151642,-0.0006297138,-0.001845,-1.034609,-2.917839,1.528849
0,3.777767,74,249,499,499,-0.003467916,-0.010991,0.01362559,-1.513666,3.053598,-1.657104,-0.005121112,0.003619797,-0.001895028,-1.034541,-2.917719,1.528714
0,3.788878,74,249,499,499,-0.008803886,-0.006765786,0.01145559,-1.513758,3.053581,-1.656854,-0.004044032,0.004682168,-0.000838695,-1.034503,-2.917633,1.528685
0,3.799989,74,249,499,499,-0.004582222,0.006042837,0.01243008,-1.513852,3.05308,-1.656935,-0.006245255,0.007881932,-0.009329971,-1.034773,-2.91762,1.528772
0,3.8111,73,281,499,498,-0.00136802,0.002832099,0.009254928,-1.513743,3.053151,-1.657049,-0.007276774,0.008947092,-0.006117568,-1.034713,-2.917444,1.528774
0,3.822211,73,281,499,498,-0.001377946,0.006032203,0.01029147,-1.513815,3.053029,-1.657012,-0.008258797,0.004673304,0.003471877,-1.034441,-2.91754,1.528971
0,3.833322,73,281,499,498,-0.003463972,-0.00146165,0.006083969,-1.513792,3.053219,-1.657158,-0.01040093,0.001479967,0.002413321,-1.034573,-2.917666,1.529184
0,3.844433,73,281,499,498,-0.001297359,-0.01316677,0.007243393,-1.513991,3.053689,-1.657228,-0.0157688,0.001489947,-0.001799027,-1.034763,-2.917697,1.529522
0,3.855544,73,281,499,498,-0.0002119979,-0.01954903,0.007292215,-1.514083,3.053972,-1.657267,-0.01579613,0.008957122,-0.007112599,-1.034919,-2.917286,1.529317
0,3.866655,72,240,499,507,-0.002336736,-0.02062161,0.007286005,-1.514026,3.054232,-1.657222,-0.01257416,0.006816057,-0.003951662,-1.034902,-2.917284,1.529369
0,3.877766,72,240,499,507,-0.0002273628,-0.01208994,0.007220299,-1.514019,3.054099,-1.657349,-0.008253502,-0.004918267,0.003436773,-1.034836,-2.917724,1.529459
0,3.888877,72,240,499,507,-0.001324231,-0.0003911028,0.005002828,-1.514057,3.053789,-1.657292,-0.007171393,-0.00704912,0.005554162,-1.034702,-2.917815,1.52956
0,3.899988,72,240,499,507,-0.00348491,0.01025133,0.003848933,-1.51399,3.053347,-1.657192,-0.008257563,-0.008109925,0.00343449,-1.03473,-2.917899,1.529712
0,3.911099,74,244,498,499,-0.001378616,0.01985665,0.004842002,-1.514002,3.052839,-1.657303,-0.01151287,0.0004240628,-0.005049107,-1.035062,-2.917692,1.529711
0,3.92221,74,244,498,499,-0.002446507,0.01985933,0.005905829,-1.51409,3.052661,-1.657212,-0.007232177,0.0004128166,-0.002958104,-1.034998,-2.917738,1.529709
0,3.933321,74,244,498,499,-0.002433806,0.017736,0.006985008,-1.514157,3.052539,-1.657275,-0.007251051,0.001474108,-0.005083273,-1.035047,-2.917781,1.529833
0,3.944432,74,244,498,499,-0.006635275,0.001703384,0.001773276,-1.514069,3.052958,-1.657126,-0.005052338,-0.0006680014,0.002352966,-1.034813,-2.917822,1.529854
0,3.955544,74,244,498,499,-0.003406616,-0.007887962,-0.0002767525,-1.514084,3.053255,-1.657177,-0.01143391,-0.00492114,0.004546939,-1.034585,-2.917982,1.53029
0,3.966655,75,264,499,494,-0.00231507,-0.01640838,-0.0002102278,-1.514131,3.053666,-1.657219,-0.008267344,-0.003856447,0.001329833,-1.034561,-2.917997,1.530319
0,3.977766,75,264,499,494,-0.000160253,-0.02281175,-0.001221175,-1.514166,3.054241,-1.657326,-0.00718644,0.0004008701,0.002391452,-1.034485,-2.917881,1.530322
0,3.988877,75,264,499,494,-0.002291872,-0.0228356,-0.002286587,-1.514184,3.054591,-1.657212,-0.003929242,0.01210821,0.006641941,-1.034226,-2.917375,1.52997
0,3.999988,75,264,499,494,-0.0001740962,-0.01856391,-0.001249946,-1.514199,3.054735,-1.657317,-0.00713395,0.01957121,0.004551364,-1.034252,-2.916939,1.529934
0,4.011099,75,264,499,494,-0.0001919238,-0.01323226,-0.0002290696,-1.514175,3.054794,-1.657325,-0.007180423,0.01744741,0.0002914346,-1.034326,-2.916767,1.529952
1,4.02221,77,228,498,501,-0.002338836,-0.007916761,-0.0002740684,-1.514159,3.054818,-1.657251,-0.002932681,0.003588508,0.001298193,-1.034317,-2.917157,1.530113
2,4.033321,77,228,498,501,-0.001276968,-0.008960406,0.0008050559,-1.514229,3.054784,-1.657197,-0.0007643523,-0.002810356,0.006600038,-1.034055,-2.917314,1.530186
3,4.044433,77,228,498,501,-0.0002294957,-0.002578926,-0.0003086723,-1.514166,3.054727,-1.657215,-0.0007491605,-0.01133783,0.009786054,-1.033835,-2.917698,1.530429
4,4.055544,77,228,498,501,-0.002372392,0.0005984929,-0.002471162,-1.51401,3.054581,-1.657043,-0.0007631185,-0.007068724,0.007662899,-1.033787,-2.91757,1.53036
5,4.066655,75,282,497,496,-0.001316051,0.00379813,-0.002494097,-1.513979,3.054457,-1.657062,0.001318173,-0.006001548,0.002316538,-1.033923,-2.91762,1.530304
6,4.077766,75,282,497,496,0.002928109,0.008073421,-0.002518885,-1.513968,3.054248,-1.657138,0.003389464,0.002526315,-0.005153263,-1.034218,-2.917313,1.53008
7,4.088878,75,282,497,496,0.003985199,0.007027034,-0.0003820463,-1.513965,3.054238,-1.65706,0.001250452,0.005735078,-0.006204878,-1.034459,-2.91704,1.530023
8,4.099989,75,282,497,496,0.005047139,0.008095654,-0.0003883112,-1.513962,3.054129,-1.657126,-0.00295863,0.01319429,-0.001893122,-1.034349,-2.916649,1.529951
9,4.1111,75,282,497,496,0.004017041,-0.001478114,0.001824743,-1.514227,3.054402,-1.657271,0.0002505812,0.01105366,0.0001966774,-1.034406,-2.916616,1.529891
10,4.122211,77,282,498,501,0.004033395,-0.007863825,0.002942328,-1.514374,3.054675,-1.657287,0.009835155,0.01103593,0.0001042646,-1.034438,-2.916533,1.529492
11,4.133323,77,282,498,501,0.004026842,-0.007852744,0.00507481,-1.514548,3.054834,-1.657277,0.01515512,0.003578275,4.305784E-05,-1.034475,-2.916627,1.529163
12,4.144434,77,282,498,501,0.007255275,-0.01638925,0.001949983,-1.514522,3.055248,-1.657456,0.01294776,0.007851405,-0.00845625,-1.03487,-2.916423,1.529024
13,4.155545,77,282,498,501,0.008307813,-0.0110546,0.0008469963,-1.514516,3.055053,-1.657571,0.01292699,0.006789505,-0.01165935,-1.035194,-2.916388,1.528732
14,4.166656,77,269,498,504,0.00829057,-0.00782673,0.005085315,-1.514714,3.055034,-1.657655,0.01184232,0.004664571,-0.01271816,-1.035358,-2.916377,1.528692
15,4.177768,77,269,498,504,0.007186478,0.001781991,0.008205065,-1.514834,3.054732,-1.657642,0.01394425,-0.007055735,-0.01381742,-1.035517,-2.916846,1.528704
16,4.188879,77,269,498,504,0.0007694112,0.01029139,0.009197295,-1.514959,3.054414,-1.657511,0.01189825,-0.0060001,-0.005275254,-1.035373,-2.916879,1.528636
17,4.19999,77,269,498,504,-0.003520286,0.0188082,0.01019025,-1.515049,3.053947,-1.657321,0.01192693,-0.0006761458,-0.003138533,-1.035354,-2.916713,1.528418
18,4.211102,77,269,498,504,-0.007929627,0.06042036,0.02052194,-1.51541,3.052252,-1.657069,0.01860764,-0.02309117,0.03085823,-1.034232,-2.917476,1.528433
19,4.222213,78,232,498,498,-0.02415843,0.129756,0.03914058,-1.516036,3.048994,-1.656225,0.02590293,-0.04239196,0.1287768,-1.030274,-2.918403,1.528438
20,4.233324,78,232,498,498,-0.05569772,0.3237135,0.06105187,-1.516672,3.040071,-1.654277,0.02865599,-0.009567073,0.3003117,-1.022342,-2.91708,1.527344
21,4.244435,78,232,498,498,-0.1714713,0.5587097,0.05053383,-1.515958,3.027894,-1.648803,0.0168218,0.05106863,0.3899854,-1.015664,-2.914047,1.525929
22,4.255547,78,232,498,498,-0.3018219,0.7165792,-0.01054585,-1.513337,3.015785,-1.64129,0.02182516,0.221712,0.216488,-1.017952,-2.905794,1.521224
23,4.266658,78,232,498,498,-0.4425808,0.8144663,-0.1084826,-1.508596,3.004463,-1.631789,-0.02206228,0.2316574,-0.03024069,-1.025008,-2.903293,1.521329
24,4.277769,78,350,499,501,-0.6574212,0.7365946,-0.1732694,-1.504645,2.998937,-1.618205,-0.1271497,0.1542556,-0.2008507,-1.032119,-2.904103,1.526053
25,4.28888,78,350,499,501,-0.7688685,0.6241564,-0.2034979,-1.501621,2.995491,-1.606468,-0.2096382,0.09583324,-0.2384825,-1.034798,-2.905025,1.531108
26,4.299992,78,350,499,501,-0.9726589,0.4017394,-0.2277161,-1.498764,2.997763,-1.590162,-0.3175495,0.07899261,-0.2683683,-1.038602,-2.904799,1.537725
27,4.311103,78,350,499,501,-1.208196,0.07521515,-0.2011307,-1.497954,3.005693,-1.570799,-0.4298314,0.06323004,-0.3099261,-1.043025,-2.904426,1.545157
28,4.322214,80,257,498,504,-1.449597,-0.3417792,-0.2995957,-1.49181,3.020702,-1.549461,-0.5239654,0.03239274,-0.2324186,-1.044382,-2.904998,1.553975
29,4.333325,80,257,498,504,-1.680538,-0.7106041,-0.3771001,-1.485237,3.037933,-1.526164,-0.5472029,-0.04992712,0.02656367,-1.037336,-2.908219,1.562276
30,4.344437,80,257,498,504,-1.862875,-0.9850941,-0.3923736,-1.479679,3.055266,-1.502531,-0.5761576,-0.1321645,0.2429841,-1.028917,-2.912531,1.571568
31,4.355548,80,257,498,504,-1.974396,-1.087753,-0.3939354,-1.474238,3.069579,-1.479366,-0.6757559,-0.1941475,0.5336083,-1.015407,-2.917408,1.584361
32,4.366659,80,257,498,504,-2.176551,-1.153569,-0.4215073,-1.4672,3.083242,-1.45119,-0.8102647,-0.1653591,0.7235045,-1.002846,-2.918312,1.597414
33,4.37777,76,239,498,506,-2.448163,-1.14091,-0.4647154,-1.458983,3.09458,-1.417964,-0.9513079,-0.09702456,0.7803266,-0.9924946,-2.917854,1.611616
34,4.388882,76,239,498,506,-2.689042,-1.092752,-0.4772486,-1.45167,3.104223,-1.383417,-1.06443,-0.02540696,0.7474293,-0.9852599,-2.916394,1.625213
35,4.399993,76,239,498,506,-2.811625,-1.049717,-0.5129573,-1.443016,3.113269,-1.350513,-1.15758,0.006771088,0.7024155,-0.9781492,-2.916062,1.639139
36,4.411104,76,239,498,506,-2.853203,-1.009739,-0.5570416,-1.433347,3.1218,-1.319357,-1.197049,0.02387702,0.6869971,-0.9709433,-2.916031,1.654489
37,4.422215,75,224,498,495,-2.883283,-0.9110181,-0.5908654,-1.423977,3.127118,-1.287427,-1.235113,0.0835464,0.7066393,-0.9620659,-2.914087,1.667988
38,4.433327,75,224,498,495,-2.931805,-0.7163138,-0.5977838,-1.416474,3.1279,-1.253981,-1.275536,0.1464337,0.7060609,-0.9536993,-2.911209,1.682092
39,4.444438,75,224,498,495,-3.029031,-0.6365603,-0.5751925,-1.409209,3.130666,-1.217811,-1.388554,0.2435024,0.6797351,-0.9450914,-2.906331,1.698177
40,4.455549,75,224,498,495,-3.160414,-0.5240961,-0.5837052,-1.40186,3.130723,-1.178971,-1.506539,0.3651167,0.6884711,-0.9364148,-2.8984,1.71373
41,4.46666,75,224,498,495,-3.154129,-0.487914,-0.58722,-1.393724,3.132626,-1.144662,-1.548335,0.4728062,0.7602744,-0.9255454,-2.890007,1.727284
42,4.477772,74,225,498,501,-3.093534,-0.4567085,-0.5713654,-1.38658,3.133878,-1.112205,-1.551765,0.5259801,0.838144,-0.9130434,-2.883143,1.740537
43,4.488883,74,225,498,501,-3.023324,-0.427708,-0.573589,-1.378936,3.134527,-1.080549,-1.529661,0.5482337,0.9188373,-0.9001325,-2.877535,1.752961
44,4.499994,74,225,498,501,-2.974449,-0.3839577,-0.5812697,-1.371483,3.134132,-1.048331,-1.579026,0.5056039,0.9991761,-0.8861514,-2.874905,1.77017
45,4.511106,74,225,498,501,-3.049341,-0.3000301,-0.5701914,-1.365726,3.132133,-1.011986,-1.597732,0.4875134,1.053605,-0.8726748,-2.871893,1.786519
46,4.522217,470,192,461,496,-3.079354,-0.248862,-0.5546906,-1.360011,3.130112,-0.9764826,-1.639804,0.4587411,1.114707,-0.8579847,-2.87042,1.804843
47,4.533328,470,192,461,496,-3.038126,-0.1748883,-0.512609,-1.356065,3.127378,-0.9431553,-1.637273,0.4639788,1.155166,-0.8433272,-2.867956,1.821057
48,4.544439,470,192,461,496,-2.941555,-0.08588862,-0.4599119,-1.353482,3.12425,-0.9122701,-1.654191,0.4543853,1.163908,-0.8292087,-2.866245,1.838365
49,4.555551,470,192,461,496,-2.828962,-0.01899491,-0.3962938,-1.352223,3.121146,-0.8830147,-1.640019,0.3957801,1.203145,-0.8145134,-2.867765,1.856921
50,4.566662,470,192,461,496,-2.732296,0.04449908,-0.3614217,-1.350899,3.117356,-0.8538382,-1.580983,0.3441396,1.270648,-0.7983688,-2.871086,1.875046
51,4.577773,562,179,504,503,-2.688845,0.1117987,-0.3554595,-1.349994,3.112464,-0.823932,-1.521208,0.3528982,1.265905,-0.7838264,-2.871358,1.890521
52,4.588884,562,179,504,503,-2.603804,0.142117,-0.3245651,-1.349578,3.108525,-0.7958329,-1.493504,0.3997474,1.263512,-0.7689739,-2.869957,1.905795
53,4.599996,562,179,504,503,-2.577426,0.1926194,-0.2779352,-1.350814,3.104671,-0.7667145,-1.473312,0.4540284,1.24425,-0.7541731,-2.867813,1.91999
54,4.611107,562,179,504,503,-2.538085,0.1887168,-0.2384321,-1.351084,3.102123,-0.7387881,-1.467573,0.4242587,1.181308,-0.7421373,-2.868497,1.936589
55,4.622218,437,150,500,500,-2.488019,0.1772948,-0.2190237,-1.351051,3.099606,-0.7117665,-1.506694,0.1932019,1.139854,-0.7329658,-2.881707,1.964105
56,4.633329,437,150,500,500,-2.364389,0.1548172,-0.212514,-1.349364,3.097972,-0.6885875,-1.424859,0.4239271,1.206371,-0.7151877,-2.875273,1.973228
57,4.644441,437,150,500,500,-2.246249,0.1658482,-0.1784549,-1.349703,3.096027,-0.6661072,-1.37133,0.4110096,1.23993,-0.6999655,-2.87908,1.990313
58,4.655552,437,150,500,500,-2.152792,0.2282517,-0.141471,-1.352577,3.092904,-0.6439614,-1.365273,0.3844022,1.204719,-0.6871856,-2.882014,2.007345
59,4.666663,437,150,500,500,-2.085055,0.2794226,-0.1075512,-1.355579,3.090802,-0.619577,-1.365586,0.4558396,1.164283,-0.6735587,-2.879809,2.021085
60,4.677774,471,161,484,502,-2.044752,0.3170226,-0.08646169,-1.359039,3.087761,-0.5971302,-1.350587,0.478122,1.168425,-0.6594136,-2.880713,2.036034
61,4.688886,471,161,484,502,-1.971469,0.3491952,-0.05472215,-1.362338,3.085832,-0.5765978,-1.279384,0.3351989,1.174996,-0.6480067,-2.891656,2.056767
62,4.699997,471,161,484,502,-1.91078,0.349562,-0.03756414,-1.365513,3.083766,-0.556493,-1.268541,0.3649907,1.187736,-0.6337641,-2.895218,2.073256
63,4.711108,471,161,484,502,-1.872607,0.3666786,-0.02392784,-1.368796,3.08156,-0.5353593,-1.271785,0.3810304,1.184514,-0.6202838,-2.898488,2.090291
64,4.722219,471,161,484,502,-1.826886,0.3872994,-0.005985796,-1.373105,3.079104,-0.5160114,-1.214234,0.3947991,1.183991,-0.6064902,-2.902776,2.105707
65,4.733331,464,179,498,500,-1.80453,0.3992165,0.002525479,-1.377649,3.077108,-0.4967988,-1.194863,0.3468708,1.2019,-0.5934418,-2.91122,2.124815
66,4.744442,464,179,498,500,-1.776698,0.3589333,0.0146139,-1.380284,3.07632,-0.477753,-1.217026,0.2581333,1.247684,-0.5815263,-2.92672,2.15145
67,4.755553,464,179,498,500,-1.749923,0.3153758,0.02357605,-1.382457,3.075995,-0.4588797,-1.211309,0.3113507,1.281784,-0.5662009,-2.934799,2.171649
68,4.766665,464,179,498,500,-1.720984,0.2613481,0.04538929,-1.384306,3.076357,-0.4407223,-1.16639,0.3973598,1.302644,-0.5509079,-2.940744,2.188102
69,4.777776,502,172,516,502,-1.704924,0.2327726,0.06162196,-1.386425,3.076678,-0.4221984,-1.135615,0.4228301,1.300146,-0.5365402,-2.948826,2.207057
70,4.788887,502,172,516,502,-1.693113,0.2115619,0.06395262,-1.3885,3.076529,-0.4037107,-1.126978,0.4143395,1.31072,-0.5220488,-2.959692,2.228768
71,4.799998,502,172,516,502,-1.656765,0.1819138,0.0610882,-1.390131,3.076492,-0.3862366,-1.090826,0.4024876,1.309246,-0.5086313,-2.971353,2.24968
72,4.81111,502,172,516,502,-1.636565,0.1883792,0.06534058,-1.392428,3.0765,-0.3686348,-1.036329,0.3076416,1.337379,-0.4960819,-2.990321,2.27616
73,4.822221,502,172,516,502,-1.622853,0.2331282,0.05337983,-1.396434,3.075444,-0.3508368,-1.030782,0.2331195,1.361765,-0.4835598,-3.010388,2.304917
74,4.833332,478,194,494,498,-1.625043,0.2660809,0.0371452,-1.400176,3.073971,-0.3328855,-1.024462,0.2224665,1.355302,-0.4711824,-3.029,2.332634
75,4.844443,478,194,494,498,-1.627001,0.2419667,0.05113038,-1.402905,3.073698,-0.3156267,-1.018116,0.2470422,1.346722,-0.4582618,-3.045536,2.358447
76,4.855555,478,194,494,498,-1.628971,0.203527,0.04077077,-1.404212,3.073541,-0.2974027,-0.9908109,0.2864792,1.299636,-0.445974,-3.060138,2.381798
77,4.866666,478,194,494,498,-1.612788,0.1567248,0.03381586,-1.405205,3.073657,-0.2801166,-0.9707965,0.2886333,1.277083,-0.434287,-3.07864,2.409025
78,4.877777,505,178,490,500,-1.557041,0.06837842,0.01755534,-1.403662,3.073921,-0.2642218,-0.955828,0.3194977,1.283347,-0.4214644,-3.098105,2.437148
79,4.888888,505,178,490,500,-1.520655,0.02585052,0.01155867,-1.402899,3.074123,-0.2483307,-0.7975258,0.4226735,1.340559,-0.4056852,-3.116979,2.45984
80,4.9,505,178,490,500,-1.474666,-0.02509838,0.01416726,-1.401386,3.074762,-0.2332684,-0.6962763,0.5312292,1.332276,-0.3895768,-3.131985,2.478637
81,4.911111,505,178,490,500,-1.448964,-0.0686332,0.01779914,-1.4001,3.0755,-0.2174599,-0.7665197,0.3662777,1.243289,-0.3833748,3.125834,2.51297
82,4.922222,505,178,490,500,-1.398707,-0.1269417,0.03112435,-1.397289,3.076935,-0.203531,-0.8107353,0.3269629,1.192513,-0.3746903,3.102796,2.544714
83,4.933333,456,154,498,496,-1.352813,-0.1544529,0.03567965,-1.395101,3.077957,-0.1896496,-0.7758446,0.3003213,1.161298,-0.3654043,3.079089,2.574177
84,4.944445,456,154,498,496,-1.313389,-0.1586042,0.03363153,-1.393312,3.078487,-0.1758794,-0.6778813,0.2863699,1.156118,-0.356348,3.052974,2.603197
85,4.955556,456,154,498,496,-1.268632,-0.1616534,0.03160551,-1.391494,3.079105,-0.1630307,-0.6063514,0.2905483,1.1672,-0.3464884,3.024162,2.634895
86,4.966667,456,154,498,496,-1.222839,-0.1614383,0.0391272,-1.389811,3.080029,-0.1505719,-0.5920823,0.2650822,1.098871,-0.339406,3.000212,2.663892
87,4.977778,456,154,498,496,-1.197316,-0.1496186,0.04014769,-1.388546,3.080694,-0.1380274,-0.5841405,0.2342426,1.040173,-0.3333287,2.975435,2.693605
88,4.98889,470,164,498,493,-1.164339,-0.1335197,0.03691518,-1.387743,3.081212,-0.1260123,-0.573999,0.2362424,1.040965,-0.3268892,2.943326,2.732223
89,5.000001,470,164,498,493,-1.12176,-0.1174928,0.02301882,-1.386838,3.081196,-0.1146507,-0.5540066,0.2032201,1.017312,-0.3214883,2.913905,2.765747
90,5.011112,470,164,498,493,-1.087746,-0.08977886,0.009016678,-1.386495,3.080942,-0.103443,-0.5382988,0.1621152,0.9980451,-0.3148357,2.881775,2.803779
91,5.022223,470,164,498,493,-1.055934,-0.04927342,0.0001447648,-1.386605,3.080431,-0.09179384,-0.5350055,0.1728366,1.000242,-0.3082976,2.847697,2.842472
91,5.033335,590,250,445,498,-1.031592,-0.007605746,0.004130647,-1.387521,3.080458,-0.0808541,-0.5086362,0.1813505,0.9701778,-0.303309,2.817865,2.875898
91,5.044446,590,250,445,498,-1.006101,0.01168718,0.007225767,-1.388137,3.080564,-0.07043635,-0.4771085,0.1569096,0.9198153,-0.2997031,2.790711,2.906163
91,5.055557,590,250,445,498,-0.9593123,0.03109097,0.01462114,-1.389009,3.080875,-0.06097733,-0.4597143,0.100481,0.8492995,-0.2985409,2.765532,2.934845
91,5.066669,590,250,445,498,-0.9263623,0.04935988,0.01669478,-1.390118,3.081127,-0.05136332,-0.4378653,0.05257738,0.7894135,-0.2975305,2.741485,2.961694
91,5.07778,590,250,445,498,-0.9020233,0.09314137,0.01853329,-1.392396,3.08127,-0.04208007,-0.416893,0.03233451,0.7561784,-0.2963789,2.71612,2.989957
91,5.088891,606,256,517,495,-0.898898,0.1186638,0.005572423,-1.394506,3.080829,-0.03180134,-0.4095894,0.03769714,0.7358719,-0.2945046,2.690455,3.018762
91,5.100002,606,256,517,495,-0.8913985,0.1090706,0.001398981,-1.395453,3.080703,-0.02206163,-0.3905228,0.03981376,0.7239792,-0.2931214,2.664172,3.047753
91,5.111114,606,256,517,495,-0.8443229,0.04223298,0.01157109,-1.39419,3.080963,-0.0136764,-0.36598,0.05894727,0.7205841,-0.2913051,2.63704,3.076808
91,5.122225,606,256,517,495,-0.8186277,0.003014848,0.01941067,-1.393655,3.081476,-0.005285842,-0.3329782,0.06528288,0.7138962,-0.2900768,2.610173,3.105178
91,5.133336,703,354,523,495,-0.7832921,-0.04694384,0.01773022,-1.391735,3.081673,0.002382464,-0.3236476,0.0503765,0.6882297,-0.289712,2.585697,3.131966
91,5.144447,703,354,523,495,-0.7511609,-0.08742717,-0.007429689,-1.390385,3.080885,0.01032934,-0.3205704,0.03864944,0.6775333,-0.2897583,2.560338,-3.123402
91,5.155559,703,354,523,495,-0.7297109,-0.1131576,-0.03808707,-1.388452,3.079592,0.01814198,-0.2935962,0.06735313,0.7103308,-0.2885333,2.529404,-3.091188
91,5.16667,703,354,523,495,-0.7083061,-0.1397282,-0.04638667,-1.3867,3.078588,0.02582094,-0.2671536,0.1067995,0.6770979,-0.2862334,2.505675,-3.066491
91,5.177781,703,354,523,495,-0.6890594,-0.1588616,-0.04940001,-1.38445,3.077896,0.03310416,-0.2636152,0.09193736,0.6003454,-0.286088,2.488992,-3.047694
91,5.188892,598,323,497,495,-0.6463376,-0.1970742,-0.05115636,-1.381323,3.077107,0.03969814,-0.254603,0.04722485,0.5448291,-0.2871633,2.472792,-3.029542
91,5.200004,598,323,497,495,-0.591903,-0.2404893,-0.04964327,-1.378236,3.076288,0.04553579,-0.2369552,0.02912802,0.4977756,-0.2878249,2.457511,-3.012712
91,5.211115,598,323,497,495,-0.5321121,-0.2870606,-0.03639241,-1.373811,3.076008,0.04998221,-0.2024957,0.008906722,0.423943,-0.2884715,2.44729,-3.001705
91,5.222226,598,323,497,495,-0.4958154,-0.3135047,-0.02652564,-1.369821,3.075888,0.05478921,-0.156021,0.01958004,0.3723746,-0.2877716,2.43737,-2.992204
91,5.233337,715,284,459,494,-0.4360806,-0.3409329,-0.01768433,-1.365238,3.075707,0.05800471,-0.1188457,0.03658679,0.3581873,-0.2875213,2.424546,-2.979525
91,5.244449,715,284,459,494,-0.3935145,-0.3354259,-0.01228717,-1.361774,3.075782,0.06153127,-0.09632407,0.07814182,0.3644054,-0.2858749,2.407909,-2.963156
91,5.25556,715,284,459,494,-0.3096261,-0.2709861,0.01825462,-1.360467,3.076788,0.06237603,-0.0632678,0.1345624,0.3598695,-0.2835313,2.391975,-2.948064
91,5.266671,715,284,459,494,-0.2683647,-0.2024702,0.04338737,-1.359853,3.078095,0.06440109,-0.07259429,0.1101361,0.2757906,-0.2831958,2.388259,-2.943542
91,5.277782,715,284,459,494,-0.2461187,-0.1640619,0.04099697,-1.359017,3.078451,0.06646611,-0.08911239,0.07291744,0.2205197,-0.2834397,2.385347,-2.939688
91,5.288894,630,309,516,487,-0.2090064,-0.1044087,0.02462319,-1.359149,3.078329,0.06797026,-0.08698702,0.05908767,0.2215859,-0.2834211,2.374062,-2.9279
91,5.300005,630,309,516,487,-0.2048078,-0.08313037,0.01913876,-1.358788,3.078369,0.07012369,-0.08285998,0.06976993,0.2034488,-0.2823995,2.366374,-2.919983
91,5.311116,630,309,516,487,-0.1836886,-0.02662306,0.01230694,-1.360233,3.077829,0.07184942,-0.0704762,0.05274695,0.163927,-0.2822189,2.36199,-2.915332
91,5.322227,630,309,516,487,-0.1477439,0.04485876,0.005385622,-1.363045,3.077115,0.07338021,-0.0812539,0.02933529,0.1522939,-0.282776,2.357805,-2.91037
91,5.333339,630,309,516,487,-0.0905607,0.1494437,0.004678402,-1.367413,3.077423,0.07281934,-0.08456321,-0.0175205,0.1448362,-0.28431,2.354114,-2.906035
91,5.34445,725,358,442,496,-0.06729411,0.1921732,0.01186507,-1.370159,3.07831,0.07310057,-0.0708546,-0.04415727,0.1319183,-0.2855415,2.350414,-2.902389
91,5.355561,725,358,442,496,-0.03453058,0.2637625,0.02521758,-1.374942,3.079304,0.07239697,-0.04662167,-0.05056981,0.1050459,-0.2864187,2.349532,-2.901676
91,5.366673,725,358,442,496,-0.01875517,0.3129033,0.03551495,-1.379549,3.080167,0.07257753,-0.02132027,-0.03568492,0.07390477,-0.2863362,2.349951,-2.902757
91,5.377784,725,358,442,496,-0.005088717,0.366245,0.03938742,-1.385076,3.081135,0.07206514,0.007772353,-0.05379312,-0.0009650122,-0.2866632,2.35775,-2.911397
91,5.388895,824,428,473,486,0.008627862,0.4098966,0.034836,-1.390113,3.082349,0.07130241,-0.004362494,-0.08998255,-0.03814987,-0.2883639,2.363732,-2.91673
91,5.400006,824,428,473,486,0.01394492,0.4215247,0.01877563,-1.39517,3.082386,0.0711048,-0.008717351,-0.09743184,-0.04665448,-0.2893173,2.367762,-2.920365
91,5.411118,824,428,473,486,0.02574664,0.4043956,0.002948425,-1.399261,3.082287,0.07053915,0.01447085,-0.06016608,-0.07775849,-0.2887591,2.372961,-2.926038
91,5.422229,824,428,473,486,0.02580455,0.3873285,-0.0001133415,-1.403066,3.082523,0.07023608,0.0229044,-0.04952122,-0.08849032,-0.2887495,2.377424,-2.930812
91,5.43334,824,428,473,486,0.05484694,0.3043031,-0.002627162,-1.403947,3.082287,0.06882993,0.04654795,-0.01867983,-0.0727422,-0.2882382,2.379538,-2.934035
91,5.444451,811,377,493,492,0.07841617,0.2649681,-0.001213118,-1.405815,3.082536,0.06722724,0.04228233,-0.02186956,-0.07270215,-0.2883793,2.382507,-2.937252
91,5.455563,811,377,493,492,0.1041436,0.2118555,0.007764887,-1.406526,3.082949,0.0652091,0.0250758,-0.01651397,-0.08958258,-0.2883048,2.387877,-2.942077
91,5.466674,811,377,493,492,0.1086433,0.1563306,-0.009922948,-1.40685,3.082134,0.06375021,0.03162692,0.01862558,-0.07792444,-0.2871037,2.389863,-2.944394
91,5.477785,811,377,493,492,0.1055583,0.1253787,-0.01394243,-1.407266,3.08201,0.06261731,0.03918587,0.04630942,-0.07159243,-0.2857242,2.391136,-2.946244
91,5.488896,642,310,518,500,0.09826232,0.07740891,-0.01464943,-1.406808,3.081785,0.06177894,0.04869196,0.06441046,-0.08233085,-0.2843809,2.394839,-2.950589
91,5.500008,642,310,518,500,0.09732637,0.03484545,-0.005835798,-1.406469,3.081884,0.06066042,0.05498807,0.0409694,-0.08879623,-0.2844256,2.399253,-2.955567
91,5.511119,642,310,518,500,0.1026578,0.02214361,0.001753052,-1.405994,3.082038,0.05971979,0.05176753,0.01754008,-0.0877061,-0.2846589,2.402375,-2.959028
91,5.52223,642,310,518,500,0.1005622,0.0104352,0.003970707,-1.405745,3.082136,0.058646,0.04643907,0.007949226,-0.08660567,-0.284743,2.406421,-2.963289
91,5.533341,642,310,518,500,0.08773601,0.01888348,-0.0003853207,-1.406353,3.081895,0.0584223,0.04751799,0.01753538,-0.08661112,-0.2841433,2.409457,-2.966793
91,5.544453,751,278,494,489,0.07703753,0.03583611,-0.005862212,-1.406977,3.081724,0.05787582,0.04002737,0.01116057,-0.08867273,-0.2839276,2.413211,-2.970587
91,5.555564,751,278,494,489,0.07270811,0.05607026,-0.004961258,-1.408169,3.081762,0.05718552,0.03803016,0.01754858,-0.07586576,-0.2834679,2.414672,-2.972348
91,5.566675,751,278,494,489,0.0629673,0.09127566,0.002217749,-1.410487,3.082247,0.05698099,0.05099571,0.005800091,-0.05468846,-0.2837108,2.414789,-2.973262
91,5.577786,751,278,494,489,0.05854084,0.136085,0.01251621,-1.413205,3.082846,0.05636154,0.05099376,-0.01018047,-0.0525662,-0.2841646,2.416892,-2.97586
91,5.588898,715,319,510,508,0.04029107,0.1786357,0.01215491,-1.416338,3.083151,0.05634823,0.02856376,-0.03464489,-0.05342906,-0.28502,2.420013,-2.978255
91,5.600009,715,319,510,508,0.02533348,0.2009258,0.004469248,-1.419303,3.082661,0.05620974,0.01465949,-0.03036077,-0.05968376,-0.2850989,2.423078,-2.980974
91,5.61112,715,319,510,508,0.01255259,0.2040215,-0.003034532,-1.421644,3.082549,0.05643877,0.008494515,-0.009124316,-0.03943107,-0.2854957,2.426319,-2.984003
91,5.622231,715,319,510,508,-0.004402384,0.1858723,-0.001886443,-1.423265,3.082318,0.05655382,0.01932212,0.000448158,-0.02247161,-0.2851878,2.424771,-2.982976
91,5.633343,715,319,510,508,-0.003206417,0.1454042,-0.0005046106,-1.423774,3.082388,0.05654157,0.01072456,-0.009124085,-0.02878535,-0.2854621,2.426666,-2.984689
91,5.644454,629,396,541,501,0.01080212,0.09859417,0.002001666,-1.423686,3.082302,0.05589176,0.003318595,-0.01663196,-0.02023599,-0.2865828,2.429602,-2.986997
91,5.655565,629,396,541,501,0.01408205,0.07513583,-0.002071506,-1.423877,3.082174,0.05566326,0.005376361,-0.02408878,-0.02665189,-0.287003,2.431346,-2.988802
91,5.666677,629,396,541,501,0.01415615,0.05270307,-0.007219126,-1.423667,3.082008,0.05567392,0.002024468,-0.0294295,-0.03837439,-0.2876704,2.43621,-2.992844
91,5.677788,629,396,541,501,0.01418583,0.04417271,-0.008218121,-1.423914,3.081897,0.05552797,0.006370217,-0.01345957,-0.03201583,-0.2873071,2.436671,-2.99347
91,5.688899,629,396,541,501,0.01414984,0.04958178,0.002393097,-1.424596,3.082256,0.05532664,0.005553012,-0.004918093,-0.007502839,-0.2868294,2.434293,-2.991196
91,5.70001,673,361,491,486,0.005569607,0.05489576,0.005560052,-1.425262,3.082786,0.05589336,0.001417323,0.003603827,0.00426064,-0.2865982,2.432779,-2.98963
91,5.711122,673,361,491,486,-0.001878824,0.05168369,0.006637181,-1.425735,3.082916,0.05608937,-0.0006369697,-0.001757825,0.01490125,-0.2872874,2.433044,-2.98951
91,5.722233,673,361,491,486,-0.01147196,0.05162703,0.003442268,-1.42634,3.083153,0.05658898,-0.004000099,-0.02731502,0.00105882,-0.2882254,2.435529,-2.991765
91,5.733344,673,361,491,486,-0.02319498,0.05475962,0.0002015107,-1.427034,3.083117,0.05716848,-0.007270856,-0.02943695,-0.006368205,-0.2885679,2.436667,-2.992679
91,5.744455,661,344,459,483,-0.02951859,0.05256969,-0.005142961,-1.427585,3.082661,0.05699271,-0.01375749,-0.02838961,-0.01378175,-0.2891724,2.439175,-2.994366
91,5.755567,661,344,459,483,-0.02634303,0.06106906,-0.00946484,-1.428496,3.082494,0.05723187,-0.01155761,-0.02945794,-0.00634332,-0.2894638,2.438565,-2.993724
91,5.766678,661,344,459,483,-0.02207357,0.0568468,-0.006228571,-1.429012,3.082531,0.05736449,-0.009166843,-0.01776341,0.01705769,-0.2895671,2.437056,-2.992427
91,5.777789,661,344,459,483,-0.02414655,0.05471327,-0.004084504,-1.429334,3.082604,0.05687181,-0.00910967,-0.02096299,0.02344738,-0.2899463,2.435698,-2.991022
91,5.7889,661,344,459,483,-0.02626247,0.04624221,0.003434961,-1.429627,3.082859,0.05716582,-0.009245541,-0.02519521,0.01068001,-0.2900305,2.435848,-2.990962
91,5.800012,617,301,483,487,-0.02419051,0.04952565,0.01298103,-1.430372,3.082969,0.05779379,-0.002805451,-0.01987713,0.01488053,-0.2900949,2.434955,-2.99023
91,5.811123,617,301,483,487,-0.02423376,0.05706539,0.02357557,-1.431175,3.083563,0.05799832,0.004663144,-0.01136511,0.01481346,-0.2899985,2.43428,-2.989855
91,5.822234,617,301,483,487,-0.02642931,0.07089876,0.0245353,-1.432081,3.083972,0.05855758,-0.0006783046,-0.01453478,0.01488989,-0.2900694,2.432432,-2.987751
91,5.833345,617,301,483,487,-0.02436449,0.09219433,0.02224253,-1.433687,3.084248,0.0587243,-0.0007061758,-0.01240236,0.01169534,-0.2901636,2.432376,-2.98771
91,5.844457,671,301,488,500,-0.0243469,0.09430382,0.01689359,-1.435027,3.084301,0.05879834,-0.008205622,-0.01343384,0.007517896,-0.2900433,2.431824,-2.986897
91,5.855568,671,301,488,500,-0.02537753,0.08364774,0.01697485,-1.43569,3.084522,0.05907903,-0.01895163,-0.01237057,0.0001643999,-0.2904294,2.432734,-2.986952
91,5.866679,671,301,488,500,-0.02644346,0.0772323,0.01276002,-1.436568,3.08458,0.05980607,-0.0199729,-0.007029468,0.004451796,-0.2901807,2.431376,-2.985349
91,5.87779,671,301,488,500,-0.0253329,0.06443606,0.01073106,-1.436917,3.084667,0.06004416,-0.02623756,-0.007042548,0.01942833,-0.2905903,2.429247,-2.982592
91,5.888902,671,301,488,500,-0.02103477,0.05800333,0.00440491,-1.437362,3.08469,0.0600873,-0.02413598,0.00256847,0.01410404,-0.2900119,2.428082,-2.981364
91,5.900013,634,349,479,498,-0.009257246,0.03567297,0.004610934,-1.437243,3.084918,0.06007452,-0.00826841,0.01640046,0.002257739,-0.2894723,2.427927,-2.981298
91,5.911124,634,349,479,498,-0.003845144,0.006961484,0.009105442,-1.436584,3.085075,0.05994882,-0.0008667996,0.01640698,-0.00528369,-0.2890435,2.429357,-2.983066
91,5.922235,634,349,479,498,0.004673654,0.002789438,0.01767036,-1.436516,3.085419,0.05970168,-0.006119777,0.008966001,0.004336054,-0.2890052,2.428795,-2.982134
91,5.933347,634,349,479,498,0.009967932,0.01449955,0.0143921,-1.436965,3.085511,0.0594311,-0.01670004,0.008976981,0.01189593,-0.2889999,2.427551,-2.980445
91,5.944458,600,308,408,483,0.007833436,0.03357084,0.003575638,-1.437669,3.085119,0.05889368,-0.02623968,0.02176665,0.01518607,-0.2885413,2.426849,-2.979208
91,5.955569,600,308,408,483,0.00778617,0.05163034,-0.002957421,-1.438722,3.08497,0.05884041,-0.02943472,0.03241406,0.01522427,-0.288154,2.426018,-2.977754
91,5.966681,600,308,408,483,0.00880133,0.05708535,0.009767443,-1.439809,3.085205,0.05885267,-0.007019963,0.04088918,0.01820346,-0.2876741,2.424883,-2.977221
91,5.977792,600,308,408,483,0.01304797,0.05927793,0.01721708,-1.440386,3.085721,0.05849953,-0.007207919,0.02171219,0.003282226,-0.2880832,2.426286,-2.978229
91,5.988903,600,308,408,483,0.01195638,0.06673503,0.01929517,-1.4411,3.086137,0.05832536,-0.01041257,0.006811894,0.0032898,-0.2882776,2.427155,-2.978961
91,6.000014,624,334,477,497,0.008768566,0.06983726,0.008612143,-1.441952,3.085984,0.05835785,-0.01252901,-0.01768742,0.006494611,-0.2890813,2.426897,-2.978763
91,6.011126,624,334,477,497,0.004482545,0.08036405,-0.006387843,-1.443182,3.085601,0.05870033,-0.01359876,-0.02088181,0.006503103,-0.2894116,2.42683,-2.978524
91,6.022237,624,334,477,497,0.006620958,0.08671011,-0.01175543,-1.444155,3.085479,0.05828861,-0.01896878,-0.01448725,0.00122785,-0.2894361,2.427552,-2.978832
91,6.033348,624,334,477,497,0.009758137,0.101684,-0.005475174,-1.445707,3.085677,0.05805052,-0.006133283,0.01532239,0.002186235,-0.2884683,2.42684,-2.978403
91,6.044459,624,334,477,497,0.006503835,0.1124388,0.005076959,-1.447562,3.085976,0.05806756,0.007623554,0.01957769,-0.008588596,-0.2880337,2.427395,-2.979482
