ref,t,emg1,emg2,emg1raw,emg2raw,aDotS,bDotS,gDotS,aS,bS,gS,aDotSH,bDotSH,gDotSH,aSH,bSH,gSH
0,0,116,186,501,498,0.4273003,-0.4824547,-0.4970491,-1.374026,-2.964457,-1.63186,0.2604879,0.2506108,0.07250585,-1.044137,-2.572603,1.671452
0,0.01111111,116,186,501,498,0.4798998,-0.3559436,-0.4403152,-1.380756,-2.964627,-1.635159,0.2717323,0.2161382,0.06360503,-1.047673,-2.572612,1.670811
0,0.02222222,138,179,500,499,0.5173891,-0.2353076,-0.3865767,-1.387483,-2.965896,-1.638083,0.275015,0.1683014,0.04949532,-1.050578,-2.573876,1.670693
0,0.03333334,138,179,500,499,0.5518677,-0.1311061,-0.3314745,-1.394416,-2.967659,-1.640443,0.2552416,0.1442236,0.04392205,-1.052895,-2.573969,1.67009
0,0.04444445,138,179,500,499,0.5700853,-0.07853566,-0.2918714,-1.401092,-2.968961,-1.642506,0.2068987,0.1316551,0.04219425,-1.054258,-2.572982,1.669414
0,0.05555556,138,179,500,499,0.5871339,-0.002421389,-0.2404951,-1.407757,-2.971516,-1.643925,0.1580293,0.129768,0.05875576,-1.055144,-2.571262,1.667951
0,0.06666667,138,179,500,499,0.589944,0.01148296,-0.2315318,-1.414263,-2.972428,-1.64626,0.13563,0.1254021,0.08360976,-1.056534,-2.569516,1.665833
0,0.07777778,128,182,501,496,0.6030502,0.04027174,-0.2102574,-1.421277,-2.974007,-1.648023,0.09684931,0.1056989,0.1260504,-1.056552,-2.567562,1.662602
0,0.08888889,128,182,501,496,0.6036902,0.04451154,-0.1972871,-1.427768,-2.974853,-1.649896,0.103067,0.06984932,0.1260084,-1.057677,-2.567692,1.66113
0,0.1,128,182,501,496,0.5980909,0.0304178,-0.1842075,-1.434278,-2.975103,-1.651536,0.1951004,0.03663504,0.07788845,-1.061697,-2.570936,1.661855
0,0.1111111,128,182,501,496,0.5806025,0.004567431,-0.1758274,-1.440206,-2.974579,-1.653191,0.2681638,0.01912428,-0.00853207,-1.066214,-2.574733,1.664951
0,0.1222222,126,158,501,498,0.5504846,-0.02908931,-0.1667805,-1.445569,-2.973477,-1.654698,0.281079,0.01389964,-0.05049768,-1.069422,-2.57731,1.667098
0,0.1333333,126,158,501,498,0.5250697,-0.06812135,-0.1693907,-1.45081,-2.971811,-1.65651,0.2795921,0.00183627,-0.07955558,-1.071758,-2.579635,1.668987
0,0.1444445,126,158,501,498,0.5070608,-0.08219823,-0.1641238,-1.456028,-2.970621,-1.658071,0.2679858,-0.002132431,-0.07153139,-1.074018,-2.581259,1.669639
0,0.1555556,126,158,501,498,0.4763742,-0.08863576,-0.146308,-1.460469,-2.969632,-1.659099,0.1914065,-0.01282743,-0.01756348,-1.073508,-2.580797,1.667797
0,0.1666667,126,158,501,498,0.4554939,-0.08265959,-0.1323064,-1.464879,-2.969103,-1.660049,0.1430346,-0.01079326,0.000257697,-1.073854,-2.580923,1.667322
0,0.1777778,118,153,500,495,0.4195183,-0.05544749,-0.1032797,-1.468307,-2.969531,-1.660392,0.1364961,0.01038275,-0.01112955,-1.075413,-2.581106,1.667774
0,0.1888889,118,153,500,495,0.3908213,-0.02582477,-0.07604541,-1.471859,-2.970335,-1.660655,0.135568,0.02892029,-0.02142074,-1.077317,-2.581405,1.668414
0,0.2,118,153,500,495,0.3758396,-0.01324828,-0.05651068,-1.475519,-2.970875,-1.660702,0.1265695,0.04423954,-0.03560294,-1.078812,-2.581408,1.669249
0,0.2111111,118,153,500,495,0.3478968,0.007390273,-0.03015762,-1.478565,-2.97188,-1.66039,0.1144916,0.05102263,-0.03470463,-1.080041,-2.581195,1.66956
0,0.2222222,125,189,496,497,0.3135661,0.01870541,-0.007819358,-1.480996,-2.972685,-1.659882,0.09430761,0.03736567,-0.0229276,-1.08038,-2.581341,1.669415
0,0.2333333,125,189,496,497,0.2899123,0.02727082,0.006441142,-1.483315,-2.973389,-1.659585,0.06793681,0.00405217,-0.007433526,-1.079831,-2.5821,1.669097
0,0.2444444,125,189,496,497,0.2630458,0.03631614,0.0229109,-1.485424,-2.974384,-1.658893,0.0570605,-0.02021296,-0.008799713,-1.07961,-2.583251,1.669371
0,0.2555556,125,189,496,497,0.228603,0.05737061,0.03718364,-1.486833,-2.975713,-1.658242,0.03595515,-0.03077541,-0.01199479,-1.079152,-2.583806,1.66967
0,0.2666667,125,189,496,497,0.2004779,0.08329631,0.0544333,-1.48797,-2.97766,-1.657375,0.01915749,0.0009364402,-0.003379368,-1.079467,-2.582728,1.669313
0,0.2777778,131,190,498,498,0.1821009,0.09573306,0.07566631,-1.489437,-2.979355,-1.656027,0.004962465,0.03090522,0.01444407,-1.079722,-2.581069,1.668377
0,0.2888889,131,190,498,498,0.1564617,0.09773114,0.0940061,-1.490349,-2.980695,-1.654677,-0.04441164,0.05440653,0.03306869,-1.07865,-2.578569,1.667153
0,0.3,131,190,498,498,0.1373453,0.09258381,0.10466,-1.491325,-2.981828,-1.653308,-0.09476142,0.05286282,0.01625205,-1.076655,-2.577003,1.667477
0,0.3111111,131,190,498,498,0.1077645,0.07828701,0.1041755,-1.491542,-2.98243,-1.65212,-0.1038982,0.03622512,-0.02701285,-1.075395,-2.577191,1.66924
0,0.3222222,103,182,498,490,0.07089782,0.04969843,0.08521916,-1.491312,-2.98216,-1.65175,-0.08088207,0.006309472,-0.05296867,-1.074888,-2.578484,1.670897
0,0.3333333,103,182,498,490,0.04354876,0.02699331,0.05758423,-1.49103,-2.981728,-1.651962,-0.03293466,-0.01644636,-0.07212227,-1.075541,-2.580471,1.672462
0,0.3444445,103,182,498,490,0.0277771,0.0147631,0.0392833,-1.490867,-2.981476,-1.652073,-0.01342593,-0.01503803,-0.07185832,-1.075832,-2.58109,1.67335
0,0.3555556,103,182,498,490,0.008855715,-0.001696492,0.02024998,-1.490565,-2.980886,-1.65237,-0.03621238,0.01186367,-0.05879502,-1.075341,-2.57986,1.673581
0,0.3666667,103,182,498,490,-0.006976712,-0.01321975,0.01067895,-1.490027,-2.98028,-1.652504,-0.07166008,0.04855265,-0.02961499,-1.07445,-2.577137,1.672824
0,0.3777778,91,181,498,498,-0.01758822,-0.01891328,0.01182888,-1.48969,-2.979903,-1.652354,-0.1093287,0.06920457,-0.001868404,-1.073027,-2.574473,1.671813
0,0.3888889,91,181,498,498,-0.02715592,-0.01914507,0.006329668,-1.489109,-2.979641,-1.652498,-0.1127066,0.0818736,-0.0009845085,-1.072433,-2.572794,1.671733
0,0.4,91,181,498,498,-0.03341336,-0.02790748,-0.006019983,-1.488656,-2.978967,-1.6529,-0.1127517,0.08181265,-0.00088403,-1.071767,-2.571357,1.671641
0,0.4111111,91,181,498,498,-0.03127164,-0.02189088,-0.01581044,-1.488378,-2.978811,-1.65336,-0.1127966,0.08175167,-0.0007834844,-1.0711,-2.569918,1.671547
0,0.4222222,93,190,498,498,-0.03019105,-0.01992492,-0.0208869,-1.488124,-2.978533,-1.653703,-0.05449194,0.09211631,-0.01939765,-1.073651,-2.570266,1.672672
0,0.4333333,93,190,498,498,-0.02274741,-0.0139047,-0.02415845,-1.48821,-2.978364,-1.654177,-0.0550281,0.1028522,-0.005976947,-1.073202,-2.568325,1.672128
0,0.4444444,93,190,498,498,-0.0174069,-0.01207935,-0.02815308,-1.488194,-2.978202,-1.654608,-0.06676644,0.09947859,0.001683027,-1.072854,-2.566758,1.671961
0,0.4555556,93,190,498,498,-0.01427843,-0.004514495,-0.02791937,-1.488106,-2.978297,-1.654983,-0.06915855,0.09138072,-0.001756256,-1.072489,-2.56568,1.671987
0,0.4666667,93,190,498,498,-0.01115885,0.006067209,-0.03256571,-1.487943,-2.978397,-1.655646,-0.04293557,0.08632936,-0.015062,-1.073132,-2.565337,1.67249
0,0.4777778,86,249,498,494,-0.007003447,0.01537254,-0.02984372,-1.488032,-2.978779,-1.655949,-0.008374853,0.07859693,-0.02094292,-1.074236,-2.565327,1.672868
0,0.4888889,86,249,498,494,0.0002568495,0.03082232,-0.02495118,-1.48813,-2.979485,-1.656159,-0.001718922,0.06857425,-0.0227784,-1.074672,-2.564934,1.673106
0,0.5,86,249,498,494,0.006331719,0.05533761,-0.01632593,-1.488324,-2.980758,-1.656232,-0.01127481,0.05600397,-0.02137339,-1.074483,-2.564631,1.673301
0,0.5111111,86,249,498,494,0.007213298,0.06770797,-0.006596122,-1.488268,-2.981875,-1.656142,-0.02480633,0.05521324,-0.01820226,-1.074108,-2.56378,1.673361
0,0.5222223,80,163,499,498,0.01551554,0.0818878,0.005593123,-1.488584,-2.983196,-1.65581,-0.03345837,0.0547976,-0.0149738,-1.0739,-2.562964,1.673379
0,0.5333334,80,163,499,498,0.01747481,0.09445158,0.01423712,-1.488726,-2.984447,-1.655571,-0.02253697,0.05779654,-0.00970849,-1.074288,-2.562278,1.673246
0,0.5444446,80,163,499,498,0.02168975,0.09586802,0.01878764,-1.488901,-2.985509,-1.655393,-0.001341352,0.03371951,-0.00629715,-1.07456,-2.562669,1.673307
0,0.5555557,80,163,499,498,0.0217075,0.0925046,0.02572412,-1.489034,-2.986527,-1.655002,0.01237811,0.001527559,-0.007364665,-1.074641,-2.563682,1.673505
0,0.5666668,80,163,499,498,0.02482807,0.09866497,0.02783906,-1.489195,-2.987882,-1.654793,0.009069327,-0.02631213,-0.01417256,-1.074201,-2.564698,1.673962
0,0.577778,75,150,498,504,0.02902529,0.1021755,0.03916664,-1.48951,-2.989227,-1.654146,0.003318835,-0.05803066,-0.01941821,-1.073389,-2.566248,1.674567
0,0.5888891,75,150,498,504,0.0290515,0.1002521,0.04415895,-1.489728,-2.990418,-1.653601,0.006385066,-0.07787651,-0.02032424,-1.072905,-2.56759,1.674962
0,0.6000003,75,150,498,504,0.03220637,0.1031076,0.04674058,-1.490031,-2.991817,-1.653294,0.006433848,-0.07787195,-0.02032627,-1.072568,-2.56853,1.67532
0,0.6111114,75,150,498,504,0.0311914,0.0997973,0.04717295,-1.490322,-2.992904,-1.652854,0.006482769,-0.07786737,-0.0203283,-1.07223,-2.569473,1.67568
0,0.6222225,74,144,499,498,0.03342751,0.08986621,0.04866018,-1.490638,-2.993795,-1.652315,0.01486099,-0.05571436,-0.004080198,-1.073095,-2.569137,1.674762
0,0.6333337,74,144,499,498,0.03249206,0.07903873,0.04245608,-1.491015,-2.99448,-1.652056,0.01532429,-0.05056865,-3.401656E-05,-1.073061,-2.56954,1.674667
0,0.6444448,74,144,499,498,0.0283435,0.06990819,0.03871779,-1.491165,-2.995089,-1.65179,-0.006237466,-0.0370975,0.0160971,-1.072308,-2.568937,1.674166
0,0.655556,74,144,499,498,0.02424174,0.05516855,0.03621433,-1.491273,-2.995363,-1.651456,-0.01246226,-0.03573526,0.003051427,-1.071882,-2.569235,1.674507
0,0.6666671,74,144,499,498,0.01798597,0.04477816,0.02689815,-1.491228,-2.995628,-1.651487,0.001020087,-0.01969188,-0.005107615,-1.072443,-2.569544,1.674791
0,0.6777782,73,177,499,498,0.01381408,0.03616114,0.02651295,-1.491286,-2.995828,-1.65122,0.007697827,-0.01249682,-0.007722417,-1.072698,-2.569701,1.67496
0,0.6888894,73,177,499,498,0.008534391,0.03348406,0.022805,-1.491212,-2.996135,-1.651126,0.01258788,-0.004394624,-0.003735319,-1.073068,-2.569651,1.674635
0,0.7000005,73,177,499,498,0.003294867,0.02660422,0.01840161,-1.491127,-2.996211,-1.651059,0.007256459,-0.005850302,0.002922689,-1.072954,-2.569614,1.674406
0,0.7111117,73,177,499,498,0.000182976,0.0181703,0.01698257,-1.491136,-2.99617,-1.650946,-0.004082251,-0.01941259,0.009095554,-1.072158,-2.56976,1.673944
0,0.7222228,73,177,499,498,0.001345609,0.009246632,0.0122625,-1.491186,-2.996017,-1.650939,0.001297005,-0.02754753,0.004787884,-1.071948,-2.570479,1.673965
0,0.7333339,76,161,499,503,-0.002758574,-0.0004341193,-0.001241481,-1.491203,-2.995626,-1.651307,-0.003690515,-0.02792688,-0.003381989,-1.071636,-2.570791,1.674293
0,0.7444451,76,161,499,503,-0.0005470556,-0.005847765,-0.007527652,-1.491258,-2.995366,-1.651429,-0.01634918,-0.02838795,-0.01310112,-1.070981,-2.57094,1.674602
0,0.7555562,76,161,499,503,-0.003658966,-0.01568223,-0.007020033,-1.491177,-2.994932,-1.651471,-0.02411116,-0.005324288,-0.01094878,-1.070802,-2.570249,1.674618
0,0.7666674,76,161,499,503,-0.007882114,-0.01852115,-0.009664397,-1.491026,-2.994613,-1.651489,-0.02394965,0.01957083,0.0003115395,-1.071051,-2.569251,1.674097
0,0.7777785,79,172,499,495,-0.01115177,-0.008739724,-0.01021051,-1.49093,-2.994717,-1.651667,-0.01791804,0.03001403,0.01185483,-1.071274,-2.568479,1.673553
0,0.7888896,79,172,499,495,-0.007895407,-0.01360946,-0.01316386,-1.490977,-2.994508,-1.651728,-0.009030512,0.03427238,0.02276925,-1.071566,-2.568,1.672979
0,0.8000008,79,172,499,495,-0.009012537,-0.008539546,-0.01124385,-1.490895,-2.994533,-1.651819,-0.01104718,0.03343659,0.02182784,-1.071525,-2.567612,1.672831
0,0.8111119,79,172,499,495,-0.007947088,-0.007301838,-0.01210958,-1.490934,-2.994481,-1.651912,-0.02340521,0.02085596,0.006482137,-1.071025,-2.567543,1.673165
0,0.8222231,79,172,499,495,-0.006887752,-0.006062914,-0.01297872,-1.490881,-2.994442,-1.652038,-0.03120096,0.02069113,-0.005555619,-1.070769,-2.567299,1.673635
0,0.8333342,78,143,499,499,-0.005799002,-0.008152709,-0.0133274,-1.490863,-2.994286,-1.652193,-0.02912315,0.0176571,-0.002517872,-1.07058,-2.567041,1.673581
0,0.8444453,78,143,499,499,-0.004747128,-0.01024626,-0.007185123,-1.490877,-2.99422,-1.651987,-0.02122427,0.0232246,0.002119014,-1.070748,-2.566472,1.673292
0,0.8555565,78,143,499,499,-0.003717794,-0.006208941,-0.005429799,-1.490972,-2.994289,-1.652091,-0.0184131,0.02497829,0.01019929,-1.070767,-2.565931,1.672884
0,0.8666676,78,143,499,499,-0.005951548,0.00253481,0.0003509822,-1.490916,-2.99475,-1.651899,-0.01283391,0.01088086,0.009485561,-1.070542,-2.565912,1.672824
0,0.8777788,81,171,499,498,-0.007100088,0.004625091,0.01365478,-1.490824,-2.994914,-1.651428,-0.009857281,-0.001447732,-0.000414297,-1.070367,-2.566314,1.673142
0,0.8888899,81,171,499,498,-0.002849799,0.00537855,0.01595437,-1.490993,-2.995168,-1.651172,0.0001448169,-0.03005715,-0.01567861,-1.069901,-2.567693,1.674031
0,0.900001,81,171,499,498,-0.002882304,0.008009957,0.01962647,-1.491041,-2.995335,-1.65092,0.004407356,-0.03268277,-0.02121048,-1.069862,-2.56835,1.674524
0,0.9111122,81,171,499,498,-0.002884995,0.009246551,0.01874907,-1.491006,-2.995601,-1.650793,0.008399135,-0.02517274,-0.01719387,-1.070024,-2.568497,1.674485
0,0.9222233,81,171,499,498,-0.001816485,0.0132896,0.01402664,-1.491175,-2.995952,-1.650704,0.003360507,-0.007953357,-0.008511482,-1.069931,-2.567921,1.674204
0,0.9333345,87,152,499,498,0.002458688,0.01088047,0.01579586,-1.491325,-2.996073,-1.650511,-0.007186039,0.005942026,-0.003090221,-1.069841,-2.567292,1.67403
0,0.9444456,87,152,499,498,0.002460148,0.01071719,0.0168433,-1.491373,-2.996337,-1.65032,-0.0163201,0.009830713,-0.008640576,-1.069533,-2.567111,1.674265
0,0.9555568,87,152,499,498,0.005660347,0.009356637,0.01878797,-1.491515,-2.99653,-1.649999,-0.00934054,0.01647911,-0.0150481,-1.069773,-2.56697,1.674603
0,0.9666679,87,152,499,498,0.006740928,0.005696489,0.02142313,-1.491591,-2.996511,-1.649706,0.001691656,0.01542348,-0.01245718,-1.070143,-2.567055,1.674643
0,0.977779,87,152,499,498,0.007820574,0.003437246,0.02213262,-1.491677,-2.996577,-1.649425,0.004974339,0.01450354,-0.006643689,-1.070345,-2.566947,1.674531
0,0.9888902,90,128,499,500,0.01099843,0.005404854,0.02354095,-1.491903,-2.996816,-1.649131,0.006721306,0.004337854,-0.003771476,-1.0703,-2.567369,1.674631
0,1.000001,90,128,499,500,0.01201505,0.01016811,0.02755706,-1.49204,-2.997177,-1.6487,0.006589108,-0.01074399,-0.004515629,-1.070096,-2.567941,1.674775
0,1.011112,90,128,499,500,0.01728208,0.01758282,0.02877453,-1.492254,-2.997681,-1.648323,0.001811495,-0.02480057,-0.01300609,-1.069726,-2.568547,1.675277
0,1.022224,90,128,499,500,0.01299911,0.02176477,0.0294284,-1.492289,-2.998088,-1.648019,0.006776281,-0.0303404,-0.01744277,-1.069644,-2.569181,1.675747
0,1.033335,96,153,500,498,0.008704649,0.02838479,0.02832437,-1.49214,-2.998583,-1.647802,0.01030882,-0.04128088,-0.01878906,-1.069458,-2.570102,1.67612
0,1.044446,96,153,500,498,0.005534176,0.02660257,0.02586122,-1.492053,-2.998835,-1.647625,0.01479773,-0.04216075,-0.01676115,-1.069583,-2.570587,1.67627
0,1.055557,96,153,500,498,0.0001757517,0.03393784,0.02702704,-1.491856,-2.999469,-1.647288,0.01334801,-0.04183346,-0.01393712,-1.069457,-2.571112,1.676406
0,1.066668,96,153,500,498,0.001248682,0.03288792,0.02685066,-1.491803,-2.999716,-1.647131,0.007834552,-0.02976027,-0.009337216,-1.069475,-2.571195,1.676521
0,1.077779,96,153,500,498,0.0001842231,0.03793932,0.02226728,-1.491719,-3.000288,-1.647031,0.001758227,-0.01885245,-0.008506303,-1.069386,-2.57106,1.67658
0,1.08889,102,132,500,500,-0.004073037,0.04141451,0.02065779,-1.4915,-3.000884,-1.646881,0.007429107,-0.01761933,-0.003704982,-1.069555,-2.571356,1.676514
0,1.100002,102,132,500,500,-0.004087262,0.04806668,0.01957204,-1.491407,-3.001641,-1.646724,0.01371115,-0.02106192,0.002751187,-1.069677,-2.571709,1.676317
0,1.111113,102,132,500,500,-0.005183851,0.05803205,0.01794703,-1.491195,-3.002492,-1.646742,0.0177684,-0.03478406,-0.003215301,-1.069709,-2.572747,1.676751
0,1.122224,102,132,500,500,-0.006257741,0.06589606,0.01598601,-1.491004,-3.003387,-1.646651,0.02037526,-0.04818205,-0.006361291,-1.069525,-2.573851,1.677029
0,1.133335,105,152,500,498,-0.007337959,0.07325058,0.01717426,-1.490851,-3.004344,-1.646565,0.01527094,-0.05386348,-0.004756161,-1.069215,-2.574592,1.677163
0,1.144446,105,152,500,498,-0.01053085,0.07921109,0.02029289,-1.490556,-3.005414,-1.646361,0.008595107,-0.04598679,-0.009521522,-1.068959,-2.574672,1.677508
0,1.155557,105,152,500,498,-0.006285559,0.08953886,0.01659285,-1.490519,-3.006638,-1.646394,0.005244173,-0.03319999,0.001741226,-1.068867,-2.574524,1.677134
0,1.166668,105,152,500,498,-0.009451097,0.08952579,0.0165919,-1.490273,-3.007542,-1.646307,0.005481953,-0.02949233,0.01347715,-1.06862,-2.574511,1.676675
0,1.17778,105,152,500,498,-0.01367206,0.08985548,0.01449736,-1.489945,-3.008532,-1.646278,0.006690392,-0.02946266,0.009676271,-1.068547,-2.57485,1.676693
0,1.188891,106,149,500,499,-0.01257388,0.08511265,0.01051339,-1.489754,-3.00934,-1.646412,0.01124335,-0.03054487,0.006936542,-1.068682,-2.575062,1.676755
0,1.200002,106,149,500,499,-0.01250873,0.07141957,0.001834784,-1.48959,-3.0097,-1.646674,0.01548096,-0.02545073,0.005341935,-1.068882,-2.575346,1.676781
0,1.211113,106,149,500,499,-0.01457006,0.05335587,-0.006493139,-1.489269,-3.009754,-1.647113,0.006509975,-0.01401904,0.009441145,-1.068712,-2.575011,1.676545
0,1.222224,106,149,500,499,-0.007035991,0.03216958,-0.01533489,-1.489362,-3.00959,-1.647555,-0.002883803,-0.005753648,0.01369071,-1.068521,-2.574573,1.676204
0,1.233335,102,162,500,497,-0.00480713,0.007995714,-0.01930095,-1.489508,-3.009019,-1.647779,-0.01158458,0.01095097,0.01615082,-1.068442,-2.57364,1.675818
0,1.244446,102,162,500,497,-0.004743716,-0.001985618,-0.02418566,-1.489502,-3.00877,-1.648123,-0.01111844,0.0140084,0.0136303,-1.068503,-2.57348,1.675795
0,1.255558,102,162,500,497,-0.001526181,-0.01125362,-0.02029633,-1.489628,-3.008392,-1.648104,-0.005928937,0.0215673,0.01384088,-1.068742,-2.572995,1.675571
0,1.266669,102,162,500,497,-0.003630221,-0.01791536,-0.01923732,-1.489619,-3.008058,-1.648132,-0.00569956,0.02131936,0.01720444,-1.068764,-2.572628,1.675156
0,1.27778,102,162,500,497,-0.003671954,-0.01335293,-0.01416668,-1.489602,-3.008016,-1.648152,-0.001477411,0.01722808,0.02747084,-1.068864,-2.572353,1.674496
0,1.288891,104,140,500,498,-0.003714007,-0.009843871,-0.009259833,-1.489525,-3.00799,-1.648003,-0.003845138,0.007288814,0.02215357,-1.068802,-2.572301,1.674434
0,1.300002,104,140,500,498,-0.003778111,-0.002474439,-0.001566316,-1.489461,-3.008194,-1.647821,-0.001120623,0.006794078,0.01076603,-1.068877,-2.572364,1.674664
0,1.311113,104,140,500,498,-0.003853994,0.01171512,0.004009195,-1.489383,-3.008608,-1.647721,0.004435251,0.0002416936,0.001123406,-1.068997,-2.572729,1.67496
0,1.322224,104,140,500,498,0.0003477186,0.02522239,0.0073261,-1.489448,-3.009302,-1.647595,0.01075566,0.0003340184,-0.001650058,-1.069245,-2.572803,1.675023
0,1.333336,104,140,500,498,0.0002895286,0.04081746,0.01096978,-1.489346,-3.010182,-1.647405,0.001329924,-0.003027332,-0.009743934,-1.068997,-2.57295,1.675421
0,1.344447,104,132,500,503,0.0002971832,0.03364299,0.01518094,-1.489249,-3.010271,-1.647191,-0.00558903,-0.004175746,-0.008358481,-1.068703,-2.572866,1.675391
0,1.355558,104,132,500,503,-0.002888585,0.02385035,0.02218753,-1.489119,-3.01035,-1.646774,-0.009828266,-0.0129226,7.743156E-05,-1.068307,-2.573053,1.6752
0,1.366669,104,132,500,503,-0.001813408,0.01475616,0.02501138,-1.489071,-3.010291,-1.646458,-0.005734314,-0.01707951,-0.0001564766,-1.068173,-2.573414,1.675218
0,1.37778,104,132,500,503,-0.003914235,0.001969984,0.02398708,-1.488985,-3.010013,-1.646199,-0.01451098,-0.009832378,-0.001078195,-1.067874,-2.573159,1.675238
0,1.388891,106,145,501,498,-0.004963195,-0.01343608,0.02577804,-1.489002,-3.009459,-1.64592,-0.0227529,-0.003401926,-0.002423404,-1.067469,-2.572794,1.675274
0,1.400002,106,145,501,498,-0.00497194,-0.0191956,0.02808105,-1.488978,-3.009163,-1.645524,-0.02751365,0.00147148,-0.01224068,-1.067175,-2.572631,1.675752
0,1.411114,106,145,501,498,-0.01134551,-0.02482403,0.02281352,-1.488718,-3.008778,-1.645432,-0.02687554,-0.0052965,-0.01717656,-1.066778,-2.572874,1.676101
0,1.422225,106,145,501,498,-0.01346446,-0.02973032,0.01984868,-1.488619,-3.008368,-1.645244,-0.01588933,-0.01380374,-0.01379206,-1.066647,-2.573436,1.676196
0,1.433336,106,145,501,498,-0.0187922,-0.03375987,0.01808244,-1.488371,-3.007896,-1.64509,-0.01201446,-0.01967874,-0.02158681,-1.06647,-2.57396,1.67674
0,1.444447,103,135,500,502,-0.02093948,-0.02865804,0.01998723,-1.488151,-3.007792,-1.644777,-0.01545619,-0.02230116,-0.02628684,-1.066023,-2.574286,1.677245
0,1.455558,103,135,500,502,-0.01882834,-0.02811041,0.02332504,-1.488057,-3.0075,-1.644459,-0.02157186,-0.01143019,-0.02541635,-1.065766,-2.574037,1.677521
0,1.466669,103,135,500,502,-0.01989974,-0.02528002,0.02594296,-1.48798,-3.007353,-1.644121,-0.02884864,0.008866549,-0.01733643,-1.065651,-2.573237,1.677348
0,1.47778,103,135,500,502,-0.01778907,-0.02560952,0.02806163,-1.487855,-3.007073,-1.643752,-0.02636537,0.02234196,-0.01312364,-1.065741,-2.572551,1.677288
0,1.488891,96,143,500,497,-0.01458233,-0.02299252,0.02526093,-1.487786,-3.006941,-1.643578,-0.02317408,0.01978321,-0.004371163,-1.065739,-2.572379,1.677003
0,1.500003,96,143,500,497,-0.0135068,-0.01844001,0.02384683,-1.487672,-3.006887,-1.643341,-0.02115323,-0.000194761,-0.00395365,-1.065318,-2.572856,1.6772
0,1.511114,96,143,500,497,-0.01134678,-0.01161605,0.02172652,-1.487664,-3.00702,-1.643156,-0.02214566,-0.0196182,-0.00837335,-1.064762,-2.573476,1.677514
0,1.522225,96,143,500,497,-0.0123845,-0.003016351,0.02203644,-1.487564,-3.007307,-1.64284,-0.02361612,-0.02325597,-0.01395863,-1.064341,-2.5738,1.677905
0,1.533336,96,143,500,497,-0.01449271,0.004360753,0.02321865,-1.487338,-3.00755,-1.642554,-0.02051769,-0.02993717,-0.02650087,-1.064098,-2.574566,1.678756
0,1.544447,91,164,500,497,-0.01447206,0.008745831,0.02284528,-1.487135,-3.007809,-1.642355,-0.01212587,-0.0251113,-0.02230501,-1.064222,-2.574775,1.678922
0,1.555558,91,164,500,497,-0.01441919,0.01944061,0.02349182,-1.486991,-3.008341,-1.642113,0.002607249,-0.008718166,-0.01328186,-1.064773,-2.574614,1.678749
0,1.566669,91,164,500,497,-0.0133146,0.02520766,0.02119073,-1.486781,-3.008744,-1.641982,-0.003965168,0.006574403,-0.01070851,-1.064773,-2.574097,1.678811
0,1.577781,91,164,500,497,-0.0122268,0.0274798,0.0204826,-1.486636,-3.009146,-1.641818,-0.0109346,0.01110493,-0.009569556,-1.06461,-2.57376,1.678869
0,1.588892,91,151,500,506,-0.01329217,0.0229102,0.01542654,-1.486456,-3.00928,-1.641786,-0.01536187,0.008188827,-0.007112557,-1.064301,-2.573714,1.67891
0,1.600003,91,151,500,506,-0.01436386,0.02064782,0.01613503,-1.486252,-3.009445,-1.641603,-0.01405818,0.004361194,-0.0088358,-1.064173,-2.573761,1.679084
0,1.611114,91,151,500,506,-0.01330133,0.01623221,0.01003071,-1.486154,-3.009495,-1.641708,-0.008727575,0.002244567,-0.008676355,-1.064154,-2.573947,1.67927
0,1.622225,91,151,500,506,-0.0133355,0.007278419,0.005344627,-1.48603,-3.009286,-1.641778,-0.003823424,0.004560838,-0.00680545,-1.064293,-2.573901,1.679287
0,1.633336,91,151,500,506,-0.01020096,-0.007658496,-0.002468154,-1.48598,-3.008777,-1.642093,-0.001735769,0.007175328,-0.006420953,-1.06443,-2.573789,1.679389
0,1.644447,85,145,500,499,-0.01022808,-0.01819937,-0.01066529,-1.485886,-3.008209,-1.642403,0.0006552394,0.01130351,-0.003233193,-1.064659,-2.573524,1.679244
0,1.655559,85,145,500,499,-0.008181486,-0.03503258,-0.01340096,-1.485844,-3.007376,-1.6425,-0.01584542,0.02987383,0.004331465,-1.064348,-2.571818,1.678711
0,1.66667,85,145,500,499,-0.007107902,-0.03222417,-0.01078573,-1.485828,-3.007144,-1.642568,-0.016918,0.03345865,0.009386266,-1.064636,-2.571639,1.67885
0,1.677781,85,145,500,499,-0.006053547,-0.03538354,-0.01129942,-1.485835,-3.006636,-1.642661,-0.008996626,0.03888941,0.009246664,-1.064981,-2.571124,1.678685
0,1.688892,85,145,500,499,-0.003900847,-0.02749945,-0.006765713,-1.485842,-3.006538,-1.642639,-0.01216884,0.03237,0.01475137,-1.064888,-2.570401,1.678203
0,1.700003,86,158,500,498,-0.006008804,-0.02223033,-0.005919242,-1.485736,-3.006427,-1.642686,-0.01295829,0.0259313,0.0126421,-1.064801,-2.57017,1.678103
0,1.711114,86,158,500,498,-0.005985178,-0.0204944,-0.009958488,-1.48564,-3.006129,-1.642899,-0.0006559007,0.01524677,0.0008625695,-1.065225,-2.570494,1.678401
0,1.722225,86,158,500,498,-0.003866761,-0.01997524,-0.006622281,-1.485676,-3.005852,-1.642851,0.001848409,0.01145889,-0.004660123,-1.065396,-2.570631,1.678555
0,1.733337,86,158,500,498,-0.003880027,-0.02312873,-0.007140163,-1.485653,-3.005511,-1.642911,0.003444804,0.01673955,-0.002012609,-1.065605,-2.570356,1.678483
0,1.744448,83,140,499,495,-0.009232983,-0.0302928,-0.00941257,-1.485528,-3.004872,-1.642922,-0.0006730072,0.02294218,0.004817593,-1.065738,-2.569849,1.678
0,1.755559,83,140,499,495,-0.00926096,-0.03852997,-0.01184855,-1.485508,-3.004174,-1.643079,-0.007413637,0.0313796,0.02249757,-1.06576,-2.568823,1.677075
0,1.76667,83,140,499,495,-0.006051554,-0.04118747,-0.01551323,-1.485592,-3.003572,-1.643304,-0.01038485,0.03023789,0.02871447,-1.065791,-2.568279,1.676607
0,1.777781,83,140,499,495,-0.001821087,-0.04610496,-0.01197421,-1.485744,-3.00291,-1.643287,-0.009322654,0.01906281,0.02206194,-1.065674,-2.568274,1.67653
0,1.788892,83,140,499,495,-0.001800546,-0.04190456,-0.01127756,-1.485782,-3.00253,-1.643286,-0.005196675,0.02402041,0.007578759,-1.066012,-2.568093,1.676924
0,1.800003,82,129,500,507,-0.0006766785,-0.02912148,-0.01025864,-1.485818,-3.002547,-1.643384,-0.004492121,0.0288014,0.01262905,-1.066172,-2.567575,1.67658
0,1.811115,82,129,500,507,-0.002796342,-0.02209346,-0.00696372,-1.485666,-3.002473,-1.6434,-0.005916048,0.03107232,0.01967651,-1.066157,-2.566918,1.676065
0,1.822226,82,129,500,507,0.002524233,-0.02246354,-0.004835735,-1.485862,-3.002224,-1.643379,-0.006529007,0.03011875,0.02066991,-1.066209,-2.566456,1.67573
0,1.833337,82,129,500,507,-0.002768692,-0.01386204,-0.004525954,-1.485694,-3.002211,-1.643368,-0.005517863,0.02674513,0.02035491,-1.066296,-2.566128,1.675469
0,1.844448,81,146,499,498,-0.0006315326,-0.01458688,-0.006791579,-1.485757,-3.001878,-1.643454,-0.001684584,0.02305154,0.02152629,-1.066507,-2.565932,1.675003
0,1.855559,81,146,499,498,-0.0006357641,-0.0175674,-0.008361973,-1.485789,-3.001603,-1.643577,-0.002414864,0.01837679,0.01885771,-1.06649,-2.565773,1.674816
0,1.86667,81,146,499,498,0.004677659,-0.02548744,-0.01286168,-1.485979,-3.001048,-1.643635,-0.0002430994,0.02077985,0.01448812,-1.066728,-2.565485,1.674749
0,1.877781,81,146,499,498,0.00145122,-0.03791365,-0.01600229,-1.485976,-3.000252,-1.643821,-0.004395183,0.02307466,0.0129058,-1.066717,-2.564851,1.674615
0,1.888893,81,146,499,498,0.004659105,-0.04686926,-0.02069629,-1.486223,-2.999453,-1.644089,-0.002990112,0.02859764,0.0122104,-1.06694,-2.564368,1.674432
0,1.900004,89,150,500,498,0.002539843,-0.05579665,-0.02542856,-1.48627,-2.998538,-1.644424,-0.009205148,0.04151693,0.00918288,-1.067082,-2.563417,1.674422
0,1.911115,89,150,500,498,0.004692651,-0.06596214,-0.02926377,-1.486464,-2.997468,-1.644783,-0.006330576,0.04879323,0.01224357,-1.067445,-2.562654,1.674104
0,1.922226,89,150,500,498,0.002588425,-0.06787623,-0.03068967,-1.486493,-2.996604,-1.645107,-0.003899708,0.04520731,0.01146905,-1.067681,-2.562296,1.673972
0,1.933337,89,150,500,498,-0.0005964041,-0.06068105,-0.0284472,-1.486423,-2.996093,-1.645264,0.003078569,0.0405256,0.007937945,-1.068013,-2.562072,1.673933
0,1.944448,95,134,500,498,-0.002730418,-0.05804215,-0.02479345,-1.486385,-2.995469,-1.645407,0.003413338,0.03424092,0.00438809,-1.068169,-2.561827,1.674028
0,1.955559,95,134,500,498,0.002623231,-0.02704556,-0.01639718,-1.486534,-2.996009,-1.645414,0.008975068,0.02403487,0.001564367,-1.068379,-2.561999,1.67409
0,1.966671,95,134,500,498,0.002630406,-0.01985794,-0.01413501,-1.486565,-2.995939,-1.64557,0.01343013,0.01347946,-0.004597386,-1.068583,-2.562452,1.674446
0,1.977782,95,134,500,498,0.01007752,0.006238269,-0.002229253,-1.486814,-2.996828,-1.645293,0.01866626,0.007488418,-0.01045869,-1.068865,-2.562845,1.674773
0,1.988893,95,134,500,498,0.01325919,0.01482832,0.004593361,-1.487013,-2.99722,-1.645093,0.02320729,0.004408423,-0.01740356,-1.069268,-2.563157,1.675146
0,2.000004,100,144,499,497,0.0185618,0.013963,0.009861961,-1.487356,-2.99744,-1.644831,0.0232242,0.006372467,-0.01319789,-1.069391,-2.563144,1.675102
0,2.011115,100,144,499,497,0.01961623,-0.003729994,0.005885473,-1.487598,-2.996947,-1.644884,0.01870465,0.003714261,-0.005989808,-1.069439,-2.563172,1.674957
0,2.022226,100,144,499,497,0.0228079,-0.02458191,0.001415322,-1.487903,-2.996172,-1.644893,0.0190653,0.01281636,-0.001626248,-1.069906,-2.5628,1.674785
0,2.033337,100,144,499,497,0.02390333,-0.05909434,-0.005283485,-1.488313,-2.994618,-1.645025,0.01409245,0.01845814,0.005198334,-1.070089,-2.562396,1.674483
0,2.044448,100,144,499,497,0.02392055,-0.08694008,-0.006552977,-1.488657,-2.99308,-1.644974,0.01092932,0.02518695,0.009620072,-1.070335,-2.561774,1.674109
0,2.055559,101,108,500,499,0.02181559,-0.1032216,-0.005935449,-1.488979,-2.991555,-1.644925,0.007238157,0.03064881,0.007883686,-1.070528,-2.561299,1.674022
0,2.06667,101,108,500,499,0.01866152,-0.1070829,-0.00872294,-1.489183,-2.990365,-1.645012,0.01612276,0.02501587,0.005883485,-1.070833,-2.561335,1.67404
0,2.077781,101,108,500,499,0.0154963,-0.1035861,-0.01031647,-1.489361,-2.98927,-1.645085,0.02529972,0.01891289,0.002483787,-1.071327,-2.561568,1.674115
0,2.088892,101,108,500,499,0.01872332,-0.1000827,-0.01187951,-1.489614,-2.988298,-1.645185,0.0306965,-0.004427075,0.003171707,-1.07135,-2.562432,1.674132
0,2.100003,97,151,500,497,0.01660523,-0.1014768,-0.009930182,-1.489831,-2.987148,-1.645152,0.02018072,-0.01551697,0.003039018,-1.071075,-2.56279,1.674161
0,2.111114,97,151,500,497,0.008010121,-0.09935634,-0.003148826,-1.489674,-2.986142,-1.644986,0.009043034,-0.02755615,0.003886977,-1.070595,-2.563255,1.674163
0,2.122225,97,151,500,497,0.004830736,-0.09830596,-0.003008066,-1.489744,-2.985067,-1.645107,0.007157534,-0.02674311,5.370239E-06,-1.070459,-2.563529,1.674309
0,2.133336,97,151,500,497,0.001667307,-0.1030572,-0.007032021,-1.489766,-2.983774,-1.645184,0.009960934,-0.006233381,-0.006129999,-1.070858,-2.563333,1.674525
0,2.144447,97,151,500,497,0.001687668,-0.1084864,-0.006814189,-1.489906,-2.982459,-1.645167,0.006336589,0.00880039,-0.002102545,-1.070965,-2.562705,1.674244
0,2.155558,96,148,500,498,0.0006471872,-0.1270469,-0.005475551,-1.490022,-2.980586,-1.645079,-0.006223385,0.02603945,0.01553167,-1.070951,-2.561507,1.673425
0,2.166669,96,148,500,498,0.0007523494,-0.1370604,-0.01028728,-1.490368,-2.978782,-1.645145,-0.02105968,0.03508385,0.02734423,-1.070657,-2.560316,1.672574
0,2.17778,96,148,500,498,-0.0001931041,-0.1497151,-0.01882897,-1.490489,-2.976726,-1.645429,-0.02047776,0.03416508,0.02454194,-1.070635,-2.559788,1.672294
0,2.188891,96,148,500,498,-0.00430111,-0.1590561,-0.02795049,-1.490616,-2.97457,-1.645832,-0.008735502,0.01809331,0.006331903,-1.070649,-2.560389,1.67287
0,2.200002,97,164,501,497,-0.008470055,-0.1680167,-0.03270843,-1.490588,-2.972407,-1.646139,-0.001937042,0.01548824,0.001296525,-1.070849,-2.560433,1.673
0,2.211113,97,164,501,497,-0.01914766,-0.1668076,-0.03373265,-1.490219,-2.970492,-1.646361,0.0139156,0.01241854,-0.01789535,-1.07132,-2.561012,1.673892
0,2.222224,97,164,501,497,-0.02776001,-0.1554184,-0.03090687,-1.489835,-2.968962,-1.646441,0.01099224,0.01307817,-0.01224502,-1.071308,-2.560707,1.673758
0,2.233335,97,164,501,497,-0.02463336,-0.1326215,-0.02503806,-1.489817,-2.968046,-1.646532,0.003362047,0.01904521,0.001202015,-1.071318,-2.560129,1.673316
0,2.244446,97,164,501,497,-0.02356716,-0.1175584,-0.02476967,-1.489826,-2.967027,-1.646789,0.001693709,0.0217,0.007255823,-1.071564,-2.55978,1.673053
0,2.255557,92,184,498,495,-0.02692067,-0.08058037,-0.01986244,-1.489423,-2.967173,-1.646861,-0.0001046089,0.01854136,0.003079357,-1.071559,-2.559673,1.673128
0,2.266668,92,184,498,495,-0.01747178,-0.04060471,-0.01326235,-1.489436,-2.967784,-1.646756,0.0002073376,0.01224337,-0.0004441021,-1.071552,-2.55975,1.673277
0,2.277779,92,184,498,495,-0.01760326,-0.001870804,-0.005842923,-1.489132,-2.968811,-1.646673,0.01504552,0.009002166,-0.01008737,-1.072086,-2.560197,1.673711
0,2.28889,92,184,498,495,-0.01766459,0.01304025,0.002004718,-1.488844,-2.969192,-1.646384,0.0298822,0.01729964,-0.01787476,-1.073026,-2.560251,1.674067
0,2.300001,92,176,500,498,-0.01878955,0.03252957,0.01490504,-1.488518,-2.970182,-1.645913,0.03908324,0.01313576,-0.01704699,-1.0737,-2.560617,1.674295
0,2.311112,92,176,500,498,-0.02308027,0.05012147,0.03286632,-1.488019,-2.971159,-1.64521,0.03771905,0.005740743,-0.01002851,-1.073984,-2.560901,1.674224
0,2.322223,92,176,500,498,-0.02411647,0.05854192,0.03424062,-1.487657,-2.971932,-1.644849,0.02779401,-0.006032117,-8.469261E-05,-1.073778,-2.561133,1.673921
0,2.333334,92,176,500,498,-0.02191831,0.06866545,0.02513119,-1.487418,-2.97297,-1.645009,0.02098766,-0.02069783,0.00336433,-1.073526,-2.561685,1.673844
0,2.344445,92,176,500,498,-0.01868818,0.07372826,0.02059439,-1.487168,-2.973912,-1.645086,0.01749404,-0.03672747,-0.004982911,-1.073237,-2.562694,1.674279
0,2.355556,100,173,500,495,-0.02290844,0.07163915,0.02025332,-1.486723,-2.97463,-1.644943,0.03783324,-0.03692095,-0.02412359,-1.073906,-2.563907,1.675225
0,2.366668,100,173,500,495,-0.02182784,0.06113154,0.01853548,-1.486464,-2.974984,-1.644725,0.05665299,-0.02888073,-0.03175085,-1.074901,-2.564707,1.675826
0,2.377779,100,173,500,495,-0.02605861,0.05359697,0.01190349,-1.486074,-2.975257,-1.644752,0.06835321,-0.01192459,-0.03090935,-1.07605,-2.565043,1.676141
0,2.38889,100,173,500,495,-0.03137825,0.03609351,0.0003769025,-1.485583,-2.975205,-1.644993,0.05811021,0.01522557,-0.01867023,-1.076701,-2.564299,1.675838
0,2.400001,100,173,500,495,-0.03671542,0.02386218,-0.003822746,-1.485038,-2.975051,-1.645101,0.0307452,0.02212081,-0.002369491,-1.076466,-2.563529,1.675339
0,2.411112,102,190,499,496,-0.03784382,0.001635137,-0.00644671,-1.484712,-2.974397,-1.645121,0.00535049,0.01600473,-0.003952396,-1.075911,-2.56334,1.675487
0,2.422223,102,190,499,496,-0.03897882,-0.01182832,-0.003294113,-1.48434,-2.97388,-1.644896,0.00626559,0.01446866,-0.01053789,-1.076139,-2.563479,1.675811
0,2.433334,102,190,499,496,-0.03585042,-0.02023425,0.001793549,-1.484055,-2.973425,-1.644718,0.008212622,0.01142163,-0.01559538,-1.076309,-2.563636,1.676152
0,2.444445,102,190,499,496,-0.03481048,-0.01986946,0.006188408,-1.48375,-2.973278,-1.644385,0.01507303,0.004898944,-0.01846106,-1.07664,-2.564054,1.676406
0,2.455556,97,162,500,499,-0.03266658,-0.01391287,0.009351301,-1.48344,-2.973288,-1.644194,0.02299977,-0.005263558,-0.02635046,-1.076938,-2.564815,1.677035
0,2.466667,97,162,500,499,-0.02934157,0.007265238,0.01183201,-1.483279,-2.973967,-1.644031,0.02395546,-0.01810382,-0.02182072,-1.076957,-2.565568,1.677191
0,2.477778,97,162,500,499,-0.02818305,0.02250823,0.01762931,-1.4829,-2.974607,-1.643675,0.02182966,-0.02641794,-0.02188624,-1.076882,-2.566253,1.67753
0,2.488889,97,162,500,499,-0.02483403,0.04263224,0.01993299,-1.482668,-2.975585,-1.643461,0.01602962,-0.03299111,-0.01926026,-1.076637,-2.566803,1.677717
0,2.5,97,162,500,499,-0.02471314,0.05665948,0.0265973,-1.482289,-2.976655,-1.643109,0.02650653,-0.02753056,-0.01646451,-1.077103,-2.567221,1.677837
0,2.511111,97,177,499,498,-0.0277377,0.07247365,0.03569612,-1.481853,-2.977951,-1.642587,0.02826357,-0.01276783,-0.01054105,-1.077525,-2.567161,1.67778
0,2.522222,97,177,499,498,-0.02560757,0.06811131,0.0425095,-1.48162,-2.978645,-1.641957,0.02530036,-0.00249102,-0.007338678,-1.07783,-2.567109,1.677772
0,2.533333,97,177,499,498,-0.02133372,0.06634615,0.0465254,-1.481511,-2.979432,-1.641513,0.02258698,-0.006145215,-0.009097917,-1.077914,-2.567417,1.677954
0,2.544444,97,177,499,498,-0.01823214,0.0533665,0.04006111,-1.481253,-2.979788,-1.641291,0.0177063,-0.01023894,-0.00467787,-1.077839,-2.567539,1.677906
0,2.555555,99,183,500,491,-0.0141737,0.03072341,0.02659687,-1.481228,-2.979486,-1.641349,0.01667193,-0.0127616,-0.01457312,-1.077909,-2.56798,1.678394
0,2.566666,99,183,500,491,-0.01331631,0.005846113,0.007337804,-1.481133,-2.979028,-1.641771,0.01470505,-0.01744628,-0.0133979,-1.078019,-2.568434,1.67867
0,2.577777,99,183,500,491,-0.006035256,-0.01575925,-0.005967395,-1.481264,-2.978436,-1.642215,0.01984343,-0.0289875,-0.01407093,-1.07804,-2.569282,1.678951
0,2.588888,99,183,500,491,-0.01252987,-0.02934023,-0.01477664,-1.481004,-2.97765,-1.642557,0.03207174,-0.02807241,-0.01098313,-1.078502,-2.569905,1.678989
0,2.599999,99,183,500,491,-0.01584099,-0.04278326,-0.01814265,-1.480881,-2.976792,-1.642702,0.0316392,-0.0255083,-0.01112707,-1.078638,-2.570394,1.679229
0,2.61111,91,158,500,499,-0.01804862,-0.0467866,-0.01343389,-1.480629,-2.976218,-1.642621,0.02251713,-0.01948709,-0.01022815,-1.078625,-2.570473,1.679335
0,2.622221,91,158,500,499,-0.01915777,-0.04451586,-0.001175768,-1.480434,-2.975769,-1.64235,0.012821,-0.006789658,-0.006863753,-1.078685,-2.570218,1.679366
0,2.633332,91,158,500,499,-0.0149439,-0.04561831,0.005155026,-1.480425,-2.975276,-1.642094,0.007370207,-0.00218674,0.004211501,-1.078667,-2.569939,1.678959
0,2.644443,91,158,500,499,-0.01278752,-0.04230269,0.004633394,-1.48026,-2.975023,-1.642098,0.001094972,-0.01361174,0.01569292,-1.078365,-2.570128,1.678492
0,2.655554,91,158,500,499,-0.00527861,-0.04289843,-0.005151442,-1.480459,-2.974491,-1.642396,0.0008459417,-0.01730278,0.006350159,-1.078242,-2.57049,1.678717
0,2.666665,94,188,499,498,-0.002018802,-0.04465311,-0.02056612,-1.480533,-2.973819,-1.642889,-0.001792272,-0.01738105,-0.002293699,-1.078228,-2.570798,1.679199
0,2.677776,94,188,499,498,-0.001987953,-0.04655004,-0.02848335,-1.480482,-2.973111,-1.643412,-0.006987835,-0.01143384,0.001078342,-1.078036,-2.570621,1.679075
0,2.688887,94,188,499,498,-0.000893278,-0.04289174,-0.02461907,-1.480547,-2.972725,-1.643544,-0.008518506,0.006379612,0.007683233,-1.078191,-2.56992,1.678675
0,2.699998,94,188,499,498,0.003470071,-0.03155188,-0.02159418,-1.480673,-2.972725,-1.643695,-0.008831721,0.02632034,0.01706826,-1.078489,-2.569062,1.67809
0,2.711109,87,187,501,502,0.01109484,-0.008714063,-0.01011285,-1.480945,-2.973257,-1.643556,-0.004359741,0.03500453,0.01667216,-1.078843,-2.568429,1.677815
0,2.72222,87,187,501,502,0.01757177,-0.0008750674,-0.01199387,-1.481318,-2.97345,-1.643763,-3.259443E-05,0.03047275,0.01749289,-1.079123,-2.568345,1.677547
0,2.733331,87,187,501,502,0.0166068,0.01261358,-0.008640564,-1.48141,-2.973967,-1.643819,0.007389572,0.009388537,0.005939186,-1.079196,-2.568928,1.67783
0,2.744442,87,187,501,502,0.01241567,0.02122766,-0.008286128,-1.481432,-2.974294,-1.643928,0.01553314,-0.006870946,-0.0006087697,-1.079338,-2.569775,1.678126
0,2.755553,87,187,501,502,0.009204883,0.02002746,-0.007424544,-1.481432,-2.974465,-1.644001,0.01446105,-0.0188375,-0.005679364,-1.079192,-2.570446,1.678431
0,2.766664,89,186,500,498,0.01132515,0.01828296,-0.009873576,-1.481629,-2.974757,-1.644256,0.01215279,-0.01718003,-0.001053401,-1.079182,-2.570475,1.678283
0,2.777775,89,186,500,498,0.01874934,0.01577582,-0.008102034,-1.482023,-2.974913,-1.644274,0.00766799,-0.006391169,0.007307753,-1.079243,-2.570128,1.67791
0,2.788886,89,186,500,498,0.01983454,0.01910282,-0.008617547,-1.482245,-2.975214,-1.644409,7.927837E-05,-0.0005351768,0.01588477,-1.079185,-2.569789,1.677455
0,2.799997,89,186,500,498,0.02514061,0.01853197,-0.005449965,-1.482694,-2.975354,-1.644312,-0.007048299,0.008173263,0.01143267,-1.079195,-2.569349,1.677441
0,2.811108,84,174,499,499,0.02300359,0.01942936,-0.004241644,-1.48285,-2.975562,-1.6445,-0.008042107,0.01540633,0.009576058,-1.079262,-2.568928,1.677329
0,2.822219,84,174,499,499,0.02087415,0.02206371,-0.0005769108,-1.483058,-2.975837,-1.644479,-0.006958846,0.0157902,0.01291102,-1.079319,-2.568634,1.677176
0,2.83333,84,174,499,499,0.01663809,0.02803965,0.002562334,-1.483082,-2.976324,-1.644399,-0.005502749,0.01171425,0.0146033,-1.079302,-2.56847,1.676936
0,2.844441,84,174,499,499,0.01452751,0.0320765,0.004302034,-1.483262,-2.976727,-1.644351,-0.01142124,0.007116041,0.01330626,-1.079081,-2.568289,1.67684
0,2.855552,84,174,499,499,0.01350777,0.04206171,0.009199413,-1.483326,-2.977548,-1.644162,-0.003132684,-0.00550634,0.007971143,-1.079042,-2.568748,1.676934
0,2.866663,80,194,498,487,0.01673121,0.04835597,0.0102499,-1.483571,-2.978335,-1.644121,0.005349397,-0.02035705,0.001820252,-1.079082,-2.569549,1.677049
0,2.877774,80,194,498,487,0.01354266,0.0478512,0.006911591,-1.483579,-2.978845,-1.644174,0.002980511,-0.02461333,-0.003719037,-1.078879,-2.56997,1.677299
0,2.888885,80,194,498,487,0.01130173,0.02702836,0.00234175,-1.483677,-2.978562,-1.644227,-0.01207536,-0.01933228,-0.006233708,-1.078323,-2.569651,1.677363
0,2.899997,80,194,498,487,0.01017213,0.01442929,0.0002300313,-1.483811,-2.978459,-1.644252,-0.01764528,-0.0129712,-0.009565347,-1.078034,-2.569688,1.677665
0,2.911108,79,185,500,497,0.007875064,-0.0184816,-0.003113274,-1.483928,-2.977375,-1.644302,-0.0288396,0.003931884,-0.005465996,-1.077736,-2.568928,1.677555
0,2.922219,79,185,500,497,0.008928863,-0.02251215,-0.0048732,-1.484037,-2.977054,-1.644521,-0.03651365,0.01376342,0.003404869,-1.077484,-2.56807,1.677153
0,2.93333,79,185,500,497,0.0003086128,-0.03893149,-0.003341126,-1.483873,-2.976131,-1.644471,-0.03715684,0.01281904,0.004410049,-1.077157,-2.567703,1.677055
0,2.944441,79,185,500,497,0.002433698,-0.03632025,0.0003465647,-1.483915,-2.975735,-1.644447,-0.03620384,0.007397715,-4.913472E-05,-1.076728,-2.567755,1.677305
0,2.955552,79,185,500,497,0.001400562,-0.02913542,0.002630521,-1.484011,-2.975695,-1.644271,-0.03540606,-0.003663965,-0.009936383,-1.076258,-2.568057,1.677771
0,2.966663,80,184,499,496,0.005736904,-0.007961978,0.01158822,-1.484143,-2.976253,-1.643901,-0.03271142,-0.00775966,-0.0120471,-1.075909,-2.568179,1.677979
0,2.977774,80,184,499,496,0.007904733,0.002016137,0.01649499,-1.484255,-2.976616,-1.643597,-0.0285886,-0.004647269,-0.02359013,-1.075776,-2.568305,1.678658
0,2.988885,80,184,499,496,0.005836639,0.01780027,0.02557045,-1.484135,-2.977244,-1.643177,-0.03114579,0.001040988,-0.02442421,-1.075527,-2.567986,1.678973
0,2.999996,80,184,499,496,0.004815623,0.02394793,0.02765309,-1.484179,-2.977721,-1.642781,-0.02976929,0.0009355061,-0.02248175,-1.075297,-2.56793,1.679197
0,3.011107,80,184,499,496,-0.0005205087,0.02383211,0.03514676,-1.484071,-2.97804,-1.642354,-0.03585256,-0.005212555,-0.0184504,-1.074688,-2.568018,1.679383
0,3.022218,77,187,498,495,-0.001579368,0.02367295,0.03618237,-1.484038,-2.978264,-1.642012,-0.03259181,-0.01585172,-0.02067898,-1.07422,-2.568484,1.679737
0,3.033329,77,187,498,495,0.000502592,0.01614103,0.03602479,-1.484081,-2.978303,-1.641629,-0.02348803,-0.02000906,-0.027917,-1.074058,-2.569044,1.680367
0,3.04444,77,187,498,495,-0.001671167,0.01002466,0.03393,-1.483873,-2.978245,-1.64131,-0.02077677,-0.02037729,-0.03452115,-1.07389,-2.56934,1.680986
0,3.055551,77,187,498,495,-0.0006208066,0.006334704,0.03008946,-1.483897,-2.978249,-1.641095,-0.02347569,-0.01834293,-0.03659026,-1.073575,-2.569538,1.681522
0,3.066662,82,172,500,505,0.0003465898,-0.005948122,0.02592715,-1.483839,-2.977807,-1.640884,-0.0276434,-0.00834348,-0.03434359,-1.073276,-2.569213,1.681795
0,3.077773,82,172,500,505,-0.003961461,-0.01116214,0.02505439,-1.483694,-2.977569,-1.64061,-0.03458561,0.005848803,-0.02760073,-1.07298,-2.56854,1.681853
0,3.088884,82,172,500,505,-0.001917245,-0.01921621,0.02807979,-1.483791,-2.977173,-1.640133,-0.03270025,0.01267935,-0.02219971,-1.072824,-2.568164,1.681891
0,3.099995,82,172,500,505,-0.00187896,-0.01483681,0.02771981,-1.483772,-2.977074,-1.6398,-0.02663679,0.01152323,-0.01486132,-1.072766,-2.567989,1.681805
0,3.111106,82,172,500,505,0.001349019,-0.01170545,0.02823881,-1.483923,-2.977059,-1.639584,-0.0197295,0.005056437,-0.01773346,-1.072708,-2.568247,1.682227
0,3.122217,84,162,499,498,0.005654093,-0.006654158,0.03016008,-1.484093,-2.977056,-1.639198,-0.01931266,-0.00141252,-0.02358339,-1.072434,-2.568451,1.682753
0,3.133328,84,162,499,498,0.007769274,-0.009312043,0.02649977,-1.484238,-2.976964,-1.639081,-0.01672808,-0.007428027,-0.035618,-1.072268,-2.568938,1.683594
0,3.144439,84,162,499,498,0.00879693,-0.01263824,0.02705538,-1.484367,-2.976748,-1.63869,-0.01270109,-0.0001316438,-0.03641235,-1.072293,-2.568923,1.683981
0,3.15555,84,162,499,498,0.00977176,-0.02122132,0.02676781,-1.484531,-2.976314,-1.638389,-0.01577676,0.004521392,-0.03052278,-1.072155,-2.568705,1.684145
0,3.166661,88,187,499,500,0.01289235,-0.03180655,0.01863131,-1.48486,-2.975724,-1.638279,-0.01471164,0.01453552,-0.02149892,-1.072189,-2.568222,1.683961
0,3.177772,88,187,499,500,0.01282575,-0.03899583,0.01641637,-1.485045,-2.975126,-1.638107,-0.01292086,0.01963159,-0.01553932,-1.072265,-2.567835,1.683917
0,3.188883,88,187,499,500,0.01492599,-0.04112089,0.01609383,-1.485173,-2.97463,-1.637947,-0.009656867,0.01677128,-0.01389388,-1.072268,-2.567811,1.684114
0,3.199994,88,187,499,500,0.01493569,-0.04006275,0.01627696,-1.485359,-2.974271,-1.637725,-0.008854114,0.008003548,-0.01482819,-1.072131,-2.568013,1.684325
0,3.211105,88,187,499,500,0.01613727,-0.02710399,0.01618986,-1.48556,-2.974463,-1.637541,-0.008797322,0.0002521654,-0.01869802,-1.071933,-2.568345,1.684705
0,3.222216,90,163,499,496,0.01735581,-0.01220609,0.01748034,-1.485782,-2.974803,-1.637303,-0.003505647,0.001831615,-0.02298108,-1.072063,-2.568534,1.685154
0,3.233327,90,163,499,496,0.01531344,-0.004317319,0.01548031,-1.485877,-2.974989,-1.637193,-0.002375601,0.01562063,-0.01035959,-1.072339,-2.567975,1.684853
0,3.244438,90,163,499,496,0.01433336,0.003233119,0.01558338,-1.486088,-2.975225,-1.637032,0.000765339,0.01674616,-0.00844877,-1.072511,-2.567751,1.684805
0,3.255549,90,163,499,496,0.01213502,-0.003942517,0.01336702,-1.486201,-2.97502,-1.636926,0.0003392994,0.01559787,-0.00409791,-1.072549,-2.567587,1.684721
0,3.26666,89,168,499,495,0.01103469,-0.006922301,0.01181283,-1.486199,-2.974864,-1.636864,-0.002302266,0.008202296,-0.001353762,-1.072405,-2.567611,1.684712
0,3.277771,89,168,499,495,0.009860605,-0.01831948,0.008943681,-1.486337,-2.974385,-1.63681,0.002666346,0.0007669515,-0.007524969,-1.072459,-2.567985,1.685037
0,3.288882,89,168,499,495,0.0108641,-0.02536687,0.005688343,-1.486492,-2.973926,-1.636829,0.005518158,0.0003425474,-0.008398566,-1.072558,-2.568136,1.685222
0,3.299993,89,168,499,495,0.0118848,-0.03135942,0.002602859,-1.486693,-2.973419,-1.636859,0.01439833,0.002503197,-0.006429313,-1.072955,-2.568251,1.685212
0,3.311104,89,168,499,495,0.01622489,-0.02675753,-0.006360201,-1.4869,-2.973204,-1.637113,0.008377975,-0.005350756,0.006292609,-1.072779,-2.568181,1.684736
0,3.322215,87,159,500,505,0.01622633,-0.02764201,-0.007580769,-1.487078,-2.972849,-1.637259,0.009254115,-0.01034991,0.008978155,-1.072727,-2.568361,1.68448
0,3.333326,87,159,500,505,0.01309653,-0.02024462,-0.006436666,-1.487147,-2.972819,-1.637285,0.007118372,-0.001639098,0.005589835,-1.072835,-2.5682,1.684492
0,3.344437,87,159,500,505,0.01214902,-0.007106403,-0.007625088,-1.487157,-2.973081,-1.637457,0.01105635,0.003925149,0.00535733,-1.073136,-2.568119,1.684504
0,3.355548,87,159,500,505,0.01444062,0.009103323,-0.01478093,-1.487349,-2.973612,-1.637861,0.01163209,0.01461807,0.01240885,-1.073456,-2.567613,1.684063
0,3.366659,87,159,500,505,0.016661,0.02082814,-0.01400993,-1.487576,-2.97409,-1.63793,0.01532268,0.01492169,0.01389649,-1.0738,-2.567477,1.683829
0,3.37777,86,152,500,501,0.01775344,0.02592175,-0.0121311,-1.487759,-2.974509,-1.638056,0.01431782,0.01068356,0.0126814,-1.073915,-2.56749,1.683712
0,3.388881,86,152,500,501,0.01562338,0.02466022,-0.01771821,-1.487904,-2.97463,-1.638299,0.0157874,0.01235138,0.01404637,-1.074192,-2.567333,1.683529
0,3.399992,86,152,500,501,0.01245026,0.02817954,-0.01933042,-1.487926,-2.975013,-1.638588,0.01719897,0.006534566,0.01631019,-1.07433,-2.56742,1.68327
0,3.411103,86,152,500,501,0.01563498,0.02743991,-0.02158564,-1.488138,-2.975231,-1.638833,0.02451245,0.00694286,0.008802244,-1.074762,-2.56759,1.683405
0,3.422215,85,180,500,496,0.01347819,0.02502085,-0.01981408,-1.488245,-2.975425,-1.638996,0.02643642,0.006030984,0.01032723,-1.075058,-2.56773,1.683235
0,3.433326,85,180,500,496,0.0134819,0.02658515,-0.0227988,-1.488309,-2.975739,-1.63938,0.02441496,0.009197609,0.01774274,-1.075327,-2.567486,1.682774
0,3.444437,85,180,500,496,0.01665848,0.02446679,-0.0231179,-1.48863,-2.975926,-1.639599,0.01792401,0.0132273,0.02310687,-1.075443,-2.567064,1.682306
0,3.455548,85,180,500,496,0.01454796,0.02903086,-0.02455823,-1.488767,-2.976348,-1.639894,0.01071301,0.01054092,0.02167838,-1.075381,-2.566881,1.682064
0,3.466659,85,180,500,496,0.01769756,0.02133096,-0.02360274,-1.489079,-2.976538,-1.640079,0.01357268,0.01009369,0.02080793,-1.07567,-2.566965,1.681843
0,3.47777,81,145,499,494,0.01342713,0.01942263,-0.02499394,-1.489102,-2.976683,-1.640409,0.01125167,-0.003628552,0.02009528,-1.075516,-2.567312,1.681683
0,3.488881,81,145,499,494,0.01128371,0.01911359,-0.02289168,-1.489148,-2.976987,-1.640603,0.01813478,-0.006399592,0.0127598,-1.075824,-2.567677,1.681763
0,3.499992,81,145,499,494,0.01021946,0.02034586,-0.02377594,-1.489211,-2.977199,-1.640925,0.01788624,-0.006062694,0.01178195,-1.075956,-2.567782,1.68165
0,3.511103,81,145,499,494,0.01235011,0.02262427,-0.02448587,-1.489373,-2.977553,-1.641275,0.02053321,-0.002270156,0.0159169,-1.076314,-2.567756,1.681338
0,3.522214,80,157,498,499,0.00915942,0.02597398,-0.02504205,-1.489396,-2.97797,-1.641595,0.01782522,0.001793927,0.01801728,-1.076414,-2.567638,1.681044
0,3.533325,80,157,498,499,0.01018823,0.01987848,-0.02061207,-1.489554,-2.978009,-1.641709,0.01281828,-0.0002398049,0.02088926,-1.076377,-2.56755,1.68069
0,3.544436,80,157,498,499,0.009120598,0.01795782,-0.02199791,-1.489645,-2.978215,-1.642014,0.01317058,0.00487563,0.01679419,-1.07679,-2.567586,1.680606
0,3.555547,80,157,498,499,0.01015649,0.009758599,-0.01790465,-1.489846,-2.978131,-1.642126,0.01739665,0.002321836,0.01368554,-1.07701,-2.567728,1.68053
0,3.566658,80,157,498,499,0.008031366,0.009044495,-0.02018092,-1.489891,-2.978092,-1.642414,0.020296,0.001746076,0.01043687,-1.077332,-2.567811,1.68054
0,3.577769,78,182,499,496,0.0122893,0.01009643,-0.01999779,-1.490125,-2.978226,-1.642629,0.01867354,-0.003552637,0.007840142,-1.077398,-2.568056,1.68055
0,3.58888,78,182,499,496,0.01547768,0.0139753,-0.01721532,-1.490454,-2.978554,-1.642749,0.01562259,-0.006611607,0.009857016,-1.07736,-2.568161,1.680367
0,3.599991,78,182,499,496,0.01333251,0.01873714,-0.01323199,-1.490534,-2.978887,-1.642797,0.0110533,-0.007486122,0.00837796,-1.077301,-2.568244,1.680333
0,3.611102,78,182,499,496,0.01544575,0.01735483,-0.0112961,-1.490704,-2.978961,-1.643041,0.007080782,-0.003262585,0.01664694,-1.077383,-2.568003,1.679824
0,3.622213,78,182,499,496,0.01116499,0.02071546,-0.005383216,-1.490703,-2.979145,-1.642901,0.006838753,0.002802134,0.0153531,-1.07748,-2.567768,1.679567
0,3.633324,81,160,500,500,0.004763251,0.02337051,-0.001749078,-1.490583,-2.97947,-1.642849,0.01323504,0.008432491,0.009920048,-1.077858,-2.567698,1.679572
0,3.644435,81,160,500,500,0.003689915,0.02408012,0.0005190172,-1.490566,-2.979627,-1.642773,0.01970315,-0.001371711,0.00488283,-1.078022,-2.568192,1.679721
0,3.655546,81,160,500,500,0.00581422,0.02812002,0.00224456,-1.490636,-2.980038,-1.642688,0.02803888,-0.02373034,-0.008451452,-1.078132,-2.569422,1.680314
0,3.666657,81,160,500,500,0.004748487,0.03127474,0.002741836,-1.490626,-2.980424,-1.642662,0.0287275,-0.0286598,-0.01148576,-1.078173,-2.570064,1.680566
0,3.677768,78,140,500,502,0.005810207,0.02795181,0.003294925,-1.490695,-2.980672,-1.642616,0.01782661,-0.03157708,-0.01441891,-1.077804,-2.570388,1.680793
0,3.688879,78,140,500,502,0.006862212,0.02323933,0.005785098,-1.490748,-2.980747,-1.642485,0.008874882,-0.02173759,-0.001818468,-1.077665,-2.570185,1.680443
0,3.69999,78,140,500,502,0.006850403,0.01310568,0.008493658,-1.490837,-2.980648,-1.642305,0.00465772,-0.001997637,0.0003152459,-1.077859,-2.56965,1.680262
0,3.711101,78,140,500,502,0.005768221,0.005239618,0.01048324,-1.490746,-2.980483,-1.642123,-0.001770122,0.007670446,0.002971453,-1.07787,-2.569219,1.680109
0,3.722212,78,140,500,502,0.003636217,0.001027372,0.009812704,-1.490719,-2.980349,-1.642011,-0.006570066,0.01488622,0.004377149,-1.077896,-2.568869,1.679919
0,3.733323,79,141,499,497,0.004680404,-0.0006841875,0.01385933,-1.490738,-2.980373,-1.64174,-0.009920827,0.008267106,-0.0005675154,-1.077703,-2.568926,1.680073
0,3.744434,79,141,499,497,0.002547102,-0.003841826,0.01335694,-1.490724,-2.98021,-1.641576,-0.009536356,-0.0002427502,-0.01057586,-1.077441,-2.569387,1.680511
0,3.755545,79,141,499,497,0.001454209,-0.009758321,0.01673832,-1.490636,-2.980019,-1.641274,0.00127884,-0.003105059,-0.01543534,-1.077654,-2.569754,1.680861
0,3.766656,79,141,499,497,-0.002798995,-0.01047129,0.01445621,-1.490552,-2.979918,-1.641132,0.01121096,-0.00656742,-0.0202665,-1.077917,-2.570229,1.681178
0,3.777767,83,149,498,498,-0.001739128,-0.01063439,0.01551492,-1.490578,-2.979821,-1.640923,0.00718739,-0.002537514,-0.02249338,-1.077928,-2.570253,1.681499
0,3.788878,83,149,498,498,-0.001769345,-0.0105662,0.02199675,-1.490514,-2.979722,-1.64051,-0.00219933,0.003792196,-0.02258441,-1.077772,-2.570077,1.681725
0,3.799989,83,149,498,498,0.001435038,-0.01218152,0.01852397,-1.49064,-2.979576,-1.640405,-0.005554847,0.01469842,-0.01564955,-1.077818,-2.569542,1.681623
0,3.8111,83,149,498,498,0.002501367,-0.01533544,0.01804087,-1.490818,-2.979363,-1.640201,-0.009048183,0.01420928,-0.01378716,-1.077722,-2.569367,1.681723
0,3.822211,83,149,498,498,0.003536087,-0.02246055,0.02234355,-1.490992,-2.978989,-1.639732,-0.01195318,0.02219051,-0.01956106,-1.077735,-2.568933,1.681989
0,3.833322,82,148,499,498,0.001401731,-0.02933081,0.01803342,-1.491019,-2.978523,-1.639699,-0.01328522,0.02988434,-0.02004545,-1.07783,-2.568419,1.682174
0,3.844433,82,148,499,498,0.004593626,-0.03816193,0.01237043,-1.491157,-2.977864,-1.639676,-0.02076797,0.03531301,-0.018612,-1.077722,-2.567748,1.682254
0,3.855544,82,148,499,498,0.005654596,-0.03727618,0.01358757,-1.491241,-2.977422,-1.639587,-0.03017572,0.04735921,-0.01904362,-1.077632,-2.566771,1.682408
0,3.866655,82,148,499,498,0.001362238,-0.05394297,0.009928405,-1.491279,-2.976459,-1.63946,-0.03521153,0.05679051,-0.01683507,-1.077538,-2.565776,1.682444
0,3.877766,83,149,499,499,-0.001884537,-0.06494702,0.01146512,-1.491266,-2.975453,-1.639224,-0.03251027,0.05473841,-0.01474009,-1.077528,-2.565136,1.682417
0,3.888877,83,149,499,499,-0.004049547,-0.07230908,0.01034477,-1.491269,-2.97446,-1.638979,-0.03065352,0.05193686,-0.01502809,-1.077478,-2.56469,1.682646
0,3.899988,83,149,499,499,-0.005168425,-0.082102,0.01100742,-1.491261,-2.973308,-1.638739,-0.03431821,0.05722508,-0.01922561,-1.077332,-2.563782,1.682777
0,3.911099,83,149,499,499,-0.01057118,-0.08677461,0.01352477,-1.491053,-2.972246,-1.638354,-0.03545782,0.05899449,-0.01601066,-1.077298,-2.56296,1.682792
0,3.92221,83,149,499,499,-0.009592658,-0.0928424,0.01803631,-1.491046,-2.971055,-1.637861,-0.03973897,0.05761613,-0.01888425,-1.077171,-2.562307,1.682967
0,3.933321,86,169,499,493,-0.009642191,-0.0952611,0.01985029,-1.491023,-2.969967,-1.637523,-0.0401023,0.05988459,-0.02381673,-1.077137,-2.561579,1.683319
0,3.944432,86,169,499,493,-0.008643679,-0.09515869,0.02638234,-1.491022,-2.969011,-1.637002,-0.05228694,0.05894627,-0.01872045,-1.076537,-2.560485,1.683247
0,3.955544,86,169,499,493,-0.006601028,-0.09357946,0.03747454,-1.491044,-2.96809,-1.636241,-0.07122802,0.04698256,-0.0145327,-1.075489,-2.559695,1.683263
0,3.966655,86,169,499,493,-0.005566355,-0.08982821,0.04132133,-1.491066,-2.967247,-1.635708,-0.1105027,0.03464147,-0.006353572,-1.0736,-2.558391,1.683074
0,3.977766,86,169,499,493,-0.01013412,-0.1130382,0.05297676,-1.490938,-2.96546,-1.634725,-0.1491435,0.04046044,0.0105286,-1.071427,-2.556155,1.682347
0,3.988877,85,153,499,498,-0.01271717,-0.1434615,0.07012216,-1.490952,-2.963187,-1.6334,-0.1495687,0.03558488,0.02194039,-1.070181,-2.554803,1.681711
0,3.999988,85,153,499,498,-0.02646502,-0.1911845,0.1042216,-1.490595,-2.960073,-1.631219,-0.1373644,0.02040467,-0.008527234,-1.069191,-2.554765,1.682641
1,4.011099,85,153,499,498,-0.04088607,-0.2311362,0.1787402,-1.490043,-2.956883,-1.626942,-0.1375296,0.02064282,-0.06059349,-1.06808,-2.554691,1.684882
2,4.02221,85,153,499,498,-0.06673726,-0.2602507,0.185522,-1.488931,-2.953502,-1.624564,-0.1313308,0.02078139,-0.1154922,-1.067201,-2.554965,1.687989
3,4.033321,88,151,499,496,-0.07341915,-0.2545575,0.1551629,-1.488186,-2.950873,-1.623502,-0.1307394,0.03457369,-0.1119287,-1.066375,-2.554128,1.689241
4,4.044433,88,151,499,496,-0.06959219,-0.2546752,0.1500286,-1.48783,-2.948209,-1.622045,-0.1362768,0.05188864,-0.09857644,-1.065463,-2.552595,1.689754
5,4.055544,88,151,499,496,-0.07045798,-0.2571891,0.1727537,-1.487283,-2.945551,-1.619356,-0.1489282,0.07121897,-0.101227,-1.064425,-2.550863,1.690879
6,4.066655,88,151,499,496,-0.08140936,-0.266966,0.2052237,-1.486319,-2.942607,-1.61608,-0.1676738,0.09080617,-0.1207779,-1.063151,-2.549232,1.692935
7,4.077766,88,151,499,496,-0.08464292,-0.2712413,0.2289086,-1.485739,-2.939824,-1.612847,-0.1691006,0.1176827,-0.1285634,-1.062526,-2.547012,1.694542
8,4.088878,86,132,499,498,-0.08489668,-0.275462,0.262431,-1.48509,-2.937046,-1.608954,-0.1867414,0.1291801,-0.117447,-1.061283,-2.544602,1.69546
9,4.099989,86,132,499,498,-0.08695589,-0.2952975,0.2853346,-1.484324,-2.933655,-1.605132,-0.2163907,0.1266959,-0.1310281,-1.059264,-2.542615,1.697234
10,4.1111,86,132,499,498,-0.09166253,-0.3039302,0.2783785,-1.483535,-2.930297,-1.602048,-0.2264449,0.1256317,-0.1540955,-1.057672,-2.540971,1.699658
11,4.122211,86,132,499,498,-0.09168336,-0.3041053,0.2703733,-1.482828,-2.927273,-1.599097,-0.2133983,0.1145045,-0.1788012,-1.056644,-2.540226,1.702451
12,4.133323,81,151,498,498,-0.09936485,-0.307185,0.261859,-1.481884,-2.92397,-1.596316,-0.1626508,0.1145576,-0.184527,-1.056948,-2.539746,1.704759
13,4.144434,81,151,498,498,-0.1037148,-0.3057928,0.2701377,-1.480999,-2.920782,-1.593066,-0.1339621,0.1322234,-0.1911557,-1.057377,-2.538511,1.70699
14,4.155545,81,151,498,498,-0.1066307,-0.3149849,0.2772244,-1.480108,-2.9172,-1.589716,-0.1393849,0.167768,-0.1884613,-1.057482,-2.535863,1.708853
15,4.166656,81,151,498,498,-0.1113747,-0.3172571,0.2915535,-1.479115,-2.91391,-1.586212,-0.1775368,0.1637691,-0.1595878,-1.055706,-2.533286,1.70971
16,4.177768,81,151,498,498,-0.1122416,-0.2769688,0.3227081,-1.478131,-2.912234,-1.581478,-0.1790054,0.1471556,-0.07496452,-1.054367,-2.530642,1.708062
17,4.188879,75,144,499,498,-0.104746,-0.2190356,0.3317128,-1.4773,-2.911635,-1.577735,-0.1745458,0.1648606,0.01989696,-1.053725,-2.526337,1.704517
18,4.19999,75,144,499,498,-0.08196422,-0.07357629,0.360274,-1.476785,-2.915189,-1.5729,-0.1783656,0.2269076,0.1130597,-1.05367,-2.519706,1.699718
19,4.211102,75,144,499,498,-0.06069395,0.1061938,0.433424,-1.476113,-2.921896,-1.566081,-0.1599786,0.3285349,0.1449706,-1.055519,-2.511896,1.695872
20,4.222213,75,144,499,498,-0.05863747,0.2513947,0.5487278,-1.474714,-2.928726,-1.556944,-0.1849277,0.4249871,0.1025349,-1.056512,-2.504105,1.695088
21,4.233324,79,132,498,497,-0.07368118,0.2983325,0.6808501,-1.473026,-2.933848,-1.545705,-0.2427921,0.5266021,0.05218796,-1.057021,-2.494424,1.694762
22,4.244435,79,132,498,497,-0.09475338,0.260934,0.7394835,-1.471104,-2.93541,-1.536339,-0.2784637,0.5279068,0.05678194,-1.056221,-2.486823,1.692976
23,4.255547,79,132,498,497,-0.1471974,0.1358744,0.7642066,-1.46826,-2.933491,-1.527078,-0.3845854,0.417206,0.02193287,-1.050825,-2.482037,1.693522
24,4.266658,79,132,498,497,-0.2069705,0.04117845,0.7592372,-1.464601,-2.931004,-1.519224,-0.3696159,0.3216179,-0.113404,-1.048441,-2.481746,1.698869
25,4.277769,79,132,498,497,-0.2958933,-0.08412833,0.8436517,-1.459366,-2.92587,-1.507592,-0.3263829,0.2901963,-0.2074599,-1.047879,-2.480572,1.704125
26,4.28888,82,166,498,494,-0.437745,-0.2433248,0.9943579,-1.451936,-2.918477,-1.492865,-0.2941723,0.2484521,-0.335541,-1.047628,-2.480645,1.711714
27,4.299992,82,166,498,494,-0.5042394,-0.2845943,1.060783,-1.445763,-2.913842,-1.479853,-0.3280995,0.2009206,-0.3637183,-1.044491,-2.479084,1.716519
28,4.311103,82,166,498,494,-0.576376,-0.3261862,1.143412,-1.438602,-2.907823,-1.465435,-0.4059537,0.07253399,-0.3895923,-1.037939,-2.480404,1.722695
29,4.322214,82,166,498,494,-0.6196724,-0.3349977,1.218489,-1.431996,-2.902809,-1.45053,-0.4733866,-0.08758037,-0.4061829,-1.029897,-2.483554,1.72895
30,4.333325,82,166,498,494,-0.6467503,-0.3478038,1.28982,-1.425476,-2.897012,-1.434958,-0.5413193,-0.2191618,-0.4482405,-1.020866,-2.487562,1.736997
31,4.344437,86,135,498,499,-0.6704319,-0.3362031,1.318367,-1.418617,-2.891943,-1.420476,-0.5765787,-0.2855681,-0.4709092,-1.012911,-2.49032,1.74454
32,4.355548,86,135,498,499,-0.6820539,-0.2868698,1.343953,-1.411892,-2.888052,-1.405319,-0.614713,-0.3178222,-0.4978459,-1.004537,-2.493035,1.752774
33,4.366659,86,135,498,499,-0.6772051,-0.1746072,1.409435,-1.405473,-2.886964,-1.38809,-0.6500853,-0.2686732,-0.4964971,-0.9976846,-2.49228,1.759245
34,4.37777,86,135,498,499,-0.6768039,-0.07481217,1.486701,-1.398704,-2.886234,-1.369318,-0.6826739,-0.2177718,-0.5044382,-0.9907619,-2.491165,1.766333
35,4.388882,86,164,498,495,-0.689263,0.06471097,1.676961,-1.391098,-2.88699,-1.345077,-0.7361313,-0.1336913,-0.5403642,-0.9841749,-2.488142,1.774266
36,4.399993,86,164,498,495,-0.6908432,0.1375481,1.752434,-1.384138,-2.886246,-1.323564,-0.7593357,-0.1462575,-0.5667276,-0.9763143,-2.488462,1.78299
37,4.411104,86,164,498,495,-0.6946235,0.2062575,1.809295,-1.377163,-2.886071,-1.301468,-0.8098992,-0.1947952,-0.5707967,-0.9669746,-2.488753,1.791504
38,4.422215,86,164,498,495,-0.6834624,0.274112,1.818298,-1.370472,-2.886381,-1.280731,-0.8508361,-0.2559456,-0.5675057,-0.9567268,-2.489672,1.800108
39,4.433327,86,164,498,495,-0.6739014,0.3673309,1.819768,-1.363623,-2.888085,-1.259311,-0.9198158,-0.3259041,-0.5688779,-0.9447036,-2.490765,1.809323
40,4.444438,114,144,499,498,-0.6585239,0.467709,1.840535,-1.357059,-2.890517,-1.236566,-0.9532987,-0.3779627,-0.5887952,-0.9336313,-2.492539,1.819538
41,4.455549,114,144,499,498,-0.6383632,0.6159254,1.919905,-1.350365,-2.8952,-1.210127,-0.9693536,-0.392086,-0.6157035,-0.9233078,-2.49384,1.830199
42,4.46666,114,144,499,498,-0.6265851,0.7357136,1.959154,-1.343652,-2.89959,-1.18447,-1.021702,-0.4287643,-0.6767277,-0.9117838,-2.495895,1.843074
43,4.477772,114,144,499,498,-0.6167465,0.8080449,1.964488,-1.337052,-2.903513,-1.159386,-1.047806,-0.4752725,-0.7328613,-0.9001309,-2.499152,1.857222
44,4.488883,248,118,484,497,-0.6033487,0.8566341,1.9996,-1.331208,-2.906247,-1.133613,-1.082729,-0.5815597,-0.7937685,-0.886562,-2.505095,1.873426
45,4.499994,248,118,484,497,-0.5865357,0.9194818,1.99295,-1.325296,-2.910331,-1.108202,-1.131662,-0.7255445,-0.7884743,-0.8705501,-2.511656,1.888335
46,4.511106,248,118,484,497,-0.5376259,1.007607,1.991858,-1.32039,-2.915476,-1.081674,-1.128081,-0.8268981,-0.7259358,-0.8553258,-2.518212,1.901295
47,4.522217,248,118,484,497,-0.5033293,1.088819,1.965747,-1.315727,-2.92107,-1.054963,-1.140531,-0.8696523,-0.673584,-0.8407488,-2.523088,1.913691
48,4.533328,248,118,484,497,-0.4576166,1.171666,1.935139,-1.311392,-2.927408,-1.028738,-1.138176,-0.8990912,-0.6826187,-0.8267208,-2.529223,1.928531
49,4.544439,322,192,488,490,-0.4260092,1.241474,1.900604,-1.306612,-2.934134,-1.002612,-1.134506,-0.9441016,-0.7156246,-0.81276,-2.536978,1.945673
50,4.555551,322,192,488,490,-0.3782935,1.318289,1.862951,-1.303028,-2.941449,-0.976114,-1.111948,-1.022694,-0.770658,-0.7984967,-2.547823,1.965597
51,4.566662,322,192,488,490,-0.3371415,1.374904,1.82046,-1.299586,-2.948682,-0.9498414,-1.117401,-1.057213,-0.8071119,-0.7843201,-2.557469,1.985387
52,4.577773,322,192,488,490,-0.295717,1.410246,1.76842,-1.296639,-2.955711,-0.9240264,-1.121784,-1.073756,-0.7952491,-0.7702485,-2.566014,2.003822
53,4.588884,322,192,488,490,-0.2706568,1.433735,1.722593,-1.293856,-2.962192,-0.8987785,-1.175173,-1.093648,-0.7211374,-0.7542541,-2.572242,2.019638
54,4.599996,306,165,502,497,-0.2798411,1.451931,1.677246,-1.290027,-2.968481,-0.8735142,-1.184902,-1.135759,-0.6613333,-0.7383348,-2.580204,2.036219
55,4.611107,306,165,502,497,-0.290029,1.480023,1.647642,-1.286309,-2.97442,-0.8481427,-1.154837,-1.183853,-0.6192769,-0.7230759,-2.590111,2.053743
56,4.622218,306,165,502,497,-0.2696599,1.530866,1.639343,-1.283614,-2.981063,-0.8212385,-1.142076,-1.267211,-0.5980609,-0.7067545,-2.602653,2.07409
57,4.633329,306,165,502,497,-0.2263069,1.554579,1.597267,-1.2819,-2.987471,-0.7956796,-1.140733,-1.285076,-0.5819039,-0.6913119,-2.613169,2.093656
58,4.644441,313,125,514,498,-0.1774154,1.569938,1.536976,-1.280815,-2.993387,-0.7714784,-1.125388,-1.290531,-0.5544921,-0.6766539,-2.623273,2.112649
59,4.655552,313,125,514,498,-0.1016166,1.573329,1.449113,-1.280903,-3.000716,-0.747862,-1.127102,-1.291897,-0.5106908,-0.6613396,-2.633055,2.1312
60,4.666663,313,125,514,498,-0.07950234,1.586556,1.394252,-1.280162,-3.0075,-0.7241007,-1.127985,-1.287213,-0.456272,-0.6460019,-2.642562,2.148922
61,4.677774,313,125,514,498,-0.1088517,1.582616,1.337008,-1.277783,-3.013547,-0.700895,-1.069312,-1.325146,-0.4344848,-0.6315942,-2.656142,2.1697
62,4.688886,313,125,514,498,-0.1487299,1.558871,1.26591,-1.27492,-3.018921,-0.6792542,-1.020126,-1.354197,-0.3991562,-0.6170582,-2.670004,2.190254
63,4.699997,313,114,492,498,-0.1528263,1.535997,1.202698,-1.273142,-3.024541,-0.6579238,-1.009879,-1.350117,-0.3385368,-0.6020049,-2.681765,2.209304
64,4.711108,313,114,492,498,-0.155453,1.533479,1.160399,-1.27124,-3.029889,-0.6363357,-1.008722,-1.314096,-0.2762916,-0.5876776,-2.691436,2.226392
65,4.722219,313,114,492,498,-0.1685377,1.519869,1.122788,-1.269173,-3.035043,-0.6149894,-1.019261,-1.289405,-0.2071001,-0.5728582,-2.700348,2.242869
66,4.733331,313,114,492,498,-0.1828207,1.497199,1.075614,-1.266868,-3.039501,-0.5948676,-1.016579,-1.273639,-0.1355619,-0.5579578,-2.709229,2.258681
67,4.744442,369,141,472,496,-0.1849378,1.467481,1.014027,-1.264769,-3.044386,-0.5755848,-0.9736803,-1.287416,-0.1206658,-0.5441925,-2.722528,2.278576
68,4.755553,369,141,472,496,-0.1682388,1.452137,0.9618385,-1.263278,-3.049257,-0.5563631,-0.9104621,-1.344523,-0.1260384,-0.5303973,-2.740308,2.302017
69,4.766665,369,141,472,496,-0.1384219,1.452741,0.9163252,-1.262438,-3.054769,-0.5369593,-0.8780673,-1.375235,-0.1069337,-0.5164615,-2.757186,2.324984
70,4.777776,369,141,472,496,-0.09914088,1.466385,0.8848894,-1.262336,-3.060306,-0.5172573,-0.8389472,-1.365099,-0.05003768,-0.5026211,-2.77191,2.344624
71,4.788887,369,141,472,496,-0.04996812,1.496523,0.8709488,-1.263044,-3.066224,-0.4963477,-0.8033276,-1.353313,-0.009802997,-0.4891779,-2.786567,2.364362
72,4.799998,408,134,475,500,-0.02138841,1.501786,0.8520092,-1.26351,-3.071465,-0.4764379,-0.739043,-1.405682,-0.01576859,-0.4759085,-2.809649,2.391848
73,4.81111,408,134,475,500,0.04491019,1.461965,0.782209,-1.265353,-3.077121,-0.4590203,-0.6986951,-1.429954,-0.04517788,-0.4641288,-2.833266,2.420896
74,4.822221,408,134,475,500,0.06996024,1.465612,0.7467961,-1.266523,-3.082809,-0.4401507,-0.6385344,-1.477086,-0.07303619,-0.4527811,-2.861177,2.45359
75,4.833332,408,134,475,500,0.1105233,1.504518,0.7099856,-1.268543,-3.089583,-0.4203438,-0.5898559,-1.440231,0.01497424,-0.4403297,-2.8822,2.477548
76,4.844443,412,152,497,496,0.08358145,1.530929,0.6841983,-1.268508,-3.095105,-0.4003434,-0.5543872,-1.383852,0.05965734,-0.4293841,-2.90206,2.500688
77,4.855555,412,152,497,496,0.008305788,1.544881,0.6754463,-1.266639,-3.099414,-0.3804198,-0.4896775,-1.325125,0.01721895,-0.4215374,-2.925333,2.527491
78,4.866666,412,152,497,496,-0.06926394,1.511213,0.6472576,-1.264172,-3.102722,-0.3625851,-0.4688076,-1.331632,0.01344442,-0.4120965,-2.952344,2.558856
79,4.877777,412,152,497,496,-0.1000949,1.459611,0.593949,-1.262522,-3.106999,-0.3459553,-0.4769329,-1.321205,0.09927094,-0.4000627,-2.974448,2.584571
80,4.888888,412,152,497,496,-0.1013075,1.441827,0.5421491,-1.261208,-3.111676,-0.3289499,-0.4515038,-1.302672,0.1451981,-0.3893424,-2.999002,2.611981
81,4.9,467,162,499,494,-0.1077186,1.440298,0.5186915,-1.260056,-3.116203,-0.3113448,-0.4473735,-1.351,0.2041087,-0.3772618,-3.028666,2.645108
82,4.911111,467,162,499,494,-0.1458549,1.442748,0.505106,-1.257666,-3.119822,-0.2937035,-0.4065266,-1.322105,0.2563345,-0.3665437,-3.055046,2.673589
83,4.922222,467,162,499,494,-0.1885916,1.429202,0.4840354,-1.254416,-3.122859,-0.2759818,-0.3614187,-1.319155,0.2629769,-0.357564,-3.085504,2.706115
84,4.933333,467,162,499,494,-0.2084197,1.39871,0.4544131,-1.251918,-3.125821,-0.2596353,-0.3276701,-1.331668,0.278964,-0.3478728,-3.119167,2.742009
85,4.944445,408,158,521,499,-0.1951997,1.386946,0.437083,-1.25015,-3.129118,-0.242941,-0.2912458,-1.281982,0.2850321,-0.3399408,3.134316,2.773683
86,4.955556,408,158,521,499,-0.163347,1.379932,0.4153331,-1.249481,-3.132896,-0.2264667,-0.2521954,-1.284401,0.2586721,-0.3329154,3.098364,2.811756
87,4.966667,408,158,521,499,-0.1091651,1.378935,0.395498,-1.249822,-3.13696,-0.2097868,-0.2321032,-1.282417,0.2691197,-0.3257536,3.062174,2.849939
88,4.977778,408,158,521,499,-0.056867,1.362261,0.3791141,-1.250909,-3.140778,-0.1941285,-0.1948122,-1.272619,0.272571,-0.3190233,3.02444,2.889286
89,4.98889,408,158,521,499,0.0510422,1.311993,0.3711995,-1.254869,3.138787,-0.1798507,-0.1295736,-1.227928,0.2631258,-0.3135664,2.987364,2.926924
90,5.000001,420,168,494,501,0.09298182,1.273891,0.3603347,-1.257028,3.135536,-0.1656491,-0.1005787,-1.20995,0.2391082,-0.3095669,2.947549,2.968067
91,5.011112,420,168,494,501,0.1120558,1.25658,0.3440932,-1.2591,3.132283,-0.1511184,-0.08204603,-1.174501,0.2272933,-0.3055658,2.910563,3.006549
91,5.022223,420,168,494,501,0.1400027,1.227882,0.3215819,-1.261636,3.129086,-0.1372801,-0.0697068,-1.135926,0.2123525,-0.302272,2.874227,3.044456
91,5.033335,420,168,494,501,0.1201804,1.193516,0.2913781,-1.262687,3.126089,-0.1240868,-0.0908016,-1.082352,0.1464163,-0.3010783,2.841495,3.080451
91,5.044446,420,168,494,501,0.07539892,1.18027,0.2792735,-1.262788,3.12377,-0.1104818,0.01390767,-1.192674,-0.07235566,-0.3084905,2.79063,3.13378
91,5.055557,495,222,507,500,0.006113052,1.132651,0.2535362,-1.261384,3.121704,-0.09851086,-0.007500887,-1.136869,-0.02654916,-0.3076521,2.756656,-3.112648
91,5.066669,495,222,507,500,-0.02685714,1.059098,0.2134982,-1.260363,3.119625,-0.08822094,0.04200995,-1.049303,0.08214203,-0.304215,2.723757,-3.080927
91,5.07778,495,222,507,500,-0.04201037,0.9955135,0.1961501,-1.259953,3.11786,-0.07814034,0.0510444,-0.9598384,0.08072588,-0.3041959,2.696581,-3.053064
91,5.088891,495,222,507,500,-0.05792397,0.9365576,0.1766715,-1.259247,3.116346,-0.06883579,0.04551911,-0.9054656,0.08873886,-0.3043887,2.670176,-3.025217
91,5.100002,695,345,485,495,-0.07700491,0.9078866,0.1549685,-1.258219,3.114398,-0.05905986,0.0216943,-0.8397427,0.1095478,-0.3034304,2.646262,-2.999752
91,5.111114,695,345,485,495,-0.08575141,0.8768719,0.1239541,-1.25708,3.112217,-0.04975317,0.006385207,-0.7580001,0.06789967,-0.3047658,2.627821,-2.979516
91,5.122225,695,345,485,495,-0.07461804,0.8510132,0.1025258,-1.256737,3.109726,-0.04061693,-0.001297891,-0.7270339,0.06072554,-0.3056521,2.60496,-2.954882
91,5.133336,695,345,485,495,-0.04141104,0.8254246,0.08649131,-1.257305,3.107288,-0.03181146,0.01576698,-0.7419738,0.0754053,-0.3063647,2.577284,-2.926092
91,5.144447,695,345,485,495,0.027915,0.8041328,0.08475059,-1.25944,3.104664,-0.02333994,0.04776657,-0.7396086,0.111531,-0.3064755,2.549211,-2.897941
91,5.155559,668,293,467,499,0.05705732,0.8123999,0.08673796,-1.260878,3.101997,-0.01428999,0.08722752,-0.6726606,0.1022202,-0.3075722,2.529378,-2.87886
91,5.16667,668,293,467,499,0.07352066,0.7996175,0.1161683,-1.262767,3.100808,-0.005149488,0.1022618,-0.6100463,0.06883493,-0.309511,2.513208,-2.862607
91,5.177781,668,293,467,499,0.06947935,0.7898551,0.113341,-1.263578,3.098784,0.002703109,0.1114125,-0.5732846,0.03877622,-0.3117566,2.496648,-2.846009
91,5.188892,668,293,467,499,0.04619777,0.6827096,0.1069768,-1.26388,3.098676,0.007648066,0.09179026,-0.4872562,0.01293331,-0.3131995,2.487736,-2.836312
91,5.200004,761,248,492,503,0.02739865,0.6086736,0.09274497,-1.263985,3.097956,0.01243696,0.08066222,-0.4344333,-0.0214885,-0.3154562,2.479387,-2.827338
91,5.211115,761,248,492,503,-0.02489573,0.5216734,0.08199722,-1.262592,3.098055,0.01592943,0.06670463,-0.4050437,-0.001871623,-0.3163361,2.468369,-2.815563
91,5.222226,761,248,492,503,-0.06735986,0.4580426,0.07462492,-1.261168,3.098284,0.01967597,0.07582358,-0.4046179,0.04979575,-0.3162637,2.451574,-2.799042
91,5.233337,761,248,492,503,-0.09729797,0.4156967,0.05943013,-1.259453,3.098108,0.02329201,0.1174775,-0.3825183,0.1726915,-0.3133955,2.431783,-2.781857
91,5.244449,761,248,492,503,-0.1592833,0.3281968,0.03071819,-1.256259,3.098428,0.02494636,0.1475445,-0.31529,0.2003539,-0.3122375,2.42079,-2.773262
91,5.25556,771,282,457,488,-0.1769582,0.2894682,0.006738544,-1.25411,3.098216,0.02754241,0.1502081,-0.2500974,0.1530113,-0.3126578,2.415509,-2.7695
91,5.266671,771,282,457,488,-0.1794949,0.2293532,-0.03008082,-1.251736,3.097269,0.02850754,0.1104085,-0.2055297,0.06297167,-0.3147947,2.414836,-2.768093
91,5.277782,771,282,457,488,-0.1812019,0.2006322,-0.04399943,-1.249665,3.097049,0.03012035,0.06253603,-0.1739608,0.0224057,-0.3157401,2.413559,-2.765776
91,5.288894,771,282,457,488,-0.1316034,0.1210947,-0.05422629,-1.249198,3.096468,0.02931395,0.01777075,-0.153788,0.03238381,-0.3152629,2.409964,-2.76107
91,5.300005,844,297,438,488,-0.0931601,0.07644312,-0.04677463,-1.249004,3.096379,0.02921221,0.01457015,-0.1183202,0.09060344,-0.3130929,2.404869,-2.756673
91,5.311116,844,297,438,488,-0.04837489,0.0289456,-0.0190097,-1.249846,3.096987,0.02812618,0.04725192,-0.07864688,0.09336223,-0.3123946,2.402203,-2.755613
91,5.322227,844,297,438,488,0.001665048,-0.006668249,9.364181E-05,-1.251088,3.097736,0.0270231,0.05382066,-0.03698448,0.03545441,-0.3136314,2.405214,-2.759432
91,5.333339,844,297,438,488,0.08367749,-0.04997325,0.0344739,-1.25403,3.098606,0.0253224,0.05640224,-0.02699603,-0.01935492,-0.3153108,2.406798,-2.761295
91,5.34445,844,297,438,488,0.1805018,-0.07262965,0.07134578,-1.258769,3.099305,0.02380866,0.0118611,-0.01491036,-0.05886438,-0.3162919,2.410683,-2.76372
91,5.355561,775,272,501,500,0.2379855,-0.06974368,0.1010872,-1.26327,3.100155,0.02295751,0.0004854929,-0.02052557,-0.00559382,-0.3152134,2.408099,-2.761017
91,5.366673,775,272,501,500,0.298857,-0.05058628,0.137484,-1.268461,3.101127,0.02305232,0.03301816,0.007272959,0.05696873,-0.3131366,2.405707,-2.760553
91,5.377784,775,272,501,500,0.3608447,-0.02673174,0.1605351,-1.274264,3.1018,0.02337084,0.0337556,0.06087096,0.03135841,-0.312752,2.411068,-2.76683
91,5.388895,775,272,501,500,0.4080292,-0.02791224,0.1712711,-1.280374,3.102434,0.02297988,0.01292101,0.0891373,-0.05614714,-0.314539,2.419702,-2.774853
91,5.400006,775,272,501,500,0.4359584,-0.04916748,0.1581089,-1.285893,3.102762,0.02182354,0.005325168,0.1032027,-0.09351949,-0.3156698,2.426746,-2.781518
91,5.411118,822,305,488,495,0.439474,-0.06109686,0.1472704,-1.291069,3.103046,0.02075455,0.02361803,0.1242077,-0.08714575,-0.3160442,2.432579,-2.788315
91,5.422229,822,305,488,495,0.4181769,-0.0707899,0.1371809,-1.295324,3.103698,0.01974042,0.04199012,0.1625509,-0.03101002,-0.3143531,2.438236,-2.795835
91,5.43334,822,305,488,495,0.3669037,-0.06733231,0.1228403,-1.298366,3.104214,0.01892389,0.04028712,0.1612629,-0.01059318,-0.3135372,2.442246,-2.800772
91,5.444451,822,305,488,495,0.2914709,-0.05906638,0.09591241,-1.299647,3.104404,0.01860804,0.01065074,0.1248205,-0.04500692,-0.3145332,2.446245,-2.803749
91,5.455563,792,297,488,499,0.2356454,-0.06823032,0.07451119,-1.301052,3.104542,0.01777287,-0.02117114,0.09815408,-0.05188859,-0.3147851,2.449811,-2.806334
91,5.466674,792,297,488,499,0.1250575,-0.09757974,0.02425848,-1.299425,3.104452,0.01588735,-0.02355195,0.09415077,-0.02297326,-0.3139856,2.452132,-2.808667
91,5.477785,792,297,488,499,0.06906039,-0.1113255,-0.0004475843,-1.298971,3.104595,0.014029,-0.005179912,0.09788472,0.02184417,-0.3126599,2.453666,-2.811181
91,5.488896,792,297,488,499,-0.001789488,-0.123498,-0.0313007,-1.297021,3.104598,0.01247531,0.002599545,0.09691807,0.03969185,-0.3116,2.455261,-2.81347
91,5.500008,792,297,488,499,-0.04237492,-0.1234378,-0.04433484,-1.295648,3.104641,0.0112902,0.005104065,0.1062788,0.04335058,-0.3106838,2.458614,-2.817268
91,5.511119,654,236,489,499,-0.0594122,-0.1108873,-0.04705528,-1.294413,3.10463,0.01034159,-0.01055793,0.09299225,-0.005162729,-0.3114695,2.462785,-2.820831
91,5.52223,654,236,489,499,-0.06377376,-0.1021903,-0.04365845,-1.293753,3.104764,0.009559683,-0.02398234,0.07909149,-0.02069307,-0.311804,2.465236,-2.822533
91,5.533341,654,236,489,499,-0.04129423,-0.0930574,-0.03347332,-1.294015,3.104939,0.008494418,-0.02413043,0.07388061,-0.01412682,-0.3113534,2.46731,-2.824493
91,5.544453,654,236,489,499,-0.0254283,-0.08674607,-0.02721173,-1.293857,3.104947,0.007901066,-0.01912466,0.06686895,1.837313E-05,-0.3108271,2.46862,-2.825973
91,5.555564,662,231,507,502,0.02032809,-0.07559022,-0.01327982,-1.295359,3.104992,0.007218232,-0.008924484,0.05135405,0.02401699,-0.3100495,2.468319,-2.826009
91,5.566675,662,231,507,502,0.04472443,-0.06655177,0.001912215,-1.296476,3.105183,0.00686989,0.002244461,0.05340677,0.03492347,-0.3093283,2.468993,-2.827322
91,5.577786,662,231,507,502,0.0813446,-0.04435705,0.01271671,-1.298592,3.105144,0.006838998,0.006974958,0.06884874,0.007452797,-0.3095126,2.47367,-2.832147
91,5.588898,662,231,507,502,0.1257018,-0.0247701,0.03153912,-1.301129,3.105072,0.007367902,-0.007469926,0.05371297,-0.0420321,-0.3109667,2.47697,-2.834616
91,5.600009,662,231,507,502,0.1471798,-0.01918424,0.03760191,-1.303152,3.105007,0.007456318,-0.01666475,0.05201045,-0.05696042,-0.3114801,2.480107,-2.837085
91,5.61112,639,230,506,501,0.1725469,-0.01722048,0.0457326,-1.305873,3.105051,0.007311975,-0.009950649,0.0453112,-0.04679826,-0.311633,2.481319,-2.838387
91,5.622231,639,230,506,501,0.1828647,-0.005013126,0.04805644,-1.308182,3.105134,0.007427556,0.01442479,0.03206973,-0.02309507,-0.3112319,2.480466,-2.838384
91,5.633343,639,230,506,501,0.1765779,0.009125113,0.04647055,-1.310175,3.105142,0.007641674,0.02153923,0.03350345,-0.03794449,-0.3120197,2.48222,-2.840469
91,5.644454,639,230,506,501,0.1678426,0.01753481,0.05416656,-1.311805,3.10538,0.008265386,0.01402432,0.02738344,-0.04594693,-0.3126849,2.484099,-2.842173
91,5.655565,639,230,506,501,0.1529648,0.01228605,0.04399683,-1.313246,3.105337,0.008066715,0.01550815,0.02013595,-0.05533338,-0.3135499,2.485054,-2.843131
91,5.666677,580,299,483,488,0.1473383,0.001664429,0.04055146,-1.314693,3.105301,0.007820106,-0.004163952,0.01817844,-0.05288605,-0.3135926,2.486572,-2.843882
91,5.677788,580,299,483,488,0.1330445,0.002858449,0.04042531,-1.315813,3.105445,0.008143414,-0.006657949,0.00923261,-0.0162757,-0.312817,2.485624,-2.843092
91,5.688899,580,299,483,488,0.1127912,0.009695329,0.03347815,-1.316602,3.105371,0.008414524,0.007096723,0.0120342,0.00288573,-0.3123749,2.485114,-2.843197
91,5.70001,580,299,483,488,0.1040983,0.01247695,0.03298131,-1.317657,3.105494,0.00864036,0.01300506,0.006878732,-0.01540147,-0.3131915,2.485703,-2.843886
91,5.711122,539,272,496,503,0.09476386,0.02556221,0.03049491,-1.318583,3.105412,0.009063803,0.01046045,0.02145151,-0.04442138,-0.3141369,2.488738,-2.846824
91,5.722233,539,272,496,503,0.08434097,0.03095069,0.02801613,-1.319221,3.105352,0.009710951,0.00789259,0.02261564,-0.05695797,-0.3149002,2.49057,-2.848538
91,5.733344,539,272,496,503,0.0719239,0.03862479,0.02900943,-1.319824,3.105438,0.01025211,0.004572984,0.009921499,-0.04334092,-0.3150797,2.490023,-2.847862
91,5.744455,539,272,496,503,0.06243197,0.04168726,0.02730948,-1.320286,3.105407,0.01101004,0.01445664,-0.0008155666,-0.02912711,-0.3151867,2.488749,-2.847025
91,5.755567,539,272,496,503,0.05802596,0.03804988,0.02745024,-1.320906,3.105543,0.01124972,0.01393571,-0.01703621,-0.01596442,-0.3152458,2.486567,-2.844879
91,5.766678,476,254,502,501,0.05738422,0.03626986,0.02565642,-1.321349,3.105366,0.01203269,0.008560885,-0.02336346,0.0003970154,-0.3149614,2.48549,-2.843871
91,5.777789,476,254,502,501,0.06264062,0.04303693,0.02638664,-1.322093,3.105287,0.01273204,0.0008630846,-0.02809189,0.007552728,-0.3147137,2.484386,-2.842504
91,5.7889,476,254,502,501,0.05841019,0.05284096,0.02543437,-1.322663,3.105206,0.01360875,0.007685928,-0.02330223,0.004568631,-0.3148474,2.483781,-2.842106
91,5.800012,476,254,502,501,0.05368506,0.05337656,0.02656894,-1.322972,3.105193,0.0144583,0.01126155,-0.01491531,-0.01873736,-0.3157002,2.484753,-2.843151
91,5.811123,480,288,489,497,0.05095279,0.04719934,0.02878993,-1.32355,3.105375,0.01482102,0.006022153,-0.01071869,-0.03623269,-0.3164698,2.485883,-2.84401
91,5.822234,480,288,489,497,0.04256634,0.04385303,0.03142557,-1.323709,3.105516,0.0153478,0.006946603,-0.01890978,-0.02938865,-0.3166765,2.484389,-2.842528
91,5.833345,480,288,489,497,0.03810922,0.03784914,0.0276203,-1.324158,3.105619,0.01548894,0.01040334,-0.03873781,0.0009960476,-0.3162365,2.48051,-2.838829
91,5.844457,480,288,489,497,0.03967697,0.04174846,0.02556801,-1.324307,3.105449,0.01644715,0.01593703,-0.04342336,0.0359352,-0.3151388,2.476887,-2.83571
91,5.855568,480,288,489,497,0.03796943,0.04869854,0.02340834,-1.324556,3.105423,0.01713851,0.0186981,-0.034062,0.03745744,-0.3148581,2.475678,-2.834849
91,5.866679,469,272,484,500,0.03385266,0.04868003,0.0222948,-1.32489,3.105437,0.01770842,0.01570729,-0.0128386,0.007195755,-0.3155814,2.477775,-2.837114
91,5.87779,469,272,484,500,0.03587558,0.0497325,0.02301747,-1.325578,3.105617,0.01808979,0.001739098,-0.01858074,-0.01631226,-0.3163005,2.477699,-2.836446
91,5.888902,469,272,484,500,0.03433005,0.04585668,0.02051217,-1.325683,3.105444,0.01897129,0.001394892,-0.01808244,-0.009859729,-0.3163249,2.477015,-2.835745
91,5.900013,469,272,484,500,0.03757412,0.04040453,0.01662454,-1.325938,3.105298,0.01963229,0.0005819462,-0.01658637,0.008443495,-0.3158211,2.476652,-2.835618
91,5.911124,442,278,482,501,0.04996179,0.04050676,0.01979331,-1.326908,3.105279,0.02009302,0.005970936,-0.02410701,0.02706763,-0.3153295,2.4742,-2.833426
91,5.922235,442,278,482,501,0.06808737,0.04011242,0.02204845,-1.327974,3.10504,0.0208941,0.007899057,-0.02852731,0.03295784,-0.3150567,2.472125,-2.831549
91,5.933347,442,278,482,501,0.06546076,0.04066233,0.02368099,-1.328754,3.105156,0.02129144,0.0005260445,-0.033284,0.02715227,-0.3150141,2.470623,-2.829764
91,5.944458,442,278,482,501,0.05994641,0.03615404,0.02794191,-1.329044,3.105245,0.02220224,0.00919804,-0.01571139,0.01672391,-0.3152906,2.471447,-2.83108
91,5.955569,442,278,482,501,0.05346349,0.03252344,0.02761332,-1.329635,3.105443,0.02238067,0.01222062,-0.009702734,0.006390503,-0.3155377,2.471678,-2.831484
91,5.966681,461,265,471,503,0.04474024,0.0275197,0.02306503,-1.329462,3.105377,0.02289307,0.003946953,0.001340813,0.01214607,-0.3151244,2.472526,-2.832194
91,5.977792,461,265,471,503,0.04263494,0.02165537,0.01437381,-1.329519,3.105022,0.02347523,0.002866726,-0.008130241,0.02618379,-0.3146823,2.470917,-2.83069
91,5.988903,461,265,471,503,0.03766136,0.02138809,0.003974424,-1.329751,3.104697,0.02371225,-0.0009963615,-0.01074276,0.0634714,-0.3132048,2.468372,-2.828384
91,6.000014,461,265,471,503,0.02623414,0.0223697,0.00122835,-1.329302,3.104434,0.02446912,0.01035203,-0.006746722,0.0570171,-0.3129747,2.467599,-2.828089
91,6.011126,461,265,471,503,0.02223556,0.02370676,0.003870368,-1.329685,3.104636,0.02449043,0.006141512,0.008335101,0.03965349,-0.3128346,2.468915,-2.829485
91,6.022237,460,230,484,496,0.02490051,0.01684078,0.006365523,-1.329561,3.104518,0.0251477,0.007527579,0.01730414,0.03111667,-0.3127148,2.469662,-2.830431
