ref,t,emg1,emg2,emg1raw,emg2raw,aDotS,bDotS,gDotS,aS,bS,gS,aDotSH,bDotSH,gDotSH,aSH,bSH,gSH
0,0,110,101,500,499,0.01305664,0.00194481,0.0143987,-1.5157,-3.068754,-1.667668,-0.001773766,0.0007302826,-0.01358519,-1.136398,-2.518345,1.630889
0,0.01111111,110,101,500,499,0.01092959,0.002506374,0.01017555,-1.515747,-3.06874,-1.667626,0.004985457,-0.005101856,-0.01008346,-1.136543,-2.518692,1.630936
0,0.02222222,110,101,500,499,0.01062,0.008479033,0.01327013,-1.51579,-3.069003,-1.66747,0.01010773,0.001188361,-0.006555046,-1.136912,-2.518691,1.630894
0,0.03333334,110,101,500,499,0.01385815,0.008079367,0.009970319,-1.515945,-3.069064,-1.667479,0.01053029,0.01172087,-0.006352542,-1.137151,-2.518313,1.63092
0,0.04444445,113,99,501,497,0.01375623,0.01018498,0.0103012,-1.516067,-3.069273,-1.667363,0.01319188,0.01339442,-0.01547642,-1.137439,-2.518384,1.631355
0,0.05555556,113,99,501,497,0.01375623,0.01018498,0.0103012,-1.516067,-3.069273,-1.667363,0.01319188,0.01339442,-0.01547642,-1.137439,-2.518384,1.631355
0,0.06666667,113,99,501,497,0.007884923,3.326448E-05,0.004386212,-1.516095,-3.069063,-1.667415,0.01083599,0.01101162,-0.01585788,-1.137671,-2.518414,1.631745
0,0.07777778,113,99,501,497,0.01037513,-0.007051198,0.002197534,-1.516318,-3.06887,-1.667387,0.009339044,0.009309474,-0.01387106,-1.137686,-2.51848,1.631885
0,0.08888889,113,99,501,497,0.009827082,-0.01778406,0.001596038,-1.516453,-3.068341,-1.667291,0.01087669,0.01100854,-0.01012545,-1.137915,-2.518386,1.63187
0,0.1,114,106,501,496,0.01104989,-0.02087994,0.001113968,-1.51663,-3.068118,-1.667271,0.005341204,0.01231819,-0.01088214,-1.137882,-2.518287,1.63203
0,0.1111111,114,106,501,496,0.01338765,-0.02481365,-0.0005763206,-1.516821,-3.067781,-1.667292,0.003028272,0.009759301,-0.01363462,-1.137343,-2.518358,1.632364
0,0.1222222,114,106,501,496,0.009237364,-0.02679088,-0.003046076,-1.516802,-3.067399,-1.667361,0.006672135,0.005197777,-0.0136566,-1.137469,-2.518536,1.63254
0,0.1333333,114,106,501,496,0.008873849,-0.01975879,0.0002197127,-1.516918,-3.067476,-1.667206,0.008702504,-0.0008896543,-0.01504527,-1.137479,-2.518761,1.632695
0,0.1444445,116,105,501,495,0.007185852,-0.007359555,0.003236819,-1.516945,-3.067752,-1.667103,0.01701014,-0.009687217,-0.01745629,-1.137704,-2.519373,1.633021
0,0.1555556,116,105,501,495,0.007521323,0.00724262,0.006593034,-1.516979,-3.068154,-1.667032,0.0189949,-0.01110343,-0.0148893,-1.137925,-2.519604,1.633138
0,0.1666667,116,105,501,495,0.007521323,0.00724262,0.006593034,-1.516979,-3.068154,-1.667032,0.0189949,-0.01110343,-0.0148893,-1.137925,-2.519604,1.633138
0,0.1777778,116,105,501,495,0.01387604,0.02952211,0.01113287,-1.51729,-3.069308,-1.666795,0.0184565,-0.01006395,-0.01210914,-1.138151,-2.520131,1.633332
0,0.1888889,116,105,501,495,0.01387604,0.02952211,0.01113287,-1.51729,-3.069308,-1.666795,0.0184565,-0.01006395,-0.01210914,-1.138151,-2.520131,1.633332
0,0.2,118,103,500,497,0.01457284,0.0372669,0.0101684,-1.517553,-3.070326,-1.666607,0.01342351,-0.002893267,-0.01090563,-1.138326,-2.520263,1.633573
0,0.2111111,118,103,500,497,0.01483176,0.03168675,0.01144893,-1.517709,-3.070557,-1.666466,0.01547307,-0.006737661,-0.0114983,-1.138429,-2.520651,1.633781
0,0.2222222,118,103,500,497,0.01396718,0.02792415,0.007627256,-1.517753,-3.070756,-1.666619,0.01347332,-0.009827858,-0.01562665,-1.13846,-2.520993,1.634106
0,0.2333333,118,103,500,497,0.01113546,0.02025058,0.007511874,-1.517709,-3.070876,-1.666607,0.01525282,-0.01314542,-0.01482954,-1.138539,-2.521413,1.634247
0,0.2444444,118,108,500,497,0.01665969,0.01630875,0.006896197,-1.518007,-3.070987,-1.666575,0.01209422,-0.01169238,-0.01026624,-1.138548,-2.521524,1.63424
0,0.2555556,118,108,500,497,0.0144705,0.01742213,0.005987877,-1.517947,-3.071282,-1.666596,0.01164134,-0.008571025,-0.009085493,-1.138652,-2.521621,1.634312
0,0.2666667,118,108,500,497,0.01324875,0.02052631,0.006464471,-1.518036,-3.071616,-1.666539,0.01155945,-0.008387057,-0.006709964,-1.138722,-2.521701,1.634293
0,0.2777778,118,108,500,497,0.01314224,0.02247007,0.007838601,-1.518122,-3.071979,-1.666432,0.0153695,-0.01331521,-0.01146046,-1.138801,-2.52235,1.634778
0,0.2888889,118,108,500,497,0.009793176,0.02595551,0.005142715,-1.518149,-3.072331,-1.666482,0.01799612,-0.01146685,-0.01246406,-1.139026,-2.522572,1.634939
0,0.3,118,100,500,496,0.009962765,0.02312716,0.002549682,-1.518524,-3.072501,-1.66638,0.01350546,-0.009827962,-0.009876231,-1.138787,-2.522752,1.634965
0,0.3111111,118,100,500,496,0.006035103,0.01611448,0.004708378,-1.518654,-3.072392,-1.666098,0.01106155,-0.000828756,-0.01543461,-1.138969,-2.522672,1.635203
0,0.3222222,118,100,500,496,0.004274615,0.008972176,0.001457153,-1.518678,-3.072308,-1.666165,0.008758509,0.00803795,-0.01190381,-1.139142,-2.522413,1.635211
0,0.3333333,118,100,500,496,0.003374231,0.005438602,0.003074801,-1.518784,-3.072282,-1.665987,0.01054806,0.006975338,-0.01032579,-1.13932,-2.522463,1.635287
0,0.3444445,115,99,500,497,0.0006062712,-0.002489033,-0.002451674,-1.518772,-3.071999,-1.666149,0.001258388,-0.0004593267,-0.007664992,-1.139062,-2.522631,1.635229
0,0.3555556,115,99,500,497,0.0017734,-0.004856199,-0.0006686742,-1.518795,-3.071988,-1.666224,0.001244884,-0.002708045,-0.008445794,-1.138982,-2.522707,1.63538
0,0.3666667,115,99,500,497,0.0007621944,-0.005475557,-0.003996318,-1.518782,-3.071884,-1.666314,0.00291741,-0.01258435,-0.007616825,-1.138865,-2.52318,1.635498
0,0.3777778,115,99,500,497,0.002797171,-0.003268683,-0.00365268,-1.519033,-3.07193,-1.666296,0.007525086,-0.01213389,-0.006058556,-1.139069,-2.523391,1.635543
0,0.3888889,115,99,500,497,0.003649433,0.0008258995,-0.001946928,-1.519104,-3.072003,-1.66626,0.007159072,-0.009203105,-0.007250303,-1.139232,-2.523571,1.635554
0,0.4,111,106,499,499,0.003498802,0.003981364,-0.001461354,-1.519245,-3.072152,-1.666238,0.01066817,8.736365E-05,-0.003557818,-1.13949,-2.523407,1.635517
0,0.4111111,111,106,499,499,0.001316206,0.005088491,-0.002367315,-1.519191,-3.072226,-1.666269,0.01258008,0.00558409,-0.002007577,-1.139888,-2.523373,1.635364
0,0.4222222,111,106,499,499,0.002181569,0.009510926,-0.002775311,-1.519489,-3.072474,-1.666419,0.01117126,0.003706555,-0.002383878,-1.140025,-2.523428,1.635356
0,0.4333333,111,106,499,499,0.002183176,0.009998738,-0.005940549,-1.519605,-3.072605,-1.666687,0.01146517,0.003174042,-0.003765917,-1.140485,-2.523539,1.635436
0,0.4444444,111,106,499,499,0.00447274,0.006789798,-0.005354624,-1.519721,-3.072603,-1.666707,0.008278622,0.0001386991,-0.0007654226,-1.140443,-2.523584,1.635366
0,0.4555556,105,105,500,496,0.005658695,0.005058041,-0.0077712,-1.519997,-3.072546,-1.66681,0.004399674,0.002981884,-0.0001633894,-1.141203,-2.523584,1.635178
0,0.4666667,105,105,500,496,0.006777352,0.003732685,-0.005815906,-1.520099,-3.072469,-1.666753,0.004801624,0.002281972,0.001831524,-1.141456,-2.523794,1.634873
0,0.4777778,105,105,500,496,0.006039408,-0.00247209,-0.007836263,-1.520087,-3.072274,-1.666809,0.006236866,0.006407439,0.002984853,-1.141647,-2.52371,1.634807
0,0.4888889,105,105,500,496,0.001566925,0.001515178,-0.007227638,-1.520028,-3.072328,-1.666894,0.01224239,0.00194606,0.00261231,-1.142186,-2.524161,1.634517
0,0.5,104,107,501,495,0.004863193,-0.000423138,-0.00752629,-1.520093,-3.072276,-1.667007,0.009188788,-0.003703926,8.375128E-05,-1.142064,-2.524273,1.634749
0,0.5111111,104,107,501,495,0.003743943,0.0004086044,-0.006318299,-1.520096,-3.072216,-1.667005,0.005525325,-0.003641147,-0.001484478,-1.142019,-2.524346,1.634835
0,0.5222223,104,107,501,495,0.004598673,0.004345568,-0.003557849,-1.520319,-3.072419,-1.666955,-0.0009531062,-0.002822623,-0.002259268,-1.141741,-2.524155,1.634887
0,0.5333334,104,107,501,495,6.505148E-05,0.009387001,-0.002780078,-1.520145,-3.072677,-1.666869,-0.003111401,0.003389414,-0.01001995,-1.141798,-2.523983,1.635383
0,0.5444446,104,107,501,495,0.0001763778,0.00631935,0.00321597,-1.520159,-3.072715,-1.666682,-0.00516862,0.004981689,-0.01022176,-1.141734,-2.523885,1.635505
0,0.5555557,102,97,499,499,-0.001959611,0.006209985,0.003204699,-1.519952,-3.072762,-1.666617,-0.008131872,0.01284207,-0.008098729,-1.141703,-2.523326,1.63556
0,0.5666668,102,97,499,499,-0.002698345,-0.0007984319,0.006449869,-1.519957,-3.07267,-1.66655,-0.01227673,0.01151907,-0.01005042,-1.141529,-2.523197,1.635733
0,0.577778,102,97,499,499,-0.002318861,-0.008157268,0.005327616,-1.519919,-3.072344,-1.666344,-0.01408943,0.008065776,-0.01318319,-1.141354,-2.523208,1.635987
0,0.5888891,102,97,499,499,-0.003803748,-0.02200882,0.01076783,-1.519868,-3.071708,-1.666001,-0.01884796,-0.001267347,-0.02121502,-1.140912,-2.523574,1.63668
0,0.6000003,102,108,500,498,-0.005575998,-0.03043871,0.0159406,-1.51965,-3.071161,-1.665794,0.003490802,-0.02728577,-0.02643267,-1.141091,-2.524931,1.637332
0,0.6111114,102,108,500,498,-0.006714465,-0.0300743,0.02031278,-1.51946,-3.070896,-1.665434,0.03100833,-0.05600801,-0.01639341,-1.141233,-2.526382,1.63738
0,0.6222225,102,108,500,498,-0.01033527,-0.02133298,0.01840643,-1.519236,-3.070908,-1.665293,0.0395386,-0.06060728,-0.01042869,-1.14151,-2.527393,1.637387
0,0.6333337,102,108,500,498,-0.004937328,-0.0003878705,0.01728692,-1.51944,-3.071536,-1.665093,0.02723694,-0.04196069,0.002874486,-1.141391,-2.526947,1.636982
0,0.6444448,102,108,500,498,0.002037548,0.01040268,0.01245657,-1.519627,-3.071969,-1.665129,0.005658867,-0.01290059,0.002111655,-1.14116,-2.526118,1.636926
0,0.655556,105,104,500,500,0.004964715,0.01598142,0.01222152,-1.519642,-3.072312,-1.664999,-0.00862442,0.01155075,0.002955235,-1.141014,-2.525191,1.636896
0,0.6666671,105,104,500,500,0.006082346,0.01482484,0.0131196,-1.519737,-3.072493,-1.664837,-0.01383653,0.02358531,0.004662028,-1.140993,-2.524457,1.636777
0,0.6777782,105,104,500,500,0.006390535,0.00899046,0.00900346,-1.519738,-3.072415,-1.664892,-0.01128759,0.02116463,0.01021552,-1.140957,-2.524217,1.636507
0,0.6888894,105,104,500,500,0.00388116,-0.003726744,-0.0004608708,-1.519733,-3.071984,-1.665116,-0.0112027,0.02097971,0.007841871,-1.14098,-2.523825,1.636466
0,0.7000005,105,104,500,500,0.004505126,-0.01603037,-0.004483023,-1.51968,-3.071474,-1.665253,-0.0168614,0.02017419,0.002921689,-1.140767,-2.523474,1.636654
0,0.7111117,109,103,501,497,-0.001942938,-0.03638123,-0.007575727,-1.519529,-3.070517,-1.665333,-0.02517385,0.001433976,-0.0202516,-1.140089,-2.523969,1.637663
0,0.7222228,109,103,501,497,-0.003882859,-0.04132777,-0.004020183,-1.51933,-3.070046,-1.665203,-0.02443939,-0.01571571,-0.02170382,-1.139614,-2.524527,1.638011
0,0.7333339,109,103,501,497,-0.008111463,-0.04306066,-0.00105731,-1.519054,-3.0696,-1.665086,-0.01121771,-0.02232191,-0.0230914,-1.139645,-2.524998,1.638401
0,0.7444451,109,103,501,497,-0.01244285,-0.04316754,0.005393555,-1.518816,-3.069146,-1.664786,-0.004367536,-0.01933069,-0.02452047,-1.13974,-2.525344,1.638765
0,0.7555562,109,104,499,500,-0.009877752,-0.03054414,0.008395182,-1.518734,-3.069228,-1.664587,-0.01159806,0.009786798,-0.02572997,-1.139852,-2.524541,1.639055
0,0.7666674,109,104,499,500,-0.01039986,-0.02113641,0.01737564,-1.518615,-3.069204,-1.664108,-0.03431485,0.04296089,-0.02255936,-1.139561,-2.522951,1.639136
0,0.7777785,109,104,499,500,-0.008435076,-0.01803105,0.0189264,-1.518479,-3.069132,-1.663833,-0.05146647,0.04987869,-0.02374349,-1.138869,-2.521835,1.639684
0,0.7888896,109,104,499,500,-0.01493379,-0.01748003,0.02763383,-1.518174,-3.068968,-1.663216,-0.0665093,0.03041653,-0.02743547,-1.137747,-2.521651,1.640175
0,0.8000008,109,104,499,500,-0.01388889,-0.01914612,0.03923228,-1.517983,-3.068849,-1.662552,-0.04897698,-0.01067595,-0.01627897,-1.137026,-2.522304,1.640351
0,0.8111119,113,103,500,497,-0.01806144,-0.02204286,0.04311534,-1.517749,-3.068599,-1.661894,-0.03698944,-0.03700362,-0.007082628,-1.136572,-2.52374,1.640042
0,0.8222231,113,103,500,497,-0.01937317,-0.01742056,0.04812159,-1.517515,-3.068605,-1.661213,-0.03801632,-0.04612633,0.0002807919,-1.135837,-2.524151,1.639879
0,0.8333342,113,103,500,497,-0.01710653,-0.01983136,0.04346116,-1.517472,-3.068383,-1.66079,-0.05399481,-0.03691163,-0.004834298,-1.134809,-2.523862,1.640141
0,0.8444453,113,103,500,497,-0.01290155,-0.0185706,0.04365619,-1.517446,-3.068262,-1.660285,-0.08322804,-0.02577965,-0.01003827,-1.133241,-2.523196,1.640415
0,0.8555565,105,98,499,499,-0.01580391,-0.02666153,0.04676924,-1.51718,-3.067885,-1.659591,-0.09941014,-0.02310823,-0.0184168,-1.131805,-2.522886,1.640877
0,0.8666676,105,98,499,499,-0.02165283,-0.04104448,0.04787389,-1.516839,-3.067117,-1.658962,-0.09884723,-0.03086011,-0.02114452,-1.130579,-2.523031,1.641277
0,0.8777788,105,98,499,499,-0.02450789,-0.05093047,0.04856395,-1.516461,-3.066337,-1.658419,-0.09932551,-0.0453006,-0.01338425,-1.129227,-2.523403,1.641275
0,0.8888899,105,98,499,499,-0.02746917,-0.05899801,0.05169988,-1.516114,-3.065549,-1.657655,-0.08799866,-0.07199058,0.003720067,-1.127969,-2.524339,1.640824
0,0.900001,105,98,499,499,-0.02359513,-0.05577825,0.0834769,-1.516016,-3.065331,-1.655842,-0.09173214,-0.09150267,0.001118574,-1.126245,-2.525147,1.64091
0,0.9111122,97,93,500,500,-0.02169462,-0.0527259,0.09365783,-1.515789,-3.065032,-1.654477,-0.1037152,-0.1005358,-0.002996281,-1.124324,-2.525846,1.641189
0,0.9222233,97,93,500,500,-0.01911568,-0.03460491,0.08875908,-1.51565,-3.065228,-1.653594,-0.137488,-0.118683,-0.01720808,-1.121333,-2.526612,1.641962
0,0.9333345,97,93,500,500,-0.01522829,-0.02353356,0.08820663,-1.515582,-3.065332,-1.652703,-0.1479352,-0.1216771,-0.01597456,-1.119058,-2.527148,1.642145
0,0.9444456,97,93,500,500,-0.02260492,-0.02744144,0.09195762,-1.515179,-3.065085,-1.651587,-0.148706,-0.1287617,-0.01706851,-1.116831,-2.52799,1.642516
0,0.9555568,95,96,500,498,-0.02686352,-0.02867109,0.09286222,-1.514731,-3.064895,-1.650491,-0.1513191,-0.130503,-0.02046751,-1.114544,-2.528705,1.642899
0,0.9666679,95,96,500,498,-0.02659827,-0.04039589,0.100916,-1.514494,-3.064268,-1.649077,-0.1365253,-0.1515476,-0.01272611,-1.112552,-2.530292,1.642967
0,0.977779,95,96,500,498,-0.03497104,-0.05024187,0.1092287,-1.513835,-3.063632,-1.64765,-0.1188274,-0.1900379,-0.001662776,-1.110319,-2.532786,1.642915
0,0.9888902,95,96,500,498,-0.05344719,-0.04127174,0.1201526,-1.512746,-3.063605,-1.646006,-0.09720701,-0.2118402,0.001781836,-1.108548,-2.535283,1.643048
0,1.000001,95,96,500,498,-0.04679806,-0.05058219,0.1038266,-1.512543,-3.062836,-1.645278,-0.07897273,-0.2151681,-0.003512599,-1.107056,-2.537377,1.643415
0,1.011112,97,111,500,497,-0.03941938,-0.04457776,0.08531788,-1.512376,-3.062532,-1.644831,-0.06872033,-0.2027714,-0.003648758,-1.105766,-2.538947,1.643614
0,1.022224,97,111,500,497,-0.03828553,-0.04592292,0.07224034,-1.512192,-3.062038,-1.644321,-0.05616872,-0.1609542,-0.008513488,-1.105164,-2.539454,1.644012
0,1.033335,97,111,500,497,-0.04149835,-0.04612029,0.06576045,-1.511679,-3.061528,-1.643708,-0.0420445,-0.1135059,-0.003596216,-1.105028,-2.53936,1.643949
0,1.044446,97,111,500,497,-0.04352491,-0.04940197,0.05023081,-1.511257,-3.060812,-1.643625,-0.02925819,-0.07623162,0.01757101,-1.105126,-2.538877,1.64309
0,1.055557,97,111,500,497,-0.04363617,-0.04589797,0.04855945,-1.510727,-3.060402,-1.643082,-0.02517404,-0.06190095,0.03926526,-1.104609,-2.538712,1.642001
0,1.066668,107,121,500,494,-0.04377539,-0.04071364,0.05035272,-1.510257,-3.060116,-1.642467,-0.02995997,-0.05754166,0.07557175,-1.103896,-2.538141,1.639922
0,1.077779,107,121,500,494,-0.04070273,-0.03299588,0.04173862,-1.509851,-3.059988,-1.64221,-0.02175868,-0.07340057,0.1026132,-1.103217,-2.538579,1.638054
0,1.08889,107,121,500,494,-0.03893758,-0.009480353,0.03530717,-1.509452,-3.060467,-1.642021,0.0002713799,-0.08590777,0.1044842,-1.103123,-2.539513,1.636778
0,1.100002,107,121,500,494,-0.03599083,0.009062489,0.02605067,-1.509183,-3.061036,-1.641938,0.02228968,-0.0880205,0.09399547,-1.103367,-2.540532,1.636111
0,1.111113,113,118,501,498,-0.03715529,0.01717142,0.02180117,-1.508739,-3.06134,-1.641804,0.04510219,-0.07675823,0.08723702,-1.104142,-2.541207,1.635301
0,1.122224,113,118,501,498,-0.03309969,0.03390654,0.01016533,-1.508445,-3.062137,-1.642033,0.0596847,-0.05334853,0.08928914,-1.105011,-2.541157,1.634163
0,1.133335,113,118,501,498,-0.03099756,0.03828162,0.002195293,-1.508088,-3.062504,-1.642143,0.08073254,-0.009102929,0.09436633,-1.106768,-2.540259,1.632743
0,1.144446,113,118,501,498,-0.0277405,0.03871189,-0.02351324,-1.507843,-3.062805,-1.643113,0.08250549,0.04360289,0.1105704,-1.108261,-2.538269,1.630716
0,1.155557,113,118,501,498,-0.02241036,0.04529763,-0.06876037,-1.507704,-3.063212,-1.645151,0.08067675,0.08143903,0.1150017,-1.109545,-2.536322,1.629096
0,1.166668,118,121,501,499,-0.01488148,0.04282874,-0.08735183,-1.507744,-3.063417,-1.64669,0.07585736,0.1032964,0.1210722,-1.11092,-2.534359,1.6273
0,1.17778,118,121,501,499,-0.007259399,0.03478993,-0.09708618,-1.507828,-3.063328,-1.647822,0.06964424,0.1102385,0.118274,-1.111953,-2.532893,1.625791
0,1.188891,118,121,501,499,-0.0006281585,0.02155107,-0.09361359,-1.508006,-3.062988,-1.648612,0.06675693,0.1153383,0.09408461,-1.113163,-2.531694,1.625271
0,1.200002,118,121,501,499,-0.0006281585,0.02155107,-0.09361359,-1.508006,-3.062988,-1.648612,0.06675693,0.1153383,0.09408461,-1.113163,-2.531694,1.625271
0,1.211113,118,121,501,499,0.010006,0.02145468,-0.09038037,-1.508768,-3.063203,-1.650698,0.06693408,0.09978835,0.07424667,-1.115185,-2.530171,1.623864
0,1.222224,120,116,500,498,0.02055418,0.02494285,-0.08984587,-1.5093,-3.06347,-1.651718,0.08167198,0.09519365,0.06467905,-1.116733,-2.529715,1.62327
0,1.233335,120,116,500,498,0.02987918,0.03271617,-0.08221522,-1.509848,-3.063947,-1.652385,0.09068176,0.08977274,0.04788507,-1.118258,-2.529493,1.623198
0,1.244446,120,116,500,498,0.03404421,0.03534459,-0.08396377,-1.510336,-3.064291,-1.653411,0.1003438,0.07656214,0.04203071,-1.119702,-2.529506,1.622787
0,1.255558,120,116,500,498,0.03604351,0.03897397,-0.08555378,-1.510682,-3.064647,-1.654375,0.103478,0.03735886,0.04168791,-1.120295,-2.530478,1.622209
0,1.266669,124,109,501,499,0.040322,0.0372535,-0.08687566,-1.511257,-3.06492,-1.655405,0.1001984,0.01646364,0.03219488,-1.121009,-2.531314,1.622163
0,1.27778,124,109,501,499,0.04889378,0.03396856,-0.0841313,-1.512037,-3.06512,-1.65626,0.08611161,0.01540028,0.01622731,-1.121457,-2.53147,1.622377
0,1.288891,124,109,501,499,0.05555262,0.02383783,-0.07918774,-1.512757,-3.065195,-1.657147,0.06747431,0.02951188,0.004602823,-1.121932,-2.531003,1.622693
0,1.300002,124,109,501,499,0.05242655,0.02121313,-0.07634664,-1.513306,-3.065084,-1.657683,0.06449336,0.05070401,0.006266978,-1.123016,-2.530168,1.622598
0,1.311113,124,109,501,499,0.05501276,0.008096425,-0.07401505,-1.514107,-3.064624,-1.65844,0.07506397,0.06494821,0.01526053,-1.124545,-2.529384,1.62204
0,1.322224,124,109,500,498,0.05631854,0.001450935,-0.07179327,-1.514759,-3.064586,-1.659241,0.07873836,0.06499641,0.02153567,-1.125667,-2.529058,1.621427
0,1.333336,124,109,500,498,0.05538361,-0.002962903,-0.06384645,-1.515368,-3.064349,-1.659742,0.08493952,0.0442839,0.01135292,-1.126651,-2.529748,1.621631
0,1.344447,124,109,500,498,0.05112888,-0.00368428,-0.05965602,-1.515723,-3.064528,-1.660298,0.07354823,0.0134746,-0.002460454,-1.126563,-2.530764,1.622167
0,1.355558,124,109,500,498,0.04532161,0.006448463,-0.04951963,-1.515976,-3.064985,-1.660625,0.06249278,-0.00657047,-0.01112833,-1.126593,-2.531738,1.622642
0,1.366669,125,103,500,497,0.04039427,0.02064485,-0.03769151,-1.516235,-3.06563,-1.66074,0.05954152,-0.02372887,-0.02499454,-1.126601,-2.533004,1.623503
0,1.37778,125,103,500,497,0.03222404,0.0359452,-0.02678946,-1.516447,-3.066619,-1.661057,0.05920305,-0.02316485,-0.02929292,-1.127072,-2.533682,1.624037
0,1.388891,125,103,500,497,0.03498939,0.04398819,-0.01484334,-1.517044,-3.0674,-1.661194,0.06087858,-0.0127738,-0.02457331,-1.127821,-2.53387,1.624155
0,1.400002,125,103,500,497,0.02938684,0.04929306,-0.008665508,-1.517094,-3.068183,-1.661127,0.06474365,-0.006437533,-0.01718973,-1.128563,-2.534101,1.624077
0,1.411114,125,103,500,497,0.02799456,0.05505005,0.002931333,-1.517422,-3.069072,-1.661041,0.05748281,-0.00414376,-0.01367853,-1.128984,-2.534225,1.624097
0,1.422225,122,123,501,498,0.02668999,0.06011898,0.004749713,-1.517642,-3.069961,-1.660987,0.05163842,-0.01804262,-0.01298596,-1.12908,-2.534922,1.624318
0,1.433336,122,123,501,498,0.02118243,0.06332441,0.01059229,-1.51773,-3.070875,-1.661,0.03990113,-0.04798221,-0.01817647,-1.128531,-2.53648,1.624795
0,1.444447,122,123,501,498,0.01384548,0.05980699,0.01759075,-1.517623,-3.071614,-1.660717,0.03375425,-0.06576128,-0.02346984,-1.128104,-2.537884,1.625341
0,1.455558,122,123,501,498,0.01087311,0.05425972,0.01782367,-1.517706,-3.072157,-1.660863,0.03316913,-0.06914123,-0.02802404,-1.128044,-2.539045,1.625893
0,1.466669,122,123,501,498,0.001517406,0.04823106,0.0266045,-1.517408,-3.072572,-1.660342,0.03351695,-0.05861849,-0.04147366,-1.128247,-2.539822,1.626993
0,1.47778,119,122,500,496,-0.002456449,0.04159876,0.02668192,-1.517357,-3.073122,-1.660249,0.03763111,-0.05047801,-0.03467551,-1.128548,-2.540385,1.627158
0,1.488891,119,122,500,496,-0.00677925,0.04337531,0.02801861,-1.517119,-3.073678,-1.659944,0.04506448,-0.04623678,-0.02420834,-1.129031,-2.541018,1.627139
0,1.500003,119,122,500,496,-0.006988499,0.04880081,0.02774429,-1.516957,-3.074449,-1.65979,0.04407311,-0.04659711,-0.02180765,-1.129123,-2.541888,1.627451
0,1.511114,119,122,500,496,-0.007361401,0.05813139,0.03019753,-1.516807,-3.075484,-1.659521,0.01730405,-0.05524523,-0.03107204,-1.128222,-2.542695,1.628182
0,1.522225,114,134,500,498,-0.008535327,0.06171773,0.02750472,-1.516574,-3.076285,-1.659384,0.001320727,-0.06363736,-0.034343,-1.127295,-2.543571,1.628891
0,1.533336,114,134,500,498,-0.0127974,0.06275639,0.02659137,-1.516203,-3.076973,-1.659139,-0.006237935,-0.06963937,-0.03037803,-1.12658,-2.54443,1.629207
0,1.544447,114,134,500,498,-0.01358243,0.05593538,0.02875816,-1.516653,-3.07737,-1.659025,-0.00233138,-0.06558132,-0.02622869,-1.126404,-2.545105,1.629493
0,1.555558,114,134,500,498,-0.01256384,0.05747664,0.03327877,-1.516471,-3.078084,-1.658502,-0.002710998,-0.0559162,-0.02492293,-1.126233,-2.545482,1.62977
0,1.566669,114,134,500,498,-0.01551702,0.05240232,0.03037389,-1.516237,-3.078492,-1.658294,-0.003247235,-0.04156888,-0.02534248,-1.126078,-2.545612,1.630088
0,1.577781,112,123,499,497,-0.0142192,0.04688436,0.03170243,-1.516063,-3.078944,-1.657906,-0.001986263,-0.03267349,-0.01774607,-1.125867,-2.545665,1.630023
0,1.588892,112,123,499,497,-0.01296883,0.04256706,0.03213846,-1.515839,-3.079312,-1.657524,-0.01435041,-0.02561564,-0.02185415,-1.125363,-2.54565,1.63042
0,1.600003,112,123,499,497,-0.01486968,0.03692868,0.03345268,-1.515612,-3.079629,-1.6571,-0.02115512,-0.02645986,-0.01959889,-1.12472,-2.545799,1.630574
0,1.611114,112,123,499,497,-0.02068217,0.02164892,0.03335135,-1.515226,-3.079373,-1.656724,-0.02041143,-0.02559995,-0.02058766,-1.124426,-2.546043,1.630865
0,1.622225,107,124,500,503,-0.01816929,0.01013909,0.0391958,-1.514892,-3.079205,-1.655959,-0.01381392,-0.03312962,-0.01661158,-1.124249,-2.546728,1.630947
0,1.633336,107,124,500,503,-0.01789873,0.002634539,0.03916945,-1.514703,-3.079095,-1.655478,-0.007169742,-0.03632206,-0.01337951,-1.124137,-2.547266,1.631046
0,1.644447,107,124,500,503,-0.01877294,-0.0009746981,0.0268017,-1.51445,-3.078906,-1.655441,-0.009022182,-0.03735927,-0.0133702,-1.123676,-2.547792,1.631169
0,1.655559,107,124,500,503,-0.01648964,-0.003423836,0.01460647,-1.514362,-3.078671,-1.655492,-0.01606572,-0.03122699,-0.01774513,-1.123154,-2.547846,1.631479
0,1.66667,107,124,500,503,-0.01219054,-0.003408436,0.008156338,-1.514344,-3.078546,-1.65548,-0.02400506,-0.01897167,-0.01391781,-1.122776,-2.547527,1.631521
0,1.677781,107,153,500,496,-0.01319008,-0.005400621,0.006783376,-1.514092,-3.078317,-1.655449,-0.03254554,-0.001316749,-0.01375711,-1.122329,-2.546797,1.631618
0,1.688892,107,153,500,496,-0.01489255,-0.01826669,0.005970076,-1.513894,-3.077684,-1.655246,-0.03587801,0.009174205,-0.009208934,-1.122056,-2.546197,1.631561
0,1.700003,107,153,500,496,-0.01383299,-0.01837801,0.007038436,-1.513801,-3.077554,-1.655034,-0.03725199,0.01838494,0.0002494259,-1.121772,-2.545486,1.631272
0,1.711114,107,153,500,496,-0.01671532,-0.02781074,0.004574038,-1.513568,-3.076893,-1.654927,-0.03076383,0.02667094,0.01234998,-1.121835,-2.544843,1.630748
0,1.722225,110,134,500,499,-0.01126288,-0.03139117,0.0008258668,-1.513483,-3.076341,-1.654905,-0.02277877,0.01875102,0.007761935,-1.121796,-2.544843,1.630799
0,1.733337,110,134,500,499,-0.01233989,-0.03142142,0.0008116465,-1.513253,-3.076008,-1.654885,-0.01817419,0.01469672,-0.0004823771,-1.121759,-2.544854,1.631053
0,1.744448,110,134,500,499,-0.01344092,-0.02962687,-0.004312541,-1.513059,-3.07564,-1.654971,-0.0139825,0.0003147991,-0.01241719,-1.121454,-2.545435,1.63155
0,1.755559,110,134,500,499,-0.01660732,-0.03061721,-0.00555234,-1.512782,-3.075308,-1.655049,-0.01271827,0.002481704,-0.007263671,-1.121269,-2.545256,1.631502
0,1.76667,110,134,500,499,-0.01138805,-0.02744368,-0.003998498,-1.512825,-3.075106,-1.655017,-0.01610681,0.002070865,-0.002069847,-1.121006,-2.545061,1.631377
0,1.777781,111,120,501,499,-0.0124621,-0.02748244,-0.004013678,-1.512631,-3.074663,-1.655051,-0.01574365,0.008056168,0.002364499,-1.120856,-2.544599,1.631261
0,1.788892,111,120,501,499,-0.01030806,-0.02909088,6.079278E-05,-1.512583,-3.074315,-1.654887,-0.01457234,0.01254369,0.002611785,-1.120844,-2.544281,1.631183
0,1.800003,111,120,501,499,-0.007351371,-0.02114533,-0.001984393,-1.512574,-3.074346,-1.654861,-0.01508023,0.009068368,0.00376058,-1.120643,-2.544166,1.631101
0,1.811115,111,120,501,499,-0.00636617,-0.01993926,0.004661118,-1.512542,-3.074207,-1.654604,-0.006804026,-0.001569386,-0.003059769,-1.120641,-2.544629,1.631383
0,1.822226,108,130,500,495,-0.0004898352,-0.003939564,0.00704601,-1.512615,-3.07462,-1.654343,-0.004420512,-0.008103505,-0.005969407,-1.120566,-2.545009,1.631663
0,1.833337,108,130,500,495,0.001395957,0.003505335,0.008140221,-1.51252,-3.074914,-1.654346,-0.003320257,-0.01884372,-0.004366308,-1.120364,-2.5454,1.631682
0,1.844448,108,130,500,495,0.001063882,0.01465999,0.005484438,-1.512461,-3.075346,-1.65435,-0.00177159,-0.01060749,-0.0005090928,-1.120429,-2.545277,1.631579
0,1.855559,108,130,500,495,-0.0001751017,0.02020952,0.004150692,-1.512251,-3.075768,-1.654426,-0.006221338,-0.01355795,0.0005030981,-1.120102,-2.545403,1.631569
0,1.86667,108,130,500,495,0.001954188,0.02027118,0.004161916,-1.512315,-3.075937,-1.654353,-0.008726889,-0.002474774,-0.0006740848,-1.120082,-2.545064,1.631592
0,1.877781,101,121,499,503,0.002213079,0.01153888,0.005024865,-1.512241,-3.075929,-1.654239,-0.008324649,0.01645186,-0.00653577,-1.120185,-2.544424,1.63187
0,1.888893,101,121,499,503,0.001244808,0.008032941,0.006661474,-1.512183,-3.075935,-1.654089,-0.004733532,0.02530619,-0.00983543,-1.120469,-2.544041,1.632055
0,1.900004,101,121,499,503,-0.001689435,-0.0001838712,0.003294869,-1.512005,-3.075644,-1.654084,0.0005815476,0.03113375,-0.007670353,-1.120795,-2.543774,1.632098
0,1.911115,101,121,499,503,-0.003430027,-0.01304703,0.00246937,-1.511942,-3.075062,-1.654005,0.001682552,0.02919393,-0.005145754,-1.120968,-2.543534,1.632058
0,1.922226,93,134,499,498,-5.185464E-05,-0.01989406,0.005769111,-1.512002,-3.074684,-1.653842,0.004267497,0.01350339,-0.007970947,-1.120866,-2.543849,1.632145
0,1.933337,93,134,499,498,0.001073807,-0.02227862,0.007576372,-1.512064,-3.074393,-1.65368,0.002175035,0.0062679,-0.009025276,-1.120701,-2.543875,1.632234
0,1.944448,93,134,499,498,0.008498804,-0.02053232,0.004612624,-1.512294,-3.074247,-1.653739,-0.0009409618,0.0008235807,-0.01499033,-1.120552,-2.544131,1.632599
0,1.955559,93,134,499,498,0.008436514,-0.01811581,0.002828618,-1.512396,-3.074121,-1.653599,-0.006466932,0.004141012,-0.01723011,-1.120351,-2.543951,1.632806
0,1.966671,93,134,499,498,0.01070245,-0.02211301,0.001172279,-1.5126,-3.073719,-1.653585,-0.005297136,0.01519117,-0.01690182,-1.120535,-2.543588,1.632998
0,1.977782,90,115,500,494,0.009539885,-0.01852263,-0.001518971,-1.512656,-3.073591,-1.653511,-0.00661849,0.0242602,-0.009827884,-1.120686,-2.542989,1.632768
0,1.988893,90,115,500,494,0.008646177,-0.02367106,-0.003348887,-1.512793,-3.073124,-1.653542,-0.008557338,0.02560176,-0.006613716,-1.120693,-2.542628,1.632731
0,2.000004,90,115,500,494,0.008709124,-0.02608593,-0.001552347,-1.512858,-3.072766,-1.65354,-0.006002754,0.01661497,-0.006972419,-1.120689,-2.542801,1.632824
0,2.011115,90,115,500,494,0.003257106,-0.02172887,-0.003074681,-1.512788,-3.072595,-1.653602,-0.004863071,0.01677589,-0.006001452,-1.120787,-2.542572,1.63286
0,2.022226,90,115,500,494,0.004352132,-0.02321278,-5.733164E-05,-1.512898,-3.072324,-1.65349,-0.005926243,0.01423792,-0.01017737,-1.120755,-2.542525,1.633089
0,2.033337,91,104,500,498,0.005154049,-0.01428422,-0.001976092,-1.512932,-3.072443,-1.653533,-0.007414447,0.01695552,-0.006555725,-1.120714,-2.542208,1.633059
0,2.044448,91,104,500,498,0.005217515,-0.01670111,-0.0001742649,-1.513001,-3.072164,-1.65346,-0.004902435,0.0212451,-0.004361963,-1.120873,-2.54188,1.633007
0,2.055559,91,104,500,498,0.008478521,-0.01901395,0.001646979,-1.513182,-3.071963,-1.653383,-0.002722701,0.01961083,0.001519972,-1.120991,-2.541662,1.632808
0,2.06667,91,104,500,498,0.008549934,-0.02111995,0.00134016,-1.513306,-3.071672,-1.653392,-0.004230167,0.01346261,-0.003878793,-1.120838,-2.54168,1.632968
0,2.077781,93,104,500,497,0.006287132,-0.01696601,0.001944616,-1.513319,-3.071685,-1.653364,-0.004081485,0.0132482,-0.0005247883,-1.120905,-2.541486,1.632918
0,2.088892,93,104,500,497,0.006400545,-0.01935915,-0.003788623,-1.513451,-3.071326,-1.653547,0.0007262202,0.01561755,0.002797099,-1.121137,-2.541275,1.632774
0,2.100003,93,104,500,497,0.002070334,-0.01753687,-0.00244791,-1.513386,-3.07121,-1.653461,-0.003271945,0.02285034,0.005138057,-1.121115,-2.540699,1.632557
0,2.111114,93,104,500,497,0.000112304,-0.02240943,-0.006393178,-1.513322,-3.070783,-1.653618,-0.004228756,0.02680657,0.0067817,-1.121257,-2.540302,1.632495
0,2.122225,93,104,500,497,-0.003084839,-0.02235472,-0.007476542,-1.513185,-3.070463,-1.653779,-0.01072173,0.0275182,0.006102711,-1.121128,-2.539867,1.632417
0,2.133336,93,106,500,500,-0.0008155028,-0.02633473,-0.009138621,-1.513236,-3.070247,-1.653908,-0.01066725,0.01857017,0.002814527,-1.120946,-2.539903,1.632525
0,2.144447,93,106,500,500,-0.00611161,-0.02770845,-0.008273126,-1.513043,-3.069856,-1.653931,-0.009066497,0.01130114,0.003287086,-1.12083,-2.539913,1.632482
0,2.155558,93,106,500,500,-0.009338169,-0.02659174,-0.009199513,-1.512889,-3.069633,-1.654078,-0.007822783,0.00914445,0.00917438,-1.120814,-2.539735,1.632227
0,2.166669,93,106,500,500,-0.009474138,-0.02222267,-0.00963797,-1.512764,-3.069455,-1.654175,-0.006681887,0.01810534,0.01106383,-1.120979,-2.539233,1.631998
0,2.17778,88,122,499,498,-0.008435931,-0.02097865,-0.01052756,-1.512775,-3.069266,-1.654236,-0.006715304,0.02480701,0.0135359,-1.121104,-2.538763,1.631739
0,2.188891,88,122,499,498,-0.009494107,-0.02070103,-0.01264783,-1.512695,-3.068978,-1.654416,-0.008828614,0.03307662,0.01586754,-1.12122,-2.538008,1.631413
0,2.200002,88,122,499,498,-0.01079444,-0.01366577,-0.009453019,-1.512608,-3.069081,-1.654348,-0.009023326,0.0291526,0.02374524,-1.121177,-2.5376,1.630895
0,2.211113,88,122,499,498,-0.01186089,-0.01416675,-0.006299796,-1.512515,-3.068856,-1.654332,-0.009445931,0.02106586,0.02086501,-1.121054,-2.537533,1.630776
0,2.222224,88,122,499,498,-0.01632718,-0.00812938,-0.004334686,-1.512196,-3.068869,-1.654312,-0.005884097,0.005746876,0.01563473,-1.120931,-2.537834,1.630725
0,2.233335,86,116,500,499,-0.01755995,-0.002576963,-0.005668318,-1.511917,-3.068955,-1.654402,-0.00833048,-0.0009084567,0.01022695,-1.120741,-2.537967,1.630837
0,2.244446,86,116,500,499,-0.01346736,0.002349562,-0.001702123,-1.51189,-3.069093,-1.654338,0.003288073,-0.004427984,0.0006937658,-1.121009,-2.538412,1.631155
0,2.255557,86,116,500,499,-0.01263527,0.009913915,-0.001653682,-1.51168,-3.0694,-1.654385,0.007339567,-0.007285759,0.005730378,-1.121138,-2.538558,1.63094
0,2.266668,86,116,500,499,-0.007473854,0.01612234,-0.006108062,-1.511711,-3.069699,-1.654595,-0.002205502,-0.003096957,0.01622819,-1.120942,-2.538189,1.630422
0,2.277779,94,112,500,501,-0.01067151,0.0160289,-0.006125111,-1.511434,-3.069832,-1.654783,-0.008369271,0.003728388,0.02237107,-1.120741,-2.537775,1.629961
0,2.28889,94,112,500,501,-0.009309778,0.006897187,-0.009638313,-1.511373,-3.069606,-1.654935,-0.0132193,0.01030874,0.02236183,-1.120604,-2.537269,1.629665
0,2.300001,94,112,500,501,-0.009016255,-0.003209161,-0.006837661,-1.51132,-3.069343,-1.654858,-0.01714177,0.01964873,0.02317119,-1.120628,-2.53661,1.629436
0,2.311112,94,112,500,501,-0.01414862,-0.009051983,-0.01203587,-1.510903,-3.068984,-1.65516,-0.008633509,0.02625397,0.01917814,-1.120972,-2.53619,1.62929
0,2.322223,94,112,500,501,-0.01701704,-0.01967476,-0.01364197,-1.510697,-3.068428,-1.655303,0.006228108,0.02581504,0.02050955,-1.121475,-2.536074,1.628998
0,2.333334,106,115,500,501,-0.0138991,-0.01762674,-0.01225928,-1.510512,-3.068259,-1.655409,0.01570114,0.0174579,0.02120837,-1.12182,-2.536106,1.628782
0,2.344445,106,115,500,501,-0.01311277,-0.007161611,-0.017151,-1.510428,-3.06841,-1.655807,0.01486152,0.003408379,0.01387441,-1.121809,-2.536523,1.628862
0,2.355556,106,115,500,501,-0.01122211,0.000111493,-0.01496809,-1.510252,-3.068466,-1.655885,-0.003704071,-0.0004401368,0.01173592,-1.121242,-2.53641,1.628754
0,2.366668,106,115,500,501,-0.00919145,0.00333471,-0.01447549,-1.510177,-3.068536,-1.656006,-0.01523233,-0.001518991,0.0172516,-1.120778,-2.536094,1.628386
0,2.377779,106,115,500,501,-0.007071453,0.002441576,-0.008143974,-1.510099,-3.068548,-1.65596,-0.01747763,0.0004390199,0.02424938,-1.120595,-2.535744,1.62793
0,2.38889,114,111,501,497,-0.009131921,0.0001112593,-0.007425039,-1.510017,-3.068436,-1.656057,-0.007814044,0.0004858095,0.01874496,-1.120756,-2.535796,1.627873
0,2.400001,114,111,501,497,-0.009914347,-0.009555325,-0.007824479,-1.509795,-3.067991,-1.65619,-0.002693016,0.008883044,0.02078479,-1.120952,-2.535512,1.627587
0,2.411112,114,111,501,497,-0.01198026,-0.01173157,-0.008161984,-1.509632,-3.067651,-1.656288,-0.004510492,0.0121884,0.02008461,-1.120968,-2.535182,1.627359
0,2.422223,114,111,501,497,-0.009849569,-0.01166633,-0.008144645,-1.509609,-3.06753,-1.656284,-0.008469733,0.01926491,0.01196941,-1.120778,-2.53478,1.62744
0,2.433334,116,135,500,497,-0.01295467,-0.01538856,-0.005490764,-1.509395,-3.067382,-1.656292,-0.01159197,0.02280773,0.01744409,-1.120642,-2.534235,1.627014
0,2.444445,116,135,500,497,-0.01085762,-0.01395028,-0.007425759,-1.509288,-3.067217,-1.656403,-0.01086347,0.02814986,0.01812853,-1.120725,-2.533674,1.626751
0,2.455556,116,135,500,497,-0.01081702,-0.01499765,-0.007581933,-1.509294,-3.067094,-1.656398,-0.001088755,0.02808094,0.01835499,-1.12105,-2.533422,1.626492
0,2.466667,116,135,500,497,-0.01083031,-0.01563933,-0.003369044,-1.509122,-3.066908,-1.656267,0.0002761632,0.01000696,0.01364477,-1.120931,-2.533778,1.626478
0,2.477778,116,135,500,497,-0.01092206,-0.01263577,-0.001828606,-1.509095,-3.066941,-1.656206,0.0003354846,-0.003508868,0.00627038,-1.120635,-2.534045,1.626583
0,2.488889,114,107,501,499,-0.008919925,-0.008202029,-0.002223791,-1.509032,-3.066954,-1.656226,0.004339104,-0.006416573,0.003179564,-1.120694,-2.534279,1.62665
0,2.5,114,107,501,499,-0.003684319,-0.004401974,-0.004868022,-1.509154,-3.067038,-1.656376,0.004020519,-0.001323914,0.008622054,-1.120892,-2.533945,1.62637
0,2.511111,114,107,501,499,-0.00468345,-0.006538059,-0.005192067,-1.509106,-3.06689,-1.656349,0.0005311295,0.01398246,0.0139218,-1.12098,-2.533197,1.625971
0,2.522222,114,107,501,499,-0.002607805,-0.003725666,-0.009070979,-1.509173,-3.066875,-1.656567,-0.0003976133,0.02016293,0.01643283,-1.121108,-2.532699,1.625663
0,2.533333,111,101,500,497,-0.002511736,-0.007034033,-0.008499369,-1.509177,-3.06685,-1.656602,-0.006931728,0.02327785,0.01899181,-1.121047,-2.532152,1.625313
0,2.544444,111,101,500,497,-0.0002432233,-0.01085836,-0.01124099,-1.509279,-3.066592,-1.656795,-0.008686155,0.02869442,0.01675665,-1.121087,-2.531623,1.625141
0,2.555555,111,101,500,497,-0.0003120005,-0.008588492,-0.01197028,-1.509206,-3.066554,-1.656928,-0.004996644,0.02416796,0.01660955,-1.121144,-2.531428,1.6249
0,2.566666,111,101,500,497,-0.00010766,-0.01474327,-0.01399676,-1.509271,-3.066149,-1.657091,-0.005411804,0.02043938,0.01298283,-1.121134,-2.531238,1.624822
0,2.577777,111,101,500,497,0.0008872813,-0.01275803,-0.01262146,-1.509237,-3.066136,-1.657278,-0.0008941982,0.01876731,0.007918737,-1.121262,-2.531214,1.624901
0,2.588888,105,114,499,502,-0.003303266,-0.01482658,-0.01402904,-1.509091,-3.065873,-1.657457,-0.003275802,0.02096359,0.01156969,-1.121294,-2.53079,1.624633
0,2.599999,105,114,499,502,-0.003374116,-0.0128755,-0.01265004,-1.509006,-3.065876,-1.657518,0.0008390155,0.02016008,0.0150509,-1.121522,-2.530534,1.624225
0,2.61111,105,114,499,502,-0.004364218,-0.0151804,-0.01191978,-1.509079,-3.065598,-1.657493,-0.001648863,0.02024383,0.01212364,-1.121571,-2.530295,1.624216
0,2.622221,105,114,499,502,-0.00555627,-0.0113294,-0.009175094,-1.509098,-3.065573,-1.65757,-0.001138819,0.01479609,0.007651707,-1.121584,-2.530297,1.624264
0,2.633332,96,108,499,500,-0.00351795,-0.007949309,-0.009721563,-1.509206,-3.065508,-1.657624,-0.000412561,0.013441,0.005826037,-1.121657,-2.530222,1.624294
0,2.644443,96,108,499,500,-0.0004893327,-0.002431506,-0.009940973,-1.509292,-3.065539,-1.657709,-0.006233787,0.01074981,0.004887254,-1.121465,-2.530071,1.624273
0,2.655554,96,108,499,500,0.003699222,-0.0006743821,-0.006428865,-1.509434,-3.065716,-1.657656,-0.008044237,0.01420223,0.01469042,-1.121424,-2.529533,1.623787
0,2.666665,96,108,499,500,0.002640947,-0.0008699842,-0.005384869,-1.509536,-3.065681,-1.657735,-0.007882529,0.01605721,0.008391108,-1.121462,-2.529331,1.623855
0,2.677776,96,108,499,500,0.002644046,-0.0005429693,-0.007489437,-1.509552,-3.065672,-1.657857,-0.009738972,0.01950418,0.01007534,-1.121514,-2.528908,1.623725
0,2.688887,87,122,499,496,0.001611205,-0.002442396,-0.002396513,-1.509606,-3.065594,-1.657769,-0.009056842,0.02050694,0.01147184,-1.121565,-2.528565,1.623526
0,2.699998,87,122,499,496,-0.003585705,-0.0074655,0.001130882,-1.509393,-3.065395,-1.657675,-0.007761542,0.0180487,0.004468624,-1.121638,-2.528416,1.623661
0,2.711109,87,122,499,496,-0.005496597,-0.01336179,-0.003023332,-1.509423,-3.065011,-1.657897,-0.00729137,0.01927973,-0.005615281,-1.121695,-2.528292,1.624046
0,2.72222,87,122,499,496,-0.008586333,-0.01661929,-0.003535972,-1.509321,-3.06474,-1.657963,-0.008395091,0.01469109,-0.0001446048,-1.1216,-2.528121,1.623908
0,2.733331,87,122,499,496,-0.006427377,-0.01809131,-0.0005276013,-1.509335,-3.064531,-1.6579,-0.007769912,0.01581698,0.003630299,-1.121588,-2.527858,1.623724
0,2.744442,85,109,500,498,-0.005365228,-0.01822032,0.0005317831,-1.509301,-3.064322,-1.657865,-0.01249546,0.01562587,0.00688273,-1.121411,-2.527515,1.623536
0,2.755553,85,109,500,498,-0.00529639,-0.02016196,-0.0008477407,-1.509257,-3.064022,-1.657893,-0.0140802,0.02512752,-0.000810344,-1.12146,-2.52709,1.62372
0,2.766664,85,109,500,498,-0.004268941,-0.01940087,0.001430222,-1.509261,-3.063864,-1.65777,-0.01142728,0.02689596,-0.004191648,-1.121555,-2.526809,1.623859
0,2.777775,85,109,500,498,-0.005251574,-0.02340691,0.006204003,-1.509139,-3.063461,-1.657543,-0.01371885,0.02661712,-0.006137223,-1.121493,-2.526391,1.623971
0,2.788886,94,95,500,499,-0.006381039,-0.02117591,0.005468897,-1.509096,-3.063228,-1.6575,-0.009727422,0.02369707,-0.009241408,-1.121576,-2.526294,1.62417
0,2.799997,94,95,500,499,-0.005288649,-0.0229981,0.01059597,-1.509176,-3.063028,-1.657116,-0.008340962,0.01665297,-0.0121759,-1.121534,-2.526317,1.624339
0,2.811108,94,95,500,499,-0.00425553,-0.02191448,0.01076933,-1.509226,-3.062806,-1.656971,-0.009610142,0.007841667,-0.01172946,-1.121309,-2.526361,1.624394
0,2.822219,94,95,500,499,-0.001242108,-0.0170447,0.01475198,-1.509164,-3.062689,-1.65678,-0.01133507,0.002118461,-0.01003167,-1.121106,-2.526428,1.624464
0,2.83333,94,95,500,499,0.0006763935,-0.01130972,0.01994933,-1.509116,-3.062726,-1.656439,-0.01336208,0.00357189,-0.01254099,-1.120962,-2.526191,1.624705
0,2.844441,97,98,500,501,-0.002645042,-0.007190714,0.02057615,-1.509039,-3.062799,-1.656227,-0.0133593,0.008030818,-0.01086868,-1.120915,-2.525975,1.624791
0,2.855552,97,98,500,501,-0.0007037204,-0.0009602704,0.02261387,-1.509127,-3.063066,-1.655879,-0.01470708,0.003788198,-0.01448543,-1.12079,-2.526074,1.624961
0,2.866663,97,98,500,501,-0.0008259509,0.003093583,0.02430699,-1.509158,-3.063198,-1.655605,-0.02146007,-0.001661679,-0.0162539,-1.120347,-2.526134,1.625215
0,2.877774,97,98,500,501,-0.0007892493,0.001891536,0.02520686,-1.509202,-3.06323,-1.655196,-0.01652444,-0.006300682,-0.02019517,-1.120175,-2.526427,1.625598
0,2.888885,99,106,500,496,-0.003007745,0.004992669,0.02567276,-1.509121,-3.063342,-1.654913,-0.01652194,-0.006308241,-0.02019485,-1.119988,-2.526505,1.625849
0,2.899997,99,106,500,496,-0.003900278,-0.001512233,0.02575753,-1.508926,-3.063148,-1.654676,-0.01677854,-0.008051204,-0.01962617,-1.119757,-2.526583,1.626
0,2.911108,99,106,500,496,-0.006058417,-0.0005117385,0.02590756,-1.50881,-3.06321,-1.654352,-0.01812875,-0.005609874,-0.02073993,-1.11955,-2.526595,1.626295
0,2.922219,99,106,500,496,-0.00614878,0.002661398,0.02638518,-1.50868,-3.063509,-1.654062,-0.01037464,-0.01524249,-0.0167193,-1.11945,-2.527029,1.62644
0,2.93333,99,106,500,496,-0.005203741,0.006601515,0.02913532,-1.50854,-3.063854,-1.653667,-0.0104199,-0.01304174,-0.02399633,-1.119245,-2.527312,1.627002
0,2.944441,97,103,499,499,-0.008387741,0.007154479,0.0249061,-1.50838,-3.063939,-1.653473,-0.01176196,-0.01283318,-0.02594579,-1.119043,-2.527508,1.627374
0,2.955552,97,103,499,499,-0.007275997,0.004613555,0.02774554,-1.508197,-3.064075,-1.653225,-0.01347969,-0.007572084,-0.03056067,-1.118894,-2.527659,1.627892
0,2.966663,97,103,499,499,-0.006009568,-0.002251137,0.02347817,-1.508203,-3.063851,-1.653045,-0.01916744,-0.001613295,-0.02480304,-1.118623,-2.52741,1.627994
0,2.977774,97,103,499,499,-0.01021742,-0.004455722,0.02313854,-1.507989,-3.063812,-1.652802,-0.01999841,-0.002248212,-0.01906193,-1.118363,-2.527459,1.628093
0,2.988885,97,122,499,498,-0.007897975,-0.01160944,0.0209878,-1.507976,-3.063519,-1.652597,-0.02031484,-0.001633312,-0.01528295,-1.118154,-2.527394,1.628175
0,2.999996,97,122,499,498,-0.009019675,-0.009045935,0.01813816,-1.507768,-3.0636,-1.652467,-0.0231207,-0.0009643612,-0.01442447,-1.117862,-2.5274,1.628333
0,3.011107,97,122,499,498,-0.01117075,-0.008345381,0.02039791,-1.507729,-3.063692,-1.652148,-0.01919788,-0.00584104,-0.01360089,-1.117659,-2.527659,1.628513
0,3.022218,97,122,499,498,-0.01132861,-0.001707347,0.01923646,-1.507563,-3.063839,-1.652052,-0.01784308,-0.01486131,-0.0126195,-1.117322,-2.528053,1.628714
0,3.033329,97,122,499,498,-0.008238157,0.002275837,0.0219924,-1.507566,-3.06406,-1.65176,-0.01593595,-0.02709223,-0.01527152,-1.116931,-2.528619,1.628984
0,3.04444,95,107,500,499,-0.01150237,0.005676906,0.02034517,-1.507371,-3.064191,-1.651559,-0.01562257,-0.03205287,-0.01834539,-1.116573,-2.529114,1.629322
0,3.055551,95,107,500,499,-0.008426683,0.01149152,0.01798914,-1.507326,-3.064437,-1.65146,-0.009522114,-0.02769138,-0.02034119,-1.116579,-2.529253,1.629598
0,3.066662,95,107,500,499,-0.007426467,0.01483377,0.01741146,-1.507344,-3.064684,-1.651291,-0.00630234,-0.02686862,-0.01840337,-1.116476,-2.529578,1.62977
0,3.077773,95,107,500,499,-0.005420627,0.02015382,0.01820644,-1.507215,-3.0651,-1.651157,-0.01227016,-0.02701459,-0.01137906,-1.11594,-2.529717,1.629619
0,3.088884,95,107,500,499,-0.004373155,0.02185809,0.01415328,-1.507181,-3.065297,-1.651172,-0.01303004,-0.01674406,0.001905097,-1.115817,-2.529454,1.629132
0,3.099995,92,100,499,498,-0.006466787,0.02075472,0.0139797,-1.507197,-3.065463,-1.651073,-0.01187094,-0.01225649,0.00217458,-1.115716,-2.529419,1.629103
0,3.111106,92,100,499,498,-0.004213389,0.01616888,0.008994767,-1.507093,-3.065551,-1.651011,-0.0121465,-0.009540007,0.00441329,-1.115607,-2.529423,1.628993
0,3.122217,92,100,499,498,-0.008418903,0.01380832,0.009709848,-1.506979,-3.065628,-1.650911,-0.009462557,-0.007863508,-0.001340588,-1.115562,-2.529527,1.629175
0,3.133328,92,100,499,498,-0.009364241,0.008679809,0.007866248,-1.506772,-3.065645,-1.650812,0.001058057,-0.01144065,-0.003789264,-1.115759,-2.529974,1.629325
0,3.144439,89,120,500,494,-0.01257203,0.01029314,0.003795103,-1.506618,-3.065769,-1.650913,0.01596196,-0.01850243,-0.004996893,-1.116121,-2.530607,1.629435
0,3.15555,89,120,500,494,-0.006332334,0.01659325,0.005824958,-1.506583,-3.066139,-1.650869,0.01705462,-0.02479337,-0.00178207,-1.116156,-2.531126,1.62937
0,3.166661,89,120,500,494,-0.006534718,0.02702137,0.0009339454,-1.506471,-3.066675,-1.651082,0.001435028,-0.0360829,0.000826308,-1.115491,-2.53159,1.629315
0,3.177772,89,120,500,494,-0.001332719,0.0322491,0.00280364,-1.506535,-3.067229,-1.651049,-0.009679738,-0.03352369,0.009973469,-1.115052,-2.531507,1.629017
0,3.188883,89,120,500,494,-0.001329693,0.03240564,0.001750699,-1.506546,-3.067549,-1.651074,-0.01695161,-0.03137257,0.01351049,-1.114555,-2.531503,1.628771
0,3.199994,91,112,500,496,0.004200656,0.02256765,0.003503439,-1.506727,-3.06752,-1.651039,-0.01550127,-0.01436142,0.01029695,-1.114573,-2.531211,1.628801
0,3.211105,91,112,500,496,0.003159201,0.02133285,0.004392056,-1.506725,-3.067734,-1.650976,-0.01280585,-0.001658672,0.01448651,-1.114655,-2.530752,1.628472
0,3.222216,91,112,500,496,-0.000794448,0.007231279,0.004424697,-1.5066,-3.06746,-1.650912,-0.007440772,0.008394198,0.01361302,-1.114886,-2.530413,1.628375
0,3.233327,91,112,500,496,-0.00183507,0.006313329,0.003207954,-1.506539,-3.067514,-1.650896,-0.007424055,0.01929783,0.01306569,-1.114995,-2.529873,1.628198
0,3.244438,93,121,500,497,-0.007919542,-0.007514718,0.001118531,-1.506346,-3.067049,-1.650906,-0.01238827,0.01496727,0.005546662,-1.114779,-2.52978,1.628354
0,3.255549,93,121,500,497,-0.007972922,-0.0060285,0.005656084,-1.506288,-3.067219,-1.650636,-0.01326655,0.007764306,0.003029251,-1.114602,-2.529807,1.628391
0,3.26666,93,121,500,497,-0.01006488,-0.008812152,0.009546239,-1.506207,-3.067017,-1.650384,-0.003244404,-0.005964371,-0.008955569,-1.114631,-2.530493,1.628872
0,3.277771,93,121,500,497,-0.005862736,-0.007087811,0.01304712,-1.506184,-3.066987,-1.650126,-0.002460599,-0.007422032,-0.01315734,-1.114563,-2.530561,1.629105
0,3.288882,93,121,500,497,-0.005893108,-0.006501656,0.01636785,-1.506102,-3.066996,-1.649837,-0.004498843,-0.005990434,-0.01565803,-1.114463,-2.53066,1.629391
0,3.299993,85,118,499,500,-0.002765564,-0.003116739,0.01579857,-1.506102,-3.067046,-1.649743,-0.008700103,-0.0006519703,-0.0150655,-1.114383,-2.530443,1.629538
0,3.311104,85,118,499,500,-0.001696814,-0.004930435,0.02091286,-1.505995,-3.066971,-1.649417,-0.0118153,0.004959775,-0.01112102,-1.114293,-2.530145,1.629537
0,3.322215,85,118,499,500,-0.001669068,-0.005822483,0.01970191,-1.506092,-3.066939,-1.649241,-0.007638244,0.01274802,-0.01142917,-1.114382,-2.529876,1.629583
0,3.333326,85,118,499,500,-0.0005916785,-0.007162362,0.02166196,-1.506029,-3.066825,-1.648916,-0.01068516,0.0160066,-0.01070696,-1.114325,-2.529651,1.629745
0,3.344437,85,118,499,500,0.0005398337,-0.01013885,0.0201455,-1.506134,-3.066647,-1.648734,-0.007541755,0.01249569,-0.01619258,-1.114358,-2.52975,1.630096
0,3.355548,84,129,499,497,0.003821908,-0.01350942,0.01426685,-1.50618,-3.066401,-1.648713,-0.01296224,0.01345661,-0.01349406,-1.114065,-2.529497,1.630217
0,3.366659,84,129,499,497,0.006186291,-0.02567203,0.01678085,-1.506495,-3.065872,-1.648499,-0.01331775,0.01183007,-0.0186705,-1.113942,-2.529475,1.630566
0,3.37777,84,129,499,497,0.006248792,-0.02836591,0.01315336,-1.506517,-3.065484,-1.648434,-0.01642436,0.006535686,-0.01416755,-1.113691,-2.529436,1.630584
0,3.388881,84,129,499,497,0.005245666,-0.03154323,0.0126869,-1.506583,-3.065125,-1.648281,-0.006714039,0.002349306,-0.01088554,-1.113816,-2.529612,1.630626
0,3.399992,86,124,500,498,0.007378496,-0.03134353,0.01165211,-1.506741,-3.064806,-1.648152,-6.497768E-05,0.01232318,-0.00743429,-1.1142,-2.529302,1.630525
0,3.411103,86,124,500,498,0.008346588,-0.02558675,0.009274988,-1.506857,-3.064707,-1.648107,0.0006413376,0.02410898,-0.008986883,-1.114484,-2.528837,1.630642
0,3.422215,86,124,500,498,0.01029533,-0.01757602,0.01368911,-1.50691,-3.06481,-1.647872,-0.006815265,0.03517194,-0.01019773,-1.114393,-2.528087,1.630763
0,3.433326,86,124,500,498,0.009231598,-0.01743919,0.01263387,-1.506997,-3.064654,-1.64775,-0.01286101,0.04156835,-0.01114144,-1.114397,-2.527439,1.630894
0,3.444437,86,124,500,498,0.009258023,-0.01802239,0.009320974,-1.507102,-3.064499,-1.64771,-0.01103326,0.03616879,-0.008917017,-1.114457,-2.527181,1.630935
0,3.455548,88,122,500,497,0.01140086,-0.01949306,0.01234597,-1.507273,-3.064308,-1.647474,-6.933324E-05,0.02533035,-0.009554091,-1.114638,-2.527271,1.631072
0,3.466659,88,122,500,497,0.01023775,-0.01408822,0.01205942,-1.507414,-3.064282,-1.647334,0.01113012,0.003083719,-0.01912245,-1.11476,-2.528173,1.631621
0,3.47777,88,122,500,497,0.01231445,-0.01072688,0.01148165,-1.507682,-3.064278,-1.647173,0.01323371,-0.007281315,-0.02807102,-1.114857,-2.528741,1.632305
0,3.488881,88,122,500,497,0.01226554,-0.008922288,0.01390067,-1.507777,-3.064276,-1.64692,0.0143518,-0.009231932,-0.02555161,-1.114952,-2.529058,1.632553
0,3.499992,96,136,500,498,0.0162907,0.002914624,0.01454677,-1.507896,-3.064713,-1.646745,0.01334734,-0.007402498,-0.02233187,-1.115077,-2.529179,1.632726
0,3.511103,96,136,500,498,0.01299285,0.007974279,0.01634736,-1.507936,-3.064958,-1.646526,0.01637634,-0.00410543,-0.02291266,-1.115341,-2.529364,1.633019
0,3.522214,96,136,500,498,0.01595663,0.01949443,0.01907379,-1.508095,-3.065639,-1.646433,0.02651051,0.003978522,-0.01977687,-1.115931,-2.529458,1.633215
0,3.533325,96,136,500,498,0.01592198,0.02207285,0.01620668,-1.508312,-3.066032,-1.646387,0.02836654,0.0006796941,-0.01907212,-1.116156,-2.52981,1.633475
0,3.544436,96,136,500,498,0.01692661,0.02556076,0.01455145,-1.508487,-3.066357,-1.646269,0.02642592,-0.002339022,-0.01512943,-1.116313,-2.530001,1.633538
0,3.555547,103,134,500,497,0.01805232,0.02333185,0.007773954,-1.508636,-3.06658,-1.646363,0.01621252,0.0005870694,-0.0164859,-1.116201,-2.529968,1.633745
0,3.566658,103,134,500,497,0.01594332,0.02223738,0.007608463,-1.508773,-3.066777,-1.646312,0.009055344,0.004577937,-0.01926455,-1.116198,-2.529941,1.634074
0,3.577769,103,134,500,497,0.01612735,0.01335814,0.002030038,-1.508859,-3.066699,-1.646428,0.00154532,0.01142976,-0.01744257,-1.116239,-2.529615,1.634224
0,3.58888,103,134,500,497,0.01629704,0.004623686,0.002929311,-1.509114,-3.066525,-1.646348,-0.0008454565,0.02003494,-0.01607823,-1.116373,-2.529239,1.634349
0,3.599991,106,113,500,495,0.01120069,-0.007227937,0.002301842,-1.509056,-3.066209,-1.646317,0.003179078,0.01505662,-0.01762013,-1.116681,-2.529463,1.634639
0,3.611102,106,113,500,495,0.01014988,-0.008603591,0.004261629,-1.50912,-3.066139,-1.646168,0.006473157,0.009198079,-0.01816409,-1.116816,-2.52968,1.634884
0,3.622213,106,113,500,495,0.008979389,-0.003353243,0.005010336,-1.509187,-3.066212,-1.646095,0.009621181,-0.00942645,-0.01988194,-1.116783,-2.530421,1.635196
0,3.633324,106,113,500,495,0.00993086,0.001937158,0.005765733,-1.50921,-3.066335,-1.646025,0.01163624,-0.01955604,-0.02401485,-1.116692,-2.531087,1.635557
0,3.644435,106,113,500,495,0.01188853,0.009814394,0.01118966,-1.509399,-3.066636,-1.645792,0.004281892,-0.01955075,-0.02705756,-1.116474,-2.531392,1.635987
0,3.655546,106,139,500,492,0.01067425,0.01702856,0.01328475,-1.509418,-3.067088,-1.645623,0.005945887,-0.009429397,-0.02138905,-1.116633,-2.531214,1.635994
0,3.666657,106,139,500,492,0.010467,0.02712413,0.01793698,-1.509482,-3.067642,-1.645299,0.001570748,-0.003888268,-0.02420413,-1.116588,-2.531229,1.636373
0,3.677768,106,139,500,492,0.008282227,0.02935986,0.02469202,-1.509555,-3.068058,-1.644845,-0.0008599777,-0.001712925,-0.02057201,-1.116468,-2.531278,1.636523
0,3.688879,106,139,500,492,0.008288288,0.02936604,0.02468264,-1.50962,-3.068445,-1.644599,-0.0004027272,-0.004673514,-0.01943493,-1.116381,-2.531582,1.636773
0,3.69999,106,139,500,492,0.003066918,0.02355441,0.02707708,-1.509463,-3.068638,-1.644333,0.001706984,-0.01927353,-0.0252103,-1.116205,-2.53233,1.637295
0,3.711101,105,118,499,498,0.005202413,0.02360217,0.02707632,-1.50956,-3.068946,-1.644052,0.002608811,-0.02525181,-0.03103619,-1.115995,-2.533087,1.637862
0,3.722212,105,118,499,498,0.002188034,0.0142013,0.02467296,-1.509523,-3.068837,-1.643889,0.005308431,-0.03645285,-0.03221099,-1.115818,-2.533954,1.638366
0,3.733323,105,118,499,498,0.001200849,0.009969859,0.02407445,-1.509488,-3.068918,-1.64366,0.001230001,-0.03136288,-0.02831285,-1.115684,-2.534274,1.63852
0,3.744434,105,118,499,498,0.005539209,0.005834906,0.02349721,-1.509688,-3.068917,-1.643427,-0.0006044861,-0.02159859,-0.02320503,-1.115644,-2.534305,1.638669
0,3.755545,101,112,499,497,0.001238206,0.00757809,0.02588242,-1.509509,-3.069077,-1.643118,-0.006233428,-0.02029565,-0.02151466,-1.115321,-2.534516,1.638883
0,3.766656,101,112,499,497,0.001298124,0.00427465,0.02649293,-1.509594,-3.069089,-1.642851,-0.01064365,-0.01687127,-0.02278257,-1.115073,-2.534614,1.639213
0,3.777767,101,112,499,497,-0.001868309,0.003608206,0.0231752,-1.509568,-3.069115,-1.642585,-0.01393778,-0.01537523,-0.02152316,-1.114757,-2.534774,1.639466
0,3.788878,101,112,499,497,-0.002877517,0.0005762761,0.0216771,-1.509514,-3.069078,-1.642366,-0.01355357,-0.01385508,-0.01874137,-1.114611,-2.534856,1.639684
0,3.799989,101,112,499,497,-0.002808692,-0.004066633,0.02425928,-1.509535,-3.069063,-1.642038,-0.0115331,-0.01092302,-0.01695309,-1.11455,-2.534934,1.639878
0,3.8111,100,125,500,498,-0.005963711,-0.005641657,0.01973787,-1.509409,-3.068993,-1.641893,-0.008237045,-0.01451903,-0.0166592,-1.114487,-2.535209,1.640138
0,3.822211,100,125,500,498,-0.005964069,-0.005493429,0.0186841,-1.509333,-3.068936,-1.641709,-0.009593923,-0.01643524,-0.01705784,-1.114258,-2.535461,1.640393
0,3.833322,100,125,500,498,-0.001641002,-0.00978889,0.01917272,-1.509421,-3.068716,-1.641485,-0.01449158,-0.0206901,-0.01407042,-1.113798,-2.535755,1.640522
0,3.844433,100,125,500,498,-0.002657822,-0.01267945,0.01662464,-1.509338,-3.068492,-1.641334,-0.01579222,-0.01835156,-0.009469026,-1.113543,-2.535818,1.64055
0,3.855544,107,117,500,495,-0.002655983,-0.01238581,0.01451502,-1.509313,-3.068392,-1.641227,-0.01356802,-0.01577084,-0.006699243,-1.113383,-2.535863,1.64054
0,3.866655,107,117,500,495,-0.003733822,-0.01091156,0.01148992,-1.509256,-3.06833,-1.641179,-0.01295352,-0.01041494,-0.006042399,-1.113288,-2.535771,1.640569
0,3.877766,107,117,500,495,-0.004891515,-0.004017941,0.008132858,-1.509142,-3.068411,-1.641198,-0.00696031,-0.003746835,-0.007231749,-1.113462,-2.535654,1.640636
0,3.888877,107,117,500,495,-0.004923517,-0.001906554,0.00842361,-1.509082,-3.068448,-1.641097,-0.0002923333,-0.00248547,-0.004748795,-1.113605,-2.535726,1.640586
0,3.899988,107,117,500,495,-0.003898422,0.001999299,0.0035897,-1.509049,-3.06855,-1.64115,-0.006252417,0.00153226,-0.0008371791,-1.113455,-2.535488,1.640484
0,3.911099,112,122,501,499,-0.003868497,0.001381278,0.0002819172,-1.509153,-3.068568,-1.641159,-0.007477792,0.007923617,-0.00171525,-1.11341,-2.535183,1.640483
0,3.92221,112,122,501,499,-0.002721881,-0.003734026,-0.001496376,-1.509166,-3.068404,-1.641207,-0.01611556,0.02088864,0.002570106,-1.113289,-2.53438,1.640262
0,3.933321,112,122,501,499,-0.00152304,-0.01187094,-0.004768002,-1.509192,-3.068036,-1.641329,-0.01532415,0.02812909,0.005024435,-1.113457,-2.533868,1.640182
0,3.944432,112,122,501,499,-0.006667475,-0.023265,-0.00850418,-1.509033,-3.06743,-1.641477,-0.0113963,0.03199304,0.004416366,-1.11363,-2.533418,1.640104
0,3.955544,110,128,500,495,-0.007625721,-0.03096185,-0.007411613,-1.508983,-3.066855,-1.641402,0.0006452091,0.02806669,-0.0007919637,-1.114019,-2.533409,1.640214
0,3.966655,110,128,500,495,-0.005528867,-0.02703454,-0.01225038,-1.508982,-3.066596,-1.641651,0.01014249,0.01576077,-0.002697049,-1.114292,-2.533745,1.640323
0,3.977766,110,128,500,495,-0.004525515,-0.02294477,-0.01060545,-1.509024,-3.066453,-1.641681,0.02142281,0.000253994,-0.009600358,-1.114542,-2.534458,1.640606
0,3.988877,110,128,500,495,0.0006886339,-0.01548014,-0.009560606,-1.509169,-3.066468,-1.641725,0.01607576,-0.005372589,-0.007015608,-1.114472,-2.534674,1.640628
0,3.999988,110,128,500,495,0.002678674,-0.005362079,-0.01246314,-1.509234,-3.066682,-1.641984,-0.0008062555,-0.005820093,-0.001217573,-1.113993,-2.534366,1.640463
0,4.011099,106,126,500,495,0.005805456,-0.001237732,-0.01081217,-1.509384,-3.066776,-1.642054,-0.008262194,0.005093099,0.003209294,-1.113846,-2.533738,1.640203
1,4.02221,106,126,500,495,0.01215956,0.0008300868,-0.009440756,-1.509647,-3.066846,-1.6421,-0.01414827,0.02398812,0.006731558,-1.113917,-2.532865,1.639954
2,4.033321,106,126,500,495,0.01118582,-0.00475177,-0.008060528,-1.509822,-3.066652,-1.642125,-0.01600816,0.03375168,0.01184907,-1.113961,-2.532062,1.639661
3,4.044433,106,126,500,495,0.01124838,-0.007912987,-0.008500546,-1.51005,-3.066454,-1.642287,-0.03527542,0.03320558,0.02051979,-1.113305,-2.531143,1.639132
4,4.055544,106,126,500,495,0.01240326,-0.01331534,-0.008167587,-1.510191,-3.066174,-1.642345,-0.05980215,0.03120827,0.03684589,-1.112163,-2.52995,1.638177
5,4.066655,100,131,499,499,0.008986209,-0.0009973398,-0.004323821,-1.510209,-3.066469,-1.642331,-0.1144118,0.01794937,0.09198276,-1.109447,-2.52771,1.635333
6,4.077766,100,131,499,499,0.01509196,0.01420879,0.003150076,-1.510462,-3.067021,-1.64213,-0.1490853,0.01522909,0.1609866,-1.10712,-2.52493,1.631329
7,4.088878,100,131,499,499,0.01765524,0.04651965,0.05050473,-1.510634,-3.068681,-1.640454,-0.1305301,0.02019994,0.2081065,-1.106537,-2.522597,1.627562
8,4.099989,100,131,499,499,0.01409082,0.07457882,0.1313845,-1.510553,-3.07067,-1.636883,-0.1189918,-0.02690262,0.1445037,-1.105,-2.523454,1.627508
9,4.1111,91,130,499,497,0.008712366,0.09619114,0.1479859,-1.510373,-3.072592,-1.634859,-0.1439351,-0.0662443,0.04556454,-1.102104,-2.525086,1.630168
10,4.122211,91,130,499,497,-0.0008384064,0.1099576,0.1325331,-1.509994,-3.074169,-1.634151,-0.167961,-0.07320955,-0.06421547,-1.099464,-2.526645,1.634602
11,4.133323,91,130,499,497,-0.005777851,0.08205887,0.1245225,-1.509733,-3.074466,-1.632998,-0.1757141,-0.01197407,-0.07971211,-1.098444,-2.524565,1.635535
12,4.144434,91,130,499,497,-0.02867363,0.01438706,0.1243411,-1.508944,-3.072894,-1.631531,-0.1887211,0.06312805,-0.04079604,-1.09748,-2.520796,1.63485
13,4.155545,91,130,499,497,-0.05516447,-0.07485166,0.1526743,-1.507783,-3.070091,-1.628921,-0.1751652,0.1166729,0.007095229,-1.09673,-2.517515,1.633734
14,4.166656,94,124,500,498,-0.08350089,-0.1605925,0.1914257,-1.506476,-3.066389,-1.62557,-0.1645536,0.130406,0.01373298,-1.096649,-2.514426,1.63254
15,4.177768,94,124,500,498,-0.09736665,-0.2184829,0.2157009,-1.505396,-3.062844,-1.622407,-0.1087711,0.1421398,-0.02206009,-1.097654,-2.513618,1.633894
16,4.188879,94,124,500,498,-0.1184557,-0.2799616,0.2473123,-1.503859,-3.058329,-1.618574,-0.02459243,0.1458434,-0.05826692,-1.100391,-2.51375,1.635648
17,4.19999,94,124,500,498,-0.1362594,-0.295219,0.2814088,-1.50213,-3.055056,-1.61455,0.04464683,0.1481355,-0.1553538,-1.103535,-2.515244,1.640425
18,4.211102,92,114,499,498,-0.1474148,-0.2814533,0.3310019,-1.50041,-3.05269,-1.609363,0.02175484,0.1437108,-0.1927077,-1.103577,-2.514992,1.643618
19,4.222213,92,114,499,498,-0.1725402,-0.2501619,0.4610939,-1.497975,-3.051587,-1.600863,-0.01728025,0.2157664,-0.1820209,-1.104302,-2.511375,1.645372
20,4.233324,92,114,499,498,-0.1969091,-0.2430523,0.5236388,-1.495298,-3.049586,-1.593573,-0.0226026,0.3054053,-0.1601689,-1.106663,-2.50655,1.646037
21,4.244435,92,114,499,498,-0.2587071,-0.2770283,0.6280526,-1.491179,-3.045994,-1.583681,-0.1559603,0.4911106,-0.1513287,-1.106734,-2.495297,1.646747
22,4.255547,92,114,499,498,-0.3450127,-0.3663435,0.757499,-1.48591,-3.039882,-1.572133,-0.369736,0.6861882,-0.1507463,-1.103918,-2.480412,1.647643
23,4.266658,87,109,500,500,-0.4532865,-0.5739936,0.8981632,-1.479441,-3.028271,-1.558633,-0.4994563,0.7569749,-0.1551468,-1.100724,-2.467567,1.648824
24,4.277769,87,109,500,500,-0.5812061,-0.8571603,1.00342,-1.472203,-3.011832,-1.545496,-0.6541563,0.7367216,-0.1890751,-1.094513,-2.457374,1.651762
25,4.28888,87,109,500,500,-0.671119,-1.041625,1.033207,-1.464902,-2.994894,-1.533805,-0.7490478,0.6502391,-0.2235763,-1.087366,-2.449357,1.655285
26,4.299992,87,109,500,500,-0.8009833,-1.263298,1.074291,-1.456022,-2.974632,-1.521961,-0.8811274,0.5093918,-0.2568863,-1.07691,-2.443694,1.659594
27,4.311103,87,109,500,500,-0.907096,-1.320832,1.188208,-1.446285,-2.956978,-1.50666,-0.9647927,0.3870559,-0.2889068,-1.066919,-2.438109,1.663984
28,4.322214,88,119,501,503,-1.098641,-1.333231,1.483664,-1.433043,-2.940236,-1.483699,-1.018948,0.2392902,-0.3898879,-1.055875,-2.435964,1.671954
29,4.333325,88,119,501,503,-1.180298,-1.247661,1.596752,-1.421521,-2.926414,-1.464607,-1.062387,0.152526,-0.4623951,-1.045563,-2.432677,1.679708
30,4.344437,88,119,501,503,-1.232368,-1.01203,1.764749,-1.409333,-2.918075,-1.441975,-1.154663,0.002934098,-0.5698888,-1.031487,-2.4325,1.690873
31,4.355548,88,119,501,503,-1.255027,-0.8574094,1.861833,-1.397983,-2.90882,-1.420702,-1.23935,-0.1364409,-0.6394219,-1.016559,-2.432214,1.701331
32,4.366659,228,124,484,498,-1.282477,-0.692219,1.96258,-1.385797,-2.901582,-1.397022,-1.259616,-0.2209172,-0.65942,-1.002713,-2.43216,1.711363
33,4.37777,228,124,484,498,-1.26194,-0.4275999,2.143666,-1.374475,-2.898661,-1.368971,-1.290621,-0.320126,-0.696929,-0.9881307,-2.433083,1.722305
34,4.388882,228,124,484,498,-1.257628,-0.2512881,2.219638,-1.362729,-2.895173,-1.342432,-1.319183,-0.3882132,-0.7254194,-0.9732714,-2.434026,1.73383
35,4.399993,228,124,484,498,-1.228234,-0.03206128,2.326245,-1.35175,-2.8942,-1.313508,-1.38504,-0.4742162,-0.7658097,-0.9561526,-2.435641,1.747126
36,4.411104,228,124,484,498,-1.210117,0.1295797,2.380206,-1.340527,-2.893442,-1.284741,-1.400521,-0.5601077,-0.8133578,-0.9399009,-2.438899,1.761537
37,4.422215,194,102,494,498,-1.17379,0.3311593,2.437825,-1.329554,-2.895083,-1.254588,-1.413923,-0.6856754,-0.9212698,-0.9225723,-2.445868,1.780376
38,4.433327,194,102,494,498,-1.116875,0.5372475,2.475581,-1.319294,-2.898653,-1.223526,-1.480635,-0.7623612,-0.9967995,-0.9042188,-2.450691,1.799235
39,4.444438,194,102,494,498,-1.050714,0.7275934,2.506274,-1.310031,-2.903279,-1.191589,-1.518698,-0.8103946,-1.004567,-0.8861881,-2.45475,1.816668
40,4.455549,194,102,494,498,-1.006796,0.8705998,2.519219,-1.300513,-2.907397,-1.159537,-1.569747,-0.8270742,-0.9603525,-0.8678326,-2.456144,1.831514
41,4.46666,219,90,497,503,-0.9117529,1.05955,2.555278,-1.292915,-2.914417,-1.124949,-1.612908,-0.8458084,-0.9125519,-0.8492948,-2.457475,1.846379
42,4.477772,219,90,497,503,-0.8572698,1.189853,2.518029,-1.284595,-2.920793,-1.092633,-1.625133,-0.8934667,-0.8980821,-0.8309041,-2.461169,1.863127
43,4.488883,219,90,497,503,-0.7646122,1.331514,2.4479,-1.277878,-2.929538,-1.060477,-1.635445,-0.9727133,-0.8994771,-0.8115483,-2.466623,1.881735
44,4.499994,219,90,497,503,-0.6666536,1.444261,2.366704,-1.272223,-2.938426,-1.028927,-1.635319,-1.098531,-0.8978176,-0.7907932,-2.475297,1.902288
45,4.511106,219,90,497,503,-0.5950367,1.517258,2.293236,-1.266702,-2.946694,-0.9976686,-1.609146,-1.193285,-0.8728498,-0.7708126,-2.483867,1.921976
46,4.522217,388,107,457,496,-0.5349953,1.560133,2.226741,-1.261968,-2.954376,-0.9671525,-1.56886,-1.261206,-0.856058,-0.7517587,-2.493234,1.942406
47,4.533328,388,107,457,496,-0.4839652,1.612699,2.166587,-1.257474,-2.962471,-0.9359578,-1.547666,-1.341408,-0.8546821,-0.732022,-2.503853,1.964725
48,4.544439,388,107,457,496,-0.4085286,1.670322,2.089403,-1.254103,-2.971529,-0.90556,-1.528547,-1.398396,-0.8269423,-0.7124419,-2.51456,1.98689
49,4.555551,388,107,457,496,-0.3447495,1.729744,2.024476,-1.251173,-2.980912,-0.8747872,-1.491113,-1.443188,-0.7873051,-0.693339,-2.525787,2.008749
50,4.566662,424,105,492,497,-0.2637661,1.791748,1.994555,-1.249736,-2.99042,-0.8431233,-1.48584,-1.495782,-0.7244722,-0.6730698,-2.53681,2.030444
51,4.577773,424,105,492,497,-0.2208815,1.863827,2.013243,-1.248222,-2.999028,-0.8090124,-1.472566,-1.493438,-0.6465834,-0.6539142,-2.545971,2.050345
52,4.588884,424,105,492,497,-0.1778002,1.900766,1.964016,-1.247122,-3.007464,-0.7771541,-1.465155,-1.456292,-0.5639725,-0.6357636,-2.55371,2.068825
53,4.599996,424,105,492,497,-0.1024983,1.876626,1.855674,-1.247637,-3.015359,-0.7491733,-1.425398,-1.437244,-0.5047383,-0.6183493,-2.562581,2.087861
54,4.611107,424,105,492,497,-0.000282526,1.844717,1.739954,-1.249767,-3.023555,-0.7222391,-1.391411,-1.461471,-0.4487321,-0.6000144,-2.573894,2.108714
55,4.622218,443,98,486,498,0.05803323,1.844847,1.656693,-1.251375,-3.031912,-0.6945173,-1.347789,-1.500269,-0.3847235,-0.5814037,-2.585832,2.129249
56,4.633329,443,98,486,498,0.1183195,1.849133,1.567481,-1.253689,-3.040468,-0.6676742,-1.302198,-1.517331,-0.3404154,-0.5639095,-2.598768,2.150934
57,4.644441,443,98,486,498,0.1668341,1.865738,1.516701,-1.256462,-3.048549,-0.6399166,-1.253093,-1.556962,-0.3167762,-0.5461462,-2.614156,2.174875
58,4.655552,443,98,486,498,0.1794829,1.879683,1.470129,-1.258616,-3.055995,-0.6122437,-1.213377,-1.599756,-0.3530778,-0.5293198,-2.633789,2.204465
59,4.666663,443,98,486,498,0.1750307,1.846438,1.407593,-1.260568,-3.062038,-0.587072,-1.198962,-1.694387,-0.3925501,-0.5116928,-2.657915,2.23927
60,4.677774,472,99,514,496,0.1748117,1.796194,1.34069,-1.262898,-3.067599,-0.5630791,-1.159064,-1.724679,-0.3563297,-0.4945288,-2.679868,2.270186
61,4.688886,472,99,514,496,0.1635067,1.773188,1.281517,-1.264727,-3.072959,-0.5390542,-1.105145,-1.754945,-0.2925619,-0.4772837,-2.70295,2.301171
62,4.699997,472,99,514,496,0.133999,1.745998,1.219592,-1.265766,-3.077822,-0.5159523,-1.003663,-1.762008,-0.184766,-0.4601074,-2.726316,2.32933
63,4.711108,472,99,514,496,0.08282018,1.735938,1.168786,-1.265802,-3.082275,-0.4927391,-0.9448698,-1.719036,-0.1335355,-0.4450419,-2.748879,2.358763
64,4.722219,440,123,473,497,0.0123446,1.734241,1.129659,-1.265055,-3.086383,-0.4689411,-0.8999887,-1.72318,-0.1102571,-0.4299588,-2.775563,2.392435
65,4.733331,440,123,473,497,-0.0315007,1.72903,1.083889,-1.264448,-3.090245,-0.4458904,-0.8577082,-1.742869,-0.1116441,-0.415377,-2.807074,2.431235
66,4.744442,440,123,473,497,-0.09574413,1.685407,1.018578,-1.262394,-3.093273,-0.4249606,-0.8256127,-1.692818,-0.08017236,-0.4022002,-2.833972,2.465308
67,4.755553,440,123,473,497,-0.09937584,1.690634,0.9708366,-1.262049,-3.097362,-0.4029155,-0.7770565,-1.680605,-0.03793895,-0.3887549,-2.863879,2.501377
68,4.766665,440,123,473,497,-0.1478566,1.701983,0.9219636,-1.259775,-3.101064,-0.3810579,-0.7219558,-1.703154,-0.01522261,-0.3757624,-2.899788,2.543161
69,4.777776,440,123,473,497,-0.2186404,1.739849,0.8921549,-1.256578,-3.104546,-0.3574687,-0.6950269,-1.704238,0.003415346,-0.363562,-2.936501,2.586583
70,4.788887,440,123,473,497,-0.260335,1.735962,0.853954,-1.253481,-3.107427,-0.3355817,-0.670719,-1.695348,0.04276484,-0.3513833,-2.973323,2.629865
71,4.799998,440,123,473,497,-0.2919703,1.683497,0.7830346,-1.250205,-3.110208,-0.3162573,-0.6094013,-1.629399,0.1154084,-0.3401208,-3.006476,2.66718
72,4.81111,440,123,473,497,-0.2724515,1.619573,0.7127243,-1.248518,-3.113357,-0.2978618,-0.5551094,-1.56766,0.2176635,-0.3279869,-3.039562,2.703588
73,4.822221,776,296,460,497,-0.2403338,1.579471,0.647384,-1.246838,-3.117179,-0.2794721,-0.512687,-1.550905,0.2944848,-0.3156544,-3.077395,2.745066
74,4.833332,776,296,460,497,-0.2244297,1.566542,0.6161705,-1.245485,-3.120383,-0.260406,-0.4577579,-1.49472,0.2737933,-0.3072888,-3.117635,2.789459
75,4.844443,776,296,460,497,-0.2318336,1.549071,0.5757706,-1.243349,-3.123534,-0.242003,-0.4558085,-1.512613,0.3345938,-0.2961568,3.121182,2.838499
76,4.855555,776,296,460,497,-0.2473096,1.549369,0.5385212,-1.240694,-3.126636,-0.2230983,-0.4508076,-1.482314,0.3699465,-0.2862099,3.078525,2.88628
77,4.866666,776,296,460,497,-0.2280093,1.536931,0.5082458,-1.239231,-3.129847,-0.2048477,-0.3892841,-1.427895,0.421073,-0.2768106,3.036083,2.931304
78,4.877777,766,283,490,506,-0.19524,1.539439,0.4796654,-1.238536,-3.133518,-0.1863478,-0.3193061,-1.383039,0.5041398,-0.2667406,2.991187,2.97755
79,4.888888,766,283,490,506,-0.1293489,1.507461,0.4522004,-1.239488,-3.137059,-0.1691107,-0.27588,-1.347722,0.4740377,-0.2601418,2.942957,3.028419
80,4.9,766,283,490,506,-0.04873967,1.439902,0.4280703,-1.241501,-3.140127,-0.1536143,-0.2603447,-1.294085,0.4079086,-0.2560582,2.89657,3.078618
81,4.911111,766,283,490,506,0.01231384,1.403109,0.4101448,-1.243967,3.139971,-0.1379294,-0.2566635,-1.23326,0.3148574,-0.2538525,2.85406,3.125707
82,4.922222,751,298,474,507,0.0900228,1.31712,0.3966423,-1.247566,3.137658,-0.1246082,-0.2487952,-1.217099,0.2923013,-0.2509561,2.806045,-3.105382
83,4.933333,751,298,474,507,0.1147829,1.269442,0.3834524,-1.250015,3.135237,-0.1103662,-0.2138355,-1.199173,0.3069925,-0.2474705,2.756128,-3.052685
84,4.944445,751,298,474,507,0.1440102,1.159791,0.384824,-1.253393,3.134622,-0.09943657,-0.1552273,-1.112366,0.2682063,-0.2465874,2.716647,-3.011721
85,4.955556,751,298,474,507,0.1610163,1.110205,0.3699972,-1.256292,3.132615,-0.08741134,-0.1395941,-1.07922,0.2626721,-0.2453528,2.672729,-2.965047
86,4.966667,751,298,474,507,0.1735099,1.037092,0.3478045,-1.259227,3.131491,-0.07716456,-0.1135715,-1.050982,0.2479943,-0.2451301,2.629631,-2.919679
87,4.977778,753,295,522,496,0.2282774,0.9858791,0.3187744,-1.263542,3.1292,-0.0665279,-0.07548511,-1.002388,0.267192,-0.2440286,2.587795,-2.876499
88,4.98889,753,295,522,496,0.2853059,0.955066,0.2986605,-1.268661,3.127155,-0.05615222,-0.03641611,-0.9790864,0.2469797,-0.2449288,2.545798,-2.833318
89,5.000001,753,295,522,496,0.3618477,0.9295405,0.2764038,-1.274999,3.124475,-0.04629746,-0.03396279,-1.016909,0.2119722,-0.2476468,2.499641,-2.784217
90,5.011112,753,295,522,496,0.3990451,0.9261717,0.2734454,-1.281009,3.122653,-0.03563416,-0.0277983,-0.9874337,0.1972265,-0.2495499,2.460827,-2.743091
91,5.022223,753,295,522,496,0.3881575,0.9063958,0.2855469,-1.285658,3.121656,-0.02585929,-0.01445061,-0.8866692,0.1292797,-0.2527116,2.436371,-2.71697
91,5.033335,762,285,453,508,0.363629,0.8723541,0.2774008,-1.289594,3.121089,-0.01671613,-0.01051027,-0.7717052,-0.01360819,-0.2583005,2.425895,-2.704352
91,5.044446,762,285,453,508,0.341927,0.7846402,0.2527846,-1.292981,3.120092,-0.01071816,0.06365401,-0.7723705,-0.280956,-0.2720264,2.419252,-2.695757
91,5.055557,762,285,453,508,0.3501983,0.6983432,0.2280877,-1.297405,3.1195,-0.004985438,0.06839031,-0.7800227,-0.04516777,-0.2706091,2.374838,-2.651081
91,5.066669,762,285,453,508,0.3328452,0.6446302,0.2153218,-1.301136,3.119164,0.0009321064,0.06860012,-0.5929457,-0.1115092,-0.2738337,2.375584,-2.651594
91,5.07778,777,304,536,504,0.2961399,0.6239161,0.2070244,-1.303988,3.119269,0.00756604,0.04860127,-0.5597873,-0.1308977,-0.27814,2.365088,-2.63917
91,5.088891,777,304,536,504,0.2346736,0.5724458,0.2048835,-1.305458,3.120016,0.0126074,0.003923357,-0.4814584,-0.09187116,-0.2795509,2.35483,-2.626929
91,5.100002,777,304,536,504,0.2046328,0.5032911,0.1864399,-1.307501,3.120404,0.01654729,-0.0113492,-0.4512853,-0.06888177,-0.2815819,2.343267,-2.613761
91,5.111114,777,304,536,504,0.2071187,0.4521195,0.1626296,-1.310259,3.120111,0.02041153,-0.01186344,-0.4499098,0.01959736,-0.2821337,2.323887,-2.593447
91,5.122225,777,304,536,504,0.20092,0.4438811,0.1445433,-1.31259,3.119645,0.02532133,0.01254967,-0.4047537,0.1078204,-0.2811664,2.306441,-2.576353
91,5.133336,882,311,530,505,0.1611056,0.450176,0.1191257,-1.313259,3.118939,0.03098002,0.03364444,-0.3768213,0.1102882,-0.2824501,2.293684,-2.563522
91,5.144447,882,311,530,505,0.1003646,0.4443428,0.08629093,-1.312764,3.118079,0.03591219,0.03047416,-0.3719331,0.0866787,-0.2843058,2.28174,-2.550736
91,5.155559,882,311,530,505,0.04816693,0.4037983,0.04901165,-1.312129,3.117429,0.03922517,0.0330835,-0.3605349,0.05482341,-0.2867463,2.271943,-2.540259
91,5.16667,882,311,530,505,0.005572766,0.3533722,0.0249747,-1.311061,3.116785,0.04191815,0.04438859,-0.3117782,0.03948288,-0.2881274,2.265414,-2.533853
91,5.177781,887,282,479,508,-0.0231545,0.3384253,0.01282937,-1.309838,3.116103,0.04599705,0.07662877,-0.2430784,-0.007009599,-0.2899133,2.263992,-2.533637
91,5.188892,887,282,479,508,-0.06102863,0.3104924,0.002097957,-1.308087,3.115711,0.04876674,0.08701758,-0.2095076,-0.02318212,-0.2915879,2.260705,-2.53101
91,5.200004,887,282,479,508,-0.08896717,0.2648632,0.006445173,-1.306548,3.116146,0.05057982,0.07823786,-0.1612855,-0.02737361,-0.2923288,2.259601,-2.530301
91,5.211115,887,282,479,508,-0.09917204,0.1992939,0.01872793,-1.305085,3.116724,0.0516323,0.07346737,-0.1276584,-0.03298822,-0.2931294,2.257913,-2.528862
91,5.222226,887,282,479,508,-0.08805479,0.1426491,0.02741497,-1.304557,3.117404,0.05173403,0.05963531,-0.08973099,-0.03725427,-0.2936295,2.258741,-2.529898
91,5.233337,907,281,480,501,-0.07614135,0.1148453,0.02910105,-1.304035,3.117587,0.05295003,0.06182462,-0.0969618,-0.01980927,-0.2942463,2.254185,-2.525669
91,5.244449,907,281,480,501,-0.04841451,0.08386045,0.02045926,-1.304253,3.117511,0.05299637,0.05466446,-0.1141003,0.09425054,-0.292095,2.240259,-2.512346
91,5.25556,907,281,480,501,-0.03708825,0.07240243,0.0167901,-1.303969,3.117661,0.05373407,0.04194637,-0.1039674,0.12395,-0.291091,2.233427,-2.505739
91,5.266671,907,281,480,501,-0.02882817,0.0484473,0.01962595,-1.303903,3.118086,0.05371276,0.03295416,-0.06630263,0.1413268,-0.2893721,2.229342,-2.502143
91,5.277782,907,281,480,501,-0.007085767,0.02516093,0.01893785,-1.30439,3.118377,0.05331329,0.01068254,-0.03757827,0.08031813,-0.2898148,2.232436,-2.504781
91,5.288894,858,343,451,513,0.009046233,0.008759283,0.01457395,-1.304889,3.118401,0.05304378,-0.006456114,-0.04010904,0.004554407,-0.291467,2.235538,-2.507127
91,5.300005,858,343,451,513,0.04703983,-0.01059511,0.02220364,-1.305805,3.118098,0.05326269,-0.01041925,-0.03945499,-0.01387663,-0.2921498,2.236125,-2.507298
91,5.311116,858,343,451,513,0.08188748,-0.02284041,0.03605901,-1.307751,3.11856,0.05267093,0.005699645,-0.0100369,0.01186428,-0.2911069,2.235105,-2.507214
91,5.322227,858,343,451,513,0.09663161,-0.01992502,0.05969064,-1.308485,3.119032,0.05344165,0.03110728,0.0324585,-0.00378334,-0.2908673,2.238838,-2.512274
91,5.333339,892,314,481,494,0.1004674,-0.02372255,0.06899927,-1.309864,3.119799,0.05304964,0.03170057,0.05651288,-0.01296172,-0.2906105,2.242627,-2.516714
91,5.34445,892,314,481,494,0.1315528,-0.05898934,0.08168502,-1.312173,3.120816,0.05137238,0.01273898,0.06885356,-0.05837359,-0.2913024,2.249804,-2.523662
91,5.355561,892,314,481,494,0.1678451,-0.08619067,0.08830024,-1.315211,3.121591,0.04946342,-0.00607501,0.06093705,-0.07443956,-0.291941,2.253885,-2.527156
91,5.366673,892,314,481,494,0.2397732,-0.08545558,0.09373638,-1.319146,3.121274,0.04936276,-0.02287237,0.0506587,-0.04863006,-0.291483,2.255091,-2.527782
91,5.377784,892,314,481,494,0.2545938,-0.06648548,0.09585992,-1.322282,3.121988,0.04889138,-0.008875888,0.05496622,0.01959958,-0.289573,2.251817,-2.525313
91,5.388895,893,326,479,491,0.2467581,-0.04708856,0.09937324,-1.324871,3.122638,0.04883065,0.005858317,0.07423347,0.02438472,-0.2887154,2.253921,-2.528311
91,5.400006,893,326,479,491,0.226693,-0.04787944,0.08477674,-1.326898,3.122963,0.04820428,-0.001838878,0.08301927,-0.006317483,-0.2887005,2.259014,-2.533406
91,5.411118,893,326,479,491,0.2121771,-0.06180202,0.07806861,-1.328971,3.123421,0.04709161,-0.007477991,0.08290818,-0.02596039,-0.2888875,2.263687,-2.538076
91,5.422229,893,326,479,491,0.1834059,-0.08236358,0.0670887,-1.330372,3.124084,0.04534884,-0.00341551,0.08539072,-0.03211718,-0.2887655,2.267327,-2.541991
91,5.43334,885,351,468,500,0.1576739,-0.08091892,0.05635735,-1.331521,3.12439,0.04451634,-0.008444026,0.07931253,-0.02055431,-0.2881151,2.268988,-2.543605
91,5.444451,885,351,468,500,0.1096913,-0.07322372,0.03405913,-1.331593,3.124645,0.04356612,-0.0001431406,0.07914325,0.01539022,-0.2867479,2.268505,-2.543748
91,5.455563,885,351,468,500,0.0478556,-0.06268977,0.009720187,-1.330587,3.124531,0.04293761,-0.002156809,0.07997598,0.02486387,-0.285657,2.270106,-2.545643
91,5.466674,885,351,468,500,0.01032582,-0.06382651,-0.002367374,-1.329671,3.124677,0.0421605,-0.00585264,0.05955172,0.01873793,-0.2854568,2.270186,-2.545645
91,5.477785,885,351,468,500,-0.03248811,-0.0760793,-0.01503339,-1.328287,3.124999,0.04079856,-0.01445941,0.06635809,0.01896284,-0.2847122,2.27261,-2.547975
91,5.488896,840,278,476,501,-0.05419878,-0.06721123,-0.02847082,-1.327072,3.124666,0.04034156,-0.01839478,0.06718425,0.02185636,-0.2838892,2.274078,-2.54938
91,5.500008,840,278,476,501,-0.05270508,-0.05980154,-0.03780221,-1.326523,3.124488,0.0396843,-0.01395649,0.0734724,0.03916111,-0.2826141,2.274747,-2.55042
91,5.511119,840,278,476,501,-0.03674662,-0.05779045,-0.03172023,-1.32648,3.124449,0.03907124,-0.003768571,0.07090028,0.04218349,-0.2818338,2.275706,-2.551954
91,5.52223,840,278,476,501,-0.01262273,-0.04839524,-0.02731236,-1.326995,3.124506,0.03851464,0.006889984,0.05596378,0.02738907,-0.2819776,2.276116,-2.552802
91,5.533341,852,279,486,495,0.002639867,-0.04475839,-0.01881157,-1.327456,3.124464,0.0381125,0.004526272,0.04726144,0.01354758,-0.2819127,2.278058,-2.554839
91,5.544453,852,279,486,495,0.0362909,-0.03995638,-0.004917851,-1.328906,3.124694,0.03763153,0.02101148,0.04124703,0.0118247,-0.2819137,2.277992,-2.555528
91,5.555564,852,279,486,495,0.07870043,-0.03361408,0.009309867,-1.331081,3.124956,0.03726295,0.02095029,0.0535411,0.006190243,-0.2814732,2.280439,-2.558429
91,5.566675,852,279,486,495,0.1000203,-0.02490415,0.01582205,-1.332803,3.124912,0.03721927,0.00817363,0.06541803,0.003806612,-0.2808559,2.283669,-2.561681
91,5.577786,852,279,486,495,0.1130278,-0.01417461,0.0204074,-1.334481,3.124877,0.03726348,0.003503978,0.06418727,-0.004014714,-0.2806764,2.286443,-2.564495
91,5.588898,835,301,438,495,0.1139224,-0.004159063,0.02490502,-1.335867,3.124888,0.0374792,0.008275781,0.0574093,-0.01520112,-0.2809688,2.288621,-2.566984
91,5.600009,835,301,438,495,0.1027339,-0.002807508,0.02542174,-1.33688,3.12518,0.03727733,0.004295893,0.03793805,-0.02467082,-0.2814413,2.289608,-2.56782
91,5.61112,835,301,438,495,0.09318327,-0.01625982,0.02438936,-1.337688,3.125341,0.03670741,0.002654186,0.00982967,-0.001647606,-0.2812506,2.286761,-2.564954
91,5.622231,835,301,438,495,0.07926364,-0.01952262,0.03112697,-1.338398,3.125951,0.03614975,-0.00750101,0.009012299,0.01570716,-0.2805976,2.285898,-2.563866
91,5.633343,835,301,438,495,0.05029174,-0.005961451,0.01950951,-1.338335,3.126093,0.03636387,-0.02111435,0.002445102,0.01795357,-0.2803068,2.286065,-2.563508
91,5.644454,687,246,471,503,0.0249407,0.001780208,0.0109904,-1.337936,3.126033,0.03658757,-0.02579441,-0.000502171,0.01978956,-0.2800095,2.285621,-2.562666
91,5.655565,687,246,471,503,-0.01453678,0.003336473,0.001860577,-1.336887,3.126281,0.03649383,-0.01333635,0.003290454,0.01751128,-0.2798823,2.285679,-2.56302
91,5.666677,687,246,471,503,-0.02706913,0.008255323,-0.004998486,-1.336234,3.126158,0.03667759,-0.01562588,-0.001417376,0.01209759,-0.2799158,2.285508,-2.562585
91,5.677788,687,246,471,503,-0.0156749,0.01168275,-0.002319446,-1.336519,3.126199,0.03681074,-0.01279336,-0.004016859,-0.01221645,-0.2807478,2.287233,-2.564218
91,5.688899,646,280,456,494,0.01658169,0.01987887,0.00468974,-1.337717,3.126069,0.03728159,-0.01492087,0.008407647,-0.02128864,-0.2808698,2.2902,-2.567076
91,5.70001,646,280,456,494,0.03874769,0.01858627,0.01257541,-1.338886,3.126294,0.03731994,-0.00412125,0.01061434,-0.03862142,-0.2815494,2.292392,-2.569423
91,5.711122,646,280,456,494,0.06044357,0.01940625,0.02631631,-1.340394,3.126744,0.03746855,0.003376825,-0.003878292,-0.04296662,-0.2823153,2.292403,-2.569564
91,5.722233,646,280,456,494,0.08548569,0.01796199,0.03588092,-1.342077,3.126988,0.03759691,0.007098574,-0.02350654,-0.03038556,-0.2828069,2.290159,-2.567292
91,5.733344,646,280,456,494,0.1124423,0.02153667,0.04232788,-1.344241,3.127048,0.03783447,-0.00434419,-0.03124903,-0.004419627,-0.2825129,2.288097,-2.564937
91,5.744455,659,275,478,493,0.1433732,0.03189372,0.05435565,-1.346849,3.127317,0.03845658,-0.009617131,-0.04060893,0.01036701,-0.2824112,2.285314,-2.561807
91,5.755567,659,275,478,493,0.1369223,0.038153,0.05367566,-1.348351,3.127601,0.03890186,-0.009666083,-0.02915503,0.009000828,-0.2821928,2.28586,-2.562163
91,5.766678,659,275,478,493,0.1161861,0.04554752,0.0485306,-1.349149,3.12771,0.03961932,-0.007753524,-0.02503585,0.006917255,-0.2822519,2.285447,-2.561668
91,5.777789,659,275,478,493,0.0675349,0.04830217,0.03652606,-1.348623,3.127824,0.04017645,0.003215916,-0.01645356,-0.002030889,-0.2827782,2.286127,-2.562751
91,5.7889,729,250,495,497,0.01486508,0.03992814,0.00667333,-1.347565,3.127377,0.04038151,-0.0002992693,-0.02392339,-0.006402169,-0.2829843,2.285817,-2.56204
91,5.800012,729,250,495,497,-0.004980803,0.03236488,-0.005585501,-1.346914,3.127159,0.04050082,-0.008615371,-0.03033268,0.001637045,-0.2829816,2.284306,-2.560135
91,5.811123,729,250,495,497,-0.01509412,0.02913782,-0.008875879,-1.346702,3.127122,0.0406915,-0.01770843,-0.02348212,0.02425249,-0.2821944,2.282546,-2.558003
91,5.822234,729,250,495,497,-0.01644856,0.03357889,-0.003900154,-1.346505,3.127162,0.0411746,-0.02076393,-0.02879046,0.033789,-0.2818445,2.280186,-2.555313
91,5.833345,729,250,495,497,-0.01381767,0.03836521,-0.005653294,-1.346426,3.127014,0.04162468,-0.01799163,-0.01681317,0.02192335,-0.2819382,2.281251,-2.556234
91,5.844457,640,210,475,495,-0.006193608,0.04451542,-0.001357275,-1.34659,3.126953,0.04229206,-0.01598078,-0.01187681,0.01340207,-0.2819654,2.281639,-2.556485
91,5.855568,640,210,475,495,0.007184669,0.04644142,-0.001967333,-1.347058,3.126719,0.04278901,0.005102106,-0.0124594,0.01297687,-0.2821182,2.280472,-2.555859
91,5.866679,640,210,475,495,0.03446778,0.04266014,0.003320498,-1.348163,3.126586,0.043148,0.01930102,-0.01430468,0.01950018,-0.282073,2.278883,-2.554904
91,5.87779,640,210,475,495,0.04926844,0.04266992,0.001546257,-1.349173,3.126353,0.04350327,0.02060983,-0.03511808,0.009454741,-0.2827755,2.276426,-2.552425
91,5.888902,566,218,503,494,0.05745485,0.03758306,0.008248163,-1.350139,3.126352,0.0437829,0.008265063,-0.04711525,0.009869069,-0.2829795,2.274005,-2.549383
91,5.900013,566,218,503,494,0.04690178,0.04093175,0.01055937,-1.35048,3.126388,0.04429583,0.005843345,-0.04364619,0.007451774,-0.2831878,2.272905,-2.548177
91,5.911124,566,218,503,494,0.02174482,0.04367547,0.005603033,-1.350095,3.126395,0.04477093,0.01631201,-0.03331683,0.01119883,-0.283069,2.271628,-2.547351
91,5.922235,566,218,503,494,0.01180303,0.0452823,-0.00680431,-1.349893,3.12595,0.0453531,0.01927024,-0.01993379,0.02174852,-0.2826924,2.270537,-2.546635
91,5.933347,566,218,503,494,0.008715279,0.04704221,-0.01179662,-1.349992,3.125571,0.04584685,0.02051154,-0.01559168,0.02812794,-0.282425,2.269042,-2.54535
91,5.944458,551,246,507,498,0.007311016,0.04709379,-0.01890018,-1.349957,3.125053,0.04641144,0.02387018,-0.01777403,0.02629611,-0.2824698,2.267459,-2.544081
91,5.955569,551,246,507,498,0.003810994,0.04637385,-0.02222904,-1.349952,3.124581,0.04688016,0.03448329,-0.0163776,0.01424278,-0.2829161,2.267133,-2.544174
91,5.966681,551,246,507,498,0.004055973,0.04401546,-0.01479417,-1.350151,3.124464,0.04732331,0.03399603,-0.00955724,-0.004126232,-0.28333,2.268312,-2.545552
91,5.977792,551,246,507,498,0.01609665,0.03953608,-0.01020371,-1.350649,3.12438,0.04759069,0.03130869,-0.01001888,-0.01286202,-0.2837651,2.268518,-2.545938
91,5.988903,551,246,507,498,0.02516481,0.03836716,-0.006939367,-1.351311,3.124098,0.04802159,0.01823412,-0.0111333,-0.01810907,-0.2839793,2.268487,-2.545608
91,6.000014,513,279,510,493,0.03534316,0.04043996,-0.01620308,-1.351932,3.123565,0.04845675,0.01267141,-0.009773718,0.004930088,-0.2835137,2.266873,-2.544058
91,6.011126,513,279,510,493,0.0356793,0.03955219,-0.01741907,-1.352342,3.123249,0.04882213,0.01680143,-0.001827462,0.03279994,-0.2826487,2.264695,-2.542398
91,6.022237,513,279,510,493,0.02784169,0.03213059,-0.02084971,-1.352385,3.122881,0.04900429,0.02043231,-0.0147532,0.04301836,-0.282376,2.261461,-2.539457
91,6.033348,513,279,510,493,0.02136051,0.02749958,-0.02116412,-1.352574,3.122855,0.04910869,0.02295454,-0.03038405,0.03400373,-0.2828575,2.259093,-2.537177
