ref,t,emg1,emg2,emg1raw,emg2raw,aDotS,bDotS,gDotS,aS,bS,gS,aDotSH,bDotSH,gDotSH,aSH,bSH,gSH
0,0,123,122,500,499,0.009767499,0.01295339,0.005155545,-1.518142,-3.069388,-1.647408,0.007813087,-0.02432974,-0.008161921,-1.112257,-2.501391,1.653457
0,0.01111111,117,109,501,498,0.01076353,0.0152403,0.004390909,-1.518203,-3.069636,-1.647339,2.09799E-05,-0.02146621,0.001429317,-1.111945,-2.501313,1.653206
0,0.02222222,117,109,501,498,0.01718055,0.01395608,0.007435984,-1.518573,-3.069775,-1.647191,0.00169871,-0.01798176,0.004589517,-1.111965,-2.501431,1.65308
0,0.03333334,117,109,501,498,0.01836376,0.01004846,0.004759749,-1.518662,-3.069695,-1.647243,0.003492398,-0.02311572,0.003550909,-1.111873,-2.501816,1.653075
0,0.04444445,117,109,501,498,0.01542929,0.001653246,0.002556022,-1.518763,-3.069473,-1.647259,0.009709938,-0.02313756,0.005648864,-1.112012,-2.502132,1.652966
0,0.05555556,117,109,501,498,0.01044914,-0.009978808,-7.344369E-05,-1.518579,-3.069072,-1.647182,0.006018038,-0.01905993,0.0009651203,-1.111902,-2.502306,1.653187
0,0.06666667,108,116,501,497,0.008346766,-0.01109367,-0.0002239557,-1.51857,-3.068993,-1.647174,0.006250012,-0.009023272,-0.0001774275,-1.112046,-2.502205,1.653243
0,0.07777778,108,116,501,497,0.007424073,-0.01548711,0.0002572577,-1.518771,-3.068712,-1.647223,-0.002733008,0.006138533,-0.0009835868,-1.112039,-2.501486,1.653196
0,0.08888889,108,116,501,497,0.006386023,-0.01615126,-0.0030598,-1.518718,-3.068457,-1.647339,-0.001490386,0.01240174,-0.001378482,-1.112212,-2.501225,1.653312
0,0.1,108,116,501,497,0.007316011,-0.01218182,-0.000373826,-1.518766,-3.06844,-1.647279,-0.001469568,0.008238416,0.001769462,-1.112191,-2.501196,1.653203
0,0.1111111,101,113,499,495,0.007183064,-0.007386488,-0.004026427,-1.518778,-3.068559,-1.647368,0.001789007,0.006933307,0.002908111,-1.112286,-2.501251,1.653171
0,0.1222222,101,113,499,495,0.005126132,-0.01012924,-9.831775E-05,-1.518887,-3.068365,-1.647292,0.0006865151,0.000356149,-0.001459582,-1.112194,-2.501474,1.653349
0,0.1333333,101,113,499,495,0.001804394,-0.006149495,0.001510676,-1.518875,-3.068374,-1.647256,0.001835141,-0.003745048,-0.005449741,-1.112123,-2.501711,1.653592
0,0.1444445,101,113,499,495,0.002803909,-0.00400616,0.001798639,-1.518931,-3.068397,-1.647242,-0.0006217482,-0.007956965,-0.005241646,-1.111937,-2.501796,1.653668
0,0.1555556,101,113,499,495,0.0004407035,0.003741541,-0.0003878017,-1.518785,-3.068627,-1.647321,-0.002892026,-0.006274307,-0.008766497,-1.111845,-2.501863,1.653876
0,0.1666667,100,116,500,497,0.002400149,0.008800277,0.002441726,-1.51875,-3.068875,-1.64724,-0.003222634,-0.009909516,-0.009964485,-1.111703,-2.502106,1.654058
0,0.1777778,100,116,500,497,8.332822E-05,0.01436041,0.008555003,-1.518771,-3.069219,-1.647052,-0.01896565,-0.01260245,-0.009779449,-1.111076,-2.502114,1.6542
0,0.1888889,100,116,500,497,1.850445E-05,0.01590713,0.01306215,-1.518676,-3.069443,-1.64679,-0.01515788,-0.01075137,-0.0145681,-1.111001,-2.502301,1.654563
0,0.2,100,116,500,497,-0.00538647,0.01821274,0.01873366,-1.518629,-3.069721,-1.646569,-0.007843593,-0.01469751,-0.0140836,-1.110984,-2.502644,1.654749
0,0.2111111,104,113,500,497,-0.003227776,0.01708552,0.01965625,-1.518529,-3.069945,-1.64634,-0.0001650266,-0.01931212,-0.01736124,-1.111027,-2.503246,1.655121
0,0.2222222,104,113,500,497,-0.009729264,0.0208446,0.02230597,-1.518221,-3.070316,-1.64604,0.00296298,-0.02042803,-0.01957829,-1.111018,-2.503684,1.655522
0,0.2333333,104,113,500,497,-0.00871937,0.02299166,0.0225935,-1.51806,-3.07064,-1.645747,0.0005423632,-0.02479881,-0.02746947,-1.110839,-2.50422,1.65611
0,0.2444444,104,113,500,497,-0.01195842,0.02376744,0.03235912,-1.517768,-3.071019,-1.645151,0.002841907,-0.02662917,-0.03204609,-1.110747,-2.504816,1.656705
0,0.2555556,104,113,500,497,-0.008699019,0.02203196,0.02997544,-1.517715,-3.071227,-1.644899,-0.004313894,-0.02926423,-0.03828991,-1.110368,-2.505348,1.657426
0,0.2666667,105,110,500,496,-0.00546618,0.02080166,0.03195636,-1.517684,-3.071531,-1.644427,-0.007902957,-0.02939779,-0.03409132,-1.110059,-2.505708,1.657746
0,0.2777778,105,110,500,496,-0.002231395,0.01984256,0.03181544,-1.51784,-3.07175,-1.644182,-0.01466348,-0.02427801,-0.03083326,-1.109668,-2.505837,1.658081
0,0.2888889,105,110,500,496,-0.002143133,0.01668354,0.03139121,-1.517756,-3.071869,-1.643892,-0.02240931,-0.01970453,-0.0332936,-1.109262,-2.5059,1.658557
0,0.3,105,110,500,496,0.002176614,0.01455974,0.0321774,-1.517911,-3.072039,-1.643521,-0.02408024,-0.02099486,-0.02991256,-1.108885,-2.506117,1.658853
0,0.3111111,105,110,500,496,0.0002474394,0.007123651,0.03119375,-1.5179,-3.071962,-1.643263,-0.02124166,-0.02575048,-0.03331951,-1.108585,-2.506632,1.659395
0,0.3222222,109,109,500,498,-0.001770044,0.003128573,0.02851928,-1.517837,-3.071889,-1.643008,-0.009955943,-0.03210869,-0.0368269,-1.108552,-2.507431,1.660013
0,0.3333333,109,109,500,498,-0.003952824,0.005067822,0.02984759,-1.517604,-3.072094,-1.642262,-0.008918338,-0.02760719,-0.03662431,-1.108127,-2.508197,1.661096
0,0.3444445,109,109,500,498,-0.003952824,0.005067822,0.02984759,-1.517604,-3.072094,-1.642262,-0.008918338,-0.02760719,-0.03662431,-1.108127,-2.508197,1.661096
0,0.3555556,109,109,500,498,-0.001901027,0.008571078,0.02815401,-1.517583,-3.072301,-1.642008,-0.008055432,-0.01462174,-0.03463172,-1.108166,-2.508117,1.661424
0,0.3666667,110,122,500,496,0.001217192,0.01223384,0.02540606,-1.517616,-3.072547,-1.641794,-0.01410328,-0.008640654,-0.02664144,-1.107748,-2.507955,1.661593
0,0.3777778,110,122,500,496,0.0001320932,0.01299887,0.02764829,-1.517577,-3.072764,-1.641442,-0.01683151,-0.002012853,-0.02145298,-1.107592,-2.50769,1.66167
0,0.3888889,110,122,500,496,0.004340656,0.01576388,0.02370387,-1.517676,-3.073033,-1.641364,-0.01522659,-0.004718658,-0.02503598,-1.107464,-2.507872,1.662089
0,0.4,110,122,500,496,0.003230374,0.01785638,0.02396907,-1.517675,-3.073345,-1.64112,-0.008809958,-0.01122218,-0.02868186,-1.10743,-2.50836,1.662594
0,0.4111111,110,122,500,496,0.005363517,0.01790513,0.02396618,-1.517793,-3.073452,-1.640921,-0.009871773,-0.02182116,-0.0332284,-1.107136,-2.50895,1.663217
0,0.4222222,111,117,500,497,0.004327919,0.01696397,0.02276652,-1.517787,-3.073627,-1.640715,-0.008996986,-0.0333827,-0.03047822,-1.106822,-2.50962,1.663595
0,0.4333333,111,117,500,497,0.003369847,0.01230855,0.02538281,-1.517873,-3.073571,-1.640361,-0.008600958,-0.03804573,-0.02870463,-1.106509,-2.510221,1.663971
0,0.4444444,111,117,500,497,0.002377067,0.009252397,0.02391213,-1.51782,-3.073604,-1.640193,-0.01212395,-0.04442278,-0.02550852,-1.106065,-2.510727,1.664272
0,0.4555556,111,117,500,497,0.005484143,0.01329032,0.02656636,-1.518045,-3.073899,-1.639876,-0.01495743,-0.02967801,-0.02901569,-1.105901,-2.510714,1.664724
0,0.4666667,112,135,500,498,0.005463105,0.01421684,0.02775137,-1.518069,-3.074078,-1.639571,-0.01619745,-0.01123186,-0.02127353,-1.105934,-2.510316,1.664772
0,0.4777778,112,135,500,498,0.004427297,0.01340669,0.02549692,-1.518086,-3.074204,-1.639333,-0.01576643,-0.005865725,-0.02068359,-1.105545,-2.510268,1.665052
0,0.4888889,112,135,500,498,-0.0009077135,0.01409716,0.02772075,-1.517976,-3.074624,-1.638688,-0.01627788,-0.005039046,-0.02027864,-1.105143,-2.51043,1.665548
0,0.5,112,135,500,498,-0.0009077135,0.01409716,0.02772075,-1.517976,-3.074624,-1.638688,-0.01627788,-0.005039046,-0.02027864,-1.105143,-2.51043,1.665548
0,0.5111111,112,135,500,498,-0.001814615,0.006546957,0.02783708,-1.517887,-3.074479,-1.638387,-0.018571,-0.009645954,-0.03053397,-1.104808,-2.510712,1.666181
0,0.5222223,107,128,500,496,-0.002768753,0.001244108,0.02716614,-1.517815,-3.074399,-1.638111,-0.02229921,-0.01589081,-0.03642277,-1.104362,-2.511086,1.666818
0,0.5333334,107,128,500,496,-0.004854189,-0.001027854,0.02795162,-1.517665,-3.074429,-1.63746,-0.02475282,-0.02191157,-0.02986368,-1.103587,-2.51142,1.66744
0,0.5444446,107,128,500,496,-0.004854189,-0.001027854,0.02795162,-1.517665,-3.074429,-1.63746,-0.02475282,-0.02191157,-0.02986368,-1.103587,-2.51142,1.66744
0,0.5555557,107,128,500,496,-0.005918916,-0.001297524,0.03007125,-1.517575,-3.074502,-1.636968,-0.03220315,-0.01796182,-0.02798456,-1.103073,-2.511379,1.667732
0,0.5666668,106,136,501,495,-0.004875243,0.0001757352,0.02703147,-1.517506,-3.074533,-1.63681,-0.03887573,-0.01935366,-0.02809116,-1.102438,-2.511488,1.668097
0,0.577778,106,136,501,495,-0.01124529,-0.0009943121,0.02688224,-1.5172,-3.074515,-1.636515,-0.04477625,-0.01794902,-0.02741322,-1.101788,-2.511464,1.668431
0,0.5888891,106,136,501,495,-0.0132612,-0.007491693,0.0271525,-1.517034,-3.074268,-1.636071,-0.04558579,-0.01663214,-0.0256117,-1.101282,-2.511418,1.668659
0,0.6000003,106,136,501,495,-0.01526823,-0.01544217,0.03045748,-1.516868,-3.07385,-1.63563,-0.0474561,-0.01762906,-0.02320753,-1.100665,-2.51144,1.668908
0,0.6111114,102,134,500,500,-0.01612039,-0.02840256,0.02240617,-1.516479,-3.07292,-1.635201,-0.06055511,-0.002467856,-0.006939612,-1.099517,-2.510365,1.668728
0,0.6222225,102,134,500,500,-0.02031851,-0.03374908,0.02173479,-1.516117,-3.072361,-1.634931,-0.07080888,0.001779933,-0.006545819,-1.09865,-2.509796,1.668771
0,0.6333337,102,134,500,500,-0.02339255,-0.04369547,0.02371247,-1.515814,-3.071595,-1.634618,-0.08357932,-0.002106305,-0.009502888,-1.097505,-2.5093,1.669149
0,0.6444448,102,134,500,500,-0.02658703,-0.04597067,0.02449926,-1.515465,-3.071027,-1.634282,-0.08605942,-0.01810804,-0.005145464,-1.09632,-2.509396,1.669147
0,0.655556,102,134,500,500,-0.02763268,-0.04913298,0.0241104,-1.515206,-3.07052,-1.633942,-0.07787286,-0.03504125,-0.004766807,-1.095368,-2.509924,1.669327
0,0.6666671,102,132,501,497,-0.02983966,-0.04610102,0.02555763,-1.514841,-3.070113,-1.633587,-0.06885399,-0.06289516,0.007742267,-1.094234,-2.510889,1.668973
0,0.6777782,102,132,501,497,-0.04818411,-0.03121555,0.02521996,-1.513711,-3.07038,-1.633274,-0.06890815,-0.07268836,0.007839072,-1.09305,-2.511412,1.669025
0,0.6888894,102,132,501,497,-0.02273067,-0.01994933,0.02344636,-1.514295,-3.070482,-1.633113,-0.08001882,-0.07695933,0.01014302,-1.091529,-2.51168,1.668921
0,0.7000005,102,132,501,497,-0.02167917,-0.02018219,0.02556889,-1.514082,-3.070266,-1.632732,-0.08340283,-0.08147139,0.01170656,-1.090072,-2.511961,1.668937
0,0.7111117,105,123,500,497,-0.02280759,-0.01855545,0.03865841,-1.513799,-3.070137,-1.631927,-0.07819061,-0.09137958,0.01855884,-1.088819,-2.512661,1.668631
0,0.7222228,105,123,500,497,-0.02067823,-0.02151512,0.04581759,-1.513627,-3.069913,-1.63117,-0.06942929,-0.09498602,0.02558948,-1.087797,-2.513259,1.668185
0,0.7333339,105,123,500,497,-0.02921818,-0.01778259,0.03230951,-1.513039,-3.069797,-1.631136,-0.06126652,-0.09964743,0.03121233,-1.086853,-2.513998,1.667712
0,0.7444451,105,123,500,497,-0.02921818,-0.01778259,0.03230951,-1.513039,-3.069797,-1.631136,-0.06126652,-0.09964743,0.03121233,-1.086853,-2.513998,1.667712
0,0.7555562,105,123,500,497,-0.021977,0.01055537,0.0207969,-1.512647,-3.070713,-1.630942,-0.04056906,-0.09630658,0.02852195,-1.085417,-2.515537,1.66744
0,0.7666674,105,123,500,497,-0.021977,0.01055537,0.0207969,-1.512647,-3.070713,-1.630942,-0.04056906,-0.09630658,0.02852195,-1.085417,-2.515537,1.66744
0,0.7777785,110,126,500,497,-0.01778159,0.01922174,0.02938181,-1.512226,-3.0715,-1.630175,-0.07535169,-0.07215925,0.009690888,-1.082811,-2.51563,1.667899
0,0.7888896,110,126,500,497,-0.01778159,0.01922174,0.02938181,-1.512226,-3.0715,-1.630175,-0.07535169,-0.07215925,0.009690888,-1.082811,-2.51563,1.667899
0,0.8000008,110,126,500,497,-0.02508311,-0.009518,0.04514765,-1.51156,-3.070904,-1.62875,-0.07863051,-0.07252301,0.03244614,-1.0804,-2.515793,1.666718
0,0.8111119,114,119,500,496,-0.02712235,-0.02777373,0.03646162,-1.511299,-3.070065,-1.628548,-0.06325503,-0.09196088,0.04599565,-1.079406,-2.516703,1.66584
0,0.8222231,114,119,500,496,-0.03135059,-0.03494332,0.02483273,-1.51085,-3.069567,-1.628518,-0.0518981,-0.1208929,0.0512325,-1.078122,-2.518269,1.665384
0,0.8333342,114,119,500,496,-0.02811054,-0.04090334,0.01228006,-1.510665,-3.068907,-1.628706,-0.03847263,-0.1414334,0.04036079,-1.076948,-2.520037,1.66555
0,0.8444453,114,119,500,496,-0.0281608,-0.0312444,0.01240276,-1.510413,-3.06885,-1.628479,-0.03707008,-0.1320462,0.02131693,-1.076065,-2.521131,1.665995
0,0.8555565,114,119,500,496,-0.0281608,-0.0312444,0.01240276,-1.510413,-3.06885,-1.628479,-0.03707008,-0.1320462,0.02131693,-1.076065,-2.521131,1.665995
0,0.8666676,114,119,500,496,-0.03032593,-0.02911166,0.0126627,-1.509937,-3.068658,-1.628211,-0.04255043,-0.1236516,0.01409213,-1.074973,-2.521821,1.666202
0,0.8777788,112,125,499,498,-0.03252147,-0.009133514,0.01620778,-1.509238,-3.068804,-1.627737,-0.05875199,-0.07707251,0.05267018,-1.073031,-2.520899,1.664045
0,0.8888899,112,125,499,498,-0.03465838,-0.01162626,0.01911295,-1.508836,-3.068551,-1.627419,-0.05673143,-0.06245771,0.06922518,-1.072325,-2.520322,1.662682
0,0.900001,112,125,499,498,-0.03679978,-0.01317607,0.02321477,-1.508468,-3.06842,-1.626992,-0.04454137,-0.0576704,0.07488951,-1.071911,-2.520422,1.661637
0,0.9111122,112,125,499,498,-0.03787278,-0.01513869,0.02189109,-1.508026,-3.068197,-1.626768,-0.03305656,-0.05779134,0.0707144,-1.071526,-2.520672,1.66092
0,0.9222233,111,125,500,496,-0.03895321,-0.01392249,0.02096355,-1.507492,-3.068115,-1.626509,-0.01854397,-0.0644713,0.0668,-1.071088,-2.521384,1.660338
0,0.9333345,111,125,500,496,-0.03895321,-0.01392249,0.02096355,-1.507492,-3.068115,-1.626509,-0.01854397,-0.0644713,0.0668,-1.071088,-2.521384,1.660338
0,0.9444456,111,125,500,496,-0.03682226,-0.01192588,0.0136851,-1.506692,-3.067796,-1.626399,0.01162631,-0.07366265,0.07069886,-1.070744,-2.522614,1.658799
0,0.9555568,111,125,500,496,-0.03682118,-0.01137979,0.009457065,-1.506265,-3.067701,-1.626335,0.02832823,-0.070144,0.07120249,-1.070885,-2.523267,1.657943
0,0.9666679,103,118,499,495,-0.03679748,-0.00727564,0.002451616,-1.505903,-3.067644,-1.626498,0.03219428,-0.06641728,0.07392657,-1.070952,-2.523657,1.657006
0,0.977779,103,118,499,495,-0.03679748,-0.00727564,0.002451616,-1.505903,-3.067644,-1.626498,0.03219428,-0.06641728,0.07392657,-1.070952,-2.523657,1.657006
0,0.9888902,103,118,499,495,-0.02713685,0.01002121,-0.007148283,-1.505519,-3.068094,-1.626828,0.05605425,-0.02712483,0.08860902,-1.072507,-2.523227,1.654468
0,1.000001,103,118,499,495,-0.02603116,0.02113655,-0.01001964,-1.505153,-3.068617,-1.626997,0.05519631,-0.0003456101,0.09440334,-1.073202,-2.52229,1.653118
0,1.011112,103,118,499,495,-0.02491544,0.03332744,-0.02132465,-1.504877,-3.06922,-1.627595,0.04804591,0.01670622,0.1028405,-1.073761,-2.521203,1.651499
0,1.022224,99,133,499,496,-0.02698994,0.04776423,-0.02481118,-1.504504,-3.070019,-1.627928,0.03922418,0.03640195,0.1045345,-1.074226,-2.519889,1.650095
0,1.033335,99,133,499,496,-0.02804584,0.04865746,-0.03968361,-1.504122,-3.070434,-1.628769,0.03972408,0.05348425,0.1040353,-1.075101,-2.518556,1.648699
0,1.044446,99,133,499,496,-0.02167316,0.04306687,-0.05432658,-1.504066,-3.070577,-1.629734,0.04747701,0.06710188,0.09797113,-1.076191,-2.517525,1.647739
0,1.055557,99,133,499,496,-0.02167316,0.04306687,-0.05432658,-1.504066,-3.070577,-1.629734,0.04747701,0.06710188,0.09797113,-1.076191,-2.517525,1.647739
0,1.066668,99,133,499,496,-0.02063143,0.03479303,-0.05646207,-1.50383,-3.070577,-1.63043,0.04862349,0.05728859,0.09161566,-1.076861,-2.51706,1.646703
0,1.077779,95,138,500,499,-0.01849978,0.01344285,-0.07324401,-1.503734,-3.069921,-1.631637,0.04697535,0.05177246,0.07937299,-1.077445,-2.516662,1.646057
0,1.08889,95,138,500,499,-0.01737232,-0.01376288,-0.08553667,-1.503377,-3.068771,-1.63368,0.0185627,0.09484927,0.05634226,-1.078532,-2.513565,1.644933
0,1.100002,95,138,500,499,-0.0162278,-0.02409945,-0.09560777,-1.503201,-3.068034,-1.635062,0.02278043,0.1164735,0.05666842,-1.079539,-2.511791,1.644028
0,1.111113,95,138,500,499,-0.01720002,-0.03636208,-0.0995146,-1.503035,-3.067147,-1.636214,0.0330067,0.1368158,0.06086598,-1.081078,-2.509756,1.642936
0,1.122224,95,119,500,498,-0.01494174,-0.0498164,-0.1025326,-1.502988,-3.066108,-1.637376,0.04064285,0.1328033,0.05625281,-1.08219,-2.508652,1.642276
0,1.133335,95,119,500,498,-0.0105404,-0.06130713,-0.1042114,-1.503026,-3.064971,-1.638467,0.03972546,0.1160463,0.04528793,-1.082919,-2.508022,1.641994
0,1.144446,95,119,500,498,-0.006157361,-0.06240761,-0.1033551,-1.503305,-3.064065,-1.639633,0.03997724,0.08286594,0.02296653,-1.083185,-2.508384,1.642289
0,1.155557,95,119,500,498,-0.006157361,-0.06240761,-0.1033551,-1.503305,-3.064065,-1.639633,0.03997724,0.08286594,0.02296653,-1.083185,-2.508384,1.642289
0,1.166668,99,129,501,495,0.01318359,-0.05633473,-0.105792,-1.50397,-3.062792,-1.641928,0.02344543,0.07108746,0.01310306,-1.084109,-2.507293,1.642078
0,1.17778,99,129,501,495,0.01525851,-0.04748061,-0.09918822,-1.504091,-3.062391,-1.642888,0.02468637,0.07117407,0.01166781,-1.084804,-2.506594,1.641782
0,1.188891,99,129,501,495,0.01525851,-0.04748061,-0.09918822,-1.504091,-3.062391,-1.642888,0.02468637,0.07117407,0.01166781,-1.084804,-2.506594,1.641782
0,1.200002,99,129,501,495,0.01415456,-0.04080355,-0.09287942,-1.504298,-3.061958,-1.643755,0.02998943,0.07288976,0.01689793,-1.085619,-2.505875,1.641358
0,1.211113,99,129,501,495,0.0171707,-0.02598584,-0.08319147,-1.504654,-3.061939,-1.644385,0.03292665,0.07636774,0.0187115,-1.086359,-2.504987,1.640913
0,1.222224,99,129,501,495,0.01924299,-0.02156178,-0.07609691,-1.504939,-3.061713,-1.645045,0.03732231,0.07330846,0.01645853,-1.087166,-2.504491,1.640715
0,1.233335,100,147,500,496,0.01986272,0.00450452,-0.05507087,-1.505407,-3.062437,-1.645881,0.05040021,0.05801549,0.01092331,-1.088893,-2.504126,1.640446
0,1.244446,100,147,500,496,0.02801313,0.02448973,-0.04352362,-1.505954,-3.06321,-1.646139,0.05658149,0.03749068,0.005064949,-1.089535,-2.504698,1.640592
0,1.255558,100,147,500,496,0.02778319,0.03470994,-0.03234371,-1.506104,-3.063869,-1.6463,0.05328847,0.02647972,0.003992911,-1.090113,-2.504893,1.640545
0,1.266669,100,147,500,496,0.02759253,0.04327763,-0.02463803,-1.506362,-3.064557,-1.646414,0.04403054,0.006751889,-0.0001753103,-1.090106,-2.505502,1.640704
0,1.27778,106,128,500,498,0.02639025,0.04820792,-0.01424253,-1.506535,-3.065337,-1.646373,0.03497295,-0.003087573,-0.009944765,-1.090119,-2.506038,1.641093
0,1.288891,106,128,500,498,0.02639025,0.04820792,-0.01424253,-1.506535,-3.065337,-1.646373,0.03497295,-0.003087573,-0.009944765,-1.090119,-2.506038,1.641093
0,1.300002,106,128,500,498,0.0252497,0.05027997,-0.006423842,-1.506778,-3.066001,-1.646294,0.03261895,-0.005475994,-0.0184596,-1.090348,-2.5065,1.641582
0,1.311113,106,128,500,498,0.01671914,0.04830151,0.0061657,-1.506997,-3.067146,-1.645985,0.04748386,0.002825908,-0.01994891,-1.09173,-2.507172,1.642157
0,1.322224,106,128,500,498,0.01671914,0.04830151,0.0061657,-1.506997,-3.067146,-1.645985,0.04748386,0.002825908,-0.01994891,-1.09173,-2.507172,1.642157
0,1.333336,109,143,500,496,0.01454519,0.04991243,0.009618917,-1.506959,-3.067729,-1.645884,0.06223412,-0.0009794347,-0.0166695,-1.092685,-2.507863,1.64225
0,1.344447,109,143,500,496,0.01243433,0.04851764,0.01155678,-1.50701,-3.068238,-1.645748,0.05982931,-0.007269975,-0.01262199,-1.093088,-2.508392,1.642299
0,1.355558,109,143,500,496,0.01567536,0.04541877,0.01109984,-1.507245,-3.068724,-1.645692,0.04274308,-0.03663082,-0.01505735,-1.092398,-2.509655,1.642634
0,1.366669,109,143,500,496,0.0177788,0.04620618,0.0133562,-1.507365,-3.069277,-1.645526,0.03482596,-0.04621312,-0.02145118,-1.092298,-2.51057,1.64306
0,1.37778,109,143,500,496,0.01889625,0.0430715,0.01288364,-1.50772,-3.06968,-1.6455,0.02995388,-0.04019245,-0.02033604,-1.092331,-2.511023,1.643301
0,1.388891,109,152,500,497,0.01387134,0.02671679,0.00621855,-1.507811,-3.069922,-1.645483,0.02093889,0.001691953,0.001157605,-1.093056,-2.510277,1.642722
0,1.400002,109,152,500,497,0.01184998,0.02005005,0.007409427,-1.507802,-3.070002,-1.645346,0.0168951,0.002259873,0.005833205,-1.093085,-2.510381,1.642543
0,1.411114,109,152,500,497,0.006508609,0.020556,0.01069874,-1.507758,-3.070286,-1.645162,0.01574906,-0.004114619,0.003693352,-1.093098,-2.51062,1.642559
0,1.422225,110,148,500,496,0.002334261,0.01657196,0.007973885,-1.507753,-3.070436,-1.645097,0.008025405,-0.0120497,-0.005644859,-1.0928,-2.511104,1.642987
0,1.433336,110,148,500,496,0.003398924,0.01644023,0.009030309,-1.507792,-3.070661,-1.644994,0.005909759,-0.01698485,-0.02215741,-1.092665,-2.51173,1.643795
0,1.444447,110,148,500,496,0.000235741,0.01412189,0.009769017,-1.507611,-3.07072,-1.644905,0.0003209123,0.002513644,-0.02164139,-1.092759,-2.511274,1.644028
0,1.455558,110,148,500,496,0.001554609,-0.0007689516,0.008721939,-1.507675,-3.070335,-1.644723,-0.002502979,0.01142463,-0.01061516,-1.092725,-2.510756,1.643732
0,1.466669,110,148,500,496,-0.004707405,-0.008109582,0.006587749,-1.507499,-3.069975,-1.644679,-0.008467579,0.01931349,-0.003888859,-1.092692,-2.51015,1.643522
0,1.47778,114,164,500,496,-0.00772958,-0.01900771,0.007178729,-1.507397,-3.069461,-1.644523,-0.01299191,0.02263929,-0.00505787,-1.092567,-2.50991,1.643644
0,1.488891,114,164,500,496,-0.01499488,-0.03057681,0.00442939,-1.507127,-3.068714,-1.644506,-0.009275961,0.02046443,-0.01493743,-1.092681,-2.510023,1.644183
0,1.500003,114,164,500,496,-0.02043283,-0.02568219,0.007257947,-1.506668,-3.068555,-1.644427,0.003205273,0.02029894,-0.02379419,-1.093104,-2.510195,1.644725
0,1.511114,114,164,500,496,-0.01836169,-0.02067449,0.002594442,-1.506525,-3.068438,-1.644522,0.01184471,0.01224293,-0.02187015,-1.093352,-2.510524,1.644934
0,1.522225,114,164,500,496,-0.01836169,-0.02067449,0.002594442,-1.506525,-3.068438,-1.644522,0.01184471,0.01224293,-0.02187015,-1.093352,-2.510524,1.644934
0,1.533336,115,143,501,497,-0.0111866,-0.002785171,0.006251843,-1.506481,-3.06887,-1.644397,-0.006845991,0.00810917,-0.02249457,-1.092997,-2.510498,1.645422
0,1.544447,115,143,501,497,-0.008080172,0.001932512,0.011241,-1.506469,-3.069047,-1.644153,-0.02589769,0.00882216,-0.01187674,-1.092328,-2.509959,1.645261
0,1.555558,115,143,501,497,-0.00586481,-0.003004426,0.008383773,-1.506476,-3.068894,-1.644122,-0.03392078,0.01394586,-0.002198327,-1.091962,-2.509306,1.644933
0,1.566669,115,143,501,497,-0.006774358,-0.01401654,0.01003315,-1.506406,-3.068444,-1.643919,-0.03256378,0.01996103,0.0009170789,-1.091866,-2.508755,1.644781
0,1.577781,115,179,500,495,-0.008809282,-0.02202661,0.01319012,-1.506274,-3.068033,-1.643625,-0.02946359,0.02311189,0.003710784,-1.091816,-2.508262,1.644605
0,1.588892,115,179,500,495,-0.01411434,-0.02420631,0.01286544,-1.505998,-3.067701,-1.643468,-0.01949399,0.02095289,-0.004149259,-1.091955,-2.50825,1.644892
0,1.600003,115,179,500,495,-0.01523994,-0.01984174,0.01239609,-1.505814,-3.067754,-1.643504,-0.01203419,0.008649521,-0.005888816,-1.091837,-2.508589,1.645043
0,1.611114,115,179,500,495,-0.01642168,-0.01096369,0.01043775,-1.505585,-3.067824,-1.643434,-0.009276666,-0.004245291,-0.01722123,-1.091616,-2.509127,1.645577
0,1.622225,115,179,500,495,-0.01860555,-0.008121676,0.01299442,-1.505304,-3.067835,-1.643203,-0.007935491,-0.008501296,-0.01797153,-1.091489,-2.50937,1.645842
0,1.633336,117,154,500,495,-0.01872923,-0.0001326136,0.0173602,-1.505004,-3.068056,-1.643049,-0.01246258,-0.007193484,-0.01523718,-1.09113,-2.509091,1.645852
0,1.644447,117,154,500,495,-0.01554642,0.0009670503,0.01752412,-1.504909,-3.068116,-1.642863,-0.01890901,0.003564641,-0.001485935,-1.090936,-2.508482,1.64545
0,1.655559,117,154,500,495,-0.01664253,0.004429451,0.01586575,-1.504704,-3.068332,-1.642797,-0.01740004,0.0194539,-0.004035245,-1.091035,-2.507785,1.645548
0,1.66667,117,154,500,495,-0.01660091,0.001422248,0.01435637,-1.504549,-3.068285,-1.642677,-0.02159058,0.02627527,-0.006298172,-1.090946,-2.507252,1.645651
0,1.677781,124,138,501,496,-0.01337428,-3.356993E-05,0.009838328,-1.504443,-3.068371,-1.642804,-0.02367831,0.02752754,-0.01115748,-1.090701,-2.507108,1.645978
0,1.688892,124,138,501,496,-0.0154007,-0.008186409,0.006503557,-1.504221,-3.068042,-1.642802,-0.01957582,0.0290182,-0.009246804,-1.090783,-2.50675,1.645997
0,1.700003,124,138,501,496,-0.01421618,-0.01871206,0.004977296,-1.504077,-3.067593,-1.642815,-0.02000322,0.02153527,-0.008462094,-1.090563,-2.506617,1.646098
0,1.711114,124,138,501,496,-0.01512292,-0.03227535,0.001932176,-1.503938,-3.066846,-1.642834,-0.01531225,0.01388903,-0.006629514,-1.090488,-2.506528,1.646115
0,1.722225,124,138,501,496,-0.01510199,-0.03422368,0.0005593342,-1.50376,-3.06653,-1.642912,-0.01436614,0.01434144,-0.009019999,-1.090466,-2.506384,1.646318
0,1.733337,127,159,501,498,-0.01084967,-0.03161462,-0.002278143,-1.503845,-3.066201,-1.642957,-0.01219884,0.01501908,5.809451E-05,-1.090446,-2.506073,1.645994
0,1.744448,127,159,501,498,-0.008743566,-0.02752682,-0.00061063,-1.50407,-3.066044,-1.643049,-0.01173285,0.01428666,0.002006605,-1.09039,-2.505852,1.645887
0,1.755559,127,159,501,498,-0.006713795,-0.01755771,-0.002383641,-1.504117,-3.066112,-1.64304,-0.01233519,0.01733935,0.003302448,-1.090405,-2.505492,1.645798
0,1.76667,127,159,501,498,-0.006840445,-0.007320007,0.001248978,-1.504084,-3.066307,-1.643002,-0.01322015,0.02479754,-0.004182077,-1.090474,-2.505079,1.64603
0,1.777781,114,182,499,498,-0.009003724,-0.00252165,-0.002363347,-1.50404,-3.06629,-1.643079,-0.01533125,0.03225917,-0.007875919,-1.090485,-2.504568,1.646237
0,1.788892,114,182,499,498,-0.009026661,-0.0002591945,-0.003112242,-1.503909,-3.066324,-1.643137,-0.01438636,0.03689021,-0.005195478,-1.090616,-2.503995,1.646174
0,1.800003,114,182,499,498,-0.005736675,-0.007909768,-0.00205184,-1.504113,-3.066053,-1.642988,-0.008001595,0.03684328,0.004928981,-1.090861,-2.50358,1.645788
0,1.811115,114,182,499,498,-0.007777703,-0.01515988,-0.004185191,-1.503995,-3.065672,-1.643067,-0.008725727,0.02575251,0.004436937,-1.090694,-2.503511,1.645684
0,1.822226,114,182,499,498,-0.003441463,-0.02234298,-0.006296021,-1.5039,-3.065133,-1.643153,-0.006840928,0.0205719,0.0008669628,-1.090715,-2.503443,1.645754
0,1.833337,96,152,499,499,-0.004394754,-0.03032754,-0.01069417,-1.50386,-3.064542,-1.64336,-0.01272839,0.01786437,-0.003409741,-1.090482,-2.503286,1.645943
0,1.844448,96,152,499,499,-0.00541116,-0.03576213,-0.01040951,-1.503716,-3.064022,-1.643343,-0.01534831,0.02006797,-0.005453635,-1.090413,-2.50296,1.64607
0,1.855559,96,152,499,499,-0.00546343,-0.03155109,-0.009797378,-1.503652,-3.063706,-1.643383,-0.01209751,0.01888682,-0.002010209,-1.090416,-2.50268,1.645943
0,1.86667,96,152,499,499,-0.006543058,-0.02929861,-0.01054611,-1.503664,-3.063461,-1.643443,-0.0102654,0.01188402,0.003083855,-1.090332,-2.502641,1.645756
0,1.877781,92,143,499,498,-0.005546031,-0.02295944,-0.009620924,-1.503703,-3.063413,-1.643521,-0.008953468,0.0138241,0.003507572,-1.090298,-2.502413,1.645636
0,1.888893,92,143,499,498,-0.0046115,-0.01255689,-0.007032894,-1.503636,-3.063558,-1.643601,-0.0101951,0.01585402,0.003404981,-1.090269,-2.50212,1.645578
0,1.900004,92,143,499,498,-0.005752439,-0.007603624,-0.004160168,-1.503459,-3.063595,-1.643565,-0.01072111,0.02479632,-0.001262638,-1.090279,-2.501636,1.645677
0,1.911115,92,143,499,498,-0.005724739,-0.009557479,-0.005523129,-1.503428,-3.063437,-1.643642,-0.007183851,0.0334109,0.004644746,-1.090469,-2.500939,1.645356
0,1.922226,92,143,499,498,-0.00467868,-0.008804215,-0.003251064,-1.503418,-3.063282,-1.643538,-0.007986893,0.03480681,0.008871084,-1.090559,-2.500402,1.64508
0,1.933337,94,124,499,498,-0.004671764,-0.01016571,-0.001296547,-1.503379,-3.063141,-1.643487,-0.008430747,0.02935452,0.005749306,-1.090555,-2.500114,1.645092
0,1.944448,94,124,499,498,-0.009929287,-0.01685362,-0.0001303684,-1.503221,-3.062814,-1.643389,-0.009329173,0.01234222,0.0007110265,-1.090316,-2.500383,1.645269
0,1.955559,94,124,499,498,-0.005676644,-0.01559989,-0.00101383,-1.503288,-3.062676,-1.643415,-0.009999696,-0.0008641854,0.001712189,-1.089952,-2.500513,1.645353
0,1.966671,94,124,499,498,-0.006707605,-0.02013784,0.000467977,-1.503116,-3.062253,-1.643388,-0.005461827,-0.01444199,-0.00100095,-1.089755,-2.501076,1.645501
0,1.977782,94,124,499,498,-0.005697482,-0.01470271,0.0001902683,-1.503107,-3.062239,-1.643363,-0.004912277,-0.01537182,-0.003815828,-1.089698,-2.501272,1.645679
0,1.988893,99,136,500,497,-0.00254087,-0.01150733,0.0006666172,-1.503096,-3.062201,-1.64331,-0.002271475,-0.009559629,-0.009252968,-1.089756,-2.501348,1.645959
0,2.000004,99,136,500,497,-0.00899089,-0.006458407,0.002468695,-1.502884,-3.062245,-1.643208,-0.007154295,0.006599892,-0.006657274,-1.089738,-2.500692,1.645909
0,2.011115,99,136,500,497,-0.0101293,0.001371698,0.0003813551,-1.502751,-3.062443,-1.643284,-0.008180587,0.01660145,0.004369652,-1.089779,-2.500047,1.645435
0,2.022226,99,136,500,497,-0.0101379,0.0005978727,0.005649243,-1.502694,-3.062362,-1.643107,-0.007135573,0.01900968,0.006197365,-1.089856,-2.499726,1.64528
0,2.033337,99,133,500,500,-0.01118251,0.000152465,0.001273749,-1.502552,-3.062357,-1.64321,-0.007941247,0.016233,0.005347556,-1.089816,-2.499624,1.645223
0,2.044448,99,133,500,500,-0.01118251,0.000152465,0.001273749,-1.502552,-3.062357,-1.64321,-0.007941247,0.016233,0.005347556,-1.089816,-2.499624,1.645223
0,2.055559,99,133,500,500,-0.01111618,-0.007678756,0.003345847,-1.502266,-3.062078,-1.643187,-0.007258818,0.008825596,-0.005789487,-1.089772,-2.499629,1.645652
0,2.06667,99,133,500,500,-0.01107066,-0.01158735,0.0006146848,-1.502142,-3.06179,-1.643256,-0.005385033,0.00172224,-0.003084875,-1.089683,-2.499764,1.645619
0,2.077781,99,133,500,500,-0.008937228,-0.01140959,-0.0004322167,-1.50212,-3.061699,-1.643268,-0.007638769,0.00542017,-0.002315469,-1.089686,-2.499441,1.645563
0,2.088892,102,127,500,498,-0.004758947,-0.00445183,0.003835112,-1.502156,-3.061909,-1.643077,-0.003669484,0.005059572,-0.002237272,-1.089764,-2.499434,1.645572
0,2.100003,102,127,500,498,-0.006887041,-0.003102707,0.001874819,-1.50213,-3.061992,-1.64309,-0.005753607,0.006342116,-0.007096477,-1.08966,-2.499202,1.645831
0,2.111114,102,127,500,498,-0.007955535,-0.004937496,0.006986673,-1.502009,-3.061921,-1.642879,0.001097078,0.003316797,-0.006385235,-1.08972,-2.499231,1.645907
0,2.122225,102,127,500,498,-0.009009052,-0.005841341,0.005771587,-1.501892,-3.061889,-1.642875,0.005527996,-0.003871007,-0.00315783,-1.089759,-2.499485,1.645867
0,2.133336,102,127,500,498,-0.00581083,-0.00565739,0.004729808,-1.501915,-3.061828,-1.642842,0.002234764,-0.008673707,-0.003019841,-1.089688,-2.499575,1.645975
0,2.144447,102,127,500,498,-0.001538694,-0.006363722,0.00248414,-1.501951,-3.06173,-1.642863,-0.0009671885,-0.005442104,0.0001332262,-1.08962,-2.499496,1.645887
0,2.155558,102,127,500,498,-0.001538694,-0.006363722,0.00248414,-1.501951,-3.06173,-1.642863,-0.0009671885,-0.005442104,0.0001332262,-1.08962,-2.499496,1.645887
0,2.166669,102,127,500,498,0.0005882782,-0.004827303,-0.0005148861,-1.501991,-3.061693,-1.642929,-0.006678399,-0.002226736,0.0003881766,-1.089524,-2.499399,1.645846
0,2.17778,102,127,500,498,0.00169901,-0.01161011,0.001722145,-1.501956,-3.06123,-1.642818,-0.005490481,0.01005722,-0.00342857,-1.089684,-2.498911,1.645914
0,2.188891,96,120,499,500,0.001656478,-0.00603519,0.0003872459,-1.501989,-3.061244,-1.64287,9.61097E-05,0.01524749,-0.001645375,-1.089978,-2.498675,1.645845
0,2.200002,96,120,499,500,-0.001486851,-0.01118523,-0.00145043,-1.501914,-3.06089,-1.642888,0.009385308,0.01636778,-0.003450833,-1.090306,-2.498703,1.645911
0,2.211113,96,120,499,500,0.0006550879,-0.01221995,-0.001596436,-1.502005,-3.06073,-1.642906,0.007311054,0.01370609,0.001873267,-1.090285,-2.498379,1.645722
0,2.222224,96,120,499,500,0.003925384,-0.01804544,-0.005673892,-1.50216,-3.060402,-1.643062,0.005049376,0.001043313,-2.627145E-05,-1.090141,-2.4987,1.645795
0,2.233335,95,120,499,497,0.00185448,-0.02317832,-0.007511536,-1.502172,-3.060025,-1.643171,0.001470361,-0.003303509,0.001525802,-1.089891,-2.498729,1.645715
0,2.244446,95,120,499,497,0.00185448,-0.02317832,-0.007511536,-1.502172,-3.060025,-1.643171,0.001470361,-0.003303509,0.001525802,-1.089891,-2.498729,1.645715
0,2.255557,95,120,499,497,0.004038958,-0.02752397,-0.00706918,-1.502399,-3.059369,-1.643306,0.008323948,0.01812963,-0.0001976783,-1.090545,-2.498111,1.645724
0,2.266668,95,120,499,497,0.002887738,-0.0174274,-0.009900289,-1.502398,-3.059402,-1.643515,0.01586143,0.02017683,0.004609003,-1.091021,-2.497954,1.645503
0,2.277779,95,120,499,497,0.003844293,-0.006870449,-0.00835336,-1.502486,-3.059654,-1.643673,0.01615654,0.01768504,0.007106394,-1.091193,-2.497841,1.64526
0,2.28889,95,122,500,498,0.01009728,0.005998925,-0.007523236,-1.502733,-3.060033,-1.643765,0.002534701,0.007338746,0.01112761,-1.090778,-2.497749,1.645006
0,2.300001,95,122,500,498,0.007979268,0.003251038,-0.003623898,-1.50271,-3.060035,-1.643676,-0.00167584,-0.002191427,0.006204369,-1.090514,-2.498005,1.645125
0,2.311112,95,122,500,498,0.007939668,0.006265313,-0.002108678,-1.502756,-3.060271,-1.643732,-0.003869331,-0.01088248,0.004615281,-1.090219,-2.498324,1.64519
0,2.322223,95,122,500,498,0.004801283,0.0008083867,-0.001838031,-1.502783,-3.060143,-1.643712,-0.00386849,-0.01088324,0.004614213,-1.090123,-2.498392,1.645143
0,2.333334,95,122,500,498,0.005878444,-0.0002336184,-0.001988659,-1.502887,-3.060112,-1.643723,0.005974825,-0.008559034,0.008971363,-1.090554,-2.49853,1.644867
0,2.344445,94,118,499,498,0.001656282,-0.00479838,-0.0005211651,-1.502729,-3.059989,-1.643762,0.004383257,-0.001908229,0.004859988,-1.090708,-2.498285,1.644931
0,2.355556,94,118,499,498,0.001664977,-0.005847007,-0.000676173,-1.502705,-3.060009,-1.643759,-0.002378787,0.007029697,-0.001814681,-1.090624,-2.49799,1.645086
0,2.366668,94,118,499,498,-0.0004854868,-0.005280409,0.00263265,-1.502628,-3.059965,-1.643642,-0.007048419,0.01266533,0.0002635237,-1.090563,-2.497595,1.644997
0,2.377779,94,118,499,498,-0.001546405,-0.004971668,0.0005230195,-1.502589,-3.060099,-1.643675,-0.003446115,0.01497937,0.002616858,-1.09068,-2.497388,1.644765
0,2.38889,94,115,500,495,-0.003722568,-0.002138475,0.003083632,-1.502405,-3.060184,-1.643632,-0.003678236,0.01117812,-0.003433143,-1.090672,-2.497426,1.644987
0,2.400001,94,115,500,495,-0.004820544,-0.0008127276,0.008664788,-1.502364,-3.060257,-1.643312,-0.001271479,-0.001025478,-0.008614259,-1.090517,-2.497866,1.645268
0,2.411112,94,115,500,495,-0.004810568,-0.001861226,0.008507604,-1.502307,-3.060281,-1.64328,-0.002245555,-0.00972597,-0.01399247,-1.090302,-2.498248,1.645558
0,2.422223,94,115,500,495,-0.005841652,-0.00685871,0.0131524,-1.502283,-3.060098,-1.643078,0.002393198,-0.01526153,-0.01368641,-1.090274,-2.498693,1.645751
0,2.433334,94,115,500,495,-0.003718039,-0.005472743,0.01120335,-1.50227,-3.060121,-1.643062,3.12198E-05,-0.01544851,-0.01085786,-1.090051,-2.4989,1.64581
0,2.444445,93,124,499,496,-0.005898283,-6.299524E-05,0.01091898,-1.502139,-3.060346,-1.642905,-0.003149522,-0.01029248,-0.01398228,-1.089968,-2.498929,1.646084
0,2.455556,93,124,499,496,-0.001710476,0.0073601,0.01201829,-1.502171,-3.060705,-1.642681,-0.003303548,-0.003807857,-0.005666734,-1.089973,-2.498736,1.64586
0,2.466667,93,124,499,496,-0.0006721616,0.0106871,0.01143024,-1.502165,-3.060916,-1.642599,-0.006931758,6.004656E-05,-0.006838794,-1.089865,-2.498595,1.645953
0,2.477778,93,124,499,496,-0.0027615,0.006453683,0.0108048,-1.502066,-3.060877,-1.642507,-0.01181175,-0.000140165,-0.006905832,-1.089586,-2.498517,1.645983
0,2.488889,90,119,500,497,-0.001651654,0.002251972,0.01019433,-1.502156,-3.060849,-1.642346,-0.01036019,-0.006609392,-0.008525539,-1.089404,-2.498767,1.64618
0,2.5,90,119,500,497,-0.004820175,-0.001240059,0.01182702,-1.502066,-3.060802,-1.642188,-0.002928534,-0.01868614,-0.005529057,-1.089272,-2.499425,1.64618
0,2.511111,90,119,500,497,-0.002673976,-0.002119951,0.0106287,-1.502145,-3.060768,-1.64208,0.003317287,-0.02081085,-0.01248258,-1.089335,-2.499993,1.646482
0,2.522222,90,119,500,497,-0.002673976,-0.002119951,0.0106287,-1.502145,-3.060768,-1.64208,0.003317287,-0.02081085,-0.01248258,-1.089335,-2.499993,1.646482
0,2.533333,90,119,500,497,-0.0005854033,0.003476987,0.009298867,-1.502159,-3.060998,-1.641878,-0.0003266865,-0.0005889552,-0.01099096,-1.089537,-2.499589,1.646789
0,2.544444,94,113,500,497,-0.00166713,0.007084792,0.006597224,-1.502111,-3.061105,-1.641836,-0.01036623,0.009742374,-0.005867258,-1.08946,-2.498898,1.646745
0,2.555555,94,113,500,497,-0.004821481,0.00178972,0.005815945,-1.501916,-3.060958,-1.641821,-0.009170372,0.01198543,0.001693441,-1.089503,-2.498549,1.646421
0,2.566666,94,113,500,497,-0.001634088,0.002567712,0.008089026,-1.502079,-3.0611,-1.641656,-0.003980071,-0.0005674335,0.0003857047,-1.089428,-2.499103,1.646523
0,2.577777,94,113,500,497,0.001637354,-0.004017184,0.001749562,-1.502203,-3.060839,-1.64194,0.000891143,-0.008613738,-0.00730916,-1.089395,-2.49976,1.646949
0,2.588888,94,113,500,497,0.0006056612,-0.006881405,-0.0008236857,-1.502186,-3.060661,-1.642017,-0.0006430037,-0.01628619,-0.007496074,-1.089136,-2.500167,1.647063
0,2.599999,94,109,500,499,0.002759033,-0.008809863,-0.002180011,-1.502278,-3.060617,-1.642105,-0.004740438,-0.01170038,-0.01061462,-1.088968,-2.500231,1.6473
0,2.61111,94,109,500,499,-0.0004091202,-0.01048799,-0.005654003,-1.502212,-3.060363,-1.64212,-0.008436012,-0.00357027,-0.004334444,-1.088877,-2.499866,1.647106
0,2.622221,94,109,500,499,-0.0004509372,-0.008245246,0.001140797,-1.502256,-3.060437,-1.641789,-0.01286575,0.005748745,0.001413594,-1.088786,-2.499433,1.646854
0,2.633332,94,109,500,499,-0.003631628,-0.01053752,0.00187858,-1.50215,-3.06017,-1.641737,-0.01439158,0.01433417,0.00151638,-1.0888,-2.498934,1.646796
0,2.644443,94,109,500,499,-0.005774655,-0.008142103,6.786396E-05,-1.502031,-3.060087,-1.641796,-0.008195497,0.0164976,0.001993824,-1.089168,-2.498714,1.646817
0,2.655554,92,110,499,495,-0.005798629,-0.00618873,0.001428225,-1.50194,-3.06005,-1.641749,-0.006526436,0.0116928,-0.002557529,-1.089268,-2.498845,1.647079
0,2.666665,92,110,499,495,-0.005809182,-0.003774753,-0.000372744,-1.501911,-3.060053,-1.64178,-0.005491269,-0.0002345857,-0.007292742,-1.089092,-2.49928,1.647359
0,2.677776,92,110,499,495,-0.002649595,-0.002562753,0.006271096,-1.501941,-3.060065,-1.641506,-0.004258533,-0.006331228,-0.009883907,-1.089059,-2.499564,1.647641
0,2.688887,92,110,499,495,-0.001648556,0.006182053,0.005388402,-1.501935,-3.060354,-1.64157,-0.007143211,-0.009762624,-0.009312693,-1.088816,-2.499738,1.647784
0,2.699998,99,112,500,497,-0.002715564,0.006321165,0.004329968,-1.501802,-3.060321,-1.64157,-0.0117799,-0.01033597,-0.008415656,-1.088616,-2.499712,1.647903
0,2.711109,99,112,500,497,-0.0005983934,0.005420001,0.01066062,-1.501847,-3.060404,-1.641265,-0.005954633,-0.009667782,-0.0107301,-1.088698,-2.499934,1.648125
0,2.72222,99,112,500,497,-0.004882122,0.008089589,0.01426993,-1.50174,-3.060505,-1.640958,-0.003797575,-0.01113175,-0.01063349,-1.088659,-2.500094,1.648301
0,2.733331,99,112,500,497,-0.001683441,0.008267174,0.01322517,-1.501819,-3.060623,-1.640858,0.000354345,-0.015818,-0.009889988,-1.088655,-2.500499,1.648437
0,2.744442,99,112,500,497,0.002522979,0.01583769,0.01325508,-1.501863,-3.061169,-1.640694,-9.307638E-06,-0.02137998,-0.01538349,-1.08842,-2.500966,1.648847
0,2.755553,107,120,500,499,-0.001761539,0.01836919,0.0179133,-1.50168,-3.061532,-1.640368,-0.003509792,-0.02583999,-0.01621062,-1.088099,-2.501384,1.649116
0,2.766664,107,120,500,499,0.001429411,0.01944864,0.01807087,-1.501774,-3.061825,-1.640179,0.0001940094,-0.0216466,-0.01203268,-1.088106,-2.501522,1.64913
0,2.777775,107,120,500,499,-0.000701163,0.02048786,0.01821608,-1.501688,-3.062039,-1.639934,-0.000651422,-0.01415288,-0.009020995,-1.0882,-2.501344,1.649136
0,2.788886,107,120,500,499,-0.0006497726,0.01326156,0.01609624,-1.501703,-3.061992,-1.6398,-0.001230465,-0.01120572,-0.01010729,-1.088171,-2.501421,1.649299
0,2.799997,110,137,500,495,-0.0006342847,0.009793934,0.01774623,-1.501652,-3.061952,-1.639556,0.0002328223,-0.007497502,-0.01023564,-1.088232,-2.501376,1.649401
0,2.811108,110,137,500,495,0.0004147943,0.01296709,0.01820146,-1.501681,-3.062223,-1.63936,0.001618912,-0.005751809,-0.01457643,-1.088277,-2.501543,1.649727
0,2.822219,110,137,500,495,0.002611957,0.005157213,0.01278076,-1.501926,-3.062129,-1.639357,0.0008274158,-0.008536857,-0.01542565,-1.088103,-2.501839,1.649977
0,2.83333,110,137,500,495,0.001568871,0.003345935,0.01036774,-1.501983,-3.062134,-1.639272,-0.001972014,-0.01409213,-0.01333082,-1.087849,-2.50213,1.650107
0,2.844441,110,137,500,495,0.003717857,0.0001968976,0.00992313,-1.502089,-3.062074,-1.639135,-0.001850678,-0.01631781,-0.01418865,-1.087697,-2.502521,1.650353
0,2.855552,107,123,499,497,-0.0005361363,-0.002236123,0.01171764,-1.501949,-3.061986,-1.638928,-0.004952257,-0.01939535,-0.01458881,-1.087413,-2.502823,1.650572
0,2.866663,107,123,499,497,-0.002683487,0.0007629939,0.01321856,-1.501933,-3.062014,-1.638711,-0.003600592,-0.01155249,-0.02014134,-1.087539,-2.502755,1.651021
0,2.877774,107,123,499,497,0.002681204,-0.005530245,0.01233539,-1.5022,-3.061821,-1.638592,-0.004305385,-0.006394209,-0.02037193,-1.087486,-2.502783,1.651242
0,2.888885,107,123,499,497,0.00158793,-0.0001105425,0.01203135,-1.502136,-3.062015,-1.638447,-0.001557681,0.001431895,-0.01112259,-1.087662,-2.502506,1.651069
0,2.899997,109,122,500,500,-0.001625845,0.001683067,0.01442779,-1.501984,-3.062047,-1.638254,-0.001876558,0.001996377,-0.007336052,-1.087589,-2.502502,1.65102
0,2.911108,109,122,500,500,0.001576887,0.001851558,0.01338006,-1.502183,-3.062076,-1.638188,-0.006281551,-0.003037418,-0.008149465,-1.087336,-2.502631,1.651161
0,2.922219,109,122,500,500,0.000491187,0.0005084483,0.0228662,-1.502167,-3.062056,-1.637653,-0.003876716,-0.002935916,-0.01335831,-1.087458,-2.502636,1.651508
0,2.93333,109,122,500,500,-0.001628218,-0.002954776,0.02452367,-1.502098,-3.062004,-1.637334,-0.007856401,-0.004516924,-0.007155173,-1.087202,-2.502551,1.651341
0,2.944441,109,122,500,500,-0.004787819,-0.006149777,0.01653291,-1.502015,-3.061797,-1.637409,-0.007895982,-0.004410815,-0.004776745,-1.087154,-2.502488,1.651342
0,2.955552,111,129,500,497,-0.0004962641,-0.00599836,0.007960431,-1.502215,-3.061709,-1.63752,-0.006316193,-0.0129875,-0.004858803,-1.087002,-2.502882,1.651424
0,2.966663,111,129,500,497,-0.0004500947,-0.01399063,0.003604679,-1.50224,-3.061333,-1.637578,-0.01067538,-0.01405295,-0.00536597,-1.086702,-2.502968,1.651522
0,2.977774,111,129,500,497,-0.003650714,-0.01400689,0.003584372,-1.50208,-3.061133,-1.637622,-0.01312113,-0.006145331,-0.007649214,-1.086573,-2.502721,1.651673
0,2.988885,111,129,500,497,-0.005777887,-0.01627295,0.004334545,-1.501966,-3.060879,-1.637522,-0.01832748,0.006410649,0.004136144,-1.086443,-2.501968,1.651228
0,2.999996,108,128,500,498,-0.0100304,-0.01839637,0.004020148,-1.501806,-3.060601,-1.637484,-0.01428567,0.01810425,0.007528907,-1.086554,-2.501447,1.650982
0,3.011107,108,128,500,498,-0.01324339,-0.01524025,0.004456254,-1.50158,-3.060509,-1.637414,-0.01200368,0.02449898,0.005865591,-1.086702,-2.500978,1.650908
0,3.022218,108,128,500,498,-0.01006595,-0.007551646,0.003400334,-1.501619,-3.060557,-1.637415,-0.0007158406,0.02439888,-0.001590373,-1.087085,-2.501064,1.651242
0,3.033329,108,128,500,498,-0.01008841,-0.001226773,0.00430136,-1.501518,-3.060637,-1.637293,0.008375851,0.003560412,-0.01389714,-1.087078,-2.501922,1.651768
0,3.04444,108,128,500,498,-0.00799237,0.009330386,0.005798777,-1.501477,-3.061057,-1.637262,0.002284063,-0.02293516,-0.01763546,-1.086524,-2.502921,1.652215
0,3.055551,105,135,500,498,-0.006937101,0.01159249,0.005043464,-1.501323,-3.061206,-1.637294,-0.002033534,-0.02600732,-0.01424226,-1.086279,-2.502999,1.65224
0,3.066662,105,135,500,498,-0.002695543,0.01282165,0.0116791,-1.501387,-3.061429,-1.63701,-0.01479716,-0.02953687,-0.004310748,-1.085552,-2.503034,1.652012
0,3.077773,105,135,500,498,-0.006941324,0.01009446,0.008055029,-1.501138,-3.061471,-1.637097,-0.01442941,-0.01999027,0.001493793,-1.085526,-2.502729,1.651809
0,3.088884,105,135,500,498,-0.005879022,0.007392384,0.01197538,-1.501147,-3.061501,-1.636899,-0.009442424,0.0002248348,0.005502346,-1.085801,-2.50215,1.651582
0,3.099995,103,130,500,497,-0.01013523,0.008737057,0.01000444,-1.500927,-3.061594,-1.636838,-0.004159719,0.01183318,0.002712617,-1.086075,-2.501696,1.651661
0,3.111106,103,130,500,497,-0.008010797,0.004221098,0.01151804,-1.500716,-3.061465,-1.636715,-0.001330039,0.01538211,0.004517388,-1.086257,-2.501426,1.651515
0,3.122217,103,130,500,497,-0.009063949,0.001355344,0.00895554,-1.500595,-3.061438,-1.636684,-0.006753348,0.007929048,0.001882216,-1.085965,-2.501325,1.651556
0,3.133328,103,130,500,497,-0.009077175,0.00105763,0.01106258,-1.500378,-3.061427,-1.63652,-0.008362602,0.00246151,0.002563595,-1.085702,-2.501292,1.651512
0,3.144439,103,130,500,497,-0.009074034,0.001209135,0.01000797,-1.500288,-3.061462,-1.636423,-0.003278236,-0.003788837,-0.005676653,-1.085698,-2.501698,1.651861
0,3.15555,112,135,500,498,-0.006954319,-0.002253482,0.01167105,-1.500147,-3.061323,-1.636292,-0.005757117,-0.003925432,-0.01095723,-1.085598,-2.501673,1.652131
0,3.166661,112,135,500,498,-0.005883834,-0.007524658,0.01092605,-1.500126,-3.061129,-1.636188,-0.005031533,0.004948398,-0.01131904,-1.085696,-2.501469,1.652262
0,3.177772,112,135,500,498,-0.002682677,-0.01355054,0.007928432,-1.500109,-3.060837,-1.636152,-0.00799992,0.01392088,0.002099046,-1.085647,-2.500845,1.651701
0,3.188883,112,135,500,498,-0.00480128,-0.01943082,0.003856441,-1.500008,-3.06049,-1.636206,-0.01055672,0.01398102,0.001579329,-1.085566,-2.500603,1.65168
0,3.199994,112,135,500,498,-0.002670707,-0.02259358,0.003418916,-1.500044,-3.060188,-1.636104,-0.00988555,0.01084149,-0.002093784,-1.085515,-2.500504,1.651788
0,3.211105,118,125,501,499,-0.0005304655,-0.02696058,0.0038944,-1.500234,-3.05982,-1.635953,-0.009572094,0.01027725,-0.00588184,-1.085484,-2.500439,1.651958
0,3.222216,118,125,501,499,-0.002661577,-0.0234996,0.002227394,-1.500129,-3.059652,-1.635927,-0.00610749,0.006703775,-0.008061596,-1.085444,-2.500624,1.652166
0,3.233327,118,125,501,499,-0.001587118,-0.02244753,0.002399341,-1.500321,-3.059404,-1.635705,-0.01138443,0.009140533,-0.00586619,-1.085288,-2.500336,1.65219
0,3.244438,118,125,501,499,0.0005460829,-0.02018804,0.001649694,-1.500392,-3.059243,-1.635699,-0.007940937,0.01779631,2.863241E-05,-1.085491,-2.499868,1.651967
0,3.255549,125,128,501,495,0.001600121,-0.01400833,0.003608065,-1.500408,-3.059253,-1.63552,-0.008411114,0.01660153,0.004366089,-1.085404,-2.499615,1.651789
0,3.26666,125,128,501,495,0.002664429,-0.007529859,0.003448518,-1.500455,-3.05935,-1.635488,-0.000372027,0.009767177,0.003349162,-1.085585,-2.499795,1.651781
0,3.277771,125,128,501,495,0.0005425417,-0.002109259,0.003128247,-1.500542,-3.059414,-1.635515,0.002723394,0.01476937,-0.002539688,-1.085821,-2.499771,1.652057
0,3.288882,125,128,501,495,0.003744056,0.001502872,0.0004175948,-1.500661,-3.059531,-1.63559,0.00770638,0.02285337,-0.004241703,-1.086215,-2.499548,1.652215
0,3.299993,125,128,501,495,-0.001572934,-0.001512393,-0.001090155,-1.500558,-3.059472,-1.635544,0.008847957,0.02712672,-0.0005924841,-1.086509,-2.499191,1.652079
0,3.311104,128,130,501,495,0.003774442,-0.005131159,-0.005888646,-1.500834,-3.059356,-1.635716,0.004369339,0.02635996,0.006040044,-1.086515,-2.498882,1.651861
0,3.322215,128,130,501,495,0.01017757,-0.006936043,-0.008276579,-1.501139,-3.059219,-1.635844,0.0005752295,0.01238073,0.009913326,-1.086313,-2.498969,1.651647
0,3.333326,128,130,501,495,0.01125846,-0.00888784,-0.009622016,-1.501368,-3.059169,-1.635951,-0.002402423,0.003003217,0.005970416,-1.086109,-2.499089,1.65169
0,3.344437,128,130,501,495,0.009119603,-0.005873314,-0.008128677,-1.50141,-3.059184,-1.636021,0.003226754,-0.0001036732,-0.002388593,-1.086258,-2.499374,1.65199
0,3.355548,134,125,502,496,0.005930633,-0.006633174,-0.01039425,-1.501376,-3.059104,-1.636145,0.005074143,0.0009314478,-0.004783641,-1.086466,-2.499263,1.652065
0,3.366659,134,125,502,496,0.001663087,-0.002270607,-0.01086819,-1.501301,-3.059175,-1.636281,0.01147175,0.01090781,0.002052386,-1.086928,-2.498921,1.651772
0,3.37777,134,125,502,496,0.003771315,0.0003031824,-0.006193491,-1.501343,-3.059269,-1.636199,0.01032689,0.02293297,0.009145039,-1.08723,-2.498161,1.651389
0,3.388881,134,125,502,496,0.0048445,0.001956647,-0.01026136,-1.501426,-3.059296,-1.636432,0.005233226,0.02713995,0.01078331,-1.087476,-2.497723,1.651175
0,3.399992,134,125,502,496,0.004841653,0.0003073371,-0.006185816,-1.501554,-3.059306,-1.636308,0.001894407,0.02442288,0.009412915,-1.087503,-2.497476,1.651079
0,3.411103,140,129,501,494,0.005912356,-0.000444417,-0.008443253,-1.501607,-3.05928,-1.636482,-0.00219845,0.01882662,0.00481694,-1.087413,-2.497267,1.651119
0,3.422215,140,129,501,494,0.00593158,-0.01143953,-0.006757365,-1.50167,-3.058856,-1.636435,0.002055506,0.02210564,0.006177638,-1.087668,-2.496988,1.650979
0,3.433326,140,129,501,494,0.004859063,-0.01158863,-0.00570961,-1.501631,-3.058728,-1.636502,0.001817659,0.01648439,0.00879971,-1.087735,-2.496791,1.65079
0,3.444437,140,129,501,494,0.002749172,-0.01551682,-0.008420458,-1.501639,-3.058416,-1.636651,0.003236659,0.01621773,0.008357608,-1.087891,-2.496642,1.650698
0,3.455548,139,136,502,497,0.0005882178,-0.009641172,-0.004374636,-1.501556,-3.058443,-1.636636,0.001967351,0.008172929,0.009158859,-1.087777,-2.496653,1.650581
0,3.466659,139,136,502,497,0.00162652,-0.001348154,-0.002127802,-1.501584,-3.058653,-1.636633,0.003105143,0.004295691,0.007436345,-1.087802,-2.496724,1.650547
0,3.47777,139,136,502,497,0.00266972,0.003480884,0.001784353,-1.501632,-3.058765,-1.636485,0.000740418,-0.0040464,0.004882294,-1.087636,-2.496954,1.650702
0,3.488881,139,136,502,497,0.00372268,0.005294997,0.00419338,-1.501662,-3.058837,-1.636405,0.001685966,-0.005501355,0.008771964,-1.087724,-2.497034,1.650554
0,3.499992,139,136,502,497,0.0005134771,0.01311637,0.002057764,-1.501561,-3.059141,-1.636507,-0.001186181,-0.008944167,0.009344641,-1.087547,-2.497134,1.650451
0,3.511103,145,130,501,495,0.001581325,0.01206414,0.001911665,-1.501602,-3.05925,-1.636497,-0.0006706304,-0.003778141,0.005316561,-1.087599,-2.497022,1.650535
0,3.522214,145,130,501,495,-0.003733402,0.01009016,0.0005462574,-1.501442,-3.059262,-1.63653,-0.00176485,0.004071831,0.007349049,-1.087645,-2.496706,1.650357
0,3.533325,145,130,501,495,-0.002662811,0.005574667,0.002063953,-1.501421,-3.0592,-1.636454,-0.006599389,0.007821858,0.007584675,-1.087544,-2.496343,1.650265
0,3.544436,145,130,501,495,-0.005852699,0.003458594,0.001758416,-1.501265,-3.059154,-1.636451,-0.004544452,0.01457513,0.004946283,-1.087739,-2.49601,1.650269
0,3.555547,146,142,502,498,-0.006919662,-0.005579011,0.004772929,-1.501043,-3.058807,-1.636444,-0.0004118877,0.01599224,0.004478127,-1.087894,-2.495886,1.650192
0,3.566658,146,142,502,498,-0.005842446,-0.009647609,0.003124851,-1.501024,-3.058582,-1.636467,-0.0007052869,0.008309682,0.0005071067,-1.087745,-2.495966,1.650361
0,3.577769,146,142,502,498,-0.002641409,-0.01145723,0.0007248165,-1.501024,-3.058364,-1.636515,0.005613094,-0.0059722,-0.004022539,-1.087726,-2.496573,1.650607
0,3.58888,146,142,502,498,-0.0005317775,-0.00090485,0.002226747,-1.501066,-3.05867,-1.636402,0.007218853,-0.01464623,-0.006484982,-1.087661,-2.496915,1.650757
0,3.599991,146,142,502,498,-0.001596955,0.0002997525,0.00131427,-1.501011,-3.058725,-1.636475,0.004708346,-0.01467994,-0.009386785,-1.087571,-2.497128,1.650963
0,3.611102,145,134,502,498,0.002632508,0.01099646,0.001757898,-1.500982,-3.059014,-1.636505,0.00356645,-0.01080778,-0.007664846,-1.087498,-2.497185,1.650988
0,3.622213,145,134,502,498,0.003688401,0.01521777,0.002356454,-1.501012,-3.059279,-1.636486,0.007343417,0.001344593,-0.002873559,-1.087829,-2.496906,1.650836
0,3.633324,145,134,502,498,0.003680396,0.01853025,0.001745741,-1.501,-3.059516,-1.636574,0.008013996,0.01042379,0.001518324,-1.08803,-2.496444,1.650624
0,3.644435,145,134,502,498,0.005811859,0.0162763,0.002505894,-1.50111,-3.059653,-1.636539,0.009288601,0.01846482,0.0007141875,-1.088352,-2.496128,1.650588
0,3.655546,145,134,502,498,0.005824228,0.01385067,-0.003212261,-1.501081,-3.059586,-1.636726,0.01224632,0.01978308,0.001665668,-1.088651,-2.495964,1.650454
0,3.666657,141,135,502,496,0.007967034,0.006173952,-0.002142346,-1.501255,-3.059464,-1.636701,0.01085868,0.01395927,0.003325181,-1.088706,-2.495969,1.650384
0,3.677768,141,135,502,496,0.009075424,-0.002569273,-0.008756099,-1.501444,-3.059173,-1.63698,0.008125353,0.004119223,-0.002015176,-1.088524,-2.496298,1.650543
0,3.688879,141,135,502,496,0.00801189,-0.004979698,-0.006947469,-1.501506,-3.059052,-1.636994,0.006663886,0.000413646,-0.001879983,-1.088496,-2.496406,1.65057
0,3.69999,141,135,502,496,0.009083764,-0.01055377,-0.005584444,-1.501567,-3.058702,-1.637047,0.005405368,0.002430307,-0.00198117,-1.088469,-2.496301,1.650459
0,3.711101,143,144,502,498,0.0122743,-0.009488069,-0.005427003,-1.501732,-3.05862,-1.63714,0.01229163,0.007578457,0.004123138,-1.088802,-2.496165,1.650088
0,3.722212,143,144,502,498,0.009062259,-0.003020526,-0.005597076,-1.501768,-3.058742,-1.63722,0.01471274,-0.002502111,-0.002549717,-1.088878,-2.496626,1.650343
0,3.733323,143,144,502,498,0.009040007,0.00210524,-0.00379951,-1.501856,-3.05887,-1.637266,0.01203197,-0.008364545,-0.007588176,-1.088778,-2.496994,1.650648
0,3.744434,143,144,502,498,0.007979484,0.002401302,-0.005912009,-1.50192,-3.058889,-1.637385,0.01280941,-0.007494975,-0.0004590736,-1.088879,-2.497036,1.650449
0,3.755545,143,144,502,498,0.007977325,0.001954373,-0.002744914,-1.502084,-3.058921,-1.637291,0.01226129,-0.002489281,0.005035218,-1.089032,-2.496868,1.650184
0,3.766656,143,150,501,496,0.003726666,-0.001375887,-0.00214924,-1.502036,-3.058788,-1.637305,0.01454105,0.01214136,0.01111497,-1.089486,-2.496325,1.649796
0,3.777767,143,150,501,496,0.004793591,-0.001069439,-0.004261083,-1.502065,-3.058818,-1.637472,0.01771443,0.01917903,0.01181578,-1.089881,-2.496007,1.649624
0,3.788878,143,150,501,496,0.007950518,0.009942695,-0.005929313,-1.502233,-3.05921,-1.637646,0.02768143,0.01108784,0.007577123,-1.090444,-2.496299,1.649716
0,3.799989,143,150,501,496,0.004741296,0.01459793,-0.008504153,-1.502183,-3.059442,-1.637813,0.02412726,-0.005602077,-0.001280801,-1.090402,-2.496926,1.650019
0,3.8111,146,137,501,498,0.006859422,0.01807616,-0.01015896,-1.502322,-3.059754,-1.637993,0.01777411,-0.01358722,-0.003904848,-1.090311,-2.497226,1.65023
0,3.822211,146,137,501,498,0.004729341,0.01791561,-0.009111298,-1.502406,-3.059881,-1.638116,0.001577341,-0.01962605,0.007022633,-1.089712,-2.49719,1.649837
0,3.833322,146,137,501,498,0.004736346,0.0155058,-0.007303867,-1.502516,-3.059935,-1.638203,0.002353169,-0.01874978,0.0141454,-1.089807,-2.497149,1.649504
0,3.844433,146,137,501,498,-0.0005497742,0.008099808,-0.008363551,-1.502391,-3.059849,-1.638345,0.003048663,-0.009676374,0.01852771,-1.089886,-2.496891,1.649132
0,3.855544,146,137,501,498,-0.0005251649,0.002523222,-0.007005102,-1.502414,-3.059672,-1.63843,0.001554512,-0.001189923,0.01621883,-1.090023,-2.496601,1.649096
0,3.866655,143,135,501,498,-0.0005133664,0.000414607,-0.007304244,-1.502395,-3.059609,-1.638532,-0.002823186,0.003857889,0.01449111,-1.08996,-2.496322,1.648978
0,3.877766,143,135,501,498,-0.003688768,-0.004268333,-0.004751091,-1.502345,-3.059453,-1.63854,-0.007803053,0.01386615,0.007762391,-1.089957,-2.496021,1.649135
0,3.888877,143,135,501,498,-0.01219486,-0.008671577,-0.004324714,-1.501983,-3.05926,-1.638563,-0.01087632,0.0208595,0.006451339,-1.08994,-2.495626,1.649064
0,3.899988,143,135,501,498,-0.008984406,-0.01061554,-0.005670877,-1.501984,-3.059081,-1.638648,-0.006354745,0.01957761,0.00372228,-1.090066,-2.495488,1.64908
0,3.911099,143,135,501,498,-0.007935693,-0.0104505,0.0008140441,-1.502008,-3.059114,-1.638442,-0.005948001,0.02096495,0.004153176,-1.090154,-2.495239,1.648871
0,3.92221,136,137,500,498,-0.008987777,-0.01377331,0.001409855,-1.501906,-3.058818,-1.638457,-0.009761982,0.01289728,0.002055228,-1.089949,-2.495224,1.648928
0,3.933321,136,137,500,498,-0.008992393,-0.01407194,0.003524096,-1.501867,-3.058677,-1.638326,-0.01407919,0.005656417,0.0003840197,-1.089676,-2.495302,1.649068
0,3.944432,136,137,500,498,-0.006838026,-0.02068923,0.004742185,-1.501873,-3.058287,-1.638212,-0.01789959,0.003674017,-0.002933392,-1.089394,-2.495219,1.649207
0,3.955544,136,137,500,498,-0.008957056,-0.02400514,0.005340931,-1.501777,-3.058006,-1.63811,-0.02206236,0.006438969,0.00260287,-1.089141,-2.494889,1.649031
0,3.966655,127,148,501,496,-0.008939968,-0.03439319,0.01033173,-1.501747,-3.057313,-1.637775,-0.03432252,0.02021974,0.003725995,-1.088809,-2.493961,1.648882
0,3.977766,127,148,501,496,-0.007871052,-0.04055033,0.01593481,-1.501835,-3.05677,-1.637397,-0.0395067,0.02247395,0.001176273,-1.088473,-2.493455,1.648863
0,3.988877,127,148,501,496,-0.006812371,-0.05001481,0.02215369,-1.501847,-3.056003,-1.636915,-0.04429528,0.01593639,-0.002428489,-1.087916,-2.493206,1.649011
0,3.999988,127,148,501,496,-0.005814206,-0.0427398,0.03182239,-1.501914,-3.055772,-1.636214,-0.02838708,0.006567929,0.005389605,-1.088014,-2.493392,1.64859
1,4.011099,127,148,501,496,-0.006920341,-0.03894668,0.03559242,-1.501818,-3.055516,-1.635695,-0.02090374,0.008756906,0.01258702,-1.088009,-2.493145,1.648133
2,4.02221,122,150,500,497,-0.004819371,-0.03268877,0.0451087,-1.502127,-3.055398,-1.634907,-0.01175275,-0.006173206,0.004765538,-1.087908,-2.49376,1.64839
3,4.033321,122,150,500,497,-0.003802944,-0.02219069,0.0551823,-1.502154,-3.05563,-1.634028,0.005786409,-0.02265226,-0.01380276,-1.087965,-2.494924,1.64902
4,4.044433,122,150,500,497,-0.003828511,-0.01125354,0.0620665,-1.502115,-3.055932,-1.633162,-0.03159873,-0.002818185,-0.01715157,-1.087102,-2.494161,1.649455
5,4.055544,122,150,500,497,-0.003850229,-0.007063301,0.07123856,-1.502043,-3.056055,-1.632159,-0.07473245,0.01017291,-0.006382138,-1.085553,-2.492609,1.649096
6,4.066655,122,132,500,500,-0.01029427,-0.01437646,0.0863582,-1.501773,-3.05579,-1.630799,-0.07382224,0.06193512,0.02936677,-1.085656,-2.489701,1.647451
7,4.077766,122,132,500,500,-0.02548364,-0.04847787,0.1183192,-1.501165,-3.054531,-1.628647,-0.01705988,0.1560797,0.05931097,-1.088764,-2.485903,1.645323
8,4.088878,122,132,500,500,-0.03864944,-0.06911447,0.1564759,-1.500458,-3.053472,-1.625783,0.01148443,0.1834435,0.04744091,-1.090873,-2.483613,1.644828
9,4.099989,122,132,500,500,-0.06095923,-0.1151681,0.2140459,-1.499476,-3.051291,-1.6216,0.01318331,0.2022289,-0.01053786,-1.092149,-2.4821,1.646572
10,4.1111,122,132,500,500,-0.08351441,-0.1540441,0.2425544,-1.498168,-3.048931,-1.618124,-0.01549724,0.1851557,-0.03471284,-1.091939,-2.480601,1.647411
11,4.122211,117,134,500,496,-0.09654354,-0.1840099,0.2508196,-1.496931,-3.046328,-1.615073,-0.08603944,0.1412165,-0.07976992,-1.08967,-2.479877,1.649705
12,4.133323,117,134,500,496,-0.1010719,-0.2058675,0.26351,-1.495942,-3.043811,-1.611776,-0.1464446,0.1214383,-0.1132653,-1.087358,-2.478622,1.651917
13,4.144434,117,134,500,496,-0.1120368,-0.2456918,0.2979021,-1.494617,-3.040269,-1.607336,-0.1690585,0.1321566,-0.127042,-1.086049,-2.476629,1.653772
14,4.155545,117,134,500,496,-0.1302314,-0.2858373,0.3552508,-1.493131,-3.036511,-1.601591,-0.1814329,0.152799,-0.1373842,-1.085441,-2.474363,1.655402
15,4.166656,112,122,500,494,-0.1491584,-0.3255126,0.4065018,-1.491406,-3.032191,-1.595557,-0.1319068,0.1392433,-0.1535383,-1.085919,-2.474088,1.657666
16,4.177768,112,122,500,494,-0.1696512,-0.3218938,0.4506998,-1.489289,-3.029101,-1.58946,-0.07749817,0.1239696,-0.1795908,-1.08714,-2.474903,1.660675
17,4.188879,112,122,500,494,-0.1740744,-0.278384,0.5240409,-1.487324,-3.02777,-1.581489,-0.03113294,0.1347374,-0.230111,-1.089082,-2.475506,1.66503
18,4.19999,112,122,500,494,-0.1809641,-0.2149515,0.6493307,-1.485292,-3.027859,-1.570833,-0.01350575,0.2064786,-0.2172445,-1.091343,-2.472403,1.666795
19,4.211102,112,122,500,494,-0.2080664,-0.1374201,0.8065489,-1.482174,-3.028836,-1.557698,-0.1573579,0.3190974,-0.1707537,-1.089376,-2.463731,1.666563
20,4.222213,113,120,501,497,-0.2406065,-0.07545482,0.9437382,-1.478649,-3.02987,-1.543547,-0.3970897,0.4346398,-0.1506179,-1.083477,-2.451967,1.667125
21,4.233324,113,120,501,497,-0.2994725,-0.0677838,1.074932,-1.474087,-3.029044,-1.528656,-0.5777558,0.5866538,-0.1402486,-1.078864,-2.438172,1.667771
22,4.244435,113,120,501,497,-0.4026208,-0.140173,1.206645,-1.467674,-3.025235,-1.51208,-0.6745408,0.6465963,-0.1586678,-1.074393,-2.426193,1.669415
23,4.255547,113,120,501,497,-0.4885799,-0.2083102,1.30136,-1.460976,-3.020229,-1.495836,-0.802094,0.6507837,-0.255231,-1.067906,-2.416502,1.674993
24,4.266658,113,120,501,497,-0.6366062,-0.3338068,1.47567,-1.451459,-3.011373,-1.475263,-0.9101436,0.549291,-0.3592212,-1.058861,-2.40984,1.68239
25,4.277769,125,131,507,496,-0.7860541,-0.4860032,1.646235,-1.441378,-2.999972,-1.453976,-0.9492682,0.3485891,-0.4656354,-1.049324,-2.409154,1.69135
26,4.28888,125,131,507,496,-0.9096856,-0.6316008,1.773986,-1.431167,-2.986578,-1.432838,-0.9596225,0.08558547,-0.5608578,-1.038088,-2.412594,1.70193
27,4.299992,125,131,507,496,-0.9843225,-0.7011799,1.838639,-1.421365,-2.974,-1.412686,-0.9886933,-0.08673546,-0.6033739,-1.026356,-2.414594,1.71138
28,4.311103,125,131,507,496,-1.043865,-0.7294818,1.967225,-1.411721,-2.961286,-1.389572,-1.064437,-0.2866162,-0.6546445,-1.011167,-2.418301,1.722475
29,4.322214,145,123,499,497,-1.113433,-0.6805298,2.135766,-1.401126,-2.950123,-1.363318,-1.130683,-0.3960004,-0.7043785,-0.9964041,-2.421143,1.734451
30,4.333325,145,123,499,497,-1.164018,-0.5597535,2.277633,-1.39028,-2.941178,-1.336178,-1.211238,-0.4797369,-0.7557924,-0.9810281,-2.423303,1.747143
31,4.344437,145,123,499,497,-1.187195,-0.3556619,2.350972,-1.379019,-2.935816,-1.308841,-1.305222,-0.5917053,-0.8266955,-0.9633868,-2.427313,1.762301
32,4.355548,145,123,499,497,-1.165188,-0.1491053,2.380616,-1.368863,-2.932643,-1.282178,-1.385026,-0.631445,-0.8472878,-0.946398,-2.429095,1.776127
33,4.366659,145,123,499,497,-1.14509,0.04870206,2.415759,-1.358444,-2.93094,-1.253643,-1.447707,-0.6564289,-0.845989,-0.9289846,-2.43015,1.789789
34,4.37777,256,126,487,497,-1.117757,0.2318028,2.457684,-1.348495,-2.929476,-1.224645,-1.480701,-0.7003495,-0.8405256,-0.9119068,-2.432184,1.803483
35,4.388882,256,126,487,497,-1.07713,0.4401299,2.491804,-1.338763,-2.930642,-1.194241,-1.531992,-0.7727842,-0.8666322,-0.8931683,-2.435659,1.819566
36,4.399993,256,126,487,497,-1.035715,0.6520458,2.507136,-1.329189,-2.933459,-1.163054,-1.534976,-0.8162965,-0.8800288,-0.8757688,-2.439512,1.835792
37,4.411104,256,126,487,497,-0.9975772,0.8276119,2.499728,-1.319731,-2.93679,-1.131855,-1.535918,-0.898307,-0.9171496,-0.8576087,-2.445545,1.854181
38,4.422215,207,116,500,498,-0.9137237,1.026452,2.486734,-1.311868,-2.942774,-1.099571,-1.548425,-0.9954636,-0.9570431,-0.8386965,-2.453064,1.874423
39,4.433327,207,116,500,498,-0.8452492,1.176834,2.456917,-1.304273,-2.948759,-1.067439,-1.571122,-1.109544,-0.9708927,-0.8184757,-2.461457,1.894982
40,4.444438,207,116,500,498,-0.7310517,1.326016,2.422016,-1.298933,-2.95634,-1.03478,-1.572597,-1.180957,-0.9524335,-0.7988045,-2.46951,1.915168
41,4.455549,207,116,500,498,-0.5841408,1.4633,2.357864,-1.295564,-2.965026,-1.002721,-1.557433,-1.221771,-0.9133701,-0.7798961,-2.477228,1.934222
42,4.46666,207,116,500,498,-0.4344409,1.583656,2.28021,-1.293649,-2.975024,-0.9707126,-1.535458,-1.248978,-0.8454698,-0.7612401,-2.484273,1.952063
43,4.477772,280,128,489,499,-0.3348906,1.688475,2.206465,-1.291169,-2.984958,-0.9386119,-1.514512,-1.28904,-0.8178881,-0.7427327,-2.493173,1.972087
44,4.488883,280,128,489,499,-0.2095747,1.785029,2.107902,-1.290885,-2.99655,-0.9073337,-1.513412,-1.338946,-0.8008562,-0.7235926,-2.502614,1.993471
45,4.499994,280,128,489,499,-0.161684,1.815892,2.031791,-1.289323,-3.005301,-0.8771915,-1.47661,-1.436544,-0.8041205,-0.7042357,-2.516423,2.018053
46,4.511106,280,128,489,499,-0.1084585,1.790345,1.953937,-1.288992,-3.012398,-0.8487878,-1.44772,-1.503857,-0.7615296,-0.6848478,-2.52956,2.041279
47,4.522217,382,127,476,495,-0.07654667,1.775419,1.88116,-1.288255,-3.019263,-0.8200054,-1.453362,-1.501908,-0.6419186,-0.66528,-2.540253,2.061974
48,4.533328,382,127,476,495,-0.04633617,1.764193,1.808616,-1.288192,-3.026387,-0.7921802,-1.453891,-1.464727,-0.5506198,-0.6466368,-2.545299,2.078089
49,4.544439,382,127,476,495,-0.04254937,1.750507,1.741431,-1.287682,-3.032668,-0.7651075,-1.451232,-1.463728,-0.4525215,-0.6273923,-2.552628,2.095398
50,4.555551,382,127,476,495,-0.03797793,1.764909,1.708051,-1.28729,-3.03897,-0.736706,-1.422846,-1.480433,-0.4019456,-0.6088668,-2.563582,2.115744
51,4.566662,382,127,476,495,-0.0677073,1.751495,1.680862,-1.28623,-3.043293,-0.7094193,-1.38099,-1.503087,-0.3788317,-0.5909139,-2.57549,2.137347
52,4.577773,314,109,509,498,-0.09814692,1.722662,1.604969,-1.284664,-3.047569,-0.6840143,-1.329488,-1.502497,-0.3468975,-0.5737999,-2.588116,2.159096
53,4.588884,314,109,509,498,-0.09389043,1.692456,1.511648,-1.28407,-3.052769,-0.6597114,-1.302785,-1.487584,-0.3040892,-0.5567322,-2.59915,2.17978
54,4.599996,314,109,509,498,-0.09044969,1.657246,1.427605,-1.283569,-3.057467,-0.636006,-1.278953,-1.508869,-0.1862425,-0.5381055,-2.60991,2.198848
55,4.611107,314,109,509,498,-0.1099359,1.624668,1.359156,-1.282367,-3.061275,-0.6136605,-1.245739,-1.53027,-0.1533367,-0.5198767,-2.622944,2.220017
56,4.622218,314,109,509,498,-0.1572262,1.591071,1.303156,-1.280175,-3.06434,-0.5912899,-1.183726,-1.547334,-0.09822279,-0.5021726,-2.637576,2.241741
57,4.633329,416,106,494,498,-0.1614649,1.599446,1.262012,-1.278861,-3.068255,-0.5681716,-1.113744,-1.610036,-0.1308341,-0.4856391,-2.65983,2.27197
58,4.644441,416,106,494,498,-0.1807582,1.54939,1.195237,-1.276959,-3.070773,-0.5481435,-1.046145,-1.649774,-0.1734693,-0.4705374,-2.684931,2.304981
59,4.655552,416,106,494,498,-0.1743711,1.54612,1.148605,-1.275985,-3.074364,-0.5265837,-0.9964445,-1.636274,-0.1491839,-0.4556466,-2.70601,2.333272
60,4.666663,416,106,494,498,-0.1606282,1.549964,1.102948,-1.275111,-3.077846,-0.5053939,-0.9112946,-1.590965,-0.09330088,-0.4417071,-2.726369,2.358887
61,4.677774,387,111,502,497,-0.162146,1.550214,1.086981,-1.274273,-3.080531,-0.483588,-0.865275,-1.560449,-0.06995201,-0.4282166,-2.748534,2.38726
62,4.688886,387,111,502,497,-0.1580414,1.546674,1.047013,-1.273369,-3.083362,-0.4629096,-0.8288581,-1.532016,-0.01579899,-0.4142861,-2.769781,2.414456
63,4.699997,387,111,502,497,-0.1457714,1.531915,0.9694444,-1.272428,-3.08733,-0.4433796,-0.7792898,-1.551527,-0.004767478,-0.4007269,-2.798076,2.448367
64,4.711108,387,111,502,497,-0.1334814,1.529631,0.9194521,-1.271847,-3.09087,-0.4233579,-0.7634403,-1.553214,0.01700461,-0.3873509,-2.825344,2.482333
65,4.722219,387,111,502,497,-0.1149608,1.521338,0.8732411,-1.271595,-3.094312,-0.4039914,-0.7457353,-1.509849,0.08699483,-0.3737416,-2.84879,2.51183
66,4.733331,477,131,490,496,-0.09681129,1.525631,0.8392161,-1.271502,-3.09768,-0.3841312,-0.7071385,-1.463028,0.1135427,-0.3621185,-2.874191,2.542563
67,4.744442,477,131,490,496,-0.08528221,1.500816,0.8101702,-1.271584,-3.100282,-0.3654587,-0.6581252,-1.456331,0.09791195,-0.3515149,-2.90589,2.579868
68,4.755553,477,131,490,496,-0.05213165,1.48924,0.7739902,-1.272391,-3.103325,-0.346971,-0.6055418,-1.477875,0.1111403,-0.3405954,-2.941708,2.620301
69,4.766665,477,131,490,496,0.004426122,1.483055,0.7291994,-1.274335,-3.10714,-0.3287012,-0.5835618,-1.468376,0.2179789,-0.3272093,-2.972696,2.65555
70,4.777776,615,132,476,496,0.01512229,1.509339,0.7059402,-1.275176,-3.110813,-0.3090492,-0.5389262,-1.414318,0.2567623,-0.3164336,-3.002758,2.689752
71,4.788887,615,132,476,496,0.01273322,1.537224,0.6827247,-1.27577,-3.114243,-0.2892523,-0.511493,-1.374563,0.2429504,-0.3073767,-3.036844,2.728668
72,4.799998,615,132,476,496,-0.01730275,1.51152,0.6480098,-1.275176,-3.116787,-0.2711929,-0.4853156,-1.361335,0.2232997,-0.2994506,-3.074661,2.771682
73,4.81111,615,132,476,496,-0.01024032,1.489479,0.6091796,-1.274871,-3.119057,-0.2527505,-0.4515737,-1.367935,0.26484,-0.2896805,-3.115841,2.816839
74,4.822221,615,132,476,496,0.003201127,1.4512,0.5607983,-1.275697,-3.122046,-0.2364328,-0.3681657,-1.346097,0.3353893,-0.2796564,3.126204,2.859448
75,4.833332,517,203,481,493,0.005622983,1.428761,0.5273953,-1.276087,-3.124678,-0.2193688,-0.3219194,-1.310498,0.3231659,-0.2728643,3.084102,2.904382
76,4.844443,517,203,481,493,-0.005411148,1.398183,0.500026,-1.276358,-3.126956,-0.2033281,-0.2873862,-1.280037,0.3031454,-0.2669931,3.040598,2.950847
77,4.855555,517,203,481,493,0.002626657,1.372051,0.472371,-1.277199,-3.129268,-0.1875249,-0.2689036,-1.237666,0.2566272,-0.2628993,2.99827,2.997072
78,4.866666,517,203,481,493,0.01794326,1.340069,0.4388262,-1.278271,-3.131781,-0.1725356,-0.2462583,-1.227334,0.2630624,-0.2579458,2.951247,3.04725
79,4.877777,517,203,481,493,0.02769327,1.308373,0.405784,-1.279272,-3.13427,-0.1578077,-0.1907344,-1.207812,0.262408,-0.2541018,2.903363,3.096856
80,4.888888,516,214,462,496,0.03340578,1.282492,0.3769021,-1.280228,-3.136673,-0.1433686,-0.1664518,-1.174163,0.228337,-0.2520235,2.857819,-3.13806
81,4.9,516,214,462,496,0.01082528,1.234586,0.3369595,-1.280075,-3.138918,-0.1302174,-0.1443282,-1.164955,0.2256184,-0.2499084,2.808975,-3.086765
82,4.911111,516,214,462,496,0.003009439,1.182509,0.3069288,-1.280146,-3.140998,-0.1174523,-0.1024561,-1.109597,0.2333148,-0.247886,2.765159,-3.041536
83,4.922222,516,214,462,496,-0.0002367496,1.142065,0.2807016,-1.280447,3.140209,-0.1051368,-0.08084142,-1.096792,0.1990046,-0.2481294,2.719955,-2.994227
84,4.933333,531,201,514,503,0.008273244,1.087793,0.2459149,-1.280788,3.1379,-0.09357975,-0.1273398,-1.026819,0.07989135,-0.2511718,2.687803,-2.956993
85,4.944445,531,201,514,503,0.006585956,1.027545,0.2304679,-1.281229,3.136477,-0.0831865,0.1054199,-1.258,-0.2026519,-0.2676477,2.623295,-2.892443
86,4.955556,531,201,514,503,0.01819021,0.9899763,0.2127166,-1.282131,3.134128,-0.07211255,-0.05670941,-1.040051,0.151336,-0.2566867,2.591535,-2.857233
87,4.966667,531,201,514,503,0.02826184,0.9297798,0.1984805,-1.283113,3.132814,-0.06296991,0.02309448,-0.9238062,0.07223219,-0.2602047,2.565505,-2.831547
88,4.977778,531,201,514,503,0.03821158,0.8825901,0.18336,-1.283563,3.130949,-0.05322807,0.01909488,-0.8619798,0.03960389,-0.2632663,2.540688,-2.804719
89,4.98889,578,276,468,493,0.05459881,0.8605091,0.1689454,-1.284902,3.12927,-0.04384735,-0.01585019,-0.769519,0.06853363,-0.2634814,2.519267,-2.781062
90,5.000001,578,276,468,493,0.07959127,0.8218408,0.1525451,-1.286672,3.127071,-0.03607465,-0.03680849,-0.6886061,0.04169609,-0.265555,2.501326,-2.760855
91,5.011112,578,276,468,493,0.08792096,0.7608001,0.1463297,-1.287806,3.125304,-0.02914404,-0.03932512,-0.6477228,0.04620637,-0.2673436,2.480428,-2.738153
91,5.022223,578,276,468,493,0.08075845,0.7313609,0.1391414,-1.288843,3.124278,-0.02149491,0.0004099011,-0.6123342,0.04028311,-0.2696642,2.459152,-2.716494
91,5.033335,744,363,439,513,0.06821418,0.6738628,0.1242534,-1.289563,3.122948,-0.01517363,0.01414758,-0.5964708,0.01795819,-0.2728488,2.439687,-2.695693
91,5.044446,744,363,439,513,0.05142295,0.6140899,0.1089373,-1.289934,3.122197,-0.009642773,0.02476352,-0.551206,0.0009083599,-0.2754657,2.425016,-2.680195
91,5.055557,744,363,439,513,0.03949273,0.5728515,0.09623782,-1.290859,3.121029,-0.004207795,0.04918283,-0.5152817,-0.0166026,-0.278572,2.41029,-2.665038
91,5.066669,744,363,439,513,0.04430762,0.5176829,0.08737957,-1.291651,3.120415,0.0001917476,0.08124685,-0.4763727,-0.008934371,-0.2809028,2.395867,-2.650986
91,5.07778,744,363,439,513,0.05010137,0.4747684,0.08280909,-1.292719,3.119786,0.00471273,0.07987881,-0.4251398,-0.002426729,-0.2825987,2.384792,-2.63985
91,5.088891,831,360,485,495,0.0563516,0.4434625,0.07659043,-1.293922,3.119297,0.00887312,0.05403009,-0.3822553,-0.009219274,-0.2844166,2.376333,-2.630296
91,5.100002,831,360,485,495,0.04298431,0.4356126,0.07202533,-1.2941,3.119007,0.01361621,0.04971865,-0.3811772,-0.01159041,-0.2866845,2.364589,-2.617787
91,5.111114,831,360,485,495,-0.005112797,0.3962485,0.05048606,-1.292984,3.118741,0.01735316,0.05922794,-0.3447675,0.02938054,-0.2872603,2.352471,-2.606052
91,5.122225,831,360,485,495,-0.02603096,0.3617471,0.03132091,-1.292171,3.118019,0.02063737,0.07317108,-0.2951216,0.01365769,-0.2887436,2.346272,-2.600377
91,5.133336,815,352,481,506,-0.02726689,0.3332483,0.02086484,-1.291781,3.117345,0.02373835,0.08204874,-0.3137119,-0.005227897,-0.2916007,2.335779,-2.589739
91,5.144447,815,352,481,506,-0.006041497,0.3121662,0.0100493,-1.292278,3.116291,0.02664439,0.07473838,-0.3026376,-0.01572827,-0.2937658,2.327835,-2.581456
91,5.155559,815,352,481,506,0.00884223,0.3035393,0.008806193,-1.292972,3.115735,0.02988493,0.07976604,-0.2658027,-0.03323575,-0.2957174,2.323327,-2.577218
91,5.16667,815,352,481,506,0.02450687,0.2866212,0.01960839,-1.293803,3.115386,0.03270628,0.0864497,-0.2017252,-0.03853083,-0.2967789,2.321414,-2.576184
91,5.177781,815,352,481,506,0.04795669,0.2576604,0.03796503,-1.29513,3.115642,0.03467276,0.09090562,-0.1289126,-0.03891168,-0.2972423,2.322251,-2.578134
91,5.188892,819,319,469,504,0.07967325,0.2115398,0.06263791,-1.297092,3.116264,0.03571725,0.09629635,-0.09610176,-0.03604425,-0.2981249,2.320583,-2.577387
91,5.200004,819,319,469,504,0.1149657,0.1668101,0.08311442,-1.299388,3.1169,0.03655242,0.110885,-0.0883986,-0.05193077,-0.2997835,2.318867,-2.576805
91,5.211115,819,319,469,504,0.1433302,0.1345774,0.08983633,-1.301783,3.117522,0.03707866,0.1058734,-0.08638013,-0.09404363,-0.3023993,2.319687,-2.577941
91,5.222226,819,319,469,504,0.14942,0.1291076,0.09200493,-1.303833,3.117796,0.03836656,0.08143793,-0.06572964,-0.07873084,-0.3030475,2.319839,-2.578216
91,5.233337,819,319,469,504,0.1404925,0.1226954,0.08849306,-1.305049,3.118097,0.03969974,0.06379343,-0.06000422,-0.05278136,-0.3031125,2.318133,-2.576579
91,5.244449,835,342,437,502,0.1347432,0.1105358,0.08221319,-1.306556,3.118277,0.04062333,0.03791274,-0.04560441,-0.01715686,-0.3024184,2.316523,-2.574775
91,5.25556,835,342,437,502,0.1257703,0.0946188,0.07194854,-1.307609,3.11852,0.0412497,0.005058765,-0.03482619,0.01046242,-0.3015934,2.315562,-2.573371
91,5.266671,835,342,437,502,0.113416,0.07367274,0.05837323,-1.308597,3.118517,0.04147927,0.007075854,-0.04868932,0.03351085,-0.3013037,2.311113,-2.568936
91,5.277782,835,342,437,502,0.08144847,0.06374307,0.04287378,-1.308504,3.118737,0.04207369,0.03422967,-0.01743734,0.06078901,-0.3003375,2.308912,-2.568354
91,5.288894,760,332,487,491,0.06249992,0.05400827,0.03588209,-1.30874,3.118814,0.04240285,0.03258181,-0.006069899,0.03251766,-0.3008488,2.310473,-2.57033
91,5.300005,760,332,487,491,0.03265892,0.01331014,0.02167852,-1.308207,3.119131,0.04151442,0.02015633,-0.02154015,-0.04522629,-0.3032392,2.314123,-2.573253
91,5.311116,760,332,487,491,0.02707703,-0.007513694,0.01497657,-1.308207,3.119287,0.04104783,0.004361767,-0.0345125,-0.07954276,-0.3049048,2.316222,-2.574534
91,5.322227,760,332,487,491,0.01617403,-0.02087739,0.007286588,-1.308035,3.11931,0.0404433,-0.004052342,-0.01878045,-0.03582359,-0.3042241,2.315602,-2.573812
91,5.333339,760,332,487,491,0.00725236,-0.0284643,0.003870693,-1.307828,3.119469,0.039957,-0.004905744,0.007883651,-0.0002489497,-0.3028312,2.315941,-2.574555
91,5.34445,741,337,495,510,0.008611649,-0.02788926,0.006699405,-1.307993,3.119647,0.03965021,-0.002245236,0.03469089,0.05065316,-0.3006474,2.314965,-2.574257
91,5.355561,741,337,495,510,0.03514967,-0.03342372,0.01110255,-1.309007,3.119799,0.03923422,0.01272608,0.06030917,0.05781718,-0.2995401,2.316437,-2.576725
91,5.366673,741,337,495,510,0.08529941,-0.04250896,0.02954648,-1.311443,3.120204,0.03845178,0.0152366,0.06269302,0.04303118,-0.2991683,2.318033,-2.578782
91,5.377784,741,337,495,510,0.1344088,-0.04952893,0.04777599,-1.314432,3.120903,0.03748932,0.01224798,0.05775674,0.006505184,-0.2998842,2.321181,-2.581933
91,5.388895,765,368,506,521,0.1988611,-0.03914162,0.06627665,-1.31824,3.121219,0.03760916,0.0105384,0.04993629,-0.02876225,-0.3006932,2.324759,-2.585342
91,5.400006,765,368,506,521,0.2019559,-0.02103214,0.07430836,-1.320762,3.12162,0.03781902,0.02002699,0.05294238,-0.04500399,-0.3012664,2.327846,-2.588909
91,5.411118,765,368,506,521,0.177416,-0.002192197,0.07037327,-1.321684,3.121786,0.03866803,0.03335355,0.04374046,-0.04339274,-0.3014906,2.328628,-2.590451
91,5.422229,765,368,506,521,0.1543846,-0.02760849,0.05878596,-1.322798,3.122057,0.03766988,0.03148084,0.06041161,-0.02576409,-0.3009047,2.330933,-2.593393
91,5.43334,765,368,506,521,0.1526885,-0.05075245,0.05379384,-1.32433,3.122348,0.03655082,0.03775555,0.04563116,-0.009740578,-0.3006501,2.330311,-2.59345
91,5.444451,819,425,475,492,0.1390809,-0.04074016,0.04296326,-1.325549,3.122301,0.0363122,0.02206759,0.0425493,0.0112311,-0.2998171,2.330044,-2.593237
91,5.455563,819,425,475,492,0.1168636,-0.02608769,0.03885677,-1.326143,3.122455,0.03667599,0.003309734,0.03709424,-0.0001631817,-0.2998059,2.331885,-2.594656
91,5.466674,819,425,475,492,0.07212788,-0.01459954,0.0322858,-1.325769,3.122676,0.03683258,-0.007285591,0.04114603,0.007228306,-0.2992413,2.333059,-2.595767
91,5.477785,819,425,475,492,0.03370119,-0.02028297,0.01566883,-1.325206,3.122853,0.03631007,-0.0038088,0.04209463,0.01613507,-0.2986746,2.333513,-2.596491
91,5.488896,764,312,482,498,0.02507272,-0.0223635,0.00709703,-1.325194,3.122755,0.03599742,-0.001413733,0.03232749,0.01127274,-0.2986597,2.333831,-2.59696
91,5.500008,764,312,482,498,0.0195198,-0.006829712,-0.001164245,-1.324911,3.122172,0.0367921,0.0004820032,0.01545112,0.007607426,-0.2988376,2.333174,-2.596246
91,5.511119,764,312,482,498,0.01506221,-0.001638335,-0.001246828,-1.324781,3.122241,0.03716335,0.005006714,0.01393332,-0.009026906,-0.299172,2.334845,-2.598067
91,5.52223,764,312,482,498,0.02114059,-0.001060033,0.00851831,-1.325251,3.122508,0.03715003,-0.0007208716,0.01417682,-0.03641061,-0.2999529,2.337525,-2.60048
91,5.533341,764,312,482,498,0.02468471,0.002911871,0.01153934,-1.325707,3.122791,0.03719531,-0.00960806,0.01607135,-0.03739556,-0.3000237,2.339629,-2.602257
91,5.544453,706,300,494,497,0.03417278,0.005677564,0.01706592,-1.326409,3.122945,0.03733432,-0.01157403,0.008442322,-0.01811717,-0.2997654,2.33876,-2.601228
91,5.555564,706,300,494,497,0.05022538,0.00858311,0.0188156,-1.326853,3.122801,0.03788932,-0.01709786,0.006467534,-0.01221732,-0.299644,2.339011,-2.601186
91,5.566675,706,300,494,497,0.08019035,0.003778002,0.03052492,-1.32875,3.123172,0.03764378,-0.01812076,-0.006408484,0.009449249,-0.2992232,2.336633,-2.598604
91,5.577786,706,300,494,497,0.1199273,0.003944274,0.04258412,-1.330586,3.12316,0.0382366,-0.0219716,-0.001273289,0.04001207,-0.2979582,2.335103,-2.597007
91,5.588898,706,300,494,497,0.1388522,0.005766302,0.05013886,-1.332824,3.123497,0.03819719,-0.0210746,-0.01133038,0.04037057,-0.2977926,2.33361,-2.595293
91,5.600009,599,296,477,499,0.1302216,0.01802953,0.05701382,-1.33408,3.124079,0.03871224,-0.02901586,-0.009660913,0.02988834,-0.2975971,2.333776,-2.594922
91,5.61112,599,296,477,499,0.1113615,0.0240591,0.04873999,-1.333826,3.123661,0.04023504,-0.02842476,-0.003922641,0.008359449,-0.2979214,2.33547,-2.596282
91,5.622231,599,296,477,499,0.0835998,0.02927812,0.04103751,-1.334048,3.123768,0.04071547,-0.0282518,-0.001160167,-0.01957512,-0.2986336,2.337918,-2.598292
91,5.633343,599,296,477,499,0.06382585,0.02890371,0.03661786,-1.334349,3.124357,0.04083052,-0.02676358,-0.002607306,-0.01617311,-0.2986314,2.337973,-2.598109
91,5.644454,560,285,474,504,0.03717791,0.01884647,0.02941179,-1.334298,3.124676,0.04060735,-0.02129988,-0.01395844,0.003981332,-0.2983609,2.335766,-2.595786
91,5.655565,560,285,474,504,0.02216174,0.01496633,0.02783918,-1.334232,3.124996,0.04070695,-0.02095216,-0.02494262,0.02790056,-0.2977521,2.332413,-2.592207
91,5.666677,560,285,474,504,0.001140084,0.01582365,0.02786207,-1.33397,3.125485,0.04075542,-0.0217182,-0.01403371,0.02218986,-0.2975278,2.332814,-2.592422
91,5.677788,560,285,474,504,-0.02401664,0.02583783,0.01848637,-1.333062,3.125701,0.04126035,-0.03264063,-0.0189529,-0.01415899,-0.2984237,2.335363,-2.594123
91,5.688899,560,285,474,504,-0.0327403,0.03160482,0.01387515,-1.332638,3.12588,0.04164758,-0.02798361,-0.01591132,-0.0159143,-0.2986448,2.335643,-2.594094
91,5.70001,529,267,505,507,-0.02842581,0.03770108,0.006178912,-1.33241,3.125779,0.04220152,-0.02145044,-0.01942007,-0.006581809,-0.2986431,2.334591,-2.592903
91,5.711122,529,267,505,507,-0.008138642,0.03953559,0.008835606,-1.333145,3.12598,0.04242043,-0.007265807,-0.02275592,0.007789861,-0.2985041,2.332579,-2.591125
91,5.722233,529,267,505,507,0.02511821,0.03794737,0.01657601,-1.334376,3.126024,0.04278741,-0.0008313991,-0.02690287,0.008543947,-0.2986394,2.331119,-2.589772
91,5.733344,529,267,505,507,0.05244879,0.04258897,0.02952639,-1.335771,3.126432,0.04313628,0.0004926622,-0.03861358,-0.0006573303,-0.2993446,2.329837,-2.588168
91,5.744455,492,278,481,495,0.08133131,0.04433853,0.04104015,-1.337605,3.126798,0.04349048,-0.004496079,-0.04690464,-0.02127381,-0.3003193,2.329638,-2.587451
91,5.755567,492,278,481,495,0.1014332,0.04853097,0.04828217,-1.339435,3.126985,0.04400501,-0.01062245,-0.0511259,-0.009972762,-0.3004141,2.327877,-2.585302
91,5.766678,492,278,481,495,0.1017192,0.04980414,0.0472999,-1.34075,3.127202,0.04443324,-0.01249417,-0.04734991,0.005822347,-0.3001793,2.326019,-2.58321
91,5.777789,492,278,481,495,0.09630945,0.05246927,0.04282916,-1.341807,3.127187,0.04500689,-0.01452853,-0.04522268,0.03234754,-0.2994501,2.323561,-2.580597
91,5.7889,492,278,481,495,0.08861934,0.05385891,0.03863983,-1.342708,3.127266,0.04553686,-0.003446348,-0.04557217,0.04199023,-0.2993659,2.32058,-2.577955
91,5.800012,452,254,502,505,0.05621538,0.05319706,0.03194057,-1.342658,3.127417,0.04608067,0.005713873,-0.04321556,0.01818378,-0.2999902,2.319971,-2.577453
91,5.811123,452,254,502,505,0.03691234,0.05427666,0.02575151,-1.342783,3.127673,0.04661331,-0.002727211,-0.0468587,-0.01462767,-0.3010187,2.320733,-2.577603
91,5.822234,452,254,502,505,0.02800289,0.0533562,0.0219879,-1.342909,3.127697,0.0471811,-0.01141422,-0.0369899,-0.01893863,-0.3012621,2.32126,-2.577698
91,5.833345,452,254,502,505,0.02255308,0.04616375,0.01795966,-1.34321,3.127786,0.04738403,-0.01042498,-0.03415718,-0.01783725,-0.3013836,2.320425,-2.576721
91,5.844457,452,254,502,505,0.02501448,0.0442896,0.01711117,-1.343638,3.127839,0.04781173,-0.01479056,-0.05133841,0.01437488,-0.3009969,2.316064,-2.571977
91,5.855568,477,264,506,503,0.02224903,0.04627078,0.01107998,-1.343994,3.127676,0.04833531,-0.01042023,-0.0532461,0.04376005,-0.3003396,2.311838,-2.567732
91,5.866679,477,264,506,503,0.0119488,0.04902863,0.004282269,-1.343951,3.127548,0.04881734,-0.003100824,-0.05204879,0.04868493,-0.3001255,2.308893,-2.564895
91,5.87779,477,264,506,503,-0.001151726,0.04471527,-0.0001408104,-1.343727,3.127453,0.04915929,0.01366275,-0.0470774,0.03080156,-0.3007353,2.307787,-2.564256
91,5.888902,477,264,506,503,-0.006531421,0.04628501,-0.004710931,-1.343517,3.127307,0.04973613,0.01437268,-0.03824526,0.001738079,-0.3015428,2.308818,-2.565274
91,5.900013,460,259,495,490,0.01009166,0.0425023,-0.008737811,-1.343938,3.12688,0.04998647,0.01396987,-0.02497833,-0.02327156,-0.3023476,2.310994,-2.567338
91,5.911124,460,259,495,490,0.0375394,0.03993778,-0.003990238,-1.345238,3.126722,0.05005358,0.01484622,-0.02137236,-0.01046233,-0.302289,2.309837,-2.566346
91,5.922235,460,259,495,490,0.05643181,0.03817519,-0.0003529694,-1.346345,3.126514,0.05043921,0.007667413,-0.02355574,0.00392122,-0.3021058,2.308271,-2.564668
91,5.933347,460,259,495,490,0.07291937,0.03366058,0.01214177,-1.347744,3.12661,0.05043441,0.01086713,-0.02402038,0.01064501,-0.3021154,2.306692,-2.563226
91,5.944458,460,259,495,490,0.08216736,0.03017035,0.02285457,-1.348956,3.126823,0.05065812,0.01082771,-0.02484048,0.01601006,-0.3020163,2.305174,-2.561776
91,5.955569,452,246,508,509,0.07956594,0.02894928,0.01624135,-1.349787,3.126616,0.05085306,0.01545953,-0.02814775,0.005817339,-0.3025506,2.304778,-2.561546
91,5.966681,452,246,508,509,0.07483715,0.02697589,0.0134137,-1.350598,3.126593,0.05100273,0.01405029,-0.03242057,0.003672948,-0.3028675,2.303509,-2.560246
91,5.977792,452,246,508,509,0.05295999,0.02752989,-0.003575145,-1.35058,3.126123,0.05130526,0.01713467,-0.0271751,0.00914499,-0.3027316,2.302251,-2.559275
91,5.988903,452,246,508,509,0.04074414,0.02530598,-0.007280186,-1.350747,3.125947,0.05140061,0.01391153,-0.01223481,0.009494111,-0.3025884,2.302863,-2.560037
91,6.000014,467,271,476,486,0.02285976,0.01902728,-0.01434751,-1.350478,3.125722,0.05138995,0.02201404,-0.01377816,0.0198761,-0.3024296,2.300947,-2.558581
91,6.011126,467,271,476,486,0.02247938,0.02092277,-0.01299828,-1.35089,3.125584,0.05154708,0.03218191,-0.01605802,0.02296459,-0.3025356,2.299423,-2.557665
91,6.022237,467,271,476,486,0.02659247,0.02094932,-0.01189707,-1.351263,3.125359,0.05177291,0.03854508,-0.01194428,0.007373306,-0.3029894,2.299457,-2.558227
91,6.033348,467,271,476,486,0.03557293,0.02082754,-0.008397376,-1.35198,3.125365,0.05184482,0.03166119,-0.01800521,-0.01978701,-0.3040329,2.30045,-2.559005
