loc,t,aDotS,bDotS,gDotS,aS,bS,gS,qE,qDotE,emg,aDotSH,bDotSH,gDotSH,aSH,bSH,gSH,aDotUB,bDotUB,gDotUB,aUB,bUB,gUB,xHand,yHand,zHand,aHand,bHand,gHand
2,0,0.04308118,-0.004935089,0.095916,-1.190365,-1.1321,-0.745896,-0.6265784,0.02398929,4.777416,-0.03726164,0.02376217,-0.01207899,-0.4241467,-0.8416122,1.238298,-0.03361568,0.02544623,-0.03634474,-0.9522611,-2.944357,1.693967,-0.7879374,1.147948,0.05439463,305.4469,218.8525,20.35414
2,0.01111111,0.03446807,0.007751338,0.0884051,-1.191183,-1.13171,-0.7461885,-0.6267973,-0.02028007,5.103148,-0.0308884,0.002489492,-0.02069663,-0.4245196,-0.8428905,1.239559,-0.02946539,0.008407298,-0.03960899,-0.9528024,-2.944433,1.69462,-0.7872854,1.147381,0.05320099,304.8747,221.1238,17.4974
2,0.02222222,0.02898617,0.03109664,0.07019515,-1.192133,-1.132565,-0.7460904,-0.6270876,-0.02637585,5.103148,-0.02771955,-0.0006807745,-0.02817617,-0.4249691,-0.8434955,1.240333,-0.01676787,-0.005478279,-0.0440058,-0.9534836,-2.944975,1.694738,-0.7862023,1.146457,0.05134897,304.8432,221.4375,16.38823
2,0.03333334,0.007598387,0.04576709,0.04560071,-1.192617,-1.133532,-0.7452531,-0.6262402,0.07757534,5.103148,-0.02347538,0.005724402,-0.03349077,-0.425457,-0.8432735,1.240212,-0.01353666,0.007322939,-0.04293353,-0.9536503,-2.943766,1.694382,-0.7848983,1.145388,0.04925533,305.0284,221.0645,15.86807
2,0.04444445,-0.01598336,0.06683184,0.03058379,-1.193576,-1.134378,-0.7441943,-0.6261576,0.006822888,5.103148,-0.02450778,-0.007078752,-0.0271423,-0.4255012,-0.8443366,1.241393,-0.003876777,0.03925738,-0.04512125,-0.9545802,-2.941856,1.693418,-0.7835839,1.144353,0.04726099,305.2319,220.8232,15.27051
2,0.05555556,-0.02663382,0.07095658,0.009232849,-1.193976,-1.135787,-0.7431412,-0.6254599,0.06382032,4.12595,-0.03186648,-0.009299999,-0.0004899167,-0.4247667,-0.8441656,1.24178,-0.001781302,0.04139706,-0.05045607,-0.9551023,-2.941051,1.692894,-0.7824749,1.143505,0.04564709,305.3983,220.7228,14.67247
2,0.06666667,-0.03827574,0.07069694,-0.03978696,-1.193317,-1.137601,-0.7417979,-0.625168,0.02618702,4.12595,-0.02115034,-0.002976248,0.01866559,-0.424191,-0.843389,1.241132,0.007801322,0.03283273,-0.04735206,-0.9554282,-2.940868,1.692491,-0.7817414,1.142956,0.04459513,305.5323,220.6981,14.22717
2,0.07777778,-0.05203855,0.06834035,-0.08029416,-1.192679,-1.139896,-0.7401191,-0.6254413,-0.02509233,4.12595,-0.01688151,-0.02961145,0.01962565,-0.4236328,-0.8453747,1.24303,0.02154833,-0.001300925,-0.0433019,-0.9562511,-2.941649,1.692629,-0.7814368,1.142805,0.04414747,305.6124,220.7753,13.97426
2,0.08888889,-0.05943795,0.06076092,-0.1037264,-1.191915,-1.141789,-0.7379881,-0.6254135,0.002846851,4.12595,-0.007354781,-0.06684122,0.003483091,-0.4235523,-0.8497593,1.246992,0.02464967,-0.01301851,-0.0497408,-0.9570314,-2.94215,1.69254,-0.7815258,1.143077,0.04430229,305.6087,220.8288,13.97956
2,0.1,-0.06577051,0.061669,-0.1399558,-1.190955,-1.144389,-0.7362575,-0.625323,0.008234847,4.12595,0.01813372,-0.1210883,-0.02022986,-0.4234804,-0.8570015,1.252705,0.03510911,-0.02368688,-0.06688701,-0.9581792,-2.942722,1.692366,-0.781957,1.143747,0.04501458,305.5368,220.8374,14.2099
2,0.1111111,-0.0656997,0.05838747,-0.1644502,-1.18968,-1.146695,-0.7348162,-0.6248133,0.04661007,8.143322,0.04262701,-0.1615526,-0.02472702,-0.4231113,-0.86375,1.257733,0.04463492,-0.03012878,-0.0701735,-0.9590245,-2.943522,1.692339,-0.7825649,1.144786,0.04619541,305.4044,220.9028,14.55888
2,0.1222222,-0.06454626,0.05402035,-0.1995892,-1.187869,-1.149617,-0.7330362,-0.625528,-0.06564721,8.143322,0.04587111,-0.1850302,-0.0120363,-0.422152,-0.869463,1.262466,0.04460381,-0.03118791,-0.07337131,-0.9599646,-2.94386,1.692034,-0.7831752,1.146143,0.0476771,305.2375,220.9938,15.00042
2,0.1333333,-0.07399375,0.04423016,-0.2368539,-1.18568,-1.152561,-0.7309376,-0.625869,-0.03052211,8.143322,0.03525585,-0.1744147,-0.001308464,-0.4213803,-0.8731142,1.265691,0.04457518,-0.03435139,-0.07445422,-0.9609681,-2.94377,1.69169,-0.7839845,1.147604,0.04919337,304.9969,221.0166,15.52943
2,0.1444445,-0.0867973,0.04832263,-0.2613794,-1.18414,-1.155862,-0.7279857,-0.625821,0.00462311,8.143322,0.01297529,-0.1436238,0.02551268,-0.4201595,-0.8743004,1.267281,0.04351288,-0.03434872,-0.07550602,-0.9618219,-2.944202,1.691269,-0.7848394,1.149037,0.05062683,304.7434,220.9679,16.08442
2,0.1555556,-0.09215718,0.05672885,-0.2837866,-1.182278,-1.159487,-0.7254573,-0.6255376,0.02584876,8.360477,0.0002627745,-0.1191921,0.04588248,-0.418928,-0.8750353,1.268299,0.03705573,-0.03430954,-0.08182935,-0.9626992,-2.944471,1.691345,-0.7856506,1.150348,0.05194869,304.5284,220.8159,16.5933
2,0.1666667,-0.09647338,0.06622779,-0.2987328,-1.18063,-1.162964,-0.7229646,-0.6248617,0.06160564,8.360477,-0.00611899,-0.1000313,0.04915946,-0.4182771,-0.8764628,1.269776,0.03596331,-0.03429598,-0.08289059,-0.9637325,-2.944663,1.691381,-0.7864558,1.15146,0.05315241,304.3607,220.6291,16.99892
2,0.1777778,-0.09332651,0.07682926,-0.3221994,-1.178727,-1.167121,-0.7204069,-0.6254418,-0.05343062,8.360477,-0.008254156,-0.1223956,0.04696154,-0.4172769,-0.8805209,1.273639,0.03174033,-0.03642198,-0.07753194,-0.9645112,-2.945109,1.691397,-0.7871461,1.152435,0.05429257,304.2741,220.5641,17.22224
2,0.1888889,-0.0869503,0.08319908,-0.3424488,-1.176651,-1.17124,-0.7181224,-0.625584,-0.01246073,8.360477,-0.02525558,-0.1543899,0.05757185,-0.4156358,-0.8858787,1.279256,0.02221785,-0.03424589,-0.07104531,-0.9649842,-2.945035,1.691304,-0.7877409,1.153332,0.05539669,304.2555,220.5222,17.39046
2,0.2,-0.07725784,0.07886493,-0.3882278,-1.173605,-1.176281,-0.7155674,-0.6258397,-0.02327974,8.360477,-0.04000916,-0.1801026,0.100152,-0.412701,-0.8907208,1.284559,0.02768863,-0.02683434,-0.0572283,-0.9652766,-2.945108,1.690896,-0.7882781,1.1542,0.05649307,304.2658,220.4877,17.5342
2,0.2111111,-0.07494557,0.06697004,-0.4446452,-1.169709,-1.181677,-0.712697,-0.6261529,-0.02840062,9.663409,-0.04405734,-0.1707046,0.1566606,-0.4091521,-0.8921643,1.286341,0.03625484,-0.03326645,-0.04772199,-0.9655706,-2.945585,1.690753,-0.7887782,1.15511,0.05764833,304.285,220.4336,17.67855
2,0.2222222,-0.07582217,0.05190127,-0.4893399,-1.165535,-1.187207,-0.7096738,-0.6262679,-0.01033392,9.663409,-0.03436589,-0.1580166,0.1854311,-0.4060362,-0.893531,1.287713,0.03518417,-0.05565035,-0.03923358,-0.9659157,-2.946985,1.691194,-0.7892911,1.156101,0.05893069,304.2986,220.3251,17.86492
2,0.2333333,-0.0821057,0.03571878,-0.553218,-1.161193,-1.194398,-0.7039299,-0.6260911,0.01622414,9.663409,0.004004925,-0.1558941,0.1895633,-0.4034737,-0.89584,1.288706,0.03929977,-0.07375699,-0.04889454,-0.966924,-2.948478,1.691537,-0.7898753,1.157232,0.06045828,304.3409,220.1414,18.10778
2,0.2444444,-0.08940695,0.02799441,-0.6086079,-1.155982,-1.201199,-0.7001206,-0.6259771,0.01026903,9.663409,0.03585893,-0.1760395,0.1627454,-0.4017938,-0.9013421,1.29276,0.05103127,-0.07380184,-0.04792652,-0.9675248,-2.949371,1.691106,-0.7906234,1.158559,0.06231936,304.4001,219.9161,18.44772
2,0.2555556,-0.09044352,0.03316016,-0.6544348,-1.1509,-1.208666,-0.6960555,-0.6239887,0.1817537,9.663409,0.07514741,-0.2142619,0.126252,-0.4005075,-0.9094429,1.298325,0.05956489,-0.08982514,-0.03950095,-0.9677688,-2.950937,1.691202,-0.7914081,1.160165,0.06464733,304.4432,219.6603,18.83847
2,0.2666667,-0.09374633,0.04582416,-0.6896228,-1.146716,-1.216643,-0.6908176,-0.625706,-0.1584576,7.383279,0.1230708,-0.2547157,0.1206135,-0.3982368,-0.9177919,1.303586,0.06057848,-0.09514625,-0.04377696,-0.9684601,-2.952268,1.691248,-0.7922562,1.162245,0.06755248,304.5558,219.5787,19.13737
2,0.2777778,-0.1033642,0.05840968,-0.7248201,-1.141955,-1.224644,-0.6863818,-0.626049,-0.02978135,7.383279,0.1752418,-0.3015479,0.1106766,-0.3960887,-0.9284195,1.310108,0.08387094,-0.1335761,-0.04511623,-0.9693139,-2.955083,1.691336,-0.7936895,1.164714,0.07076338,304.5806,219.4477,19.79548
2,0.2888889,-0.1087416,0.06785022,-0.7482989,-1.136909,-1.232761,-0.6815082,-0.6251675,0.08076248,7.383279,0.2083052,-0.3494978,0.1146628,-0.3933686,-0.9399414,1.317525,0.09346721,-0.1528086,-0.03670743,-0.9696772,-2.957723,1.691559,-0.7952324,1.167552,0.07434834,304.4202,219.2094,20.67758
2,0.3,-0.1268861,0.07927144,-0.7782105,-1.131242,-1.241197,-0.6762794,-0.6259616,-0.07328025,7.383279,0.2317683,-0.3963845,0.1197456,-0.3905819,-0.9531086,1.326532,0.1082198,-0.185874,-0.04222459,-0.970628,-2.961068,1.691875,-0.7968184,1.170654,0.07822818,304.141,219.019,21.56433
2,0.3111111,-0.1343971,0.09190609,-0.8027834,-1.126152,-1.25045,-0.6708236,-0.6257438,0.02060262,7.383279,0.2786568,-0.4741421,0.1193077,-0.3876519,-0.9706498,1.338504,0.1134299,-0.2285256,-0.04020349,-0.9712597,-2.965529,1.692878,-0.7985567,1.173827,0.08219668,303.8609,218.8767,22.53164
2,0.3222222,-0.1408618,0.1024865,-0.8070837,-1.121634,-1.259167,-0.6654111,-0.6255584,0.01668569,7.383279,0.2925212,-0.4997176,0.1223667,-0.3848156,-0.9861196,1.349169,0.1154659,-0.2530326,-0.04133371,-0.9721689,-2.969592,1.693823,-0.8000577,1.177038,0.08602867,303.6368,218.9225,23.69457
2,0.3333333,-0.1516765,0.1237246,-0.8018265,-1.117972,-1.267917,-0.6599159,-0.6257464,-0.01725086,7.383279,0.3565954,-0.5488317,0.1603187,-0.380408,-1.003741,1.359588,0.1238726,-0.298877,-0.04148084,-0.973013,-2.975114,1.694728,-0.8009064,1.180118,0.08933821,303.4573,218.8996,25.01524
2,0.3444445,-0.1860543,0.1596759,-0.7988054,-1.114676,-1.277464,-0.6528377,-0.6256649,0.007697063,7.383279,0.3823137,-0.5340492,0.1996941,-0.3760458,-1.016264,1.366316,0.1291149,-0.3308603,-0.03839174,-0.9739351,-2.98056,1.696208,-0.801326,1.183117,0.09213943,303.4496,218.7037,25.74751
2,0.3555556,-0.2451311,0.2157221,-0.77991,-1.112729,-1.287271,-0.6442655,-0.6256548,0.0008671863,7.383279,0.3920898,-0.5161132,0.2519189,-0.3708723,-1.028114,1.372746,0.1332676,-0.3777519,-0.03423733,-0.9746419,-2.986897,1.697995,-0.8015301,1.186072,0.09457307,303.4268,218.4534,26.11789
2,0.3666667,-0.2882164,0.27189,-0.763121,-1.111385,-1.297334,-0.6356422,-0.6245294,0.102988,7.817589,0.3986152,-0.4757744,0.2946612,-0.3656014,-1.037275,1.377007,0.1482054,-0.4161881,-0.02163508,-0.9750195,-2.993665,1.699112,-0.8016199,1.189082,0.09682667,303.3697,218.2331,26.36934
2,0.3777778,-0.3034033,0.3037537,-0.7536572,-1.109909,-1.307229,-0.6275915,-0.6232319,0.1178526,7.817589,0.4157451,-0.4726547,0.3180457,-0.3605877,-1.049212,1.383152,0.1671567,-0.467378,-0.02722266,-0.976285,-3.001454,1.701086,-0.8017191,1.192223,0.09903485,303.2622,218.0831,26.6588
2,0.3888889,-0.3185269,0.3281847,-0.7366986,-1.108873,-1.316678,-0.6197064,-0.623471,-0.02251839,7.817589,0.4338786,-0.4758858,0.3254196,-0.3559837,-1.063091,1.390909,0.1754708,-0.4950908,-0.04224744,-0.977876,-3.00891,1.702954,-0.8018613,1.195628,0.1012295,303.116,218.0873,26.95251
2,0.4,-0.3249594,0.3324086,-0.7324615,-1.107357,-1.326434,-0.6115683,-0.6243179,-0.07692201,7.817589,0.4711456,-0.484384,0.3199278,-0.3516305,-1.077141,1.397838,0.1976009,-0.5590812,-0.04469045,-0.9794866,-3.018355,1.70546,-0.8020312,1.199378,0.1034332,302.8932,218.0499,27.36228
2,0.4111111,-0.326101,0.3441011,-0.7356833,-1.106014,-1.336422,-0.6036614,-0.6246119,-0.02612719,5.646037,0.5062528,-0.5013747,0.3080279,-0.3475606,-1.092713,1.406008,0.2166606,-0.585797,-0.04810432,-0.9811363,-3.026969,1.707318,-0.8021731,1.20346,0.105671,302.5743,217.8638,27.96998
2,0.4222222,-0.3282847,0.3515266,-0.7399728,-1.10469,-1.346666,-0.5953838,-0.624711,-0.008748502,5.646037,0.5477095,-0.5407109,0.2864296,-0.3439643,-1.111629,1.416949,0.2314685,-0.5900891,-0.05889241,-0.9829802,-3.034766,1.708677,-0.8022493,1.207775,0.1079229,302.1558,217.5751,28.75038
2,0.4333333,-0.3433757,0.3737656,-0.7411082,-1.10418,-1.356935,-0.5866193,-0.6252127,-0.04572777,5.646037,0.5573009,-0.5652111,0.2863117,-0.3397991,-1.130729,1.428468,0.2560238,-0.5869855,-0.05269483,-0.9841264,-3.042178,1.709522,-0.802197,1.212205,0.1101776,301.7086,217.1968,29.64833
2,0.4444444,-0.3626773,0.3906419,-0.7443905,-1.103481,-1.367575,-0.5773445,-0.6251425,0.006888967,5.646037,0.5871864,-0.5940217,0.3020815,-0.3350315,-1.150835,1.440318,0.2752437,-0.5870619,-0.04753236,-0.9853973,-3.049839,1.710188,-0.8020159,1.216635,0.1124398,301.261,216.7755,30.56538
2,0.4555556,-0.3808661,0.4000977,-0.7423029,-1.103171,-1.377941,-0.5680943,-0.6247776,0.03339147,5.646037,0.6138643,-0.6121671,0.313641,-0.3303523,-1.171546,1.452364,0.2953221,-0.6031051,-0.05946889,-0.9876045,-3.058303,1.711225,-0.8017155,1.220972,0.1147187,300.8335,216.4206,31.41628
2,0.4666667,-0.4053249,0.3956512,-0.7380693,-1.102381,-1.388137,-0.5586284,-0.6245491,0.02072942,6.188925,0.6181471,-0.6089949,0.3210952,-0.3259661,-1.190511,1.463451,0.2975256,-0.6148195,-0.05950378,-0.9890799,-3.066748,1.711133,-0.8012332,1.225183,0.1169846,300.4405,216.1902,32.16748
2,0.4777778,-0.4199794,0.3667088,-0.7561055,-1.100593,-1.39857,-0.5488434,-0.6246018,-0.004906257,6.188925,0.6053443,-0.6100441,0.3158116,-0.3219351,-1.210711,1.476177,0.3165427,-0.6606925,-0.0597546,-0.9909207,-3.076766,1.712603,-0.8006504,1.229268,0.1192182,300.1187,216.0268,32.8113
2,0.4888889,-0.4176525,0.3422424,-0.7485501,-1.099197,-1.407937,-0.5402201,-0.6245033,0.009236071,6.188925,0.5957203,-0.6004482,0.3105495,-0.3181359,-1.230278,1.488559,0.3291916,-0.6884391,-0.07057767,-0.9933335,-3.087013,1.713484,-0.8000298,1.233298,0.1213751,299.8719,215.9565,33.35122
2,0.5,-0.4205393,0.3059588,-0.7601516,-1.096787,-1.417781,-0.5309901,-0.624474,0.002704919,6.188925,0.5882545,-0.5940505,0.3084677,-0.3142999,-1.249957,1.500964,0.3427855,-0.7044202,-0.09416196,-0.9962774,-3.096479,1.71446,-0.7995074,1.237319,0.1234197,299.6624,215.77,33.97322
2,0.5111111,-0.4321657,0.2973285,-0.7665219,-1.095337,-1.427967,-0.5213569,-0.6253241,-0.0776667,5.537459,0.5978495,-0.6100317,0.3115866,-0.3101384,-1.27253,1.515558,0.3480701,-0.7140256,-0.1006032,-0.9985192,-3.106221,1.715198,-0.7990659,1.241388,0.1253905,299.4688,215.4252,34.69768
2,0.5222223,-0.43642,0.2972801,-0.7707897,-1.093932,-1.438202,-0.511737,-0.6251664,0.01520324,5.537459,0.6063855,-0.6238899,0.3147043,-0.3062593,-1.295872,1.530885,0.3438056,-0.7044151,-0.1048096,-1.000869,-3.114868,1.716171,-0.7985516,1.245525,0.1273213,299.231,214.985,35.51523
2,0.5333334,-0.4364237,0.2972602,-0.7739691,-1.092586,-1.448393,-0.5021976,-0.6250098,0.01417295,5.537459,0.6149863,-0.6388756,0.3369882,-0.301685,-1.320552,1.547386,0.3344387,-0.6841896,-0.08763756,-1.002416,-3.123367,1.717195,-0.7979594,1.249715,0.1292341,298.9937,214.5062,36.39365
2,0.5444446,-0.4279063,0.2973332,-0.7718248,-1.091386,-1.458487,-0.4930502,-0.62516,-0.0137147,5.537459,0.604418,-0.6155282,0.3626631,-0.2970058,-1.340751,1.56041,0.3324407,-0.6799479,-0.07376302,-1.003908,-3.131936,1.718188,-0.7972282,1.253997,0.1311386,298.7481,214.1109,37.20864
2,0.5555557,-0.437498,0.2972675,-0.767563,-1.09039,-1.468365,-0.4834756,-0.6253544,-0.0175598,5.537459,0.5693821,-0.5794303,0.3970037,-0.2916875,-1.359645,1.573093,0.3252392,-0.6373577,-0.05871147,-1.005197,-3.139154,1.718799,-0.7964904,1.258357,0.1330381,298.4666,213.6387,38.09564
2,0.5666668,-0.4469543,0.2822456,-0.7792416,-1.088785,-1.478856,-0.4733444,-0.6258029,-0.04085253,5.211726,0.5364777,-0.5433544,0.4345268,-0.2860512,-1.378427,1.586014,0.3306646,-0.6224958,-0.04808221,-1.006599,3.136283,1.719537,-0.7957498,1.262749,0.1349399,298.1555,213.0671,39.08841
2,0.577778,-0.452123,0.2672077,-0.8037015,-1.086785,-1.489801,-0.4630902,-0.625389,0.03822561,5.211726,0.5120817,-0.5264161,0.464502,-0.2802823,-1.398326,1.60006,0.3186149,-0.6213145,-0.08739488,-1.009507,3.128648,1.72031,-0.7950386,1.267121,0.1368542,297.8376,212.4933,40.09461
2,0.5888891,-0.455248,0.2586616,-0.803663,-1.085372,-1.499973,-0.4533062,-0.6251451,0.02197712,5.211726,0.4940229,-0.5328597,0.4783749,-0.2751573,-1.421617,1.617329,0.3003098,-0.6158969,-0.1085282,-1.012212,3.120988,1.721823,-0.7943462,1.27147,0.1387406,297.5791,212.0394,41.01287
2,0.6000003,-0.448763,0.2490903,-0.8142741,-1.083577,-1.510684,-0.4435053,-0.6253193,-0.01600734,5.211726,0.4748528,-0.5158258,0.4806337,-0.2700094,-1.442394,1.632581,0.2894849,-0.6158214,-0.1286772,-1.015184,3.113425,1.722897,-0.7937231,1.275845,0.1406265,297.4095,211.5258,41.91861
2,0.6111114,-0.4434719,0.2491208,-0.8121159,-1.082258,-1.520949,-0.4337096,-0.6255515,-0.02101584,5.211726,0.457734,-0.4986781,0.459438,-0.2660098,-1.46124,1.646098,0.2819268,-0.6296572,-0.1307425,-1.017506,3.104909,1.72474,-0.7931671,1.280287,0.142584,297.2456,210.9083,42.88897
2,0.6222225,-0.4306588,0.2439008,-0.8067526,-1.080818,-1.531222,-0.4243369,-0.6258785,-0.02969901,5.211726,0.451295,-0.5167417,0.4455505,-0.2619677,-1.48657,1.665682,0.2638942,-0.6232149,-0.1241845,-1.01977,3.09723,1.726269,-0.7925777,1.284797,0.1446324,297.0313,210.2911,43.90569
2,0.6333337,-0.4220735,0.2344019,-0.7981824,-1.07938,-1.541249,-0.4151016,-0.6257523,0.01179589,5.211726,0.4299455,-0.5187666,0.4296556,-0.2581066,-1.509838,1.683941,0.233157,-0.6103969,-0.1068449,-1.021561,3.08936,1.728752,-0.792007,1.289357,0.1467693,296.8121,209.6794,44.97371
2,0.6444448,-0.4144389,0.2120818,-0.7991608,-1.07742,-1.551217,-0.4059217,-0.626188,-0.03994405,5.211726,0.4129526,-0.4921218,0.4489715,-0.2533332,-1.527263,1.697091,0.2194554,-0.5997196,-0.09392387,-1.023252,3.082112,1.730469,-0.7914275,1.293954,0.1489438,296.5986,209.1341,46.03239
2,0.655556,-0.4153218,0.190765,-0.801197,-1.075531,-1.560971,-0.3967902,-0.6262605,-0.006297266,5.211726,0.3929342,-0.4507979,0.5131034,-0.2464814,-1.546876,1.712257,0.2186148,-0.5763292,-0.07790582,-1.0248,3.075102,1.731457,-0.7907986,1.298557,0.1511341,296.3904,208.5229,47.15069
2,0.6666671,-0.4162002,0.1672522,-0.8170918,-1.072942,-1.571364,-0.3869498,-0.6262764,-0.001453319,5.211726,0.3622329,-0.460537,0.5643266,-0.2397628,-1.573308,1.734574,0.2121386,-0.5571224,-0.09166156,-1.027209,3.068555,1.733023,-0.7901244,1.303112,0.1533062,296.1938,207.8424,48.32473
2,0.6777782,-0.4211196,0.120263,-0.841414,-1.06954,-1.581566,-0.3773459,-0.6262093,0.006126354,5.211726,0.2835824,-0.4426202,0.6158072,-0.2324753,-1.598697,1.758227,0.1895453,-0.5250103,-0.1308256,-1.030482,3.063413,1.734183,-0.7894334,1.307601,0.1554592,296.0571,207.184,49.42246
2,0.6888894,-0.4263069,0.1020638,-0.8445392,-1.066625,-1.591464,-0.3676249,-0.6258013,0.0371887,5.211726,0.2538206,-0.4107341,0.6352088,-0.2258915,-1.621548,1.778248,0.1754936,-0.5089425,-0.1551771,-1.033703,3.057791,1.735955,-0.7887644,1.312063,0.1575832,295.9814,206.6058,50.4157
2,0.7000005,-0.4261633,0.08500549,-0.8487433,-1.063662,-1.601866,-0.357834,-0.6259356,-0.01257772,5.211726,0.2409995,-0.3989868,0.6257074,-0.2201752,-1.646345,1.800104,0.1499279,-0.4630077,-0.1740482,-1.036788,3.05386,1.737011,-0.7882199,1.316532,0.1597096,295.9632,205.9359,51.46601
2,0.7111117,-0.4186554,0.07970846,-0.8561488,-1.061092,-1.61237,-0.3482903,-0.6257363,0.01832337,6.080348,0.2462113,-0.4063555,0.5990458,-0.2153922,-1.67515,1.825343,0.1318416,-0.4458917,-0.1781247,-1.039568,3.048882,1.738418,-0.7877753,1.321036,0.1618707,295.9682,205.19,52.6029
2,0.7222228,-0.4165053,0.07863551,-0.8635992,-1.058616,-1.623134,-0.3385208,-0.625935,-0.01827711,6.080348,0.2536353,-0.429754,0.588287,-0.2108648,-1.707263,1.853724,0.1191058,-0.4351953,-0.1769304,-1.042228,3.044094,1.739855,-0.7872885,1.325567,0.1640457,295.9392,204.477,53.75967
2,0.7333339,-0.4079649,0.07759404,-0.8784958,-1.056108,-1.634492,-0.3285691,-0.6262844,-0.03178491,6.080348,0.2322973,-0.4542469,0.5808205,-0.2066874,-1.743428,1.88712,0.1064088,-0.4255973,-0.1682867,-1.04471,3.039009,1.741703,-0.7868078,1.330152,0.1662424,295.9158,203.7912,54.87107
2,0.7444451,-0.4100635,0.07323487,-0.8923263,-1.053268,-1.645814,-0.3181529,-0.6262248,0.005739053,6.080348,0.2163009,-0.4307933,0.5745662,-0.2020311,-1.772724,1.913691,0.08838469,-0.4191535,-0.1596037,-1.047016,3.034239,1.743712,-0.7862902,1.334796,0.1684821,295.8854,203.0848,55.99443
2,0.7555562,-0.4046894,0.0647735,-0.8869461,-1.050799,-1.656434,-0.3084899,-0.6263131,-0.008221091,6.080348,0.1938739,-0.389209,0.5620045,-0.1975879,-1.798426,1.937319,0.06306148,-0.3956562,-0.1380445,-1.04873,3.030237,1.74592,-0.7857294,1.33948,0.1708008,295.8456,202.2793,57.21613
2,0.7666674,-0.3951406,0.06595194,-0.8709548,-1.04861,-1.666797,-0.2990969,-0.6258482,0.04258452,5.537459,0.1788457,-0.3721113,0.5408183,-0.1938467,-1.827825,1.964747,0.04817021,-0.3828345,-0.1379041,-1.051172,3.02586,1.748096,-0.7851412,1.344186,0.1732349,295.8173,201.4558,58.47816
2,0.7777785,-0.3920311,0.07241412,-0.8549728,-1.046919,-1.676883,-0.2897391,-0.6262157,-0.0339768,5.537459,0.1649373,-0.3805786,0.5237949,-0.1906711,-1.860132,1.99496,0.02047837,-0.3464853,-0.1525121,-1.053709,3.022982,1.750005,-0.7846366,1.348948,0.175753,295.8203,200.7868,59.66184
2,0.7888896,-0.3876926,0.08530755,-0.8380468,-1.045261,-1.687016,-0.2804783,-0.6264069,-0.01717054,5.537459,0.1553343,-0.3954939,0.5216432,-0.187551,-1.896708,2.029446,0.0204373,-0.3400846,-0.1578329,-1.056334,3.019199,1.751744,-0.784098,1.353728,0.1782732,295.7982,200.1435,60.89142
2,0.8000008,-0.3879901,0.09490116,-0.8252059,-1.04432,-1.6973,-0.2709788,-0.6262966,0.01018339,5.537459,0.1287499,-0.3838283,0.5356278,-0.1838082,-1.931651,2.063062,0.008672476,-0.3229727,-0.1704832,-1.059105,3.016196,1.753444,-0.7835515,1.358481,0.1807139,295.7481,199.4957,62.12838
2,0.8111119,-0.3934999,0.1140454,-0.8092762,-1.043484,-1.706959,-0.26154,-0.6263755,-0.007360684,5.537459,0.1085542,-0.3870797,0.5484762,-0.1802454,-1.970572,2.100589,-0.009535193,-0.3079686,-0.1862838,-1.062235,3.013113,1.755644,-0.7829689,1.363169,0.183009,295.6906,198.8387,63.33392
2,0.8222231,-0.3947579,0.1342863,-0.7976242,-1.043013,-1.717002,-0.2519159,-0.6261949,0.01656332,6.840391,0.06913742,-0.3742758,0.545465,-0.1771812,-2.00558,2.135149,-0.0137713,-0.3036938,-0.1851739,-1.064829,3.009881,1.757484,-0.7824217,1.367765,0.1851448,295.6475,198.1029,64.53694
2,0.8333342,-0.3938582,0.1492779,-0.7774087,-1.043049,-1.726548,-0.2426891,-0.6259089,0.02601489,6.840391,0.04782349,-0.3529709,0.5445491,-0.173971,-2.04107,2.170114,-0.0328607,-0.2727401,-0.186009,-1.067235,3.007761,1.75966,-0.7819097,1.372267,0.1871466,295.6044,197.3925,65.63235
2,0.8444453,-0.3907198,0.1525162,-0.7635612,-1.042618,-1.736085,-0.233457,-0.6258929,0.001240654,6.840391,0.03179321,-0.3486501,0.5275671,-0.1717579,-2.076605,2.204997,-0.03922194,-0.2620617,-0.1869994,-1.069805,3.005301,1.761472,-0.7813784,1.37669,0.1890324,295.5722,196.7265,66.64431
2,0.8555565,-0.3791104,0.1612306,-0.7348116,-1.042883,-1.744921,-0.2251404,-0.6260517,-0.01449573,6.840391,-0.002474487,-0.3282548,0.4798213,-0.1704508,-2.105517,2.234436,-0.05928075,-0.2364509,-0.1739942,-1.07171,3.003488,1.763826,-0.7809156,1.381071,0.1908334,295.5383,196.0802,67.6221
2,0.8666676,-0.3738289,0.160287,-0.7081426,-1.042973,-1.753259,-0.2167952,-0.6260591,-0.0005801957,6.840391,-0.02178371,-0.2833799,0.4417028,-0.1685195,-2.130156,2.25929,-0.07721594,-0.215104,-0.1631387,-1.073498,3.001605,1.765953,-0.7804816,1.385435,0.1925703,295.502,195.4463,68.58069
2,0.8777788,-0.3760372,0.1667263,-0.688992,-1.043454,-1.761837,-0.2082517,-0.626596,-0.04912103,6.840391,-0.03145474,-0.2566777,0.420522,-0.1667613,-2.155746,2.28513,-0.08786783,-0.2001384,-0.1694109,-1.075891,3.000025,1.767975,-0.7800562,1.389771,0.1942753,295.4804,194.7226,69.62453
2,0.8888899,-0.3697632,0.1732415,-0.6676668,-1.044163,-1.769774,-0.2001158,-0.6263297,0.02478914,6.840391,-0.03562784,-0.2269273,0.4430161,-0.1636747,-2.187267,2.316541,-0.09504046,-0.1692588,-0.1501159,-1.077322,2.998931,1.769648,-0.7796563,1.394044,0.1959636,295.4275,193.9438,70.72054
2,0.900001,-0.3751798,0.1806712,-0.6538476,-1.044748,-1.777974,-0.1915079,-0.6261678,0.01447878,6.840391,-0.05060074,-0.2492481,0.4238129,-0.1631048,-2.220598,2.350219,-0.09266974,-0.1362834,-0.1362284,-1.078733,2.99813,1.77102,-0.7792556,1.398225,0.1976378,295.3744,193.2392,71.74784
2,0.9111122,-0.3688244,0.1807823,-0.6388974,-1.045592,-1.785757,-0.1836282,-0.6262072,-0.003698041,6.840391,-0.1060627,-0.2779563,0.4036771,-0.1631122,-2.25434,2.386099,-0.09903041,-0.1181418,-0.140401,-1.08053,2.997598,1.772534,-0.7789058,1.402319,0.1992833,295.3114,192.5814,72.7674
2,0.9222233,-0.3677548,0.1776188,-0.6282299,-1.046157,-1.793705,-0.1754821,-0.6258562,0.03211438,5.97177,-0.1391026,-0.287518,0.3952527,-0.1626696,-2.28815,2.421703,-0.1064034,-0.07975351,-0.1466563,-1.082325,2.99803,1.77378,-0.7786409,1.406302,0.2008608,295.2422,191.9355,73.79068
2,0.9333345,-0.3633938,0.1606924,-0.6036431,-1.046461,-1.800461,-0.1682196,-0.6263201,-0.04270242,5.97177,-0.1860619,-0.2693456,0.3731132,-0.1623223,-2.314385,2.450978,-0.1288025,-0.05301006,-0.1613279,-1.084408,2.998695,1.775473,-0.7785709,1.410231,0.2023607,295.2044,191.4043,74.65568
2,0.9444456,-0.3601565,0.153312,-0.5886997,-1.046917,-1.807722,-0.1606706,-0.6261699,0.0141473,5.97177,-0.2117132,-0.2575587,0.350875,-0.1622648,-2.339878,2.479249,-0.1426538,-0.04656231,-0.1654587,-1.086399,2.998648,1.77732,-0.7786435,1.414127,0.203785,295.1855,190.8714,75.47293
2,0.9555568,-0.3485284,0.1588642,-0.5503469,-1.048035,-1.813739,-0.1541288,-0.6263962,-0.02091432,5.97177,-0.2704214,-0.2500214,0.3191541,-0.1628661,-2.362575,2.506101,-0.1565487,-0.04331285,-0.1706599,-1.088539,2.998538,1.779662,-0.7788073,1.417992,0.2051641,295.1877,190.2768,76.32095
2,0.9666679,-0.3432296,0.1578689,-0.5354164,-1.048763,-1.820212,-0.1470289,-0.6263472,0.004606388,5.97177,-0.2960571,-0.1892762,0.3066696,-0.1616059,-2.381971,2.529087,-0.1725634,-0.02939145,-0.1790169,-1.090688,2.99908,1.781921,-0.779073,1.421805,0.2064882,295.1903,189.6077,77.25098
2,0.977779,-0.3475341,0.1610772,-0.5215839,-1.049872,-1.826652,-0.139849,-0.6266652,-0.02912749,7.600434,-0.3120763,-0.1679416,0.297213,-0.1609599,-2.402127,2.552871,-0.1851348,0.002595097,-0.1681958,-1.092036,3.000446,1.783673,-0.7793438,1.425529,0.2077708,295.1843,188.9437,78.15723
2,0.9888902,-0.3420956,0.1462323,-0.5108538,-1.050291,-1.832749,-0.1332273,-0.6263073,0.03294437,7.600434,-0.3365914,-0.1530325,0.2952184,-0.1604725,-2.42405,2.578806,-0.199834,0.03564954,-0.1573529,-1.093163,3.002106,1.785515,-0.7795796,1.429122,0.2090124,295.1463,188.25,79.07525
2,1.000001,-0.3291417,0.1239948,-0.502239,-1.050388,-1.83899,-0.1267707,-0.6261156,0.01719277,7.600434,-0.3461208,-0.1179413,0.3134836,-0.1588032,-2.446641,2.605273,-0.2132775,0.09958288,-0.1379425,-1.093465,3.005637,1.786672,-0.7798761,1.432595,0.2102445,295.1353,187.6128,79.91428
2,1.011112,-0.3215826,0.1080677,-0.4978948,-1.05031,-1.844962,-0.1201959,-0.6264517,-0.03088453,7.600434,-0.3407007,-0.09034835,0.3380569,-0.1570759,-2.472484,2.634157,-0.2151545,0.1432293,-0.1260947,-1.09351,3.008393,1.787988,-0.7803415,1.436012,0.2114912,295.141,187.0633,80.66306
2,1.022224,-0.2948299,0.09337054,-0.4978114,-1.050237,-1.851332,-0.1145324,-0.6266732,-0.02003504,6.731813,-0.3427835,-0.07548159,0.3519651,-0.1553587,-2.498042,2.663274,-0.2226554,0.1432657,-0.1313563,-1.094787,3.010436,1.789666,-0.7809168,1.439356,0.212762,295.1851,186.5168,81.41576
2,1.033335,-0.2713723,0.08928336,-0.4966766,-1.050426,-1.857383,-0.1089808,-0.6263755,0.02731958,6.731813,-0.3470351,-0.07549913,0.3551771,-0.1544937,-2.523968,2.692875,-0.2322603,0.1198374,-0.1206609,-1.095688,3.011383,1.792415,-0.7815104,1.442618,0.2140493,295.237,186.1034,82.07159
2,1.044446,-0.2650223,0.09146145,-0.4913267,-1.050806,-1.863221,-0.1030702,-0.6273609,-0.09038217,6.731813,-0.3375079,-0.07756577,0.3359598,-0.1540985,-2.545445,2.717489,-0.2365443,0.1262496,-0.127002,-1.096844,3.013406,1.794069,-0.7820159,1.445818,0.2152946,295.3007,185.8188,82.63318
2,1.055557,-0.2543654,0.08841446,-0.4731933,-1.05121,-1.868782,-0.09777636,-0.6272953,0.006711019,6.731813,-0.3152039,-0.05726163,0.3189027,-0.1529885,-2.564337,2.739098,-0.2427825,0.1454301,-0.1173151,-1.097227,3.015946,1.795789,-0.7825305,1.448949,0.216562,295.3875,185.2775,83.38334
2,1.066668,-0.2522748,0.09163798,-0.4667832,-1.051778,-1.874257,-0.09226468,-0.6266663,0.05728266,6.731813,-0.3003524,-0.05825886,0.2996599,-0.1525677,-2.582146,2.759539,-0.2370699,0.2018333,-0.09596031,-1.096813,3.020369,1.796413,-0.783086,1.451983,0.217888,295.4306,184.7053,84.15832
2,1.077779,-0.2671825,0.08941901,-0.4572056,-1.052261,-1.879885,-0.08610266,-0.6269614,-0.02756125,5.320304,-0.2897871,-0.1061025,0.2728235,-0.154,-2.601949,2.782073,-0.2198661,0.2294556,-0.08966904,-1.096856,3.024213,1.796624,-0.7836958,1.454931,0.2192539,295.4435,184.3208,84.78514
2,1.08889,-0.2789106,0.09036998,-0.4593493,-1.052796,-1.885866,-0.07968657,-0.6266397,0.02964064,5.320304,-0.281233,-0.1114582,0.2802296,-0.154237,-2.625952,2.808719,-0.2145366,0.2240979,-0.08759489,-1.097374,3.026689,1.79766,-0.7843095,1.4578,0.2206277,295.4616,184.0582,85.3003
2,1.100002,-0.2896642,0.0988971,-0.4327589,-1.053827,-1.890664,-0.07379726,-0.6259542,0.06230921,5.320304,-0.2748119,-0.1210703,0.2876297,-0.1546855,-2.650165,2.83548,-0.2166318,0.2113055,-0.07801122,-1.097519,3.029035,1.799048,-0.7849361,1.460641,0.2219874,295.4761,183.895,85.71803
2,1.111113,-0.2875246,0.09365399,-0.409299,-1.054309,-1.895157,-0.06833671,-0.6257874,0.01476087,5.320304,-0.2842778,-0.1020051,0.3207596,-0.1538849,-2.678925,2.867306,-0.2239872,0.1718698,-0.0492536,-1.097076,3.029865,1.80142,-0.7855716,1.463518,0.2232897,295.5058,183.7489,86.12648
2,1.122224,-0.2927511,0.07980653,-0.3943418,-1.054486,-1.899729,-0.06274354,-0.6257363,0.00461948,6.623236,-0.292726,-0.09888062,0.3410426,-0.1537592,-2.707938,2.899459,-0.2282542,0.1313744,-0.03330866,-1.096938,3.030254,1.803776,-0.7861912,1.466491,0.2245255,295.5341,183.534,86.58089
2,1.133335,-0.3045227,0.07979422,-0.3666387,-1.055102,-1.903411,-0.05693306,-0.6260298,-0.02684183,6.623236,-0.2915514,-0.07980531,0.3698678,-0.15303,-2.739299,2.933592,-0.2272926,0.1186004,-0.038665,-1.097294,3.031548,1.8059,-0.7867973,1.469587,0.2256151,295.5125,183.2364,87.15399
2,1.144446,-0.3226784,0.08286569,-0.3570787,-1.055897,-1.907716,-0.05063521,-0.6259744,0.00530438,6.623236,-0.2915362,-0.07770544,0.3741435,-0.1532473,-2.768373,2.965515,-0.2091221,0.1281141,-0.03667635,-1.097284,3.033532,1.806745,-0.7873827,1.472755,0.2264974,295.5308,182.7621,87.89629
2,1.155557,-0.3344471,0.08812498,-0.3485733,-1.056831,-1.911793,-0.04472033,-0.6253288,0.05892136,6.623236,-0.2946789,-0.1065131,0.3868394,-0.1543866,-2.800251,3.000363,-0.1866612,0.1472016,-0.03470739,-1.097101,3.03593,1.807145,-0.7879434,1.475938,0.2271522,295.5866,182.1643,88.7135
2,1.166668,-0.3514992,0.08904693,-0.348597,-1.057623,-1.916325,-0.03814286,-0.6251435,0.0165422,6.623236,-0.2978501,-0.1278509,0.3952938,-0.1558642,-2.831039,3.034295,-0.1771034,0.1652931,-0.04968046,-1.097671,3.038514,1.807227,-0.7885603,1.479136,0.2275608,295.6275,181.545,89.48983
2,1.17778,-0.3940246,0.07910308,-0.3507268,-1.058134,-1.920633,-0.03057149,-0.6254865,-0.03139946,4.885993,-0.3000212,-0.1608311,0.3824037,-0.1582125,-2.857778,3.064096,-0.1602099,0.1695245,-0.06899572,-1.098453,3.041065,1.807384,-0.7891724,1.482344,0.2277595,295.688,180.9249,90.18375
2,1.188891,-0.3972569,0.0843913,-0.3507302,-1.059006,-1.924846,-0.02418044,-0.6251706,0.0292265,4.885993,-0.3043892,-0.2107873,0.3513564,-0.1615489,-2.878614,3.088216,-0.1560826,0.1631399,-0.08502646,-1.099487,3.043074,1.807641,-0.7897419,1.485552,0.2278082,295.7785,180.2456,90.88542
2,1.200002,-0.3919837,0.08875141,-0.3347597,-1.06003,-1.928611,-0.01813506,-0.6241491,0.09321281,4.885993,-0.3087252,-0.2288246,0.3300035,-0.1644885,-2.89819,3.111045,-0.1669797,0.1472386,-0.1062673,-1.100942,3.044816,1.809,-0.7903304,1.488788,0.2278057,295.8997,179.5323,91.60052
2,1.211113,-0.3815392,0.1133673,-0.3241802,-1.061817,-1.93253,-0.01235707,-0.6253273,-0.1083968,4.885993,-0.3119792,-0.223457,0.3129852,-0.1668087,-2.91704,3.133072,-0.176774,0.1249427,-0.1211321,-1.102285,3.04631,1.81051,-0.7909616,1.492118,0.2277721,296.0119,178.9652,92.20435
2,1.222224,-0.3784338,0.118861,-0.283714,-1.063237,-1.934825,-0.007127152,-0.625706,-0.03351761,6.623236,-0.2810751,-0.1904336,0.3151129,-0.1680524,-2.937687,-3.127526,-0.173637,0.09298782,-0.1158966,-1.103281,3.047076,1.811894,-0.7915645,1.495549,0.2277424,296.1174,178.3293,92.88506
2,1.233335,-0.37896,0.1806217,-0.2786252,-1.066488,-1.938435,-0.0008181231,-0.6261081,-0.03652321,6.623236,-0.2533478,-0.1798063,0.3235697,-0.1699011,-2.960326,-3.10311,-0.1650017,0.08013576,-0.09786942,-1.103605,3.047902,1.812904,-0.7920336,1.498983,0.2277355,296.196,177.5564,93.72157
2,1.244446,-0.3751087,0.2264712,-0.2649755,-1.069715,-1.941969,0.005351356,-0.6259084,0.01852904,6.623236,-0.224554,-0.1776995,0.3319931,-0.1719891,-2.982851,-3.079252,-0.1562529,0.08220504,-0.0723744,-1.103508,3.049353,1.813859,-0.7923214,1.502353,0.2277941,296.2383,176.7139,94.63406
2,1.255558,-0.3710429,0.2468371,-0.2394762,-1.073037,-1.944226,0.01043906,-0.6254545,0.04132317,6.623236,-0.1925745,-0.2171233,0.3338688,-0.1758954,-3.003289,-3.057922,-0.1476214,0.08428258,-0.06072664,-1.103622,3.050542,1.814735,-0.7924614,1.505564,0.227872,296.2456,175.8214,95.65909
2,1.266669,-0.3721803,0.2532595,-0.2267207,-1.07585,-1.94676,0.01593582,-0.6255483,-0.008871368,6.623236,-0.1925653,-0.2213881,0.3359854,-0.1787705,-3.02333,-3.035942,-0.1347807,0.07249551,-0.05339533,-1.103875,3.050969,1.815072,-0.7925503,1.508613,0.2280018,296.2104,174.9228,96.67528
2,1.27778,-0.3733252,0.2618032,-0.2182302,-1.07903,-1.949167,0.02125735,-0.626066,-0.04721478,5.428882,-0.2085588,-0.2298991,0.3317534,-0.1819621,-3.041327,-3.015507,-0.1338574,0.054397,-0.06195864,-1.10474,3.051324,1.81637,-0.7925977,1.511515,0.228163,296.1396,174.2117,97.52296
2,1.288891,-0.3702187,0.2714134,-0.2150883,-1.082152,-1.952031,0.02678714,-0.6258567,0.01955084,5.428882,-0.217078,-0.2224555,0.33287,-0.184736,-3.05926,-2.995252,-0.1458345,0.03102332,-0.08746539,-1.106469,3.051034,1.817667,-0.7926689,1.514326,0.2282882,296.0298,173.7571,98.13253
2,1.300002,-0.374537,0.2777852,-0.2108551,-1.085514,-1.954458,0.03221732,-0.6259419,-0.007983627,5.428882,-0.2213103,-0.169229,0.3437246,-0.1859201,-3.080848,-2.971427,-0.1483208,0.02684066,-0.1268683,-1.10876,3.051905,1.819015,-0.7927636,1.517123,0.2283075,295.954,173.4545,98.58401
2,1.311113,-0.3874913,0.2957774,-0.2109696,-1.089187,-1.95743,0.038594,-0.6259654,-0.002042775,5.428882,-0.2267318,-0.1435814,0.3182594,-0.1873097,-3.094442,-2.955557,-0.1473686,0.03433272,-0.1428416,-1.110441,3.053287,1.820029,-0.7929401,1.519936,0.2282481,295.9495,172.8627,99.23129
2,1.322224,-0.3972185,0.3127427,-0.2110422,-1.09321,-1.959901,0.04440821,-0.6258615,0.00951119,5.428882,-0.2354067,-0.147699,0.27673,-0.189355,-3.102372,-2.944921,-0.140955,0.05456051,-0.1492522,-1.111884,3.055013,1.820634,-0.7932123,1.522771,0.2281995,295.9738,172.0752,99.9857
2,1.333336,-0.4026799,0.327633,-0.2025799,-1.09725,-1.961926,0.05001736,-0.6251851,0.06177105,5.211726,-0.2333518,-0.1827691,0.2510329,-0.1928485,-3.109806,-2.935239,-0.1429472,0.06734404,-0.1417563,-1.112914,3.056616,1.821146,-0.7935119,1.525614,0.2281919,295.9614,171.3224,100.7228
2,1.344447,-0.4037684,0.3308327,-0.2004567,-1.101117,-1.96405,0.05540227,-0.6254988,-0.02915883,5.211726,-0.2387572,-0.2018673,0.2286145,-0.1960001,-3.116471,-2.925879,-0.1478446,0.08434094,-0.1065317,-1.112958,3.058023,1.821313,-0.7937832,1.528508,0.2282394,295.9141,170.7138,101.3571
2,1.355558,-0.4046865,0.3147953,-0.2142488,-1.104297,-1.966897,0.06121116,-0.6256042,-0.009273416,5.211726,-0.2449867,-0.1807293,0.2723897,-0.198447,-3.135743,-2.904147,-0.150858,0.09390922,-0.08944285,-1.11315,3.059565,1.82238,-0.7940563,1.531528,0.2283307,295.8403,170.1156,102.0199
2,1.366669,-0.4108665,0.2923101,-0.2322925,-1.107166,-1.970179,0.0673556,-0.6259169,-0.02846256,5.211726,-0.245922,-0.1872561,0.3053861,-0.2018058,3.129659,-2.884089,-0.145294,0.1013064,-0.0649872,-1.113115,3.061113,1.823191,-0.7943019,1.534686,0.2284387,295.7702,169.4844,102.7142
2,1.37778,-0.4059536,0.2176541,-0.2661066,-1.107863,-1.974397,0.07365025,-0.625869,0.004618625,5.320304,-0.2520689,-0.1672527,0.3725938,-0.2046703,3.103369,-2.855353,-0.1387629,0.1140462,-0.05436639,-1.113008,3.062897,1.823746,-0.7944479,1.537963,0.228579,295.7613,168.7748,103.4625
2,1.388891,-0.3959531,0.1728781,-0.2904516,-1.108689,-1.978649,0.07956247,-0.6257288,0.01269395,5.320304,-0.2499015,-0.158768,0.3843293,-0.2074017,3.085274,-2.83488,-0.1460648,0.1300474,-0.04893505,-1.112854,3.065006,1.82383,-0.7946191,1.541374,0.2288083,295.8548,167.9398,104.3311
2,1.400002,-0.3879674,0.1121273,-0.3157889,-1.108657,-1.983346,0.0857719,-0.6259995,-0.02478562,5.320304,-0.2509804,-0.1502346,0.3811674,-0.2100414,3.068453,-2.815593,-0.1492354,0.1343186,-0.04783468,-1.112939,3.066875,1.824756,-0.7948539,1.544911,0.2292109,296.0167,167.1044,105.2003
2,1.411114,-0.3770458,0.08233563,-0.3284511,-1.109171,-1.987599,0.09152272,-0.6264187,-0.03817353,5.320304,-0.2499383,-0.1448838,0.3715909,-0.2127722,3.05442,-2.799309,-0.1586853,0.1514125,-0.04241949,-1.113032,3.069696,1.825137,-0.7950521,1.548448,0.2297762,296.2614,166.3482,106.1175
2,1.422225,-0.3597614,0.05473065,-0.3379186,-1.109301,-1.99202,0.09702056,-0.6263302,0.008408586,5.320304,-0.2478736,-0.1533426,0.3534426,-0.2157858,3.042367,-2.784828,-0.1661869,0.1567801,-0.04980063,-1.113263,3.071928,1.826195,-0.7951733,1.55184,0.2304831,296.5038,165.6052,107.0929
2,1.433336,-0.3523119,0.05585138,-0.3400463,-1.110398,-1.996166,0.1026196,-0.6265236,-0.01782064,3.908795,-0.2468257,-0.1522649,0.350246,-0.2187105,3.028744,-2.768756,-0.1854012,0.154788,-0.05609422,-1.114334,3.074915,1.827194,-0.7953206,1.555097,0.231304,296.7095,165.082,107.8663
2,1.444447,-0.3427884,0.06130873,-0.3272719,-1.111644,-1.999707,0.1078506,-0.6268064,-0.02576438,3.908795,-0.2553865,-0.1543619,0.3406777,-0.2216219,3.0167,-2.753935,-0.2003379,0.1570095,-0.0602128,-1.114347,3.077455,1.828558,-0.7954589,1.558165,0.2321963,296.8717,164.6348,108.5541
2,1.455558,-0.3406631,0.06030362,-0.3155473,-1.112633,-2.003154,0.1131018,-0.6265278,0.02565093,3.908795,-0.2649724,-0.125609,0.3429451,-0.2237034,3.001849,-2.736248,-0.2184751,0.1592166,-0.06431646,-1.114652,3.079658,1.830463,-0.7957602,1.561129,0.2331496,297.003,164.3174,109.085
2,1.466669,-0.3428211,0.06245792,-0.303815,-1.113657,-2.006124,0.1182156,-0.6265145,0.0008863422,3.908795,-0.2745505,-0.1021949,0.3473348,-0.225941,2.985911,-2.717399,-0.2259858,0.1635731,-0.07164046,-1.114162,3.08264,1.831852,-0.7962061,1.564046,0.2341314,297.0626,164.0875,109.513
2,1.47778,-0.3428991,0.0710009,-0.2953242,-1.114915,-2.009342,0.1234407,-0.6263909,0.01132352,5.97177,-0.3022821,-0.07128114,0.3400897,-0.2273429,2.971349,-2.699098,-0.2227454,0.175279,-0.0716453,-1.114365,3.085293,1.83308,-0.7967685,1.566914,0.235076,297.1082,163.7944,110.0266
2,1.488891,-0.3386227,0.0709995,-0.3027703,-1.116022,-2.01309,0.1286898,-0.6262509,0.01261599,5.97177,-0.318245,-0.08087979,0.3422487,-0.2301807,2.958347,-2.682544,-0.216242,0.1976354,-0.06844644,-1.114066,3.088549,1.83389,-0.7974539,1.569737,0.2359203,297.1697,163.4936,110.5465
2,1.500003,-0.3193077,0.05513307,-0.3133411,-1.116616,-2.017174,0.1335831,-0.6261992,0.004635226,5.97177,-0.329918,-0.1256585,0.3517222,-0.2344903,2.947285,-2.667805,-0.2310471,0.2168583,-0.06402088,-1.113919,3.091796,1.835413,-0.7981653,1.572485,0.2365892,297.2341,163.21,111.0239
2,1.511114,-0.3063899,0.03822658,-0.3057953,-1.117099,-2.02054,0.1380966,-0.6263675,-0.01546259,5.97177,-0.3299344,-0.1416147,0.3452733,-0.2379939,2.937536,-2.65475,-0.2384922,0.2222231,-0.06393766,-1.113796,3.094904,1.837064,-0.7989321,1.575195,0.2370739,297.3326,162.8909,111.4845
2,1.522225,-0.2925841,0.04262757,-0.2983387,-1.118129,-2.023824,0.1424173,-0.6268325,-0.04240254,5.97177,-0.319437,-0.1478508,0.3036629,-0.2405101,2.932297,-2.646373,-0.250212,0.2286633,-0.06701749,-1.113844,3.09801,1.83874,-0.7997018,1.577866,0.2374183,297.5024,162.5611,111.8824
2,1.533336,-0.2725479,0.06523316,-0.2760253,-1.119584,-2.026332,0.1459258,-0.6268559,-0.00189338,6.623236,-0.3248867,-0.127499,0.2717955,-0.2424606,2.926015,-2.636551,-0.2641915,0.2244532,-0.0807681,-1.114644,3.100542,1.840843,-0.8004995,1.58052,0.2377309,297.7363,162.2142,112.2239
2,1.544447,-0.2738206,0.08871853,-0.2611854,-1.121578,-2.028736,0.1500595,-0.6269017,-0.004259554,6.623236,-0.3206251,-0.1019369,0.2739978,-0.244442,2.915482,-2.622809,-0.2737885,0.2298226,-0.08387191,-1.114906,3.10375,1.842783,-0.8013642,1.583177,0.2380911,297.9422,161.8347,112.5958
2,1.555558,-0.2836676,0.1164331,-0.2346655,-1.123859,-2.03047,0.1541683,-0.6272554,-0.03235886,6.623236,-0.3195342,-0.05296715,0.2837544,-0.2455019,2.902047,-2.6063,-0.2727056,0.2457443,-0.08709983,-1.115831,3.10684,1.844713,-0.8022443,1.585767,0.2385301,298.101,161.3493,113.1395
2,1.566669,-0.2880939,0.1366417,-0.2272906,-1.125923,-2.032727,0.1583579,-0.6264996,0.06926307,6.623236,-0.3323141,-0.04871361,0.2827549,-0.2476676,2.89224,-2.59287,-0.2620945,0.241341,-0.08409547,-1.117303,3.108854,1.847107,-0.8032388,1.58826,0.2390642,298.2057,160.8215,113.7509
2,1.577781,-0.2839395,0.1494635,-0.2262674,-1.128336,-2.035077,0.1624182,-0.6260671,0.03887071,6.623236,-0.3322906,-0.06684223,0.2880173,-0.2504596,2.883295,-2.580499,-0.2651334,0.2615755,-0.07444373,-1.11692,3.112732,1.848447,-0.8043503,1.590711,0.2396971,298.2193,160.4791,114.1703
2,1.588892,-0.2743777,0.1538011,-0.2252075,-1.13037,-2.0375,0.1660992,-0.6261443,-0.007377046,5.863192,-0.3185383,-0.09124748,0.2601876,-0.2532,2.879617,-2.57381,-0.2755901,0.2978217,-0.0668304,-1.116276,3.117543,1.849734,-0.8055069,1.593105,0.2403474,298.1903,160.1875,114.608
2,1.600003,-0.2648811,0.1614093,-0.2039172,-1.132572,-2.03891,0.1694356,-0.6263009,-0.01420279,5.863192,-0.3186762,-0.1145401,0.220689,-0.2554494,2.878565,-2.569294,-0.2776774,0.3020319,-0.05832319,-1.116354,3.12095,1.851867,-0.8067008,1.595485,0.2409648,298.1864,159.95,115.0033
2,1.611114,-0.2543837,0.1785883,-0.1922352,-1.135299,-2.040287,0.172575,-0.6266785,-0.03445072,5.863192,-0.3337516,-0.1239765,0.1770343,-0.257304,2.879127,-2.565761,-0.2756156,0.2956422,-0.06367921,-1.11626,3.124551,1.853283,-0.8078932,1.597867,0.2415303,298.2093,159.6793,115.4011
2,1.622225,-0.2449534,0.1957566,-0.1795049,-1.138173,-2.04162,0.1756254,-0.6265609,0.01101573,5.863192,-0.3466405,-0.1132297,0.1494325,-0.2587176,2.877212,-2.559733,-0.2853771,0.2882529,-0.08065578,-1.116714,3.128159,1.855148,-0.8090295,1.600213,0.2420426,298.2713,159.3148,115.8627
2,1.633336,-0.2303489,0.2300442,-0.1561849,-1.141697,-2.04221,0.1780472,-0.6266471,-0.008063847,7.600434,-0.3777105,-0.1077443,0.1026945,-0.2595357,2.879842,-2.557266,-0.3059182,0.2745248,-0.1071498,-1.117841,3.131749,1.857828,-0.8101614,1.602513,0.2424884,298.3058,158.8484,116.4103
2,1.644447,-0.2147091,0.2665138,-0.1211425,-1.145433,-2.041902,0.1798891,-0.6266477,-3.065418E-05,7.600434,-0.3926718,-0.08960024,0.09216693,-0.2605056,2.877951,-2.550665,-0.3156987,0.2671373,-0.1262513,-1.118798,3.135281,1.860088,-0.8113571,1.6048,0.2428697,298.3198,158.3657,116.954
2,1.655559,-0.199077,0.3040482,-0.08930299,-1.149736,-2.04123,0.1813986,-0.626873,-0.02070058,7.600434,-0.4107563,-0.03743872,0.1020068,-0.2604172,2.871171,-2.53907,-0.3266313,0.2533922,-0.1549459,-1.120432,3.138747,1.862363,-0.8126354,1.607051,0.2432013,298.3311,157.8301,117.5466
2,1.66667,-0.191813,0.3254436,-0.07659943,-1.153648,-2.041103,0.1833384,-0.6269987,-0.011384,7.600434,-0.4266793,-0.01298699,0.1181319,-0.2609536,2.864291,-2.527352,-0.3287025,0.2501916,-0.1464236,-1.121032,-3.14101,1.864595,-0.8140833,1.609274,0.2434649,298.2946,157.2168,118.2365
2,1.677781,-0.1886731,0.3308319,-0.06702805,-1.157498,-2.040795,0.1852149,-0.6270732,-0.006777845,7.600434,-0.4371442,0.0230467,0.1704981,-0.2618175,2.851001,-2.509349,-0.3272939,0.272501,-0.1154991,-1.120441,-3.137046,1.866463,-0.8157374,1.61141,0.2436208,298.2295,156.5367,118.9863
2,1.688892,-0.191842,0.3255205,-0.05316827,-1.160726,-2.04041,0.1873182,-0.6267536,0.02917733,7.274701,-0.4519671,0.04532424,0.197259,-0.2627187,2.839988,-2.49331,-0.3226193,0.3150468,-0.08348329,-1.119049,-3.131964,1.867887,-0.8175322,1.613357,0.2436592,298.1714,155.873,119.6464
2,1.700003,-0.1895514,0.3063595,-0.05415955,-1.163675,-2.040491,0.18942,-0.6266066,0.01308936,7.274701,-0.4615095,0.05806053,0.2101231,-0.2635534,2.82946,-2.477762,-0.3127189,0.3437282,-0.05901018,-1.117695,-3.127057,1.868944,-0.8194391,1.615116,0.2436363,298.1327,155.3701,120.0729
2,1.711114,-0.1818817,0.2819107,-0.0561977,-1.166221,-2.040832,0.1912874,-0.626269,0.03077052,7.274701,-0.4657067,0.03882954,0.2260494,-0.2654298,2.821541,-2.464885,-0.308165,0.3649634,-0.03129902,-1.115905,-3.122456,1.870446,-0.8214363,1.616715,0.2435818,298.0885,154.9606,120.406
2,1.722225,-0.1721479,0.2649307,-0.06038316,-1.168824,-2.041138,0.1930765,-0.6263717,-0.009734917,7.274701,-0.4668315,0.01758337,0.208934,-0.2669068,2.817091,-2.45536,-0.3144542,0.3852165,-0.02693733,-1.114608,-3.117338,1.871977,-0.823474,1.618176,0.2435035,298.0352,154.6552,120.6519
2,1.733337,-0.1580979,0.2426501,-0.06986253,-1.171221,-2.0417,0.1945972,-0.6266711,-0.02726302,8.469055,-0.4574426,-0.05358756,0.1521912,-0.2689675,2.82353,-2.456769,-0.3199489,0.3895981,-0.04923884,-1.114131,-3.111568,1.873186,-0.8254845,1.619539,0.2434114,297.992,154.4598,120.7914
2,1.744448,-0.1505565,0.2331183,-0.07301322,-1.173794,-2.042162,0.1962505,-0.6266935,-0.001891374,8.469055,-0.4500491,-0.08760029,0.1307586,-0.2710789,2.824389,-2.452919,-0.3233387,0.3757958,-0.06518718,-1.113791,-3.107208,1.875004,-0.8274348,1.620855,0.2433557,297.9732,154.2901,120.8869
2,1.755559,-0.1376941,0.2225726,-0.07188677,-1.176054,-2.042357,0.1975368,-0.6269651,-0.02491057,8.469055,-0.4373812,-0.1119868,0.09866586,-0.272713,2.828689,-2.452573,-0.3365629,0.3471556,-0.1045472,-1.114982,-3.103284,1.877373,-0.8293591,1.622213,0.2433774,297.9382,154.103,121.0175
2,1.76667,-0.1460577,0.2022705,-0.06969786,-1.177983,-2.042801,0.1996737,-0.6267201,0.02251212,8.469055,-0.4181098,-0.05455583,0.1286219,-0.2732952,2.819357,-2.439356,-0.3366393,0.3493035,-0.114127,-1.115157,-3.09859,1.879083,-0.831253,1.623647,0.2434979,297.9074,153.885,121.2226
2,1.777781,-0.1565912,0.1883221,-0.07285396,-1.179853,-2.043368,0.2018996,-0.6268517,-0.0122664,8.469055,-0.4041069,-0.02167913,0.1712976,-0.2747578,2.809186,-2.425481,-0.3216086,0.3631082,-0.1099327,-1.114492,-3.093504,1.879725,-0.8331492,1.625181,0.2437295,297.8902,153.5988,121.5184
2,1.788892,-0.1722422,0.1497602,-0.08977608,-1.180589,-2.044728,0.2049334,-0.6260378,0.07444208,7.926167,-0.4050023,-0.03567575,0.2159901,-0.277633,2.801264,-2.413333,-0.3053217,0.3778856,-0.07913134,-1.112972,-3.08894,1.880758,-0.8350728,1.626791,0.244088,297.9122,153.2216,121.9161
2,1.800003,-0.1835956,0.1090889,-0.1130703,-1.181138,-2.046554,0.2079481,-0.6258748,0.0142402,7.926167,-0.4134952,-0.04316071,0.2234529,-0.2799515,2.795597,-2.403027,-0.3019021,0.4012793,-0.06313565,-1.111678,-3.083405,1.881581,-0.8369902,1.628418,0.2445224,297.9131,152.8849,122.3393
2,1.811115,-0.1876323,0.08448172,-0.1279091,-1.181717,-2.048329,0.2108259,-0.6253864,0.04463372,7.926167,-0.4146662,-0.09099585,0.19346,-0.2825944,2.798006,-2.40063,-0.3071136,0.4183314,-0.05559815,-1.110501,-3.077758,1.882784,-0.8388743,1.630068,0.2449599,297.8995,152.6827,122.6769
2,1.822226,-0.1908271,0.0844742,-0.1289611,-1.18313,-2.049688,0.2134406,-0.6255808,-0.0181076,7.926167,-0.4051963,-0.110053,0.1614008,-0.2844762,2.798698,-2.396981,-0.3210911,0.4066821,-0.06508496,-1.110122,-3.072957,1.88469,-0.8407238,1.631766,0.2453467,297.9471,152.6362,122.8601
2,1.833337,-0.1908761,0.08978954,-0.1257819,-1.184226,-2.050749,0.2159978,-0.6257778,-0.01777072,7.383279,-0.3945908,-0.1132015,0.1485663,-0.2863537,2.798495,-2.392696,-0.3341362,0.3673406,-0.07675568,-1.110151,-3.069306,1.887254,-0.8426041,1.633604,0.245705,298.0489,152.5897,122.9818
2,1.844448,-0.2026668,0.09926386,-0.1258355,-1.185643,-2.051933,0.2189182,-0.6259302,-0.01380619,7.383279,-0.3860278,-0.1174981,0.1591664,-0.2887591,2.796319,-2.386524,-0.3428191,0.3460843,-0.08630675,-1.110235,-3.065434,1.889531,-0.844447,1.635561,0.2460266,298.135,152.4464,123.1818
2,1.855559,-0.2186561,0.09812523,-0.1098716,-1.186835,-2.052536,0.2219862,-0.625903,0.002628962,7.383279,-0.3913796,-0.1100196,0.152821,-0.290569,2.79488,-2.380639,-0.3451235,0.331215,-0.1001577,-1.110516,-3.061319,1.891634,-0.846225,1.637602,0.2463075,298.212,152.1263,123.5652
2,1.86667,-0.2357722,0.1044371,-0.09500168,-1.188351,-2.052851,0.2251511,-0.6256021,0.02748231,7.383279,-0.401023,-0.0886566,0.1380159,-0.2915064,2.792955,-2.374131,-0.3355587,0.3333167,-0.1034295,-1.110442,-3.05682,1.893075,-0.8479494,1.639646,0.2465244,298.3137,151.7152,124.059
2,1.877781,-0.2551518,0.1267313,-0.07487296,-1.190486,-2.052791,0.2283559,-0.6252511,0.03187156,7.383279,-0.4202299,-0.06839347,0.1307021,-0.2925541,2.790435,-2.366493,-0.3131776,0.3385619,-0.104676,-1.110344,-3.052213,1.893935,-0.8496973,1.641724,0.2466742,298.4091,151.3488,124.4956
2,1.888893,-0.2573536,0.1352545,-0.06850205,-1.192138,-2.052827,0.2311315,-0.6250972,0.01391465,7.817589,-0.4233793,-0.0673613,0.1424358,-0.2943395,2.787262,-2.358764,-0.2992631,0.3438126,-0.0994541,-1.109992,-3.047912,1.89492,-0.8515085,1.643843,0.2467281,298.4854,151.0161,124.877
2,1.900004,-0.2414654,0.1450238,-0.05680513,-1.194074,-2.052794,0.2333004,-0.6250125,0.007711071,7.817589,-0.42982,-0.06199166,0.1318257,-0.2955896,2.785631,-2.352173,-0.2961064,0.3320792,-0.09843303,-1.109849,-3.044,1.896461,-0.8533334,1.646001,0.2466637,298.5432,150.6767,125.2222
2,1.911115,-0.226673,0.1569518,-0.03552064,-1.196081,-2.052045,0.2351113,-0.6255723,-0.05113367,7.817589,-0.4383839,-0.05236828,0.1212384,-0.2965941,2.783861,-2.345354,-0.3014863,0.3224819,-0.09948722,-1.110101,-3.040357,1.89843,-0.8551394,1.648159,0.2464734,298.6216,150.2214,125.6598
2,1.922226,-0.2235791,0.1687161,-0.02916798,-1.198157,-2.051709,0.2374048,-0.6262663,-0.06300299,7.817589,-0.4405036,-0.05024928,0.1233849,-0.2980647,2.781586,-2.338297,-0.3059902,0.3012273,-0.1186629,-1.110911,-3.036765,1.900373,-0.8569073,1.650261,0.2461725,298.7498,149.7407,126.1029
2,1.933337,-0.2184845,0.1932611,-0.02397569,-1.200575,-2.051238,0.2397553,-0.6264176,-0.01335829,5.863192,-0.4394269,-0.06943169,0.1254443,-0.2999625,2.781333,-2.333238,-0.3072231,0.2969758,-0.1389072,-1.111988,-3.033102,1.90187,-0.8586334,1.652235,0.2457974,298.8876,149.2263,126.5581
2,1.944448,-0.2207556,0.2071214,-0.01547126,-1.203163,-2.050531,0.2423445,-0.6260623,0.03256434,5.863192,-0.4352314,-0.1013091,0.1040165,-0.3017702,2.784175,-2.331344,-0.2934545,0.3140193,-0.1560304,-1.112588,-3.027914,1.902497,-0.8603879,1.654069,0.2453807,298.9897,148.7063,127.0116
2,1.955559,-0.2230944,0.2295436,0.002551407,-1.206085,-2.049209,0.2443962,-0.6259004,0.01449044,5.863192,-0.4279325,-0.1320482,0.06020375,-0.3030102,2.79056,-2.332882,-0.2817298,0.3257025,-0.1603694,-1.113089,-3.023165,1.903233,-0.8622552,1.655785,0.244962,299.0966,148.2289,127.4193
2,1.966671,-0.2284961,0.2358998,0.009968817,-1.208458,-2.048266,0.2469432,-0.6255819,0.02903413,5.863192,-0.4173585,-0.1426284,0.03775108,-0.3042172,2.79533,-2.333096,-0.280566,0.3480575,-0.1571248,-1.11303,-3.018027,1.904179,-0.8642324,1.657357,0.2445986,299.1935,147.7437,127.8025
2,1.977782,-0.2328228,0.2412554,0.02698764,-1.211022,-2.046695,0.2491132,-0.6258977,-0.02908777,5.863192,-0.4089736,-0.1542144,0.0003932305,-0.3049234,2.802621,-2.335738,-0.2749359,0.3810211,-0.1358031,-1.112264,-3.012274,1.904519,-0.866274,1.658808,0.2442845,299.1947,147.3327,128.1301
2,1.988893,-0.2189955,0.2371906,0.05257635,-1.212913,-2.04484,0.2508975,-0.6256127,0.02636923,6.080348,-0.4026366,-0.1435013,-0.01556448,-0.3054252,2.806301,-2.335038,-0.2650973,0.3787661,-0.1039267,-1.111255,-3.008152,1.905477,-0.868364,1.660178,0.243998,299.1472,146.973,128.4212
2,2.000004,-0.1892493,0.2439386,0.07921655,-1.215388,-2.042537,0.2513555,-0.6257667,-0.01433577,6.080348,-0.4102406,-0.1476261,-0.05496692,-0.3053607,2.814681,-2.338279,-0.2639537,0.3627526,-0.08798721,-1.110583,-3.004152,1.906601,-0.8704824,1.661528,0.2437207,299.0977,146.6954,128.6461
2,2.011115,-0.1701078,0.2441632,0.09522142,-1.217688,-2.040215,0.2521247,-0.6261007,-0.03033946,6.080348,-0.4112962,-0.1209966,-0.05378887,-0.3055216,2.816673,-2.335727,-0.2702942,0.3445856,-0.07308012,-1.11034,-3.001027,1.908457,-0.872577,1.662844,0.2433969,299.0714,146.3335,128.9783
2,2.022226,-0.1318563,0.252072,0.1282601,-1.220073,-2.037171,0.2515073,-0.6272708,-0.1067635,6.080348,-0.4059402,-0.08054912,-0.04301162,-0.3052909,2.81637,-2.331025,-0.2712804,0.3456368,-0.06772257,-1.10951,-2.996896,1.909271,-0.8746328,1.66408,0.2429747,299.0736,145.888,129.3947
2,2.033337,-0.1127681,0.2586781,0.1421062,-1.22255,-2.034377,0.2515414,-0.6269763,0.02770812,6.080348,-0.3995166,-0.0582101,-0.03337035,-0.3052393,2.816877,-2.327233,-0.2618353,0.3317753,-0.07847865,-1.109443,-2.992918,1.910163,-0.8766539,1.665161,0.2424313,299.0904,145.3476,129.8696
2,2.044448,-0.09688874,0.2684791,0.1623266,-1.225176,-2.031248,0.2511478,-0.62791,-0.08582937,6.40608,-0.3995098,-0.02732715,-0.02901148,-0.3047253,2.816743,-2.322608,-0.2545665,0.3232684,-0.09880704,-1.109862,-2.988679,1.910757,-0.8786919,1.666071,0.2417797,299.0904,144.8269,130.2883
2,2.055559,-0.0852645,0.2761327,0.187879,-1.227691,-2.027521,0.2505342,-0.6272773,0.05854039,6.40608,-0.3941282,-0.001814783,-0.01296321,-0.3044808,2.814511,-2.316223,-0.2461513,0.3264595,-0.1127223,-1.110156,-2.984154,1.91127,-0.8807936,1.666754,0.2410264,299.0938,144.2937,130.6835
2,2.06667,-0.06599019,0.2624891,0.1964715,-1.229674,-2.024505,0.2499228,-0.6273321,-0.005773756,6.40608,-0.3877692,-0.002848923,-0.02257618,-0.304256,2.816137,-2.313725,-0.2324457,0.3242243,-0.1255765,-1.11026,-2.980887,1.912086,-0.8830165,1.667263,0.2402257,299.0365,143.8886,130.8947
2,2.077781,-0.05201926,0.2477003,0.1986764,-1.231408,-2.021555,0.2491555,-0.6272122,0.01096205,6.40608,-0.3717903,-0.0007151067,-0.02262872,-0.3040307,2.816529,-2.310375,-0.2174529,0.3156248,-0.1129374,-1.110052,-2.977097,1.912401,-0.8853387,1.667621,0.2393914,298.9321,143.5383,131.0516
2,2.088892,-0.02624068,0.2213088,0.2062503,-1.232459,-2.018796,0.2479456,-0.6272852,-0.006908121,6.731813,-0.3590688,-0.02301696,-0.04086406,-0.3039029,2.82074,-2.310763,-0.2108372,0.32402,-0.08526866,-1.10888,-2.973606,1.913468,-0.8877175,1.6678,0.2385337,298.8475,143.19,131.189
2,2.100003,-0.002609566,0.1981013,0.2138209,-1.23346,-2.015825,0.2462787,-0.6273193,-0.003145991,6.731813,-0.3411074,-0.03991717,-0.08147198,-0.3029985,2.827833,-2.314257,-0.2042451,0.3260864,-0.06294997,-1.10773,-2.969697,1.913807,-0.8901665,1.667817,0.2377235,298.7986,142.9133,131.2278
2,2.111114,0.02310622,0.1802065,0.2149961,-1.23427,-2.012813,0.2443924,-0.6276581,-0.03107973,6.731813,-0.3338158,-0.08449054,-0.1274627,-0.302435,2.838796,-2.321151,-0.1998916,0.3164623,-0.04916878,-1.106939,-2.966101,1.914243,-0.8926199,1.66767,0.236973,298.7171,142.7377,131.2128
2,2.122225,0.02310622,0.1802065,0.2149961,-1.23427,-2.012813,0.2443924,-0.6278839,-0.02050048,6.731813,-0.3338158,-0.08449054,-0.1274627,-0.302435,2.838796,-2.321151,-0.1998916,0.3164623,-0.04916878,-1.106939,-2.966101,1.914243,-0.8950322,1.667321,0.2362898,298.6376,142.6154,131.1786
2,2.133336,0.05738089,0.1612593,0.2002101,-1.236341,-2.007611,0.2407093,-0.6270237,0.07864431,6.731813,-0.3168311,-0.02903277,-0.1422535,-0.2995636,2.846494,-2.321836,-0.204303,0.3037234,-0.06087149,-1.106152,-2.958542,1.915504,-0.8970822,1.666624,0.2356703,298.4623,142.7882,130.7756
2,2.144447,0.07022762,0.1570596,0.1927918,-1.237214,-2.005123,0.2385718,-0.6284192,-0.1284266,5.97177,-0.307134,0.05500969,-0.1079018,-0.2975166,2.840213,-2.312587,-0.2044738,0.2962711,-0.07367648,-1.106263,-2.954948,1.916596,-0.8987148,1.665831,0.2352262,298.3003,143.1213,130.2617
2,2.155558,0.06823131,0.1431393,0.1789943,-1.238027,-2.003158,0.2372227,-0.6278221,0.05558804,5.97177,-0.3081476,0.0794594,-0.09289883,-0.2960247,2.837772,-2.30683,-0.1958373,0.3026136,-0.06308628,-1.105486,-2.951104,1.916811,-0.9014211,1.665715,0.2349818,298.2658,142.4214,130.9784
2,2.166669,0.06512016,0.1334942,0.1704982,-1.238892,-2.001217,0.2360807,-0.6276522,0.01477207,5.97177,-0.3049196,0.08155757,-0.08544524,-0.2949824,2.838034,-2.303821,-0.180792,0.3238288,-0.0504013,-1.104275,-2.946709,1.91706,-0.9043207,1.665474,0.2347834,298.1862,141.9731,131.3911
2,2.17778,0.0748875,0.114356,0.1588624,-1.239345,-1.999567,0.2344136,-0.6268415,0.07388385,5.97177,-0.2985868,0.05285501,-0.1026134,-0.2939139,2.842057,-2.304504,-0.1593137,0.3471721,-0.03989121,-1.102886,-2.941888,1.916086,-0.9071364,1.664948,0.2346101,298.0377,141.9836,131.2774
2,2.188891,0.08240075,0.1080022,0.1535748,-1.239893,-1.997593,0.2327486,-0.6264346,0.03649798,4.885993,-0.2932839,0.03157857,-0.1122935,-0.2929786,2.846391,-2.305664,-0.1529276,0.3322332,-0.03464054,-1.101942,-2.938227,1.916002,-0.9097892,1.664239,0.2344805,297.8139,142.2312,130.9026
2,2.200002,0.1016927,0.09536617,0.1483161,-1.240392,-1.995919,0.2305307,-0.6269369,-0.04619549,4.885993,-0.2762483,0.01561365,-0.1156087,-0.2921621,2.850242,-2.306761,-0.1647425,0.2971139,-0.03140769,-1.101388,-2.935564,1.916996,-0.912249,1.663488,0.2343768,297.5616,142.4979,130.5437
2,2.211113,0.1028667,0.08361602,0.1377169,-1.240691,-1.994341,0.2289253,-0.6267942,0.01337008,4.885993,-0.2688122,0.002859265,-0.1220702,-0.2911741,2.854174,-2.307731,-0.1680484,0.274761,-0.03569129,-1.101107,-2.932717,1.917613,-0.9145743,1.662827,0.2342967,297.3768,142.6899,130.2791
2,2.222224,0.09023736,0.06746095,0.1185804,-1.24095,-1.993465,0.228046,-0.6273038,-0.04681298,4.885993,-0.2666368,0.01666012,-0.1092409,-0.2902281,2.854502,-2.305097,-0.1649743,0.2694462,-0.04744731,-1.100916,-2.929306,1.917851,-0.916816,1.662301,0.2342412,297.2409,142.7161,130.1879
2,2.233335,0.08079695,0.05032413,0.1154395,-1.240793,-1.992196,0.2269599,-0.6266583,0.05934778,4.885993,-0.2622965,0.02191359,-0.08793284,-0.289656,2.854585,-2.302365,-0.1447602,0.264042,-0.04443364,-1.100256,-2.926111,1.917937,-0.9189823,1.66189,0.2342031,297.1484,142.6807,130.1636
2,2.244446,0.07558009,0.03536353,0.1112289,-1.24072,-1.990916,0.2261263,-0.6259995,0.05962319,6.840391,-0.2419051,0.03562781,-0.0464152,-0.2894563,2.851405,-2.29706,-0.1320146,0.262941,-0.04880999,-1.0999,-2.922765,1.917516,-0.921122,1.661611,0.2342101,297.0843,142.6607,130.1165
2,2.255557,0.06714366,0.0267244,0.09953409,-1.240578,-1.990068,0.2253333,-0.6259904,0.0003363718,6.840391,-0.218417,0.01534767,-0.03378991,-0.2896092,2.852175,-2.295963,-0.1107311,0.273522,-0.05324335,-1.099451,-2.919003,1.916759,-0.9232409,1.661468,0.2342595,297.03,142.6699,130.0763
2,2.266668,0.05671683,1.306087E-05,0.103896,-1.239616,-1.98879,0.2244619,-0.6257502,0.02203909,6.840391,-0.2056172,0.005751848,-0.02961702,-0.2893881,2.853655,-2.295347,-0.09897858,0.267079,-0.04696712,-1.098859,-2.91589,1.91618,-0.9253011,1.661418,0.2343294,297.0109,142.6693,130.0387
2,2.277779,0.05328277,0.03080829,0.08566198,-1.240659,-1.988007,0.2237108,-0.6258413,-0.008551451,6.840391,-0.201371,-0.02192645,-0.03505531,-0.2896252,2.857347,-2.296765,-0.09043089,0.2595948,-0.04171812,-1.098108,-2.912788,1.915483,-0.9273099,1.661429,0.234444,297.0096,142.6074,130.0306
2,2.28889,0.05439631,0.02853759,0.04838551,-1.241024,-1.988476,0.2234563,-0.6258162,0.002414398,6.840391,-0.1907179,-0.04214077,-0.0383562,-0.2897919,2.860467,-2.297997,-0.09456546,0.2489252,-0.0225185,-1.096915,-2.91022,1.915535,-0.9292166,1.661457,0.2345727,296.9876,142.587,130.0335
2,2.300001,0.05452565,0.01675716,0.02924687,-1.241076,-1.988764,0.2228389,-0.6258727,-0.005183836,6.297503,-0.1896794,-0.04957177,-0.04584303,-0.2897541,2.864403,-2.299666,-0.09351654,0.2414625,-0.02147565,-1.096274,-2.907503,1.915306,-0.9310256,1.661469,0.2346703,296.9523,142.6004,130.0242
2,2.311112,0.04193666,-0.006871963,0.006950107,-1.240507,-1.989369,0.2234083,-0.6258082,0.005933343,6.297503,-0.1640589,-0.034696,-0.03203794,-0.289688,2.863708,-2.297951,-0.09148062,0.2233538,-0.02472571,-1.095987,-2.905211,1.915325,-0.9328178,1.661576,0.2347819,296.8933,142.5906,129.9789
2,2.322223,0.03563794,-0.01764321,-0.008994401,-1.240108,-1.989923,0.223623,-0.6261166,-0.02825829,6.297503,-0.1533387,-0.007062718,-0.0128071,-0.2895133,2.860948,-2.293909,-0.08516638,0.2084241,-0.02800582,-1.095751,-2.902978,1.915079,-0.9345622,1.661785,0.2349897,296.8882,142.6615,129.8333
2,2.333334,0.01652255,-0.02421345,-0.01325321,-1.239548,-1.990335,0.2241172,-0.6250972,0.09349696,6.297503,-0.141506,0.002420224,0.01806849,-0.2900001,2.857789,-2.289636,-0.08311418,0.1913756,-0.0301879,-1.095594,-2.901005,1.915052,-0.9361868,1.662036,0.2353297,296.9395,142.7224,129.7309
2,2.344445,0.01431875,-0.01473472,-0.03886408,-1.240077,-1.991475,0.2247687,-0.6253848,-0.02712068,7.926167,-0.1371936,-0.01891804,0.02862597,-0.2908449,2.858764,-2.289207,-0.07254949,0.1743076,-0.03349928,-1.095365,-2.899109,1.914768,-0.9376954,1.662305,0.2358199,297.0111,142.776,129.669
2,2.355556,0.008758172,0.01188083,-0.03151844,-1.240922,-1.991452,0.2248017,-0.6251978,0.01751652,7.926167,-0.1383252,-0.05187601,0.009340793,-0.2914963,2.863382,-2.29209,-0.07911996,0.146652,-0.04414481,-1.095742,-2.897845,1.915118,-0.9391088,1.662607,0.2364468,297.045,142.7822,129.716
2,2.366668,0.006471288,0.02891738,-0.02947062,-1.241771,-1.991696,0.2250307,-0.62534,-0.01310474,7.926167,-0.1351872,-0.06140663,-0.006681691,-0.2916662,2.867166,-2.294286,-0.08988741,0.1435117,-0.05684302,-1.096146,-2.895879,1.915421,-0.9404698,1.662965,0.2371262,297.0242,142.8137,129.8105
2,2.377779,0.003257649,0.0320567,-0.0369441,-1.242367,-1.992224,0.225232,-0.6256745,-0.03040973,7.926167,-0.103226,-0.07631487,-0.006852977,-0.2924455,2.870476,-2.297158,-0.08780871,0.1445812,-0.06325102,-1.096438,-2.89381,1.915399,-0.9418094,1.663443,0.2378665,296.9829,142.8133,129.8997
2,2.38889,-0.006340415,0.03087804,-0.04120149,-1.242409,-1.992577,0.2261397,-0.6256537,0.002192561,7.926167,-0.0872207,-0.06675519,0.002702875,-0.2929131,2.870857,-2.296853,-0.08351989,0.1381701,-0.05689925,-1.096192,-2.892085,1.91546,-0.9430298,1.663968,0.2385871,296.9065,142.6989,130.1169
2,2.400001,-0.01062741,0.03299779,-0.03482325,-1.24288,-1.992688,0.2264145,-0.6258045,-0.01381128,7.491857,-0.07119635,-0.04975171,0.0154852,-0.293369,2.869785,-2.295498,-0.08667876,0.1221805,-0.04624391,-1.096059,-2.89109,1.916064,-0.9441463,1.66453,0.2392492,296.8665,142.5757,130.3409
2,2.411112,-0.01821146,0.04151737,-0.0156807,-1.243153,-1.991979,0.2271186,-0.62511,0.06365295,7.491857,-0.07873049,-0.03477189,-0.003610617,-0.2928875,2.870994,-2.295461,-0.08129894,0.1093694,-0.03565994,-1.09581,-2.88992,1.916245,-0.9452133,1.665099,0.2398413,296.9208,142.4414,130.5521
2,2.422223,-0.01938668,0.05433558,-0.005089432,-1.244081,-1.991695,0.2270909,-0.6256548,-0.05033491,7.491857,-0.08834709,-0.02835621,-0.01100966,-0.2927368,2.872086,-2.295266,-0.08238279,0.09978357,-0.03460523,-1.095914,-2.888849,1.916619,-0.9463405,1.665722,0.2403765,296.9869,142.3123,130.7215
2,2.433334,-0.01324133,0.07360956,0.00869418,-1.245072,-1.990778,0.2277908,-0.6251105,0.05032827,7.491857,-0.1139014,-0.02516609,-0.008768233,-0.2928604,2.87284,-2.294044,-0.08464715,0.0774325,-0.04101845,-1.09645,-2.888341,1.917415,-0.9474522,1.666295,0.2408134,297.0495,142.1103,130.9562
2,2.444445,-0.005841176,0.07793851,0.01613871,-1.245512,-1.990296,0.2276944,-0.625975,-0.07945105,8.2519,-0.1117064,-0.003907345,0.007278034,-0.292871,2.869949,-2.290266,-0.08362946,0.07530804,-0.04529339,-1.096771,-2.887196,1.917838,-0.9485377,1.66676,0.2411309,297.0672,141.879,131.1977
2,2.455556,-0.006736476,0.05666297,0.02581088,-1.245484,-1.989714,0.2276273,-0.6252058,0.07105916,8.2519,-0.1074289,0.0184462,0.01266543,-0.2925621,2.866999,-2.286355,-0.08147347,0.08595902,-0.04635038,-1.096706,-2.8856,1.917987,-0.9496629,1.667155,0.2413191,297.0781,141.677,131.3874
2,2.466667,-0.008865456,0.05026685,0.03007812,-1.245777,-1.989433,0.228463,-0.6260895,-0.08141248,8.2519,-0.1107474,-0.0006092787,-0.02147322,-0.2920779,2.870945,-2.288865,-0.08033699,0.09234414,-0.042084,-1.096537,-2.884138,1.917971,-0.9508214,1.667489,0.2414268,297.0709,141.5473,131.4141
2,2.477778,-0.005495262,0.02901496,0.03655981,-1.245368,-1.988919,0.2282755,-0.6261533,-0.005094385,8.2519,-0.1193596,-0.01331012,-0.04598667,-0.2915384,2.874828,-2.291052,-0.08146903,0.09982412,-0.05271395,-1.096906,-2.882426,1.918114,-0.9519914,1.667795,0.2414837,297.0724,141.5265,131.3421
2,2.488889,0.001027035,0.01522896,0.03661915,-1.245277,-1.988592,0.2278164,-0.6253518,0.07327314,8.2519,-0.1225964,-0.01113257,-0.05768965,-0.2907879,2.876918,-2.291658,-0.08682622,0.1009128,-0.05692693,-1.097249,-2.880975,1.918529,-0.9531409,1.667996,0.2414845,297.1263,141.445,131.4043
2,2.5,0.009624528,0.005735792,0.04199451,-1.244939,-1.988011,0.2272843,-0.626236,-0.08144381,8.469055,-0.1257834,0.00803113,-0.05441597,-0.2899842,2.876752,-2.290015,-0.08567761,0.09023118,-0.04310666,-1.09709,-2.880208,1.919095,-0.9542685,1.668051,0.241423,297.1763,141.3307,131.5117
2,2.511111,0.02257586,-0.01866059,0.04210684,-1.24386,-1.987745,0.2273434,-0.6266631,-0.03828899,8.469055,-0.1224706,0.06224717,-0.02015258,-0.2890925,2.869034,-2.281303,-0.08981775,0.09342061,-0.02921407,-1.096583,-2.879027,1.919821,-0.9554186,1.668029,0.2412976,297.1653,141.3708,131.4306
2,2.522222,0.02911953,-0.03458272,0.04323256,-1.242995,-1.987612,0.2265908,-0.6266242,0.003771286,8.469055,-0.1149644,0.07924569,-0.006273404,-0.2884523,2.864684,-2.276082,-0.08756741,0.09871854,-0.0175052,-1.096015,-2.877766,1.92014,-0.9565457,1.667963,0.2411298,297.1182,141.5231,131.2076
2,2.533333,0.04093254,-0.0568313,0.05186616,-1.241301,-1.987007,0.2270819,-0.6260639,0.05110615,8.469055,-0.1150304,0.06546379,-0.02549735,-0.2876065,2.865744,-2.275919,-0.07556142,0.1124653,0.01117872,-1.094627,-2.876503,1.920178,-0.9577103,1.667859,0.2409993,297.2039,141.5829,131.0063
2,2.544444,0.05065576,-0.07381248,0.05196387,-1.239648,-1.986515,0.2263112,-0.6268053,-0.06829594,8.2519,-0.1161357,0.03674096,-0.03730978,-0.287296,2.868541,-2.277236,-0.06587732,0.1177492,0.02068764,-1.093753,-2.875016,1.920049,-0.9589863,1.66773,0.2410346,297.3289,141.5893,130.8246
2,2.555555,0.06563435,-0.08114631,0.05094608,-1.238461,-1.986245,0.225109,-0.6254679,0.1228999,8.2519,-0.1023155,0.01546676,-0.04595697,-0.2869913,2.871477,-2.279284,-0.063891,0.1135075,0.005748527,-1.093608,-2.873642,1.920051,-0.9602719,1.667494,0.2412099,297.3988,141.6393,130.7172
2,2.566666,0.06885848,-0.08432172,0.05417871,-1.236887,-1.985484,0.2240454,-0.6265896,-0.1036991,8.2519,-0.09064293,0.01871929,-0.06090686,-0.28591,2.872753,-2.279959,-0.06084869,0.1135308,-0.01132519,-1.093759,-2.872022,1.920014,-0.961516,1.667106,0.241503,297.3944,141.8187,130.5159
2,2.577777,0.07213335,-0.09386735,0.05741886,-1.235424,-1.985018,0.2229982,-0.6271814,-0.05311066,8.2519,-0.08640905,0.01448441,-0.06839442,-0.2851478,2.874879,-2.281166,-0.05675185,0.1060882,-0.02735409,-1.094119,-2.870672,1.919914,-0.9626589,1.666614,0.241836,297.3103,142.1185,130.255
2,2.588888,0.07972512,-0.1055192,0.05747224,-1.233912,-1.984764,0.2213721,-0.6268181,0.03346705,8.2519,-0.08110808,0.0134503,-0.07588582,-0.2841241,2.877121,-2.282557,-0.05369043,0.1029104,-0.04017433,-1.094423,-2.869163,1.919926,-0.9637437,1.666031,0.2421702,297.2502,142.3293,130.1192
2,2.599999,0.08103996,-0.1310896,0.05223026,-1.231952,-1.985071,0.2202237,-0.6267393,0.006824898,6.514658,-0.07688768,0.01881399,-0.08653636,-0.2829348,2.879105,-2.283714,-0.05048204,0.1092932,-0.04125625,-1.094415,-2.867507,1.919655,-0.96481,1.665341,0.2424522,297.2039,142.4793,130.034
2,2.61111,0.08978363,-0.1565693,0.05660974,-1.229395,-1.984824,0.2188426,-0.6272724,-0.04886007,6.514658,-0.06090157,0.02307508,-0.0855158,-0.2820075,2.880091,-2.284463,-0.04191235,0.1113804,-0.03386739,-1.094013,-2.866082,1.919595,-0.9659173,1.664608,0.2426471,297.1493,142.7034,129.8423
2,2.622221,0.09836743,-0.1628654,0.06196143,-1.227372,-1.984535,0.2172271,-0.6269113,0.03334266,6.514658,-0.05453536,0.008187659,-0.09304784,-0.2812841,2.883966,-2.287763,-0.03535471,0.09746785,-0.01050862,-1.093267,-2.86551,1.919393,-0.9670593,1.663823,0.2427701,297.1307,142.9807,129.5502
2,2.633332,0.1110999,-0.1574022,0.06945349,-1.225314,-1.983328,0.215291,-0.626792,0.01051032,6.514658,-0.06193314,0.03796288,-0.07800189,-0.2802476,2.882135,-2.285254,-0.03194285,0.08462004,0.01926788,-1.092151,-2.865258,1.919541,-0.9682322,1.663002,0.2428494,297.1346,143.3339,129.1724
2,2.644443,0.1100066,-0.1531105,0.07581169,-1.223797,-1.982803,0.2137155,-0.6268975,-0.009789359,8.034744,-0.06615397,0.05603207,-0.06726766,-0.2792293,2.880176,-2.282552,-0.02545654,0.07924794,0.03198905,-1.091243,-2.864732,1.919393,-0.9694105,1.662109,0.2428644,297.1371,143.6702,128.8266
2,2.655554,0.09723827,-0.1564166,0.08117549,-1.221284,-1.981576,0.2127258,-0.6268144,0.007613007,8.034744,-0.05763181,0.05709885,-0.0672959,-0.2782353,2.880017,-2.281968,-0.004055358,0.08022214,0.04245824,-1.090242,-2.864104,1.918564,-0.9706703,1.66122,0.2428562,297.1507,144.0023,128.3803
2,2.666665,0.09202556,-0.1671405,0.07590991,-1.218797,-1.981059,0.2115418,-0.6265758,0.02166191,8.034744,-0.05127825,0.04861619,-0.07800071,-0.2771744,2.88212,-2.283623,0.004553452,0.09083976,0.04773238,-1.089193,-2.862899,1.917702,-0.9720401,1.660362,0.2429513,297.1729,144.2401,127.9153
2,2.677776,0.0899964,-0.1788767,0.0759562,-1.21638,-1.980691,0.2104824,-0.625674,0.08223008,8.034744,-0.05662794,0.04437599,-0.08438709,-0.2760862,2.883713,-2.284428,0.008704312,0.08018783,0.03915434,-1.088781,-2.862295,1.917223,-0.973277,1.659396,0.2431421,297.1291,144.5026,127.538
2,2.688887,0.100691,-0.1809094,0.07814784,-1.213922,-1.97954,0.2083434,-0.6260096,-0.0313959,8.034744,-0.05662729,0.04650781,-0.08438232,-0.2749634,2.884331,-2.284367,0.01076087,0.06740227,0.03485572,-1.088393,-2.862066,1.91688,-0.9744475,1.658409,0.243378,297.0753,144.9016,127.1131
2,2.699998,0.1060132,-0.1808499,0.08135033,-1.211707,-1.978932,0.206819,-0.6259946,0.001700836,7.709012,-0.04695539,0.06773509,-0.06090902,-0.2740174,2.880754,-2.280645,0.008667894,0.06207161,0.04125619,-1.087608,-2.861766,1.916728,-0.9756858,1.657547,0.2436677,297.0415,145.3376,126.6663
2,2.711109,0.1028157,-0.17873,0.08238208,-1.209935,-1.97861,0.2054059,-0.6267691,-0.07085496,7.709012,-0.04372054,0.07835408,-0.05235942,-0.2731189,2.878274,-2.278018,-0.002023239,0.04398153,0.0445113,-1.087064,-2.86208,1.917271,-0.9768454,1.656749,0.2439435,297.0106,145.7551,126.2548
2,2.72222,0.09958845,-0.1766648,0.08128604,-1.207554,-1.978311,0.2044237,-0.6263728,0.03679829,7.709012,-0.04691935,0.07196541,-0.0534346,-0.2722273,2.878019,-2.277161,-0.005185526,0.04291938,0.04879823,-1.086291,-2.861856,1.917311,-0.9779273,1.655967,0.244234,297.0264,145.9844,125.9776
2,2.733331,0.09748048,-0.1788205,0.08129839,-1.205268,-1.977735,0.2031331,-0.6262509,0.01072815,7.709012,-0.04903542,0.07196121,-0.05129368,-0.2712952,2.877095,-2.275732,-0.004117653,0.04611533,0.04879821,-1.08551,-2.861366,1.917206,-0.978937,1.655181,0.2444779,296.9878,146.2102,125.7844
2,2.744442,0.0901681,-0.1948855,0.07602891,-1.202536,-1.977581,0.2022985,-0.6257997,0.04118682,7.709012,-0.04483437,0.06242811,-0.06625637,-0.2701085,2.878476,-2.276611,-0.001977038,0.05250216,0.04772635,-1.084779,-2.860698,1.916891,-0.9797467,1.654302,0.2445985,296.9085,146.4618,125.6675
2,2.755553,0.08819897,-0.2108813,0.07608495,-1.199673,-1.97741,0.2010218,-0.6259632,-0.01528259,7.274701,-0.04384289,0.04971395,-0.08654442,-0.2688232,2.88162,-2.279192,0.001179546,0.05463153,0.04237605,-1.084247,-2.860103,1.916491,-0.9801461,1.653145,0.2444083,296.8509,146.7741,125.5583
2,2.766664,0.0892289,-0.2044522,0.08137563,-1.197562,-1.97685,0.199409,-0.625699,0.02429301,7.274701,-0.04598421,0.04652748,-0.08867186,-0.2677824,2.882406,-2.27932,-0.003214933,0.05787385,0.02750793,-1.083969,-2.859252,1.916519,-0.9807007,1.65208,0.2439848,296.9081,147.0746,125.2374
2,2.777775,0.09437007,-0.1841314,0.0898208,-1.195899,-1.975871,0.1978521,-0.6261182,-0.03851863,7.274701,-0.03954221,0.05713421,-0.07481076,-0.266837,2.881001,-2.27768,-0.0108039,0.04619989,0.01689951,-1.083976,-2.858989,1.916737,-0.9815284,1.651211,0.2434314,297.0186,147.3935,124.7499
2,2.788886,0.08675806,-0.1639002,0.1025043,-1.194393,-1.97468,0.1961945,-0.6263536,-0.02117556,7.274701,-0.03312273,0.06562926,-0.06734238,-0.2659012,2.879259,-2.275835,-0.01616763,0.0440838,0.01374926,-1.083716,-2.858741,1.916944,-0.9826026,1.650517,0.2428432,297.1479,147.6679,124.2684
2,2.799997,0.07608577,-0.1618573,0.1035479,-1.192476,-1.973805,0.1952976,-0.6261363,0.01998704,5.320304,-0.04274513,0.05820328,-0.07691938,-0.2647715,2.88043,-2.276263,-0.01719432,0.04727749,0.01695999,-1.083244,-2.858182,1.916893,-0.9837602,1.649886,0.2423158,297.2296,147.853,123.8646
2,2.811108,0.07076725,-0.1618593,0.1109901,-1.190574,-1.972794,0.1940379,-0.626107,0.002458129,5.320304,-0.04913929,0.04862596,-0.08011905,-0.2638777,2.882035,-2.277167,-0.01400219,0.04087855,0.02223767,-1.082778,-2.85774,1.917201,-0.9848295,1.649197,0.2418852,297.2465,148.0004,123.5461
2,2.822219,0.06862884,-0.1608169,0.1099178,-1.188619,-1.971898,0.193043,-0.6254679,0.05847671,5.320304,-0.05658881,0.05181329,-0.07794957,-0.262838,2.882108,-2.276403,-0.008663766,0.04725447,0.02113718,-1.082356,-2.857064,1.916832,-0.9858369,1.648473,0.2415772,297.2335,148.1853,123.2511
2,2.83333,0.06428323,-0.1512137,0.1194571,-1.187119,-1.970513,0.1917492,-0.6257427,-0.02559733,5.320304,-0.08110233,0.04756075,-0.08000124,-0.2617706,2.882722,-2.275439,-0.006498035,0.04830682,0.02963592,-1.081607,-2.856482,1.917258,-0.9867644,1.647729,0.2413615,297.213,148.4819,122.9114
2,2.844441,0.06300908,-0.1256326,0.1236167,-1.186204,-1.969012,0.1902988,-0.6256027,0.01308322,5.320304,-0.08638,0.05389771,-0.06504653,-0.2610313,2.881448,-2.273041,-0.01392467,0.04726538,0.03501813,-1.080979,-2.856033,1.917646,-0.9876296,1.647003,0.2412245,297.1959,148.7747,122.5953
2,2.855552,0.04998544,-0.09907664,0.1320134,-1.185494,-1.967303,0.1894317,-0.625739,-0.01253244,5.97177,-0.09589205,0.05702293,-0.04475921,-0.2605999,2.87921,-2.269562,-0.01605687,0.05793287,0.03079422,-1.080472,-2.855169,1.917475,-0.9884346,1.64631,0.2410998,297.1501,149.0354,122.3636
2,2.866663,0.04354305,-0.09058553,0.1330285,-1.18466,-1.965952,0.1882567,-0.6258982,-0.0144596,5.97177,-0.1022425,0.05697989,-0.033011,-0.2602057,2.877353,-2.266479,-0.01075474,0.06005171,0.02755837,-1.079997,-2.854478,1.917171,-0.989232,1.645681,0.2409335,297.0898,149.1962,122.2235
2,2.877774,0.02964991,-0.08641782,0.1393858,-1.183518,-1.964317,0.1876948,-0.62529,0.05576269,5.97177,-0.1011873,0.04527274,-0.03625075,-0.2597024,2.877895,-2.265892,-0.007618569,0.05365767,0.02538284,-1.079671,-2.854024,1.917274,-0.9901493,1.64519,0.2406997,297.0178,149.2748,122.1337
2,2.888885,0.02532757,-0.077921,0.1404088,-1.182625,-1.962826,0.1867371,-0.6257161,-0.03939033,5.97177,-0.09800911,0.03890224,-0.04055028,-0.2589562,2.878612,-2.265563,-0.01296631,0.05048341,0.0243574,-1.079278,-2.853595,1.917403,-0.9910384,1.644755,0.2403607,296.9598,149.3769,121.9675
2,2.899997,0.02520815,-0.06622076,0.1371662,-1.181741,-1.961393,0.1858748,-0.6251185,0.05508555,5.646037,-0.1002026,0.0315029,-0.05761221,-0.2580039,2.880938,-2.26663,-0.01513036,0.05156323,0.02011678,-1.078967,-2.852972,1.917344,-0.991872,1.644369,0.2399647,296.9659,149.4609,121.759
2,2.911108,0.02409292,-0.05665748,0.1317975,-1.181342,-1.960064,0.1850844,-0.6255691,-0.0417035,5.646037,-0.09699104,0.03255505,-0.05336371,-0.257312,2.881027,-2.265719,-0.01511445,0.04516929,0.02543472,-1.078359,-2.852659,1.917516,-0.9926015,1.643995,0.2394906,296.9828,149.5139,121.6152
2,2.922219,0.02396855,-0.03960772,0.1306518,-1.181236,-1.958619,0.1839568,-0.6256196,-0.004139783,5.646037,-0.09909756,0.03040309,-0.04804548,-0.2567649,2.881504,-2.265078,-0.01828704,0.04945363,0.02546895,-1.077839,-2.851842,1.917278,-0.9932635,1.643613,0.2389692,297.032,149.4694,121.5554
2,2.93333,0.01961179,-0.02792803,0.129542,-1.180961,-1.95698,0.183161,-0.6256351,-0.001405959,5.646037,-0.1022818,0.03252223,-0.04483036,-0.2561775,2.881278,-2.263652,-0.01829154,0.05371854,0.02334583,-1.07742,-2.851183,1.917181,-0.9938705,1.643219,0.2384144,297.0526,149.4598,121.455
2,2.944441,0.01633758,-0.01731854,0.125226,-1.180848,-1.955689,0.1824516,-0.6259643,-0.03003132,5.646037,-0.09799395,0.02824303,-0.03847554,-0.2557423,2.881472,-2.262907,-0.01412643,0.05053541,0.01477851,-1.07729,-2.850452,1.917078,-0.994436,1.642835,0.2378726,297.0584,149.4551,121.3264
2,2.955552,0.01307845,-0.008832105,0.1230603,-1.180728,-1.954193,0.1817176,-0.6256218,0.03156278,4.234528,-0.09802739,0.01229629,-0.04811745,-0.2553524,2.884402,-2.264638,-0.01305291,0.05586021,0.01371325,-1.076942,-2.849739,1.916841,-0.9949714,1.642448,0.237381,297.0574,149.3957,121.2558
2,2.966663,0.004563902,-0.006810196,0.1134476,-1.180586,-1.953202,0.1813107,-0.6256596,-0.003687155,4.234528,-0.09590539,0.01550213,-0.04918328,-0.2546408,2.885083,-2.264185,-0.0151614,0.06652237,0.01161774,-1.076537,-2.848748,1.916469,-0.9955329,1.642101,0.236948,297.0269,149.3875,121.1647
2,2.977774,0.008729998,0.003888071,0.1155389,-1.180652,-1.951721,0.1805421,-0.6256586,0.0001441038,4.234528,-0.08527131,0.008065045,-0.05457508,-0.2541311,2.887184,-2.265546,-0.0109989,0.06759423,-0.0001352988,-1.07658,-2.847793,1.916048,-0.9960952,1.641782,0.236566,297.0017,149.3893,121.0984
2,2.988885,0.01180716,0.01988497,0.1112071,-1.181214,-1.95046,0.1796196,-0.625567,0.008388069,4.234528,-0.08207499,0.003803641,-0.05353774,-0.2536789,2.888689,-2.266118,-0.008894734,0.06546824,-0.002289068,-1.076415,-2.846931,1.915715,-0.9966602,1.641482,0.236228,296.9756,149.3714,121.0664
2,2.999996,0.01489862,0.03269631,0.1090217,-1.181849,-1.949156,0.178844,-0.6257774,-0.0192224,4.234528,-0.07668912,0.008011393,-0.03756403,-0.2535415,2.888126,-2.264851,-0.01318289,0.0516297,-0.0001452118,-1.076314,-2.846751,1.915891,-0.9972038,1.641203,0.2359153,296.937,149.3913,121.0124
2,3.011107,0.01701413,0.0358726,0.09942381,-1.182201,-1.948128,0.1781894,-0.6260644,-0.02607964,5.537459,-0.0755965,0.002658769,-0.03119329,-0.2535489,2.889001,-2.26491,-0.02273515,0.03671561,0.01481553,-1.075869,-2.847007,1.917302,-0.9976707,1.640913,0.2356104,296.8878,149.3744,120.9794
2,3.022218,0.02035534,0.02094966,0.09096383,-1.181866,-1.947382,0.1775242,-0.6259371,0.01185562,5.537459,-0.07134968,0.002664797,-0.03227063,-0.2532261,2.889579,-2.264602,-0.01849344,0.03776948,0.01052234,-1.075681,-2.846598,1.916958,-0.9980544,1.64061,0.2353337,296.8376,149.3004,120.975
2,3.033329,0.0111001,-0.01653761,0.06558235,-1.180164,-1.94682,0.1778459,-0.6259089,0.002425604,5.537459,-0.072466,-0.003679983,-0.04613708,-0.2526892,2.892554,-2.266648,-0.01749071,0.0441745,0.000936713,-1.075673,-2.845815,1.916754,-0.9983527,1.64029,0.2350917,296.7797,149.2295,120.9807
2,3.04444,0.01224362,-0.02934876,0.06033105,-1.179114,-1.945965,0.1779886,-0.6260314,-0.01117105,5.537459,-0.06398661,-0.01429577,-0.05791576,-0.2523452,2.896173,-2.269673,-0.02184518,0.05273133,-0.01285869,-1.075836,-2.844812,1.916642,-0.9986199,1.639996,0.2348729,296.7289,149.237,120.9541
2,3.055551,0.01753047,-0.02399867,0.05498877,-1.178894,-1.9455,0.177456,-0.6251563,0.0801196,5.103148,-0.05546897,-0.01002953,-0.05899863,-0.2518093,2.898124,-2.271172,-0.02301254,0.04422736,-0.0213861,-1.076185,-2.844348,1.916712,-0.9990021,1.639801,0.2346958,296.7955,149.3239,120.7917
2,3.066662,0.02505161,-0.02926412,0.05074728,-1.178645,-1.94521,0.1766752,-0.6251978,-0.004432212,5.103148,-0.04473682,-0.007967748,-0.03772036,-0.2519867,2.897322,-2.270167,-0.03164632,0.03680311,-0.02878712,-1.076687,-2.844075,1.91751,-0.9994887,1.639702,0.2346781,296.9326,149.4188,120.5153
2,3.077773,0.02824606,-0.03247151,0.04651972,-1.177693,-1.944607,0.1765793,-0.6261076,-0.083027,5.103148,-0.03936291,-0.003749117,-0.02494254,-0.2519297,2.89693,-2.269472,-0.03046741,0.03464487,-0.01495172,-1.076398,-2.843791,1.917691,-0.9998028,1.639551,0.234752,296.9403,149.453,120.4427
2,3.088884,0.02728086,-0.04208733,0.03909312,-1.177126,-1.944609,0.1761995,-0.6265268,-0.03761069,5.103148,-0.03828286,-0.004830178,-0.021759,-0.2518434,2.898146,-2.27026,-0.02504061,0.0377888,-0.003270515,-1.075926,-2.843595,1.917898,-1.000006,1.639384,0.2348747,296.8975,149.4613,120.4864
2,3.099995,0.03483732,-0.04956634,0.02101702,-1.176286,-1.945174,0.1756056,-0.6257326,0.07282224,5.103148,-0.03299578,-0.01011446,-0.03351617,-0.2515239,2.900909,-2.272762,-0.02173001,0.03882135,0.009486495,-1.075309,-2.843302,1.917891,-1.000111,1.639156,0.2350387,296.8904,149.4507,120.5441
2,3.111106,0.03696816,-0.04850881,0.01462367,-1.175801,-1.945279,0.1751742,-0.626148,-0.03862945,6.514658,-0.03194769,-0.002642795,-0.03775601,-0.2510242,2.901789,-2.273279,-0.02276441,0.03564667,0.0137473,-1.074913,-2.842616,1.91782,-1.000162,1.638881,0.2351956,296.8813,149.53,120.5121
2,3.122217,0.04648149,-0.03779564,0.01031932,-1.175674,-1.945442,0.1742837,-0.6266157,-0.04234501,6.514658,-0.02660625,0.01225979,-0.03452574,-0.250506,2.900712,-2.272144,-0.02501878,0.01755664,0.006278071,-1.075175,-2.842951,1.918316,-1.000185,1.638575,0.2353131,296.8778,149.5972,120.5328
2,3.133328,0.0507294,-0.03564599,0.006054465,-1.17535,-1.94556,0.1736589,-0.6262738,0.03153159,6.514658,-0.01594149,0.01331605,-0.03136641,-0.2501976,2.90087,-2.272413,-0.02516265,0.01228283,-0.005463158,-1.075592,-2.842185,1.918649,-1.000118,1.638128,0.2353374,296.9044,149.6333,120.616
2,3.144439,0.04870979,-0.04632052,0.003952136,-1.174661,-1.945881,0.1730586,-0.626654,-0.03509447,6.514658,-0.01057615,0.009021293,-0.02287504,-0.2503217,2.901259,-2.272896,-0.02514991,0.0133463,-0.004396137,-1.075561,-2.841981,1.918843,-1.000181,1.637664,0.2352971,296.9114,149.6687,120.6054
2,3.15555,0.0445578,-0.05810149,-0.002395984,-1.173766,-1.946247,0.1727976,-0.626359,0.02727162,8.686211,-0.008375654,-0.001692612,-0.004809354,-0.2508405,2.900905,-2.272524,-0.01658056,0.01866161,-0.0002003631,-1.075156,-2.841214,1.918607,-1.0003,1.637152,0.2352096,296.8913,149.7558,120.4804
2,3.166661,0.04464447,-0.06555414,-0.004505306,-1.173114,-1.94664,0.1721734,-0.6263211,0.00314941,8.686211,-0.01583638,-0.003823495,-0.004790253,-0.250816,2.901433,-2.272565,-0.01012622,0.02395706,0.005073771,-1.074918,-2.840855,1.918394,-1.000531,1.636673,0.2351296,296.8697,149.9499,120.2122
2,3.177772,0.04466679,-0.06769788,-0.007692305,-1.172334,-1.946985,0.1717963,-0.6259696,0.03211369,8.686211,-0.01689663,-0.01021904,-0.003742641,-0.2509902,2.902441,-2.273317,0.000487092,0.01753469,0.002839602,-1.074934,-2.840791,1.918072,-1.000839,1.63625,0.2350878,296.8678,150.2022,119.906
2,3.188883,0.04039501,-0.06452435,-0.006653536,-1.171923,-1.947221,0.1712929,-0.6262855,-0.02918779,8.686211,-0.003056112,-0.002748381,-0.006964738,-0.2506914,2.902271,-2.273579,-0.00170752,0.01437196,-0.003542524,-1.075106,-2.840356,1.917984,-1.00113,1.635874,0.2350987,296.8671,150.4743,119.5971
2,3.199994,0.03714008,-0.05711286,-0.01094943,-1.171563,-1.94757,0.171106,-0.6260437,0.02241593,8.686211,0.01185651,0.00364579,-0.007000122,-0.2505033,2.90183,-2.273673,0.002426295,0.003723641,-0.01425021,-1.075642,-2.840447,1.917882,-1.001358,1.635552,0.2351872,296.8661,150.6807,119.3661
2,3.211105,0.02645145,-0.05079827,-0.009925484,-1.171365,-1.947712,0.1708769,-0.6260815,-0.003672486,7.926167,0.02245807,-0.001631898,-0.02090699,-0.2501406,2.903699,-2.276028,0.005599502,-0.001590358,-0.01535817,-1.075819,-2.840155,1.917557,-1.001368,1.635507,0.2352585,296.7981,150.6242,119.4168
2,3.222216,0.01794741,-0.05193381,-0.01206983,-1.170988,-1.948103,0.1709707,-0.6258157,0.02432791,7.926167,0.02027725,-0.01436195,-0.03479395,-0.2497875,2.90709,-2.279425,0.005710399,-0.01226144,0.00273181,-1.075328,-2.840641,1.917952,-1.001273,1.63556,0.2353131,296.8118,150.3547,119.7009
2,3.233327,0.02115865,-0.05298147,-0.01419241,-1.170387,-1.948475,0.1707321,-0.6257629,0.004601113,7.926167,0.01708976,-0.01650029,-0.03265856,-0.2497342,2.908664,-2.281079,0.008975554,-0.00802149,0.009102665,-1.075076,-2.840733,1.917818,-1.000867,1.635688,0.2353773,296.9652,149.7483,120.2885
