loc,t,aDotS,bDotS,gDotS,aS,bS,gS,qE,qDotE,emg,aDotSH,bDotSH,gDotSH,aSH,bSH,gSH,aDotUB,bDotUB,gDotUB,aUB,bUB,gUB,xHand,yHand,zHand,aHand,bHand,gHand
1,0,-0.2979833,-0.3932104,0.04800893,-1.22443,-1.116178,-0.8246068,-0.625886,-0.04013513,5.211726,-0.2510145,0.03259635,0.1526836,-0.4013916,-1.022237,1.201798,-0.09306689,0.05329758,-0.006869665,-0.9632595,3.139815,1.721195,-0.7565413,1.136252,0.0714711,305.4075,229.5165,7.757719
1,0.01111111,-0.294895,-0.3815414,0.03515543,-1.221809,-1.113022,-0.8225183,-0.6257475,0.01299902,5.211726,-0.2275542,0.01876584,0.1673821,-0.3989836,-1.021283,1.203117,-0.09093601,0.05542614,-0.009004686,-0.9633325,3.140611,1.721568,-0.7567434,1.135989,0.06965043,306.5746,226.143,10.4389
1,0.02222222,-0.294895,-0.3815414,0.03515543,-1.221809,-1.113022,-0.8225183,-0.6259601,-0.01955579,5.211726,-0.2275542,0.01876584,0.1673821,-0.3989836,-1.021283,1.203117,-0.09093601,0.05542614,-0.009004686,-0.9633325,3.140611,1.721568,-0.7566997,1.135285,0.06788692,307.3908,225.2415,10.7975
1,0.03333334,-0.2950596,-0.3623725,0.03397556,-1.219606,-1.109991,-0.8202233,-0.6289966,-0.2775419,5.211726,-0.2221926,0.0017059,0.1715804,-0.3968248,-1.020073,1.204252,-0.08872117,0.0660691,-0.00150594,-0.9627988,-3.140817,1.721741,-0.7564625,1.134511,0.0663375,307.9435,225.1213,10.37889
1,0.04444445,-0.3092659,-0.3209981,0.02522848,-1.215622,-1.104707,-0.8148479,-0.6259978,0.2764438,10.74919,-0.2317098,-0.01858851,0.1854094,-0.3924184,-1.018251,1.207997,-0.09309982,0.07789151,-0.01952955,-0.9631897,-3.138328,1.722871,-0.7559892,1.133851,0.06526635,308.1939,225.1378,9.901958
1,0.05555556,-0.3136195,-0.3115259,0.01132888,-1.213204,-1.1024,-0.81205,-0.6220074,0.3622319,10.74919,-0.233809,-0.01223183,0.1918253,-0.390314,-1.016367,1.208687,-0.09104581,0.07579733,-0.02806177,-0.9633501,-3.137207,1.723197,-0.755922,1.13335,0.06435373,308.7198,225.1059,9.744661
1,0.06666667,-0.3211896,-0.3022004,-0.02387442,-1.210148,-1.100959,-0.8086966,-0.624948,-0.2715482,10.74919,-0.2487271,-0.01649916,0.1897392,-0.3882574,-1.015141,1.210722,-0.09644687,0.07586226,-0.03760741,-0.9639093,-3.136069,1.723751,-0.7565557,1.133373,0.06317983,309.4627,224.9055,9.946895
1,0.07777778,-0.3180224,-0.3012211,-0.04306602,-1.207027,-1.099051,-0.8059183,-0.6256548,-0.06179747,10.74919,-0.2467034,-0.005768865,0.1652753,-0.3870574,-1.013494,1.211935,-0.1050027,0.07697779,-0.04179304,-0.9642673,-3.134971,1.724619,-0.7574705,1.134262,0.06185585,309.6964,224.5745,10.22689
1,0.08888889,-0.3052283,-0.3044205,-0.06223378,-1.203725,-1.097319,-0.8035172,-0.6255078,0.01374385,16.28664,-0.224541,-0.006641105,0.1108562,-0.387287,-1.013953,1.214225,-0.1102411,0.08015195,-0.03214978,-0.9642422,-3.13373,1.725255,-0.7585257,1.135956,0.06050048,309.4537,224.1042,10.55652
1,0.1,-0.2839905,-0.3075081,-0.08351506,-1.200805,-1.096053,-0.8002746,-0.625935,-0.03919122,16.28664,-0.2055202,-0.0235313,0.06705154,-0.3873541,-1.016212,1.218064,-0.1197911,0.08013946,-0.02782582,-0.9645101,-3.133191,1.726462,-0.7596905,1.138253,0.05922564,308.9634,223.4606,11.0351
1,0.1111111,-0.2552188,-0.3095227,-0.103767,-1.197158,-1.094619,-0.7987837,-0.6264256,-0.04450757,16.28664,-0.1959539,-0.02244104,0.06169179,-0.3867964,-1.0163,1.220044,-0.1357996,0.0770182,-0.02984577,-0.9647562,-3.132199,1.727854,-0.7609131,1.140886,0.05808613,308.3792,222.7247,11.67273
1,0.1222222,-0.227432,-0.3221912,-0.1239612,-1.19307,-1.093077,-0.7975262,-0.6257811,0.05925638,16.28664,-0.1872622,-0.001282394,0.1085981,-0.3845392,-1.012656,1.218488,-0.1518622,0.07924838,-0.04356816,-0.9656729,-3.131402,1.729258,-0.7621331,1.143556,0.05714592,307.7587,221.9241,12.39799
1,0.1333333,-0.2007831,-0.3252421,-0.1356843,-1.189117,-1.09149,-0.7965664,-0.6273459,-0.1436447,21.93268,-0.1860825,0.0273733,0.1416967,-0.3828406,-1.008223,1.216309,-0.1497763,0.07606198,-0.04785843,-0.9661767,-3.130382,1.730237,-0.7633129,1.146011,0.05645349,307.2248,221.2572,13.04248
1,0.1444445,-0.1699094,-0.3251435,-0.1623361,-1.184852,-1.090546,-0.7958686,-0.6275952,-0.02161037,21.93268,-0.1742636,0.06562375,0.175864,-0.3807452,-1.001083,1.211332,-0.1401915,0.07279555,-0.04475994,-0.9665954,-3.129656,1.731335,-0.7644329,1.148097,0.05597139,306.8876,220.6401,13.70818
1,0.1555556,-0.1295363,-0.3132015,-0.180542,-1.180912,-1.089813,-0.7957467,-0.6276858,-0.008336883,21.93268,-0.1572256,0.07522304,0.1779477,-0.3795063,-0.996801,1.208791,-0.136982,0.06527196,-0.03843247,-0.9668713,-3.129378,1.732711,-0.7653611,1.149694,0.05575313,306.6912,220.0454,14.34578
1,0.1666667,-0.08932094,-0.2809093,-0.1807607,-1.177851,-1.089573,-0.79589,-0.6279755,-0.02661618,21.93268,-0.1147291,0.0753538,0.1479555,-0.3789774,-0.9937533,1.206177,-0.1263714,0.04069375,-0.03116894,-0.9670374,-3.1296,1.733936,-0.766094,1.150763,0.05576859,306.6519,219.5785,14.84994
1,0.1777778,-0.08932094,-0.2809093,-0.1807607,-1.177851,-1.089573,-0.79589,-0.6284102,-0.03966607,21.93268,-0.1147291,0.0753538,0.1479555,-0.3789774,-0.9937533,1.206177,-0.1263714,0.04069375,-0.03116894,-0.9670374,-3.1296,1.733936,-0.7665588,1.151348,0.05606694,306.7307,219.2101,15.22828
1,0.1888889,-0.02387727,-0.2057334,-0.1695285,-1.17323,-1.089801,-0.7966122,-0.6285646,-0.01399599,22.47557,-0.01693963,0.01173517,0.08024622,-0.3785129,-0.995944,1.206779,-0.106094,0.01921238,-0.01545541,-0.9672718,-3.129975,1.736131,-0.7667968,1.151493,0.05661501,306.8589,219.0668,15.44323
1,0.2,0.0002583936,-0.1618689,-0.1708634,-1.171308,-1.090582,-0.7968348,-0.6286887,-0.01149037,22.47557,0.01295149,-0.03512894,0.08424567,-0.3767942,-0.9990742,1.20875,-0.09442869,0.00956244,-0.01666014,-0.9676101,-3.130347,1.73719,-0.7668254,1.151244,0.05728504,307.0374,219.252,15.43366
1,0.2111111,0.01174269,-0.1341065,-0.1763598,-1.169304,-1.091651,-0.7968881,-0.6283841,0.02770878,22.47557,0.01408945,-0.04902809,0.1001763,-0.3750013,-0.9999552,1.209379,-0.07967824,0.002122246,-0.03385407,-0.9684937,-3.130406,1.737679,-0.7666915,1.150786,0.05806326,307.4903,219.2029,15.54317
1,0.2222222,0.01146325,-0.1011099,-0.1808071,-1.16761,-1.092955,-0.7963826,-0.6281428,0.021558,22.47557,-0.02426432,-0.02030407,0.1036169,-0.3739137,-0.9965788,1.207543,-0.06271242,-3.809482E-05,-0.04359756,-0.9694449,-3.130336,1.737875,-0.7665589,1.150262,0.05887508,307.9081,219.2693,15.54186
1,0.2333333,-0.0003006011,-0.09590452,-0.1850893,-1.16538,-1.093814,-0.795719,-0.6278008,0.03093682,21.8241,-0.0563169,-0.006415866,0.08247936,-0.3737028,-0.9956851,1.208137,-0.05212183,0.001022611,-0.05219788,-0.9702588,-3.130127,1.738036,-0.7665048,1.149782,0.05965257,308.2181,219.4445,15.4738
1,0.2444444,-0.02373555,-0.09722695,-0.1957148,-1.162801,-1.094794,-0.7944508,-0.6270871,0.06482583,21.8241,-0.0798669,0.02772611,0.06030828,-0.3740793,-0.9923785,1.206618,-0.0382906,0.01698332,-0.06288882,-0.9711707,-3.129369,1.737671,-0.7666066,1.149436,0.0603614,308.4739,219.5724,15.42874
1,0.2555556,-0.04505851,-0.09640694,-0.2074211,-1.160175,-1.095966,-0.7928982,-0.6265385,0.04953055,21.8241,-0.08097391,-0.007360227,0.03889205,-0.3737986,-0.9950502,1.209724,-0.03168864,0.02856761,-0.04265514,-0.9711382,-3.128918,1.737583,-0.7669259,1.149314,0.06098684,308.6833,219.6382,15.43194
1,0.2666667,-0.08672576,-0.0818432,-0.2074737,-1.158121,-1.097259,-0.7902957,-0.6258658,0.061075,21.8241,-0.08952827,-0.07973175,0.01525589,-0.3732548,-1.002468,1.217827,-0.02094463,0.008183157,-0.0204587,-0.9708309,-3.129547,1.737876,-0.7674722,1.149466,0.06149821,308.8277,219.5996,15.57554
1,0.2777778,-0.1178279,-0.05762463,-0.2118509,-1.156321,-1.099167,-0.7874988,-0.6255941,0.02436658,21.8241,-0.09908208,-0.1138332,0.01518662,-0.372229,-1.007726,1.223973,-0.01997145,-0.003531707,-0.02585109,-0.9714578,-3.130186,1.738507,-0.7682595,1.149922,0.06185952,308.9146,219.4892,15.81385
1,0.2888889,-0.147834,-0.03432548,-0.1927858,-1.155346,-1.10061,-0.784482,-0.6246434,0.08683701,20.8469,-0.1255783,-0.1501639,0.04287003,-0.3701639,-1.013626,1.231579,-0.02237774,-0.01617642,-0.0546537,-0.9728528,-3.130512,1.73901,-0.7692229,1.150717,0.06206689,308.927,219.368,16.09136
1,0.3,-0.2215559,-0.008235147,-0.1822286,-1.154582,-1.102602,-0.7791717,-0.6247286,-0.008423949,20.8469,-0.1828805,-0.1610511,0.1016443,-0.3670283,-1.016004,1.237465,-0.02464358,-0.01074879,-0.07592079,-0.9742424,-3.130245,1.739083,-0.7702757,1.151879,0.06208197,308.8711,219.2763,16.37348
1,0.3111111,-0.2790821,-0.009843955,-0.1938901,-1.152677,-1.104387,-0.7738731,-0.6245123,0.0200231,20.8469,-0.2125916,-0.1483984,0.1348242,-0.364305,-1.017268,1.241853,-0.02465463,-0.003267769,-0.08121357,-0.9752405,-3.129844,1.739133,-0.7712983,1.153403,0.06193973,308.7038,219.13,16.66582
1,0.3222222,-0.335312,-0.03912253,-0.2021968,-1.150128,-1.105406,-0.7683641,-0.6226529,0.1700216,20.8469,-0.2732133,-0.1229703,0.1649524,-0.3619886,-1.016479,1.245513,-0.02347695,0.01267262,-0.07476573,-0.975803,-3.129101,1.73896,-0.7723544,1.155198,0.06158494,308.4701,218.9919,16.92514
1,0.3333333,-0.335312,-0.03912253,-0.2021968,-1.150128,-1.105406,-0.7683641,-0.6227285,-0.008108479,20.8469,-0.2732133,-0.1229703,0.1649524,-0.3619886,-1.016479,1.245513,-0.02347695,0.01267262,-0.07476573,-0.975803,-3.129101,1.73896,-0.7735592,1.157247,0.06095009,308.2712,218.8305,17.15729
1,0.3444445,-0.3964964,-0.1120731,-0.2006594,-1.144196,-1.105754,-0.7582414,-0.6275862,-0.4437633,18.89251,-0.3329443,-0.1378677,0.1438269,-0.3583917,-1.02336,1.260512,-0.04229828,0.0456493,-0.04677716,-0.9759803,-3.126973,1.739068,-0.7748414,1.15954,0.06010357,307.9492,218.4031,17.58363
1,0.3555556,-0.4261072,-0.1389462,-0.1994134,-1.141065,-1.105886,-0.7526871,-0.6184638,0.8380285,18.89251,-0.3553104,-0.1517212,0.1417389,-0.3563251,-1.027256,1.268511,-0.05295816,0.05103622,-0.0509292,-0.9765391,-3.126092,1.73937,-0.7759317,1.161786,0.05922006,307.4218,217.813,18.10691
1,0.3666667,-0.4537581,-0.1411147,-0.1663557,-1.139234,-1.105486,-0.7471157,-0.6226529,-0.3902442,18.89251,-0.3819033,-0.1496467,0.1525013,-0.353982,-1.030156,1.276147,-0.06582854,0.05753035,-0.06465286,-0.9775628,-3.12505,1.739947,-0.7778086,1.164041,0.05794119,307.5566,217.4483,18.37124
1,0.3777778,-0.469817,-0.1389067,-0.1418522,-1.138134,-1.106125,-0.7400903,-0.6234189,-0.06552756,18.89251,-0.4095622,-0.135869,0.1664992,-0.3515117,-1.031523,1.282677,-0.08505431,0.07258524,-0.07934851,-0.9786334,-3.123455,1.740409,-0.7798701,1.16661,0.05648388,307.5194,216.8194,18.92467
1,0.3888889,-0.5039173,-0.1336333,-0.1024384,-1.137139,-1.105171,-0.7339182,-0.6235488,-0.01143278,16.82953,-0.4510477,-0.1348892,0.182642,-0.3487303,-1.033681,1.290881,-0.1041523,0.08329025,-0.07382545,-0.9791154,-3.121938,1.741321,-0.7818745,1.169452,0.05496408,307.1993,216.1978,19.51038
1,0.4,-0.5336342,-0.1443263,-0.06510241,-1.135422,-1.103855,-0.7277396,-0.6228713,0.06223613,16.82953,-0.4871008,-0.1127003,0.229717,-0.3450823,-1.032904,1.296368,-0.1146638,0.1014043,-0.06619671,-0.9792257,-3.12008,1.741657,-0.7837403,1.172418,0.05336726,306.7,215.6209,20.10251
1,0.4111111,-0.564343,-0.1625001,-0.0319506,-1.133976,-1.101863,-0.7216549,-0.623331,-0.04230379,16.82953,-0.5062105,-0.08722097,0.2522441,-0.3417134,-1.030897,1.300652,-0.1315801,0.1206191,-0.05958628,-0.9793695,-3.117769,1.742333,-0.7854196,1.175385,0.05168663,306.1939,215.1147,20.62604
1,0.4222222,-0.5886713,-0.1827747,-0.003097631,-1.132116,-1.099905,-0.7151855,-0.6235701,-0.02122978,16.82953,-0.540226,-0.05750525,0.2769704,-0.3382401,-1.027893,1.304557,-0.1485077,0.1398429,-0.05510969,-0.9795628,-3.115277,1.742913,-0.7870584,1.178263,0.04975489,305.8447,214.6578,21.11374
1,0.4333333,-0.6141257,-0.1944818,0.03419217,-1.130367,-1.097924,-0.7085713,-0.6237028,-0.01178552,16.82953,-0.5657731,-0.05433097,0.2781447,-0.3351588,-1.027256,1.310521,-0.1591602,0.1559033,-0.06347683,-0.9801173,-3.112574,1.743405,-0.7886873,1.181031,0.04746084,305.6325,214.1499,21.60864
1,0.4444444,-0.6492841,-0.1914167,0.06190009,-1.129679,-1.095307,-0.7016279,-0.623634,0.006597077,14.22367,-0.5807127,-0.05325735,0.2718138,-0.3322608,-1.026715,1.316823,-0.166675,0.1773036,-0.07824537,-0.9810382,-3.109364,1.74407,-0.7902514,1.183722,0.0447945,305.4461,213.5753,22.04976
1,0.4555556,-0.6664065,-0.1892845,0.07773605,-1.128051,-1.094853,-0.6932144,-0.623756,-0.01104032,14.22367,-0.591341,-0.05753931,0.2782286,-0.3290208,-1.026268,1.323252,-0.1687274,0.1954218,-0.07814832,-0.9814308,-3.106087,1.744095,-0.7917262,1.186372,0.04180503,305.2394,212.9058,22.45367
1,0.4666667,-0.68559,-0.1861123,0.1011692,-1.127637,-1.091982,-0.6863099,-0.6234599,0.02740859,14.22367,-0.6072851,-0.07567936,0.2835583,-0.3254926,-1.027629,1.331673,-0.1750372,0.2146017,-0.07377287,-0.9819091,-3.102395,1.744594,-0.7931572,1.189006,0.03857288,304.9916,212.18,22.80239
1,0.4777778,-0.6929892,-0.1892965,0.1161128,-1.126903,-1.08876,-0.6801676,-0.623192,0.02448442,14.22367,-0.6253823,-0.09060097,0.2825212,-0.3220822,-1.029416,1.340703,-0.1834399,0.2391252,-0.07145876,-0.9819623,-3.098448,1.744609,-0.7944291,1.191707,0.03522088,304.7456,211.5482,23.03425
1,0.4888889,-0.7066566,-0.2095401,0.1354147,-1.125946,-1.084948,-0.6734954,-0.6239552,-0.06970788,11.72638,-0.6424288,-0.08316126,0.2836761,-0.318799,-1.029431,1.34838,-0.1961411,0.2572816,-0.07021265,-0.9821243,-3.094296,1.744837,-0.7955397,1.194635,0.03187296,304.5617,210.9156,23.25843
1,0.5,-0.7223152,-0.2414348,0.1442388,-1.126331,-1.080955,-0.6676002,-0.6249012,-0.08571337,11.72638,-0.6573254,-0.05339199,0.2934288,-0.3152405,-1.0265,1.35311,-0.1982804,0.26696,-0.07974129,-0.9826244,-3.089695,1.74418,-0.796783,1.197691,0.02844131,304.2368,210.1515,23.66347
1,0.5111111,-0.7455282,-0.26823,0.1486714,-1.124549,-1.076977,-0.6604501,-0.6243973,0.04684028,11.72638,-0.6647753,-0.04701668,0.296674,-0.3118476,-1.025228,1.359523,-0.2090189,0.272392,-0.09348272,-0.9834574,-3.085638,1.744543,-0.7982417,1.200725,0.02490057,303.8084,209.269,24.22742
1,0.5222223,-0.7581607,-0.283166,0.1615517,-1.123076,-1.073006,-0.6536958,-0.6251861,-0.07245708,11.72638,-0.7009747,-0.05663478,0.2989191,-0.308295,-1.025747,1.36867,-0.2271725,0.2863693,-0.1071253,-0.9843821,-3.081312,1.745067,-0.7998518,1.203686,0.02134644,303.4351,208.2721,24.70977
1,0.5333334,-0.7708715,-0.2917235,0.1743697,-1.121564,-1.069005,-0.6465111,-0.6241885,0.0919543,11.72638,-0.7392853,-0.0588454,0.3107796,-0.3044073,-1.026102,1.378197,-0.2325215,0.2970821,-0.115558,-0.9852668,-3.076728,1.745277,-0.801776,1.206535,0.01798608,303.0474,207.2986,25.01314
1,0.5444446,-0.787847,-0.2983308,0.1701918,-1.119604,-1.064398,-0.6395304,-0.6246396,-0.04192999,8.794788,-0.7691206,-0.06525129,0.3076783,-0.3009228,-1.026998,1.3884,-0.2515201,0.326943,-0.1088864,-0.9855102,-3.071597,1.745621,-0.8036899,1.209352,0.01486383,302.8004,206.5788,25.49611
1,0.5555557,-0.7984425,-0.3049176,0.1574696,-1.117463,-1.060609,-0.6322307,-0.6244442,0.01848927,8.794788,-0.7904242,-0.05036122,0.3110016,-0.2974905,-1.025406,1.396125,-0.2588834,0.3440063,-0.1066227,-0.9858778,-3.066388,1.745668,-0.8053963,1.212176,0.0118644,302.6453,205.9696,26.09918
1,0.5666668,-0.8144513,-0.3007512,0.1638501,-1.116044,-1.056672,-0.6244681,-0.6245331,-0.008224779,8.794788,-0.8245683,-0.03331023,0.300535,-0.2944774,-1.023411,1.404243,-0.2715788,0.369634,-0.1085391,-0.9862623,-3.060424,1.74573,-0.8069419,1.215055,0.008807968,302.5299,205.388,26.65041
1,0.577778,-0.818774,-0.2933609,0.157409,-1.114476,-1.053432,-0.6167668,-0.6247541,-0.02002286,8.794788,-0.8490965,-0.01841074,0.2932305,-0.291304,-1.02175,1.412495,-0.2810891,0.3942052,-0.1168653,-0.9868509,-3.054375,1.745135,-0.8084483,1.217956,0.005481692,302.3753,204.671,27.26024
1,0.5888891,-0.8263059,-0.2849373,0.1509743,-1.112939,-1.050213,-0.6088487,-0.6244175,0.031095,6.623236,-0.8736726,0.01250345,0.2806408,-0.2887138,-1.01685,1.418128,-0.2948398,0.4283744,-0.1219309,-0.9873425,-3.047257,1.744879,-0.8099334,1.220929,0.001886279,302.2114,203.8358,27.78057
1,0.6000003,-0.8264294,-0.2711755,0.1370456,-1.111324,-1.047456,-0.60088,-0.6249081,-0.04504448,6.623236,-0.9056423,0.03271431,0.2808358,-0.2856395,-1.012347,1.424588,-0.303147,0.459287,-0.1174472,-0.9873031,-3.040127,1.743782,-0.8115486,1.224025,-0.001976895,302.0147,202.9741,28.18926
1,0.6111114,-0.8296376,-0.2724019,0.114683,-1.109134,-1.044844,-0.5927126,-0.6249092,0.0004543954,6.623236,-0.9215604,0.04861909,0.3001239,-0.2819654,-1.006893,1.430017,-0.312471,0.4933426,-0.1012404,-0.9868647,-3.032408,1.743226,-0.8132781,1.227284,-0.005981767,301.7625,201.9907,28.67024
1,0.6222225,-0.8381813,-0.2726369,0.08271579,-1.106764,-1.043213,-0.5840222,-0.6251786,-0.02460911,6.623236,-0.9226503,0.08375812,0.302372,-0.278703,-0.9987727,1.432469,-0.3302541,0.5370419,-0.08917372,-0.9862522,-3.024057,1.741952,-0.8151324,1.23071,-0.01000088,301.4674,200.9121,29.24864
1,0.6333337,-0.8275672,-0.2682866,0.08374705,-1.104845,-1.040426,-0.5762542,-0.6251824,-4.238597E-06,6.623236,-0.9237132,0.07206947,0.2927456,-0.2759525,-0.9960777,1.439715,-0.3536407,0.5531264,-0.09105,-0.9861786,-3.016024,1.742112,-0.8171178,1.234275,-0.01392657,301.1435,199.7601,29.94765
1,0.6444448,-0.8275672,-0.2682866,0.08374705,-1.104845,-1.040426,-0.5762542,-0.6251904,-0.0006972715,6.623236,-0.9237132,0.07206947,0.2927456,-0.2759525,-0.9960777,1.439715,-0.3536407,0.5531264,-0.09105,-0.9861786,-3.016024,1.742112,-0.8192816,1.237945,-0.01767784,300.843,198.5568,30.73125
1,0.655556,-0.7692887,-0.2284202,0.07602379,-1.102324,-1.036501,-0.5624458,-0.6344134,-0.8433886,5.754614,-0.9652616,0.06778926,0.2897111,-0.2697388,-0.9884386,1.454453,-0.4066222,0.6151302,-0.08928283,-0.9855507,-2.997947,1.742128,-0.8210989,1.241733,-0.02084256,300.4259,197.2162,31.73724
1,0.6666671,-0.742877,-0.200426,0.08647643,-1.101729,-1.034779,-0.5556819,-0.6182368,1.486127,5.754614,-0.9908288,0.09864146,0.2963009,-0.2664993,-0.9799064,1.457936,-0.4298876,0.6364833,-0.07835222,-0.9847997,-2.988731,1.742456,-0.822314,1.24513,-0.02301886,299.7269,195.6846,32.96594
1,0.6777782,-0.7314243,-0.1810618,0.09381035,-1.101285,-1.033018,-0.5469068,-0.6258855,-0.7127168,5.754614,-1.0015,0.1241907,0.2953443,-0.2636045,-0.9714721,1.460991,-0.4531455,0.6536372,-0.07593584,-0.9840811,-2.97953,1.74185,-0.8257442,1.248219,-0.02616343,299.8993,195.6794,32.93069
1,0.6888894,-0.7231364,-0.152218,0.09576717,-1.101114,-1.03143,-0.5398393,-0.627232,-0.1154808,5.754614,-1.012247,0.154068,0.2773713,-0.2612683,-0.9608062,1.462244,-0.4808957,0.6388325,-0.07472305,-0.9836764,-2.971411,1.743415,-0.8293815,1.251452,-0.02937448,299.926,195.188,33.45597
1,0.7000005,-0.7158559,-0.1329896,0.1031059,-1.100397,-1.029034,-0.5327718,-0.6252005,0.186056,6.080348,-1.010232,0.179716,0.2518814,-0.2594835,-0.949957,1.46277,-0.5002567,0.626309,-0.09266127,-0.9832806,-2.962023,1.744252,-0.8326915,1.254743,-0.03237449,299.6035,194.3679,34.26316
1,0.7111117,-0.7075055,-0.1115902,0.1072367,-1.100519,-1.027415,-0.5258699,-0.6267318,-0.1417527,6.080348,-1.001944,0.2129402,0.1954681,-0.2593823,-0.9372281,1.461206,-0.5280613,0.624352,-0.1052388,-0.9835634,-2.953574,1.746245,-0.8355685,1.258004,-0.03516363,299.1964,193.5114,35.04174
1,0.7222228,-0.6919205,-0.06017938,0.132477,-1.102042,-1.026013,-0.5192648,-0.626531,0.01976033,6.080348,-1.002084,0.2024097,0.1570838,-0.2588918,-0.9293867,1.464758,-0.5430123,0.634066,-0.1146548,-0.9835789,-2.944352,1.747572,-0.8382694,1.261186,-0.03796127,298.8672,192.7203,35.72337
1,0.7333339,-0.6739929,-0.03864548,0.1407958,-1.102807,-1.025179,-0.5125387,-0.6269198,-0.03593989,6.080348,-1.017033,0.1822128,0.14428,-0.25786,-0.9230506,1.470356,-0.5599393,0.6661051,-0.1165067,-0.9834505,-2.934252,1.748659,-0.8409575,1.264272,-0.04095036,298.6547,192.0241,36.30306
1,0.7444451,-0.6604506,-0.0001152083,0.1522812,-1.104685,-1.023828,-0.506203,-0.6272506,-0.02999337,9.120521,-1.021193,0.169351,0.1676919,-0.2555186,-0.916039,1.474997,-0.5725744,0.703446,-0.1173009,-0.983099,-2.923526,1.749305,-0.8435897,1.267298,-0.04412663,298.4443,191.4805,36.69678
1,0.7555562,-0.6637983,0.01793911,0.1457657,-1.105714,-1.022863,-0.4991424,-0.6272746,-0.00210041,9.120521,-1.025379,0.1714215,0.1847556,-0.2532213,-0.9072452,1.477848,-0.5820955,0.7173294,-0.1160978,-0.982863,-2.913353,1.750416,-0.8461117,1.270357,-0.04749525,298.2397,191.1239,36.87742
1,0.7666674,-0.6692528,0.03603827,0.149906,-1.107228,-1.02176,-0.4923854,-0.6272751,-0.0001720587,9.120521,-1.027496,0.1703442,0.1879563,-0.2512554,-0.8991173,1.481348,-0.5884371,0.7194443,-0.109668,-0.9826186,-2.903921,1.751881,-0.8483821,1.273496,-0.05088035,298.0191,190.5541,37.17785
1,0.7777785,-0.6790326,0.05938904,0.1487122,-1.109149,-1.020859,-0.4849286,-0.6265885,0.06269614,9.120521,-1.041356,0.1831089,0.1912305,-0.2494626,-0.8888226,1.483528,-0.591706,0.7066785,-0.1118356,-0.9825706,-2.894854,1.753531,-0.8507164,1.276633,-0.05440172,297.6628,189.7093,37.72329
1,0.7888896,-0.6909414,0.08501316,0.1752049,-1.111879,-1.019055,-0.477737,-0.6266567,-0.006863249,9.120521,-1.067993,0.2086407,0.1956758,-0.2474716,-0.8758892,1.483525,-0.5916984,0.7045382,-0.1097147,-0.9823059,-2.885468,1.75488,-0.8533635,1.279662,-0.05810031,297.2645,188.675,38.42511
1,0.8000008,-0.6963961,0.1032073,0.1974718,-1.114557,-1.017099,-0.4708181,-0.6260058,0.05958301,9.989142,-1.067005,0.2023137,0.1743393,-0.2463136,-0.8671253,1.486815,-0.5937562,0.7183524,-0.1032435,-0.9817493,-2.875487,1.756297,-0.8561541,1.282567,-0.06178863,296.9018,187.8036,38.9798
1,0.8111119,-0.6869336,0.1204519,0.2186722,-1.117457,-1.015068,-0.4643365,-0.6257821,0.01996808,9.989142,-1.059604,0.1906556,0.1572287,-0.2451717,-0.8593014,1.490819,-0.6001067,0.7322369,-0.105261,-0.9813738,-2.865151,1.757391,-0.85893,1.285426,-0.06536227,296.6209,187.3067,39.24213
1,0.8222231,-0.6807764,0.1493057,0.2259175,-1.120433,-1.013973,-0.4575119,-0.6259877,-0.01889213,9.989142,-1.044748,0.1779658,0.1390206,-0.2443312,-0.8517513,1.494626,-0.6084817,0.7567384,-0.09870714,-0.9806963,-2.854275,1.75835,-0.8616098,1.288309,-0.06886509,296.3515,186.9656,39.4365
1,0.8333342,-0.6939137,0.1928863,0.2266882,-1.124138,-1.01349,-0.4497403,-0.6264165,-0.03903274,9.989142,-1.032963,0.1907024,0.1602732,-0.242533,-0.8409357,1.495396,-0.6073974,0.74927,-0.0934406,-0.9801961,-2.844323,1.759529,-0.8641659,1.291234,-0.07235727,296.0541,186.5375,39.72716
1,0.8444453,-0.6657067,0.2601764,0.2166953,-1.129376,-1.013547,-0.4428997,-0.6264932,-0.006736769,12.48643,-1.02755,0.210863,0.1869491,-0.2400073,-0.8279794,1.494046,-0.6052192,0.7567084,-0.09129283,-0.9795197,-2.833961,1.760396,-0.8664894,1.294229,-0.0758137,295.7514,186.0958,39.99363
1,0.8555565,-0.6304931,0.2517574,0.1890699,-1.132137,-1.012533,-0.4372793,-0.6257821,0.06495492,12.48643,-1.03493,0.2161434,0.2072359,-0.237464,-0.815609,1.493746,-0.6041088,0.7556096,-0.08491432,-0.9786947,-2.823883,1.761449,-0.8685491,1.297356,-0.07915986,295.4562,185.5996,40.22496
1,0.8666676,-0.5758958,0.2157439,0.1476943,-1.133731,-1.012651,-0.4322566,-0.6268362,-0.09691796,12.48643,-1.044411,0.2203057,0.2360488,-0.2342474,-0.8036978,1.49401,-0.6051456,0.7556168,-0.07635815,-0.9775974,-2.813211,1.762807,-0.87076,1.300653,-0.08255531,295.0707,185.028,40.47809
1,0.8777788,-0.5489767,0.1806634,0.1191141,-1.135041,-1.012541,-0.4270485,-0.627632,-0.07193496,12.48643,-1.036952,0.2362785,0.2392497,-0.2319491,-0.7905082,1.492493,-0.617024,0.7621711,-0.1007447,-0.9777449,-2.802605,1.764054,-0.8732485,1.30405,-0.08599916,294.5189,184.1917,41.07151
1,0.8888899,-0.5178118,0.1444886,0.08308159,-1.135467,-1.012903,-0.4220956,-0.6285827,-0.08652189,12.48643,-1.023139,0.2608047,0.2350131,-0.2297488,-0.7744291,1.487813,-0.6245697,0.7825458,-0.1229644,-0.9779212,-2.791333,1.764867,-0.8759899,1.307284,-0.08944052,293.9866,182.8917,42.18802
1,0.900001,-0.4794713,0.14469,0.0627421,-1.136687,-1.014113,-0.417246,-0.6281236,0.04245992,11.72638,-0.9902658,0.2897043,0.1998155,-0.2289083,-0.7567079,1.480599,-0.6288514,0.7953844,-0.1324635,-0.9777961,-2.78024,1.765752,-0.8788809,1.310215,-0.09263434,293.6193,181.5122,43.28151
1,0.9111122,-0.4605073,0.166178,0.05828132,-1.139251,-1.015479,-0.4113375,-0.6282333,-0.01068197,11.72638,-0.9658651,0.2780966,0.1709221,-0.2280433,-0.7440723,1.478375,-0.6256759,0.7964512,-0.135679,-0.9776422,-2.769369,1.766557,-0.881972,1.31276,-0.09545459,293.3507,180.415,44.10215
1,0.9222233,-0.4286844,0.1823677,0.04964741,-1.141623,-1.016214,-0.4070897,-0.628432,-0.0182114,11.72638,-0.9223298,0.2441963,0.1259173,-0.2278899,-0.736298,1.479973,-0.6288868,0.7986058,-0.1388643,-0.9776075,-2.758544,1.767584,-0.8850368,1.31493,-0.09768693,293.1968,179.755,44.59594
1,0.9333345,-0.4031225,0.1857303,0.04215644,-1.143647,-1.016745,-0.4033198,-0.6272005,0.112531,11.72638,-0.8905033,0.2411354,0.09169821,-0.2278164,-0.7242727,1.477555,-0.6267438,0.7996448,-0.1367545,-0.9773365,-2.747674,1.768513,-0.888022,1.316801,-0.0992552,293.0645,179.512,44.77858
1,0.9444456,-0.3616295,0.1913019,0.02612138,-1.145701,-1.017877,-0.3999961,-0.6282312,-0.09538353,12.05212,-0.8330938,0.2018865,0.05300311,-0.2284087,-0.7189912,1.480175,-0.6150406,0.7921295,-0.1347489,-0.9770653,-2.737113,1.769175,-0.8911721,1.318496,-0.1004473,292.886,179.7016,44.71557
1,0.9555568,-0.3104413,0.1840926,-0.002630189,-1.147011,-1.019384,-0.3973596,-0.6285023,-0.02398803,12.05212,-0.7860879,0.1317661,0.05632174,-0.2276087,-0.7167072,1.48605,-0.6064969,0.7888724,-0.1295183,-0.9767112,-2.726601,1.769855,-0.894588,1.320073,-0.101572,292.6975,179.9122,44.77728
1,0.9666679,-0.2580937,0.1629718,-0.04408478,-1.147554,-1.021541,-0.3949841,-0.628898,-0.03628953,12.05212,-0.7615213,0.09211934,0.08116525,-0.2257935,-0.7194439,1.495985,-0.5968832,0.7813413,-0.1221695,-0.9761817,-2.716301,1.770455,-0.898252,1.321536,-0.1028278,292.5212,180.0424,44.93889
1,0.977779,-0.2153434,0.1450095,-0.07703222,-1.147892,-1.023596,-0.3928248,-0.6294158,-0.0473395,12.05212,-0.7273352,0.04306746,0.09474944,-0.2239335,-0.7228357,1.506498,-0.5829047,0.7683808,-0.09784132,-0.9750589,-2.706548,1.771182,-0.9018168,1.322889,-0.1040985,292.3752,180.1267,45.07192
1,0.9888902,-0.1929293,0.1387137,-0.09192284,-1.148601,-1.025617,-0.3904594,-0.6295835,-0.0152604,12.05212,-0.7188094,0.0643633,0.1001105,-0.222767,-0.7170486,1.508563,-0.5699581,0.7639591,-0.07452403,-0.9736064,-2.696651,1.771584,-0.9052657,1.324136,-0.1053732,292.2779,180.0264,45.26511
1,1.000001,-0.1470272,0.1241512,-0.1025383,-1.149402,-1.028023,-0.388544,-0.629338,0.02222382,13.13789,-0.7188401,0.1069577,0.1013078,-0.2219297,-0.70558,1.50547,-0.5613789,0.7714093,-0.07029941,-0.9725763,-2.68532,1.771479,-0.9085806,1.325258,-0.1065583,292.2025,179.749,45.56531
1,1.011112,-0.108465,0.09779963,-0.1077333,-1.149202,-1.029507,-0.3878404,-0.6286861,0.05911,13.13789,-0.7209889,0.18362,0.1132768,-0.220653,-0.685667,1.494155,-0.5399495,0.7872661,-0.06293495,-0.9712538,-2.674261,1.770667,-0.9118895,1.326237,-0.1077002,292.1224,179.4914,45.84801
1,1.022224,-0.1030318,0.0849092,-0.1332466,-1.148698,-1.03207,-0.3860231,-0.6288612,-0.01674041,13.13789,-0.7157353,0.2453667,0.1059881,-0.2198599,-0.6679251,1.484411,-0.5174402,0.7935169,-0.05031808,-0.9699084,-2.663421,1.769673,-0.9151849,1.327088,-0.1087387,292.0464,179.3255,46.00974
1,1.033335,-0.1289811,0.1337834,-0.1175845,-1.150453,-1.034626,-0.3828512,-0.6293561,-0.04530462,13.13789,-0.6891076,0.244328,0.1048258,-0.2188783,-0.6563882,1.480183,-0.5035377,0.8009074,-0.04825969,-0.9686109,-2.652509,1.768753,-0.91848,1.327792,-0.1096004,291.9627,179.1467,46.19107
1,1.044446,-0.1431628,0.1752528,-0.1114257,-1.152831,-1.036989,-0.3799132,-0.6283686,0.09036356,13.13789,-0.649683,0.1953855,0.09599653,-0.2180825,-0.6519269,1.481973,-0.4822641,0.7944317,-0.04952416,-0.9675147,-2.642134,1.767682,-0.921828,1.328319,-0.110352,291.924,179.0254,46.42498
1,1.055557,-0.1400337,0.1826494,-0.1253214,-1.154115,-1.039592,-0.3774466,-0.6266215,0.1587538,13.35505,-0.6167201,0.1614183,0.071261,-0.2180793,-0.6474677,1.4836,-0.4630755,0.7847142,-0.04227648,-0.9662513,-2.632245,1.766755,-0.9251804,1.328716,-0.1110023,291.9513,179.2828,46.33689
1,1.066668,-0.1389983,0.1858104,-0.1327975,-1.155493,-1.042157,-0.3748895,-0.6264586,0.01357471,13.35505,-0.5466365,0.08288616,-0.004894819,-0.2200469,-0.6536644,1.493851,-0.440856,0.7505373,-0.04366901,-0.9652931,-2.62323,1.765929,-0.9284256,1.329206,-0.1115568,291.9697,180.0746,45.72165
1,1.077779,-0.1326475,0.1932958,-0.1360657,-1.156667,-1.044914,-0.3727946,-0.6269464,-0.0446468,13.35505,-0.5285727,0.04357767,-0.02745127,-0.2208075,-0.6543632,1.499981,-0.4281883,0.7302567,-0.0470723,-0.9645357,-2.614006,1.765249,-0.9316778,1.329913,-0.1121822,291.9073,180.6774,45.30685
1,1.08889,-0.1093541,0.2104739,-0.1457646,-1.158617,-1.04797,-0.3710055,-0.6267942,0.01418793,13.35505,-0.5211418,0.02550781,-0.03819027,-0.2215281,-0.6557155,1.506891,-0.4230877,0.705806,-0.06320328,-0.9642299,-2.605098,1.764789,-0.9349917,1.330865,-0.1129583,291.816,180.7864,45.36423
1,1.100002,-0.08392116,0.2287386,-0.1554659,-1.160787,-1.051146,-0.3697298,-0.627192,-0.03661465,13.68078,-0.5125473,-9.10759E-05,-0.0244473,-0.2212256,-0.6581901,1.514912,-0.4126487,0.6813183,-0.07724633,-0.9640132,-2.596507,1.764286,-0.9382577,1.332003,-0.113798,291.6642,180.5398,45.72642
1,1.111113,-0.06479228,0.2341971,-0.1597692,-1.162683,-1.054185,-0.3682502,-0.6275153,-0.0293385,13.68078,-0.4923353,0.05319035,-0.02010212,-0.2215196,-0.6485452,1.510539,-0.4128101,0.6515094,-0.0816412,-0.9637138,-2.58833,1.764291,-0.9414546,1.333246,-0.1146312,291.4567,180.107,46.23137
1,1.122224,-0.04888182,0.2460435,-0.1555485,-1.164768,-1.056298,-0.3677218,-0.6279126,-0.03623816,13.68078,-0.4838472,0.07983989,-0.02324652,-0.2219665,-0.6414831,1.508761,-0.4105711,0.6524929,-0.06781608,-0.9627903,-2.579702,1.763858,-0.9445837,1.334462,-0.1153751,291.1719,179.5392,46.85047
1,1.133335,-0.02348533,0.2686328,-0.1535592,-1.167508,-1.05933,-0.3670081,-0.6274785,0.03984891,13.68078,-0.4774907,0.08309031,-0.03284152,-0.222677,-0.6366451,1.509151,-0.3974631,0.6778665,-0.03797044,-0.9607854,-2.569932,1.762451,-0.9477441,1.335488,-0.1159888,290.8543,178.9367,47.50359
1,1.144446,-0.001318142,0.2932587,-0.1633009,-1.170371,-1.062926,-0.3661239,-0.6277955,-0.02951743,13.68078,-0.4742961,0.06925422,-0.03609362,-0.2231452,-0.6348923,1.512631,-0.3835831,0.6874017,-0.0390994,-0.9597266,-2.560318,1.760845,-0.9509349,1.336212,-0.116489,290.5668,178.557,48.0769
1,1.155557,0.01243711,0.3050581,-0.1687006,-1.173033,-1.066359,-0.365243,-0.6277976,-1.875953E-05,13.24647,-0.4785676,0.0447877,-0.04361563,-0.2239665,-0.6354206,1.518646,-0.3879345,0.6735899,-0.04338991,-0.958966,-2.551661,1.760293,-0.9541838,1.336492,-0.1170338,290.3001,178.4071,48.51409
1,1.166668,0.03048862,0.3126858,-0.1644925,-1.175862,-1.069578,-0.3648222,-0.6276171,0.0162971,13.24647,-0.4668199,0.04903138,-0.03512508,-0.2241583,-0.6324411,1.520653,-0.3987714,0.6597717,-0.05403095,-0.9586309,-2.543851,1.760697,-0.9573461,1.336357,-0.1175016,290.1584,178.757,48.30027
1,1.17778,0.04965301,0.3150669,-0.1474707,-1.178683,-1.072059,-0.3649058,-0.6273299,0.02597981,13.24647,-0.4594756,0.05341125,-0.06708364,-0.2257114,-0.6286445,1.521592,-0.4095299,0.6534598,-0.06249547,-0.9581622,-2.535178,1.760719,-0.9605552,1.335924,-0.117876,290.1057,179.3674,47.72333
1,1.188891,0.08266869,0.3187081,-0.1166138,-1.181932,-1.073838,-0.3660973,-0.6274881,-0.0148351,13.24647,-0.4427193,0.100504,-0.1319829,-0.2293243,-0.6188206,1.516472,-0.3997118,0.6917275,-0.05280981,-0.9568812,-2.524717,1.758901,-0.9638801,1.335324,-0.1181414,290.0902,180.0958,47.04581
1,1.200002,0.1221458,0.3105339,-0.1155339,-1.184766,-1.07664,-0.3671583,-0.6275414,-0.004851175,13.02932,-0.4193308,0.1591147,-0.1308245,-0.2309088,-0.6046366,1.506843,-0.3673241,0.7393763,-0.01875322,-0.9544711,-2.513424,1.755831,-0.9672791,1.334644,-0.11828,290.0461,180.8659,46.41435
1,1.211113,0.1424482,0.3031402,-0.1367772,-1.187427,-1.079931,-0.3680632,-0.6281683,-0.05744319,13.02932,-0.4128962,0.1569553,-0.1202032,-0.2320732,-0.5976187,1.504385,-0.3447568,0.7573232,-0.002865944,-0.9524844,-2.502834,1.752917,-0.9706071,1.333932,-0.1183073,289.9639,181.7172,45.8109
1,1.222224,0.1563775,0.2902166,-0.1803875,-1.188981,-1.084208,-0.3685751,-0.6282402,-0.006234509,13.02932,-0.4042192,0.1302371,-0.08623119,-0.232079,-0.594336,1.505499,-0.3213512,0.7486968,-0.0009616204,-0.9510787,-2.493171,1.750405,-0.9736724,1.33316,-0.1182328,289.8316,182.4495,45.36561
1,1.233335,0.1596488,0.2826883,-0.1953132,-1.190345,-1.088547,-0.3689831,-0.6279904,0.02260445,13.02932,-0.3946426,0.09086263,-0.09704658,-0.2334388,-0.5952831,1.510553,-0.3150546,0.7273705,-0.002171744,-0.9497898,-2.484048,1.748444,-0.9765614,1.33231,-0.1180733,289.749,182.9503,44.96622
1,1.244446,0.1692243,0.2849575,-0.1846777,-1.19269,-1.091546,-0.3699887,-0.6276858,0.02747715,13.02932,-0.3808566,0.06325969,-0.1216884,-0.235612,-0.596498,1.515363,-0.315563,0.6529194,-0.02699598,-0.9497163,-2.477514,1.74836,-0.9796173,1.331479,-0.117815,289.7282,183.3858,44.47371
1,1.255558,0.1816462,0.3279792,-0.1380759,-1.197651,-1.094079,-0.3706833,-0.6273577,0.0296199,12.05212,-0.3469917,0.02623078,-0.1890477,-0.2396467,-0.5993204,1.520712,-0.3125239,0.6369924,-0.03774319,-0.9491512,-2.46887,1.746895,-0.9828029,1.330678,-0.1173809,289.7135,183.8711,44.12725
1,1.266669,0.2036812,0.3731964,-0.0872139,-1.202792,-1.095781,-0.3729294,-0.6272432,0.01013635,12.05212,-0.3526255,0.01263911,-0.2710981,-0.2450098,-0.601484,1.526903,-0.3028293,0.6593149,-0.03558616,-0.9481306,-2.459215,1.744393,-0.9860242,1.32994,-0.1167717,289.6869,184.4971,43.82497
1,1.27778,0.2183414,0.4086186,-0.06078804,-1.207681,-1.097859,-0.3751201,-0.6266045,0.0582504,12.05212,-0.3399468,0.014884,-0.2988405,-0.2489496,-0.6000933,1.529027,-0.271708,0.6836172,-0.01652342,-0.9461402,-2.448905,1.740703,-0.9891733,1.329185,-0.1160939,289.4913,185.1102,43.63602
1,1.288891,0.2267871,0.4182869,-0.05871788,-1.212054,-1.100363,-0.3769944,-0.6276437,-0.09557203,12.05212,-0.3099806,0.05631396,-0.255147,-0.2508335,-0.5935552,1.525334,-0.2341397,0.6865033,0.01835578,-0.9437678,-2.439744,1.736965,-0.9921543,1.328343,-0.1154958,289.139,186.0455,43.14344
1,1.300002,0.2353366,0.4182905,-0.06831446,-1.215752,-1.103356,-0.3791745,-0.6276677,-0.001457065,11.61781,-0.2884974,0.09239906,-0.2039755,-0.2515792,-0.5847428,1.5193,-0.2118797,0.6608636,0.01701526,-0.9424629,-2.431516,1.733969,-0.9948751,1.327348,-0.1151351,288.822,187.0837,42.50679
1,1.311113,0.2310952,0.4149472,-0.08747226,-1.219343,-1.106604,-0.3804848,-0.6272863,0.03459833,11.61781,-0.2735006,0.0976654,-0.1816453,-0.252987,-0.5799459,1.517243,-0.199275,0.6331538,0.008269295,-0.9415766,-2.423793,1.731306,-0.9974483,1.32617,-0.115122,288.6282,187.9901,41.82853
1,1.322224,0.2215338,0.4137954,-0.0895756,-1.223317,-1.109307,-0.3820353,-0.6275313,-0.02279775,11.61781,-0.2756364,0.09874272,-0.1837605,-0.2552736,-0.5760971,1.516675,-0.1824086,0.6086171,0.002705358,-0.9406535,-2.416074,1.728799,-0.9998553,1.324818,-0.1153589,288.5223,188.7253,41.1583
1,1.333336,0.2225907,0.4149271,-0.07892846,-1.227345,-1.111652,-0.3836891,-0.6266184,0.08354462,11.61781,-0.274557,0.07956821,-0.1838258,-0.2573061,-0.5752204,1.51883,-0.1687843,0.5787903,-0.008183651,-0.9399835,-2.408816,1.7263,-1.002258,1.323304,-0.1157926,288.4586,189.3244,40.51823
1,1.344447,0.2254962,0.4535123,-0.04293345,-1.233103,-1.113619,-0.385597,-0.6264527,0.01435613,11.61781,-0.2652276,0.02441949,-0.2586084,-0.2622079,-0.5809856,1.527307,-0.1496415,0.5605797,-0.003087841,-0.9390349,-2.401766,1.723319,-1.00456,1.321707,-0.1161811,288.4556,190.1194,39.61011
1,1.355558,0.2286002,0.4685087,-0.03032599,-1.237432,-1.116941,-0.3873312,-0.626359,0.008495058,10.96634,-0.2535615,0.01169983,-0.2746761,-0.265702,-0.5820701,1.530844,-0.1409527,0.5668346,0.01712604,-0.9371791,-2.394057,1.720218,-1.006781,1.320115,-0.1164194,288.4378,191.0699,38.58861
1,1.366669,0.2263566,0.4822959,-0.03786203,-1.24251,-1.119811,-0.3888588,-0.626417,-0.005388215,10.96634,-0.2162802,0.04473481,-0.2693889,-0.2686208,-0.577229,1.527557,-0.1141474,0.5730327,0.03612345,-0.9353139,-2.38619,1.716097,-1.00891,1.31859,-0.1164843,288.3699,192.1797,37.52919
1,1.37778,0.2146983,0.4799616,-0.05590276,-1.247213,-1.12243,-0.3907832,-0.6266333,-0.01969503,10.96634,-0.1853431,0.03727788,-0.2588804,-0.2711013,-0.575841,1.527507,-0.09177718,0.5569232,0.04544581,-0.9339674,-2.379103,1.712484,-1.010849,1.317177,-0.1163713,288.2562,193.5394,36.3162
1,1.388891,0.2020408,0.4626661,-0.08136311,-1.250858,-1.125906,-0.391563,-0.6262248,0.03737944,10.96634,-0.1799807,0.02767044,-0.2514748,-0.2736744,-0.5761227,1.529605,-0.07594365,0.518505,0.04621384,-0.9327455,-2.373364,1.709486,-1.012635,1.315949,-0.116077,288.2042,194.7173,35.28508
1,1.400002,0.1852573,0.4315377,-0.0841237,-1.253963,-1.125075,-0.3942229,-0.6264346,-0.0195148,10.96634,-0.15319,0.0275647,-0.2142901,-0.2749671,-0.575343,1.529794,-0.06659409,0.4897754,0.03215648,-0.9320915,-2.367361,1.706686,-1.014617,1.314899,-0.1157911,288.0317,195.576,34.61618
1,1.411114,0.1801496,0.4059859,-0.07012554,-1.257095,-1.126853,-0.3957202,-0.6255606,0.0801034,10.42345,-0.1297462,0.009470195,-0.2144398,-0.2774071,-0.5771123,1.532443,-0.05929735,0.4620777,0.025582,-0.9313884,-2.36194,1.703926,-1.016969,1.313914,-0.1156701,287.7689,196.1802,34.24097
1,1.422225,0.1707115,0.3878548,-0.06042997,-1.260455,-1.128788,-0.3967567,-0.6259893,-0.03994213,10.42345,-0.1042102,0.0009976625,-0.2241539,-0.2801747,-0.5784615,1.53415,-0.04449788,0.4385939,0.02321066,-0.9307833,-2.356538,1.700898,-1.019244,1.312957,-0.1154524,287.6379,196.8211,33.74281
1,1.433336,0.1581516,0.3622577,-0.05168248,-1.264124,-1.129777,-0.3980968,-0.6257262,0.02455042,10.42345,-0.0786711,-0.01386184,-0.234946,-0.2829577,-0.5804109,1.536142,-0.03509858,0.4087595,0.01661372,-0.9301665,-2.351735,1.698408,-1.021263,1.311958,-0.1151791,287.5154,197.4161,33.325
1,1.444447,0.1433584,0.3472497,-0.0473289,-1.267139,-1.131562,-0.3987381,-0.625306,0.03815949,10.42345,-0.06905674,-0.05007449,-0.235099,-0.2855724,-0.5863721,1.542367,-0.0180068,0.3937157,0.030263,-0.9290017,-2.346874,1.695284,-1.023107,1.310869,-0.1149758,287.3914,198.0887,32.85826
1,1.455558,0.1358901,0.349388,-0.03561661,-1.270804,-1.133271,-0.3995178,-0.6253438,-0.003744005,10.74919,-0.06474113,-0.05756101,-0.2223586,-0.2876901,-0.5890018,1.545569,-0.005193621,0.3829673,0.04183216,-0.9276972,-2.341845,1.692212,-1.024784,1.309769,-0.1148224,287.3652,199.0141,32.02132
1,1.466669,0.1347996,0.3570238,-0.0165135,-1.275865,-1.135399,-0.4005581,-0.6249869,0.03280378,10.74919,-0.07439816,-0.06921731,-0.2436618,-0.2909493,-0.5928133,1.550248,0.003367513,0.3636913,0.05659372,-0.9262251,-2.33763,1.689384,-1.026282,1.30874,-0.1146909,287.3726,199.9831,31.07795
1,1.47778,0.1283607,0.3644738,-0.008024804,-1.279783,-1.137062,-0.4013426,-0.6251621,-0.01624401,10.74919,-0.08821824,-0.04050571,-0.2307324,-0.2932353,-0.591994,1.550829,0.003098771,0.3296747,0.04152919,-0.9257766,-2.334076,1.687476,-1.027701,1.307838,-0.1146209,287.3599,200.7903,30.3216
1,1.488891,0.1167021,0.3537175,-0.01116583,-1.283138,-1.138701,-0.4018433,-0.6256575,-0.04505717,10.74919,-0.09662467,-0.02889553,-0.1986964,-0.2944327,-0.5920537,1.552108,0.01338488,0.2828665,0.01780095,-0.9259683,-2.331609,1.685587,-1.029044,1.307083,-0.1145952,287.2502,201.5327,29.64223
1,1.500003,0.1052077,0.3301257,-0.01957007,-1.285298,-1.140723,-0.4025634,-0.62538,0.02582617,10.74919,-0.1008254,-0.01510796,-0.1805256,-0.2960034,-0.591585,1.552907,0.01631476,0.2563137,-0.0004543066,-0.926101,-2.328594,1.683761,-1.030324,1.306434,-0.1145965,287.0336,202.3246,28.92153
1,1.511114,0.09905457,0.3023404,-0.02366801,-1.287398,-1.142135,-0.4033347,-0.6251217,0.02336209,9.337676,-0.08588885,-0.01623383,-0.168853,-0.297547,-0.5913032,1.553387,0.01306042,0.2435476,-0.00155212,-0.9258794,-2.325645,1.681926,-1.031521,1.305865,-0.1146229,286.8755,203.0075,28.31764
1,1.522225,0.09808213,0.2905956,-0.02679546,-1.28994,-1.143699,-0.4039674,-0.6255084,-0.03544376,9.337676,-0.08160619,-0.02150528,-0.1710348,-0.2996264,-0.5932857,1.555875,0.01298665,0.2318267,-0.002676606,-0.9256274,-2.322843,1.680371,-1.032699,1.305347,-0.1146893,286.751,203.3507,28.03071
1,1.533336,0.08953516,0.2937374,-0.02467394,-1.293026,-1.145235,-0.4043312,-0.6255041,0.0007475106,9.337676,-0.0773112,0.0008312017,-0.1613846,-0.3010853,-0.5917603,1.554988,0.01408789,0.2318002,0.003695093,-0.92518,-2.31949,1.678334,-1.033853,1.304816,-0.1147323,286.6374,203.4752,27.93441
1,1.544447,0.07889535,0.2914985,-0.0289174,-1.295781,-1.146946,-0.404458,-0.6254625,0.00382667,9.337676,-0.05377511,0.01780069,-0.1326584,-0.3018453,-0.5896633,1.553004,0.02492183,0.2380599,0.02388091,-0.9240279,-2.31605,1.675654,-1.034981,1.304276,-0.114736,286.566,203.8141,27.63414
1,1.555558,0.06188075,0.286047,-0.02883397,-1.298877,-1.148025,-0.4042593,-0.6252506,0.01939079,9.446254,-0.0409772,0.02312884,-0.1295053,-0.3033681,-0.5886076,1.552061,0.03236359,0.2284247,0.02803836,-0.9233984,-2.313328,1.673579,-1.036054,1.303716,-0.1146685,286.4844,204.3427,27.15237
1,1.566669,0.04706629,0.2742716,-0.01810531,-1.301412,-1.149086,-0.4040835,-0.6251233,0.01154945,9.446254,-0.02722609,0.01470228,-0.1562188,-0.3058177,-0.5888941,1.552272,0.04185121,0.2070915,0.02573897,-0.9229888,-2.311188,1.671558,-1.037117,1.303165,-0.1145517,286.4007,205.0179,26.54433
1,1.577781,0.04819823,0.2657318,-0.01169293,-1.302966,-1.150119,-0.4043691,-0.6247275,0.03618265,9.446254,-0.01026352,-0.0352446,-0.1884047,-0.3088111,-0.5945464,1.557265,0.05861781,0.1623415,0.0136907,-0.9230649,-2.310261,1.670071,-1.038157,1.302646,-0.1143964,286.3432,205.7492,25.90814
1,1.588892,0.05590862,0.2338216,-0.01364572,-1.304449,-1.15098,-0.4049933,-0.6248415,-0.01062954,9.446254,0.001368791,-0.07881684,-0.2184196,-0.312041,-0.6014766,1.563529,0.05839083,0.1379163,-0.003462251,-0.9234974,-2.309136,1.66874,-1.039096,1.302241,-0.1142327,286.3279,206.5821,25.20513
1,1.600003,0.06586017,0.1891291,-0.02085658,-1.305326,-1.151944,-0.4058982,-0.6254391,-0.05439106,9.446254,0.0185269,-0.0906582,-0.1939909,-0.3140746,-0.606935,1.568374,0.05819481,0.1230851,-0.01950448,-0.9239475,-2.307547,1.667394,-1.039949,1.301962,-0.1141438,286.2744,207.1661,24.79366
1,1.611114,0.06398082,0.1592328,-0.02814391,-1.305977,-1.152869,-0.4065123,-0.6258727,-0.03911889,8.143322,0.01856058,-0.0810554,-0.1812038,-0.3151787,-0.608005,1.568945,0.05819879,0.1124157,-0.01422242,-0.9237766,-2.306101,1.665823,-1.040695,1.301778,-0.1141976,286.2003,207.4162,24.70099
1,1.622225,0.06532703,0.1229501,-0.04072164,-1.306074,-1.153788,-0.4070274,-0.6262391,-0.03319572,8.143322,0.01442264,-0.02792517,-0.1384074,-0.3154956,-0.6031868,1.564391,0.06777731,0.09103028,-0.004804034,-0.9235268,-2.305568,1.664502,-1.041293,1.301621,-0.1143247,286.0975,207.3513,24.76706
1,1.633336,0.06024259,0.09200061,-0.04370501,-1.306365,-1.153984,-0.40751,-0.6259654,0.02527062,8.143322,0.01890732,0.01554581,-0.07223401,-0.3146876,-0.5989268,1.560107,0.07086617,0.0665193,-0.006007623,-0.9236828,-2.305386,1.663594,-1.041902,1.301413,-0.1144902,285.9912,207.1566,24.86274
1,1.644447,0.0577162,0.006664515,-0.05919755,-1.303982,-1.154113,-0.4080602,-0.6258295,0.01215946,8.143322,0.04240486,0.0112523,-0.05742548,-0.3149492,-0.5986919,1.558845,0.07513086,0.04835017,0.003466055,-0.9234143,-2.305284,1.662589,-1.042411,1.301126,-0.1145591,285.9532,207.0853,24.84814
1,1.655559,0.06438822,-0.02853023,-0.07390805,-1.302522,-1.154684,-0.4089231,-0.6256196,0.01911755,8.143322,0.05631164,0.004824139,-0.04470708,-0.3151201,-0.5996709,1.558714,0.07519215,0.04405054,0.01303033,-0.923057,-2.304683,1.661373,-1.042953,1.300748,-0.1145341,285.9501,206.9828,24.89219
1,1.66667,0.06583893,-0.07872771,-0.0981253,-1.299814,-1.15541,-0.4094951,-0.6256852,-0.006112366,8.686211,0.06057855,-0.003695261,-0.04475152,-0.3155739,-0.6005018,1.558697,0.0752907,0.03972284,0.027925,-0.9223145,-2.30435,1.660345,-1.043607,1.300265,-0.1144445,285.9773,206.8929,24.96441
1,1.677781,0.06817359,-0.1075517,-0.1150454,-1.297486,-1.156886,-0.4096954,-0.6261507,-0.04250465,8.686211,0.05947857,-0.01538283,-0.05437001,-0.316456,-0.6020368,1.559677,0.07854707,0.03540975,0.038528,-0.9216881,-2.303913,1.659213,-1.044329,1.299701,-0.1142728,286.1252,206.6289,25.24245
1,1.688892,0.07695329,-0.1417118,-0.1393576,-1.294253,-1.157961,-0.4105156,-0.6259574,0.01807022,8.686211,0.06483965,-0.004761111,-0.04370321,-0.3166552,-0.6012923,1.558103,0.07326849,0.03326585,0.04708339,-0.9208924,-2.303445,1.658357,-1.045165,1.299091,-0.1140233,286.2881,206.4576,25.44249
1,1.700003,0.08682446,-0.1779282,-0.1519262,-1.290949,-1.15844,-0.4116437,-0.6257667,0.01726103,8.686211,0.07129438,-0.002676502,-0.02774066,-0.3164565,-0.6008342,1.556688,0.07210453,0.02051527,0.04064308,-0.9205951,-2.3036,1.657664,-1.045942,1.298457,-0.1135665,286.4748,206.2095,25.69634
1,1.711114,0.09553114,-0.1991643,-0.1486384,-1.287479,-1.158954,-0.4129743,-0.62627,-0.0461603,10.74919,0.07875322,-0.00799676,-0.03097474,-0.3167953,-0.6020693,1.556651,0.06674044,0.005609486,0.04381349,-0.9200748,-2.304024,1.657387,-1.046612,1.297837,-0.1128083,286.6505,206.0009,25.9216
1,1.722225,0.1063696,-0.2225153,-0.1485112,-1.283956,-1.159223,-0.41439,-0.6264532,-0.01635803,10.74919,0.09473804,0.002656423,-0.0278065,-0.317036,-0.6010472,1.554219,0.06238076,-0.01139954,0.0395094,-0.9198127,-2.30478,1.657284,-1.047327,1.297274,-0.1118689,286.8401,205.8419,26.21709
1,1.733337,0.1022216,-0.2353024,-0.1441624,-1.280876,-1.159326,-0.4154734,-0.6266242,-0.01561294,10.74919,0.1064376,-0.002647236,-0.03318813,-0.3174104,-0.6015782,1.553272,0.06448784,-0.02313118,0.04262815,-0.9194303,-2.305268,1.656832,-1.048055,1.296762,-0.1108589,287.0232,205.7358,26.56836
1,1.744448,0.101155,-0.2353231,-0.1462923,-1.277769,-1.159842,-0.4164161,-0.6265907,0.003163398,10.74919,0.09245951,-0.0153247,-0.0683302,-0.3192177,-0.6035863,1.554447,0.06877756,-0.02850261,0.04896299,-0.9187751,-2.305924,1.656356,-1.048686,1.29628,-0.1098465,287.1902,205.5708,26.99528
1,1.755559,0.1000659,-0.2310249,-0.136723,-1.275007,-1.15989,-0.4175453,-0.6261448,0.04064532,10.74919,0.08719032,0.001658067,-0.05013921,-0.3191692,-0.6018648,1.552069,0.06873254,-0.02634906,0.04365181,-0.9183576,-2.306246,1.655971,-1.04928,1.295781,-0.1089373,287.3199,205.2774,27.48249
1,1.76667,0.1084671,-0.2149118,-0.1251006,-1.272761,-1.160065,-0.4189232,-0.6260447,0.008779258,9.011944,0.09464803,0.000597693,-0.0501719,-0.3196827,-0.6019149,1.550891,0.07610726,-0.02846502,0.03399744,-0.9182782,-2.306742,1.655218,-1.049917,1.295248,-0.1082105,287.4398,205.0387,27.84387
1,1.777781,0.1158091,-0.1999176,-0.1209207,-1.270544,-1.160296,-0.4203421,-0.6260809,-0.003331298,9.011944,0.1053333,-0.008992344,-0.04703794,-0.3200331,-0.6032443,1.550422,0.07396228,-0.02952659,0.03400421,-0.9179762,-2.307291,1.654935,-1.050497,1.294683,-0.1076365,287.5831,204.8673,28.1154
1,1.788892,0.1189969,-0.198821,-0.1198632,-1.268025,-1.160608,-0.4216578,-0.6263536,-0.0248924,9.011944,0.1160724,0.005848631,-0.02252929,-0.3196129,-0.6017114,1.547394,0.07179669,-0.03590441,0.03293342,-0.917582,-2.307998,1.654656,-1.050981,1.294085,-0.107231,287.7255,204.7325,28.33237
1,1.800003,0.1105382,-0.2063161,-0.114489,-1.265202,-1.160613,-0.4226495,-0.6264053,-0.004572656,9.011944,0.1342014,0.02182253,-0.01615585,-0.3195143,-0.5991676,1.542943,0.07196499,-0.01998746,0.04685306,-0.9167261,-2.307916,1.653816,-1.0513,1.293446,-0.1069346,287.8596,204.5968,28.47379
1,1.811115,0.1084118,-0.2062845,-0.1059656,-1.262725,-1.160517,-0.4238261,-0.6262844,0.01106215,11.50923,0.1299029,0.03676663,-0.02567848,-0.3201801,-0.5968027,1.539256,0.07856634,-0.001967695,0.06392425,-0.915615,-2.307255,1.652234,-1.051454,1.292931,-0.1067787,287.8256,204.7674,28.16847
1,1.822226,0.1072242,-0.1965318,-0.08256474,-1.261539,-1.159957,-0.4242943,-0.6258306,0.04135261,11.50923,0.1234756,0.04637444,-0.03307891,-0.3207367,-0.5941949,1.535562,0.08509347,-0.003138576,0.08197944,-0.9142004,-2.307431,1.651183,-1.051494,1.292718,-0.1066952,287.7645,204.4407,28.31849
1,1.833337,0.1199009,-0.1814502,-0.06773613,-1.25968,-1.159428,-0.4261958,-0.6259376,-0.01012545,11.50923,0.103061,0.01350205,-0.08317702,-0.3228513,-0.5967723,1.537368,0.07962423,-0.02011167,0.07235332,-0.9138104,-2.308229,1.651005,-1.051544,1.292597,-0.1066674,287.7438,203.6847,28.95265
1,1.844448,0.1271442,-0.1536279,-0.05618019,-1.258714,-1.1593,-0.4278454,-0.625143,0.07280777,11.50923,0.1031168,0.03049067,-0.06607645,-0.3232167,-0.5945353,1.53413,0.06876621,-0.0434403,0.05741788,-0.9136618,-2.309604,1.651387,-1.051531,1.292492,-0.1066145,287.6655,203.1837,29.2986
1,1.855559,0.131299,-0.1386398,-0.04880084,-1.257506,-1.159026,-0.429594,-0.6265289,-0.1272967,11.50923,0.1074242,0.03579105,-0.05647562,-0.3232934,-0.5923222,1.530447,0.06759164,-0.05513134,0.04991677,-0.9133716,-2.310928,1.651569,-1.051322,1.292376,-0.1062345,287.4631,202.7117,29.73011
