loc,t,aDotS,bDotS,gDotS,aS,bS,gS,qE,qDotE,emg,aDotSH,bDotSH,gDotSH,aSH,bSH,gSH,aDotUB,bDotUB,gDotUB,aUB,bUB,gUB,xHand,yHand,zHand,aHand,bHand,gHand
2,0,0.224929,-0.263366,0.1760819,-1.15186,-1.125258,-0.5952336,-0.3944248,0.0004798542,3.583062,-0.0351467,0.1697131,-0.01929411,-0.370883,-0.8703839,1.321947,-0.06603837,0.09138632,0.02167995,-0.9616243,-2.885462,1.672542,-0.8037922,1.146922,0.05378161,309.1841,222.0158,16.10648
2,0.01111111,0.2226506,-0.2378485,0.1653553,-1.150928,-1.122559,-0.5987825,-0.3944104,0.001345092,3.583062,-0.03726736,0.1441429,-0.01829783,-0.3712404,-0.8679072,1.320146,-0.06393855,0.106345,0.01319051,-0.9616238,-2.883254,1.671891,-0.8031204,1.145337,0.05381205,309.5261,221.7375,16.24514
2,0.02222222,0.2140378,-0.2230091,0.1567915,-1.149988,-1.119929,-0.6019537,-0.394233,0.01615754,3.583062,-0.04259249,0.1270999,-0.01939775,-0.3717022,-0.8656136,1.318617,-0.0575875,0.1063571,0.007816333,-0.9615492,-2.881775,1.671531,-0.8023875,1.143625,0.05377586,309.8512,221.6529,16.24966
2,0.03333334,0.2075409,-0.2049717,0.1460874,-1.149116,-1.117531,-0.6051224,-0.3941787,0.004776656,3.583062,-0.04690488,0.1122418,-0.03647012,-0.3727105,-0.8636807,1.317449,-0.05975446,0.1053181,0.004626601,-0.9615311,-2.880246,1.671537,-0.8016467,1.141852,0.05367453,310.1574,221.7162,16.07993
2,0.04444445,0.2063899,-0.1890023,0.1428421,-1.148565,-1.115128,-0.6084743,-0.3938107,0.03362254,3.583062,-0.04264233,0.1186269,-0.03751966,-0.3733182,-0.8602095,1.314448,-0.05872279,0.104267,0.0003536241,-0.9615364,-2.878862,1.67137,-0.800939,1.140084,0.0535091,310.4754,221.7627,15.90569
2,0.05555556,0.1944945,-0.1570979,0.1470197,-1.148827,-1.113001,-0.6111864,-0.3938693,-0.005606953,4.56026,-0.03523856,0.1282628,-0.05242929,-0.3746844,-0.8562925,1.310993,-0.0566301,0.09149607,-0.0007678696,-0.9613484,-2.877854,1.67148,-0.8002595,1.138418,0.0533093,310.7933,221.7789,15.74713
2,0.06666667,0.1879,-0.127273,0.1490604,-1.149502,-1.111439,-0.6132306,-0.3940717,-0.01841426,4.56026,-0.04061124,0.1165709,-0.06522957,-0.3758871,-0.8548843,1.310368,-0.05553224,0.09575189,0.002444318,-0.960966,-2.876282,1.671184,-0.7996405,1.136916,0.05308267,311.0651,221.7741,15.61665
2,0.07777778,0.1652218,-0.07200743,0.1478457,-1.150892,-1.11044,-0.6149388,-0.39358,0.0450968,4.56026,-0.0384387,0.09629814,-0.05464641,-0.3763899,-0.8535634,1.30951,-0.05337016,0.09360802,0.006687955,-0.9605846,-2.874969,1.670911,-0.7990543,1.135599,0.05286748,311.2489,221.7734,15.49848
2,0.08888889,0.1533754,-0.04970246,0.1413825,-1.151739,-1.109487,-0.6167247,-0.3931364,0.0401822,4.56026,-0.03410972,0.07068293,-0.03664901,-0.3766434,-0.8530302,1.309302,-0.04807658,0.07335074,0.007646929,-0.9603071,-2.874704,1.671194,-0.7984855,1.13447,0.05264978,311.3631,221.8394,15.37227
2,0.1,0.1308386,-0.02109838,0.1295939,-1.152776,-1.108779,-0.6179013,-0.3930826,0.004654012,4.56026,-0.0276358,0.04824471,-0.01436869,-0.3761747,-0.8529689,1.309376,-0.04494653,0.05525114,0.003293492,-0.9603684,-2.874494,1.671493,-0.7979574,1.13351,0.05240965,311.4297,221.9489,15.22648
2,0.1111111,0.1104451,-0.0009636581,0.1199518,-1.154094,-1.108487,-0.6182044,-0.3932834,-0.01827794,4.451683,-0.03189459,0.04930566,-0.01328652,-0.3764964,-0.8514605,1.308483,-0.04388734,0.04570112,0.004324191,-0.9600866,-2.873356,1.671245,-0.7975312,1.132714,0.05210726,311.4984,222.1059,15.04468
2,0.1222222,0.0890637,0.01275629,0.1167201,-1.155139,-1.107774,-0.6189958,-0.3929063,0.03471731,4.451683,-0.0350989,0.05357245,-0.01539311,-0.3769081,-0.8497534,1.307371,-0.04285383,0.04145024,0.001104273,-0.9601201,-2.872954,1.671468,-0.7972326,1.13208,0.05173981,311.5643,222.1866,14.91506
2,0.1333333,0.06121831,0.03923767,0.1187872,-1.156806,-1.107249,-0.619137,-0.3923001,0.05521998,4.451683,-0.03618237,0.07277343,-0.02065835,-0.3777689,-0.8459483,1.304171,-0.04287262,0.0446743,-0.002086534,-0.9602379,-2.871869,1.671345,-0.7970314,1.131597,0.05135416,311.5577,222.2029,14.81198
2,0.1444445,0.03442185,0.06148061,0.1218881,-1.158378,-1.107462,-0.6182097,-0.3927321,-0.03980379,4.451683,-0.0372396,0.08448111,-0.01741666,-0.3781076,-0.8427701,1.301634,-0.03964242,0.05002954,-0.0009801725,-0.9593899,-2.870446,1.670641,-0.7968878,1.131266,0.05099716,311.5,222.2433,14.69477
2,0.1555556,0.01731011,0.07199316,0.1058872,-1.159714,-1.107459,-0.6179572,-0.3923971,0.0311664,5.646037,-0.04577776,0.06425778,-0.02384208,-0.3785524,-0.8425304,1.302135,-0.03534763,0.05107058,0.003253204,-0.9591801,-2.869742,1.670531,-0.7967731,1.13107,0.05064525,311.4493,222.3111,14.62234
2,0.1666667,-0.003990011,0.0739381,0.07923765,-1.160424,-1.108156,-0.6176334,-0.3917899,0.0553709,5.646037,-0.04896398,0.05572792,-0.02172702,-0.3788208,-0.841707,1.302007,-0.032174,0.05216981,0.001131363,-0.9587135,-2.868533,1.670196,-0.7966367,1.131024,0.05025554,311.4363,222.4573,14.51898
2,0.1777778,-0.0252895,0.0705571,0.05582123,-1.160976,-1.108599,-0.6166038,-0.3925441,-0.06926344,5.646037,-0.04889022,0.009859905,-0.0037566,-0.3779238,-0.8450002,1.305639,-0.0194395,0.03616416,-0.002220448,-0.9588301,-2.86882,1.670134,-0.7964194,1.131209,0.04982037,311.4427,222.5917,14.3953
2,0.1888889,-0.05407104,0.06816629,0.01319987,-1.160942,-1.110452,-0.6144099,-0.3930346,-0.04407237,5.646037,-0.04352528,-0.02639194,0.00463333,-0.3774184,-0.8479931,1.308752,-0.01103226,0.01487262,-0.01301321,-0.959211,-2.869442,1.670343,-0.7963473,1.13151,0.04929416,311.3501,222.5855,14.34735
2,0.2,-0.08605534,0.0699967,-0.03153614,-1.160764,-1.112409,-0.6120168,-0.3924285,0.05585287,5.646037,-0.02966368,-0.07113008,0.00444822,-0.3768735,-0.8531703,1.313531,-0.001560912,-0.008545006,-0.02276134,-0.9597782,-2.870224,1.670556,-0.7964892,1.131833,0.04873308,311.1852,222.4968,14.34239
2,0.2111111,-0.1052265,0.06766279,-0.06667145,-1.160468,-1.114295,-0.6097158,-0.3919433,0.04398241,5.103148,-0.02539843,-0.106286,0.005393017,-0.3762578,-0.8583677,1.318725,0.003699612,-0.02763084,-0.03027307,-0.9593569,-2.869921,1.669773,-0.796616,1.132272,0.04828959,311.0743,222.4274,14.29342
2,0.2222222,-0.1307429,0.05351856,-0.1209478,-1.159011,-1.116929,-0.6065546,-0.3919774,-0.003275826,5.103148,-0.01581515,-0.1286444,0.002095595,-0.3758194,-0.8637846,1.323678,0.01321685,-0.03934259,-0.03678095,-0.9600179,-2.870758,1.669849,-0.7967404,1.132925,0.04807363,311.0393,222.3842,14.19927
2,0.2333333,-0.1561707,0.01803242,-0.192227,-1.156176,-1.120336,-0.6024939,-0.3922938,-0.02865701,5.103148,0.002343908,-0.149978,0.01368716,-0.374849,-0.8689559,1.327911,0.02385158,-0.05740439,-0.03688815,-0.9597015,-2.870819,1.669076,-0.7970865,1.133791,0.04807668,311.0059,222.3711,14.16448
2,0.2444444,-0.1635425,0.001908064,-0.2252034,-1.154024,-1.12289,-0.5998003,-0.3920003,0.02722721,5.103148,0.004499659,-0.1819458,0.01784388,-0.3738748,-0.8760229,1.334396,0.02270978,-0.07229175,-0.04332899,-0.9604658,-2.872228,1.669662,-0.797679,1.134878,0.04827121,310.9439,222.3528,14.25749
2,0.2555556,-0.1719904,-0.01529866,-0.2656317,-1.151236,-1.126182,-0.5963121,-0.3916301,0.03373918,4.994571,0.01091567,-0.2160464,0.02197806,-0.3727584,-0.8846744,1.342161,0.02472468,-0.08505396,-0.05617033,-0.9615721,-2.874046,1.670324,-0.7983108,1.136333,0.04876759,310.9156,222.2558,14.42716
2,0.2666667,-0.1901104,-0.01658949,-0.3082439,-1.148522,-1.13017,-0.5922865,-0.3928653,-0.1129954,4.994571,0.01951766,-0.2289073,0.04533901,-0.3712004,-0.8918852,1.348523,0.02790584,-0.1021143,-0.05412871,-0.9622283,-2.875872,1.670928,-0.7990445,1.138207,0.04958209,310.8521,222.0828,14.74987
2,0.2777778,-0.2103516,-0.01890247,-0.3327287,-1.145885,-1.133966,-0.5878673,-0.3927065,0.0156238,4.994571,0.0217426,-0.2311228,0.07302265,-0.3691269,-0.8980318,1.353956,0.03319337,-0.1287092,-0.05424872,-0.9626092,-2.877533,1.67117,-0.8003024,1.140197,0.05047973,310.6177,221.8941,15.24628
2,0.2888889,-0.2412853,-0.0159809,-0.3731978,-1.143215,-1.138693,-0.582412,-0.3925883,0.01068656,4.994571,0.02825749,-0.2514767,0.1123384,-0.3664914,-0.9055456,1.360774,0.0373582,-0.1617356,-0.05972676,-0.9635892,-2.880901,1.672474,-0.8015807,1.142411,0.05157402,310.3804,221.7428,15.74507
2,0.3,-0.2775611,-0.01098752,-0.4190026,-1.140052,-1.14412,-0.576128,-0.3922975,0.02670056,4.994571,0.04652178,-0.2739772,0.1558848,-0.3629217,-0.9138605,1.367555,0.05011597,-0.1819787,-0.05881625,-0.9641229,-2.883374,1.67293,-0.8028255,1.144788,0.05280554,310.1498,221.6242,16.2507
2,0.3111111,-0.3042082,-0.01013699,-0.445613,-1.137183,-1.14919,-0.5700422,-0.3918394,0.04177014,5.97177,0.0605,-0.2868707,0.1888314,-0.3592141,-0.9223565,1.374233,0.06289949,-0.2022758,-0.05473547,-0.9649938,-2.886882,1.673779,-0.8039099,1.147356,0.05414389,309.9812,221.5317,16.69026
2,0.3222222,-0.3393674,-0.01683766,-0.4903333,-1.133306,-1.155455,-0.5624388,-0.3915305,0.02809903,5.97177,0.08621112,-0.3157412,0.2280711,-0.3549291,-0.9320979,1.381721,0.07242242,-0.2459187,-0.05493674,-0.9652404,-2.890666,1.674581,-0.8047996,1.150196,0.05557793,309.8767,221.4714,17.04776
2,0.3333333,-0.3766822,-0.01611076,-0.5361239,-1.129346,-1.162087,-0.5544243,-0.3918501,-0.02922,5.97177,0.1310026,-0.3605029,0.2384343,-0.3510749,-0.9451559,1.391367,0.08725141,-0.2853725,-0.05734098,-0.9665549,-2.895957,1.676119,-0.8056569,1.153334,0.05702905,309.7674,221.373,17.45365
2,0.3444445,-0.3627687,-0.02782667,-0.5616668,-1.125317,-1.168099,-0.5485014,-0.3911907,0.06078554,5.97177,0.1533701,-0.3849793,0.2340196,-0.3479361,-0.9574757,1.400709,0.1041914,-0.3173579,-0.06399199,-0.9679925,-2.901228,1.677445,-0.8066162,1.156715,0.0584357,309.5614,221.1727,17.94618
2,0.3555556,-0.3466772,-0.05347064,-0.620194,-1.119864,-1.175377,-0.5419405,-0.3912067,-0.001779303,5.537459,0.1810599,-0.420109,0.2284908,-0.344653,-0.97249,1.412088,0.1179518,-0.3461307,-0.06846776,-0.9693379,-2.906638,1.678858,-0.8074912,1.16046,0.05989766,309.355,220.9162,18.45561
2,0.3666667,-0.3573399,-0.05467279,-0.6500108,-1.115404,-1.182554,-0.5345204,-0.3933457,-0.1952572,5.537459,0.2098678,-0.4563605,0.239996,-0.3408697,-0.9886389,1.424437,0.1242981,-0.3663599,-0.07070182,-0.9702908,-2.911692,1.68009,-0.8086375,1.164478,0.06131333,309.0826,220.6044,19.08353
2,0.3777778,-0.3307898,-0.04289432,-0.6809581,-1.111008,-1.190469,-0.5280367,-0.3936631,-0.02728519,5.537459,0.2227232,-0.4681375,0.260157,-0.3367024,-1.003641,1.435784,0.1508647,-0.4037003,-0.06997962,-0.9716538,-2.91811,1.681333,-0.810139,1.168558,0.06265444,308.6521,220.1112,19.93583
2,0.3888889,-0.3329841,-0.03227635,-0.6905656,-1.107081,-1.197929,-0.52104,-0.3928791,0.07179114,5.537459,0.2377034,-0.4809761,0.2781709,-0.3325457,-1.019256,1.447551,0.1593279,-0.4335647,-0.07016885,-0.9731883,-2.924875,1.683193,-0.8115409,1.172705,0.06416361,308.2383,219.5474,20.80047
2,0.4,-0.3513102,0.007082343,-0.6746839,-1.10463,-1.205389,-0.5131794,-0.3941553,-0.1172226,5.537459,0.2494593,-0.499112,0.2876629,-0.3284018,-1.03647,1.460739,0.1697739,-0.4537388,-0.09269712,-0.9754419,-2.931338,1.684681,-0.8126908,1.176922,0.06590644,307.9083,219.1681,21.53419
2,0.4111111,-0.3557167,0.03483695,-0.6470549,-1.102511,-1.212193,-0.5060768,-0.3936621,0.04626008,5.428882,0.276193,-0.5109144,0.3184325,-0.323557,-1.053485,1.473261,0.1847271,-0.4612564,-0.08646107,-0.9770483,-2.937546,1.685661,-0.8136019,1.181134,0.06788369,307.5859,218.8357,22.28505
2,0.4222222,-0.3654107,0.05287796,-0.6524404,-1.099715,-1.220244,-0.4981251,-0.3927992,0.07836586,5.428882,0.3018866,-0.5014375,0.3567261,-0.3181135,-1.068812,1.483781,0.2102911,-0.4911231,-0.07928156,-0.9778009,-2.944333,1.686466,-0.8144017,1.185217,0.06999729,307.2916,218.6607,22.98062
2,0.4333333,-0.3835936,0.06555104,-0.6556625,-1.097204,-1.228096,-0.4897639,-0.393294,-0.04574324,5.428882,0.3371736,-0.514325,0.3927907,-0.3122024,-1.086965,1.496235,0.2293318,-0.506015,-0.09441984,-0.980275,-2.951293,1.687205,-0.814945,1.189237,0.07209075,307.0641,218.7152,23.56751
2,0.4444444,-0.4028166,0.07180873,-0.6652542,-1.094404,-1.236213,-0.4810404,-0.393196,0.00946877,5.428882,0.3809987,-0.5410721,0.434107,-0.3055935,-1.108148,1.510808,0.2410854,-0.5156447,-0.08813742,-0.981565,-2.958214,1.688026,-0.8151987,1.193155,0.07400465,306.8366,218.7328,24.1643
2,0.4555556,-0.422078,0.08660024,-0.6706124,-1.09213,-1.244478,-0.4720783,-0.3928045,0.03575279,5.428882,0.4012765,-0.5485527,0.4446668,-0.3002134,-1.127962,1.524818,0.2644998,-0.555145,-0.08102804,-0.9833499,-2.966929,1.68926,-0.8152785,1.197017,0.0756678,306.6845,218.6759,24.67129
2,0.4666667,-0.4350584,0.1206964,-0.6483221,-1.091303,-1.252296,-0.463243,-0.392681,0.01108001,6.40608,0.4022974,-0.5676881,0.4307563,-0.2955864,-1.150566,1.542037,0.267513,-0.5731812,-0.1002819,-0.9855747,-2.974833,1.69065,-0.8152719,1.200895,0.07708207,306.5385,218.5499,25.10752
2,0.4777778,-0.4416216,0.1537509,-0.6249758,-1.090838,-1.259972,-0.4546453,-0.3926783,0.0002971452,6.40608,0.4149808,-0.5878264,0.3997544,-0.291973,-1.174739,1.560298,0.2599558,-0.582724,-0.1098494,-0.9878623,-2.982613,1.692377,-0.8151579,1.204892,0.07830705,306.3555,218.3377,25.55378
2,0.4888889,-0.4419772,0.2220773,-0.5729566,-1.092636,-1.266996,-0.4465631,-0.3927731,-0.008503599,6.40608,0.4350673,-0.5770387,0.3549791,-0.2891394,-1.196125,1.57538,0.2544264,-0.6060815,-0.1343968,-0.9908674,-2.991443,1.69422,-0.8151509,1.208976,0.07935349,306.0397,218.0596,26.06247
2,0.5,-0.4358422,0.2712037,-0.542206,-1.094433,-1.274362,-0.4385438,-0.3931071,-0.03032772,6.40608,0.4445754,-0.575898,0.3315135,-0.286211,-1.218655,1.591756,0.2554194,-0.6145768,-0.1418947,-0.9935295,-2.999562,1.69579,-0.8152096,1.2131,0.08023669,305.5945,217.8132,26.5876
2,0.5111111,-0.4309738,0.3554869,-0.5072833,-1.098013,-1.281993,-0.430419,-0.3934618,-0.03209934,4.56026,0.4531051,-0.5674042,0.3410875,-0.2823941,-1.240486,1.607759,0.2511792,-0.6157022,-0.1376176,-0.996035,-3.008184,1.697822,-0.8151506,1.217248,0.08098979,305.1167,217.6421,27.07013
2,0.5222223,-0.4322492,0.3927887,-0.4999229,-1.10065,-1.289885,-0.4219757,-0.3937792,-0.02867907,4.56026,0.4489415,-0.5323496,0.3731692,-0.2775589,-1.25926,1.620934,0.2446654,-0.6252235,-0.1514554,-0.9989661,-3.016396,1.699723,-0.8148392,1.221366,0.08158177,304.5916,217.5711,27.46955
2,0.5333334,-0.4398589,0.4215143,-0.4978682,-1.103378,-1.297947,-0.4133066,-0.3938405,-0.005427525,4.56026,0.4307941,-0.4694959,0.3691429,-0.2739993,-1.272848,1.629781,0.2415141,-0.616713,-0.1503446,-1.0016,-3.024163,1.70106,-0.8143311,1.225347,0.08203281,304.0291,217.4506,27.83116
2,0.5444446,-0.4398645,0.4139865,-0.5095676,-1.104951,-1.306116,-0.4045118,-0.3936546,0.01708657,4.56026,0.3892663,-0.423631,0.3619282,-0.2704664,-1.287064,1.640204,0.2438371,-0.5858641,-0.1374939,-1.003399,-3.030666,1.701798,-0.8136236,1.229131,0.08239357,303.4569,217.39,28.0583
2,0.5555557,-0.4364327,0.3756452,-0.5233096,-1.105396,-1.313673,-0.3964595,-0.3935034,0.01367272,4.56026,0.371068,-0.3938314,0.357849,-0.2671172,-1.300975,1.650181,0.238419,-0.5667142,-0.1405669,-1.006276,-3.037694,1.70381,-0.8128443,1.232708,0.08275671,302.9829,217.2759,28.23118
2,0.5666668,-0.4287826,0.3405134,-0.5306728,-1.105718,-1.321189,-0.3885584,-0.3934549,0.004345044,6.623236,0.3987047,-0.3746092,0.3439661,-0.2639821,-1.316327,1.659782,0.2428377,-0.5476094,-0.1245456,-1.007902,-3.043986,1.704343,-0.8121279,1.236119,0.08322711,302.6072,217.1793,28.34174
2,0.577778,-0.4018549,0.2852036,-0.5539582,-1.104718,-1.328807,-0.3814446,-0.3939604,-0.04623485,6.623236,0.4593307,-0.4192346,0.3116634,-0.2619602,-1.339443,1.675288,0.2761887,-0.5307882,-0.09277016,-1.008751,-3.051038,1.703286,-0.8113649,1.239512,0.08394507,302.3462,217.0614,28.50394
2,0.5888891,-0.3622478,0.2469935,-0.5836961,-1.103806,-1.337085,-0.3747163,-0.3941622,-0.01804963,6.623236,0.5103171,-0.5064253,0.2611351,-0.2614851,-1.370965,1.698781,0.2791911,-0.5595114,-0.1088971,-1.011509,-3.059118,1.704532,-0.8106752,1.242903,0.08494989,302.0949,216.8525,28.85536
2,0.6000003,-0.3419633,0.2342104,-0.6209533,-1.103066,-1.346109,-0.3672989,-0.3949766,-0.0743458,6.623236,0.5422341,-0.564954,0.2437998,-0.2603746,-1.402208,1.722096,0.275799,-0.5988153,-0.1356601,-1.014678,-3.067948,1.705368,-0.8099419,1.246354,0.08627318,301.8422,216.6596,29.30687
2,0.6111114,-0.325934,0.2268406,-0.6220068,-1.102812,-1.354231,-0.3605206,-0.3956376,-0.0599427,5.103148,0.558259,-0.5809627,0.2586134,-0.2580214,-1.428947,1.741634,0.2863738,-0.6158595,-0.1411581,-1.017544,-3.07604,1.706201,-0.8092402,1.249791,0.08790161,301.5499,216.3453,29.97092
2,0.6222225,-0.2961273,0.229131,-0.623082,-1.102874,-1.362277,-0.3544124,-0.3951907,0.04125673,5.103148,0.5701531,-0.5800565,0.3107761,-0.2543356,-1.457295,1.762427,0.3033724,-0.6287064,-0.1445219,-1.020194,-3.084917,1.70683,-0.808502,1.253168,0.08984929,301.2398,216.0919,30.64307
2,0.6333337,-0.2704633,0.2143379,-0.631575,-1.102253,-1.370627,-0.3485108,-0.3952056,-0.001912461,5.103148,0.5745723,-0.5780743,0.3576322,-0.2505443,-1.485987,1.783783,0.3001131,-0.629755,-0.1509006,-1.023136,-3.09293,1.707839,-0.8077421,1.256462,0.09207184,300.953,216.0087,31.2237
2,0.6444448,-0.2649676,0.1780726,-0.6570244,-1.100577,-1.379154,-0.3416537,-0.3956866,-0.04400365,5.103148,0.5619013,-0.5505049,0.3961175,-0.2464617,-1.512432,1.80363,0.3066116,-0.6149022,-0.1445235,-1.025715,-3.10056,1.707766,-0.8069946,1.259648,0.09444605,300.6913,216.0661,31.73101
2,0.655556,-0.258327,0.1322018,-0.6909865,-1.097934,-1.388248,-0.3348872,-0.3958858,-0.01796994,5.103148,0.5522869,-0.5377202,0.3929808,-0.2438689,-1.53906,1.823685,0.3109769,-0.6043026,-0.1349476,-1.028056,-3.10802,1.707887,-0.8061625,1.262715,0.09687622,300.4522,216.132,32.22961
2,0.6666671,-0.2528766,0.1044269,-0.7217649,-1.095587,-1.397064,-0.3281787,-0.3948392,0.09560998,5.863192,0.5522702,-0.5334444,0.3866007,-0.241512,-1.567331,1.844941,0.3025534,-0.5734333,-0.1273108,-1.030123,-3.114342,1.708129,-0.8052908,1.265612,0.09932852,300.2444,216.0394,32.80068
2,0.6777782,-0.2453957,0.09890664,-0.7505447,-1.093651,-1.406468,-0.3211117,-0.3949409,-0.01026409,5.863192,0.550105,-0.5110472,0.3781555,-0.2390853,-1.592195,1.863087,0.3046387,-0.5553494,-0.1293968,-1.032564,-3.120891,1.708758,-0.8043901,1.268384,0.1018111,300.1465,215.8979,33.34091
2,0.6888894,-0.2443909,0.1053948,-0.7632954,-1.092014,-1.416298,-0.314098,-0.3948078,0.01226477,5.863192,0.5446231,-0.4981529,0.3366581,-0.2381915,-1.617255,1.881589,0.2905229,-0.5701268,-0.1591736,-1.036001,-3.128388,1.709767,-0.8035411,1.271117,0.1043505,300.1199,215.7261,33.87097
2,0.7000005,-0.2391832,0.1192148,-0.7739438,-1.090806,-1.425584,-0.3071061,-0.3946208,0.01693962,5.863192,0.5435184,-0.4842709,0.3260524,-0.2366272,-1.641714,1.899383,0.2646362,-0.5827421,-0.1931433,-1.040187,-3.135781,1.711596,-0.8027196,1.273885,0.1069636,300.0729,215.6223,34.36127
2,0.7111117,-0.2327659,0.1181637,-0.7814081,-1.089319,-1.435515,-0.3002544,-0.3947774,-0.0145237,5.428882,0.543574,-0.4842963,0.3420252,-0.2343859,-1.668678,1.919642,0.2593367,-0.5848868,-0.1877878,-1.043026,3.140191,1.712528,-0.8019202,1.276755,0.1096494,299.9808,215.5863,34.82463
2,0.7222228,-0.2338022,0.103176,-0.8026457,-1.087267,-1.445737,-0.2925621,-0.3944983,0.02560499,5.428882,0.5522484,-0.4865646,0.3867316,-0.2311054,-1.699669,1.943428,0.2668579,-0.5817974,-0.1708053,-1.045542,3.132966,1.713508,-0.801051,1.279773,0.1124257,299.8358,215.5131,35.34784
2,0.7333339,-0.2315051,0.07111138,-0.8409088,-1.084105,-1.45681,-0.2849993,-0.3948312,-0.03074698,5.428882,0.561884,-0.5026296,0.4111361,-0.2287512,-1.731891,1.968655,0.2775787,-0.5765426,-0.1612722,-1.047938,3.126032,1.713709,-0.8001291,1.282923,0.1152667,299.6451,215.3985,35.9342
2,0.7444451,-0.2303025,0.03055793,-0.8663204,-1.080753,-1.467222,-0.2770348,-0.3941137,0.06586792,5.428882,0.5831987,-0.5568741,0.4034422,-0.2279527,-1.768635,1.997397,0.2862501,-0.5394033,-0.1410038,-1.050421,3.120131,1.713886,-0.7991517,1.286203,0.1181732,299.459,215.2035,36.60901
2,0.7555562,-0.2269958,0.01032081,-0.8715917,-1.077685,-1.47783,-0.2695678,-0.394526,-0.03838289,5.428882,0.5800146,-0.5611462,0.4066356,-0.2264891,-1.802906,2.024421,0.2863704,-0.5160403,-0.1281519,-1.052534,3.114239,1.713832,-0.7981976,1.289609,0.1211321,299.3252,214.9635,37.347
2,0.7666674,-0.2153231,0.01785201,-0.8716176,-1.075648,-1.488451,-0.2624673,-0.3938703,0.06028984,6.080348,0.5821467,-0.5503724,0.3970823,-0.2249977,-1.83115,2.045464,0.2821505,-0.5139327,-0.1217248,-1.05454,3.107917,1.714017,-0.7973593,1.293172,0.1241749,299.2538,214.6052,38.17487
2,0.7777785,-0.2058876,0.04350284,-0.8621076,-1.074334,-1.49913,-0.2552379,-0.3943875,-0.04785759,6.080348,0.5767813,-0.530104,0.387575,-0.2239228,-1.86101,2.068276,0.2574198,-0.5319287,-0.1397303,-1.05769,3.10094,1.71568,-0.7964885,1.296903,0.127321,299.1654,214.2327,39.05401
2,0.7888896,-0.2070829,0.07016763,-0.8525788,-1.073595,-1.5094,-0.2482061,-0.3948083,-0.03802314,6.080348,0.5640393,-0.4897028,0.4101171,-0.2215361,-1.889409,2.090247,0.2466977,-0.5478669,-0.1439736,-1.060289,3.093901,1.716703,-0.7955839,1.300768,0.1305233,298.9997,213.8947,39.98749
2,0.8000008,-0.2083705,0.1096047,-0.842038,-1.073525,-1.520075,-0.2406869,-0.3946815,0.01187038,6.080348,0.5557084,-0.4653839,0.468812,-0.2180341,-1.922937,2.117032,0.2573849,-0.5553908,-0.1387615,-1.06269,3.086616,1.716892,-0.7944717,1.30469,0.1337209,298.7525,213.6289,40.91645
2,0.8111119,-0.2191583,0.1351051,-0.8420964,-1.073348,-1.530858,-0.2329334,-0.3945889,0.008274967,6.188925,0.551527,-0.4686669,0.4922315,-0.2159168,-1.958749,2.145914,0.2616963,-0.5469011,-0.1344986,-1.064934,3.080158,1.716986,-0.7932754,1.308587,0.1368505,298.4821,213.3669,41.79335
2,0.8222231,-0.2309226,0.1424806,-0.8474352,-1.07292,-1.541906,-0.2247815,-0.3942251,0.03315212,6.188925,0.5313294,-0.4910768,0.5028842,-0.2144132,-1.9977,2.17859,0.2606888,-0.5256346,-0.1290662,-1.066918,3.074238,1.717285,-0.7921538,1.312381,0.1398811,298.1936,213.0991,42.61575
2,0.8333342,-0.2586164,0.1390458,-0.8729733,-1.0719,-1.553731,-0.2155658,-0.3939721,0.02287879,6.188925,0.4918932,-0.5038899,0.5019064,-0.213708,-2.035834,2.21159,0.2564927,-0.5000963,-0.1236135,-1.068999,3.068724,1.717506,-0.7910637,1.31605,0.142776,297.9261,212.9364,43.33068
2,0.8444453,-0.266023,0.1304617,-0.8857123,-1.071157,-1.565147,-0.2071566,-0.3936813,0.02634221,6.188925,0.4716129,-0.4910789,0.4913619,-0.2127136,-2.069883,2.240185,0.2597047,-0.4723811,-0.1299207,-1.071241,3.063913,1.716834,-0.7900751,1.319616,0.1455314,297.7303,212.7944,43.96411
2,0.8555565,-0.2745686,0.1314791,-0.8888859,-1.070649,-1.576385,-0.1984726,-0.3930171,0.06053961,6.188925,0.4532034,-0.453554,0.4063176,-0.2135642,-2.091715,2.256802,0.2349348,-0.4637164,-0.1605768,-1.074444,3.0584,1.717931,-0.7891843,1.323145,0.1481952,297.6039,212.6129,44.55745
2,0.8666676,-0.2735803,0.147494,-0.8782709,-1.070876,-1.587279,-0.1903084,-0.3936434,-0.05772954,5.211726,0.4349547,-0.4246799,0.3659728,-0.213847,-2.116052,2.276076,0.2177669,-0.4604157,-0.1774819,-1.077599,3.053101,1.718461,-0.7884361,1.326758,0.1508585,297.5432,212.397,45.09267
2,0.8777788,-0.2725425,0.1539247,-0.8665715,-1.071005,-1.59812,-0.1821059,-0.3934421,0.0190483,5.211726,0.4381102,-0.4214461,0.3542537,-0.2141293,-2.143617,2.298063,0.2071733,-0.4593582,-0.1752523,-1.080128,3.04722,1.71867,-0.7877354,1.330553,0.1536405,297.4417,212.1218,45.66991
2,0.8888899,-0.2716149,0.1806135,-0.8485371,-1.072127,-1.608742,-0.1740109,-0.3938176,-0.03453112,5.211726,0.4434948,-0.4257283,0.3659475,-0.2140468,-2.175265,2.32374,0.2062031,-0.45941,-0.1624659,-1.082396,3.041646,1.718986,-0.7868909,1.334536,0.1565449,297.2426,211.8467,46.40336
2,0.900001,-0.2738493,0.1997717,-0.8464594,-1.073107,-1.619728,-0.1656545,-0.3938336,-0.001072181,5.211726,0.4350634,-0.4492427,0.3904052,-0.2143499,-2.210402,2.353432,0.1966893,-0.4562879,-0.1538558,-1.084818,3.035392,1.719723,-0.785961,1.338656,0.1595197,296.962,211.5186,47.29718
2,0.9111122,-0.2771108,0.2114746,-0.8454249,-1.074245,-1.630642,-0.1573156,-0.3938458,-0.001143546,5.211726,0.4031877,-0.4546974,0.4181904,-0.214508,-2.24616,2.384775,0.1818253,-0.4552139,-0.1473383,-1.086978,3.030034,1.720624,-0.7849797,1.342847,0.1624971,296.6608,211.1747,48.25158
2,0.9222233,-0.2835073,0.2135278,-0.8582124,-1.075065,-1.642192,-0.1485777,-0.393775,0.006543186,5.320304,0.3565106,-0.4335862,0.4770073,-0.2130241,-2.283838,2.41898,0.1626963,-0.4455953,-0.1450358,-1.089391,3.024921,1.721761,-0.7840016,1.347052,0.1654144,296.3362,210.8234,49.19698
2,0.9333345,-0.2845423,0.2103455,-0.8496782,-1.0759,-1.652839,-0.140388,-0.3937638,0.0009709613,5.320304,0.329964,-0.3857586,0.509216,-0.2110667,-2.316783,2.448268,0.1455275,-0.4433647,-0.1608834,-1.092386,3.019812,1.722969,-0.7830675,1.351216,0.1682626,296.0269,210.4037,50.14636
2,0.9444456,-0.2855295,0.1986666,-0.8336648,-1.076595,-1.663132,-0.1322899,-0.3936898,0.006781851,5.320304,0.3246071,-0.3538208,0.5061307,-0.2103263,-2.347171,2.474383,0.1208608,-0.4219006,-0.1872534,-1.09584,3.015556,1.724269,-0.7821711,1.355328,0.1710605,295.763,209.9725,51.03274
2,0.9555568,-0.2779555,0.1806178,-0.8240274,-1.076883,-1.673153,-0.124711,-0.3938219,-0.01214342,5.320304,0.3202373,-0.3526559,0.4741899,-0.2107264,-2.375013,2.498185,0.1123565,-0.3973632,-0.1913634,-1.09869,3.011751,1.724997,-0.7812872,1.359401,0.173874,295.5472,209.5499,51.86029
2,0.9666679,-0.2767715,0.1593092,-0.8271639,-1.076999,-1.683745,-0.1166326,-0.3937835,0.00365645,4.343105,0.3105102,-0.3589498,0.4369162,-0.2120025,-2.401874,2.521348,0.1070789,-0.3771182,-0.1891184,-1.101291,3.008005,1.725775,-0.7803963,1.36345,0.1766999,295.3444,209.1952,52.66011
2,0.977779,-0.2756223,0.1422152,-0.846289,-1.077083,-1.695051,-0.1082234,-0.3941761,-0.03592589,4.343105,0.2837738,-0.3961371,0.4038651,-0.2143829,-2.430387,2.546753,0.09774446,-0.3409737,-0.1676036,-1.103118,3.004869,1.726259,-0.7795606,1.367479,0.1795071,295.16,208.8765,53.46087
2,0.9888902,-0.2798344,0.1325821,-0.8537159,-1.0773,-1.706178,-0.09971088,-0.3939865,0.01758537,4.343105,0.2251215,-0.4025153,0.3891243,-0.2162929,-2.458452,2.573225,0.08738589,-0.3154941,-0.1375984,-1.104342,3.001807,1.726875,-0.7788044,1.371489,0.1822788,295.0078,208.504,54.30384
2,1.000001,-0.2957709,0.1217926,-0.8643184,-1.077407,-1.717309,-0.09062205,-0.3939641,0.00189659,4.343105,0.1835956,-0.3791116,0.3967964,-0.2169161,-2.48542,2.598679,0.0726116,-0.3005934,-0.1235739,-1.105778,2.998768,1.727901,-0.7781867,1.375508,0.1850555,294.8918,208.1058,55.11353
2,1.011112,-0.3106506,0.1163964,-0.8589659,-1.077742,-1.728047,-0.08165571,-0.3937835,0.01652046,4.343105,0.1356987,-0.3173838,0.4120682,-0.2157816,-2.50996,2.622343,0.05343211,-0.2898747,-0.1276557,-1.107868,2.995818,1.729115,-0.777656,1.379593,0.1879182,294.7911,207.7017,55.88593
2,1.022224,-0.3244684,0.1132042,-0.8280465,-1.078319,-1.737372,-0.07316875,-0.3932275,0.05073899,5.863192,0.10482,-0.2833215,0.4186729,-0.2153475,-2.53476,2.646284,0.02355063,-0.2663321,-0.1401343,-1.110377,2.993349,1.730769,-0.7771884,1.383786,0.1909077,294.6791,207.3222,56.66477
2,1.033335,-0.3372768,0.118559,-0.7950157,-1.079372,-1.74631,-0.06481069,-0.3931795,0.004015802,5.863192,0.07925129,-0.2769222,0.4145154,-0.2159643,-2.559582,2.670032,0.008548498,-0.2427838,-0.1580404,-1.112914,2.991482,1.731946,-0.7767835,1.388144,0.1940164,294.5597,206.991,57.47105
2,1.044446,-0.3563959,0.1121337,-0.7683508,-1.079986,-1.75518,-0.05615115,-0.3930911,0.008186623,5.863192,0.03989315,-0.2833735,0.4284696,-0.2168633,-2.587454,2.697645,0.009717792,-0.2268472,-0.1516055,-1.114896,2.989224,1.732568,-0.7763937,1.392673,0.1971573,294.3969,206.6369,58.40228
2,1.055557,-0.3754803,0.09821236,-0.7523151,-1.080193,-1.76423,-0.04721785,-0.3931289,-0.003450259,5.863192,0.02294978,-0.2898628,0.4572714,-0.2175472,-2.61859,2.728206,0.008891791,-0.2013671,-0.1280635,-1.115866,2.987707,1.733157,-0.7759954,1.397335,0.2001776,294.179,206.2395,59.4425
2,1.066668,-0.4093216,0.0565148,-0.7372577,-1.079376,-1.773016,-0.03757348,-0.3929121,0.0199476,5.211726,-0.01546431,-0.3164472,0.4360129,-0.2197507,-2.644769,2.754613,0.002785176,-0.1737755,-0.0970189,-1.116432,2.986417,1.734173,-0.7756942,1.402076,0.2029343,293.933,205.7148,60.60326
2,1.077779,-0.4187592,0.03197432,-0.7286475,-1.078875,-1.781861,-0.02856294,-0.3928237,0.007978227,5.211726,-0.05595893,-0.3207038,0.4318767,-0.2214855,-2.671058,2.781904,-0.004325598,-0.1504706,-0.058517,-1.116215,2.985175,1.735049,-0.7755298,1.406846,0.2053495,293.7422,205.0316,61.81842
2,1.08889,-0.4323996,-0.002138913,-0.709365,-1.077743,-1.790105,-0.01951351,-0.3921483,0.06177756,5.211726,-0.08792198,-0.3004742,0.4331244,-0.2223921,-2.696684,2.808677,-0.01058912,-0.1227876,-0.05090129,-1.1167,2.984484,1.735577,-0.7754912,1.411634,0.2074262,293.638,204.2233,63.0197
2,1.100002,-0.4462406,-0.02318352,-0.6825761,-1.076971,-1.798179,-0.01054718,-0.3929212,-0.07107856,5.211726,-0.1146004,-0.2887209,0.4204693,-0.2237513,-2.719421,2.832793,-0.02443679,-0.08966591,-0.06453325,-1.117708,2.98409,1.736218,-0.7756403,1.416465,0.2092026,293.623,203.3318,64.18145
2,1.111113,-0.4470938,-0.03621526,-0.6676987,-1.075996,-1.805685,-0.001832255,-0.3928642,0.006049236,5.211726,-0.1337578,-0.285544,0.4237396,-0.225362,-2.743903,2.858449,-0.0362597,-0.07894152,-0.07822358,-1.119076,2.983961,1.737124,-0.7757848,1.421321,0.2107843,293.6145,202.2859,65.39111
2,1.122224,-0.4555808,-0.03940845,-0.642091,-1.075563,-1.812746,0.006776147,-0.3929904,-0.01159245,4.777416,-0.1688869,-0.267469,0.4324401,-0.2263895,-2.768585,2.885371,-0.05132646,-0.07136477,-0.09938475,-1.12083,2.983542,1.738377,-0.7759219,1.426171,0.2122215,293.6031,201.2081,66.67027
2,1.133335,-0.4663242,-0.02768397,-0.6090739,-1.075169,-1.819226,0.01595446,-0.393122,-0.01183348,4.777416,-0.2126132,-0.2684954,0.4155349,-0.2283725,-2.789375,2.908964,-0.07481439,-0.05741432,-0.1108709,-1.122421,2.983463,1.739797,-0.7760019,1.430965,0.2135567,293.5826,200.1145,67.99156
2,1.144446,-0.4717434,-0.006337896,-0.5771506,-1.075649,-1.82521,0.02411759,-0.3931459,-0.00201561,4.777416,-0.2605618,-0.2706264,0.412497,-0.2303991,-2.811493,2.93471,-0.08969235,-0.04139559,-0.1106981,-1.123675,2.983621,1.741107,-0.7762073,1.435702,0.2148107,293.5697,199.1038,69.24872
2,1.155557,-0.4824095,-0.002040759,-0.5473217,-1.07598,-1.831301,0.03276327,-0.3924349,0.06514277,4.777416,-0.3338542,-0.2676312,0.4756234,-0.2318058,-2.844558,2.972714,-0.09274173,-0.02226283,-0.0978153,-1.124365,2.98404,1.742041,-0.7761354,1.440277,0.2158302,293.4235,198.4011,70.51785
2,1.166668,-0.5174482,-0.02352437,-0.5450862,-1.07555,-1.838025,0.0425946,-0.3932781,-0.07757029,4.777416,-0.3826463,-0.2657091,0.5375935,-0.2336045,-2.879929,3.012547,-0.09258769,0.01179235,-0.08915927,-1.124941,2.985285,1.742445,-0.7753656,1.444508,0.2161008,293.2881,197.9317,71.79565
2,1.17778,-0.5364683,-0.05242962,-0.5567071,-1.074534,-1.845432,0.05255695,-0.3930719,0.01968666,6.080348,-0.4112221,-0.2200906,0.5953627,-0.2340045,-2.915381,3.05242,-0.109549,0.04699294,-0.08782444,-1.125636,2.987155,1.74351,-0.7753087,1.448729,0.2159403,293.3326,197.0683,72.7058
2,1.188891,-0.5638205,-0.1154906,-0.5746167,-1.071934,-1.853397,0.06341785,-0.3922868,0.071633,6.080348,-0.4165686,-0.2115357,0.5858317,-0.2356594,-2.94255,3.083307,-0.1318346,0.07367332,-0.08541881,-1.126289,2.98894,1.744751,-0.7759621,1.453103,0.2156662,293.4614,196.1017,73.28411
2,1.200002,-0.5719159,-0.1879968,-0.5797271,-1.068368,-1.861185,0.07355757,-0.3925755,-0.02692106,6.080348,-0.4209597,-0.2337832,0.5463603,-0.2386277,-2.965045,3.10998,-0.1455187,0.08854309,-0.07674003,-1.126879,2.989822,1.745375,-0.7770317,1.457734,0.2155736,293.6598,195.1098,73.86961
2,1.211113,-0.5685467,-0.2188836,-0.5839034,-1.06561,-1.868844,0.08336972,-0.3921973,0.0350292,6.080348,-0.4263839,-0.2432932,0.518649,-0.2416195,-2.985834,3.134941,-0.1583085,0.09071393,-0.07769574,-1.127524,2.991138,1.746891,-0.7781633,1.462673,0.2158477,293.9002,194.1205,74.65889
2,1.222224,-0.562142,-0.219904,-0.5742942,-1.063735,-1.875719,0.09272274,-0.392992,-0.07292427,5.754614,-0.4424603,-0.2495977,0.4899211,-0.2446731,-3.005166,-3.124084,-0.1914093,0.09185888,-0.09020566,-1.128511,2.991688,1.74941,-0.779197,1.467957,0.2165565,294.1848,193.1759,75.6805
2,1.233335,-0.572759,-0.2209853,-0.5518802,-1.061912,-1.881741,0.1021264,-0.3935081,-0.0464202,5.754614,-0.4615074,-0.2220198,0.5252318,-0.2465325,-3.033017,-3.091594,-0.2266051,0.09943348,-0.09736586,-1.129593,2.99337,1.75217,-0.7800177,1.473513,0.2176524,294.4468,192.0974,77.07458
2,1.244446,-0.59297,-0.2231708,-0.5305517,-1.059964,-1.888047,0.1123023,-0.3937255,-0.01945433,5.754614,-0.4943821,-0.1859575,0.5744734,-0.2481981,-3.064599,-3.054513,-0.2243427,0.1036178,-0.0835333,-1.130076,2.994658,1.753698,-0.7806151,1.479224,0.2190347,294.5862,190.9328,78.70019
2,1.255558,-0.6228405,-0.2138373,-0.5486615,-1.058439,-1.895781,0.1237177,-0.3933436,0.03510859,5.754614,-0.5249599,-0.2017907,0.6609598,-0.2512075,-3.096395,-3.017469,-0.2112409,0.1355141,-0.0612189,-1.13007,2.99675,1.755005,-0.7811572,1.484979,0.2205554,294.6193,189.7664,80.41962
2,1.266669,-0.6387981,-0.2192892,-0.5603517,-1.056764,-1.903564,0.1349999,-0.3927614,0.05295605,5.754614,-0.5152228,-0.2034477,0.708717,-0.2555894,-3.135379,-2.973913,-0.2164992,0.1663124,-0.05246086,-1.129871,2.999789,1.756177,-0.7817815,1.490662,0.2220109,294.6452,188.7106,82.06982
2,1.27778,-0.6419277,-0.2278244,-0.5581879,-1.054927,-1.910839,0.1455194,-0.3923188,0.0401489,6.514658,-0.5055113,-0.2152757,0.7438011,-0.2600172,3.114025,-2.935913,-0.2268555,0.2088499,-0.02982849,-1.128775,3.003298,1.75715,-0.782551,1.496243,0.2232403,294.7523,187.8586,83.42479
2,1.288891,-0.6387514,-0.2235264,-0.551811,-1.053457,-1.918002,0.1560293,-0.3926288,-0.0284949,6.514658,-0.5013502,-0.1970716,0.7129525,-0.2630505,3.089904,-2.907265,-0.2288944,0.2066859,-0.01703783,-1.128225,3.005748,1.758689,-0.7834314,1.501803,0.2242191,294.9373,187.1597,84.44516
2,1.300002,-0.6377407,-0.2085445,-0.5241526,-1.052317,-1.923989,0.1659735,-0.3933499,-0.06551972,6.514658,-0.4919114,-0.1916071,0.6703247,-0.2665665,3.068118,-2.880999,-0.2362972,0.1917302,-0.003198188,-1.127717,3.007421,1.76097,-0.7843716,1.507422,0.2249503,295.1596,186.4671,85.35921
2,1.311113,-0.6314396,-0.1860582,-0.4901209,-1.051413,-1.929308,0.1753841,-0.3934906,-0.01232094,6.514658,-0.4814234,-0.2074147,0.6180461,-0.2706571,3.050174,-2.858637,-0.2383548,0.1991688,0.004305478,-1.12702,3.010061,1.762558,-0.7852646,1.513093,0.2254433,295.3971,185.6028,86.40465
2,1.322224,-0.6316066,-0.1551219,-0.4752964,-1.051412,-1.935051,0.1852426,-0.3935577,-0.005983555,5.320304,-0.4846572,-0.2180308,0.6063052,-0.2751109,3.030299,-2.834027,-0.2341904,0.1970708,-0.005331542,-1.127011,3.012598,1.764245,-0.786057,1.518752,0.2257171,295.6124,184.5238,87.66107
2,1.333336,-0.6424829,-0.1221419,-0.473264,-1.052028,-1.941345,0.1963261,-0.3938197,-0.02387118,5.320304,-0.4825103,-0.2265835,0.6094543,-0.2799233,3.010036,-2.809261,-0.2236284,0.1981624,-0.01712779,-1.127095,3.015199,1.765391,-0.7867527,1.524324,0.2257545,295.7892,183.3719,88.99809
2,1.344447,-0.6586081,-0.09878433,-0.4711645,-1.052485,-1.947169,0.2070533,-0.3936493,0.01577278,5.320304,-0.4696596,-0.247945,0.6274508,-0.2856208,2.988771,-2.783956,-0.2215643,0.208892,-0.0288117,-1.127016,3.018599,1.766467,-0.7874358,1.529759,0.2255543,295.9628,182.2314,90.28705
2,1.355558,-0.6597704,-0.08386246,-0.4722688,-1.05317,-1.953239,0.2174871,-0.3927428,0.08280063,5.320304,-0.4396558,-0.25661,0.675261,-0.2916342,2.963342,-2.75556,-0.2269131,0.2195831,-0.03512079,-1.127041,3.021682,1.767811,-0.78803,1.535058,0.2251606,296.1095,181.36,91.22575
2,1.366669,-0.6534506,-0.06673042,-0.4499263,-1.053651,-1.958018,0.2268108,-0.3928844,-0.01357576,5.320304,-0.443809,-0.2449899,0.7051488,-0.2972269,2.939069,-2.727276,-0.2289584,0.2227613,-0.02443719,-1.126432,3.024654,1.769268,-0.7884015,1.540357,0.2245999,296.2705,180.7534,91.86277
2,1.37778,-0.6567204,-0.05176234,-0.4265307,-1.054456,-1.96274,0.2366091,-0.3934474,-0.05118591,4.777416,-0.4546336,-0.2405738,0.6561966,-0.3018981,2.924378,-2.707901,-0.2257373,0.2344811,-0.02440945,-1.126019,3.027993,1.770308,-0.7888967,1.54581,0.2240166,296.4958,179.809,92.78304
2,1.388891,-0.6609948,-0.04750915,-0.4169537,-1.055055,-1.967813,0.246573,-0.3940456,-0.05421156,4.777416,-0.4589641,-0.2351861,0.6444897,-0.3068883,2.907917,-2.686669,-0.218217,0.2386975,-0.01912817,-1.125627,3.030964,1.771057,-0.7894768,1.551415,0.2234984,296.7218,178.649,93.93939
2,1.400002,-0.66633,-0.04538471,-0.4094986,-1.055707,-1.97284,0.2566296,-0.3936285,0.03856201,4.777416,-0.4398876,-0.2585232,0.6145198,-0.3127201,2.895039,-2.670032,-0.1967376,0.2289552,0.006245326,-1.124328,3.033213,1.771687,-0.790099,1.557008,0.2230472,296.9188,177.3373,95.34292
2,1.411114,-0.663148,-0.04430987,-0.4137461,-1.056472,-1.977977,0.2664109,-0.3936125,0.001145627,4.777416,-0.4346524,-0.2861257,0.5856519,-0.3188182,2.884129,-2.655046,-0.1869724,0.226716,0.03066606,-1.122913,3.035846,1.772532,-0.7906444,1.562494,0.2226474,297.1022,176.2178,96.56868
2,1.422225,-0.6608993,-0.06459297,-0.424316,-1.056433,-1.983562,0.2763922,-0.3935481,0.005944665,4.777416,-0.4346889,-0.3063288,0.5738687,-0.3252391,2.873248,-2.639837,-0.1935115,0.2257433,0.01153559,-1.122795,3.038671,1.773638,-0.7910975,1.56784,0.2223107,297.3085,175.2345,97.66467
2,1.433336,-0.6598452,-0.08167095,-0.4337159,-1.05682,-1.989355,0.2865846,-0.3939098,-0.03307603,5.211726,-0.4227909,-0.3000891,0.6164777,-0.3320158,2.85587,-2.619199,-0.2185986,0.2207702,-0.06286485,-1.124756,3.041757,1.775348,-0.7914643,1.573067,0.2220224,297.5082,174.3893,98.64605
2,1.444447,-0.6553811,-0.09868982,-0.4380471,-1.056577,-1.995053,0.2963885,-0.3939902,-0.007050824,5.211726,-0.4163475,-0.3118446,0.6281397,-0.3388436,2.842314,-2.601958,-0.2286135,0.210346,-0.1150303,-1.126779,3.044587,1.776912,-0.7917956,1.578179,0.2217872,297.7335,173.5231,99.66025
2,1.455558,-0.6436876,-0.09649491,-0.4465799,-1.057343,-2.000946,0.3061384,-0.3938916,0.009022574,5.211726,-0.4111157,-0.3234722,0.600386,-0.3452836,2.833189,-2.588927,-0.2504386,0.208535,-0.1819874,-1.129849,3.047925,1.778764,-0.792133,1.583178,0.2216155,297.9987,172.7185,100.6117
2,1.466669,-0.6341342,-0.09009413,-0.4551306,-1.058081,-2.006989,0.315857,-0.3942219,-0.03028615,5.211726,-0.3983752,-0.3074519,0.5854781,-0.3510675,2.822895,-2.575266,-0.2634181,0.2118715,-0.208511,-1.132088,3.051296,1.78053,-0.7924902,1.588128,0.2215133,298.2421,172.0949,101.3693
2,1.47778,-0.6288816,-0.07728006,-0.4551721,-1.059163,-2.012699,0.3254942,-0.3943859,-0.01475419,5.103148,-0.4049106,-0.2668486,0.547281,-0.3553839,2.813435,-2.561727,-0.2836172,0.2119006,-0.2030292,-1.133693,3.054336,1.782932,-0.7928296,1.593082,0.2214684,298.4857,171.5818,102.0187
2,1.488891,-0.6267747,-0.07197787,-0.4637055,-1.060204,-2.018637,0.3352387,-0.3944584,-0.006492567,5.103148,-0.427404,-0.277381,0.5057861,-0.3608354,2.808145,-2.551532,-0.2961455,0.2128653,-0.1688433,-1.134042,3.057158,1.785524,-0.7931749,1.598091,0.221522,298.7329,170.9406,102.7723
2,1.500003,-0.6289459,-0.06343676,-0.4530753,-1.061343,-2.023905,0.3448407,-0.3943268,0.01198692,5.103148,-0.4648353,-0.2644753,0.4654785,-0.3652483,2.803067,-2.540567,-0.317965,0.2137058,-0.09729469,-1.132541,3.059508,1.788674,-0.7935306,1.603131,0.2217202,298.9886,170.1298,103.7113
2,1.511114,-0.6279747,-0.04314637,-0.431811,-1.062706,-2.028069,0.3537163,-0.3942677,0.005297853,5.103148,-0.520381,-0.2217423,0.4210878,-0.3684867,2.796873,-2.527645,-0.3409617,0.2082188,-0.03961572,-1.131017,3.061668,1.791972,-0.7939403,1.60819,0.2220507,299.2186,169.3136,104.7158
2,1.522225,-0.61736,-0.03231531,-0.3924477,-1.063803,-2.031744,0.3622562,-0.394044,0.02041554,5.103148,-0.5556378,-0.188641,0.3946869,-0.3716143,2.790704,-2.514709,-0.3740088,0.1955134,-0.03834647,-1.13093,3.063756,1.796134,-0.7944246,1.613241,0.2224911,299.4481,168.5331,105.7306
2,1.533336,-0.6099129,-0.02472137,-0.3509174,-1.06455,-2.034577,0.3702508,-0.3941851,-0.01309812,5.646037,-0.5866555,-0.1320866,0.363022,-0.3736489,2.783567,-2.500949,-0.4082417,0.2010263,-0.06045116,-1.13198,3.066836,1.799976,-0.7950192,1.618235,0.2229638,299.65,167.731,106.8202
2,1.544447,-0.5917894,-0.02238464,-0.3200235,-1.065426,-2.037366,0.3776202,-0.3942762,-0.008236828,5.646037,-0.6047829,-0.0916039,0.3610848,-0.3759595,2.774883,-2.485648,-0.4211124,0.2149696,-0.07627785,-1.132613,3.07012,1.803617,-0.795757,1.623084,0.223349,299.8034,166.9014,107.9699
2,1.555558,-0.5788633,-0.04786222,-0.3157076,-1.065623,-2.041574,0.3859618,-0.3943827,-0.00971508,5.646037,-0.6302384,0.007340759,0.3923997,-0.3771505,2.759144,-2.463704,-0.4021029,0.2341972,-0.102981,-1.133629,3.074027,1.805962,-0.796612,1.627687,0.2235014,299.9625,166.1529,109.0195
2,1.566669,-0.5243188,-0.08702641,-0.3380051,-1.065507,-2.046884,0.3929547,-0.394934,-0.05036879,5.646037,-0.6737832,0.04768869,0.4278574,-0.3797455,2.744669,-2.441819,-0.3913477,0.2437201,-0.09236759,-1.133596,3.077357,1.808657,-0.7976733,1.63201,0.2233705,300.1663,165.4388,109.9007
2,1.577781,-0.4910714,-0.1262502,-0.3389854,-1.064804,-2.051911,0.4000718,-0.3946208,0.02901738,5.863192,-0.6661637,0.03902358,0.4725441,-0.3838483,2.731107,-2.42195,-0.4059963,0.2788318,-0.06974094,-1.132753,3.081789,1.811652,-0.7988357,1.636006,0.222958,300.3972,164.8658,110.5042
2,1.588892,-0.4354068,-0.1717162,-0.3346236,-1.063425,-2.056846,0.4058167,-0.3963183,-0.1556211,5.863192,-0.6163611,0.04355052,0.3914491,-0.3851373,2.725719,-2.41169,-0.4440247,0.3193007,-0.04052481,-1.131362,3.086752,1.815558,-0.8000369,1.639728,0.2223592,300.7226,164.4965,110.8004
2,1.600003,-0.3820763,-0.1798734,-0.3144055,-1.062662,-2.060927,0.4106903,-0.3960318,0.02740078,5.863192,-0.5997573,0.02264377,0.2688119,-0.3852572,2.726414,-2.406159,-0.4575582,0.3479962,-0.009394899,-1.129402,3.091606,1.818819,-0.8013319,1.643267,0.221819,301.1682,164.0932,111.0199
2,1.611114,-0.3490493,-0.1743466,-0.2952381,-1.061751,-2.064253,0.4152297,-0.3970166,-0.09064889,5.863192,-0.5882264,-0.0006124675,0.2154334,-0.3863863,2.725281,-2.398749,-0.4542759,0.3607432,-0.001912884,-1.128223,3.096185,1.8218,-0.8026711,1.646631,0.2215024,301.5836,163.7451,111.2208
2,1.622225,-0.3139834,-0.1548909,-0.26763,-1.061578,-2.067187,0.4192204,-0.3972446,-0.02027162,5.863192,-0.5703252,-0.01532954,0.1567343,-0.3869397,2.726175,-2.393709,-0.4414175,0.3692985,-0.004059866,-1.126746,3.101391,1.823206,-0.8040482,1.649777,0.221515,301.9637,163.3924,111.5426
2,1.633336,-0.2916254,-0.1451268,-0.2441825,-1.06078,-2.069248,0.4225606,-0.3968456,0.03630137,6.297503,-0.5683253,-0.01841423,0.1226206,-0.3876604,2.724824,-2.386115,-0.4296119,0.3735438,-0.006238081,-1.125663,3.105635,1.824576,-0.8055598,1.652667,0.2218823,302.226,163.0307,112.0168
2,1.644447,-0.2713039,-0.1545352,-0.2249924,-1.059779,-2.072315,0.4264823,-0.3967918,0.004311183,6.297503,-0.5800813,-0.006668389,0.1131128,-0.3881845,2.722517,-2.37722,-0.4349367,0.3810247,-0.00829906,-1.124691,3.110474,1.827594,-0.8071925,1.65521,0.2225223,302.366,162.7919,112.4858
2,1.655559,-0.2499523,-0.1575005,-0.1887851,-1.058577,-2.074438,0.4298629,-0.3966725,0.01067238,6.297503,-0.5982879,0.03923863,0.1025544,-0.3865429,2.718725,-2.365821,-0.4413222,0.3927721,-0.01139916,-1.123695,3.115566,1.830471,-0.809091,1.657476,0.2233231,302.3876,162.741,112.832
2,1.66667,-0.2212105,-0.1486894,-0.14943,-1.057733,-2.076004,0.4324467,-0.3962475,0.03852353,6.297503,-0.6057975,0.05522195,0.09729236,-0.3867501,2.714653,-2.354771,-0.4435209,0.3970821,-0.02096412,-1.123105,3.120625,1.833347,-0.8112642,1.659479,0.224107,302.3768,162.8684,113.0448
2,1.677781,-0.1936227,-0.1238907,-0.1037229,-1.057051,-2.076538,0.4343286,-0.3959977,0.02230238,8.2519,-0.5994493,0.08508599,0.08671324,-0.3860369,2.710235,-2.344137,-0.4522376,0.3885309,-0.0370264,-1.124054,3.124132,1.837521,-0.8136862,1.661219,0.2247609,302.4163,163.0631,113.1425
2,1.688892,-0.1702802,-0.1023387,-0.0675834,-1.05649,-2.076659,0.4357075,-0.3962352,-0.02207506,8.2519,-0.5803649,0.1022253,0.06324452,-0.3848087,2.707242,-2.335393,-0.4552804,0.4215353,-0.02835917,-1.122711,3.130144,1.840034,-0.8161713,1.662659,0.225177,302.4615,163.2598,113.1232
2,1.700003,-0.1343596,-0.04337569,-0.01345895,-1.05693,-2.07486,0.4354274,-0.3961926,0.003930756,8.2519,-0.6042534,0.08666369,-0.06561083,-0.3815404,2.714005,-2.334313,-0.4381151,0.4544247,-0.01670386,-1.121558,3.136163,1.842318,-0.8187513,1.663854,0.2253391,302.5092,163.3325,113.1007
2,1.711114,-0.1133332,0.0079671,0.01514857,-1.057736,-2.073107,0.4354069,-0.3962097,-0.001828644,8.2519,-0.6160741,0.08036041,-0.09646671,-0.3798632,2.715725,-2.328838,-0.4284357,0.4778292,-0.01242595,-1.120021,-3.140654,1.844043,-0.8214372,1.664843,0.2252327,302.5375,163.3392,113.0751
2,1.722225,-0.09331875,0.04861936,0.03312164,-1.058687,-2.071696,0.4354284,-0.3966395,-0.03946603,8.2519,-0.6311115,0.03679186,-0.1327483,-0.3790179,2.721094,-2.326413,-0.4167082,0.5161583,-0.0198598,-1.118944,-3.133381,1.845492,-0.8242394,1.66565,0.2248613,302.5412,163.3086,113.0367
2,1.733337,-0.08170439,0.06571976,0.02879933,-1.059672,-2.070903,0.4356537,-0.3961537,0.04453974,12.05212,-0.6374771,0.03783208,-0.1252652,-0.3778642,2.72249,-2.320465,-0.409214,0.5406866,-0.02299681,-1.117244,-3.125886,1.846749,-0.827094,1.666244,0.2242408,302.5229,163.1501,113.0323
2,1.744448,-0.07111426,0.07430211,0.02983526,-1.060308,-2.070005,0.4360335,-0.3959439,0.01857605,12.05212,-0.6373677,0.0377484,-0.09540839,-0.3773279,2.721254,-2.312363,-0.4156266,0.555653,-0.03033984,-1.115888,-3.11868,1.848405,-0.8300304,1.666628,0.2234952,302.5361,162.9107,112.9971
2,1.755559,-0.05623606,0.08405724,0.05642297,-1.060851,-2.068074,0.4353975,-0.395783,0.01440735,12.05212,-0.6139641,0.03032625,-0.1051031,-0.3762674,2.723433,-2.308107,-0.4391926,0.5622169,-0.04716729,-1.114797,-3.110945,1.850868,-0.8331319,1.666961,0.2227481,302.5464,162.8251,112.7753
2,1.76667,-0.03498727,0.09809196,0.07873009,-1.061456,-2.065994,0.434181,-0.3953479,0.03951789,12.05212,-0.597056,0.04750359,-0.1455708,-0.373724,2.726433,-2.304934,-0.4488136,0.5696694,-0.04379021,-1.112615,-3.104025,1.853752,-0.8363819,1.667346,0.2221301,302.5669,162.8468,112.4616
2,1.777781,-0.01486244,0.1152506,0.07970583,-1.06259,-2.064617,0.4334913,-0.3956222,-0.0255428,12.05212,-0.5919482,0.005092978,-0.2085774,-0.3714801,2.735829,-2.307275,-0.4507636,0.5866483,-0.02559787,-1.110476,-3.096645,1.855527,-0.8397294,1.667861,0.2217102,302.5616,162.8995,112.1839
2,1.788892,-0.006410513,0.1259567,0.07966287,-1.06376,-2.062946,0.4326987,-0.3959636,-0.03107748,16.28664,-0.5963844,0.0009921789,-0.2575767,-0.3685986,2.743462,-2.307566,-0.4602628,0.6015527,-0.01799035,-1.108379,-3.089144,1.857494,-0.8430578,1.668418,0.2214713,302.5223,162.7957,112.1822
2,1.800003,0.01908529,0.1356774,0.07533456,-1.065014,-2.061596,0.4313341,-0.3955945,0.03380044,16.28664,-0.5974858,0.0116753,-0.2671266,-0.3659066,2.74863,-2.305712,-0.475071,0.6047348,-0.005080417,-1.106194,-3.081881,1.859943,-0.8463525,1.668908,0.2213726,302.4624,162.5962,112.3607
2,1.811115,0.03400986,0.1336206,0.06999759,-1.066084,-2.060339,0.4298949,-0.3953084,0.0256708,16.28664,-0.5931426,0.05210114,-0.2435809,-0.3631343,2.748423,-2.299089,-0.4835792,0.6089728,-0.0007279068,-1.104122,-3.074796,1.862533,-0.84962,1.669324,0.2214208,302.3894,162.465,112.4535
2,1.822226,0.0468284,0.1283127,0.06256718,-1.066331,-2.059036,0.4283087,-0.3958224,-0.04726717,16.28664,-0.6037793,0.1415442,-0.234724,-0.3589126,2.744452,-2.288429,-0.4995731,0.6228853,-0.006942794,-1.102251,-3.066939,1.864988,-0.8529142,1.669701,0.2216226,302.3025,162.3756,112.4882
2,1.833337,0.04897258,0.12511,0.05618335,-1.067338,-2.057956,0.4271777,-0.3957953,0.002746544,19.10966,-0.6239983,0.1511083,-0.2282291,-0.3557983,2.744527,-2.281012,-0.4985165,0.6324903,-0.01223104,-1.100381,-3.059064,1.866815,-0.8563559,1.670116,0.2219929,302.2043,162.3231,112.5028
2,1.844448,0.05210779,0.1335775,0.04656947,-1.067883,-2.056899,0.426007,-0.3956909,0.009333046,19.10966,-0.6398775,0.1691203,-0.2025476,-0.35323,2.743312,-2.272538,-0.4976795,0.6283417,-0.04102318,-1.099515,-3.051299,1.868811,-0.8597959,1.67048,0.2224753,302.0589,162.4002,112.4607
2,1.855559,0.0605876,0.1389344,0.04118963,-1.069307,-2.056217,0.4249185,-0.3951375,0.05036958,19.10966,-0.6227629,0.1413687,-0.1845862,-0.351418,2.744104,-2.266774,-0.4871315,0.6284762,-0.06452305,-1.098556,-3.043002,1.869822,-0.8631135,1.670733,0.2229633,301.9112,162.5836,112.3802
2,1.86667,0.06175815,0.1207592,0.02529586,-1.069757,-2.055589,0.4237877,-0.3949734,0.01445166,19.10966,-0.6099491,0.1221515,-0.1782901,-0.3496555,2.745905,-2.262183,-0.4775166,0.6433951,-0.0677492,-1.09718,-3.034497,1.870966,-0.8664317,1.670915,0.2234476,301.8419,162.5724,112.441
2,1.877781,0.06614155,0.09834319,-0.0002438463,-1.07088,-2.056631,0.4233105,-0.3949351,0.003344169,19.10966,-0.5833097,0.03693968,-0.1807832,-0.3492357,2.753735,-2.263743,-0.4666823,0.6699257,-0.05068929,-1.094897,-3.025683,1.871943,-0.8696991,1.670909,0.2239728,301.833,162.3667,112.5973
2,1.888893,0.06409045,0.08657525,-0.002314238,-1.07097,-2.056112,0.42229,-0.3948845,0.004521026,19.4354,-0.5631446,-0.04604626,-0.2056076,-0.3484896,2.764492,-2.268005,-0.456904,0.6740796,-0.02836908,-1.092335,-3.017538,1.872986,-0.8732435,1.670965,0.2245633,301.6864,162.3809,112.5721
2,1.900004,0.06636734,0.06422739,0.003042063,-1.071133,-2.05655,0.4215859,-0.3949154,-0.00294076,19.4354,-0.5407885,-0.0481599,-0.2099567,-0.3470109,2.770439,-2.268226,-0.4494047,0.6825082,-0.02313089,-1.090733,-3.009704,1.874113,-0.8770047,1.671159,0.2251065,301.514,162.7428,112.297
2,1.911115,0.06325138,0.05143494,0.006281015,-1.071265,-2.056273,0.4208269,-0.3946107,0.02779551,19.4354,-0.504568,-0.03962129,-0.2047119,-0.345347,2.77334,-2.266034,-0.4419299,0.682488,-0.0210632,-1.088684,-3.001361,1.875001,-0.8808182,1.67146,0.2256705,301.4575,162.9916,112.0619
2,1.922226,0.04628134,0.03535026,0.004172398,-1.071473,-2.056935,0.4214793,-0.3946315,-0.002173574,19.4354,-0.46722,-0.01620069,-0.1877134,-0.3437017,2.774683,-2.263105,-0.4249422,0.6578713,-0.02027595,-1.087464,-2.994863,1.875982,-0.8844714,1.671724,0.2261889,301.4039,163.0937,112.001
2,1.933337,0.02515745,0.005330898,-0.004285491,-1.070747,-2.058559,0.4224152,-0.3942837,0.03179243,19.54397,-0.4415335,0.03269756,-0.1535622,-0.3419951,2.772587,-2.256922,-0.4143847,0.6302069,-0.03005153,-1.086144,-2.987773,1.876677,-0.8878958,1.671915,0.2266653,301.3737,163.1787,111.9294
2,1.944448,0.02201278,-0.003210198,-0.00531164,-1.070591,-2.058555,0.4221955,-0.3932679,0.09258546,19.54397,-0.4585426,0.05611706,-0.1427611,-0.3401581,2.771917,-2.250694,-0.3995945,0.6121064,-0.04082318,-1.084465,-2.980751,1.877365,-0.8912437,1.67215,0.2271313,301.3533,163.2903,111.7663
2,1.955559,0.008239557,-0.01932475,-0.02231926,-1.07051,-2.059931,0.4231987,-0.3933883,-0.01176509,19.54397,-0.4637713,0.09863964,-0.1149081,-0.3383242,2.76786,-2.241576,-0.3899932,0.5950088,-0.03350615,-1.082767,-2.974063,1.878304,-0.8945515,1.672576,0.227651,301.3364,163.4961,111.5097
2,1.966671,0.007270001,-0.03534798,-0.03290283,-1.069884,-2.060686,0.423409,-0.3938543,-0.04237339,19.54397,-0.4465851,0.1155573,-0.07548817,-0.3375269,2.763355,-2.232794,-0.3782119,0.5800195,-0.01979372,-1.080666,-2.967474,1.879189,-0.8976173,1.673102,0.22814,301.3436,163.6943,111.419
2,1.977782,0.006211881,-0.03749259,-0.0350339,-1.069697,-2.061458,0.4237798,-0.3933915,0.04270041,19.54397,-0.4188025,0.1282687,-0.052113,-0.3365192,2.759342,-2.225076,-0.3664777,0.5671818,-0.01354118,-1.078823,-2.961052,1.879907,-0.9004756,1.673719,0.2285525,301.3268,163.7345,111.5004
2,1.988893,0.005160252,-0.03747299,-0.02756983,-1.069354,-2.06164,0.4237294,-0.3938746,-0.04453029,20.19544,-0.3964122,0.1580914,-0.04676652,-0.3346049,2.753891,-2.216068,-0.3377917,0.5458167,-0.01703161,-1.077412,-2.954892,1.880017,-0.9030694,1.674366,0.2288509,301.358,163.7107,111.6341
2,2.000004,0.01582267,-0.03630218,-0.01693295,-1.069129,-2.061728,0.4231848,-0.393816,0.005785407,20.19544,-0.3911364,0.107006,-0.06186449,-0.3338326,2.756218,-2.214046,-0.309074,0.5052336,-0.008898512,-1.075945,-2.949848,1.880454,-0.905587,1.675043,0.2290897,301.4716,163.4953,111.8977
2,2.011115,0.02542476,-0.03834932,-0.006261641,-1.068402,-2.061521,0.4226874,-0.3939572,-0.0129842,20.19544,-0.3633692,0.07499108,-0.04502612,-0.3338725,2.757068,-2.211558,-0.2930918,0.4892055,-0.004821591,-1.074348,-2.944405,1.880654,-0.9081249,1.675725,0.2292765,301.5487,163.2615,112.1768
2,2.022226,0.04570024,-0.04031765,0.006512262,-1.06794,-2.061498,0.4215025,-0.394419,-0.0421077,20.19544,-0.3304451,0.01436502,-0.07303663,-0.3334863,2.762543,-2.213865,-0.2802948,0.4774294,0.001422942,-1.072679,-2.938947,1.880919,-0.9107658,1.676358,0.2294216,301.6213,163.0305,112.4341
2,2.033337,0.05845371,-0.0338235,0.01287351,-1.067549,-2.061185,0.4203195,-0.3942485,0.01591098,19.86971,-0.3113605,-0.01111138,-0.09875481,-0.3324893,2.767617,-2.215712,-0.2759803,0.4528495,0.01518066,-1.070601,-2.934597,1.881646,-0.9134794,1.676834,0.2295674,301.7086,162.8186,112.6174
2,2.044448,0.08080254,-0.02724092,0.03092713,-1.067128,-2.060734,0.4186055,-0.3949414,-0.06356059,19.86971,-0.2954693,-0.03658664,-0.1233813,-0.3315859,2.772573,-2.217445,-0.267555,0.4272861,0.007586114,-1.069276,-2.930233,1.882011,-0.9162042,1.677048,0.2297372,301.7826,162.7008,112.6901
2,2.055559,0.07973385,-0.02935474,0.04479672,-1.066112,-2.05994,0.4177988,-0.3947912,0.01423701,19.86971,-0.2902003,-0.007775038,-0.1382218,-0.329661,2.774605,-2.216299,-0.2624197,0.4081668,-0.009587333,-1.068637,-2.92554,1.882694,-0.9190999,1.677077,0.2299902,301.8157,162.6912,112.6491
2,2.06667,0.07872974,-0.03895078,0.04483381,-1.065237,-2.059699,0.4168071,-0.3951156,-0.02993734,19.86971,-0.2815899,0.04115877,-0.1157209,-0.3280503,2.771188,-2.210287,-0.2496613,0.4017532,-0.01500367,-1.067474,-2.921064,1.882576,-0.9220613,1.676884,0.2303211,301.7783,162.8499,112.4513
2,2.077781,0.07670452,-0.05708248,0.04277039,-1.063952,-2.059689,0.4160672,-0.3939902,0.1030988,19.86971,-0.2804656,0.04217222,-0.09974212,-0.3271906,2.771107,-2.207125,-0.2165222,0.4154848,-0.004542455,-1.065602,-2.915534,1.881503,-0.9250402,1.676494,0.230717,301.6757,163.1352,112.181
2,2.088892,0.07891671,-0.06876016,0.05026853,-1.062656,-2.059313,0.4148891,-0.3942661,-0.02615484,19.32682,-0.2888925,0.06552362,-0.07406253,-0.3263858,2.768572,-2.201327,-0.2037662,0.4122503,-0.008872192,-1.064186,-2.910979,1.881021,-0.9278628,1.675886,0.2309969,301.5127,163.6412,111.8093
2,2.100003,0.09176731,-0.07825876,0.05563014,-1.061196,-2.058866,0.4132086,-0.394151,0.01080983,19.32682,-0.2877485,0.06758508,-0.05275389,-0.325882,2.766536,-2.196222,-0.185765,0.3983951,-0.01865352,-1.063349,-2.906344,1.880394,-0.9307252,1.675305,0.2311604,301.4359,164.1652,111.312
2,2.111114,0.1055597,-0.06742282,0.08329491,-1.060164,-2.057198,0.4110855,-0.3943646,-0.01963612,19.32682,-0.2717357,0.04093152,-0.04437231,-0.3258047,2.767533,-2.194582,-0.1816098,0.3771212,-0.02837021,-1.062909,-2.902163,1.880118,-0.9335798,1.674834,0.2312358,301.4337,164.5963,110.7958
2,2.122225,0.1118443,-0.04707121,0.1055957,-1.059469,-2.055327,0.408755,-0.3948046,-0.04012051,19.32682,-0.2408103,0.04304789,-0.03702053,-0.3252146,2.76633,-2.191627,-0.177643,0.3217811,-0.04567033,-1.063182,-2.899573,1.881004,-0.9362227,1.674404,0.2312593,301.4591,164.832,110.4515
2,2.133336,0.1117321,-0.02346601,0.1555914,-1.058624,-2.051889,0.4059435,-0.3946187,0.01727705,19.32682,-0.2238913,0.0314416,-0.07121085,-0.323834,2.769107,-2.192217,-0.1810518,0.2664584,-0.05651632,-1.063415,-2.897186,1.881961,-0.9387911,1.674046,0.2312403,301.4755,164.9337,110.2999
2,2.144447,0.1040434,0.01923816,0.1906125,-1.058968,-2.048133,0.4030684,-0.3946165,-2.902599E-05,17.91531,-0.2122411,0.0283173,-0.09150122,-0.3224369,2.771143,-2.192123,-0.1832525,0.2355661,-0.05555817,-1.06344,-2.89508,1.883036,-0.9413928,1.673789,0.2311926,301.4498,164.9751,110.1949
2,2.155558,0.09859701,0.04165249,0.2139803,-1.058787,-2.044445,0.4003248,-0.394265,0.03206363,17.91531,-0.1953017,0.006040722,-0.1203996,-0.32106,2.776287,-2.195338,-0.1800575,0.2142287,-0.04717993,-1.063348,-2.89257,1.883927,-0.9439207,1.673484,0.2310901,301.4059,164.9187,110.1998
2,2.166669,0.1005598,0.06728723,0.2245569,-1.059144,-2.040741,0.3975537,-0.394094,0.01535573,17.91531,-0.2220437,-0.01410589,-0.1501977,-0.3194749,2.782861,-2.19831,-0.1788938,0.205642,-0.03124573,-1.062657,-2.890305,1.884798,-0.9463704,1.673032,0.2308763,301.3196,164.8271,110.2289
2,2.17778,0.0995437,0.05659959,0.2150113,-1.058581,-2.038283,0.395423,-0.3939667,0.01149411,17.91531,-0.2272481,0.05289672,-0.1158716,-0.3177561,2.777501,-2.19054,-0.1636621,0.2278187,0.007051129,-1.060865,-2.88716,1.885073,-0.9488617,1.672469,0.230534,301.1883,164.7537,110.1993
2,2.188891,0.1050515,0.0267657,0.2044466,-1.057311,-2.036519,0.3931614,-0.3939747,-0.0008126541,16.28664,-0.2314505,0.07628573,-0.09981157,-0.3162882,2.774644,-2.185212,-0.1443146,0.2426151,0.02507798,-1.059134,-2.884013,1.884595,-0.9513887,1.671768,0.2300378,301.0816,164.7515,110.0746
2,2.200002,0.1137409,-0.0009022802,0.196007,-1.055916,-2.034727,0.3907499,-0.3939502,0.002258186,16.28664,-0.2313727,0.0943269,-0.0784474,-0.3151542,2.771043,-2.179201,-0.1217783,0.2360604,0.05149432,-1.057327,-2.881781,1.884458,-0.9539145,1.670936,0.2294203,301.0001,164.8227,109.8063
2,2.211113,0.1170056,-0.01474428,0.1896652,-1.054776,-2.032738,0.388519,-0.3944077,-0.04182916,16.28664,-0.2205494,0.1197543,-0.03260629,-0.3146189,2.764837,-2.171185,-0.1315323,0.2223076,0.03447525,-1.056686,-2.879448,1.885124,-0.956427,1.670053,0.2287375,300.984,165.0753,109.3312
2,2.222224,0.1160109,-0.02756059,0.1822414,-1.053538,-2.031234,0.3865653,-0.3945537,-0.01303451,16.28664,-0.2215449,0.1399331,-0.01336204,-0.3137491,2.758379,-2.162548,-0.1339418,0.2149828,0.002492655,-1.056981,-2.87663,1.885606,-0.9588404,1.669143,0.2280841,301.0472,165.3563,108.8035
2,2.233335,0.10114,-0.03946358,0.1535272,-1.052532,-2.030597,0.3856907,-0.3942309,0.02954205,16.28664,-0.2140699,0.1463222,-0.01229589,-0.3126897,2.753707,-2.156133,-0.1191385,0.2011233,-0.005135182,-1.056566,-2.874526,1.88569,-0.9611623,1.668244,0.2275574,301.1072,165.5452,108.3731
2,2.244446,0.08418871,-0.05885834,0.1195052,-1.05137,-2.030737,0.3852459,-0.3941175,0.01008309,14.00651,-0.2056032,0.1080321,-0.02949116,-0.3119781,2.754757,-2.155161,-0.1170586,0.196878,-0.01049429,-1.056181,-2.872193,1.885769,-0.9633577,1.667352,0.227196,301.1077,165.6985,108.0452
2,2.255557,0.07895753,-0.07817222,0.08761621,-1.050086,-2.031069,0.3846419,-0.3934608,0.06000442,14.00651,-0.1864659,0.07504334,-0.04032081,-0.3114226,2.756351,-2.15513,-0.1213337,0.2022317,-0.01470891,-1.055758,-2.869458,1.885879,-0.9655161,1.666544,0.2270175,301.0997,165.9128,107.7259
2,2.266668,0.07367738,-0.08783522,0.07273638,-1.048892,-2.031035,0.3839549,-0.3933899,0.00598295,14.00651,-0.1555867,0.05908451,-0.04582466,-0.3105789,2.756854,-2.154767,-0.124632,0.2108283,-0.03063468,-1.055738,-2.866239,1.885829,-0.9675755,1.665879,0.2270412,301.0868,166.2526,107.3131
2,2.277779,0.05776816,-0.1007584,0.06000486,-1.047436,-2.031328,0.3838832,-0.3937079,-0.02899184,14.00651,-0.1215358,0.03674944,-0.05667514,-0.3099302,2.759353,-2.156823,-0.1204121,0.2150924,-0.03598667,-1.055592,-2.863404,1.885744,-0.9695003,1.665451,0.2272511,301.0819,166.6573,106.9024
2,2.28889,0.04191417,-0.1222094,0.04622913,-1.045631,-2.032122,0.3842057,-0.3936919,0.001731971,13.5722,-0.1024294,0.003797129,-0.07603,-0.3091653,2.763778,-2.160338,-0.1097949,0.2108156,-0.03927293,-1.055332,-2.860884,1.885393,-0.9712785,1.665271,0.2276252,301.1019,166.9061,106.7161
2,2.300001,0.03241473,-0.1372118,0.03455963,-1.043973,-2.032969,0.3844683,-0.393285,0.03716686,13.5722,-0.09815197,-0.01006509,-0.07182898,-0.3088388,2.766413,-2.161843,-0.1023561,0.1958712,-0.03513251,-1.055068,-2.858799,1.88546,-0.9729631,1.665293,0.2281061,301.1205,166.9697,106.7721
2,2.311112,0.03247632,-0.1489273,0.03246401,-1.042207,-2.033458,0.3844475,-0.3931758,0.00977805,13.5722,-0.101328,-0.01433899,-0.06651036,-0.3084031,2.767974,-2.162068,-0.0959879,0.1862668,-0.0352208,-1.054922,-2.856702,1.885328,-0.9745276,1.665444,0.2286293,301.1619,167.0082,106.8736
2,2.322223,0.03675598,-0.1510203,0.0356569,-1.040485,-2.033768,0.38403,-0.3933494,-0.01585599,13.5722,-0.1108655,0.01650977,-0.05252754,-0.3076574,2.765543,-2.158247,-0.09071185,0.1681364,-0.03426655,-1.054858,-2.855073,1.885607,-0.9760531,1.665707,0.2291495,301.245,167.0533,106.9659
2,2.333334,0.03788894,-0.1627306,0.03355215,-1.038594,-2.034504,0.3839852,-0.3935539,-0.01850949,13.5722,-0.1150803,0.04630092,-0.03962861,-0.3068025,2.761388,-2.152918,-0.0864297,0.1531833,-0.02690007,-1.054541,-2.853636,1.88573,-0.9775647,1.666064,0.2296429,301.3282,167.1007,107.0218
2,2.344445,0.03901922,-0.1733828,0.03251645,-1.036406,-2.035222,0.3838981,-0.3939326,-0.03443938,12.59501,-0.1234726,0.1026507,-0.006383307,-0.3061991,2.752819,-2.143307,-0.08432552,0.1265231,-0.02063147,-1.054412,-2.85283,1.886384,-0.9789397,1.666382,0.2300493,301.3929,167.1122,107.1276
2,2.355556,0.04653064,-0.181831,0.03999529,-1.034145,-2.035513,0.3833892,-0.39384,0.008774523,12.59501,-0.09673078,0.1259931,0.02342091,-0.3060057,2.744889,-2.135406,-0.07908124,0.104156,-0.02396369,-1.054691,-2.851962,1.886764,-0.9802263,1.666584,0.2303279,301.472,167.0685,107.2903
2,2.366668,0.04436623,-0.175439,0.04636454,-1.032147,-2.035646,0.3830297,-0.3938751,-0.003343268,12.59501,-0.08187226,0.1239168,0.006309547,-0.3049532,2.742776,-2.132986,-0.07050489,0.08597774,-0.01131454,-1.05435,-2.851542,1.887094,-0.9814324,1.666607,0.2304842,301.5915,167.0709,107.3412
2,2.377779,0.05070388,-0.1658008,0.05059207,-1.030388,-2.035589,0.3822294,-0.3940962,-0.02013688,12.59501,-0.08938809,0.115445,-0.009669296,-0.3039503,2.740473,-2.129619,-0.07037045,0.09549836,0.006825084,-1.053434,-2.850157,1.887567,-0.9826872,1.66651,0.2305633,301.7248,167.1514,107.2445
2,2.38889,0.05487993,-0.1518885,0.06119448,-1.028848,-2.03512,0.3813647,-0.3938922,0.01881349,12.59501,-0.09046641,0.1069369,-0.01395519,-0.303219,2.738189,-2.126393,-0.04891952,0.1103083,0.02163329,-1.052372,-2.848546,1.886814,-0.984047,1.666312,0.2305848,301.8348,167.2692,107.0934
2,2.400001,0.06547536,-0.1411353,0.06860852,-1.027424,-2.034599,0.380049,-0.3942064,-0.02893518,10.96634,-0.07979465,0.1335527,-0.008583419,-0.302117,2.731867,-2.119788,-0.02647249,0.108099,0.03104706,-1.051399,-2.847337,1.885808,-0.9854784,1.666,0.2305589,301.9055,167.4173,106.9126
2,2.411112,0.08141133,-0.132469,0.08242027,-1.025701,-2.033818,0.3783846,-0.3940855,0.01133772,10.96634,-0.06914588,0.1367541,-0.009682029,-0.3011359,2.72712,-2.114777,-0.02214807,0.09845751,0.04270392,-1.050304,-2.846695,1.885683,-0.9869362,1.665559,0.2304831,301.9508,167.5828,106.7155
2,2.422223,0.0908733,-0.111072,0.09192976,-1.024603,-2.032699,0.3765337,-0.3944642,-0.0348028,10.96634,-0.06281666,0.1218944,-0.02679757,-0.2999854,2.725711,-2.1129,-0.02647497,0.08677454,0.04054126,-1.049885,-2.845816,1.886045,-0.9883735,1.664997,0.2303705,301.9815,167.7896,106.4332
2,2.433334,0.09708217,-0.07898919,0.115253,-1.023999,-2.03067,0.3742961,-0.3946709,-0.01859766,10.96634,-0.05131718,0.06349485,-0.08773617,-0.2984439,2.732362,-2.119057,-0.02446313,0.0740322,0.02875187,-1.049816,-2.845221,1.885986,-0.98977,1.664337,0.230269,302.0304,167.9648,106.1469
2,2.444445,0.1011453,-0.044821,0.1311121,-1.023679,-2.028531,0.3719254,-0.394624,0.004368408,9.337676,-0.0418563,0.04762551,-0.1208485,-0.2964663,2.735518,-2.121721,-0.0160669,0.06659746,0.01587908,-1.04973,-2.844659,1.885831,-0.9911225,1.663547,0.2302062,302.0771,168.0743,105.9539
2,2.455556,0.09992986,-0.01918935,0.1533973,-1.023235,-2.025937,0.3695775,-0.3944562,0.01522904,9.337676,-0.03554696,0.03810941,-0.1432737,-0.2945243,2.739069,-2.12488,0.002063632,0.06867829,0.01788089,-1.049261,-2.843839,1.88497,-0.9924498,1.662631,0.2301862,302.0584,168.1861,105.7813
2,2.466667,0.106196,0.003259812,0.1661008,-1.022983,-2.023358,0.3668334,-0.3944509,0.0002878213,9.337676,-0.0452068,0.01260485,-0.1635673,-0.2928167,2.744663,-2.129481,0.0116883,0.06650197,0.02313014,-1.048601,-2.84329,1.884299,-0.9937449,1.66158,0.230173,301.9692,168.3222,105.604
2,2.477778,0.1252379,0.02470278,0.173466,-1.02296,-2.020854,0.3636703,-0.3941452,0.02795387,9.337676,-0.06011383,0.03922969,-0.161297,-0.2907448,2.744787,-2.128531,0.02239597,0.0728486,0.02840061,-1.047861,-2.842423,1.883327,-0.9950198,1.660409,0.2301285,301.854,168.5031,105.3939
2,2.488889,0.1304358,0.04391881,0.1734021,-1.023238,-2.018282,0.3608831,-0.3944765,-0.03053888,9.337676,-0.05154261,0.06049462,-0.1474106,-0.2890307,2.742949,-2.126413,0.02990383,0.08026993,0.03263733,-1.047081,-2.841413,1.882311,-0.9962741,1.659145,0.2299837,301.7253,168.7706,105.106
2,2.5,0.1334687,0.06950917,0.1754369,-1.023842,-2.015631,0.358029,-0.3949116,-0.03955752,8.903366,-0.04403923,0.08921723,-0.1345635,-0.287142,2.739668,-2.123004,0.03516556,0.06748556,0.03463406,-1.047017,-2.840654,1.882194,-0.9975492,1.657851,0.2297193,301.6255,169.0178,104.7902
2,2.511111,0.1354015,0.1004422,0.1817247,-1.024841,-2.012458,0.3549626,-0.3944616,0.04141658,8.903366,-0.04293887,0.08598638,-0.1260487,-0.2858584,2.739712,-2.122642,0.03520626,0.06427237,0.04420622,-1.046082,-2.839918,1.881821,-0.9987839,1.656491,0.2293759,301.5584,169.1398,104.5222
2,2.522222,0.1341835,0.1271194,0.1965452,-1.025926,-2.008914,0.3516528,-0.3943636,0.008515321,8.903366,-0.04083444,0.06044893,-0.1357313,-0.2842909,2.743185,-2.125664,0.05116748,0.06423956,0.04195775,-1.045439,-2.839348,1.880622,-0.9999365,1.655084,0.2290046,301.4706,169.257,104.2142
2,2.533333,0.1309261,0.1366803,0.1954429,-1.026796,-2.006021,0.3488086,-0.3942565,0.009730194,8.903366,-0.03561355,0.03710373,-0.1645878,-0.2821955,2.748747,-2.130742,0.05531646,0.05682828,0.036534,-1.045363,-2.838254,1.880225,-1.001028,1.653676,0.2286405,301.358,169.3572,103.9348
2,2.544444,0.1319209,0.1484009,0.1932733,-1.027952,-2.00291,0.3456344,-0.3942629,-0.0006990048,8.034744,-0.03679395,0.01484028,-0.1955566,-0.2796724,2.755553,-2.136792,0.05199824,0.04836555,0.02267731,-1.045393,-2.837871,1.879547,-1.002,1.652256,0.2282851,301.1993,169.4525,103.6926
2,2.555555,0.1287089,0.1483115,0.1740917,-1.029009,-2.000834,0.3432136,-0.3941116,0.01381559,8.034744,-0.01965129,0.02540959,-0.1689537,-0.2783392,2.756216,-2.137648,0.04861018,0.03457303,0.007698329,-1.046197,-2.837733,1.879821,-1.002985,1.650907,0.2279256,301.0389,169.5602,103.4654
2,2.566666,0.1287564,0.1397438,0.1602661,-1.029786,-1.998887,0.3407584,-0.3942895,-0.0164011,8.034744,-0.00683111,0.02005398,-0.1594292,-0.2771248,2.758441,-2.14009,0.04964572,0.02818708,0.005535841,-1.046162,-2.837601,1.879176,-1.004013,1.649648,0.2275919,300.9243,169.6384,103.2496
2,2.577777,0.1267608,0.1140665,0.1315825,-1.030091,-1.99805,0.3390383,-0.3940722,0.02000905,8.034744,0.0006180853,0.01899569,-0.1615907,-0.2754284,2.76167,-2.143382,0.05289713,0.02711928,0.01402355,-1.045666,-2.836815,1.878213,-1.004958,1.648429,0.2273046,300.8156,169.6934,103.0365
2,2.588888,0.1226343,0.09056339,0.1167476,-1.030299,-1.996816,0.3371748,-0.3941297,-0.005448845,8.034744,0.01341908,0.006202295,-0.1563567,-0.2740606,2.765658,-2.147611,0.05294514,0.03349267,0.01830975,-1.045177,-2.836331,1.877349,-1.005782,1.647277,0.2271201,300.7241,169.8081,102.7582
2,2.599999,0.1194996,0.07986556,0.1093288,-1.030526,-1.995483,0.3352238,-0.3939678,0.01486453,7.274701,0.02300283,0.004075408,-0.1574641,-0.2725969,2.769452,-2.151794,0.05073109,0.03779924,0.01192138,-1.045391,-2.835338,1.877063,-1.006474,1.646237,0.2270771,300.657,169.9811,102.4488
2,2.61111,0.1109705,0.07872921,0.1040173,-1.030991,-1.993923,0.3335439,-0.3938884,0.007133293,7.274701,0.0198696,0.03065683,-0.1413926,-0.2709825,2.768455,-2.150966,0.04542091,0.02820638,0.01619492,-1.045023,-2.835421,1.876683,-1.007074,1.645375,0.2272276,300.6288,170.1594,102.1752
2,2.622221,0.09923434,0.08075388,0.09443257,-1.031635,-1.992675,0.3320983,-0.3939284,-0.003738676,7.274701,0.03169773,0.03802021,-0.1115843,-0.2703066,2.767092,-2.150358,0.04751453,0.01329164,0.02036059,-1.045014,-2.835404,1.876675,-1.007588,1.644674,0.2275599,300.5733,170.2431,102.0847
2,2.633332,0.09815373,0.08280791,0.07628449,-1.032498,-1.992419,0.3307268,-0.3935683,0.03297548,7.274701,0.02753963,0.01982036,-0.08393733,-0.2701921,2.768801,-2.152229,0.04319967,0.005866833,0.01715833,-1.045052,-2.835325,1.876514,-1.008046,1.644093,0.2280025,300.4736,170.271,102.1449
2,2.644443,0.1035634,0.06682073,0.06248648,-1.032732,-1.991872,0.3292173,-0.393498,0.00618917,7.383279,0.02116377,0.01235109,-0.08074062,-0.2695034,2.770873,-2.154319,0.04534373,0.003738467,0.02033157,-1.044649,-2.835156,1.875987,-1.008468,1.643576,0.2284651,300.3477,170.2897,102.2491
2,2.655554,0.09941477,0.0454056,0.03911038,-1.032774,-1.992304,0.3285217,-0.3939737,-0.04349046,7.383279,0.02967867,-0.01001308,-0.08297294,-0.2690879,2.775102,-2.158938,0.04959515,0.009076552,0.01924644,-1.044443,-2.834589,1.875232,-1.008844,1.6431,0.2288878,300.237,170.3406,102.2905
2,2.666665,0.1015565,0.04325209,0.02952587,-1.033167,-1.992058,0.3271395,-0.3940344,-0.005162138,7.383279,0.03392393,-0.008936387,-0.08618525,-0.2681505,2.777485,-2.161689,0.039985,0.006971594,0.01612258,-1.044257,-2.834714,1.875046,-1.009135,1.642629,0.2292838,300.1884,170.3539,102.3011
2,2.677776,0.09733949,0.0346722,0.02209334,-1.033276,-1.992061,0.326234,-0.3937313,0.02772687,7.383279,0.04034689,0.00168995,-0.0776531,-0.2674458,2.777775,-2.162606,0.03667679,-0.002555285,0.005442867,-1.044707,-2.834622,1.874914,-1.009325,1.642125,0.2296858,300.1776,170.3505,102.2933
2,2.688887,0.09518689,0.03679058,0.01996524,-1.033734,-1.991554,0.3250705,-0.3940493,-0.02927729,7.383279,0.03823978,0.000609722,-0.07231416,-0.2670064,2.77878,-2.163985,0.03449436,-0.008928772,-0.000951427,-1.044943,-2.835026,1.874643,-1.009532,1.641655,0.230098,300.1452,170.4533,102.2288
2,2.699998,0.08670553,0.03033653,0.01678734,-1.033934,-1.991545,0.3243067,-0.3937537,0.02729506,6.623236,0.04789804,0.006941495,-0.05315433,-0.2667843,2.778001,-2.164038,0.0291042,-0.01955,-0.005222128,-1.045394,-2.835379,1.874836,-1.009797,1.641248,0.2304806,300.0755,170.6097,102.1433
2,2.711109,0.07825043,0.01855154,0.01363415,-1.033774,-1.991581,0.3237022,-0.3937345,0.001521375,6.623236,0.03939354,-0.0005346555,-0.04782865,-0.2664929,2.780076,-2.166226,0.02805795,-0.02488986,-0.002024139,-1.045274,-2.835994,1.874768,-1.010038,1.640861,0.2308145,300.0217,170.7326,102.0729
2,2.72222,0.07401624,0.01425243,0.009393783,-1.033849,-1.991506,0.322895,-0.3936269,0.009845522,6.623236,0.03618588,-0.0005247314,-0.05101271,-0.2659454,2.781453,-2.167873,0.03024534,-0.01960709,0.008619565,-1.04508,-2.83615,1.874961,-1.010272,1.640487,0.2310947,299.977,170.7816,102.0277
2,2.733331,0.06976479,0.0120765,0.003003411,-1.034063,-1.991745,0.3223304,-0.3935246,0.009311,6.623236,0.03405429,0.001618264,-0.05312546,-0.2653158,2.782436,-2.169226,0.03341579,-0.01640213,0.005407669,-1.045172,-2.836148,1.874659,-1.010448,1.640131,0.2313609,299.9731,170.8538,101.8972
2,2.744442,0.07403564,0.01105007,0.006203169,-1.034132,-1.991485,0.3212545,-0.39371,-0.01697645,7.274701,0.03191973,0.003752122,-0.05417619,-0.2647251,2.783453,-2.170499,0.03448105,-0.01640423,0.00539981,-1.045176,-2.836377,1.87436,-1.010504,1.639772,0.231642,299.9843,170.9138,101.7915
2,2.755553,0.07294285,0.01639663,0.01257163,-1.034434,-1.991086,0.3202425,-0.3936935,0.001726921,7.274701,0.03834167,0.01224935,-0.04671486,-0.2643241,2.782845,-2.170597,0.03338346,-0.01960089,0.003265498,-1.045335,-2.83687,1.874432,-1.010576,1.639483,0.2319423,299.9594,170.9798,101.7358
2,2.766664,0.07507133,0.01640421,0.01151027,-1.034524,-1.990847,0.3192611,-0.3939731,-0.02562157,7.274701,0.0383486,0.01651405,-0.04670272,-0.2636743,2.783046,-2.171325,0.03019488,-0.0238636,0.005404057,-1.045344,-2.837346,1.874426,-1.010674,1.639269,0.2322433,299.9188,171.0529,101.7179
2,2.777775,0.06971498,0.02064015,0.01363138,-1.034781,-1.990486,0.3185399,-0.3938858,0.008208212,7.274701,0.03621814,0.00905695,-0.04671823,-0.2633153,2.784483,-2.173039,0.03228543,-0.03341791,0.001096809,-1.045501,-2.837689,1.874046,-1.01075,1.639057,0.2325153,299.8796,171.0593,101.7751
2,2.788886,0.06860355,0.02916631,0.01786326,-1.035164,-1.989949,0.3174584,-0.3939337,-0.004448721,7.274701,0.03089538,-0.002662737,-0.04460462,-0.2630963,2.786198,-2.174842,0.032242,-0.03233469,-0.006347768,-1.045783,-2.838137,1.873787,-1.010803,1.638812,0.2327344,299.8339,171.0515,101.8341
2,2.799997,0.0632726,0.02911464,0.01359244,-1.035451,-1.990042,0.3169649,-0.393637,0.02717731,6.297503,0.02346983,-0.00268958,-0.03605481,-0.2629621,2.786796,-2.175474,0.03653286,-0.0216907,-0.004216266,-1.045837,-2.837924,1.873293,-1.010857,1.63851,0.2328921,299.7997,171.058,101.8613
2,2.811108,0.05693866,0.01946715,0.008297874,-1.035446,-1.990207,0.3165503,-0.3939007,-0.02431469,6.297503,0.02559282,-0.01865722,-0.03930589,-0.2628881,2.789594,-2.178593,0.04292754,-0.01744384,-0.005308636,-1.045883,-2.838098,1.872687,-1.010861,1.638152,0.2329749,299.7549,171.1454,101.7756
2,2.822219,0.05267833,0.01944411,0.009366392,-1.03562,-1.989986,0.3159572,-0.3936951,0.01905613,6.297503,0.02773522,-0.02079775,-0.03612456,-0.26278,2.791202,-2.180516,0.04291402,-0.01316705,-0.009550886,-1.046054,-2.838105,1.872095,-1.010862,1.637757,0.2330107,299.7336,171.1658,101.7165
2,2.83333,0.05275078,0.008783359,0.005142357,-1.035589,-1.99008,0.3152549,-0.3936583,0.003185467,6.297503,0.03090082,-0.03035464,-0.04575003,-0.2625429,2.794677,-2.184411,0.04284447,-0.02486026,-0.01492203,-1.046543,-2.838547,1.871972,-1.010923,1.637365,0.2330497,299.7303,171.1863,101.6484
2,2.844441,0.05382037,0.007713955,0.001949275,-1.035663,-1.990131,0.3146525,-0.3936796,-0.001910789,6.297503,0.03089295,-0.02928268,-0.04787727,-0.2622292,2.796973,-2.186963,0.03216526,-0.03229673,-0.01700057,-1.046949,-2.839218,1.872181,-1.01095,1.636961,0.2330894,299.7199,171.2906,101.5253
2,2.855552,0.04530645,0.007666588,0.003023716,-1.035778,-1.989957,0.3141912,-0.3939827,-0.02765587,6.080348,0.02347687,-0.01440302,-0.03502311,-0.2619208,2.795959,-2.185925,0.02364913,-0.029085,-0.01586362,-1.047182,-2.839351,1.872373,-1.010985,1.636608,0.2331316,299.6903,171.4527,101.3441
2,2.866663,0.0357292,0.005466558,-0.001211747,-1.035748,-1.989789,0.3137944,-0.3939092,0.006951479,6.080348,0.0214278,-0.008079267,-0.01263082,-0.2621397,2.795043,-2.185205,0.02699124,-0.01423671,-0.0009178924,-1.046711,-2.83928,1.87182,-1.011031,1.636342,0.2331951,299.6784,171.5982,101.1749
2,2.877774,0.03150222,9.445101E-05,-0.007588904,-1.035847,-1.990296,0.3138679,-0.3936589,0.02281097,6.080348,0.0183026,0.009970738,0.006612671,-0.2622553,2.79206,-2.182439,0.0302728,0.001712045,0.006573856,-1.046324,-2.838856,1.87118,-1.011036,1.636131,0.2332902,299.6685,171.6465,101.1204
2,2.888885,0.02304177,-0.01062862,-0.01393007,-1.035586,-1.990661,0.3140336,-0.3936051,0.004758338,6.080348,0.01511856,0.01528577,0.008775035,-0.2622495,2.791079,-2.181648,0.03666518,0.011294,0.003367785,-1.046287,-2.838514,1.870383,-1.010959,1.635937,0.2334065,299.6573,171.6234,101.1532
2,2.899997,0.02313356,-0.02556928,-0.01921478,-1.034971,-1.991486,0.3141494,-0.3935268,0.007164608,6.080348,0.02039398,-0.0006502578,-0.005143235,-0.262161,2.793293,-2.184154,0.02921784,0.009174049,0.005547857,-1.04613,-2.838514,1.870302,-1.010845,1.635752,0.2335486,299.6537,171.5954,101.1874
2,2.911108,0.02209613,-0.02985037,-0.02133253,-1.034614,-1.992,0.3141633,-0.3934133,0.01037068,6.080348,0.02141975,-0.01446479,-0.0169035,-0.2621477,2.796273,-2.187376,0.02490117,-0.005719773,0.002328718,-1.046335,-2.839009,1.870418,-1.01077,1.635657,0.2337244,299.6441,171.6909,101.1096
2,2.922219,0.01996793,-0.0298529,-0.01813504,-1.034327,-1.992244,0.3141135,-0.3937446,-0.03034303,6.080348,0.02784695,-0.02408221,-0.007369459,-0.2625887,2.797585,-2.18913,0.01840601,-0.02698429,-0.006219381,-1.046834,-2.839928,1.870813,-1.010695,1.635645,0.2339028,299.653,171.7927,101.0739
2,2.93333,0.01142307,-0.02563792,-0.0170771,-1.034284,-1.992449,0.3142674,-0.3937681,-0.001865797,6.080348,0.02471633,-0.0124162,0.009725816,-0.2629829,2.795234,-2.187067,0.009878553,-0.03336491,-0.00511368,-1.047019,-2.840534,1.871258,-1.010603,1.635816,0.2341359,299.7046,171.9106,101.0858
