loc,t,aDotS,bDotS,gDotS,aS,bS,gS,xS,yS,zS,qE,qDotE,emgA,emgB,aDotSH,bDotSH,gDotSH,aSH,bSH,gSH,xSH,ySH,zSH,aDotUB,bDotUB,gDotUB,aUB,bUB,gUB,xUB,yUB,zUB,xHand,yHand,zHand,aHand,bHand,gHand,enable
3,0,0.3272543,-0.1569985,-0.1534459,-1.372642,-4.54268,-2.767992,0.3397755,1.226208,0.4748662,-1.238112,0.08820365,11.19363,16.26312,-0.2425963,0.2147957,-0.06582017,-0.5356277,-3.512267,-0.5308769,0.3645801,1.424386,0.3877616,-0.1845829,0.3649813,0.09605365,-0.9206793,0.5092037,-0.07715151,0.5363371,1.490355,0.2495303,0.04908051,1.135802,0.3792312,284.0596,250.3593,9.717954,False
3,0.01111111,0.3209088,-0.1698743,-0.1575803,-1.370029,-4.540759,-2.771691,0.3393258,1.226066,0.4746079,-1.23778,0.02959519,11.24668,16.26312,-0.2950867,0.259349,-0.07921427,-0.5389348,-3.506299,-0.5309512,0.3636802,1.424112,0.3872638,-0.1823354,0.3734647,0.107774,-0.9194452,0.5148705,-0.07858269,0.5360913,1.490478,0.2499597,0.05078544,1.131217,0.3751625,286.6961,249.3156,7.816995,False
3,0.02222222,0.3188602,-0.1911217,-0.1499387,-1.367669,-4.538537,-2.775609,0.3389872,1.226018,0.4744189,-1.237746,0.002972608,11.29973,16.3274,-0.3239735,0.3135648,-0.06937377,-0.5419474,-3.498165,-0.5334266,0.3629254,1.423923,0.3867421,-0.1802229,0.3798615,0.1035112,-0.9187964,0.5205349,-0.0800999,0.5359019,1.490564,0.250232,0.05335655,1.124351,0.367882,289.2111,248.2442,5.698414,False
3,0.03333334,0.3199801,-0.2069769,-0.1338154,-1.36573,-4.535916,-2.779655,0.3387144,1.225852,0.4741695,-1.237845,-0.009068388,11.35279,16.39169,-0.3239381,0.334877,-0.05659151,-0.5444359,-3.490978,-0.5360983,0.3622538,1.423629,0.3862567,-0.1791878,0.3745262,0.1034796,-0.9180688,0.5255272,-0.08102082,0.5356847,1.490637,0.2504852,0.05619378,1.116682,0.3593217,291.8262,246.9379,3.440944,False
3,0.04444445,0.3071923,-0.2057842,-0.1135895,-1.364319,-4.53405,-2.783005,0.338339,1.225725,0.4739349,-1.238027,-0.01654454,11.43236,16.49882,-0.3024148,0.3157757,-0.03972968,-0.5457259,-3.48631,-0.5375588,0.3616114,1.423502,0.3858702,-0.1706368,0.356371,0.1129517,-0.916724,0.5299655,-0.08211138,0.5354418,1.490792,0.2507927,0.05758497,1.114036,0.3541248,293.4285,232.9238,16.42629,False
3,0.05555556,0.279486,-0.204661,-0.09335402,-1.363152,-4.531889,-2.785568,0.3380275,1.225667,0.4735682,-1.238089,-0.005573608,11.48541,16.67023,-0.2841139,0.2636451,-0.03881916,-0.5465733,-3.484663,-0.5362989,0.36099,1.423322,0.3854597,-0.1663865,0.351019,0.113973,-0.9156704,0.5346199,-0.08320355,0.5353163,1.49088,0.2510242,0.05787733,1.113421,0.3526661,293.674,231.8295,17.27472,False
3,0.06666667,0.2560376,-0.2014435,-0.08059813,-1.361928,-4.530031,-2.788048,0.3376342,1.225531,0.47328,-1.237557,0.04874377,11.51194,16.84165,-0.2785652,0.2093367,-0.03674953,-0.5472295,-3.483966,-0.5339332,0.3603434,1.423126,0.3851182,-0.1674566,0.3542627,0.1097298,-0.9150035,0.5403271,-0.08491383,0.5351307,1.490805,0.2511165,0.0575499,1.113154,0.3525354,292.4523,237.4211,11.51404,False
3,0.07777778,0.2230111,-0.1993176,-0.06569819,-1.360979,-4.527897,-2.78993,0.3372031,1.225463,0.472959,-1.23671,0.07701142,11.53846,16.99164,-0.2741396,0.1859121,-0.02720503,-0.5479049,-3.481864,-0.5327712,0.3595732,1.422853,0.3847554,-0.1664169,0.360651,0.1054799,-0.9143026,0.5455971,-0.08626937,0.5349609,1.490833,0.2514844,0.05731234,1.112832,0.3532831,292.1824,239.7949,9.344915,False
3,0.08888889,0.1920935,-0.1907581,-0.04657775,-1.360566,-4.525876,-2.791616,0.3365247,1.225308,0.4726925,-1.23673,-0.002392825,11.53846,17.07735,-0.2709082,0.1965775,-0.01870115,-0.5492056,-3.477231,-0.5338591,0.3588661,1.422592,0.3843725,-0.1653714,0.360683,0.1022805,-0.9135862,0.5512158,-0.08790269,0.5347566,1.490803,0.2518275,0.05715948,1.112631,0.353921,291.9652,241.5512,7.647952,False
3,0.1,0.1729146,-0.1896641,-0.03486817,-1.359873,-4.523882,-2.793295,0.3359665,1.225183,0.4723666,-1.236259,0.04332595,11.51194,17.09878,-0.2666844,0.2136374,-0.0155372,-0.5507742,-3.472313,-0.5352139,0.3582503,1.422388,0.3839576,-0.1653957,0.3649554,0.09803052,-0.9130184,0.5566393,-0.08936876,0.5345616,1.490867,0.2520895,0.05715184,1.112475,0.3541052,291.8555,242.1155,7.13201,False
3,0.1111111,0.138781,-0.1801169,-0.02323034,-1.359338,-4.522086,-2.794049,0.3351926,1.225043,0.4718666,-1.236233,0.002133914,11.45889,17.07735,-0.2752068,0.2104037,-0.01864028,-0.5520296,-3.469027,-0.5348797,0.3575996,1.422225,0.3835895,-0.1611544,0.3575036,0.09796777,-0.9122967,0.5617538,-0.09081858,0.5341901,1.491081,0.2523463,0.05718406,1.11237,0.35391,291.8819,241.7945,7.507082,False
3,0.1222222,0.09826694,-0.171563,-0.002002105,-1.359364,-4.520301,-2.794264,0.3344752,1.225037,0.4714813,-1.236444,-0.01910349,11.40584,17.1202,-0.2815063,0.1943893,-0.01644325,-0.5527444,-3.466426,-0.5339052,0.357057,1.422099,0.383182,-0.1570052,0.3362342,0.08935598,-0.9118972,0.5661141,-0.09205189,0.5339924,1.49109,0.2526271,0.05718252,1.112282,0.3535446,292.0066,241.1602,8.200895,False
3,0.1333333,0.07796027,-0.1587872,0.006411918,-1.3592,-4.518828,-2.794581,0.3339407,1.224875,0.4709642,-1.235805,0.05876741,11.35279,17.24877,-0.2685575,0.1603474,-0.01337706,-0.553259,-3.465468,-0.5322801,0.3564716,1.422035,0.3827598,-0.1506886,0.3202444,0.08606392,-0.9113428,0.570006,-0.09297175,0.5337856,1.49114,0.2527535,0.05715303,1.112195,0.3531591,292.1599,240.5594,8.880453,False
3,0.1444445,0.06621375,-0.1513192,0.01273881,-1.359076,-4.51734,-2.795193,0.3333489,1.224756,0.4705074,-1.235456,0.03154471,11.29973,17.44161,-0.2535918,0.1369571,-0.01987964,-0.5537564,-3.464645,-0.5309326,0.3559157,1.421955,0.3823547,-0.1453472,0.319158,0.08814576,-0.9106189,0.5745658,-0.09434195,0.5335944,1.491216,0.2529294,0.05700245,1.112135,0.3527947,292.3608,240.2323,9.317705,False
3,0.1555556,0.06621375,-0.1513192,0.01273881,-1.359076,-4.51734,-2.795193,0.3333489,1.224756,0.4705074,-1.235883,-0.03898665,11.24668,17.72016,-0.2535918,0.1369571,-0.01987964,-0.5537564,-3.464645,-0.5309326,0.3559157,1.421955,0.3823547,-0.1453472,0.319158,0.08814576,-0.9106189,0.5745658,-0.09434195,0.5335944,1.491216,0.2529294,0.05669501,1.11211,0.3524694,292.4782,240.8234,8.970952,False
3,0.1666667,-0.01072666,-0.09589683,0.04954352,-1.360972,-4.516171,-2.792465,0.3320487,1.224673,0.4694796,-1.236194,-0.02792165,11.19363,18.08442,-0.2524341,0.1146008,-0.02096505,-0.5551865,-3.462051,-0.5278151,0.3548159,1.421707,0.3815694,-0.1307175,0.2542183,0.07614459,-0.9095473,0.5804705,-0.0955702,0.5331156,1.491486,0.2532823,0.05645498,1.112087,0.3521792,292.5004,241.2574,8.682197,False
3,0.1777778,-0.03632167,-0.08842516,0.0622626,-1.361787,-4.515093,-2.7914,0.3313563,1.224576,0.4688685,-1.235095,0.1008558,11.16711,18.47011,-0.2525633,0.1614687,-0.0145596,-0.5567967,-3.456694,-0.52947,0.3542809,1.4216,0.3811748,-0.1264092,0.246723,0.08460318,-0.9086386,0.5836772,-0.09626715,0.5327793,1.491581,0.2533736,0.05622426,1.112062,0.3519222,292.5391,241.5628,8.407185,False
3,0.1888889,-0.07147527,-0.08740711,0.07291773,-1.3626,-4.513595,-2.789919,0.3306465,1.224378,0.468241,-1.235408,-0.02923511,11.14058,18.87722,-0.24628,0.2009019,-0.01350439,-0.5583546,-3.45107,-0.5321637,0.3538027,1.421623,0.3808007,-0.117763,0.2413422,0.1004957,-0.9072644,0.5873381,-0.09750179,0.5325627,1.491781,0.2534025,0.05564443,1.112045,0.3514354,292.746,242.2785,7.932811,False
3,0.2,-0.09278103,-0.08746922,0.07504919,-1.363116,-4.51233,-2.788423,0.3299587,1.224247,0.4676604,-1.235763,-0.03186428,11.16711,19.28434,-0.239921,0.1998618,-0.01782053,-0.5597442,-3.447861,-0.5324461,0.3533858,1.421514,0.3803606,-0.1070993,0.2327771,0.104643,-0.9061981,0.5904146,-0.09857424,0.5323676,1.491922,0.2534111,0.05505705,1.112069,0.3508412,292.9708,242.6956,7.689341,False
3,0.2111111,-0.12578,-0.09292901,0.07511172,-1.363575,-4.51066,-2.78633,0.3293268,1.224084,0.4670246,-1.23559,0.01622048,11.19363,19.58431,-0.234568,0.1839067,-0.02105558,-0.560638,-3.445637,-0.5318157,0.353063,1.4214,0.3797183,-0.09131318,0.1869235,0.1001315,-0.9052591,0.5910619,-0.0983066,0.5321136,1.492196,0.253489,0.05451006,1.112091,0.3501675,293.1613,242.8867,7.642886,False
3,0.2222222,-0.1598859,-0.0919804,0.07617889,-1.364197,-4.509379,-2.783529,0.3286446,1.224062,0.4664891,-1.235887,-0.02705945,11.22016,19.71288,-0.231172,0.1594091,-0.008310467,-0.560833,-3.44382,-0.5308402,0.3527355,1.42144,0.3793678,-0.07857472,0.1687732,0.1010398,-0.9042572,0.5927671,-0.09894069,0.5318658,1.492341,0.2534645,0.05399121,1.112105,0.3494332,293.3229,242.9236,7.730886,False
3,0.2333333,-0.1779798,-0.09633809,0.07302135,-1.364441,-4.507963,-2.781214,0.3279445,1.224179,0.4658787,-1.235526,0.03345056,11.24668,19.60574,-0.2214147,0.148801,0.007592641,-0.5610369,-3.440697,-0.531209,0.3523569,1.421473,0.3790064,-0.06885966,0.1825862,0.1105785,-0.9030385,0.5965868,-0.10081,0.5317141,1.492273,0.2532806,0.05348564,1.112125,0.3486718,293.4628,242.8746,7.878479,False
3,0.2444444,-0.1821951,-0.1091103,0.07738657,-1.364807,-4.506063,-2.779521,0.3272399,1.224382,0.4652674,-1.235161,0.03320492,11.27321,19.32719,-0.2032904,0.1541854,0.01169575,-0.5617874,-3.437547,-0.5321992,0.3520632,1.421562,0.378653,-0.07308457,0.1687785,0.1159006,-0.9018428,0.5992814,-0.1016744,0.5314987,1.492398,0.2531216,0.0529509,1.112171,0.3478776,293.6205,242.7897,8.049413,False
3,0.2555556,-0.1832178,-0.1229484,0.07751366,-1.364946,-4.504014,-2.777756,0.3264358,1.2245,0.4646966,-1.235901,-0.06765696,11.29973,18.8558,-0.1777383,0.1553565,0.01148489,-0.5626098,-3.434273,-0.5337678,0.3517659,1.421719,0.3782701,-0.07530131,0.1506543,0.1148076,-0.9007215,0.6004531,-0.1014121,0.5312942,1.492528,0.253032,0.05231221,1.112277,0.3470567,293.8533,242.7475,8.158772,False
3,0.2666667,-0.1927565,-0.1358098,0.07337183,-1.364955,-4.50185,-2.775748,0.3257726,1.224972,0.4642191,-1.23677,-0.07868027,11.29973,18.29869,-0.1370828,0.1352601,0.02284716,-0.5624276,-3.432548,-0.5351694,0.3515357,1.421963,0.3779972,-0.07117702,0.104847,0.1146496,-0.8994837,0.6004134,-0.1007511,0.5311449,1.492651,0.2528899,0.05134194,1.112448,0.346161,293.8754,241.9094,9.076221,False
3,0.2777778,-0.2161529,-0.1467191,0.05429174,-1.364181,-4.499942,-2.772962,0.3250595,1.22531,0.4637346,-1.236933,-0.01409213,11.29973,17.69873,-0.130394,0.1161063,0.05155656,-0.5613278,-3.429842,-0.5359415,0.3512602,1.422071,0.3777304,-0.07456176,0.08785328,0.09865464,-0.8989436,0.6009331,-0.1001373,0.5309744,1.492682,0.2528229,0.05022243,1.112629,0.3450983,294.007,240.6445,10.33285,False
3,0.2888889,-0.2459417,-0.1598699,0.0267054,-1.362734,-4.497943,-2.769587,0.3243239,1.225712,0.463223,-1.236817,0.01072041,11.27321,17.1202,-0.1291299,0.1097187,0.07391235,-0.5606322,-3.426486,-0.5370781,0.3509781,1.422227,0.3774412,-0.07883008,0.103885,0.0912731,-0.8984398,0.6036932,-0.1009306,0.530714,1.492826,0.2527134,0.04913914,1.112771,0.3439397,294.2387,239.3432,11.60078,False
3,0.3,-0.2671914,-0.1750413,0.006597292,-1.361266,-4.495826,-2.766331,0.3234802,1.226131,0.4627595,-1.236238,0.05297488,11.24668,16.58453,-0.1236651,0.09482186,0.08344896,-0.5598375,-3.424364,-0.5376693,0.3506655,1.422463,0.3771307,-0.08618813,0.1273356,0.0945928,-0.8975407,0.6067429,-0.1016142,0.5305014,1.492893,0.2526422,0.04819043,1.112939,0.3424501,294.2818,239.2948,11.35089,False
3,0.3111111,-0.2969437,-0.1977427,-0.01770025,-1.359294,-4.493258,-2.762494,0.322525,1.22674,0.4623289,-1.235781,0.04147618,11.22016,16.15599,-0.1321086,0.08839373,0.09097771,-0.5591642,-3.421938,-0.5378309,0.3503522,1.422713,0.3768544,-0.08611579,0.1177448,0.1052226,-0.8960615,0.6085616,-0.1018939,0.5302913,1.492994,0.2525599,0.04733837,1.113121,0.3401684,294.0795,240.3761,9.517653,False
3,0.3222222,-0.3298756,-0.2224424,-0.02600583,-1.357517,-4.490317,-2.758305,0.3215038,1.227519,0.4617987,-1.236077,-0.02718392,11.22016,15.81315,-0.1822838,0.1403928,0.1020729,-0.5595679,-3.415317,-0.5396539,0.3501452,1.423219,0.3765593,-0.09469949,0.09756425,0.1041822,-0.8949979,0.6096785,-0.1013615,0.5301906,1.492985,0.2525125,0.0465684,1.113295,0.3368967,293.8471,241.3615,7.330446,False
3,0.3333333,-0.3671155,-0.2311333,-0.02696472,-1.356478,-4.487364,-2.753719,0.3204173,1.228202,0.4612548,-1.235698,0.03507196,11.22016,15.55603,-0.2004965,0.1765429,0.1075725,-0.5599717,-3.408744,-0.5422553,0.3500303,1.423585,0.3762162,-0.1066651,0.08698077,0.08188246,-0.8949063,0.6101441,-0.09976654,0.5302607,1.493072,0.2523789,0.04587231,1.113481,0.3326598,293.6319,242.0311,5.073592,False
3,0.3444445,-0.4555385,-0.2304387,-0.03123151,-1.355026,-4.485137,-2.745882,0.3192273,1.229166,0.4607241,-1.235496,0.01835155,11.22016,15.38461,-0.2077504,0.2116555,0.1470618,-0.559267,-3.400199,-0.5469755,0.3500511,1.424185,0.3758576,-0.1146196,0.02317637,0.04663081,-0.8954368,0.6075446,-0.09657741,0.5303131,1.493097,0.2521646,0.04534521,1.11384,0.3278588,293.6183,241.8158,3.588768,False
3,0.3555556,-0.5268894,-0.2371186,-0.03222515,-1.353658,-4.482444,-2.737953,0.3179969,1.22992,0.4602261,-1.235383,0.01039326,11.24668,15.32033,-0.1996421,0.1914223,0.2151622,-0.5560462,-3.393337,-0.5507891,0.3501607,1.424901,0.375555,-0.1107815,-0.05138613,0.02197222,-0.8953952,0.6040602,-0.09297894,0.530372,1.49319,0.2521129,0.04503383,1.114672,0.3232908,293.7856,240.6018,3.362494,False
3,0.3666667,-0.6332369,-0.2813706,-0.0488566,-1.350955,-4.478098,-2.728322,0.316266,1.231181,0.4598801,-1.23268,0.2474136,11.27321,15.27748,-0.1831225,0.140331,0.2554845,-0.55233,-3.389735,-0.5524001,0.3502091,1.425688,0.3753693,-0.0981865,-0.07482359,0.01108138,-0.8955641,0.601346,-0.09070513,0.5303016,1.493233,0.2520068,0.04462713,1.116103,0.319356,293.8182,239.4818,3.35211,False
3,0.3777778,-0.688503,-0.3157339,-0.0560105,-1.348241,-4.47408,-2.719685,0.3144867,1.232498,0.4593136,-1.232753,-0.008430144,11.32626,15.27748,-0.147997,0.02646302,0.3265278,-0.5453621,-3.389436,-0.552093,0.3504659,1.426507,0.3753633,-0.08661963,-0.08547541,-0.002895057,-0.8959374,0.5995693,-0.08904839,0.5303001,1.493301,0.251832,0.04376487,1.118288,0.3162515,293.7489,238.564,3.489458,False
3,0.3888889,-0.7448996,-0.3297063,-0.04309618,-1.346622,-4.470208,-2.71082,0.3128036,1.234046,0.4587491,-1.231424,0.1223166,11.37931,15.29891,-0.1339754,-0.006509662,0.3327844,-0.5417978,-3.38724,-0.5528118,0.3505023,1.427274,0.375169,-0.08238367,-0.08336265,-0.006116182,-0.8958533,0.5984498,-0.08744143,0.5302793,1.493318,0.251631,0.04235408,1.121288,0.3140074,293.4661,237.654,3.989265,False
3,0.4,-0.7875434,-0.3212715,-0.03464682,-1.345137,-4.467236,-2.701313,0.3110425,1.23546,0.4580889,-1.233046,-0.1488346,11.43236,15.34176,-0.1287244,-0.04163623,0.3082258,-0.538717,-3.387359,-0.5515079,0.3507315,1.428197,0.3750362,-0.07715002,-0.09294661,-0.01364344,-0.8962016,0.5967962,-0.08570718,0.5303282,1.493375,0.2513552,0.04030097,1.125129,0.3124309,293.0845,236.7116,4.848614,False
3,0.4111111,-0.8696343,-0.3065512,-0.01882414,-1.34372,-4.464417,-2.689537,0.3092515,1.236861,0.4570184,-1.233691,-0.05708571,11.48541,15.42747,-0.134093,-0.06081675,0.295479,-0.5358376,-3.386376,-0.5505332,0.3510493,1.428935,0.3748865,-0.07399279,-0.1025295,-0.01476362,-0.8963295,0.5950494,-0.08393165,0.5304692,1.493269,0.2509079,0.03788248,1.129749,0.3113144,292.4951,235.7816,5.955077,False
3,0.4222222,-0.9591849,-0.289795,-0.01365623,-1.342515,-4.462012,-2.676485,0.3071949,1.238566,0.4562652,-1.233845,-0.01335891,11.53846,15.55603,-0.1509666,-0.1035036,0.2966698,-0.5316564,-3.387543,-0.5472487,0.3514397,1.429938,0.3746071,-0.07866898,-0.1461081,-0.04786175,-0.89771,0.5908746,-0.08027114,0.5307293,1.493417,0.2504206,0.03539689,1.134974,0.3104197,291.7065,234.9855,7.069973,False
3,0.4333333,-1.022035,-0.2879983,-0.02110926,-1.340696,-4.459095,-2.663734,0.305268,1.240076,0.4553819,-1.232195,0.151402,11.59151,15.72745,-0.1495461,-0.1194772,0.3307424,-0.5266784,-3.385457,-0.5475134,0.3517613,1.430848,0.3742981,-0.07642221,-0.1834796,-0.02134033,-0.8966485,0.5866492,-0.07678053,0.5309649,1.493506,0.2502341,0.03288106,1.14054,0.3094577,290.764,234.1251,8.302633,False
3,0.4444444,-1.124369,-0.2715226,-0.04149247,-1.33844,-4.457453,-2.647818,0.3030945,1.241763,0.4544084,-1.231511,0.0616611,11.61804,15.89886,-0.1574402,-0.1451056,0.3925896,-0.5198022,-3.383085,-0.5475957,0.3520841,1.431714,0.3737886,-0.07586224,-0.2206486,-0.06725153,-0.8987433,0.5815535,-0.07279404,0.5312922,1.493435,0.2498422,0.03027434,1.146272,0.3081124,289.8834,233.1641,9.557062,False
3,0.4555556,-1.244836,-0.2466999,-0.07045625,-1.335969,-4.456393,-2.630493,0.3009227,1.24364,0.4534595,-1.232389,-0.08018683,11.64456,16.04885,-0.1877715,-0.1420338,0.4599736,-0.5128268,-3.377512,-0.5492828,0.3523143,1.432648,0.373292,-0.09014305,-0.2183371,-0.117192,-0.9015061,0.5785986,-0.06945498,0.5317929,1.493147,0.2492661,0.02761703,1.152152,0.3062578,289.1149,231.9569,10.82187,False
3,0.4666667,-1.282162,-0.2373507,-0.08119497,-1.333684,-4.454899,-2.615649,0.2988394,1.24542,0.452482,-1.230408,0.1825589,11.64456,16.17742,-0.2238318,-0.1123559,0.4922491,-0.507198,-3.370978,-0.5512152,0.3525776,1.433599,0.3727674,-0.09998482,-0.2107523,-0.1501111,-0.9039424,0.5760344,-0.06658728,0.532012,1.493025,0.2489784,0.02508222,1.158112,0.303886,288.3444,230.3161,12.32084,False
3,0.4777778,-1.322664,-0.2322174,-0.08550023,-1.331485,-4.453353,-2.599888,0.2964059,1.247522,0.451447,-1.229792,0.05523991,11.64456,16.34883,-0.271447,-0.03691259,0.5608742,-0.501152,-3.357589,-0.5584292,0.3529011,1.43467,0.3722579,-0.1129665,-0.2095881,-0.1734338,-0.9065054,0.5729219,-0.06296165,0.5323318,1.492917,0.2486238,0.02246814,1.16422,0.3010308,287.7059,228.4337,13.85318,False
3,0.4888889,-1.348205,-0.2354948,-0.08226225,-1.329483,-4.451146,-2.584868,0.2938017,1.24967,0.4504905,-1.233022,-0.2949164,11.64456,16.62738,-0.2829665,-0.0220578,0.5918649,-0.4948803,-3.34931,-0.5622418,0.3532463,1.435888,0.3717201,-0.1214992,-0.2042448,-0.1765347,-0.9081667,0.5698305,-0.05939062,0.5325208,1.493031,0.2483883,0.01984534,1.170659,0.297873,287.1391,226.3357,15.48699,False
3,0.5,-1.376972,-0.234587,-0.08759602,-1.327124,-4.449508,-2.568923,0.2912256,1.252013,0.4494083,-1.233179,-0.01129935,11.61804,16.99164,-0.2784187,-0.0327035,0.6205868,-0.4877691,-3.341458,-0.5661875,0.3536503,1.437008,0.3711548,-0.1279218,-0.2084815,-0.1786212,-0.9101055,0.5665463,-0.05570694,0.5328952,1.492977,0.2479401,0.01742744,1.177427,0.2946247,286.4344,223.8559,17.48489,False
3,0.5111111,-1.40038,-0.2422555,-0.1013777,-1.324192,-4.447856,-2.553027,0.2887288,1.254297,0.4483395,-1.234306,-0.1027654,11.61804,17.27019,-0.2652509,-0.07846472,0.644973,-0.4797903,-3.336732,-0.5679401,0.3541397,1.438088,0.3705115,-0.1323062,-0.2297476,-0.1850328,-0.9122344,0.5624641,-0.05162485,0.5332573,1.492911,0.2472291,0.01501467,1.184475,0.2913506,285.6884,221.1606,19.71105,False
3,0.5222223,-1.44082,-0.2512204,-0.1311336,-1.320323,-4.446524,-2.536229,0.2862144,1.257004,0.4472291,-1.234144,0.01603075,11.61804,17.39876,-0.2444519,-0.1369898,0.6841968,-0.4705284,-3.332419,-0.5697378,0.3545611,1.439116,0.3697965,-0.1357158,-0.2520652,-0.2021065,-0.9148587,0.5578308,-0.04716778,0.5336699,1.492813,0.2466977,0.01258843,1.191719,0.2881313,284.9133,218.1389,22.30556,False
3,0.5333334,-1.482324,-0.2624595,-0.1779044,-1.315519,-4.445809,-2.518676,0.2837647,1.259421,0.446157,-1.234612,-0.04271443,11.59151,17.42018,-0.2323654,-0.1678351,0.7139171,-0.4615578,-3.326825,-0.5725594,0.3549451,1.440213,0.3690617,-0.1497169,-0.2647861,-0.2158805,-0.9176513,0.5532631,-0.04229686,0.5342497,1.49272,0.2463431,0.01014467,1.199091,0.2850316,284.1942,214.7893,25.29772,False
3,0.5444446,-1.50361,-0.2681104,-0.205553,-1.311007,-4.445111,-2.501451,0.2811854,1.261911,0.4450941,-1.234287,0.03046538,11.59151,17.39876,-0.2416321,-0.1753406,0.7480839,-0.452503,-3.319313,-0.5762817,0.3552589,1.441281,0.368288,-0.1540543,-0.2658167,-0.2243686,-0.9203166,0.5493749,-0.03807814,0.5346522,1.492582,0.2458732,0.007757264,1.206523,0.2821149,283.5632,211.055,28.73396,False
3,0.5555557,-1.527056,-0.2685854,-0.2460218,-1.30599,-4.444972,-2.483891,0.278582,1.264724,0.4439681,-1.234096,0.01748502,11.59151,17.3559,-0.2488263,-0.1561931,0.7886388,-0.4436209,-3.308449,-0.5829039,0.3554658,1.442455,0.3674505,-0.1668864,-0.2465918,-0.235928,-0.9232072,0.5464886,-0.03390843,0.5349867,1.49243,0.2454686,0.005385352,1.214025,0.2793876,283.0752,206.9612,32.57761,False
3,0.5666668,-1.534517,-0.2676492,-0.2556179,-1.301769,-4.444504,-2.466907,0.2760673,1.267264,0.4429255,-1.234863,-0.06985635,11.56498,17.20591,-0.2560508,-0.1232152,0.830255,-0.4347483,-3.29523,-0.5917531,0.35573,1.443477,0.3667498,-0.1722107,-0.2273843,-0.2422246,-0.9260418,0.5440894,-0.03037362,0.5353466,1.492299,0.2450242,0.003020644,1.221584,0.2768677,282.6599,202.3815,36.94498,False
3,0.577778,-1.549424,-0.2699768,-0.2715773,-1.297072,-4.444342,-2.449334,0.2733851,1.270017,0.441931,-1.235162,-0.02655203,11.56498,16.92736,-0.2767104,-0.03486602,0.8208795,-0.4287615,-3.27809,-0.6034779,0.3560386,1.444324,0.3659019,-0.1774243,-0.1964731,-0.2389082,-0.9285932,0.542772,-0.02739727,0.5357749,1.491963,0.2445581,0.0006147404,1.229208,0.2745237,282.2995,197.7127,41.45549,False
3,0.5888891,-1.570672,-0.2883479,-0.290599,-1.291674,-4.44382,-2.431285,0.2708599,1.272748,0.4408731,-1.236011,-0.07715731,11.53846,16.58453,-0.296032,0.002342731,0.8221204,-0.4219608,-3.263541,-0.6127156,0.356383,1.44536,0.3651679,-0.1816541,-0.1889933,-0.2399271,-0.9313372,0.5403579,-0.02405713,0.5361282,1.491675,0.2441087,-0.00181328,1.236912,0.2723162,282.0285,192.9862,46.08823,False
3,0.6000003,-1.600443,-0.3034149,-0.2947276,-1.286647,-4.443131,-2.413027,0.2681637,1.275637,0.4398615,-1.235874,0.01337552,11.51194,16.28455,-0.3150314,0.05019626,0.8638455,-0.4144251,-3.243549,-0.6268162,0.3568042,1.446191,0.3645005,-0.1804485,-0.1634489,-0.2324138,-0.9336292,0.5391434,-0.02135056,0.5363957,1.491531,0.2437172,-0.004136268,1.244636,0.2702167,281.7799,187.9758,51.04282,False
3,0.6111114,-1.64404,-0.3218858,-0.311551,-1.281149,-4.442439,-2.394119,0.2655142,1.278483,0.43873,-1.235546,0.03003152,11.45889,16.07028,-0.3010148,0.02575421,0.8743759,-0.4059318,-3.229865,-0.6364803,0.357425,1.447048,0.3638775,-0.1676156,-0.1688158,-0.225085,-0.935871,0.5367644,-0.01858913,0.5367262,1.491355,0.2431271,-0.006399383,1.252365,0.2681338,281.6441,182.8149,56.16111,False
3,0.6222225,-1.674913,-0.3274536,-0.3253499,-1.275553,-4.442428,-2.374431,0.2627915,1.281415,0.4376416,-1.235547,-0.0001886463,11.40584,15.87744,-0.2557658,-0.07209218,0.8910029,-0.3952147,-3.222137,-0.6422077,0.3579075,1.447926,0.3632619,-0.1538158,-0.188035,-0.224188,-0.9382955,0.5333199,-0.01529879,0.5370553,1.491192,0.2426686,-0.008530789,1.260096,0.2659841,281.6494,177.7047,61.2269,False
3,0.6333337,-1.72823,-0.3129393,-0.3413939,-1.270404,-4.443176,-2.353325,0.2601272,1.284383,0.4363425,-1.235211,0.03099437,11.37931,15.70602,-0.2319484,-0.1486985,0.9025018,-0.3843437,-3.213944,-0.6479423,0.3583033,1.448834,0.3626173,-0.1454363,-0.2135981,-0.2328467,-0.9411297,0.5294003,-0.01168595,0.5374035,1.490958,0.2422757,-0.01057199,1.267892,0.2636684,281.7481,172.7477,66.10001,False
3,0.6444448,-1.75071,-0.2853586,-0.3448295,-1.265959,-4.44456,-2.332428,0.2574334,1.287324,0.4351933,-1.234931,0.02555709,11.32626,15.55603,-0.2037151,-0.2657829,0.913944,-0.371667,-3.21124,-0.6491213,0.3586095,1.449732,0.3619909,-0.1487089,-0.2178304,-0.2402869,-0.9440661,0.5261406,-0.00797963,0.5377239,1.49078,0.2418351,-0.01249804,1.275792,0.2611256,281.9587,167.8014,70.91437,False
3,0.655556,-1.75533,-0.1947828,-0.3338728,-1.264207,-4.447774,-2.311854,0.2551166,1.290292,0.433882,-1.234108,0.07540154,11.29973,15.40604,-0.1982601,-0.3222143,0.9064295,-0.3605185,-3.20646,-0.6514497,0.3588393,1.45068,0.3612785,-0.1562054,-0.2039507,-0.2497728,-0.9471378,0.5237601,-0.004550011,0.5380558,1.490957,0.2416325,-0.01433577,1.283875,0.2583615,282.2842,162.9422,75.55649,False
3,0.6666671,-1.742706,-0.1552706,-0.3235295,-1.261553,-4.449817,-2.292485,0.2527302,1.293071,0.4324787,-1.234852,-0.06840608,11.24668,15.25605,-0.2025697,-0.3190375,0.9022036,-0.3507671,-3.196658,-0.6581803,0.35901,1.451607,0.3606367,-0.1615457,-0.1932683,-0.2550259,-0.9501685,0.5215796,-0.001295095,0.5382954,1.490826,0.2412841,-0.01608733,1.292255,0.2554259,282.6861,158.2797,79.94391,False
3,0.6777782,-1.728016,-0.09867871,-0.3155043,-1.260019,-4.453041,-2.272676,0.2502427,1.295995,0.4312081,-1.236196,-0.1218544,11.24668,15.12749,-0.2251654,-0.2892748,0.8906887,-0.3419334,-3.184173,-0.6665796,0.3590368,1.452527,0.3598883,-0.1762821,-0.1591774,-0.245213,-0.9524492,0.5206438,0.001801629,0.5384144,1.490818,0.2411857,-0.01764141,1.300975,0.2524946,283.1167,153.597,84.2893,False
3,0.6888894,-1.704795,-0.04431044,-0.3127233,-1.258615,-4.456254,-2.253487,0.2478998,1.298775,0.429544,-1.237426,-0.1113231,11.22016,14.95607,-0.2443519,-0.2829512,0.8929886,-0.3321463,-3.172261,-0.6744498,0.3591794,1.453425,0.3591447,-0.1857293,-0.1421172,-0.2355076,-0.9548247,0.5194759,0.004729242,0.5386934,1.490463,0.2407472,-0.01889602,1.310006,0.2497736,283.5272,148.6241,88.99095,False
3,0.7000005,-1.680477,0.001603223,-0.3120652,-1.257597,-4.460147,-2.234196,0.2455168,1.30169,0.4282296,-1.237577,-0.01289995,11.22016,14.76323,-0.27296,-0.2756076,0.914541,-0.3218313,-3.157732,-0.6841679,0.3591065,1.454334,0.3582895,-0.1899238,-0.1197335,-0.2354134,-0.957449,0.5188249,0.00736151,0.5387864,1.490356,0.2404797,-0.01988665,1.31916,0.2472916,284.063,143.2575,94.18382,False
3,0.7111117,-1.670967,0.02084472,-0.3069189,-1.256044,-4.463387,-2.214689,0.243257,1.304592,0.4267545,-1.238242,-0.06068347,11.19363,14.48468,-0.2961529,-0.2543969,0.9520311,-0.3112032,-3.138995,-0.697962,0.3590427,1.455177,0.3574319,-0.2017511,-0.1132857,-0.2502017,-0.9607236,0.5172657,0.01087156,0.5387709,1.490348,0.2402642,-0.0208321,1.328346,0.2450344,284.6836,138.1616,99.15979,False
3,0.7222228,-1.662509,0.03689504,-0.3027999,-1.254818,-4.466731,-2.195214,0.2408876,1.307419,0.4255309,-1.238412,-0.01507218,11.14058,14.12042,-0.2970043,-0.2235294,0.9914547,-0.3008349,-3.11643,-0.716067,0.3587575,1.456226,0.3565948,-0.2251325,-0.0887097,-0.2520676,-0.9636329,0.5170779,0.01431369,0.5387452,1.490282,0.2400284,-0.02178885,1.337409,0.242974,285.3708,133.5909,103.6971,False
3,0.7333339,-1.646571,0.04868209,-0.2975338,-1.253722,-4.469783,-2.176647,0.2385065,1.310197,0.4239788,-1.237979,0.03966317,11.08753,13.73473,-0.2957548,-0.2203321,1.01382,-0.2902707,-3.095371,-0.7330071,0.3585595,1.457035,0.3557429,-0.2377912,-0.06842069,-0.2444459,-0.9659898,0.5173666,0.0171449,0.5387644,1.490077,0.2394519,-0.02279167,1.34625,0.2411374,286.0934,129.7854,107.4862,False
3,0.7444451,-1.616768,0.05522214,-0.2944008,-1.252626,-4.47304,-2.158692,0.2361053,1.313031,0.4227519,-1.237985,-0.0009814055,11.03448,13.37047,-0.3130945,-0.1564822,1.007589,-0.2824879,-3.068296,-0.7548437,0.3582658,1.457871,0.3548081,-0.2450197,-0.03861083,-0.2283258,-0.967945,0.518176,0.01960699,0.5386237,1.490111,0.2393098,-0.02381072,1.354817,0.2394635,286.8173,126.6957,110.627,False
3,0.7555562,-1.552783,0.03843758,-0.2921237,-1.250661,-4.475671,-2.142873,0.2338623,1.315896,0.4213481,-1.238789,-0.07344978,10.95491,13.04907,-0.3175256,-0.1234653,1.001256,-0.2744643,-3.041446,-0.7769881,0.358107,1.458711,0.3539085,-0.2405977,-0.02591287,-0.213412,-0.969756,0.5179756,0.0222595,0.5386233,1.489981,0.2391164,-0.02485026,1.363123,0.2378864,287.5221,124.0552,113.3467,False
3,0.7666674,-1.519743,0.03099575,-0.2994499,-1.248839,-4.478732,-2.126068,0.2317287,1.318583,0.4197342,-1.239464,-0.0611431,10.87533,12.81337,-0.2994708,-0.1084929,1.002168,-0.2661297,-3.013777,-0.8010072,0.35774,1.459543,0.3529339,-0.2339417,0.00382559,-0.1920786,-0.9710556,0.5190797,0.0240313,0.5385032,1.489953,0.238956,-0.02589181,1.371167,0.2363022,288.2173,121.7128,115.7933,False
3,0.7777785,-1.470692,0.01827202,-0.31533,-1.246538,-4.482132,-2.110683,0.2294915,1.321351,0.4185939,-1.241258,-0.1637178,10.79576,12.68481,-0.3035344,-0.1521754,1.007525,-0.2559538,-2.990826,-0.8197508,0.357352,1.460319,0.3519685,-0.2383073,-0.0003958046,-0.2027051,-0.9736443,0.5189801,0.02683987,0.5383992,1.489889,0.2387164,-0.02685104,1.37891,0.2347131,288.9229,119.716,117.8492,False
3,0.7888896,-1.422653,-0.008297663,-0.3278607,-1.243746,-4.485261,-2.095627,0.2274408,1.323985,0.4173014,-1.240293,0.08935526,10.74271,12.62053,-0.3205078,-0.1522551,1.016193,-0.2469768,-2.962004,-0.8434892,0.3568636,1.461192,0.3510828,-0.2481396,-0.01415704,-0.2271638,-0.9770951,0.5182337,0.03024552,0.5382314,1.489769,0.2385311,-0.02764249,1.386245,0.2330837,289.6661,117.9121,119.7344,False
3,0.8000008,-1.376715,-0.04006733,-0.3275926,-1.240698,-4.487824,-2.081032,0.2252001,1.326698,0.4161673,-1.241346,-0.09744915,10.68966,12.70623,-0.305414,-0.1575322,1.035234,-0.2376972,-2.928846,-0.8727235,0.3562702,1.462054,0.3502145,-0.2589514,-0.007704332,-0.2462156,-0.9803517,0.5182474,0.03359125,0.5379281,1.489713,0.238349,-0.02834508,1.393197,0.2313335,290.4026,116.4717,121.1996,False
3,0.8111119,-1.352217,-0.03679382,-0.3319491,-1.238432,-4.491381,-2.065459,0.2231202,1.329492,0.4149721,-1.241348,0.0004265236,10.66313,12.8348,-0.2820388,-0.1617111,1.030768,-0.2290159,-2.895972,-0.9022662,0.3557799,1.462882,0.3492651,-0.2672186,0.04553832,-0.2353548,-0.9824502,0.5209333,0.03527597,0.5375451,1.489591,0.2382367,-0.02896464,1.399767,0.2295545,291.1793,115.3251,122.2382,False
3,0.8222231,-1.302227,-0.017405,-0.3310669,-1.237129,-4.495087,-2.051435,0.2210455,1.332168,0.4138618,-1.241209,0.01235533,10.6366,12.9205,-0.2569025,-0.1530808,0.983682,-0.222244,-2.866785,-0.928758,0.3552376,1.463677,0.3483336,-0.2605671,0.09981982,-0.2235558,-0.9844583,0.5245233,0.0359825,0.5371634,1.489576,0.2380564,-0.02954718,1.405979,0.2277788,291.9314,114.3915,123.0464,False
3,0.8333342,-1.251128,-0.004412528,-0.3312714,-1.235614,-4.499002,-2.037797,0.2191438,1.334999,0.4129026,-1.240175,0.09407732,10.61008,13.04907,-0.245479,-0.143446,0.9569482,-0.2154828,-2.834281,-0.9579545,0.3547325,1.464587,0.3473854,-0.2552008,0.1008455,-0.2193405,-0.9867629,0.5257164,0.03798253,0.5367894,1.489517,0.2378078,-0.03021679,1.411953,0.2259909,292.6201,113.6661,123.6311,False
3,0.8444453,-1.21919,0.001082458,-0.3270644,-1.23427,-4.502362,-2.024467,0.2171554,1.337679,0.4117792,-1.241324,-0.1060064,10.55703,13.19906,-0.2410361,-0.141322,0.980343,-0.2077388,-2.79256,-0.9961615,0.3542503,1.465398,0.3464811,-0.2498904,0.08590795,-0.2162282,-0.9890032,0.5263584,0.0401855,0.5364367,1.489478,0.2376013,-0.03100741,1.417883,0.224237,293.2078,113.181,123.9823,False
3,0.8555565,-1.173374,0.000169754,-0.3334811,-1.232495,-4.506099,-2.011941,0.2152916,1.340147,0.4106526,-1.241544,-0.01934982,10.5305,13.3919,-0.2312889,-0.1455525,0.9973047,-0.2002452,-2.748923,-1.036732,0.3537322,1.466271,0.345607,-0.2489375,0.06459349,-0.2205433,-0.9915114,0.5260946,0.04313975,0.5361326,1.489444,0.2374549,-0.03180273,1.423811,0.2226751,293.7813,112.6623,124.3761,False
3,0.8666676,-1.141528,0.02797848,-0.3358676,-1.231974,-4.510254,-1.999158,0.2134781,1.342448,0.409404,-1.241259,0.02582916,10.5305,13.52046,-0.2194506,-0.2062282,0.9897288,-0.1913226,-2.71248,-1.070438,0.3531646,1.467017,0.3446236,-0.2609626,0.05510098,-0.2524303,-0.9954203,0.5262869,0.04630731,0.5357454,1.489366,0.2371628,-0.0325448,1.429751,0.221397,294.3674,112.078,124.9086,False
3,0.8777788,-1.118215,0.05783561,-0.3435913,-1.231798,-4.514885,-1.98611,0.21156,1.344859,0.4083891,-1.241729,-0.04358491,10.50398,13.58474,-0.2206497,-0.2136834,0.9705606,-0.1843536,-2.671263,-1.108466,0.3525457,1.467804,0.3437254,-0.2780835,0.06370179,-0.263979,-0.9986705,0.5276592,0.04919418,0.535325,1.489309,0.2369697,-0.0332349,1.435689,0.2203536,294.9835,111.3076,125.7629,False
3,0.8888899,-1.10226,0.06644379,-0.3426889,-1.231056,-4.519201,-1.972823,0.2098046,1.347543,0.408062,-1.241238,0.04500808,10.5305,13.6276,-0.2200268,-0.1785497,0.9449726,-0.1795588,-2.625956,-1.150236,0.3518456,1.46874,0.3428278,-0.2845493,0.06158118,-0.2713714,-1.001665,0.5283955,0.05211779,0.5347635,1.489176,0.236903,-0.03382511,1.441489,0.2194996,295.6548,110.4293,126.8069,False
3,0.900001,-1.088415,0.06758442,-0.3405696,-1.230363,-4.523105,-1.960003,0.2078607,1.349964,0.4071016,-1.240674,0.05086574,10.55703,13.73473,-0.1967307,-0.1433076,0.9437248,-0.1752317,-2.572549,-1.201389,0.3510555,1.469525,0.3420243,-0.266597,0.0423834,-0.2832939,-1.005181,0.5283807,0.05446723,0.5341357,1.48911,0.23682,-0.03442575,1.447163,0.2187513,296.2932,109.5738,127.8073,False
3,0.9111122,-1.06928,0.0794601,-0.3321714,-1.230177,-4.527022,-1.947358,0.2058838,1.352276,0.4059911,-1.239945,0.06602693,10.58355,13.86329,-0.1894152,-0.148638,0.924483,-0.1699044,-2.523024,-1.24831,0.3503559,1.470301,0.341253,-0.2590553,0.05297957,-0.2769329,-1.007871,0.529494,0.05650296,0.533451,1.48916,0.2366674,-0.03509618,1.452769,0.2181287,296.8836,108.9733,128.4349,False
3,0.9222233,-1.043747,0.08815219,-0.3247924,-1.230138,-4.530901,-1.935174,0.2039051,1.354661,0.4050443,-1.239936,4.136963E-05,10.58355,13.949,-0.1917481,-0.1635491,0.8936025,-0.1650089,-2.476018,-1.292417,0.3495103,1.471048,0.3404701,-0.2427662,0.1018936,-0.2577796,-1.010015,0.5330151,0.05679564,0.5326763,1.489137,0.236553,-0.03577841,1.458368,0.2177114,297.4259,108.5578,128.8682,False
3,0.9333345,-1.023567,0.1042428,-0.321745,-1.230421,-4.535068,-1.922926,0.2020191,1.356907,0.40395,-1.239885,0.004631739,10.55703,14.03471,-0.1802117,-0.1858585,0.8657995,-0.1598919,-2.427976,-1.337998,0.3487553,1.471741,0.3397148,-0.2393376,0.1220479,-0.2364471,-1.01182,0.5352716,0.0582436,0.5320566,1.489014,0.2364805,-0.03653658,1.464039,0.2173439,297.9756,107.9579,129.6732,False
3,0.9444456,-1.007636,0.1160071,-0.3239801,-1.230744,-4.539396,-1.910724,0.2000935,1.359208,0.4030204,-1.240084,-0.01845359,10.55703,14.09899,-0.1685928,-0.207093,0.8465238,-0.1550839,-2.375871,-1.387913,0.3479681,1.472329,0.338886,-0.2348489,0.1347699,-0.2140772,-1.013306,0.5377097,0.05944468,0.5313073,1.488952,0.2363873,-0.03732239,1.469719,0.2169106,298.5355,107.2488,130.6533,False
3,0.9555568,-0.9831939,0.1287567,-0.3379439,-1.23096,-4.544304,-1.898733,0.198275,1.361161,0.4019439,-1.239893,0.01741755,10.5305,14.22755,-0.176313,-0.1932634,0.8210247,-0.1520553,-2.323696,-1.437241,0.3470838,1.472951,0.3380215,-0.2370531,0.1326391,-0.2204471,-1.015871,0.5392694,0.06144845,0.5305986,1.488809,0.2362716,-0.03805761,1.47531,0.2163804,299.1091,106.5702,131.5466,False
3,0.9666679,-0.9704308,0.1351841,-0.3465495,-1.2314,-4.549396,-1.886389,0.1965535,1.363457,0.401587,-1.239731,0.01445395,10.5305,14.35612,-0.1775097,-0.1826214,0.8093173,-0.1494523,-2.267144,-1.4911,0.3461947,1.473652,0.3371434,-0.2372707,0.1134921,-0.2375281,-1.018997,0.5401525,0.06375661,0.5298653,1.488791,0.2362349,-0.03870653,1.480755,0.2157489,299.6904,105.9834,132.2734,False
3,0.977779,-0.9438077,0.1373576,-0.3540275,-1.231656,-4.55422,-1.875094,0.194664,1.365571,0.4007764,-1.239893,-0.01500289,10.50398,14.46325,-0.162582,-0.1504984,0.8198949,-0.1486747,-2.201512,-1.554561,0.3451262,1.474326,0.3363409,-0.24281,0.09757417,-0.2566943,-1.022459,0.5410933,0.06616251,0.5290986,1.488759,0.2361379,-0.03926717,1.486039,0.2150633,300.2984,105.4819,132.8482,False
3,0.9888902,-0.885211,0.1354842,-0.3550848,-1.231918,-4.558841,-1.865357,0.192768,1.367774,0.4001608,-1.239405,0.04457905,10.50398,14.54896,-0.1649678,-0.149449,0.7900833,-0.1470262,-2.147439,-1.606041,0.343981,1.475246,0.3354936,-0.2524348,0.09013405,-0.2587661,-1.025395,0.542102,0.06878839,0.5283462,1.488712,0.2360284,-0.03970755,1.491084,0.2144243,300.9341,105.0961,133.2305,False
3,1.000001,-0.8222691,0.1132843,-0.3644822,-1.23116,-4.563463,-1.856608,0.1908567,1.369844,0.3994544,-1.240093,-0.06351678,10.5305,14.61324,-0.1867621,-0.1452518,0.7338043,-0.1458587,-2.103735,-1.646449,0.3427586,1.475991,0.3346174,-0.2684726,0.112583,-0.2724206,-1.028767,0.5447366,0.07100707,0.5274847,1.488657,0.2359571,-0.04010795,1.496025,0.213957,301.5237,104.8342,133.4143,False
3,1.011112,-0.7710795,0.09959628,-0.3696923,-1.230602,-4.568015,-1.848079,0.1890578,1.371833,0.3988037,-1.241387,-0.1178228,10.5305,14.67752,-0.1966384,-0.1442497,0.6987293,-0.1447764,-2.056465,-1.690809,0.3415981,1.476787,0.33371,-0.2814412,0.1297208,-0.2978274,-1.032724,0.5475164,0.07317488,0.5264896,1.488681,0.2359514,-0.04059185,1.500954,0.2136424,302.119,104.4837,133.7939,False
3,1.022224,-0.7486873,0.09432315,-0.3739087,-1.230291,-4.572674,-1.838895,0.187245,1.373811,0.3981206,-1.242113,-0.06574302,10.55703,14.80608,-0.1879369,-0.1591367,0.713567,-0.1437697,-1.995646,-1.749195,0.3404378,1.477479,0.3328607,-0.2835671,0.1414526,-0.3009763,-1.036051,0.5501404,0.07507664,0.5255478,1.488603,0.235884,-0.04118467,1.505762,0.2135022,302.7437,104.059,134.3368,False
3,1.033335,-0.7188599,0.09433186,-0.3866948,-1.230127,-4.577832,-1.829866,0.1855091,1.375684,0.3975286,-1.241896,0.01990373,10.58355,14.95607,-0.1529967,-0.1579541,0.6866415,-0.1434027,-1.943644,-1.80027,0.3393372,1.477907,0.3320038,-0.2630144,0.1647644,-0.2723227,-1.03774,0.5533052,0.07566973,0.5245035,1.488508,0.2357831,-0.04191513,1.51026,0.2135,303.3778,103.6541,134.944,False
3,1.044446,-0.7071072,0.1039039,-0.39971,-1.230189,-4.583969,-1.82029,0.1840554,1.378666,0.3994398,-1.240793,0.1002712,10.61008,15.12749,-0.1393612,-0.1461798,0.6662888,-0.1438917,-1.896255,-1.846076,0.3381848,1.478488,0.3311708,-0.2511464,0.1636116,-0.2543146,-1.039806,0.5553977,0.07701515,0.5235095,1.488475,0.2357457,-0.04282703,1.514372,0.2135781,303.908,103.3633,135.4554,False
3,1.055557,-0.694327,0.1049468,-0.4082401,-1.230173,-4.589205,-1.811277,0.1821864,1.380502,0.3989451,-1.240617,0.01501956,10.61008,15.40604,-0.12559,-0.1397357,0.6597829,-0.1447764,-1.846703,-1.894203,0.3369378,1.479187,0.3303218,-0.2435905,0.1688945,-0.2447804,-1.042029,0.5579655,0.07814354,0.5224426,1.488409,0.2356124,-0.04396505,1.518198,0.2136591,304.2919,103.2605,135.7804,False
3,1.066668,-0.6677171,0.1114936,-0.4040314,-1.2306,-4.594051,-1.802964,0.1802312,1.382343,0.3985281,-1.240077,0.04912457,10.58355,15.66317,-0.1320126,-0.1631896,0.6470465,-0.1446842,-1.796282,-1.942324,0.3356232,1.479967,0.3294597,-0.2532145,0.1689118,-0.2468193,-1.044716,0.5603144,0.08025995,0.5213896,1.488304,0.2355077,-0.04519549,1.521795,0.2138935,304.5667,103.5861,135.395,False
3,1.077779,-0.6432085,0.109573,-0.3912275,-1.230841,-4.598376,-1.795205,0.1783955,1.384168,0.3980279,-1.240004,0.006068076,10.58355,15.85601,-0.1311236,-0.190874,0.614006,-0.1441329,-1.751192,-1.985512,0.3342676,1.480657,0.32864,-0.2694445,0.1530321,-0.2701513,-1.048337,0.5620764,0.0828869,0.5202923,1.488193,0.2353325,-0.04644265,1.525486,0.2147077,304.785,104.1063,134.6463,False
3,1.08889,-0.6080478,0.1141169,-0.3763643,-1.231343,-4.602495,-1.788423,0.1765095,1.385608,0.3972154,-1.24031,-0.02814825,10.55703,16.006,-0.1302892,-0.2015214,0.5831023,-0.1440397,-1.707988,-2.026714,0.3330084,1.481186,0.3278549,-0.2771278,0.1424589,-0.2914122,-1.052158,0.5639643,0.08532076,0.5192246,1.488149,0.2352195,-0.0478368,1.529478,0.2158403,305.0856,104.037,135.0615,False
3,1.100002,-0.5814812,0.1302859,-0.3669128,-1.232474,-4.606838,-1.781445,0.1747672,1.387175,0.3966389,-1.240442,-0.01208909,10.5305,16.07028,-0.127299,-0.1525055,0.5798955,-0.1468526,-1.669403,-2.063551,0.3317685,1.481658,0.3272038,-0.2709721,0.1115891,-0.3085863,-1.056147,0.56455,0.08784943,0.5180445,1.488073,0.2350516,-0.04928568,1.533607,0.2170367,305.4295,103.647,136.0749,False
3,1.111113,-0.5698419,0.149615,-0.3542904,-1.234008,-4.610962,-1.774183,0.1731435,1.388697,0.3961565,-1.241041,-0.05488497,10.50398,16.006,-0.111537,-0.1566996,0.5552619,-0.1479929,-1.63176,-2.099911,0.3306567,1.482185,0.3265123,-0.242189,0.07420708,-0.2961535,-1.058983,0.5645033,0.08941483,0.5169029,1.488008,0.2349546,-0.05065241,1.537619,0.2180525,305.7923,103.1933,137.1905,False
3,1.122224,-0.565677,0.1731879,-0.3406453,-1.236023,-4.614943,-1.766858,0.1714255,1.390076,0.3955839,-1.240638,0.0370474,10.45093,15.87744,-0.1006365,-0.1758421,0.5764719,-0.1494997,-1.582346,-2.148061,0.3294728,1.482662,0.3258607,-0.2176235,0.04960255,-0.2815157,-1.061569,0.5644045,0.091005,0.5157307,1.487938,0.2347968,-0.05187732,1.541281,0.2187185,306.1872,102.7885,138.1021,False
3,1.133335,-0.5582604,0.1851073,-0.3215679,-1.237851,-4.61845,-1.759921,0.1697632,1.391369,0.3951035,-1.239906,0.06637899,10.4244,15.68459,-0.08263484,-0.1896145,0.5603497,-0.1505996,-1.53962,-2.189863,0.3284453,1.482938,0.3252337,-0.2152919,0.04634105,-0.2570454,-1.063589,0.5651317,0.09299279,0.5145336,1.487787,0.2346709,-0.05298386,1.544584,0.2190223,306.5217,102.5853,138.5349,False
3,1.144446,-0.5476262,0.1895037,-0.3109512,-1.239482,-4.622056,-1.753107,0.1679958,1.3927,0.3945889,-1.239465,0.039611,10.39788,15.44889,-0.08068648,-0.1842827,0.5422224,-0.1523094,-1.503983,-2.224092,0.3271355,1.483251,0.3246469,-0.2183766,0.06016874,-0.2484479,-1.065843,0.5667084,0.09473343,0.5133368,1.487673,0.2345846,-0.0539986,1.547641,0.2190378,306.797,102.5107,138.6582,False
3,1.155557,-0.5380213,0.1865636,-0.2853549,-1.240938,-4.624762,-1.746704,0.1661607,1.393841,0.3940127,-1.239452,0.0007072719,10.39788,15.23462,-0.07020694,-0.1757167,0.5250922,-0.1542556,-1.470567,-2.25668,0.3258086,1.483622,0.3240201,-0.2119166,0.06439728,-0.2421033,-1.068185,0.5680036,0.09626555,0.512125,1.487622,0.2344093,-0.05495691,1.550578,0.2188542,307.0678,102.4415,138.7113,False
3,1.166668,-0.5305275,0.1781042,-0.2810178,-1.242059,-4.628204,-1.740003,0.1644251,1.395108,0.3936415,-1.239424,0.002505069,10.37135,15.10606,-0.07681066,-0.1757413,0.5017004,-0.1557683,-1.439155,-2.286496,0.3243572,1.483918,0.323462,-0.2119803,0.06654055,-0.2484867,-1.071123,0.5692607,0.09805945,0.5109317,1.487518,0.2343779,-0.05585044,1.553433,0.2185726,307.3679,102.3492,138.7772,False
3,1.17778,-0.5091746,0.1664816,-0.2798485,-1.24298,-4.631668,-1.733941,0.1626377,1.396203,0.3932433,-1.239359,0.005732145,10.39788,15.04178,-0.08261991,-0.1597657,0.4506175,-0.1569348,-1.418702,-2.305584,0.3228108,1.48434,0.322835,-0.2014981,0.06335947,-0.2666987,-1.074637,0.570308,0.09942459,0.5096925,1.48749,0.2342176,-0.05674004,1.556266,0.2182493,307.7134,102.2166,138.9016,False
3,1.188891,-0.4836002,0.16661,-0.2766455,-1.244363,-4.635042,-1.728423,0.160854,1.397423,0.3928421,-1.239125,0.02129333,10.4244,15.02035,-0.07545254,-0.145881,0.4217981,-0.1585976,-1.39654,-2.326878,0.3212942,1.484733,0.3221664,-0.1974297,0.06018807,-0.28591,-1.078298,0.5713127,0.1011042,0.5084218,1.48746,0.2340653,-0.05762371,1.559026,0.2179349,308.0702,102.0399,139.0847,False
3,1.200002,-0.4335358,0.1678682,-0.2777146,-1.245789,-4.638648,-1.724159,0.1591215,1.398377,0.3924839,-1.239579,-0.0418152,10.45093,15.04178,-0.06120163,-0.1266299,0.3503082,-0.1590775,-1.386618,-2.336525,0.3195795,1.485125,0.3213902,-0.2006159,0.06019403,-0.2848161,-1.081415,0.5724586,0.1029197,0.5071278,1.487473,0.2338624,-0.05851693,1.56172,0.2177026,308.4317,101.9532,139.1766,False
3,1.211113,-0.3781396,0.1689694,-0.2990159,-1.247114,-4.64318,-1.720332,0.1573579,1.399359,0.3923156,-1.239951,-0.03380521,10.47745,15.06321,-0.06665868,-0.1256079,0.3311431,-0.1598365,-1.366086,-2.356236,0.3179041,1.485661,0.3210664,-0.2048341,0.05166106,-0.2784119,-1.084249,0.5731302,0.1050202,0.5057374,1.487571,0.2336996,-0.05944691,1.564334,0.2176196,308.7978,101.8721,139.2795,False
3,1.222224,-0.2970802,0.1456854,-0.319044,-1.247315,-4.64778,-1.718291,0.1555574,1.40027,0.3920279,-1.241047,-0.1001179,10.50398,15.08464,-0.07423562,-0.1341513,0.3130929,-0.1605838,-1.345241,-2.375745,0.3161061,1.486189,0.3202507,-0.2165909,0.05490063,-0.2836259,-1.087546,0.5743527,0.1073001,0.5043837,1.487652,0.2334697,-0.0604688,1.566891,0.2177248,309.1308,101.7539,139.4568,False
3,1.233335,-0.2522663,0.1297522,-0.333815,-1.247497,-4.652269,-1.715556,0.1538931,1.401208,0.3917854,-1.241535,-0.04405543,10.55703,15.06321,-0.07877111,-0.1043412,0.2950232,-0.1624241,-1.332617,-2.387032,0.3143026,1.48669,0.3194709,-0.2260237,0.07939789,-0.2738997,-1.09014,0.5766169,0.1090399,0.5029389,1.487707,0.2332599,-0.06158709,1.569239,0.2180934,309.4934,101.6224,139.6946,False
3,1.244446,-0.1850832,0.1129251,-0.3400514,-1.247553,-4.6566,-1.714356,0.1521507,1.401974,0.3915992,-1.242914,-0.1261035,10.61008,15.08464,-0.06735039,-0.09576485,0.2629712,-0.1632619,-1.321451,-2.39768,0.3124835,1.487263,0.3187585,-0.2226237,0.09532619,-0.2557818,-1.092154,0.5787325,0.110429,0.5014892,1.487792,0.2329957,-0.06292694,1.571346,0.2187534,309.8602,101.5561,139.9269,False
3,1.255558,-0.159448,0.1185141,-0.328446,-1.248455,-4.661407,-1.711894,0.1509167,1.404382,0.3957188,-1.241803,0.1021836,10.6366,15.06321,-0.06757732,-0.1032124,0.2331405,-0.1634403,-1.307958,-2.410218,0.3107934,1.487837,0.3180699,-0.2092276,0.09937476,-0.1866328,-1.091576,0.5800767,0.1116972,0.4998978,1.487858,0.2328618,-0.06458224,1.5731,0.2196633,310.1824,101.5399,140.2146,False
3,1.266669,-0.1231927,0.1252352,-0.3136146,-1.249684,-4.665755,-1.710316,0.1496476,1.406656,0.3998914,-1.242612,-0.07536098,10.68966,14.95607,-0.07213981,-0.1181303,0.1926727,-0.1624933,-1.29687,-2.420012,0.3090908,1.4884,0.3175333,-0.1974064,0.09504648,-0.1728967,-1.093024,0.5811955,0.1130901,0.4983774,1.487903,0.2326009,-0.06660105,1.574523,0.2207166,310.3136,101.6298,140.4758,False
3,1.27778,-0.0848667,0.1307544,-0.3093763,-1.250861,-4.669441,-1.709539,0.1480077,1.40745,0.3998508,-1.241108,0.1379239,10.71618,14.82751,-0.07325917,-0.12239,0.1841576,-0.1628331,-1.282872,-2.432989,0.3073587,1.488963,0.3168452,-0.1901855,0.09295605,-0.1985349,-1.095942,0.5826653,0.1143109,0.4968196,1.488021,0.2323086,-0.06886013,1.575555,0.2220599,310.2892,102.1331,139.8906,False
3,1.288891,-0.06669217,0.131962,-0.3051383,-1.251766,-4.673738,-1.70821,0.1463929,1.408875,0.402169,-1.241222,-0.01190128,10.74271,14.67752,-0.05309601,-0.102065,0.1850601,-0.16412,-1.273868,-2.441826,0.3057338,1.489457,0.3161826,-0.1849844,0.08231458,-0.2103179,-1.098556,0.583638,0.1156667,0.4952956,1.488141,0.232058,-0.07116923,1.576593,0.2245243,310.0237,103.1985,138.0034,False
3,1.300002,-0.03257863,0.1267477,-0.3082626,-1.252509,-4.677574,-1.707902,0.1446988,1.409691,0.402281,-1.241436,-0.01971441,10.76923,14.52753,-0.01141742,-0.07316181,0.2134898,-0.1668012,-1.2616,-2.455218,0.3040135,1.489883,0.3155222,-0.1713455,0.04608865,-0.2233088,-1.101514,0.583199,0.1173027,0.493724,1.488243,0.2317479,-0.07355874,1.578167,0.2283459,309.7385,103.7379,137.3515,False
3,1.311113,-0.02287102,0.1075191,-0.3262106,-1.252946,-4.68292,-1.706079,0.1430701,1.410802,0.4049835,-1.240698,0.06743412,10.79576,14.4204,0.01192871,-0.05710087,0.2111625,-0.1683347,-1.252873,-2.464582,0.3021252,1.490296,0.3149939,-0.1630771,0.02054622,-0.2436836,-1.104901,0.5829147,0.1190201,0.4921272,1.488354,0.2314425,-0.07610277,1.580233,0.2327439,309.5968,103.52,138.6423,False
3,1.322224,-0.03665983,0.09664941,-0.3453074,-1.253023,-4.687721,-1.703724,0.1412952,1.41156,0.4052546,-1.241111,-0.03874622,10.79576,14.37754,0.02134117,-0.04747292,0.1940429,-0.1693829,-1.246446,-2.471541,0.3002576,1.490649,0.3143837,-0.1568379,0.017371,-0.2597274,-1.108362,0.5834723,0.1202636,0.490413,1.488502,0.2311146,-0.07865521,1.582447,0.2372754,309.5509,103.1876,140.2276,False
3,1.333336,-0.04402564,0.09875944,-0.3549624,-1.253965,-4.693922,-1.700866,0.1399364,1.413923,0.4107821,-1.239793,0.1207566,10.82228,14.39897,0.02122647,-0.004855648,0.199386,-0.1721249,-1.244289,-2.473672,0.2983349,1.491128,0.3138232,-0.156795,0.02374973,-0.2575895,-1.111108,0.5844356,0.1215192,0.48867,1.488633,0.2308369,-0.08114802,1.584476,0.2413597,309.6096,102.9297,141.6008,False
3,1.344447,-0.05995639,0.08696091,-0.3570133,-1.254012,-4.698243,-1.698247,0.1381585,1.414805,0.4113214,-1.238702,0.09849322,10.8488,14.46325,0.02419478,0.02926213,0.1865715,-0.1742405,-1.246237,-2.472042,0.2962452,1.491452,0.3133032,-0.1426862,0.03643472,-0.232127,-1.112818,0.5855728,0.1222189,0.4868171,1.48879,0.2304308,-0.0835011,1.586125,0.2450236,309.6996,102.971,142.1659,False
3,1.355558,-0.06516507,0.0567624,-0.3738611,-1.251051,-4.701595,-1.696788,0.1349737,1.411073,0.3951225,-1.238412,0.02561004,10.87533,14.63467,0.05064213,0.05492611,0.1757096,-0.1763615,-1.246914,-2.472808,0.2943073,1.491772,0.3127487,-0.1187697,0.0447761,-0.1801156,-1.112917,0.5865218,0.1224162,0.4849067,1.488973,0.2299812,-0.08580016,1.587612,0.2481202,309.7189,103.4219,141.8537,False
3,1.366669,-0.0564563,0.02999616,-0.3992711,-1.249721,-4.708649,-1.69393,0.1335517,1.411781,0.3954282,-1.237996,0.03793842,10.90185,14.7418,0.08357352,0.07315296,0.172252,-0.1786715,-1.246363,-2.475408,0.292343,1.492206,0.3121815,-0.08738275,0.04989573,-0.1271217,-1.112604,0.587189,0.1221073,0.4830728,1.489222,0.2295215,-0.08789729,1.589173,0.2514105,309.6943,104.0967,140.7975,False
3,1.37778,-0.04043597,0.02561453,-0.4205218,-1.249182,1.568828,-1.692208,0.1318847,1.412523,0.3956833,-1.238775,-0.07154102,10.90185,14.7418,0.1240216,0.06157823,0.1633877,-0.179962,-1.24266,-2.481852,0.2902887,1.492772,0.31165,-0.08388736,0.05407511,-0.09518339,-1.112541,0.5880009,0.1225326,0.4812173,1.489539,0.2289944,-0.09033389,1.591292,0.253567,309.6881,102.7723,144.4044,False
3,1.388891,-0.02015288,0.02882391,-0.427977,-1.249117,1.563642,-1.691424,0.1298229,1.413166,0.3959951,-1.238572,0.0190753,10.90185,14.61324,0.1077451,0.01146936,0.1059713,-0.1781362,-1.238064,-2.486866,0.2883138,1.493283,0.3110642,-0.09979306,0.04450031,-0.08334517,-1.113255,0.588284,0.1242466,0.4793945,1.489915,0.2285612,-0.09327962,1.592811,0.2514648,310.0919,101.2564,149.7012,False
3,1.400002,0.02360871,0.01387674,-0.4512341,-1.248047,1.557503,-1.691216,0.1281088,1.413838,0.3963759,-1.239167,-0.05456043,10.87533,14.44182,0.08944575,0.0401708,0.09547687,-0.1794955,-1.241903,-2.483413,0.2862335,1.493776,0.3105447,-0.1212695,0.01901436,-0.09492821,-1.114733,0.5877528,0.1265814,0.4774854,1.490241,0.2280452,-0.09555714,1.59234,0.2466901,310.3642,102.4369,148.1017,False
3,1.411114,0.0428266,0.006462812,-0.4543392,-1.247451,1.552243,-1.690747,0.126323,1.414897,0.3965039,-1.239862,-0.06314847,10.8488,14.24898,0.1044208,0.05940193,0.1113286,-0.1819024,-1.242759,-2.484229,0.2842315,1.494178,0.3101063,-0.1278325,-0.0001162291,-0.1076939,-1.116507,0.5872681,0.1284863,0.4755701,1.490378,0.2276385,-0.09731957,1.590803,0.2412089,310.5347,104.2494,143.5532,False
3,1.422225,0.05129587,0.02035213,-0.4533826,-1.247526,1.546956,-1.689933,0.1247818,1.415364,0.396889,-1.240584,-0.06560915,10.82228,14.05614,0.1522067,0.0553176,0.09069492,-0.1824185,-1.244241,-2.486143,0.2822923,1.494568,0.3096972,-0.1024138,-0.008671626,-0.1217934,-1.118421,0.5870574,0.1287846,0.4736227,1.490562,0.2272177,-0.09901907,1.589223,0.2366527,310.8184,105.7419,139.3625,False
3,1.433336,0.05343485,0.04176369,-0.4450701,-1.2479,1.54124,-1.689,0.1234554,1.416229,0.3972924,-1.239845,0.06780941,10.82228,13.88472,0.2150677,0.001218423,0.06778919,-0.1811509,-1.235869,-2.498963,0.2803151,1.494866,0.3093872,-0.07683749,-0.0002093762,-0.1241382,-1.119784,0.5876543,0.1282935,0.471608,1.490797,0.2268734,-0.1009487,1.588174,0.2339258,311.0862,106.8258,136.701,False
3,1.444447,0.05337851,0.05980602,-0.4526692,-1.248669,1.535724,-1.6879,0.1216286,1.416501,0.3977492,-1.239188,0.05929437,10.79576,13.71331,0.2383586,-0.07219081,0.01857255,-0.177994,-1.225996,-2.51191,0.2783072,1.495271,0.3091538,-0.07162182,0.01899689,-0.1422427,-1.121641,0.588953,0.1283428,0.4695468,1.491202,0.2265587,-0.103273,1.588007,0.2332525,311.1663,107.4855,135.5996,False
3,1.455558,0.05874037,0.0481627,-0.4461706,-1.248271,1.530751,-1.687157,0.1199159,1.417094,0.3980865,-1.238978,0.01859258,10.82228,13.6276,0.2308092,-0.09244893,-0.001612753,-0.1764627,-1.220739,-2.519389,0.2762896,1.495832,0.3088889,-0.06855636,0.04353925,-0.1635211,-1.124027,0.5907632,0.1282267,0.4675167,1.491564,0.2262223,-0.1057683,1.588519,0.2346095,311.0717,107.8527,135.586,False
3,1.466669,0.0619865,0.02495682,-0.4203994,-1.247221,1.526938,-1.686717,0.1182313,1.417617,0.398386,-1.238611,0.03345564,10.82228,13.6276,0.2264089,-0.1254745,-0.03248043,-0.1742165,-1.214494,-2.527803,0.2742403,1.496375,0.3087416,-0.05782276,0.04456137,-0.1550917,-1.125299,0.5915256,0.1281841,0.4654753,1.491896,0.2258246,-0.1083577,1.589692,0.2376443,310.9319,108.0348,136.2818,False
3,1.47778,0.06726633,0.02532053,-0.3820334,-1.24743,1.523853,-1.686792,0.1165237,1.418296,0.3987968,-1.238664,-0.00529037,10.8488,13.64902,0.2207765,-0.1276128,-0.07078695,-0.171726,-1.214153,-2.530377,0.2723316,1.496851,0.3085699,-0.01923491,0.02095175,-0.1224695,-1.125674,0.5909543,0.1273146,0.4634284,1.492395,0.2254181,-0.110981,1.591275,0.2418542,310.8521,107.9064,137.6246,False
3,1.488891,0.07031907,0.05109113,-0.3609409,-1.248846,1.520105,-1.686363,0.1150037,1.418834,0.3990974,-1.238535,0.01180747,10.8488,13.64902,0.2186751,-0.1265524,-0.06651726,-0.170461,-1.210679,-2.536131,0.2703086,1.497254,0.308326,-0.01041416,0.01765699,-0.08953692,-1.125691,0.5910025,0.127081,0.4615146,1.492814,0.2250273,-0.1135892,1.593036,0.2465287,310.7386,107.641,139.3188,False
3,1.500003,0.0690755,0.0886251,-0.331433,-1.250898,1.517092,-1.686154,0.1134019,1.419378,0.3992162,-1.238729,-0.01789441,10.8488,13.56331,0.1964533,-0.09255237,-0.03330054,-0.1711124,-1.208682,-2.539538,0.2684082,1.497764,0.3079948,-0.00895104,-0.003766685,-0.03952829,-1.124516,0.59,0.1275678,0.4595511,1.49327,0.2245822,-0.1160993,1.594696,0.2509568,310.5809,107.3634,140.988,False
3,1.511114,0.07550502,0.07071233,-0.3120911,-1.25083,1.514109,-1.686296,0.1117765,1.420026,0.3994212,-1.238383,0.03181448,10.87533,13.3919,0.1752732,-0.05854885,-0.002233453,-0.172151,-1.208072,-2.541276,0.2664792,1.498181,0.3078027,-0.006817363,-0.02083284,-0.03426127,-1.124951,0.5891359,0.1280312,0.4575936,1.493728,0.2242079,-0.1184902,1.596159,0.2546271,310.4,107.1434,142.2932,False
3,1.522225,0.06709608,0.03456885,-0.2990088,-1.249551,1.511243,-1.685809,0.1101912,1.420531,0.3995135,-1.238269,0.0100419,10.87533,13.19906,0.1444339,-0.007532969,0.0267969,-0.1742831,-1.211821,-2.538081,0.264648,1.498578,0.3074205,0.002699902,-0.02936727,-0.03969365,-1.125672,0.5885007,0.1279593,0.4556488,1.494184,0.2238545,-0.1207095,1.597369,0.2573124,310.243,107.0512,143.1044,False
3,1.533336,0.04796005,0.01864518,-0.2839834,-1.248922,1.508469,-1.684797,0.1085049,1.420967,0.3995845,-1.238553,-0.02598435,10.87533,13.0705,0.1176728,0.0285968,0.02701321,-0.1751636,-1.219084,-2.531349,0.2628142,1.498884,0.3070028,0.02736066,-0.007084031,-0.02813868,-1.125425,0.5893841,0.126477,0.4537295,1.494701,0.2235384,-0.1227612,1.598351,0.2589388,310.1683,107.0453,143.4964,False
3,1.544447,0.03939595,0.02717562,-0.2787375,-1.249181,1.505388,-1.683971,0.1068786,1.421346,0.3996243,-1.237882,0.06140959,10.87533,13.02764,0.08771901,0.03382062,0.01446371,-0.1749915,-1.222398,-2.528098,0.2609341,1.499274,0.3066137,0.045464,0.0216509,-0.03569904,-1.125961,0.5907891,0.1249545,0.4519144,1.49525,0.2232435,-0.1246385,1.599001,0.2595599,310.2531,107.1963,143.474,False
3,1.555558,0.04048248,0.03366902,-0.2659972,-1.24958,1.502283,-1.683402,0.1052938,1.421955,0.3999779,-1.237264,0.05604399,10.87533,13.02764,0.07152675,0.0891597,0.01247987,-0.1767423,-1.235107,-2.515814,0.2590299,1.499657,0.3061819,0.05922301,0.03976,-0.05069729,-1.126891,0.5921112,0.1232604,0.4500719,1.495783,0.2228661,-0.1263776,1.599286,0.2593142,310.4223,107.4825,143.0812,False
3,1.566669,0.04885885,0.03482915,-0.2649604,-1.250321,1.498887,-1.682409,0.1041643,1.421917,0.4000292,-1.237549,-0.02648843,10.87533,13.0705,0.07667245,0.0849214,-0.01100387,-0.176379,-1.241739,-2.510334,0.2570882,1.49998,0.3058538,0.06040618,0.03546525,-0.0379306,-1.126795,0.5922689,0.1223488,0.4481961,1.496262,0.2225504,-0.1280687,1.599365,0.2584645,310.5848,107.8276,142.3928,False
3,1.577781,0.05846209,0.03060354,-0.2649126,-1.250204,1.495778,-1.682399,0.1026125,1.422295,0.4000378,-1.237906,-0.03232433,10.90185,13.09192,0.06395681,0.1051122,0.006150428,-0.1779279,-1.247376,-2.505133,0.2551208,1.500244,0.3054433,0.04369137,0.02050148,0.002669798,-1.125464,0.5917446,0.122641,0.4463688,1.496718,0.222187,-0.1297504,1.599399,0.2574029,310.7232,108.226,141.4891,False
3,1.588892,0.06484114,0.01783124,-0.269085,-1.250101,1.491871,-1.681337,0.1012006,1.422596,0.4001098,-1.23764,0.02469767,10.90185,13.02764,0.0447145,0.1157028,0.003117003,-0.1789761,-1.254826,-2.49758,0.2532253,1.500747,0.3050294,0.03742489,0.0332819,0.01234048,-1.125025,0.5926408,0.121948,0.4444216,1.497092,0.2219129,-0.1313809,1.59945,0.2565681,310.8333,108.6221,140.6014,False
3,1.600003,0.07340632,0.009441152,-0.2572706,-1.249867,1.489345,-1.681913,0.09919873,1.423391,0.4002275,-1.238506,-0.07949738,10.90185,12.98479,0.02655938,0.1113795,-0.00419338,-0.1794294,-1.260784,-2.491385,0.2513132,1.501253,0.3046961,0.02992054,0.05250041,0.001799058,-1.125199,0.5940462,0.1212694,0.4425929,1.497515,0.2216644,-0.1328602,1.599467,0.2562357,310.9214,108.933,140.0463,False
3,1.611114,0.08404629,0.008531854,-0.2434005,-1.249674,1.48702,-1.682471,0.09763518,1.423769,0.4002855,-1.237795,0.06576321,10.90185,12.89908,0.02437035,0.0964618,-0.0180375,-0.1790534,-1.265705,-2.486866,0.2493217,1.501703,0.3044863,0.03183581,0.06213887,-0.02483108,-1.126364,0.595234,0.1202612,0.4406622,1.497936,0.2215285,-0.1344212,1.599681,0.2564137,311.058,109.1488,139.8126,False
3,1.622225,0.089325,0.01300386,-0.2221822,-1.249608,1.483994,-1.682168,0.09641579,1.424466,0.4002395,-1.238874,-0.09936097,10.90185,12.85623,0.03936576,0.03153645,-0.03628704,-0.1770139,-1.260594,-2.49286,0.2475242,1.502052,0.3042104,0.03239357,0.06759399,-0.08235221,-1.129234,0.5966558,0.1192683,0.438884,1.498304,0.2213411,-0.1361837,1.600196,0.2570805,311.1683,109.3258,139.7692,False
3,1.633336,0.07337415,0.007557839,-0.2296143,-1.249215,1.481123,-1.681551,0.09488881,1.424977,0.400264,-1.238853,0.002818515,10.90185,12.87765,0.04476476,-0.003594965,-0.04273388,-0.1756781,-1.257361,-2.496786,0.2456359,1.502581,0.3038852,0.03641338,0.05805069,-0.1069101,-1.131075,0.5972427,0.1184041,0.4369686,1.498758,0.2210891,-0.1382551,1.60104,0.2581307,311.2348,109.3445,140.0004,False
3,1.644447,0.0585194,-0.00531435,-0.2338216,-1.248187,1.47765,-1.680395,0.09332702,1.425624,0.4002268,-1.238114,0.06733825,10.90185,12.96336,0.04380566,0.007046789,-0.0256786,-0.1762544,-1.258779,-2.495854,0.2438011,1.502952,0.3035648,0.04269534,0.0527285,-0.117634,-1.132532,0.5978296,0.1175013,0.4351819,1.49911,0.2208297,-0.1403858,1.601813,0.2594861,311.1564,109.3549,140.3961,False
3,1.655559,0.0191889,-0.03620851,-0.2176339,-1.24654,1.475803,-1.678682,0.09169415,1.426361,0.4002757,-1.237647,0.04210285,10.90185,13.11335,0.04809554,0.02836425,-0.01292389,-0.1770832,-1.262257,-2.49309,0.2419976,1.503371,0.3033381,0.04808602,0.05909464,-0.1123415,-1.133467,0.5989025,0.116333,0.4333768,1.499524,0.2205896,-0.1424997,1.60253,0.260955,310.9859,109.5265,140.7204,False
3,1.66667,0.004301108,-0.05100882,-0.1983537,-1.245419,1.47425,-1.677808,0.08995727,1.427145,0.4002938,-1.237296,0.03187681,10.90185,13.41333,0.06082594,0.04758664,-0.01089456,-0.1776866,-1.268079,-2.488425,0.2402343,1.503738,0.3031538,0.05801466,0.08350655,-0.08147772,-1.132981,0.6009178,0.1144912,0.4315803,1.499967,0.2203715,-0.1445746,1.603221,0.2623582,310.8787,109.7252,140.9999,False
3,1.677781,0.004360195,-0.0624297,-0.1631281,-1.243949,1.47329,-1.678151,0.08838418,1.427806,0.4003904,-1.2363,0.09090973,10.90185,13.77759,0.09516384,0.01148354,0.003730656,-0.1776211,-1.261936,-2.496749,0.2386595,1.504259,0.3028843,0.0710969,0.075937,-0.04645708,-1.132271,0.6016188,0.1129351,0.4298763,1.500471,0.2199693,-0.1466193,1.603951,0.2635279,310.825,109.9377,141.1919,False
3,1.688892,0.01610318,-0.06549636,-0.1513439,-1.242957,1.472344,-1.678907,0.08629903,1.428424,0.4004641,-1.237092,-0.07304835,10.87533,14.16327,0.0813982,-0.02159461,-0.0004193569,-0.1766869,-1.255483,-2.503479,0.2370921,1.504629,0.3026011,0.06795917,0.04075732,-0.02946366,-1.13219,0.6008637,0.1127423,0.428238,1.500892,0.2197163,-0.1485909,1.604767,0.2643003,310.7564,110.0967,141.3237,False
3,1.700003,0.03851402,-0.07399473,-0.1576281,-1.241619,1.47042,-1.679509,0.08500299,1.428995,0.4003689,-1.23832,-0.1115889,10.8488,14.54896,0.07002088,-0.02697261,0.03908942,-0.1777463,-1.247514,-2.511707,0.2355309,1.505148,0.3021479,0.0681119,-0.001920052,-0.0007983036,-1.131391,0.5991604,0.1127106,0.4265783,1.501345,0.2192533,-0.1504091,1.605607,0.2646253,310.7475,110.1954,141.3775,False
3,1.711114,0.05346895,-0.07727347,-0.1735429,-1.240554,1.46802,-1.679953,0.08342686,1.429505,0.4003074,-1.238843,-0.046921,10.8488,14.89179,0.0532721,-0.006801717,0.08504133,-0.1801554,-1.242652,-2.516459,0.233929,1.505468,0.3015811,0.0638857,-0.02217597,0.008781835,-1.13113,0.5981634,0.1125806,0.4248825,1.501831,0.2188547,-0.1520329,1.606286,0.2645627,310.8862,110.2299,141.3418,False
3,1.722225,0.05349575,-0.0805444,-0.1820352,-1.239286,1.465775,-1.679833,0.08205476,1.430112,0.4001627,-1.238958,-0.01023328,10.82228,15.19177,0.03502583,0.02935425,0.08413443,-0.1817884,-1.246458,-2.512484,0.2323401,1.505828,0.3010876,0.05661386,-0.04458909,0.03543025,-1.129939,0.5965716,0.1128712,0.4232275,1.502236,0.2184179,-0.153639,1.606785,0.2642087,311.101,110.2382,141.2083,False
3,1.733337,0.04081422,-0.08817112,-0.1958611,-1.237374,1.462857,-1.679299,0.08089408,1.430765,0.3999896,-1.238854,0.009451001,10.79576,15.44889,0.02618695,0.07194984,0.06397628,-0.1831467,-1.257378,-2.501713,0.2307962,1.506095,0.300571,0.04927529,-0.03180674,0.04511194,-1.12916,0.5966821,0.1125449,0.4215865,1.502653,0.2181108,-0.1551871,1.606984,0.2637393,311.2634,110.4353,140.8652,False
3,1.744448,0.02909637,-0.08404393,-0.2065673,-1.236274,1.460212,-1.678308,0.07956538,1.431198,0.3999183,-1.238142,0.06490801,10.74271,15.62031,0.01195182,0.1081265,0.03213868,-0.1838875,-1.269386,-2.489656,0.2290011,1.506244,0.300153,0.04079956,0.007633954,0.03887768,-1.129007,0.5980336,0.1116983,0.4198654,1.503067,0.2178438,-0.1568301,1.60704,0.2632968,311.3821,110.7241,140.4151,False
3,1.755559,0.01952185,-0.08306061,-0.2140416,-1.235424,1.457525,-1.677444,0.07798263,1.431451,0.4001126,-1.237842,0.02687877,10.71618,15.79173,0.02451942,0.149723,0.02352312,-0.1857443,-1.283,-2.476947,0.227266,1.506525,0.2996557,0.03239263,0.05132996,0.04012237,-1.128236,0.6002501,0.1107657,0.4182033,1.503425,0.2175097,-0.158575,1.607082,0.2629704,311.3731,111.0893,139.9653,False
3,1.76667,0.02177999,-0.1065072,-0.2149257,-1.232828,1.454989,-1.677241,0.07685682,1.432115,0.4000571,-1.2373,0.0494282,10.68966,15.98457,0.04061124,0.1412541,0.03404707,-0.1871861,-1.284856,-2.476099,0.2255478,1.506891,0.2992177,0.04115487,0.093888,0.05506031,-1.126701,0.6028243,0.1088719,0.4165442,1.503768,0.2172251,-0.1603427,1.607165,0.2628203,311.3318,111.5283,139.5354,False
3,1.777781,0.03151539,-0.1490929,-0.2156132,-1.22955,1.452841,-1.67711,0.07555774,1.432651,0.4000425,-1.23745,-0.01406092,10.68966,16.22027,0.03532172,0.1209958,0.02982419,-0.1877971,-1.287226,-2.473958,0.2240008,1.507231,0.2987309,0.04748465,0.06937032,0.05494731,-1.126064,0.6027838,0.1081419,0.4150336,1.504019,0.2168896,-0.1620917,1.607339,0.2629106,311.3449,111.8589,139.2256,False
3,1.788892,0.04977576,-0.1853073,-0.2227196,-1.226169,1.450482,-1.67764,0.0739643,1.432845,0.4001131,-1.238139,-0.0628256,10.68966,16.47739,0.03335566,0.09009296,0.03621816,-0.1881784,-1.285746,-2.475711,0.2224913,1.507519,0.2982395,0.04408793,0.05237225,0.03789839,-1.126171,0.6027315,0.1078511,0.4135547,1.504297,0.2164404,-0.1638084,1.607606,0.2632789,311.3771,112.0757,139.0831,False
3,1.800003,0.06470996,-0.1927262,-0.2236913,-1.223504,1.448202,-1.677938,0.07272902,1.433273,0.4000537,-1.238168,-0.002135982,10.71618,16.58453,0.03136967,0.08369026,0.05114758,-0.1893976,-1.285033,-2.476683,0.2209936,1.507747,0.2977021,0.02801136,0.04817285,0.02844677,-1.126144,0.60314,0.1079046,0.4120999,1.504592,0.216049,-0.1654403,1.607916,0.2638049,311.3797,112.3379,139.0633,False
3,1.811115,0.07541394,-0.186317,-0.2268997,-1.221209,1.445837,-1.678404,0.07146314,1.433499,0.3999817,-1.23886,-0.06337538,10.76923,16.54168,0.02162954,0.1156195,0.04697926,-0.1913321,-1.293575,-2.46817,0.2194405,1.507931,0.2971361,0.0183917,0.05354054,0.02428902,-1.125837,0.6041732,0.1076191,0.410581,1.50488,0.2156167,-0.1670056,1.608162,0.2643419,311.4758,112.5551,139.1463,False
3,1.822226,0.07421222,-0.1894729,-0.2226507,-1.219305,1.443217,-1.677569,0.07068366,1.433366,0.3999014,-1.238611,0.02333879,10.87533,16.39169,0.02372194,0.1475867,0.05654799,-0.1936251,-1.301947,-2.460203,0.2180253,1.508003,0.2966678,0.008872084,0.04928502,0.03288552,-1.125145,0.6046009,0.1076937,0.4091305,1.505171,0.2152157,-0.1685821,1.608212,0.2648054,311.6335,112.6994,139.2308,False
3,1.833337,0.07416692,-0.1829641,-0.2088565,-1.217263,1.441415,-1.677778,0.06956345,1.433576,0.399838,-1.238691,-0.007651312,10.95491,16.2417,0.02782947,0.1614533,0.04373346,-0.1951362,-1.310707,-2.45206,0.2166908,1.508061,0.2962306,0.01759944,0.05560972,0.05413095,-1.12368,0.6053446,0.1069443,0.4076894,1.505373,0.2148676,-0.1702228,1.60811,0.2651386,311.6758,112.912,139.1737,False
3,1.844448,0.07629412,-0.1924182,-0.1927837,-1.214536,1.440139,-1.678126,0.06809589,1.434169,0.3997324,-1.237451,0.1134372,11.03448,16.09171,0.02566966,0.1667754,0.04267978,-0.1966963,-1.31739,-2.445673,0.2152986,1.508311,0.2958522,0.01869737,0.0598594,0.05733639,-1.122764,0.6061283,0.1064484,0.4061906,1.505676,0.2144601,-0.1718492,1.607773,0.2653745,311.6558,113.1986,139.0022,False
3,1.855559,0.08913274,-0.2059972,-0.1660296,-1.211404,1.439244,-1.67969,0.06753495,1.434802,0.399544,-1.238083,-0.05877582,11.08753,15.85601,0.02680764,0.1412127,0.04053435,-0.1974324,-1.319082,-2.444332,0.2142658,1.508356,0.2956042,0.03061406,0.06191257,0.07853961,-1.121084,0.6067942,0.1054047,0.4048284,1.505933,0.2140353,-0.1733439,1.60723,0.2655315,311.5525,113.5824,138.7144,False
3,1.86667,0.1114883,-0.1992822,-0.1351636,-1.208732,1.438675,-1.681885,0.06670189,1.435049,0.3992412,-1.23814,-0.004536011,11.14058,15.53461,0.03312223,0.0933043,0.009578623,-0.1964449,-1.320009,-2.444106,0.2131293,1.508456,0.2952478,0.02961749,0.04803913,0.08916686,-1.119857,0.6066691,0.105103,0.4035613,1.506078,0.2136166,-0.1747908,1.606847,0.2655213,311.4644,113.9472,138.3742,False
3,1.877781,0.1199385,-0.1853051,-0.1235468,-1.206997,1.437772,-1.683144,0.06586012,1.435133,0.3990405,-1.239172,-0.09450115,11.16711,15.25605,0.04056225,0.06350581,-0.005403522,-0.1958206,-1.320651,-2.444188,0.2120232,1.508525,0.2948971,0.02962412,0.03524598,0.0933992,-1.118679,0.6064826,0.1048564,0.4022889,1.506349,0.213171,-0.1753408,1.606853,0.2653209,311.1558,114.2317,137.9604,False
3,1.888893,0.1347892,-0.1723168,-0.1065783,-1.205588,1.437326,-1.685216,0.06486812,1.43463,0.399019,-1.23968,-0.04567469,11.16711,15.23462,0.02530104,0.08796877,-0.03723766,-0.1959602,-1.333569,-2.431269,0.2109461,1.508468,0.2945981,0.03812424,0.01711475,0.09541462,-1.11758,0.6059693,0.1043152,0.4010549,1.506624,0.2127643,-0.1755291,1.60714,0.2649893,311.5231,114.602,137.6772,False
3,1.900004,0.1442775,-0.1592986,-0.08216196,-1.204121,1.437464,-1.687027,0.06424263,1.434532,0.3988564,-1.238747,0.08551356,11.14058,15.38461,0.02072962,0.1614594,-0.04251277,-0.1983363,-1.3519,-2.41326,0.2101396,1.50851,0.2943447,0.05319434,0.008511905,0.114435,-1.11569,0.6056113,0.1033466,0.399926,1.506889,0.2122552,-0.1753777,1.607394,0.2646541,311.8994,114.6776,137.652,False
3,1.911115,0.1590527,-0.1365886,-0.04929601,-1.203528,1.43815,-1.689535,0.06357497,1.434088,0.3988938,-1.239152,-0.03790588,11.11406,15.59888,0.02901122,0.2072991,-0.05215864,-0.2002798,-1.369349,-2.396758,0.2094986,1.50848,0.294131,0.07583306,-0.004401818,0.1472255,-1.113072,0.6047754,0.1021197,0.3987992,1.507122,0.2116573,-0.1750514,1.607613,0.2643734,312.2732,114.4641,137.7908,False
3,1.922226,0.1599842,-0.1129547,-0.02605341,-1.203037,1.438774,-1.691394,0.06311715,1.433836,0.3987558,-1.238627,0.04833063,11.14058,15.79173,0.04275964,0.2073529,-0.06398645,-0.2009158,-1.380703,-2.386504,0.2088168,1.508488,0.2938006,0.1062536,-0.01315319,0.2140456,-1.108733,0.6037906,0.1004419,0.3977652,1.507362,0.211097,-0.1745862,1.607828,0.2641659,312.7625,114.012,138.1273,False
3,1.933337,0.1641359,-0.08288792,0.001390498,-1.202735,1.439455,-1.694171,0.06323853,1.433975,0.3984289,-1.238956,-0.03065735,11.14058,15.94172,0.07145621,0.1840225,-0.08233735,-0.2006532,-1.390683,-2.378533,0.2083947,1.508577,0.2936447,0.1290238,-0.02396762,0.260689,-1.104385,0.6025895,0.09878384,0.3968021,1.507567,0.2105191,-0.1741692,1.607857,0.2640768,313.1396,113.8132,138.2912,False
3,1.944448,0.1661607,-0.05936896,0.009723883,-1.203021,1.439862,-1.696175,0.06245425,1.433403,0.3984563,-1.238286,0.06153435,11.14058,16.07028,0.1013087,0.1106261,-0.111356,-0.1981711,-1.393051,-2.378357,0.2079043,1.50869,0.2934632,0.1460857,-0.04426815,0.2679468,-1.101428,0.6009563,0.09737795,0.39599,1.507731,0.2099302,-0.1738152,1.607881,0.2640712,313.4404,113.5945,138.5086,False
3,1.955559,0.1702878,-0.02416435,0.0136958,-1.204074,1.440037,-1.69825,0.06219622,1.4331,0.3983924,-1.239022,-0.06791245,11.16711,16.2417,0.1012674,0.08506554,-0.1273446,-0.196765,-1.400329,-2.372268,0.2073607,1.508838,0.2932193,0.1275822,-0.06224662,0.2297222,-1.100386,0.5993643,0.09733667,0.3952747,1.507896,0.2093544,-0.1735467,1.607824,0.2640395,313.7291,113.5362,138.6224,False
3,1.966671,0.1744421,-0.001720056,0.02098036,-1.204758,1.440612,-1.700342,0.06195477,1.432918,0.3984177,-1.238358,0.06125189,11.22016,16.28455,0.1022116,0.08507788,-0.1422707,-0.1961083,-1.412307,-2.361588,0.2068843,1.508998,0.2930272,0.1066564,-0.08334377,0.1595545,-1.101303,0.5976139,0.09761976,0.3947027,1.507998,0.2087843,-0.1734748,1.607803,0.2639257,313.8806,113.6875,138.5756,False
3,1.977782,0.1690718,0.01524798,0.01337029,-1.205641,1.440389,-1.701984,0.06158188,1.432568,0.3984196,-1.238361,-0.0009194223,11.29973,16.3274,0.1172249,0.08406264,-0.1306753,-0.1959996,-1.419345,-2.356485,0.2063984,1.509041,0.2927423,0.1028238,-0.12475,0.1009021,-1.10256,0.5945594,0.09800593,0.3943002,1.508059,0.2082031,-0.1732818,1.607852,0.2638647,314.0401,113.5563,138.6513,False
3,1.988893,0.1584512,0.02986247,-0.01661724,-1.205711,1.438525,-1.703086,0.06206268,1.432789,0.3983324,-1.238204,0.01441103,11.37931,16.43454,0.1267287,0.08516774,-0.1403428,-0.1953839,-1.429956,-2.347812,0.205878,1.509053,0.2924378,0.1130794,-0.1427877,0.06242788,-1.102989,0.5924246,0.09730978,0.3938303,1.508123,0.207552,-0.1730762,1.6079,0.2640414,314.1072,113.1519,138.9586,False
3,2.000004,0.1339491,0.04441054,-0.04874427,-1.206396,1.436701,-1.702876,0.06187364,1.432872,0.3982778,-1.237998,0.01872388,11.48541,16.60596,0.1129976,0.08404992,-0.1263812,-0.1953732,-1.436453,-2.342189,0.2054413,1.509189,0.2921042,0.1075648,-0.1405959,0.04117606,-1.103434,0.5908188,0.09702961,0.3933754,1.508256,0.2069895,-0.1728901,1.60801,0.264306,314.1008,112.678,139.3591,False
3,2.011115,0.1158295,0.06011591,-0.07341568,-1.207377,1.43472,-1.702818,0.061775,1.432872,0.398289,-1.238015,-0.001720926,11.56498,16.77737,0.1014897,0.08824875,-0.09965835,-0.1959474,-1.440683,-2.338789,0.2051689,1.509235,0.2918739,0.06497927,-0.140484,0.04369271,-1.102912,0.5892966,0.09850367,0.3929542,1.508438,0.2066042,-0.172748,1.608071,0.2645819,314.0817,112.2428,139.7385,False
3,2.022226,0.1030662,0.06530842,-0.0820018,-1.20769,1.433578,-1.703427,0.06140062,1.432516,0.3984947,-1.236733,0.1172983,11.64456,16.99164,0.09000799,0.0956481,-0.06759956,-0.1970654,-1.443553,-2.33662,0.2048286,1.509161,0.2916746,0.03958413,-0.145793,0.06415324,-1.101643,0.5871103,0.100006,0.3925179,1.508552,0.2061296,-0.1727544,1.608137,0.2648139,313.9298,111.9479,139.9475,False
3,2.033337,0.08501775,0.05449878,-0.0926013,-1.20775,1.432046,-1.703163,0.06121245,1.432668,0.3985801,-1.236904,-0.0165696,11.72414,17.22734,0.0996516,0.08715894,-0.06448459,-0.197149,-1.448194,-2.333479,0.2045042,1.509292,0.2915123,0.03348927,-0.1298697,0.09301663,-1.099474,0.5858286,0.1004611,0.392136,1.50866,0.2057312,-0.1728715,1.608202,0.2649764,313.6809,111.6609,140.0356,False
3,2.044448,0.08612872,0.04376355,-0.1020905,-1.207563,1.430659,-1.703504,0.06108895,1.432711,0.3986347,-1.23743,-0.04785157,11.77719,17.48446,0.1081781,0.07120866,-0.07094566,-0.1965754,-1.452563,-2.330724,0.204184,1.509483,0.291333,0.03045285,-0.1000597,0.1016325,-1.098097,0.5855863,0.1001908,0.3918742,1.508842,0.2053688,-0.1728961,1.608288,0.2651072,313.5037,111.3415,140.1251,False
3,2.055559,0.09470744,0.02784806,-0.09767044,-1.207209,1.429849,-1.704684,0.06070414,1.43256,0.398524,-1.236859,0.05272713,11.77719,17.67731,0.1039158,0.05095513,-0.08050939,-0.1954941,-1.456969,-2.327446,0.2039005,1.510021,0.2912302,-0.008129839,-0.09137853,0.07430363,-1.098275,0.5848861,0.1019261,0.3916549,1.509096,0.2050774,-0.1727279,1.608356,0.2652163,313.5151,110.9524,140.298,False
3,2.06667,0.1138749,0.02268318,-0.08692665,-1.207284,1.429393,-1.706421,0.06057337,1.432646,0.3985598,-1.237445,-0.05394914,11.77719,17.74159,0.1041618,0.02964278,-0.05921011,-0.195353,-1.455382,-2.33011,0.2037252,1.510497,0.29111,-0.04034518,-0.1050917,0.05005815,-1.098756,0.583048,0.1042502,0.3915229,1.509286,0.2047722,-0.1726848,1.60859,0.2651849,313.6144,110.5582,140.5329,False
3,2.077781,0.1299024,-0.001654863,-0.0738993,-1.206268,1.429293,-1.70817,0.0605759,1.432945,0.3985403,-1.238217,-0.07006416,11.72414,17.69873,0.07979701,0.01570523,-0.04836021,-0.1949924,-1.454795,-2.330765,0.2034481,1.510891,0.2909172,-0.07674456,-0.1230786,0.03543428,-1.099121,0.5807959,0.1073976,0.391286,1.509512,0.2045045,-0.1726475,1.608621,0.2651608,313.6108,110.4511,140.5205,False
3,2.088892,0.1193338,-0.0219596,-0.0769476,-1.205342,1.428318,-1.708814,0.06035635,1.433241,0.3984725,-1.238711,-0.04464281,11.67109,17.69873,0.03293204,0.0517545,-0.03199016,-0.1963362,-1.460796,-2.323702,0.2031217,1.511411,0.290719,-0.07772478,-0.1199035,0.04397754,-1.098304,0.5793067,0.1088748,0.3911856,1.509635,0.2042336,-0.1725627,1.608641,0.2651181,313.6738,110.4023,140.5143,False
3,2.100003,0.108703,-0.03054461,-0.07902096,-1.204505,1.427538,-1.709161,0.0603115,1.433405,0.3984802,-1.238574,0.01279712,11.59151,17.84872,0.01702735,0.09004284,-0.006283324,-0.1986271,-1.465757,-2.318474,0.2028303,1.511716,0.2905588,-0.07014003,-0.1114261,0.05564638,-1.09739,0.5781348,0.1099348,0.3909904,1.509844,0.2039492,-0.172479,1.608649,0.2650922,313.7344,110.343,140.5181,False
3,2.111114,0.08849822,-0.03909636,-0.07261644,-1.203431,1.426733,-1.709353,0.06075889,1.43432,0.3983924,-1.237715,0.07840274,11.51194,17.76302,-0.006420217,0.1432201,0.01522518,-0.2017116,-1.474229,-2.309416,0.2025372,1.511874,0.2904825,-0.05092958,-0.1200064,0.06185014,-1.096562,0.5762628,0.1106173,0.3907045,1.509987,0.2037063,-0.1724737,1.608663,0.265058,313.7343,110.3527,140.4802,False
3,2.122225,0.06825012,-0.05287978,-0.05659802,-1.202415,1.426212,-1.708887,0.06091985,1.43435,0.3985834,-1.237274,0.03963391,11.45889,17.33447,0.00336678,0.1485749,0.0417777,-0.2039342,-1.475331,-2.308698,0.2024189,1.512151,0.290484,-0.05753471,-0.1455234,0.04480631,-1.096972,0.5734057,0.1127004,0.3905033,1.510065,0.2035379,-0.1725152,1.608695,0.2650089,313.6796,110.3728,140.3995,False
3,2.133336,0.05654812,-0.06662905,-0.03946169,-1.201256,1.426566,-1.709216,0.06085435,1.43456,0.3986633,-1.237169,0.00940269,11.40584,16.75595,0.03856215,0.1007643,0.02549791,-0.2032791,-1.474278,-2.311449,0.2023592,1.512375,0.2905114,-0.05777262,-0.1465258,0.01923668,-1.097809,0.5717508,0.1141961,0.3903919,1.510165,0.2035003,-0.1726055,1.608712,0.2649557,313.5854,110.4407,140.2736,False
3,2.144447,0.05235858,-0.07832971,-0.03405059,-1.199739,1.426417,-1.710137,0.06047937,1.43474,0.3988669,-1.236522,0.05922391,11.32626,16.22027,0.05230428,0.04862407,-0.0108465,-0.2014181,-1.475459,-2.311359,0.2020966,1.512467,0.2904558,-0.05476506,-0.1326269,-0.005262677,-1.098752,0.5708995,0.1150464,0.390232,1.51023,0.2033935,-0.1728733,1.608683,0.2648913,313.3669,110.6485,140.0367,False
3,2.155558,0.04390996,-0.09124348,-0.0456792,-1.198164,1.425676,-1.710035,0.06040075,1.434916,0.3989434,-1.237076,-0.05103968,11.27321,15.70602,0.0554495,0.02839848,-0.02579181,-0.2003379,-1.476814,-2.310736,0.2018821,1.512496,0.2905135,-0.0517471,-0.1102059,-0.03080783,-1.100062,0.5705984,0.1156323,0.3900776,1.510285,0.2032387,-0.1730152,1.608646,0.2648423,313.263,110.7574,139.8919,False
3,2.166669,0.03748469,-0.09768845,-0.05098207,-1.197086,1.424736,-1.708996,0.06043479,1.43506,0.3990951,-1.238021,-0.08584391,11.24668,15.19177,0.06186892,0.03374598,-0.01944362,-0.2009557,-1.47834,-2.310042,0.2016716,1.512637,0.2904789,-0.04643524,-0.1080876,-0.03404684,-1.100628,0.5692948,0.1164259,0.3898632,1.510321,0.2030265,-0.1730172,1.60866,0.2647773,313.2698,110.7998,139.8194,False
3,2.17778,0.03650138,-0.1084234,-0.05940735,-1.195343,1.424088,-1.709488,0.05989838,1.434956,0.399056,-1.237363,0.06085238,11.19363,14.54896,0.06192328,0.06144194,-0.001336258,-0.2026474,-1.482425,-2.306811,0.2014011,1.512657,0.2903802,-0.0334776,-0.1454657,-0.00442012,-1.1,0.5659319,0.1179474,0.3896185,1.510387,0.2028749,-0.172896,1.608681,0.2646985,313.3684,110.7526,139.7862,False
3,2.188891,0.03760648,-0.1222758,-0.05927883,-1.193341,1.423847,-1.709712,0.05953664,1.435337,0.3991232,-1.2365,0.07839298,11.19363,13.90615,0.05235376,0.0720636,0.006203949,-0.2037473,-1.485021,-2.304405,0.2012173,1.512825,0.2902703,-0.03646684,-0.1487077,0.01903494,-1.099222,0.5638425,0.1194287,0.3893477,1.5104,0.2027309,-0.1727724,1.608679,0.2646114,313.4793,110.7457,139.7207,False
3,2.200002,0.04296646,-0.1308195,-0.06448372,-1.191774,1.423761,-1.710317,0.05890149,1.435442,0.3993154,-1.237947,-0.1329094,11.19363,13.56331,0.02683716,0.08262353,0.0170686,-0.2051018,-1.487129,-2.301717,0.200981,1.51281,0.2901521,-0.05205237,-0.1274468,0.05651232,-1.097314,0.562802,0.12103,0.3890097,1.510399,0.2025626,-0.1727347,1.608674,0.2645271,313.5227,110.7896,139.6241,False
3,2.211113,0.0354659,-0.1201765,-0.0624584,-1.190702,1.423244,-1.710278,0.05873302,1.435519,0.399389,-1.237764,0.01804287,11.19363,13.3919,0.008824319,0.1198398,0.04598873,-0.2080296,-1.490321,-2.297995,0.2007512,1.512751,0.2900987,-0.05163663,-0.0763858,0.08857968,-1.095296,0.5635823,0.1212774,0.3886313,1.510283,0.2024662,-0.1726674,1.608704,0.2644276,313.59,110.8211,139.5536,False
3,2.222224,0.02793248,-0.1062765,-0.05300137,-1.189948,1.423099,-1.710194,0.05855647,1.435593,0.3994596,-1.238063,-0.02760374,11.19363,13.13477,0.01418741,0.1134669,0.04807721,-0.2092866,-1.491342,-2.297312,0.2005267,1.512895,0.2901297,-0.0440752,-0.05618092,0.0938811,-1.094092,0.5633964,0.1215009,0.3882858,1.510282,0.2024336,-0.172642,1.608748,0.2642956,313.6113,110.8756,139.4226,False
3,2.233335,0.02466597,-0.09552896,-0.04029755,-1.189265,1.423476,-1.710431,0.05838302,1.435908,0.3995872,-1.237633,0.03955954,11.22016,12.87765,0.03773509,0.05708872,0.03721495,-0.2082454,-1.487119,-2.302662,0.2004124,1.513065,0.2903349,-0.03376314,-0.06465185,0.05967874,-1.094694,0.5622541,0.1221595,0.3880631,1.510262,0.2023971,-0.1725751,1.608771,0.264171,313.6627,110.8714,139.3102,False
3,2.244446,0.01820897,-0.08903477,-0.02543451,-1.188549,1.424067,-1.710503,0.05830321,1.436005,0.3997493,-1.237436,0.01777017,11.24668,12.62053,0.0376506,0.009156235,0.006310625,-0.2064791,-1.485449,-2.304727,0.2002142,1.51311,0.2904401,-0.04385217,-0.07623099,0.007537279,-1.096542,0.5610473,0.1234644,0.3878835,1.510296,0.2023849,-0.1725046,1.608774,0.2640839,313.7292,110.8905,139.2298,False
3,2.255557,0.008611625,-0.08694607,-0.02546426,-1.187538,1.424033,-1.710229,0.05819085,1.436206,0.3997324,-1.237604,-0.01549426,11.27321,12.32055,0.03637644,0.02832896,-0.01071854,-0.2067572,-1.490869,-2.299761,0.2000829,1.513179,0.290597,-0.04605099,-0.07301987,0.0001094639,-1.09682,0.5601926,0.1245688,0.3876267,1.5103,0.202347,-0.1725014,1.608782,0.264031,313.7303,110.917,139.161,False
3,2.266668,2.488075E-05,-0.07207702,-0.02666857,-1.187142,1.423754,-1.709648,0.0581165,1.436228,0.3997731,-1.237439,0.01524265,11.29973,11.95629,0.03208123,0.04642621,-0.006412355,-0.2078853,-1.494217,-2.296613,0.199962,1.513319,0.2906849,-0.03535487,-0.07092428,0.004274197,-1.096632,0.559395,0.1249646,0.3874301,1.510386,0.202281,-0.1725798,1.608793,0.2639998,313.6528,110.9488,139.0838,False
