loc,t,aDotS,bDotS,gDotS,aS,bS,gS,xS,yS,zS,qE,qDotE,emgA,emgB,aDotSH,bDotSH,gDotSH,aSH,bSH,gSH,xSH,ySH,zSH,aDotUB,bDotUB,gDotUB,aUB,bUB,gUB,xUB,yUB,zUB,xHand,yHand,zHand,aHand,bHand,gHand,enable
1,0,0.1759724,-0.586447,0.445328,4.710352,1.553881,-2.959291,0.3343124,1.182017,0.4832675,-1.496508,-0.007816074,11.48541,13.58474,-0.4226413,0.36366,0.1077776,-0.7949621,-3.502006,-0.4528719,0.2939605,1.392725,0.4239779,-0.2016239,0.33781,0.1022704,-0.8949622,0.8228554,-0.3463888,0.4623199,1.503902,0.3148682,0.04469536,1.113018,0.4102192,288.3279,292.5204,326.8658,True
1,0.01111111,0.1705947,-0.593937,0.4464483,4.706795,1.561516,-2.960897,0.333103,1.181679,0.4813509,-1.496402,0.009820555,11.56498,13.60617,-0.4065971,0.3477149,0.11192,-0.7951725,-3.496915,-0.4524506,0.2928779,1.392565,0.4223895,-0.2016762,0.329296,0.0969381,-0.8951902,0.8273634,-0.3470373,0.4619544,1.503841,0.314044,0.0438722,1.112796,0.4068528,287.9952,290.266,329.0075,True
1,0.02222222,0.166344,-0.5939451,0.4464498,4.703184,1.568806,-2.962576,0.3318482,1.181277,0.4792931,-1.496897,-0.0452982,11.59151,13.6276,-0.3937116,0.3264299,0.1192639,-0.7949962,-3.492321,-0.4517672,0.2919456,1.392535,0.4207361,-0.1985389,0.3048086,0.09153476,-0.8952967,0.8309359,-0.3471715,0.4616013,1.503701,0.3130276,0.04321661,1.112033,0.4018878,288.2738,289.6515,328.9375,True
1,0.03333334,0.1588518,-0.597213,0.4400868,4.699862,-4.706813,-2.963843,0.3306139,1.180976,0.4774497,-1.4966,0.02758527,11.64456,13.67045,-0.3829306,0.3008772,0.1298179,-0.7943869,-3.48806,-0.4507909,0.2910805,1.392502,0.4191577,-0.2017748,0.294167,0.08729476,-0.8954682,0.8348917,-0.347362,0.4611551,1.503617,0.3121853,0.04270699,1.110824,0.3957017,288.7167,289,328.4688,True
1,0.04444445,0.1492522,-0.6047781,0.4284229,4.696892,-4.699094,-2.96495,0.3293906,1.180748,0.4755569,-1.496695,-0.008966933,11.67109,13.71331,-0.3658459,0.2838822,0.1286136,-0.7943528,-3.483855,-0.450283,0.2902277,1.392473,0.4174874,-0.2007728,0.2888511,0.08195122,-0.8957894,0.838983,-0.3476222,0.4608216,1.503595,0.3113251,0.04238747,1.109358,0.3888079,289.2167,287.8993,328.1868,True
1,0.05555556,0.141804,-0.6134462,0.4082414,4.694417,-4.691407,-2.966137,0.328182,1.180471,0.4737566,-1.496377,0.0292588,11.67109,13.75616,-0.3477675,0.2849964,0.1242321,-0.7946298,-3.479069,-0.4504138,0.2893741,1.392401,0.4159138,-0.2019502,0.2856728,0.07130757,-0.8963913,0.8428696,-0.3477747,0.4604461,1.503525,0.3104391,0.0421835,1.107837,0.3817507,289.7297,286.6596,327.9672,True
1,0.06666667,0.1257412,-0.5965995,0.3836514,4.692225,-4.68496,-2.966832,0.3269719,1.180297,0.4720395,-1.496277,0.008945065,11.67109,13.79901,-0.33928,0.2871507,0.1199133,-0.7949967,-3.474187,-0.4503472,0.2884974,1.392285,0.4142025,-0.2030033,0.2771499,0.07344333,-0.896412,0.8467568,-0.3478048,0.4601649,1.503438,0.3095703,0.04194626,1.107286,0.3762653,289.3658,282.9034,331.2438,True
1,0.07777778,0.1022559,-0.5936648,0.3506458,4.690578,-4.678229,-2.966988,0.3257374,1.180082,0.4704425,-1.49645,-0.01585016,11.64456,13.82044,-0.3361261,0.2701239,0.1081568,-0.7952412,-3.470708,-0.4490582,0.287748,1.39219,0.4125574,-0.2008649,0.2728793,0.07447816,-0.8965468,0.8505002,-0.3479686,0.4598722,1.503375,0.3086586,0.04160165,1.107072,0.3713439,289.8068,284.5706,328.5395,True
1,0.08888889,0.08083187,-0.5834219,0.2952165,4.690241,-4.671789,-2.966955,0.3244889,1.179953,0.4689198,-1.496061,0.03583493,11.56498,13.84187,-0.3286059,0.2669545,0.1155494,-0.795221,-3.466022,-0.4489496,0.2870378,1.392094,0.4109735,-0.1977671,0.2654416,0.06591537,-0.8970181,0.854081,-0.3480432,0.4596175,1.503191,0.3077579,0.04130517,1.106785,0.3666665,290.0463,285.4684,326.8762,True
1,0.1,0.06695441,-0.5878951,0.2643644,4.689515,-4.665083,-2.967031,0.3232481,1.179951,0.4673052,-1.495611,0.04083953,11.51194,13.82044,-0.3157561,0.2573909,0.1218426,-0.7949552,-3.461808,-0.4488463,0.2862125,1.392112,0.409313,-0.1989062,0.2579968,0.05952428,-0.8974773,0.8574709,-0.3478317,0.4593217,1.503189,0.3069177,0.04090915,1.106743,0.3628056,289.9863,284.6409,327.2847,True
1,0.1111111,0.03702832,-0.5733787,0.21531,4.689757,-4.65908,-2.966384,0.3220402,1.179881,0.4658375,-1.495536,0.006625786,11.40584,13.77759,-0.3092757,0.249936,0.1313874,-0.7943555,-3.457549,-0.4487083,0.2854278,1.392019,0.4077477,-0.1968447,0.2558713,0.05310048,-0.8980973,0.8608052,-0.3477918,0.4589992,1.503194,0.3059957,0.04039715,1.106697,0.359411,290.063,284.8126,326.673,True
1,0.1222222,0.01354665,-0.5682985,0.1865467,4.689771,-4.652957,-2.965614,0.3208209,1.179893,0.4641793,-1.495823,-0.02605716,11.32626,13.71331,-0.306068,0.2510061,0.133497,-0.794177,-3.453096,-0.448569,0.2846355,1.392074,0.406167,-0.2000347,0.2601357,0.05421069,-0.8985031,0.8648571,-0.34793,0.4586999,1.503158,0.3051579,0.03991607,1.106655,0.3564462,290.106,284.3858,326.8733,True
1,0.1333333,-0.01534517,-0.548398,0.1470366,4.69054,-4.647575,-2.964246,0.3196265,1.180017,0.4627686,-1.49529,0.04906321,11.27321,13.6276,-0.3061043,0.2648554,0.1324561,-0.794315,-3.447914,-0.4488585,0.283882,1.392065,0.4045951,-0.198979,0.2569319,0.0531259,-0.8989042,0.86818,-0.3478933,0.4583731,1.503106,0.3042138,0.03937767,1.106686,0.3538578,290.0845,284.0208,327.175,True
1,0.1444445,-0.03354659,-0.5316187,0.112862,4.691466,-4.64239,-2.963203,0.3184006,1.180149,0.461293,-1.495301,-0.001318358,11.22016,13.56331,-0.2996758,0.2755103,0.1420101,-0.7940966,-3.442485,-0.4495687,0.2831494,1.392148,0.4030039,-0.1989704,0.2420267,0.05415958,-0.8991466,0.8711566,-0.3475476,0.458147,1.502983,0.3033025,0.03868311,1.106715,0.351321,290.1023,284.1975,326.8883,True
1,0.1555556,-0.04215911,-0.5179668,0.086156,4.692344,-4.637025,-2.962269,0.3172954,1.180269,0.4598844,-1.494914,0.03557548,11.19363,13.54189,-0.2868398,0.2797972,0.1515094,-0.7937722,-3.437197,-0.4505027,0.2824578,1.392163,0.4014974,-0.1925828,0.2196532,0.055118,-0.8991333,0.8735103,-0.3469681,0.4579197,1.502884,0.3023815,0.03792159,1.106747,0.3486152,290.1578,284.2267,326.6853,True
1,0.1666667,-0.055013,-0.5021452,0.06689288,4.693154,-4.632033,-2.961186,0.3163084,1.180274,0.4584923,-1.495418,-0.04619387,11.14058,13.54189,-0.2654791,0.2734567,0.1566786,-0.7933797,-3.432471,-0.4515752,0.2819313,1.392201,0.3999996,-0.1861948,0.1983463,0.05501363,-0.8990619,0.8755457,-0.3463838,0.4577137,1.502854,0.3013237,0.03712958,1.10684,0.3457443,290.2034,283.8132,326.7941,True
1,0.1777778,-0.06898674,-0.4692339,0.05713017,4.693508,-4.627702,-2.959892,0.315219,1.180333,0.4570684,-1.495788,-0.03323891,11.11406,13.56331,-0.2493975,0.2585596,0.1672109,-0.792374,-3.428132,-0.4522761,0.2814694,1.392463,0.3985131,-0.1809119,0.1781172,0.05173542,-0.8990262,0.8775308,-0.3456953,0.4575547,1.502858,0.3002763,0.03639451,1.107065,0.342792,290.1954,283.2448,327.0064,True
1,0.1888889,-0.08398803,-0.4469232,0.05594581,4.693693,-4.623322,-2.958306,0.3142349,1.180304,0.4557076,-1.495825,-0.002967183,11.06101,13.6276,-0.2387275,0.2394276,0.1617968,-0.7918345,-3.424391,-0.452605,0.2810929,1.392554,0.3971002,-0.1723832,0.1504165,0.05266249,-0.8986794,0.8785904,-0.3447611,0.4573581,1.502834,0.2991557,0.0358243,1.10742,0.3398192,290.1143,282.7704,327.1037,True
1,0.2,-0.10862,-0.4075899,0.05572147,4.693798,-4.620113,-2.956265,0.3133165,1.180476,0.454447,-1.495748,0.007021569,11.00796,13.71331,-0.206586,0.209654,0.1785884,-0.7901535,-3.421131,-0.4536679,0.2806695,1.392656,0.3956804,-0.1648871,0.1163155,0.05679269,-0.8979273,0.8791735,-0.3435627,0.4572707,1.502695,0.2980413,0.03536783,1.107866,0.3368787,289.9875,282.4261,327.0644,True
1,0.2111111,-0.134343,-0.365072,0.05442929,4.693768,-4.61729,-2.953791,0.3124315,1.180535,0.4531693,-1.495604,0.01323014,10.98143,13.82044,-0.1587454,0.1554818,0.143045,-0.7898195,-3.4209,-0.4536857,0.2802214,1.392649,0.3944259,-0.150985,0.1099066,0.06196343,-0.8974214,0.8806826,-0.3432855,0.4569837,1.502675,0.2969079,0.03487249,1.108373,0.3340221,289.8638,282.1853,326.9398,True
1,0.2222222,-0.1643225,-0.3248044,0.03504272,4.694469,-4.615066,-2.950988,0.3115718,1.180691,0.4519048,-1.49529,0.02874019,10.98143,13.92758,-0.1344019,0.144921,0.1151719,-0.7901109,-3.419015,-0.4543196,0.2797135,1.392787,0.3930709,-0.1445495,0.104581,0.06615068,-0.8969575,0.8824891,-0.3430034,0.4568106,1.502625,0.2958603,0.03434587,1.108929,0.3313043,289.7589,281.9657,326.8092,True
1,0.2333333,-0.1793236,-0.3046609,0.02748204,4.694965,-4.61221,-2.948375,0.3105826,1.180848,0.4506564,-1.495027,0.02395679,10.98143,14.01328,-0.106776,0.1290284,0.09898043,-0.7901236,-3.417414,-0.4550796,0.279229,1.392872,0.3919454,-0.1391979,0.0928565,0.06926534,-0.8963785,0.8836028,-0.3422253,0.4565199,1.502647,0.2947762,0.03374445,1.109567,0.3288169,289.6864,281.7167,326.7261,True
1,0.2444444,-0.1900458,-0.2877412,0.01247668,4.695875,-4.609674,-2.945895,0.3096054,1.181172,0.4494405,-1.494901,0.01153682,10.98143,14.05614,-0.1045807,0.1226328,0.1064152,-0.7893183,-3.415057,-0.4556237,0.2787427,1.392944,0.3906338,-0.1403176,0.07582459,0.06498884,-0.8959113,0.8843021,-0.3409429,0.4562499,1.502617,0.293751,0.0330416,1.11031,0.326618,289.5882,281.527,326.6638,True
1,0.2555556,-0.2060626,-0.283584,0.003945464,4.696726,-4.60661,-2.942861,0.3086335,1.181392,0.4482729,-1.495333,-0.03935425,10.98143,14.09899,-0.09809677,0.1237075,0.1202143,-0.7884459,-3.412035,-0.456852,0.2783654,1.393038,0.3894677,-0.141417,0.07156923,0.06179677,-0.8955784,0.8853387,-0.3399704,0.4559891,1.502555,0.2927141,0.03222147,1.111182,0.3247252,289.4513,281.3545,326.6827,True
1,0.2666667,-0.2327223,-0.2826883,-0.008820523,4.697898,-4.603475,-2.939258,0.3076048,1.181576,0.4470997,-1.495718,-0.0347031,11.00796,14.12042,-0.09384812,0.1301106,0.1201957,-0.7879569,-3.40902,-0.4581135,0.2779215,1.393034,0.3880935,-0.1392126,0.07689011,0.06923676,-0.8950453,0.8871967,-0.3395749,0.4557807,1.50243,0.2916255,0.03130253,1.112186,0.3230738,289.2839,281.3064,326.6786,True
1,0.2777778,-0.2689884,-0.2743861,-0.02588214,4.699362,-4.600906,-2.935089,0.3064412,1.18173,0.4459226,-1.495391,0.03033137,11.03448,14.14185,-0.0831564,0.1471676,0.1318656,-0.7872528,-3.40501,-0.4604036,0.277671,1.393105,0.3868353,-0.12745,0.06089941,0.07334584,-0.8941222,0.8876984,-0.3389189,0.4556,1.502411,0.2905188,0.03035871,1.113304,0.3215856,289.0782,281.3094,326.681,True
1,0.2888889,-0.2988381,-0.2692509,-0.03972151,4.700719,-4.598169,-2.930852,0.3053137,1.181811,0.4447808,-1.494981,0.03724314,11.03448,14.1847,-0.08618334,0.1726846,0.1670772,-0.7856,-3.399545,-0.4631216,0.2774428,1.39302,0.3855116,-0.1157921,0.02575772,0.06784373,-0.8932221,0.8869301,-0.3375637,0.4554527,1.502372,0.2894924,0.02942014,1.114499,0.3201489,288.8278,281.3795,326.6407,True
1,0.3,-0.3628507,-0.2472135,-0.06109376,4.702577,-4.596515,-2.924609,0.304009,1.182018,0.4437521,-1.49461,0.03387942,11.00796,14.27041,-0.09783049,0.1683827,0.1767345,-0.7843521,-3.395957,-0.4641322,0.2770098,1.393123,0.3843482,-0.1148003,0.02364993,0.06144177,-0.8928695,0.8876563,-0.3366491,0.455248,1.50233,0.2885442,0.02841419,1.115739,0.3186538,288.549,281.4019,326.6195,True
1,0.3111111,-0.4300329,-0.2347526,-0.07707866,4.704434,-4.594557,-2.917501,0.3028266,1.182263,0.4426639,-1.494783,-0.01589849,11.00796,14.39897,-0.1009754,0.1545262,0.1778113,-0.7831329,-3.39318,-0.465034,0.27657,1.393197,0.3831975,-0.120237,0.03645743,0.05087125,-0.8929099,0.8889103,-0.3359154,0.454919,1.50226,0.2875659,0.02726915,1.117016,0.3170595,288.2619,281.3275,326.6279,True
1,0.3222222,-0.4918745,-0.2222626,-0.09200123,4.706355,-4.592881,-2.910084,0.3011988,1.182526,0.441473,-1.49312,0.1524499,11.00796,14.54896,-0.08908319,0.1374854,0.1979526,-0.7809597,-3.390142,-0.4665619,0.2761289,1.393332,0.3821976,-0.1105903,0.04710934,0.05611023,-0.8925643,0.8904495,-0.3360022,0.4546561,1.502203,0.2865951,0.02603336,1.118326,0.3153773,287.9718,281.1803,326.6315,True
1,0.3333333,-0.530243,-0.2245911,-0.1036609,4.708382,-4.590576,-2.902867,0.2995724,1.182777,0.4403648,-1.492511,0.05467349,11.03448,14.7418,-0.06986099,0.1194177,0.1988667,-0.7793421,-3.387843,-0.4680458,0.2757351,1.393444,0.3810825,-0.104222,0.04923737,0.05391806,-0.892192,0.8913206,-0.3356164,0.4543092,1.502178,0.2856004,0.02459132,1.119749,0.3136769,287.7407,280.835,326.7734,True
1,0.3444445,-0.5845567,-0.2344429,-0.1184645,4.710919,-4.588178,-2.894567,0.2975507,1.183115,0.4392545,-1.492679,-0.01534856,11.06101,14.91322,-0.06014734,0.09173729,0.2083582,-0.7771285,-3.386002,-0.4689267,0.2751691,1.393545,0.3799143,-0.1052479,0.04071125,0.05817494,-0.8915097,0.891898,-0.334684,0.4540204,1.502181,0.2846107,0.02297248,1.121422,0.3120055,287.513,280.4615,326.9815,True
1,0.3555556,-0.6197013,-0.2378442,-0.1311758,-1.569919,-4.585785,-2.886687,0.2954242,1.183256,0.4381881,-1.493424,-0.06752717,11.11406,15.06321,-0.07082839,0.1066248,0.2095111,-0.7758044,-3.38234,-0.4703872,0.274592,1.393711,0.378727,-0.1053489,0.01728584,0.04854552,-0.8910761,0.891111,-0.3330552,0.453649,1.502227,0.2836409,0.02106196,1.12344,0.3103566,287.2031,280.2005,327.1254,True
1,0.3666667,-0.6697416,-0.2487056,-0.1385154,-1.567342,-4.583227,-2.877451,0.2929738,1.183708,0.4370983,-1.492902,0.04863316,11.11406,15.2132,-0.100649,0.1480865,0.2267894,-0.7745649,-3.376625,-0.47231,0.2739754,1.393908,0.3775079,-0.107638,0.01199223,0.0336552,-0.8910931,0.8912223,-0.3318394,0.453373,1.502116,0.282573,0.01900442,1.125804,0.3087233,286.7539,280.0932,327.1352,True
1,0.3777778,-0.7198133,-0.2499296,-0.1352576,-1.565278,-4.580769,-2.867612,0.2906266,1.184269,0.4359021,-1.493715,-0.0744634,11.08753,15.34176,-0.1133405,0.1661441,0.2471345,-0.7726395,-3.371284,-0.4744312,0.2733946,1.394143,0.3763232,-0.1076417,0.007737599,0.03364767,-0.8907406,0.8914651,-0.330779,0.453096,1.502001,0.2815499,0.01669899,1.128484,0.3070684,286.1929,280.0319,327.075,True
1,0.3888889,-0.8018486,-0.2426931,-0.1234927,-1.563632,-4.578478,-2.856174,0.2879503,1.184813,0.4347279,-1.492913,0.07436801,11.06101,15.40604,-0.1173043,0.1778024,0.2961791,-0.7692647,-3.36518,-0.477492,0.2730137,1.394378,0.3749869,-0.1011615,-0.005069256,0.04207781,-0.8898532,0.891058,-0.3296493,0.452852,1.501954,0.2805629,0.01421771,1.131394,0.305403,285.5418,280.132,326.8293,True
1,0.4,-0.8625606,-0.2395768,-0.1042773,-1.562267,-4.576234,-2.844815,0.2852277,1.185411,0.4335256,-1.492692,0.01980921,11.00796,15.42747,-0.1171397,0.1831004,0.3228167,-0.7662671,-3.359344,-0.4804042,0.2724601,1.394698,0.3738198,-0.1001124,-0.02956138,0.04095849,-0.8891006,0.8899599,-0.3278756,0.4525771,1.501921,0.2796319,0.011524,1.134515,0.3037059,284.9488,280.2331,326.5967,True
1,0.4111111,-0.9008741,-0.2471228,-0.09351954,-1.560803,-4.57339,-2.833692,0.2826869,1.185938,0.4323151,-1.491638,0.09672966,10.95491,15.38461,-0.1316436,0.1531839,0.3761372,-0.7613913,-3.354632,-0.4816716,0.271818,1.395255,0.3727009,-0.1088916,-0.03804226,0.01653321,-0.8894825,0.8887897,-0.3256407,0.4522537,1.501879,0.2786453,0.00872702,1.137881,0.3019663,284.3883,280.3936,326.3287,True
1,0.4222222,-0.9637149,-0.2429332,-0.07111621,-1.559835,-4.571003,-2.82099,0.279746,1.186671,0.431159,-1.492209,-0.0526526,10.87533,15.29891,-0.1314116,0.1073656,0.3963119,-0.757208,-3.351631,-0.482311,0.271244,1.395799,0.3716619,-0.1100972,-0.04760289,0.003748409,-0.8895411,0.8877398,-0.3236476,0.4519919,1.501792,0.2776761,0.005725009,1.141556,0.3001568,283.8296,280.6617,325.9419,True
1,0.4333333,-0.9999239,-0.2430085,-0.0604113,-1.558689,-4.568373,-2.808738,0.276987,1.187383,0.4299188,-1.4931,-0.08047201,10.79576,15.19177,-0.1291348,0.05516797,0.3994386,-0.7526525,-3.349966,-0.4821709,0.2706372,1.396295,0.3706324,-0.1102509,-0.07208209,-0.01120936,-0.8896311,0.8853732,-0.3210193,0.4515743,1.501818,0.276675,0.002712017,1.145561,0.2982935,283.1873,281.1399,325.3479,True
1,0.4444444,-1.047839,-0.2452141,-0.04650177,-1.557685,-4.565765,-2.795425,0.2738506,1.188211,0.4287047,-1.492159,0.08704112,10.74271,15.08464,-0.1321409,-0.01515295,0.4025818,-0.7473874,-3.350141,-0.4804979,0.2699576,1.396863,0.3696411,-0.1157081,-0.100818,-0.0229229,-0.8895826,0.8826518,-0.3177569,0.4512341,1.501855,0.2758026,-0.0001376248,1.149824,0.2963687,282.445,281.8644,324.479,True
1,0.4555556,-1.074437,-0.2538851,-0.05066513,-1.555995,-4.562917,-2.782845,0.2707611,1.189189,0.4273963,-1.49303,-0.08006275,10.74271,14.95607,-0.1360917,-0.04923441,0.4239079,-0.7422944,-3.348327,-0.4800867,0.2694312,1.397362,0.3686132,-0.1189566,-0.1210538,-0.02825113,-0.8893973,0.8799145,-0.3146751,0.4508379,1.501825,0.2748353,-0.003051439,1.154351,0.2943628,281.7116,282.742,323.4092,True
1,0.4666667,-1.094678,-0.2561027,-0.05383884,-1.554211,-4.560331,-2.770211,0.2674629,1.190203,0.4261711,-1.492614,0.03920668,10.74271,14.82751,-0.1370464,-0.07058504,0.4494155,-0.7364317,-3.346231,-0.4799706,0.2685017,1.397982,0.3674781,-0.1297358,-0.1242235,-0.03986144,-0.8897275,0.8779715,-0.3116386,0.4503203,1.50183,0.2738571,-0.005946195,1.159099,0.2922944,280.9276,283.8035,322.1464,True
1,0.4777778,-1.120242,-0.2572594,-0.05487282,-1.552493,-4.557891,-2.757083,0.2641524,1.191235,0.4248159,-1.493775,-0.1061931,10.76923,14.7418,-0.1455581,-0.06741583,0.4526682,-0.7316582,-3.343701,-0.4799565,0.2676281,1.39853,0.3663495,-0.1330538,-0.1188758,-0.05153604,-0.8903081,0.8762007,-0.3089429,0.4498376,1.501796,0.2729132,-0.0089882,1.164063,0.2901507,280.1456,285.0143,320.7255,True
1,0.4888889,-1.130874,-0.2583893,-0.05484325,-1.550923,-4.555164,-2.744578,0.2607538,1.192203,0.4235578,-1.494281,-0.04503091,10.82228,14.67752,-0.1626559,-0.06425425,0.4474531,-0.7272129,-3.34126,-0.4793181,0.2667674,1.399145,0.3652415,-0.1416091,-0.1177994,-0.05463564,-0.8905291,0.8744726,-0.3060595,0.449281,1.501778,0.2719007,-0.01206042,1.16918,0.2879524,279.3131,286.3194,319.2044,True
1,0.5,-1.146824,-0.2712989,-0.06753378,-1.548518,-4.552462,-2.731411,0.2573153,1.1933,0.4224217,-1.494185,0.009358766,10.82228,14.61324,-0.1946042,-0.0590089,0.4508663,-0.7224399,-3.33839,-0.4782981,0.2657779,1.399705,0.3640912,-0.1479204,-0.1071496,-0.04709654,-0.8905835,0.8735563,-0.3036406,0.4487007,1.501785,0.2710347,-0.0151834,1.174366,0.2857402,278.4535,287.9572,317.3204,True
1,0.5111111,-1.160707,-0.264998,-0.07181329,-1.546534,-4.550167,-2.718064,0.2538351,1.194396,0.4211419,-1.4951,-0.08360468,10.79576,14.59181,-0.2041405,-0.05691005,0.4594539,-0.7173949,-3.335373,-0.4779594,0.2648505,1.400271,0.3629875,-0.1394961,-0.1146011,-0.05679021,-0.8910383,0.8710989,-0.3008762,0.4480865,1.501803,0.270072,-0.01833344,1.179553,0.2835461,277.6181,290.1203,314.9252,True
1,0.5222223,-1.162995,-0.2257032,-0.08694869,-1.542828,-4.54756,-2.692347,0.2468877,1.196414,0.4185271,-1.494814,0.02713185,10.74271,14.59181,-0.2036039,-0.07507271,0.5372089,-0.7036247,-3.327767,-0.4793035,0.2628194,1.401392,0.3604851,-0.1543437,-0.1167343,-0.05024046,-0.8910671,0.8674713,-0.2948647,0.4466926,1.501897,0.2682037,-0.02144227,1.184651,0.2813981,276.7993,292.8432,311.9727,True
1,0.5333334,-1.168416,-0.2034265,-0.09666227,-1.540817,-4.546691,-2.679086,0.2433177,1.19751,0.4172027,-1.482402,1.134908,10.66313,14.59181,-0.2313877,-0.05701721,0.5320751,-0.6986446,-3.323755,-0.4788108,0.2615841,1.401997,0.3592539,-0.1617954,-0.1092758,-0.04907808,-0.8912279,0.8661764,-0.2919291,0.4459703,1.501806,0.2673986,-0.02534791,1.189777,0.2791039,276.0305,295.839,308.8432,True
1,0.5444446,-1.163125,-0.1960055,-0.1063016,-1.538567,-4.545644,-2.666311,0.2395626,1.198639,0.4159617,-1.495318,-1.189881,10.61008,14.57039,-0.2602961,0.003631979,0.5323223,-0.6942807,-3.316912,-0.4802401,0.260127,1.402552,0.3579412,-0.1670157,-0.08693025,-0.03940022,-0.8913217,0.8656516,-0.2896174,0.4451099,1.501828,0.2665179,-0.03135059,1.195749,0.27624,275.5884,296.2715,308.3495,True
1,0.5555557,-1.14932,-0.1778218,-0.0947192,-1.537132,-4.54442,-2.654041,0.2358922,1.199708,0.4145558,-1.497147,-0.1555135,10.58355,14.50611,-0.2784461,0.04406151,0.5410038,-0.6895174,-3.309733,-0.4820111,0.2587204,1.403128,0.3567145,-0.1733987,-0.0624291,-0.03928449,-0.8916908,0.8655242,-0.2874946,0.4442397,1.501788,0.2656476,-0.03598851,1.202021,0.2736649,274.7679,299.563,304.8164,True
1,0.5666668,-1.135567,-0.1457552,-0.08427286,-1.536308,-4.544187,-2.641775,0.232217,1.20088,0.4133115,-1.497687,-0.04910693,10.58355,14.39897,-0.2783736,0.0685581,0.5633944,-0.6840708,-3.302187,-0.4845827,0.2573957,1.403705,0.3555014,-0.1776692,-0.05177367,-0.04028581,-0.8921025,0.8650729,-0.2850634,0.4432493,1.501765,0.2647948,-0.03921457,1.208208,0.2715482,273.8286,308.7719,295.2889,True
1,0.577778,-1.130325,-0.1190805,-0.07697382,-1.535504,-4.543926,-2.629483,0.2286503,1.201966,0.4120786,-1.498156,-0.04267221,10.58355,14.27041,-0.2547682,0.04943651,0.5823883,-0.67793,-3.297276,-0.4864905,0.2559008,1.404255,0.3542018,-0.1873619,-0.04429564,-0.05082364,-0.8929175,0.8644038,-0.2823713,0.4421049,1.501639,0.2639449,-0.04170034,1.214142,0.2698187,273.0549,325.8152,277.9951,True
1,0.5888891,-1.108045,-0.09128776,-0.07396927,-1.534837,-4.544226,-2.617991,0.2250017,1.203112,0.4108515,-1.498113,0.004160133,10.66313,14.12042,-0.2397642,0.01963967,0.5854564,-0.6717781,-3.293369,-0.4873886,0.2542995,1.404896,0.3530579,-0.1916922,-0.03575003,-0.0571522,-0.89371,0.8641567,-0.2799049,0.4409614,1.50166,0.2631052,-0.04406632,1.219723,0.2683265,272.7663,348.517,255.155,True
1,0.6000003,-1.083623,-0.06673661,-0.07627757,-1.533961,-4.544552,-2.606802,0.2212091,1.204424,0.409544,-1.497942,0.01543101,10.74271,13.99186,-0.2343888,-0.03146294,0.5768436,-0.6655735,-3.291482,-0.4862466,0.2525562,1.405392,0.3519039,-0.191646,-0.03576836,-0.05289626,-0.8940253,0.8633029,-0.27727,0.4397078,1.501669,0.2622888,-0.04674022,1.22493,0.2669969,272.8997,8.112339,235.4773,True
1,0.6111114,-1.060257,-0.04859834,-0.08493578,-1.532884,-4.545187,-2.59575,0.2175744,1.205597,0.4083054,-1.498599,-0.06027614,10.8488,13.84187,-0.2397879,-0.04744074,0.5598189,-0.6600458,-3.288656,-0.4856522,0.2507896,1.405964,0.3507631,-0.2044003,-0.03257214,-0.04956294,-0.8944274,0.8628571,-0.2742521,0.4384781,1.501504,0.2614706,-0.04979632,1.229754,0.2657957,273.2068,21.55388,222.0169,True
1,0.6222225,-1.031599,-0.02082434,-0.08620123,-1.532258,-4.546151,-2.584954,0.2140212,1.206812,0.4070549,-1.498797,-0.01764353,10.95491,13.69188,-0.2452233,-0.03038979,0.5513394,-0.6551222,-3.283652,-0.4865846,0.2489935,1.406567,0.3495569,-0.2118304,-0.02512512,-0.04734284,-0.8948647,0.862542,-0.271489,0.4371543,1.501513,0.2606432,-0.05322987,1.234233,0.2647023,273.5444,30.44289,213.1633,True
1,0.6333337,-1.013569,0.002676964,-0.08636315,-1.531845,-4.547348,-2.574124,0.2103737,1.207973,0.405822,-1.498743,0.004820578,10.98143,13.60617,-0.2462425,-0.005905509,0.5673487,-0.6493863,-3.277217,-0.4888922,0.2471209,1.407084,0.3483758,-0.2117581,-0.01341358,-0.04092906,-0.8951593,0.8628522,-0.2694182,0.4356632,1.501535,0.2599669,-0.05692149,1.238412,0.2636865,273.8585,36.65345,207.0423,True
1,0.6444448,-0.9891535,0.02827941,-0.08865462,-1.531615,-4.548621,-2.563752,0.206655,1.209107,0.4045877,-1.498785,-0.004134007,11.00796,13.54189,-0.243129,0.003702134,0.5556322,-0.6442847,-3.271904,-0.4906328,0.245229,1.407542,0.3471959,-0.2138426,-0.009146243,-0.0366376,-0.8954767,0.8630516,-0.2670844,0.4341905,1.501487,0.2592421,-0.06060207,1.242307,0.2627583,274.15,41.35106,202.448,True
1,0.655556,-0.9647577,0.05702834,-0.09738842,-1.531115,-4.550429,-2.553563,0.2030923,1.210258,0.4032664,-1.498554,0.02106722,11.00796,13.49904,-0.2474147,-0.009080559,0.5492593,-0.6386862,-3.268099,-0.4906776,0.2433795,1.408102,0.3459153,-0.2170314,-0.001697183,-0.03659137,-0.8959151,0.8630314,-0.2646143,0.4326925,1.501495,0.2584841,-0.06418961,1.246024,0.2619038,274.4356,44.84697,199.053,True
1,0.6666671,-0.9425171,0.09437991,-0.09976423,-1.531396,-4.552981,-2.543523,0.1994867,1.211233,0.4021454,-1.49878,-0.0209905,11.00796,13.49904,-0.2569095,-0.01444575,0.5620971,-0.6325343,-3.263252,-0.4913372,0.2412337,1.408579,0.3446348,-0.2159591,0.005774394,-0.03659854,-0.8965595,0.8634466,-0.2625453,0.4310804,1.501473,0.2577012,-0.06774501,1.2497,0.2610881,274.7457,47.80046,196.1928,True
1,0.6777782,-0.9425171,0.09437991,-0.09976423,-1.531396,-4.552981,-2.543523,0.1994867,1.211233,0.4021454,-1.498799,-0.001729411,11.00796,13.49904,-0.2569095,-0.01444575,0.5620971,-0.6325343,-3.263252,-0.4913372,0.2412337,1.408579,0.3446348,-0.2159591,0.005774394,-0.03659854,-0.8965595,0.8634466,-0.2625453,0.4310804,1.501473,0.2577012,-0.07127395,1.25342,0.260287,275.1078,50.5766,193.5182,True
1,0.6888894,-0.8904814,0.1435653,-0.1011783,-1.532038,-4.557966,-2.525041,0.1925607,1.213016,0.3999183,-1.508384,-0.8766195,11.00796,13.47761,-0.2655044,0.02072659,0.562196,-0.6221586,-3.250904,-0.4952888,0.2370298,1.409536,0.3422294,-0.2256097,0.02495755,-0.04178344,-0.8977506,0.8643727,-0.2577639,0.4277322,1.50132,0.2563989,-0.07388657,1.256919,0.2596803,275.4567,52.98981,191.1708,True
1,0.7000005,-0.8702837,0.1606871,-0.09490347,-1.532669,-4.560057,-2.516166,0.1889105,1.214127,0.3988068,-1.489502,1.733491,11.00796,13.49904,-0.263418,0.03033116,0.5579379,-0.6171498,-3.244846,-0.4974273,0.2350086,1.410043,0.3410578,-0.2339903,0.03664976,-0.02888355,-0.8977537,0.8653398,-0.2555881,0.4259683,1.501383,0.2557309,-0.0752513,1.25967,0.2593734,276.1924,56.55153,187.6086,True
1,0.7111117,-0.8341165,0.1789765,-0.08546375,-1.533658,-4.562555,-2.508037,0.1854305,1.215065,0.3977695,-1.498011,-0.7936484,10.98143,13.54189,-0.2570974,0.04313293,0.5515163,-0.6124099,-3.238704,-0.4998341,0.23276,1.410508,0.3399923,-0.2361178,0.05156967,-0.0288368,-0.8983631,0.8665745,-0.253701,0.4241529,1.501271,0.2551403,-0.07984877,1.263561,0.2585143,276.5453,57.9693,186.2234,True
1,0.7222228,-0.8117721,0.1854567,-0.08233483,-1.534242,-4.564794,-2.499587,0.1821245,1.216053,0.3966708,-1.499281,-0.1076278,10.95491,13.6276,-0.2401755,0.05917212,0.5407605,-0.6081105,-3.232198,-0.5029595,0.2306268,1.410917,0.3389606,-0.2393764,0.0622251,-0.03517702,-0.8991908,0.8675032,-0.2515697,0.4222419,1.501225,0.2545063,-0.08453938,1.267711,0.2578179,276.8987,59.55352,184.7341,True
1,0.7333339,-0.7787611,0.1909258,-0.07814313,-1.535038,-4.567049,-2.492061,0.1786412,1.216969,0.3956647,-1.499802,-0.04764605,10.90185,13.75616,-0.2222176,0.04964916,0.5140023,-0.6039836,-3.227745,-0.5047684,0.2283605,1.411329,0.3378899,-0.2278087,0.06758487,-0.04913473,-0.9004089,0.8684589,-0.2499768,0.4203179,1.501152,0.2538488,-0.08867145,1.271793,0.2573681,277.3405,60.59444,183.8434,True
1,0.7444451,-0.7467874,0.1846456,-0.07708074,-1.535392,-4.568947,-2.484623,0.175205,1.217803,0.3947053,-1.499211,0.05414384,10.8488,13.86329,-0.2116262,0.01558739,0.4894086,-0.5993438,-3.225273,-0.5049556,0.2259638,1.411721,0.3368862,-0.220405,0.06438068,-0.05455119,-0.9013181,0.8686261,-0.2479605,0.4182876,1.501179,0.2531867,-0.09204415,1.275625,0.2571614,277.9066,61.5727,183.0517,True
1,0.7555562,-0.7180131,0.1783148,-0.08134702,-1.535515,-4.570897,-2.477394,0.1718053,1.21874,0.3936791,-1.499751,-0.05008668,10.79576,13.97043,-0.2052902,-0.01101318,0.4712324,-0.5948261,-3.222909,-0.5048711,0.2236432,1.412148,0.3359132,-0.2108009,0.03880458,-0.05256862,-0.9016888,0.8679392,-0.2454707,0.4163496,1.501203,0.2524598,-0.09490479,1.279226,0.2570744,278.5063,62.55845,182.2673,True
1,0.7666674,-0.6935225,0.1815956,-0.08139314,-1.536104,-4.573109,-2.470491,0.1684255,1.219586,0.3927314,-1.499574,0.01644118,10.74271,14.07757,-0.2010814,-0.02697195,0.4584066,-0.5902987,-3.22028,-0.504946,0.2213946,1.41266,0.3349144,-0.2074838,0.02599965,-0.04090745,-0.9017171,0.8677536,-0.2431647,0.4143091,1.501204,0.251744,-0.09763898,1.28265,0.2569948,279.136,63.54575,181.4432,True
1,0.7777785,-0.6669025,0.1837723,-0.08781238,-1.536565,-4.575466,-2.463936,0.1652154,1.220282,0.3918393,-1.499436,0.01209163,10.74271,14.16327,-0.1861689,-0.04185113,0.4497831,-0.5855972,-3.217587,-0.5058815,0.2190277,1.412983,0.3338723,-0.1987826,0.01426317,-0.02397551,-0.9014263,0.8677584,-0.2412901,0.4121749,1.501092,0.2511156,-0.100461,1.285885,0.2568362,279.7173,64.40163,180.7349,True
1,0.7888896,-0.6339073,0.1902414,-0.09427942,-1.537039,-4.578054,-2.457989,0.161971,1.220995,0.3909717,-1.49945,-0.001532262,10.74271,14.22755,-0.1681924,-0.03859498,0.4304926,-0.5819311,-3.214515,-0.507251,0.216523,1.413329,0.332866,-0.1954834,0.01742499,-0.01441892,-0.9013218,0.8679625,-0.2394043,0.4100685,1.501123,0.2504287,-0.1034734,1.288942,0.2565495,280.1903,65.16193,180.0977,True
1,0.8000008,-0.5945264,0.1966675,-0.1060681,-1.537304,-4.580629,-2.452687,0.1587708,1.221701,0.3899486,-1.499499,-0.004691445,10.76923,14.20613,-0.1619237,-0.01513128,0.4208806,-0.5785467,-3.20958,-0.5097067,0.2139518,1.413556,0.3318655,-0.1900718,0.02912776,-0.006993998,-0.9013336,0.8689888,-0.2382003,0.4076522,1.501247,0.2498512,-0.106605,1.291779,0.2561819,280.5829,65.79977,179.5334,True
1,0.8111119,-0.5486752,0.1807833,-0.116676,-1.536973,-4.582811,-2.448038,0.1555157,1.222319,0.389194,-1.4998,-0.02766009,10.82228,14.07757,-0.1631594,0.01577316,0.4060025,-0.575695,-3.204124,-0.5124287,0.2112989,1.413759,0.3307674,-0.1814347,0.04083697,0.00358836,-0.901219,0.8703202,-0.2373393,0.4052755,1.501199,0.2491727,-0.109729,1.294338,0.2558055,280.9158,66.40107,178.981,True
1,0.8222231,-0.5155972,0.161646,-0.1261685,-1.536445,-4.584581,-2.443259,0.1522947,1.222879,0.388263,-1.500128,-0.03006682,10.8488,13.88472,-0.165452,0.0818038,0.4060818,-0.573067,-3.195255,-0.517844,0.2087967,1.413876,0.3298233,-0.1631625,0.04186174,0.01831548,-0.900582,0.8709831,-0.2366581,0.4027469,1.501218,0.2484763,-0.1128651,1.296643,0.255464,281.2007,66.93829,178.5124,True
1,0.8333342,-0.4793036,0.1372063,-0.1367148,-1.535419,-4.586298,-2.439106,0.1490761,1.223358,0.3876045,-1.500415,-0.0262691,10.8488,13.69188,-0.1422676,0.1149076,0.3793278,-0.5713013,-3.188195,-0.522909,0.2061649,1.413886,0.3288379,-0.1448261,0.04929537,0.03944441,-0.8996893,0.8725929,-0.2366986,0.4003361,1.501122,0.2477343,-0.1160075,1.298702,0.2551614,281.458,67.47738,178.08,True
1,0.8444453,-0.4505091,0.1233704,-0.1515739,-1.534422,-4.588402,-2.434812,0.1458942,1.223595,0.3869627,-1.499901,0.04694848,10.8488,13.54189,-0.1233276,0.1117941,0.3419215,-0.5694882,-3.184109,-0.5255538,0.2035625,1.414008,0.3278911,-0.1243436,0.07055758,0.06164156,-0.8986049,0.8749862,-0.2375801,0.3979096,1.501141,0.2470126,-0.1191442,1.300493,0.2548963,281.7038,68.04403,177.6268,True
1,0.8555565,-0.4323907,0.1169664,-0.1643401,-1.533385,-4.590727,-2.430505,0.1427082,1.223971,0.3863273,-1.500082,-0.01729576,10.82228,13.41333,-0.1224506,0.09691367,0.3078119,-0.5678728,-3.181195,-0.5266808,0.2008325,1.413999,0.3269541,-0.1083337,0.06949021,0.06466554,-0.8980616,0.8762541,-0.2376735,0.3954129,1.501086,0.2463725,-0.1222916,1.302046,0.2546156,281.9066,68.54769,177.253,True
1,0.8666676,-0.3919051,0.107372,-0.186695,-1.531848,-4.593191,-2.427248,0.1395447,1.224283,0.3856828,-1.499622,0.04199888,10.82228,13.30619,-0.1321693,0.1043738,0.2887089,-0.5662637,-3.176203,-0.5290561,0.198081,1.414024,0.3261309,-0.1040158,0.05881405,0.06992574,-0.8971561,0.8765858,-0.2368722,0.3928245,1.501092,0.2456913,-0.1254148,1.303354,0.2543285,282.0906,69.2223,176.6567,True
1,0.8777788,-0.368437,0.09570605,-0.1909162,-1.530557,-4.595171,-2.423698,0.1365176,1.224588,0.3847969,-1.499236,0.03472315,10.76923,13.24191,-0.1111321,0.1406547,0.2598553,-0.5657577,-3.169796,-0.5339782,0.1954792,1.414001,0.3252337,-0.0975969,0.06306902,0.07200001,-0.8965063,0.8779427,-0.2368709,0.3900824,1.501105,0.2450802,-0.1285553,1.304452,0.2540697,282.2404,69.90376,176.0206,True
1,0.8888899,-0.3375087,0.08406749,-0.1951414,-1.529165,-4.597105,-2.420926,0.1336279,1.224866,0.3843164,-1.499942,-0.06507847,10.79576,13.24191,-0.09426646,0.1481869,0.2352498,-0.5652144,-3.164824,-0.5376778,0.1927876,1.414049,0.3243105,-0.08579317,0.06734149,0.08040957,-0.8956211,0.8799244,-0.2374826,0.3875136,1.501065,0.2442482,-0.1317834,1.305456,0.2538649,282.324,70.56373,175.4266,True
1,0.900001,-0.3034254,0.07769506,-0.1972469,-1.528069,-4.598801,-2.418593,0.130765,1.225108,0.3836019,-1.499393,0.05059122,10.79576,13.30619,-0.06792982,0.1664017,0.1956796,-0.5657209,-3.159882,-0.5420015,0.1900472,1.414215,0.3234756,-0.05056135,0.07690065,0.08750971,-0.8947417,0.8816118,-0.239195,0.384754,1.501231,0.2434256,-0.1350227,1.306366,0.2537236,282.4119,71.2049,174.9246,True
1,0.9111122,-0.3034254,0.07769506,-0.1972469,-1.528069,-4.598801,-2.418593,0.130765,1.225108,0.3836019,-1.499773,-0.03551509,10.82228,13.41333,-0.06792982,0.1664017,0.1956796,-0.5657209,-3.159882,-0.5420015,0.1900472,1.414215,0.3234756,-0.05056135,0.07690065,0.08750971,-0.8947417,0.8816118,-0.239195,0.384754,1.501231,0.2434256,-0.13818,1.307192,0.2535919,282.4711,71.65983,174.6482,True
1,0.9222233,-0.2703777,0.08109679,-0.1930661,-1.527032,-4.600984,-2.416642,0.1279739,1.225404,0.3831148,-1.502109,-0.2134582,10.8488,13.49904,-0.05309442,0.1600693,0.1817261,-0.5652197,-3.155555,-0.5454987,0.1872753,1.41443,0.3225224,-0.04400211,0.065157,0.1033972,-0.8932498,0.8825562,-0.239501,0.3821234,1.501301,0.2427061,-0.1405905,1.307696,0.2535729,282.3745,71.80873,174.6043,True
1,0.9333345,-0.1776393,0.07079431,-0.1867234,-1.525823,-4.602331,-2.41785,0.1253145,1.225488,0.3823073,-1.499628,0.228232,10.87533,13.56331,-0.03923278,0.1537049,0.1795034,-0.5642413,-3.151382,-0.5492218,0.1845833,1.41455,0.3217127,-0.04159623,0.03421144,0.1299469,-0.8907773,0.8823061,-0.2389497,0.3793637,1.501396,0.2419395,-0.1416188,1.307657,0.2537103,282.2948,71.73434,174.8064,True
1,0.9444456,-0.1030112,0.05608866,-0.1952478,-1.523979,-4.604015,-2.419016,0.1226799,1.225653,0.3817263,-1.499326,0.02523942,10.90185,13.64902,-0.01357941,0.1420453,0.1867945,-0.5627142,-3.146747,-0.5540389,0.18181,1.414558,0.3206635,-0.04265304,0.01824401,0.1309979,-0.8892801,0.8826212,-0.2385939,0.3766952,1.501418,0.24121,-0.1433114,1.308018,0.2536202,282.4696,72.27271,174.3728,True
1,0.9555568,-0.05825912,0.05086957,-0.2027213,-1.522371,-4.605888,-2.419718,0.1200052,1.225687,0.3810921,-1.502061,-0.2504035,10.92838,13.71331,-0.01799287,0.1196975,0.1559124,-0.5624495,-3.144903,-0.5552734,0.1790815,1.414451,0.3195803,-0.04274358,0.01719748,0.1224743,-0.8883448,0.8833022,-0.2385242,0.3740611,1.501486,0.2405035,-0.1457864,1.308764,0.2533563,282.7271,72.95974,173.7261,True
1,0.9666679,-0.01562976,0.04244614,-0.2112459,-1.52049,-4.607803,-2.420635,0.1174728,1.225601,0.3804765,-1.501815,0.02432569,10.92838,13.77759,-0.02886466,0.1250163,0.1229736,-0.5627866,-3.142114,-0.5571083,0.1763382,1.414256,0.3186951,-0.03102383,0.03317556,0.12238,-0.8872641,0.8849158,-0.2396363,0.371399,1.501506,0.239836,-0.1486076,1.309428,0.2529783,283.0426,73.50523,173.2489,True
1,0.977779,0.003560986,0.03391483,-0.2240001,-1.518343,-4.609832,-2.421233,0.1150495,1.22542,0.3800881,-1.500731,0.09828449,10.90185,13.86329,-0.04411226,0.1761423,0.09116029,-0.5646093,-3.136407,-0.5609342,0.1735918,1.414022,0.3178139,-0.01482363,0.04272411,0.1435371,-0.8851623,0.8866962,-0.2411032,0.3686701,1.501429,0.2392714,-0.1515707,1.309684,0.2525436,283.2427,74.11716,172.6748,True
1,0.9888902,0.01634949,0.03503125,-0.2229556,-1.516883,-4.611768,-2.421716,0.1125786,1.225173,0.3794501,-1.500347,0.03384805,10.87533,13.92758,-0.0560108,0.2102116,0.07529771,-0.5659899,-3.130686,-0.5648431,0.1709465,1.413819,0.3169875,-0.01044039,0.04695307,0.155214,-0.8833029,0.8879261,-0.2418957,0.3659814,1.501421,0.23862,-0.1545897,1.309419,0.2521122,283.2671,74.70049,172.1225,True
1,1.000001,0.04721938,0.04804097,-0.2038947,-1.516304,-4.61356,-2.423179,0.1105302,1.22467,0.3791473,-1.499602,0.06765162,10.82228,14.01328,-0.04981717,0.2294161,0.05184666,-0.5675654,-3.125998,-0.5685031,0.1683638,1.413524,0.3162529,-0.007097647,0.05120604,0.1690385,-0.8812432,0.8898588,-0.243157,0.3633294,1.501375,0.2380157,-0.1575453,1.30861,0.2517438,283.1276,75.3385,171.517,True
1,1.011112,0.07168697,0.05884532,-0.193345,-1.515486,-4.615561,-2.4245,0.1084399,1.224145,0.3783581,-1.499075,0.04741887,10.82228,14.07757,-0.04361238,0.2102883,0.01663179,-0.5692672,-3.124305,-0.569627,0.1657889,1.413198,0.3155162,-0.005992435,0.06930983,0.1722557,-0.8796426,0.8921907,-0.2446513,0.3606242,1.501437,0.2374148,-0.1604602,1.307389,0.2514855,282.8528,75.96666,170.9313,True
1,1.022224,0.1164087,0.06757888,-0.1849273,-1.514836,-4.617484,-2.427186,0.1065755,1.223646,0.3780122,-1.499702,-0.05786213,10.82228,14.14185,-0.03842553,0.206064,-0.006836984,-0.5710866,-3.121592,-0.5717152,0.1632316,1.412873,0.3147762,-0.001660675,0.08315814,0.1786252,-0.8779345,0.8948319,-0.2464798,0.3580182,1.50134,0.2367671,-0.163353,1.305954,0.2513409,282.4963,76.32124,170.657,True
1,1.033335,0.1621945,0.07627175,-0.1818444,-1.513872,-4.61943,-2.430314,0.1047041,1.222986,0.3771567,-1.499345,0.03292085,10.87533,14.1847,-0.03216805,0.2092927,-0.02605107,-0.5731964,-3.118857,-0.5738758,0.1607618,1.412452,0.3140967,0.0112844,0.09270796,0.1934195,-0.8757139,0.8971768,-0.248629,0.3555126,1.501403,0.2361944,-0.1660328,1.304354,0.2513497,282.1584,76.38215,170.7317,True
1,1.044446,0.2196911,0.09037475,-0.1724148,-1.512428,-4.623413,-2.436527,0.1011739,1.22164,0.3759499,-1.500324,-0.09011066,10.90185,14.22755,0.002619952,0.2658711,-0.06137945,-0.5790351,-3.109347,-0.5828504,0.1558675,1.41153,0.3128383,0.01765628,0.07674488,0.1922531,-0.8720729,0.9004169,-0.25122,0.3503689,1.501361,0.235147,-0.1685965,1.302745,0.2514147,281.8529,76.41865,170.9069,True
1,1.055557,0.2377472,0.105348,-0.1725283,-1.51198,-4.625863,-2.439506,0.09952238,1.220711,0.3752122,-1.503709,-0.3089606,10.98143,14.29184,-0.0103116,0.256276,-0.08686812,-0.5818719,-3.107374,-0.5839628,0.1533994,1.410965,0.3122377,0.03167047,0.06391746,0.2080601,-0.8694006,0.9014711,-0.2527268,0.3478166,1.501427,0.2346144,-0.1712789,1.301214,0.2514669,281.8181,76.77301,170.8192,True
1,1.066668,0.2377472,0.105348,-0.1725283,-1.51198,-4.625863,-2.439506,0.09952238,1.220711,0.3752122,-1.50005,0.3366053,11.03448,14.31326,-0.0103116,0.256276,-0.08686812,-0.5818719,-3.107374,-0.5839628,0.1533994,1.410965,0.3122377,0.03167047,0.06391746,0.2080601,-0.8694006,0.9014711,-0.2527268,0.3478166,1.501427,0.2346144,-0.1744882,1.299495,0.2513742,282.0703,77.25098,170.6038,True
1,1.077779,0.272909,0.1163078,-0.1428082,-1.51202,-4.629661,-2.44643,0.09638003,1.219259,0.3743069,-1.496097,0.3579971,11.11406,14.35612,-0.03410217,0.2690528,-0.1356991,-0.5889043,-3.101888,-0.586941,0.1488112,1.409955,0.311168,0.05844519,0.08732529,0.2216681,-0.8650309,0.9065154,-0.257994,0.3426799,1.5014,0.2335541,-0.1771471,1.297194,0.2513568,281.5944,76.93229,170.9694,True
1,1.08889,0.272909,0.1163078,-0.1428082,-1.51202,-4.629661,-2.44643,0.09638003,1.219259,0.3743069,-1.502109,-0.5526,11.16711,14.37754,-0.03410217,0.2690528,-0.1356991,-0.5889043,-3.101888,-0.586941,0.1488112,1.409955,0.311168,0.05844519,0.08732529,0.2216681,-0.8650309,0.9065154,-0.257994,0.3426799,1.5014,0.2335541,-0.1791233,1.294814,0.2513844,280.8362,76.80034,171.221,True
1,1.100002,0.3038802,0.1102112,-0.1108397,-1.512277,-4.632153,-2.454221,0.09353635,1.217337,0.3732808,-1.495969,0.566267,11.24668,14.39897,0.01253846,0.2468279,-0.1807724,-0.5959516,-3.099801,-0.5904177,0.1445973,1.408495,0.3103979,0.08799037,0.08418892,0.194721,-0.8619401,0.9102905,-0.2631824,0.3378612,1.501178,0.232687,-0.1812501,1.292565,0.2514094,280.6064,77.11183,171.0384,True
1,1.111113,0.2985251,0.1219814,-0.09918683,-1.512854,-4.633974,-2.457274,0.09225377,1.216317,0.3729606,-1.502784,-0.6286968,11.29973,14.37754,0.02206251,0.2372733,-0.1936295,-0.599354,-3.098943,-0.5916321,0.1425144,1.407793,0.3100321,0.1073657,0.08734877,0.2137002,-0.8593547,0.9126823,-0.2665395,0.3355379,1.501116,0.232219,-0.1829994,1.290499,0.251474,280.1753,76.89697,171.3624,True
1,1.122224,0.2985251,0.1219814,-0.09918683,-1.512854,-4.633974,-2.457274,0.09225377,1.216317,0.3729606,-1.499084,0.3439853,11.37931,14.31326,0.02206251,0.2372733,-0.1936295,-0.599354,-3.098943,-0.5916321,0.1425144,1.407793,0.3100321,0.1073657,0.08734877,0.2137002,-0.8593547,0.9126823,-0.2665395,0.3355379,1.501116,0.232219,-0.1851936,1.288613,0.2514715,280.3663,77.01498,171.3893,True
1,1.133335,0.2815039,0.1220086,-0.08425211,-1.513249,-4.635279,-2.459838,0.09105158,1.215239,0.3726301,-1.494636,0.4029729,11.48541,14.20613,0.02608523,0.2362524,-0.2309438,-0.6039788,-3.098964,-0.5921152,0.1405512,1.407015,0.3097532,0.1266526,0.08625406,0.2241466,-0.8568401,0.9146825,-0.2699257,0.3331607,1.501032,0.2317297,-0.1871923,1.286505,0.2514521,280.1606,76.38999,172.1214,True
1,1.144446,0.2761648,0.129553,-0.06724904,-1.51406,-4.636709,-2.462661,0.09004715,1.214128,0.3723047,-1.497403,-0.2560987,11.61804,14.07757,0.04079127,0.232065,-0.2630015,-0.6086921,-3.098938,-0.5930295,0.1386415,1.406246,0.3096743,0.1426148,0.07879397,0.2229058,-0.8546228,0.916292,-0.2730209,0.3308631,1.500925,0.23122,-0.1886074,1.284486,0.2514307,279.4847,76.00415,172.5705,True
1,1.155557,0.2846513,0.1445946,-0.05137026,-1.515289,-4.638348,-2.466021,0.08913967,1.213093,0.3719878,-1.49729,0.01294723,11.77719,13.97043,0.06100041,0.1873891,-0.2834199,-0.6122554,-3.101543,-0.5922117,0.1368389,1.405614,0.3095031,0.1596644,0.05962269,0.2237598,-0.8522099,0.9173612,-0.2760079,0.3286747,1.500835,0.2307875,-0.189873,1.282809,0.2514261,279.2185,76.22262,172.388,True
1,1.166668,0.3006059,0.1564244,-0.04186657,-1.51653,-4.639984,-2.469872,0.08817425,1.212004,0.3714776,-1.497459,-0.01586019,11.90981,13.86329,0.06956813,0.158658,-0.2867029,-0.6155039,-3.103121,-0.5918478,0.1349739,1.404956,0.3091822,0.1564131,0.06175216,0.2184645,-0.8503303,0.9189707,-0.2786343,0.326615,1.500793,0.2303455,-0.1910575,1.281363,0.2514743,279.2438,76.172,172.4664,True
1,1.17778,0.3228885,0.1820911,-0.03885185,-1.518058,-4.642419,-2.474038,0.08749935,1.211027,0.3711176,-1.497962,-0.04584621,11.98939,13.77759,0.07505673,0.1256344,-0.2739865,-0.6178741,-3.105123,-0.5912047,0.1332248,1.404305,0.3089256,0.1499235,0.06070616,0.2100172,-0.8484442,0.9206662,-0.2810551,0.3245073,1.50066,0.2298911,-0.1921726,1.280005,0.2515943,279.3452,75.8339,172.8454,True
1,1.188891,0.3547801,0.1926768,-0.06771655,-1.519021,-4.64744,-2.482369,0.08592293,1.209005,0.3702242,-1.498389,-0.03880512,12.04244,13.71331,0.04819605,0.1543672,-0.300411,-0.6263276,-3.10587,-0.5910899,0.1297852,1.402843,0.3080544,0.149777,0.07564922,0.195126,-0.8453022,0.9247254,-0.2871604,0.3205166,1.500437,0.2290885,-0.1932707,1.278622,0.2517907,279.42,75.33058,173.4401,True
1,1.200002,0.3547801,0.1926768,-0.06771655,-1.519021,-4.64744,-2.482369,0.08592293,1.209005,0.3702242,-1.502534,-0.3788109,12.04244,13.67045,0.04819605,0.1543672,-0.300411,-0.6263276,-3.10587,-0.5910899,0.1297852,1.402843,0.3080544,0.149777,0.07564922,0.195126,-0.8453022,0.9247254,-0.2871604,0.3205166,1.500437,0.2290885,-0.1945429,1.277106,0.2520268,279.5865,75.02247,173.9063,True
1,1.211113,0.3857733,0.1640053,-0.06970312,-1.519432,-4.65052,-2.491613,0.08452818,1.207189,0.3697915,-1.494373,0.7490891,12.01592,13.6276,0.04392979,0.2054734,-0.2832803,-0.6343458,-3.103124,-0.5941627,0.126583,1.40152,0.3073602,0.1645985,0.06074856,0.1874973,-0.8417197,0.9274731,-0.2929246,0.3167825,1.50028,0.2282505,-0.1959675,1.275041,0.2524002,279.7296,74.48441,174.5889,True
1,1.222224,0.381474,0.1800159,-0.06126808,-1.520633,-4.652637,-2.495689,0.08399561,1.206253,0.3695452,-1.502676,-0.766062,11.96286,13.56331,0.05579939,0.2065503,-0.2599157,-0.6373221,-3.101873,-0.5962234,0.125109,1.400931,0.3070555,0.1624527,0.05435582,0.1864432,-0.8399274,0.9286609,-0.2954157,0.3149993,1.500219,0.2279394,-0.1973989,1.272709,0.2528148,279.2304,73.88709,175.3613,True
1,1.233335,0.3579457,0.2055644,-0.05180776,-1.522327,-4.655276,-2.498679,0.08367452,1.205343,0.369555,-1.49841,0.3972041,11.88329,13.49904,0.0527699,0.1916107,-0.2407331,-0.6399166,-3.101533,-0.5970147,0.1238153,1.400253,0.3067665,0.1657474,0.05113009,0.1959899,-0.8376542,0.9300156,-0.2982911,0.313337,1.500141,0.2275536,-0.1989225,1.269956,0.2533256,279.0638,74.16218,175.2572,True
1,1.244446,0.3419256,0.2161469,-0.05398503,-1.523411,-4.657855,-2.501826,0.08318278,1.204439,0.369323,-1.497253,0.1014453,11.83024,13.43475,0.04954752,0.1958625,-0.2428409,-0.6435369,-3.101028,-0.5978043,0.1224537,1.399703,0.3065636,0.1657032,0.05326834,0.1917328,-0.8359609,0.9316633,-0.3012357,0.3116843,1.500038,0.2271669,-0.2004206,1.266813,0.2539089,278.5844,73.24817,176.3484,True
1,1.255558,0.3249257,0.2053986,-0.05921929,-1.523878,-4.659796,-2.504955,0.08262354,1.20349,0.3690259,-1.496087,0.1060293,11.75066,13.37047,0.06128058,0.1884282,-0.2439933,-0.6468163,-3.101229,-0.5987921,0.1213154,1.399106,0.3063397,0.1591684,0.05222401,0.1790149,-0.8346842,0.9329225,-0.3035239,0.3102605,1.500014,0.2268281,-0.2018853,1.263596,0.2545407,277.8957,71.76673,178.0012,True
1,1.266669,0.3164603,0.1872127,-0.06655658,-1.523923,-4.66153,-2.508058,0.0821318,1.202723,0.3688238,-1.496187,-0.009951008,11.69761,13.30619,0.06448147,0.1863053,-0.2440165,-0.6501421,-3.101056,-0.5997561,0.1200891,1.398567,0.3061233,0.1602045,0.04690357,0.1768641,-0.8330038,0.9341658,-0.3060768,0.3088002,1.499927,0.2264771,-0.2032536,1.260614,0.2552581,277.1803,70.05873,179.8884,True
1,1.27778,0.3144748,0.1456394,-0.06949502,-1.523333,-4.662217,-2.511512,0.08174255,1.202271,0.368994,-1.496262,-0.006584921,11.61804,13.28477,0.05179894,0.1713556,-0.2354244,-0.6528649,-3.101292,-0.599808,0.1189824,1.398103,0.3059821,0.1569464,0.04052103,0.1704979,-0.83144,0.9351097,-0.3084407,0.3074285,1.49985,0.2261431,-0.2045484,1.258087,0.2560074,276.6661,68.5919,181.619,True
1,1.288891,0.3124253,0.1243522,-0.06510205,-1.523267,-4.663106,-2.514874,0.08131078,1.201665,0.3688653,-1.496324,-0.00559177,11.51194,13.28477,0.06046692,0.154314,-0.2195192,-0.6550849,-3.101553,-0.6005343,0.1179935,1.397721,0.3058505,0.1536962,0.03521048,0.165195,-0.8299507,0.9361767,-0.310772,0.3061053,1.499804,0.2258074,-0.2056927,1.25604,0.2566932,276.3796,67.51894,182.9749,True
1,1.300002,0.3157135,0.09774574,-0.06281045,-1.522957,-4.663673,-2.518453,0.08100322,1.201202,0.3689661,-1.496706,-0.03479347,11.37931,13.30619,0.06808709,0.1394044,-0.2004144,-0.6571515,-3.10156,-0.6015676,0.1169612,1.397225,0.3057094,0.1472243,0.02456318,0.1577858,-0.8284625,0.9365581,-0.3124407,0.3049453,1.499734,0.225538,-0.2065973,1.254436,0.2572567,276.2012,66.91797,183.7679,True
1,1.311113,0.312593,0.07642239,-0.06374296,-1.522412,-4.664202,-2.521852,0.08064833,1.200682,0.3688664,-1.496716,-0.0005887091,11.24668,13.34904,0.08001383,0.1138411,-0.1781477,-0.6583915,-3.102253,-0.6023085,0.1160835,1.396945,0.3056307,0.1354099,0.0160591,0.1493724,-0.8270884,0.9370656,-0.3138069,0.3038681,1.499705,0.225261,-0.2072076,1.253202,0.2576806,276.108,66.77695,183.9986,True
1,1.322224,0.312593,0.07642239,-0.06374296,-1.522412,-4.664202,-2.521852,0.08064833,1.200682,0.3688664,-1.496943,-0.02077674,11.11406,13.3919,0.08001383,0.1138411,-0.1781477,-0.6583915,-3.102253,-0.6023085,0.1160835,1.396945,0.3056307,0.1354099,0.0160591,0.1493724,-0.8270884,0.9370656,-0.3138069,0.3038681,1.499705,0.225261,-0.2076069,1.252235,0.25795,276.1309,66.78356,184.0393,True
1,1.333336,0.2988122,0.05825124,-0.06574398,-1.521846,-4.664724,-2.524728,0.08037862,1.2004,0.369159,-1.493488,0.3161278,11.00796,13.43475,0.07906012,0.09465323,-0.16857,-0.6599153,-3.1032,-0.6024371,0.1151636,1.396608,0.3055494,0.1321057,0.01287504,0.1387495,-0.8259379,0.9375142,-0.3155191,0.3027394,1.499646,0.2249985,-0.2078028,1.25141,0.2580893,276.145,66.71789,184.0997,True
1,1.344447,0.2445874,0.02386253,-0.08357905,-1.519824,-4.665771,-2.528591,0.07982001,1.199638,0.3692074,-1.496737,-0.2996342,10.98143,13.43475,0.05888751,0.07009848,-0.1673984,-0.6635404,-3.105708,-0.6012357,0.1136257,1.396026,0.3054066,0.1126444,0.007596619,0.1123161,-0.8243107,0.9382434,-0.3177686,0.3009001,1.499576,0.2245579,-0.2079532,1.250866,0.2580717,276.0442,66.44434,184.3803,True
1,1.355558,0.2445874,0.02386253,-0.08357905,-1.519824,-4.665771,-2.528591,0.07982001,1.199638,0.3692074,-1.498813,-0.1868581,10.98143,13.41333,0.05888751,0.07009848,-0.1673984,-0.6635404,-3.105708,-0.6012357,0.1136257,1.396026,0.3054066,0.1126444,0.007596619,0.1123161,-0.8243107,0.9382434,-0.3177686,0.3009001,1.499576,0.2245579,-0.2080837,1.250428,0.2579498,276.19,67.92518,182.832,True
1,1.366669,0.1883182,-0.0316759,-0.07573482,-1.517275,-4.665036,-2.531084,0.07933643,1.19935,0.3697095,-1.493985,0.4427361,11.00796,13.37047,0.05471766,0.1254477,-0.1342909,-0.6677083,-3.101841,-0.6054143,0.1124779,1.395556,0.3051627,0.106129,0.004432682,0.100655,-0.8225748,0.9392864,-0.3206267,0.2993248,1.499514,0.224191,-0.2082067,1.24974,0.2578942,276.411,69.43612,181.1376,True
1,1.37778,0.1724013,-0.04659076,-0.0671031,-1.51642,-4.664557,-2.532548,0.07902843,1.199226,0.3700655,-1.496612,-0.2440858,11.06101,13.30619,0.05911748,0.1254434,-0.1140777,-0.6690122,-3.100419,-0.6073938,0.1120521,1.395422,0.30516,0.09969752,-0.005156808,0.09644151,-0.8215346,0.9389991,-0.3213756,0.2986532,1.499468,0.2240078,-0.2084967,1.248942,0.2579104,276.3119,69.52666,180.9537,True
1,1.388891,0.1447675,-0.05937764,-0.05101586,-1.515794,-4.663652,-2.533246,0.07871628,1.199127,0.3701293,-1.495274,0.1249314,11.14058,13.24191,0.06027813,0.09987133,-0.1087835,-0.6700066,-3.101202,-0.6074745,0.1116154,1.395354,0.3051493,0.09203763,-0.01470522,0.07732728,-0.821165,0.9385972,-0.3218241,0.2981435,1.499404,0.2238257,-0.2089155,1.247991,0.2580222,276.2018,70.66154,179.7899,True
1,1.400002,0.118172,-0.06685906,-0.0392273,-1.515155,-4.662987,-2.533737,0.07838067,1.199115,0.3700552,-1.495497,-0.02153493,11.19363,13.22048,0.06045757,0.06577412,-0.09390424,-0.6703059,-3.102159,-0.6074015,0.1111085,1.395339,0.3052003,0.08647095,-0.03171205,0.05391654,-0.8210099,0.9372644,-0.321749,0.2976088,1.499441,0.2236464,-0.2094298,1.246959,0.2581701,275.971,70.61457,179.8649,True
1,1.411114,0.118172,-0.06685906,-0.0392273,-1.515155,-4.662987,-2.533737,0.07838067,1.199115,0.3700552,-1.494964,0.04920571,11.19363,13.17763,0.06045757,0.06577412,-0.09390424,-0.6703059,-3.102159,-0.6074015,0.1111085,1.395339,0.3052003,0.08647095,-0.03171205,0.05391654,-0.8210099,0.9372644,-0.321749,0.2976088,1.499441,0.2236464,-0.209964,1.245955,0.258335,275.6917,70.01833,180.4998,True
1,1.422225,0.0862823,-0.08504799,-0.03374934,-1.513379,-4.661335,-2.534929,0.07781157,1.199327,0.3704667,-1.494501,0.04203881,11.19363,13.17763,0.07796568,-0.009860836,-0.05041873,-0.6688305,-3.105449,-0.6069744,0.1105301,1.395364,0.3054554,0.06805938,-0.05296911,0.02530313,-0.8206041,0.9348772,-0.3210502,0.2967289,1.49947,0.2233222,-0.2102918,1.245299,0.2583515,275.3746,68.39277,182.1185,True
1,1.433336,0.07457349,-0.0893707,-0.03690086,-1.512393,-4.660696,-2.535416,0.0774847,1.199412,0.3706183,-1.495935,-0.131196,11.19363,13.19906,0.08552109,-0.0258387,-0.04195647,-0.6684865,-3.106724,-0.607217,0.1102674,1.395397,0.3054187,0.05949002,-0.06787196,0.02110519,-0.8200997,0.9333568,-0.3203535,0.2963035,1.499525,0.2231486,-0.2104324,1.24509,0.2582383,275.1918,69.05102,181.4835,True
1,1.444447,0.05860905,-0.09586459,-0.04430146,-1.51105,-4.660045,-2.535566,0.07719764,1.199562,0.3706286,-1.495392,0.05097255,11.19363,13.22048,0.0791939,-0.02906016,-0.03339495,-0.6683298,-3.107474,-0.6072977,0.1099719,1.395472,0.3053334,0.04138455,-0.07107146,0.02128121,-0.8196304,0.9322708,-0.3195045,0.2960186,1.499478,0.2229631,-0.210687,1.245091,0.2580556,275.3485,72.58747,178.0147,True
1,1.455558,0.0351306,-0.0863735,-0.04752708,-1.510246,-4.659961,-2.535151,0.07694402,1.199847,0.3710232,-1.495615,-0.02086109,11.22016,13.26334,0.07178029,-0.02694961,-0.02588218,-0.6682318,-3.107621,-0.607712,0.1096938,1.395483,0.3052733,0.02863561,-0.06362967,0.0246213,-0.8190802,0.9316635,-0.3189884,0.2957802,1.49956,0.2227602,-0.2105753,1.245229,0.2581804,275.5204,71.16776,179.3567,True
1,1.466669,0.0351306,-0.0863735,-0.04752708,-1.510246,-4.659961,-2.535151,0.07694402,1.199847,0.3710232,-1.495493,0.01146238,11.27321,13.30619,0.07178029,-0.02694961,-0.02588218,-0.6682318,-3.107621,-0.607712,0.1096938,1.395483,0.3052733,0.02863561,-0.06362967,0.0246213,-0.8190802,0.9316635,-0.3189884,0.2957802,1.49956,0.2227602,-0.211009,1.245236,0.2580538,275.506,71.20547,179.2685,True
1,1.47778,-0.01393803,-0.06956944,-0.05714388,-1.508579,-4.659762,-2.533601,0.07623407,1.200007,0.3708973,-1.495546,-0.004809335,11.29973,13.37047,0.05379021,0.004936803,0.004098722,-0.6680827,-3.105728,-0.6098671,0.109171,1.39576,0.3051136,0.01359111,-0.04763258,0.01201938,-0.8190158,0.9307228,-0.3182464,0.2954372,1.499675,0.2225099,-0.2111889,1.245374,0.2578521,275.3314,72.58106,177.8633,True
1,1.488891,-0.01393803,-0.06956944,-0.05714388,-1.508579,-4.659762,-2.533601,0.07623407,1.200007,0.3708973,-1.494444,0.1009794,11.37931,13.43475,0.05379021,0.004936803,0.004098722,-0.6680827,-3.105728,-0.6098671,0.109171,1.39576,0.3051136,0.01359111,-0.04763258,0.01201938,-0.8190158,0.9307228,-0.3182464,0.2954372,1.499675,0.2225099,-0.2114951,1.245489,0.2576691,275.4432,72.67207,177.6978,True
1,1.500003,-0.02353097,-0.06746049,-0.05501535,-1.507742,-4.659522,-2.533029,0.0759075,1.200203,0.3709018,-1.495882,-0.1321493,11.45889,13.47761,0.03267775,0.02721945,0.04154507,-0.667287,-3.102908,-0.6117345,0.1089985,1.395963,0.3050663,-0.007685918,-0.06681297,0.01539927,-0.8182877,0.929008,-0.3162448,0.2953016,1.499593,0.2223661,-0.2118662,1.245568,0.2574617,275.2957,72.93089,177.2503,True
1,1.511114,-0.02673291,-0.06532044,-0.05182485,-1.507061,-4.659204,-2.532727,0.07571056,1.200613,0.3713658,-1.495599,0.02722282,11.51194,13.49904,0.02642878,0.03676656,0.06610376,-0.6663517,-3.100489,-0.6137372,0.1089499,1.39609,0.3050106,-0.02052728,-0.07000545,0.00913528,-0.8180698,0.9276549,-0.3147625,0.2950669,1.499581,0.2222438,-0.2123068,1.245007,0.2572544,274.7477,75.05363,175.2328,True
1,1.522225,-0.03742355,-0.05253058,-0.04443274,-1.506835,-4.659256,-2.531917,0.07545289,1.200821,0.3713646,-1.495774,-0.01628313,11.56498,13.52046,0.03290452,0.02824957,0.07563972,-0.6654164,-3.099456,-0.6151995,0.1089184,1.396233,0.3049581,-0.02596877,-0.06039423,-0.001440547,-0.8183447,0.9272206,-0.3139422,0.29505,1.499569,0.2220025,-0.2125114,1.244843,0.2571336,274.509,76.13716,174.2129,True
1,1.533336,-0.06621623,-0.04300255,-0.03700043,-1.506632,-4.659254,-2.53018,0.07540575,1.201152,0.371547,-1.496209,-0.03946851,11.56498,13.54189,0.03813913,0.004849147,0.05321272,-0.6651511,-3.100609,-0.6149074,0.108882,1.396415,0.3049712,-0.007982466,-0.04972634,-0.01438722,-0.8187494,0.9266012,-0.3141944,0.2950917,1.499566,0.2218018,-0.2126001,1.244894,0.2568927,274.386,76.685,173.38,True
1,1.544447,-0.07692555,-0.02705537,-0.03601909,-1.506446,-4.659638,-2.528949,0.07528174,1.201322,0.3715086,-1.495894,0.02919792,11.53846,13.54189,0.06258792,-0.01851582,0.03705173,-0.6646435,-3.101923,-0.6153548,0.1089285,1.396498,0.3049488,-0.01773968,-0.06674238,-0.03135798,-0.8190786,0.9244317,-0.312266,0.295104,1.499485,0.2215548,-0.2129214,1.244983,0.256725,274.6963,76.04681,173.7054,True
1,1.555558,-0.08122507,-0.0153588,-0.03608762,-1.506112,-4.659975,-2.527997,0.07512912,1.201598,0.3714576,-1.495075,0.07468165,11.51194,13.52046,0.06794621,-0.04406624,0.03273064,-0.6636741,-3.103561,-0.6150078,0.1088759,1.396702,0.3049235,-0.03042706,-0.08806293,-0.02167718,-0.8184565,0.9223835,-0.3100545,0.2951638,1.499481,0.221436,-0.2131834,1.24571,0.2567032,274.875,73.49241,176.3283,True
1,1.566669,-0.0759335,-0.003614035,-0.03402763,-1.506091,-4.660323,-2.527416,0.07498989,1.201809,0.3713064,-1.495711,-0.05862829,11.48541,13.43475,0.05533862,-0.04944,0.05731592,-0.662057,-3.102952,-0.615583,0.1088614,1.397011,0.3048608,-0.03783168,-0.09446788,-0.01734848,-0.8180693,0.9206505,-0.3083885,0.2950833,1.499463,0.2212489,-0.2132846,1.246733,0.2568971,275.054,74.76753,175.1232,True
1,1.577781,-0.04723707,0.006105602,-0.03511883,-1.506695,-4.661089,-2.526703,0.0756022,1.204888,0.3780012,-1.496231,-0.04684021,11.45889,13.32762,0.06281792,-0.0004381016,0.07861443,-0.6609668,-3.099092,-0.6202457,0.1088189,1.397345,0.3046882,-0.04200931,-0.07211429,-0.009805903,-0.8177806,0.9193,-0.3064915,0.2951032,1.499512,0.2210369,-0.2132764,1.247764,0.2571023,275.2206,74.40599,175.5582,True
1,1.588892,-0.04084126,0.00397882,-0.03830924,-1.506245,-4.66138,-2.526439,0.07553723,1.205107,0.3781061,-1.496227,0.0007837263,11.43236,13.22048,0.05413984,0.01766792,0.06164409,-0.6613705,-3.097922,-0.6214724,0.1088017,1.397468,0.3045959,-0.04086762,-0.0625383,-0.002343502,-0.8174818,0.9189126,-0.3058052,0.2951305,1.499527,0.2209387,-0.2131037,1.24894,0.2576359,275.1351,77.36474,171.9814,True
1,1.600003,-0.02697772,-0.00236235,-0.03934633,-1.505847,-4.661511,-2.526496,0.07564399,1.205231,0.3785083,-1.497258,-0.09427191,11.43236,13.11335,0.03593373,0.02722233,0.05005624,-0.6615857,-3.097108,-0.621908,0.1089533,1.397548,0.3045309,-0.03964563,-0.06576725,0.01255169,-0.8165641,0.9180021,-0.3048675,0.2952579,1.499457,0.2207861,-0.2126839,1.250641,0.2595609,274.6918,81.56458,166.7002,True
1,1.611114,-0.02481777,-0.01088323,-0.04036336,-1.505202,-4.661444,-2.52629,0.0756233,1.205424,0.3786743,-1.497257,0.0009607604,11.37931,13.00621,0.01897885,0.01864174,0.05975673,-0.660482,-3.096372,-0.6222071,0.1090481,1.397591,0.3045907,-0.04714312,-0.07747924,0.008342579,-0.8162887,0.9162232,-0.3029151,0.2954642,1.499572,0.2206411,-0.2123967,1.252399,0.2622641,275.0812,80.061,168.7128,True
1,1.622225,-0.0322664,-0.009862548,-0.03826096,-1.504273,-4.661468,-2.525776,0.07558176,1.205298,0.3781822,-1.497514,-0.02360119,11.32626,12.89908,0.02326205,-0.005844934,0.05437839,-0.6595953,-3.097162,-0.6219834,0.1091287,1.397698,0.3045573,-0.05151374,-0.06893709,-0.002250034,-0.8165422,0.9154601,-0.3016653,0.2955539,1.499586,0.2205174,-0.2121635,1.254171,0.2651025,275.9475,77.26228,172.7149,True
1,1.633336,-0.04083014,0.001841763,-0.03406021,-1.504247,-4.661855,-2.52496,0.0756216,1.205539,0.3782716,-1.497223,0.02675209,11.27321,12.79194,0.02422987,-0.0005038213,0.04159319,-0.659641,-3.09693,-0.6224607,0.1092281,1.397802,0.3045337,-0.04944219,-0.05187538,-0.007564161,-0.8168091,0.9155961,-0.301223,0.2956769,1.499646,0.2204056,-0.2118972,1.255567,0.2675069,276.702,75.47434,175.5262,True
1,1.644447,-0.0430042,0.01569382,-0.0309577,-1.504181,-4.662503,-2.524398,0.07572469,1.205484,0.3780575,-1.496859,0.03299185,11.16711,12.72766,0.02520062,0.01868217,0.03415401,-0.6600416,-3.095504,-0.6239251,0.1094154,1.39791,0.3044972,-0.03643481,-0.04126101,0.01469168,-0.8159143,0.9158438,-0.3013939,0.2959039,1.499714,0.2202508,-0.2117598,1.256446,0.2690783,277.1701,74.59062,177.1083,True
1,1.655559,-0.03659618,0.01253851,-0.02774387,-1.504126,-4.662577,-2.524211,0.07587367,1.205666,0.378149,-1.496558,0.02726282,11.08753,12.70623,0.02946565,0.0495842,0.04480488,-0.6603532,-3.092422,-0.62691,0.1096755,1.398151,0.3044431,-0.0373391,-0.05088389,0.02959879,-0.8148474,0.9148684,-0.3003673,0.2960023,1.499797,0.2200956,-0.2117717,1.256762,0.2696256,277.3148,74.39944,177.6186,True
1,1.66667,-0.03230954,0.007248592,-0.02346323,-1.503826,-4.662553,-2.524028,0.07597926,1.205793,0.3780522,-1.496837,-0.0256533,10.98143,12.66338,0.02739095,0.05596089,0.05547791,-0.6600512,-3.090416,-0.6287335,0.1098907,1.398304,0.3044283,-0.04265358,-0.06153554,0.03069825,-0.81422,0.9137141,-0.2989265,0.296184,1.499841,0.2199433,-0.2118772,1.25665,0.2693013,277.1429,74.59917,177.2999,True
1,1.677781,-0.02376303,-0.0001618103,-0.02237509,-1.503425,-4.662673,-2.524017,0.07634142,1.206055,0.3780904,-1.497224,-0.03519264,10.90185,12.64195,0.02532819,0.05275802,0.06401034,-0.6595681,-3.088785,-0.6302493,0.1101744,1.398466,0.3044393,-0.03528305,-0.07643554,0.02207675,-0.8138199,0.9119262,-0.2975782,0.2965071,1.499918,0.2198725,-0.2119491,1.256221,0.2683553,276.848,75.18395,176.3662,True
1,1.688892,-0.02696391,0.001959316,-0.0213262,-1.503194,-4.662901,-2.523613,0.07656989,1.206214,0.3780181,-1.497247,-0.001798253,10.8488,12.57767,0.02214025,0.04635978,0.06296015,-0.6592005,-3.087763,-0.6311886,0.1104515,1.398645,0.3044715,-0.02790066,-0.07322019,0.01454528,-0.8137938,0.9110524,-0.2969656,0.296754,1.500029,0.2198014,-0.2119362,1.255646,0.2670805,276.498,76.05531,175.0251,True
1,1.700003,-0.02696391,0.001959316,-0.0213262,-1.503194,-4.662901,-2.523613,0.07656989,1.206214,0.3780181,-1.497392,-0.013258,10.82228,12.51339,0.02214025,0.04635978,0.06296015,-0.6592005,-3.087763,-0.6311886,0.1104515,1.398645,0.3044715,-0.02790066,-0.07322019,0.01454528,-0.8137938,0.9110524,-0.2969656,0.296754,1.500029,0.2198014,-0.2118282,1.255072,0.2657239,276.1652,77.15147,173.4686,True
1,1.711114,-0.03980218,0.01900055,-0.01396167,-1.503555,-4.663723,-2.522314,0.0771862,1.20673,0.3782172,-1.497368,0.002230688,10.82228,12.44911,0.0124633,0.04316025,0.04916192,-0.6592879,-3.086168,-0.6323836,0.1110456,1.398994,0.3044641,-0.009822318,-0.05191423,0.01226273,-0.8134876,0.9104255,-0.2966458,0.2972856,1.500182,0.2196007,-0.2116016,1.254619,0.2645293,275.9099,78.45967,171.7363,True
1,1.722225,-0.06221594,0.03494991,-0.00551138,-1.504248,-4.664346,-2.520911,0.07750505,1.207175,0.3784227,-1.496282,0.09924991,10.8488,12.40626,0.02521194,0.05490961,0.04802305,-0.6595015,-3.084387,-0.6344875,0.1115444,1.399302,0.304636,-0.002508342,-0.05614716,-0.001669493,-0.8137385,0.9092924,-0.2960913,0.2976539,1.500338,0.2195075,-0.211534,1.254127,0.2638869,275.658,85.37481,164.8429,True
1,1.733337,-0.0696924,0.04133391,-0.002345331,-1.5047,-4.664845,-2.519859,0.07788011,1.2076,0.3786051,-1.496707,-0.03973272,10.8488,12.38483,0.03908978,0.05067517,0.05112117,-0.659191,-3.083264,-0.6362654,0.1120811,1.399637,0.3048699,0.004937239,-0.07212452,-0.002841268,-0.8134056,0.9074405,-0.2951477,0.2980521,1.500502,0.2193661,-0.2114747,1.253811,0.2639169,275.3578,87.32632,162.9427,True
1,1.744448,-0.08249294,0.04764005,-0.007684832,-1.504937,-4.665419,-2.518715,0.0782015,1.208108,0.3788762,-1.496042,0.0613446,10.8488,12.3634,0.05623176,0.03260553,0.05844693,-0.6583377,-3.082615,-0.6380889,0.1127868,1.39994,0.3051097,0.006206565,-0.09666747,0.01733608,-0.8120244,0.905111,-0.2935286,0.2985436,1.500551,0.2193048,-0.2114298,1.253881,0.2643863,275.0984,85.41422,164.8832,True
1,1.755559,-0.102741,0.04964644,-0.01619823,-1.504879,-4.666176,-2.517051,0.07873401,1.208657,0.3791759,-1.496388,-0.03209575,10.8488,12.40626,0.07121101,0.007086389,0.05938719,-0.6574817,-3.082785,-0.6391808,0.1134994,1.400425,0.3052897,0.01471674,-0.1275571,0.01612607,-0.811201,0.9020988,-0.2918598,0.2991877,1.5008,0.2191033,-0.2112339,1.254505,0.2651056,275.0503,80.65813,169.6304,True
1,1.76667,-0.1337033,0.0643966,-0.0247773,-1.505067,-4.667459,-2.514393,0.07929453,1.209201,0.3795793,-1.496436,-0.004012183,10.82228,12.44911,0.07766485,-0.001426712,0.06572854,-0.6565475,-3.082274,-0.6406466,0.1143606,1.40083,0.3055465,0.02616072,-0.154133,-0.01067473,-0.8114641,0.898385,-0.2899818,0.2999621,1.500969,0.2189643,-0.2108302,1.255679,0.2659307,275.2512,78.01176,172.3748,True
