loc,t,aDotS,bDotS,gDotS,aS,bS,gS,xS,yS,zS,qE,qDotE,emgA,emgB,aDotSH,bDotSH,gDotSH,aSH,bSH,gSH,xSH,ySH,zSH,aDotUB,bDotUB,gDotUB,aUB,bUB,gUB,xUB,yUB,zUB,xHand,yHand,zHand,aHand,bHand,gHand,enable
0,0,0.3960536,-0.6392047,0.5411991,-1.533576,-4.678281,-2.838181,0.3482897,1.206506,0.4963439,-1.359297,-0.07911146,11.88329,14.16327,-0.5205204,0.4200178,-0.2790271,-0.6272261,-3.620734,-0.4305367,0.3393421,1.414762,0.4340358,-0.0438427,0.5333126,0.2355424,-0.9922512,0.567651,-0.2107562,0.5060365,1.500351,0.2997572,0.05611748,1.128404,0.4069735,288.4136,276.5015,339.6122,True
0,0.01111111,0.3554399,-0.6258333,0.4879078,-1.534987,-4.671105,-2.840862,0.3471751,1.205849,0.4950135,-1.359843,-0.04913472,11.85676,14.27041,-0.4991823,0.4328583,-0.2663747,-0.6318361,-3.6142,-0.430868,0.3381106,1.414312,0.4331112,-0.02347994,0.4928074,0.2469544,-0.9900738,0.5730389,-0.2140321,0.5054003,1.500403,0.2996876,0.05570365,1.127887,0.4043581,288.4427,278.8477,336.9536,True
0,0.02222222,0.3040994,-0.5890371,0.4387498,-1.536337,-4.665262,-2.84254,0.3460605,1.205375,0.4938838,-1.359437,0.0375769,11.80371,14.35612,-0.4785728,0.4329819,-0.245452,-0.6359528,-3.608781,-0.4301711,0.3368611,1.4138,0.4322324,-0.01286376,0.4597992,0.2425011,-0.9885659,0.5783699,-0.2170665,0.5046824,1.50046,0.2996602,0.05535081,1.126594,0.4005261,288.5596,279.2483,335.9612,True
0,0.03333334,0.2506467,-0.5575965,0.3864431,-1.537479,-4.659424,-2.843785,0.3449322,1.204934,0.4929812,-1.358217,0.1112827,11.77719,14.39897,-0.4549683,0.4137731,-0.203855,-0.638193,-3.602689,-0.4314824,0.3357818,1.413585,0.4312882,-0.0141421,0.4214982,0.2200562,-0.9876115,0.5829031,-0.2193766,0.5040547,1.500512,0.2995551,0.05514903,1.124622,0.3957973,288.8818,278.4963,335.8143,True
0,0.04444445,0.2024726,-0.5176243,0.3361869,-1.53807,-4.654449,-2.844634,0.343891,1.204675,0.4920471,-1.35747,0.06762005,11.69761,14.46325,-0.4181803,0.3754701,-0.1445071,-0.6390687,-3.598288,-0.4318444,0.334707,1.413327,0.4305735,-0.02815744,0.3928212,0.1988256,-0.9870239,0.5879855,-0.2215534,0.5035008,1.500302,0.2992942,0.05509374,1.122224,0.3905975,289.4584,277.2768,335.9021,True
0,0.05555556,0.1532411,-0.476595,0.2806086,-1.538106,-4.650356,-2.844823,0.3428711,1.204488,0.491245,-1.357391,0.007101766,11.64456,14.50611,-0.3934645,0.347829,-0.1266026,-0.640984,-3.59441,-0.4314465,0.3336438,1.412995,0.429734,-0.04012802,0.3662405,0.1733216,-0.9867225,0.5919013,-0.2228456,0.5028993,1.500309,0.2991738,0.05507001,1.119768,0.3854483,290.1984,275.9042,336.0213,True
0,0.06666667,0.09974141,-0.444173,0.2144434,-1.537282,-4.646293,-2.844295,0.3418125,1.204389,0.4903939,-1.35747,-0.006955398,11.59151,14.52753,-0.3603453,0.3202341,-0.1300605,-0.6435444,-3.591751,-0.430966,0.3325534,1.412739,0.4290388,-0.04984222,0.3535123,0.1595454,-0.9861973,0.5970193,-0.2248563,0.5022896,1.500266,0.2990284,0.05500519,1.1176,0.3808026,290.9127,274.6352,336.1324,True
0,0.07777778,0.06657211,-0.4211297,0.1696044,-1.536467,-4.642394,-2.844049,0.34075,1.204235,0.4896259,-1.357297,0.01622306,11.53846,14.48468,-0.3486997,0.3287937,-0.1365283,-0.646852,-3.587002,-0.4311874,0.331586,1.412464,0.4282715,-0.04563589,0.3429119,0.1509505,-0.9857478,0.6020231,-0.2274649,0.5016632,1.500384,0.2989428,0.05483372,1.115985,0.3769824,291.4659,273.5842,336.2776,True
0,0.08888889,0.0312093,-0.3864425,0.1151163,-1.535092,-4.639277,-2.843418,0.3395686,1.204172,0.489023,-1.357022,0.02535997,11.51194,14.39897,-0.330585,0.3480355,-0.1259722,-0.6498954,-3.580365,-0.4332036,0.3306661,1.412315,0.4275749,-0.04031333,0.3290639,0.1508671,-0.9847826,0.6062992,-0.2295147,0.5010495,1.500536,0.2988327,0.05445611,1.11507,0.3741701,291.776,272.8235,336.4554,True
0,0.1,-0.001989925,-0.3537873,0.07447582,-1.533729,-4.636717,-2.842418,0.3385302,1.204175,0.4885664,-1.35774,-0.06557337,11.45889,14.31326,-0.2888039,0.3364271,-0.09749976,-0.6514321,-3.575167,-0.4354774,0.32989,1.412204,0.426913,-0.03590994,0.3056183,0.1624883,-0.9832695,0.6101493,-0.2315291,0.5004261,1.500828,0.2989354,0.05381641,1.114893,0.3723435,291.8206,272.3724,336.6796,True
0,0.1111111,-0.03419449,-0.3040517,0.03904973,-1.532383,-4.635263,-2.840914,0.3375852,1.204257,0.4881208,-1.357886,-0.01242071,11.43236,14.24898,-0.2458888,0.3013688,-0.06907892,-0.652231,-3.571743,-0.4367853,0.3292454,1.412068,0.4263391,-0.04008277,0.2608418,0.1709576,-0.9813919,0.6121537,-0.2319195,0.499986,1.501002,0.2987287,0.05294927,1.115356,0.3713522,291.6025,272.2468,336.8444,True
0,0.1222222,-0.06100222,-0.2669888,0.01755384,-1.531426,-4.633736,-2.839313,0.3366386,1.204233,0.4876525,-1.357932,-0.003871203,11.40584,14.1847,-0.2158493,0.2673567,-0.05333939,-0.653071,-3.568856,-0.4374799,0.3285916,1.411853,0.4257162,-0.03798126,0.2182319,0.1676561,-0.9798345,0.6138837,-0.2324695,0.499486,1.501185,0.2986143,0.05187109,1.116285,0.3710108,291.2255,272.3009,336.9704,True
0,0.1333333,-0.1391274,-0.1898563,-0.04033961,-1.529257,-4.634929,-2.835063,0.3357867,1.204357,0.4875331,-1.357855,0.007319315,11.37931,14.14185,-0.1847101,0.2322776,-0.03442431,-0.6533837,-3.566645,-0.4382567,0.328135,1.411665,0.4252586,-0.04128772,0.1916241,0.1559126,-0.9787985,0.6156719,-0.2328876,0.4989926,1.501243,0.2984276,0.05072193,1.117503,0.3711357,290.788,272.4838,337.0493,True
0,0.1444445,-0.1808867,-0.1422684,-0.0725356,-1.52747,-4.635282,-2.831855,0.3348857,1.204476,0.4871788,-1.358125,-0.02441154,11.35279,14.09899,-0.154895,0.2046898,-0.04745832,-0.6550418,-3.565121,-0.4384826,0.3276818,1.411392,0.4248147,-0.04140449,0.1682477,0.1420088,-0.978138,0.6177942,-0.233702,0.4985519,1.50105,0.2979763,0.04954771,1.118851,0.371534,290.3492,272.7683,337.0951,True
0,0.1555556,-0.2483123,-0.07571091,-0.1239866,-1.524888,-4.637649,-2.826681,0.3340744,1.204611,0.4871097,-1.356049,0.1903415,11.35279,14.09899,-0.1260795,0.1802749,-0.05089428,-0.6562183,-3.564079,-0.4387814,0.327273,1.411294,0.4245489,-0.03619805,0.1331228,0.1290943,-0.9772618,0.6183467,-0.2338245,0.4981093,1.501066,0.2977648,0.04836477,1.120169,0.3720095,289.9192,273.0073,337.1564,True
0,0.1666667,-0.3104312,0.002666001,-0.1606078,-1.522751,-4.640777,-2.821293,0.3331612,1.204933,0.48699,-1.357326,-0.1180726,11.37931,14.05614,-0.102589,0.1856678,-0.03933097,-0.6572112,-3.560476,-0.4411521,0.3268387,1.411307,0.4242067,-0.03752123,0.1065361,0.1034806,-0.9769822,0.6187104,-0.233535,0.4976813,1.501311,0.2976894,0.04702875,1.121434,0.3725483,289.6234,272.9477,337.3961,True
0,0.1777778,-0.3479629,0.06421915,-0.1769113,-1.521255,-4.644297,-2.815957,0.3323721,1.205186,0.486984,-1.356155,0.1086161,11.37931,14.01328,-0.05329023,0.1442463,-0.01629562,-0.6567835,-3.559853,-0.442709,0.3266656,1.411405,0.4240611,-0.0300729,0.09908421,0.1023222,-0.9761209,0.6199831,-0.2341848,0.4972699,1.501372,0.2974601,0.04562134,1.12267,0.3731039,289.3502,272.7902,337.7144,True
0,0.1888889,-0.4005419,0.1608358,-0.1987338,-1.5202,-4.649814,-2.809572,0.3316404,1.205449,0.4871094,-1.35639,-0.02204981,11.35279,14.03471,-0.01465411,0.09960759,0.005761495,-0.6557257,-3.559839,-0.443725,0.3264927,1.411508,0.4238312,-0.004406959,0.07353627,0.1094548,-0.9747888,0.6208171,-0.235685,0.4970678,1.50127,0.2969468,0.04407539,1.123928,0.3737443,289.1548,272.4885,338.0921,True
0,0.2,-0.4542229,0.2594572,-0.2418704,-1.518235,-4.656783,-2.802497,0.3309455,1.205885,0.4873805,-1.357067,-0.06132947,11.29973,14.12042,0.0530782,-0.006748579,0.04564173,-0.6525405,-3.564035,-0.4430238,0.3265081,1.411812,0.4238935,-0.0004733168,0.01397601,0.07519442,-0.9748192,0.6188309,-0.2346871,0.4967332,1.501352,0.2966306,0.04237793,1.125343,0.3745507,289.0013,272.2522,338.4135,True
0,0.2111111,-0.5195692,0.3431078,-0.2870344,-1.516001,-4.664626,-2.794132,0.3301488,1.206427,0.4877203,-1.356718,0.03293068,11.22016,14.22755,0.09495156,-0.04499573,0.0740668,-0.6501405,-3.565479,-0.4443751,0.3263622,1.411977,0.4238126,-0.00607709,-0.04881623,0.04635257,-0.9747005,0.6154624,-0.232532,0.4964194,1.501376,0.2963231,0.0406558,1.126988,0.3755971,288.7867,272.2047,338.577,True
0,0.2222222,-0.5806228,0.4203403,-0.3364204,-1.513458,-4.672676,-2.785731,0.329312,1.207002,0.4880009,-1.35659,0.01170604,11.14058,14.35612,0.1143976,-0.09075397,0.09305198,-0.6477394,-3.567729,-0.4440944,0.3261737,1.412201,0.4238186,-0.01482047,-0.07966225,0.02401206,-0.974579,0.6133556,-0.2309227,0.4959676,1.50165,0.2961884,0.03884779,1.128916,0.3770038,288.517,272.2323,338.6758,True
0,0.2333333,-0.6202656,0.46789,-0.3771378,-1.510633,-4.681018,-2.777022,0.3284632,1.207563,0.4884033,-1.355915,0.06192357,11.03448,14.46325,0.1121988,-0.1067214,0.07600459,-0.6467284,-3.570253,-0.4432579,0.3259752,1.412373,0.4237709,-0.005247017,-0.07113436,0.02286623,-0.974278,0.6127909,-0.230854,0.4956131,1.501744,0.2959201,0.03687959,1.131184,0.3789198,288.1842,272.1234,338.953,True
0,0.2444444,-0.6663653,0.530263,-0.427521,-1.507545,-4.690522,-2.767675,0.3276113,1.208239,0.4888921,-1.356429,-0.04701347,10.95491,14.54896,0.1205127,-0.04703687,0.07494785,-0.6466592,-3.567442,-0.446965,0.3257778,1.412619,0.4236774,0.008575998,-0.06684091,0.0195409,-0.9740421,0.6126137,-0.2314862,0.4954033,1.501657,0.2953823,0.03464948,1.133857,0.3814295,287.7917,272.0568,339.3365,True
0,0.2555556,-0.6932584,0.5841991,-0.4768169,-1.504182,-4.700689,-2.758516,0.3265967,1.209003,0.4895635,-1.356799,-0.03292131,10.8488,14.61324,0.1364836,-0.01930518,0.08657973,-0.6457191,-3.56564,-0.4504575,0.3255735,1.412916,0.4236233,0.03507026,-0.08917382,0.005368943,-0.9740725,0.6104491,-0.2316202,0.4950655,1.501742,0.2950542,0.03224313,1.136946,0.3844965,287.2653,272.1507,339.7686,True
0,0.2666667,-0.7147256,0.6170272,-0.4961631,-1.501425,-4.710363,-2.749091,0.3258414,1.209862,0.4900787,-1.356825,-0.001770088,10.79576,14.61324,0.1388044,-0.04594676,0.1014533,-0.6435289,-3.566737,-0.451124,0.3254349,1.413223,0.4235141,0.03717376,-0.1285669,0.0009988844,-0.9736336,0.6073735,-0.2304143,0.4948168,1.501698,0.2946527,0.02977121,1.140386,0.3880263,286.6122,272.3658,340.2089,True
0,0.2777778,-0.7479825,0.6699789,-0.5262803,-1.498756,1.561649,-2.738867,0.3247771,1.210689,0.4907866,-1.357582,-0.06891553,10.79576,14.54896,0.1296224,-0.1024769,0.1323487,-0.6399438,-3.569873,-0.4497006,0.3252372,1.413603,0.4234946,0.03062668,-0.1625963,-0.01605381,-0.9738589,0.6042307,-0.2289509,0.4944758,1.501649,0.2942011,0.02723366,1.144108,0.3919438,285.9052,272.5761,340.6909,True
0,0.2888889,-0.7769785,0.7186197,-0.5691234,-1.495337,1.549884,-2.728445,0.3237662,1.211658,0.4915407,-1.357841,-0.022732,10.76923,14.44182,0.1265836,-0.1323262,0.1419224,-0.6372151,-3.572201,-0.4489717,0.3251596,1.413823,0.4235575,0.03267299,-0.1657879,-0.02354237,-0.9739132,0.6016226,-0.2277706,0.4941292,1.501714,0.2939243,0.02469004,1.148026,0.3961844,285.1693,272.8398,341.1688,True
0,0.3,-0.8070331,0.7662094,-0.6087831,-1.49191,1.537537,-2.717539,0.3227614,1.212613,0.4923339,-1.357603,0.02214406,10.76923,14.29184,0.1309925,-0.140854,0.158925,-0.6343223,-3.57344,-0.4495842,0.324899,1.414257,0.4236658,0.02946207,-0.1647269,-0.02457449,-0.9738099,0.5993565,-0.2266329,0.4936314,1.502062,0.293941,0.02226479,1.15206,0.4005931,284.4383,273.2774,341.5477,True
0,0.3111111,-0.8338639,0.8117655,-0.6345919,-1.489022,1.524582,-2.706335,0.3216591,1.21356,0.4932353,-1.357861,-0.02347149,10.76923,14.1847,0.1523449,-0.1312015,0.1715723,-0.6317487,-3.572975,-0.4522268,0.3246908,1.414663,0.4238384,0.03069601,-0.1764789,-0.008632004,-0.9728229,0.5967083,-0.2255383,0.4931792,1.502164,0.2937379,0.01973551,1.156159,0.4050959,283.7245,273.5978,342.0028,True
0,0.3222222,-0.8618298,0.877642,-0.646663,-1.487296,1.510621,-2.694565,0.320685,1.214462,0.4942513,-1.357889,-0.002127443,10.74271,14.09899,0.1491325,-0.1312042,0.1705242,-0.6295915,-3.57372,-0.4530365,0.3245369,1.415025,0.4240379,0.01373341,-0.2052749,-0.001059942,-0.9718242,0.5927656,-0.2228283,0.4926935,1.502252,0.2935655,0.01716221,1.160294,0.4096817,283.0278,273.5798,342.7419,True
0,0.3333333,-0.8726873,0.9286532,-0.6608045,-1.485477,1.496366,-2.683309,0.3194596,1.215354,0.4952679,-1.358062,-0.01549858,10.71618,14.03471,0.135323,-0.1429683,0.1706094,-0.6270003,-3.575338,-0.4527518,0.3242893,1.415382,0.4243019,0.006060526,-0.2201457,-0.02231949,-0.972066,0.5890015,-0.2205385,0.4922017,1.502333,0.2934887,0.01457011,1.164459,0.4143727,282.3525,273.423,343.5764,True
0,0.3444445,-0.8748502,0.9392986,-0.6608608,-1.483604,1.483614,-2.672605,0.3183372,1.216343,0.4962363,-1.358001,0.005984224,10.74271,14.01328,0.1354463,-0.1791845,0.1716364,-0.6238971,-3.578617,-0.4515573,0.323962,1.415722,0.4246225,0.004651427,-0.2222241,-0.05427214,-0.973077,0.5854115,-0.2183076,0.491881,1.502427,0.2933602,0.01197038,1.168668,0.4192166,281.7019,273.398,344.2529,True
0,0.3555556,-0.8759806,0.9552519,-0.6630957,-1.481984,1.470249,-2.661654,0.3171485,1.217169,0.497201,-1.358902,-0.08212856,10.74271,13.99186,0.1420972,-0.2324455,0.1832472,-0.6198784,-3.583741,-0.4492012,0.3235995,1.416115,0.4250362,0.00787957,-0.2200994,-0.05110487,-0.9730269,0.5824758,-0.2168479,0.4913605,1.502521,0.2933183,0.009389732,1.172957,0.4242758,281.0672,273.6432,344.6884,True
0,0.3666667,-0.8718251,0.9775745,-0.6738727,-1.480515,1.456433,-2.650824,0.3160493,1.21799,0.4985189,-1.359713,-0.07327376,10.79576,14.03471,0.1475497,-0.2462821,0.1949103,-0.6163253,-3.586504,-0.4487421,0.3232643,1.416575,0.4252994,0.01008623,-0.2073404,-0.04257488,-0.9726674,0.5801579,-0.2156417,0.4906549,1.502616,0.293154,0.006827859,1.177321,0.4295405,280.3967,273.9662,345.1562,True
0,0.3777778,-0.8675633,0.9808249,-0.6643431,-1.479032,1.443544,-2.64024,0.3149497,1.218723,0.4993052,-1.359806,-0.007806773,10.87533,14.16327,0.1498146,-0.2132922,0.2290216,-0.6124541,-3.585821,-0.4510255,0.3228363,1.416891,0.4256473,0.01019888,-0.1988481,-0.0308326,-0.9720969,0.5778391,-0.2143528,0.4900643,1.502628,0.2930713,0.004457734,1.181697,0.4348677,279.684,274.3222,345.6912,True
0,0.3888889,-0.854772,0.9809095,-0.6579684,-1.478111,1.430633,-2.630077,0.3138722,1.219607,0.5004926,-1.360132,-0.02970722,10.98143,14.31326,0.165741,-0.1780852,0.2385437,-0.6094239,-3.584265,-0.4545462,0.3224034,1.417486,0.4259286,0.006002381,-0.1967395,-0.0243945,-0.9717129,0.5752155,-0.2127738,0.4893373,1.502629,0.2931211,0.002228984,1.18602,0.4401814,278.9467,274.5598,346.2863,True
0,0.4,-0.8270328,0.9747024,-0.644118,-1.477512,1.417892,-2.620541,0.3127929,1.220546,0.5018401,-1.36046,-0.02965899,11.06101,14.46325,0.1699341,-0.1620919,0.2363999,-0.6065466,-3.584702,-0.4562293,0.3220171,1.417863,0.4264207,0.007128045,-0.2031554,-0.01802883,-0.9711558,0.5720254,-0.2109815,0.488705,1.502633,0.2931485,0.000156153,1.190242,0.4454915,278.2222,274.7671,346.8614,True
0,0.4111111,-0.7982184,0.9674357,-0.6313299,-1.476991,1.405293,-2.611444,0.3117664,1.221599,0.5032232,-1.36099,-0.04821952,11.16711,14.63467,0.1732483,-0.1727466,0.2480836,-0.6027399,-3.585788,-0.4573814,0.321555,1.418288,0.4269893,0.008097753,-0.2148527,-0.02765229,-0.9712005,0.5685298,-0.209113,0.4879822,1.502697,0.2933223,-0.001759741,1.194322,0.4506883,277.5492,275.0714,347.3853,True
0,0.4222222,-0.7938903,0.9547383,-0.6206056,-1.476506,1.393079,-2.601593,0.3108083,1.22246,0.5046198,-1.361666,-0.06133994,11.19363,14.82751,0.1872398,-0.1822996,0.2639564,-0.5985897,-3.586713,-0.4591138,0.3210411,1.418879,0.4274344,0.00680843,-0.2254636,-0.0489647,-0.9717827,0.564804,-0.2069665,0.4871989,1.502769,0.2935481,-0.003568531,1.198272,0.4557608,276.9696,275.2463,347.9239,True
0,0.4333333,-0.7811234,0.9655398,-0.603642,-1.476944,1.380287,-2.592093,0.3097303,1.223243,0.5060477,-1.362095,-0.03881938,11.19363,14.9775,0.1991323,-0.2120999,0.2744938,-0.5939968,-3.589367,-0.4595569,0.3204355,1.419366,0.4281266,0.004609987,-0.2190588,-0.0553203,-0.9721379,0.5619331,-0.20535,0.4863989,1.502799,0.2938688,-0.005295046,1.20211,0.4607508,276.4523,275.2947,348.4922,True
0,0.4444444,-0.7630166,0.9720463,-0.59624,-1.477293,1.367487,-2.583032,0.3087021,1.224023,0.5075686,-1.361257,0.07682475,11.16711,15.10606,0.1982149,-0.2440898,0.2744783,-0.5892888,-3.593169,-0.4591388,0.3199024,1.419861,0.4292033,0.004534528,-0.2115962,-0.06170066,-0.9725491,0.5591114,-0.2036868,0.4857971,1.502849,0.294157,-0.006914932,1.205837,0.4657024,275.9464,275.1564,349.2208,True
0,0.4555556,-0.7385093,0.973245,-0.588822,-1.477766,1.354814,-2.574454,0.3075559,1.224776,0.5091062,-1.361495,-0.02248212,11.08753,15.12749,0.1877798,-0.2793094,0.2841215,-0.5838741,-3.59727,-0.4578831,0.3192242,1.420259,0.4300025,0.01179159,-0.2062257,-0.08094037,-0.9737065,0.5562252,-0.2024604,0.4849223,1.502882,0.2946072,-0.008472872,1.209473,0.4706489,275.4427,275.0226,349.9444,True
0,0.4666667,-0.7203351,0.9541231,-0.5908616,-1.477461,1.342794,-2.565847,0.3064607,1.225538,0.5106056,-1.361903,-0.03706094,11.03448,15.08464,0.1867812,-0.2984827,0.2830353,-0.5794682,-3.601091,-0.456917,0.3184448,1.420599,0.4308057,0.01705633,-0.2008994,-0.0863152,-0.9744053,0.5532237,-0.2010729,0.4840732,1.503002,0.2950797,-0.01004402,1.213061,0.475659,274.9363,275.164,350.3866,True
0,0.4777778,-0.6946476,0.9168615,-0.6023904,-1.476314,1.331468,-2.557934,0.3053389,1.226291,0.5121958,-1.362297,-0.03583174,10.98143,15.02035,0.1781314,-0.2835968,0.268216,-0.5757083,-3.603574,-0.4569044,0.3176486,1.420791,0.4315445,0.02671214,-0.17428,-0.07889962,-0.9747851,0.551959,-0.2010343,0.4830915,1.503062,0.2956517,-0.01158708,1.216595,0.4807801,274.4262,275.2356,350.9123,True
0,0.4888889,-0.6712457,0.9020731,-0.5981042,-1.47586,1.31889,-2.549263,0.3046273,1.227437,0.5137615,-1.362105,0.01768925,10.92838,14.93465,0.1725733,-0.2420529,0.2533802,-0.5731197,-3.603791,-0.4586323,0.3168108,1.420924,0.4324629,0.03747415,-0.149809,-0.06724094,-0.9749385,0.5507042,-0.200968,0.4820575,1.503089,0.2964108,-0.0130898,1.22005,0.48602,273.9053,275.2126,351.5921,True
0,0.5,-0.6530917,0.8925904,-0.5916799,-1.475972,1.3074,-2.541571,0.3035644,1.228199,0.5153465,-1.362556,-0.04161189,10.90185,14.84894,0.1778625,-0.2249915,0.2544405,-0.5693924,-3.604621,-0.4602571,0.3160106,1.421266,0.4331975,0.05030229,-0.148752,-0.06311278,-0.975199,0.5485061,-0.2007235,0.481093,1.503098,0.2969346,-0.01448348,1.223384,0.4913017,273.3995,274.4786,353.0487,True
0,0.5111111,-0.6285019,0.8714193,-0.584129,-1.475935,1.296534,-2.534462,0.3024378,1.228913,0.5170155,-1.361822,0.06740126,10.90185,14.78466,0.1861025,-0.1993654,0.2267119,-0.5673338,-3.605588,-0.4617559,0.3150511,1.42151,0.4341476,0.04610527,-0.1423756,-0.05666345,-0.9753385,0.5468196,-0.2001656,0.4799548,1.503141,0.2976389,-0.01570307,1.22657,0.4965485,272.9705,272.7493,355.4718,True
0,0.5222223,-0.600605,0.8374987,-0.5754483,-1.475661,1.28637,-2.527969,0.3010793,1.229268,0.5188541,-1.362471,-0.05996468,10.87533,14.69895,0.1881719,-0.1940269,0.2192438,-0.564474,-3.6073,-0.4625692,0.3141202,1.421817,0.4349778,0.03773214,-0.1307,-0.04162992,-0.9749875,0.5454473,-0.1994804,0.4787713,1.503096,0.2983329,-0.01674212,1.229717,0.5017936,272.6613,271.1119,357.7551,True
0,0.5333334,-0.5748705,0.7950382,-0.5656396,-1.475115,1.276842,-2.521549,0.2997788,1.229923,0.5206137,-1.362901,-0.03884719,10.87533,14.65609,0.1786209,-0.200453,0.2214355,-0.5611536,-3.609292,-0.4625439,0.3130511,1.422119,0.4360361,0.03152689,-0.1286109,-0.0234503,-0.9743494,0.543947,-0.1987624,0.4775979,1.50315,0.2990761,-0.01775599,1.232859,0.5070282,272.2451,269.8712,359.6799,True
0,0.5444446,-0.5546306,0.7632215,-0.5537492,-1.474827,1.266809,-2.514151,0.2988761,1.23122,0.5224702,-1.363256,-0.0324028,10.87533,14.59181,0.1583639,-0.1983836,0.2205164,-0.5580302,-3.610775,-0.462328,0.3119806,1.422462,0.4371498,0.04235303,-0.126523,-0.006514216,-0.9736192,0.5422873,-0.198683,0.4762838,1.503261,0.2999678,-0.01881775,1.235916,0.5121841,271.707,266.9745,3.269456,True
0,0.5555557,-0.5299307,0.7154701,-0.5375171,-1.474141,1.25853,-2.508332,0.2975414,1.231938,0.5242925,-1.363045,0.01934753,10.82228,14.52753,0.1574562,-0.2058694,0.2386264,-0.5539375,-3.612466,-0.462672,0.3108132,1.422809,0.438271,0.04763819,-0.1307711,-0.01084013,-0.9736314,0.5403863,-0.1983456,0.4749687,1.503342,0.3009493,-0.01998938,1.238747,0.5171988,271.1447,259.8029,11.09344,True
0,0.5666668,-0.506245,0.6677847,-0.5117172,-1.473754,1.250739,-2.502858,0.2959833,1.232466,0.5262616,-1.361869,0.1071187,10.76923,14.48468,0.1629052,-0.220774,0.2492286,-0.5498075,-3.614768,-0.4626792,0.3094554,1.423142,0.4394069,0.03912609,-0.123325,-0.009685839,-0.9734216,0.538814,-0.1977879,0.473704,1.50329,0.30199,-0.02119811,1.241331,0.5220004,270.8467,249.8495,21.61166,True
0,0.577778,-0.4846891,0.6254797,-0.4784749,-1.473848,1.243387,-2.497719,0.2945519,1.232905,0.5282388,-1.362974,-0.1020507,10.71618,14.4204,0.1607953,-0.2058799,0.2588494,-0.5461419,-3.615205,-0.4640159,0.3081461,1.423383,0.440526,0.03160694,-0.1179998,-0.01490336,-0.973445,0.5373448,-0.1968526,0.472429,1.503251,0.3030262,-0.02237627,1.243847,0.5266148,270.7965,241.6035,30.3448,True
0,0.5888891,-0.4568766,0.5926374,-0.4528037,-1.473876,1.235709,-2.49224,0.2931971,1.233505,0.5300329,-1.363196,-0.01948995,10.66313,14.35612,0.1573675,-0.1611314,0.2472108,-0.5438889,-3.613384,-0.4671677,0.306849,1.423528,0.4417248,0.02194401,-0.08709557,-0.02112851,-0.9738663,0.5372748,-0.1967629,0.471072,1.503258,0.3041656,-0.02359034,1.246317,0.5310154,270.6717,220.708,51.7294,True
0,0.6000003,-0.4396471,0.5662729,-0.4323763,-1.473841,1.229171,-2.487804,0.2917038,1.233974,0.5319557,-1.363235,-0.0036538,10.6366,14.29184,0.1454523,-0.1313326,0.2334776,-0.5417541,-3.612466,-0.4691877,0.3055045,1.423774,0.4429641,0.02398533,-0.08175386,-0.02966229,-0.9743084,0.5361398,-0.1965035,0.4696645,1.503265,0.3053064,-0.02490535,1.248664,0.5351955,270.638,183.2765,89.58393,True
0,0.6111114,-0.413919,0.5281177,-0.415136,-1.473452,1.222926,-2.483371,0.2901224,1.23447,0.5338197,-1.362671,0.0513828,10.61008,14.22755,0.1111665,-0.1026608,0.2199052,-0.5399,-3.610896,-0.4705489,0.304216,1.42386,0.4444242,0.03127724,-0.08171652,-0.04571776,-0.9751926,0.5347983,-0.1963381,0.4682182,1.503295,0.3065886,-0.02623105,1.250797,0.5391462,270.8079,155.2233,117.9928,True
0,0.6222225,-0.3934477,0.4771953,-0.39355,-1.472798,1.217528,-2.4791,0.2884903,1.234883,0.5357964,-1.363292,-0.05742626,10.58355,14.12042,0.09195727,-0.1070384,0.2136115,-0.5373333,-3.611653,-0.4706594,0.3028696,1.42409,0.4459214,0.0386654,-0.09555516,-0.0522226,-0.9757236,0.532584,-0.1957019,0.4667541,1.503297,0.3078508,-0.02757057,1.252746,0.5429106,271.0153,144.9315,128.6045,True
0,0.6333337,-0.370851,0.4274129,-0.3591906,-1.472451,1.213202,-2.475235,0.2867273,1.235253,0.5377064,-1.363087,0.01912696,10.58355,13.99186,0.0877398,-0.1006136,0.2221979,-0.5344197,-3.610768,-0.4720056,0.3015076,1.424223,0.4474096,0.03867231,-0.1136383,-0.0533319,-0.9760874,0.5305995,-0.1952284,0.465205,1.503187,0.3091588,-0.02894768,1.254523,0.5465201,271.2345,139.7045,134.1287,True
0,0.6444448,-0.3515892,0.4052742,-0.3324281,-1.47282,1.208295,-2.471225,0.2851624,1.235661,0.5396616,-1.36288,0.01856149,10.55703,13.84187,0.09101522,-0.112323,0.2274844,-0.5313161,-3.611119,-0.4729071,0.300058,1.424441,0.4489233,0.03437794,-0.1232323,-0.05650242,-0.9764059,0.5282527,-0.1941029,0.4637084,1.503141,0.3105705,-0.03041205,1.256144,0.5499988,271.4539,137.1168,136.9962,True
0,0.655556,-0.3248005,0.382254,-0.2790602,-1.474001,1.204755,-2.468207,0.2833135,1.235918,0.5415771,-1.36292,-0.004032309,10.5305,13.71331,0.1006649,-0.1399878,0.2231233,-0.5280558,-3.613533,-0.4722914,0.2985928,1.424469,0.4504888,0.03551265,-0.1157972,-0.04904358,-0.9765269,0.526868,-0.193688,0.462164,1.503152,0.3120863,-0.03196978,1.25762,0.5533483,271.6599,135.3102,139.0623,True
0,0.6666671,-0.3011217,0.3390008,-0.2223797,-1.474808,1.20226,-2.465298,0.2814629,1.236091,0.5434091,-1.362612,0.02806666,10.47745,13.58474,0.1070276,-0.1633801,0.2070666,-0.5254092,-3.616468,-0.4712543,0.2970204,1.424474,0.4521236,0.02683458,-0.1083105,-0.06385276,-0.9775186,0.5254409,-0.1929106,0.4604933,1.503116,0.3137014,-0.03359872,1.258964,0.5565343,271.8121,133.5046,141.0967,True
0,0.6777782,-0.2924996,0.3178284,-0.2052192,-1.475199,1.198781,-2.461899,0.2796419,1.236266,0.5452666,-1.363202,-0.05437639,10.4244,13.47761,0.09193221,-0.1900294,0.1687919,-0.5234853,-3.621682,-0.4672825,0.2953096,1.424529,0.4539127,0.02465815,-0.08379719,-0.06804431,-0.9784837,0.5250667,-0.1929772,0.4587449,1.503108,0.3154516,-0.03524632,1.260229,0.5595928,271.9021,131.7626,143.0136,True
0,0.6888894,-0.2752957,0.2882511,-0.174173,-1.475837,1.196292,-2.459192,0.2777488,1.236392,0.5471718,-1.363029,0.01617706,10.37135,13.41333,0.05424364,-0.1656001,0.1254174,-0.5228899,-3.623453,-0.4649477,0.2935036,1.424435,0.4557843,0.03535497,-0.03480958,-0.06165396,-0.9791218,0.5262814,-0.1943117,0.4568951,1.503086,0.3172901,-0.03693695,1.261429,0.5625034,272.0111,127.8765,147.1106,True
0,0.7000005,-0.2496525,0.2587296,-0.146314,-1.476864,1.193495,-2.456143,0.276154,1.237401,0.5504286,-1.362368,0.06013123,10.3183,13.37047,0.0476228,-0.1528086,0.1009818,-0.5218374,-3.625195,-0.463688,0.2919145,1.424495,0.4574735,0.05144494,0.01206399,-0.05107326,-0.9798276,0.5283306,-0.1967903,0.4550315,1.50325,0.3192301,-0.03865738,1.262515,0.5651827,272.1643,124.715,150.4818,True
0,0.7111117,-0.2314686,0.2450478,-0.129213,-1.477629,1.191167,-2.453968,0.2741976,1.237476,0.5522692,-1.362689,-0.03007444,10.3183,13.41333,0.04740182,-0.1570334,0.06795367,-0.5213713,-3.628954,-0.4609556,0.2901691,1.424441,0.4591732,0.05473729,0.02909423,-0.04148441,-0.9801669,0.5293172,-0.1980763,0.4532671,1.503068,0.3207707,-0.0404511,1.263515,0.5676874,272.3171,123.9929,151.3118,True
0,0.7222228,-0.2068848,0.2410513,-0.100459,-1.479151,1.188955,-2.452572,0.2719577,1.237448,0.5543013,-1.362235,0.04171064,10.3183,13.37047,0.01735517,-0.1538981,0.03833726,-0.5212253,-3.632342,-0.457224,0.2883304,1.424371,0.461055,0.065309,0.04082805,-0.04902865,-0.9811522,0.5299873,-0.1995174,0.4515551,1.503038,0.322681,-0.04233352,1.264498,0.5701436,272.3744,125.1322,150.0357,True
0,0.7333339,-0.1929744,0.2327121,-0.07805693,-1.48054,1.187133,-2.450751,0.2698707,1.237422,0.556108,-1.362817,-0.05375908,10.34483,13.34904,-0.01044081,-0.1401332,0.03109318,-0.5206752,-3.634204,-0.4544985,0.286356,1.424311,0.4628189,0.06951535,0.03977582,-0.05440114,-0.9820263,0.5302791,-0.2005991,0.449709,1.503075,0.3244994,-0.04429886,1.265652,0.5728555,272.3563,126.8065,148.1251,True
0,0.7444451,-0.1726271,0.2223373,-0.04501393,-1.482229,1.185718,-2.449584,0.2675744,1.237306,0.5578499,-1.36343,-0.05564313,10.39788,13.34904,-0.0264888,-0.1273971,0.02802426,-0.5200222,-3.635674,-0.4523856,0.2844236,1.424169,0.4646103,0.07915482,0.03017661,-0.0502621,-0.9824444,0.5299793,-0.2017044,0.4477036,1.503184,0.326484,-0.04617119,1.266833,0.5757053,272.5397,124.1345,150.9384,True
0,0.7555562,-0.1448667,0.2140527,-0.01735191,-1.483551,1.184579,-2.448649,0.2653744,1.236064,0.5570159,-1.362767,0.06086157,10.45093,13.3919,-0.03927692,-0.0869863,0.0462679,-0.5191087,-3.634093,-0.4528391,0.2823169,1.423951,0.4664171,0.08893658,0.03973259,-0.0322293,-0.9823506,0.5310604,-0.2037526,0.4456255,1.503111,0.3284695,-0.04803776,1.267897,0.5785977,272.8327,119.3552,156.0257,True
0,0.7666674,-0.1075006,0.2069188,0.0050143,-1.4859,1.182819,-2.448963,0.2631094,1.235507,0.5589266,-1.363049,-0.02652769,10.47745,13.43475,-0.03944138,-0.06885699,0.03136697,-0.5193025,-3.634608,-0.4520255,0.2801982,1.423669,0.4681988,0.08822176,0.07800613,0.003018338,-0.9815597,0.533917,-0.2062847,0.4435687,1.503108,0.3304653,-0.04990495,1.268726,0.5813655,273.0706,115.2222,160.5066,True
0,0.7777785,-0.08934997,0.1985491,0.0156888,-1.487682,1.181323,-2.448425,0.2609566,1.235104,0.5603983,-1.363051,-3.940595E-05,10.47745,13.47761,-0.06214561,-0.0390741,-0.001454439,-0.5204275,-3.63478,-0.4504239,0.278218,1.423357,0.4699018,0.09152887,0.1078099,0.01476818,-0.9814409,0.5367414,-0.2089844,0.4415589,1.503132,0.3324449,-0.05172021,1.269185,0.5837528,273.3291,110.3895,165.9129,True
0,0.7888896,-0.06160304,0.1923865,0.02953862,-1.489875,1.179754,-2.44873,0.2587497,1.234594,0.5620272,-1.364059,-0.09244019,10.47745,13.49904,-0.1041224,-0.01891572,-0.05226884,-0.5226475,-3.635789,-0.4470132,0.276125,1.42287,0.4716365,0.1203006,0.1259176,0.017708,-0.9815804,0.5391242,-0.2123546,0.4393822,1.503213,0.334568,-0.05338864,1.269025,0.5852835,273.5974,106.8926,169.9845,True
0,0.8000008,-0.04985075,0.187268,0.05195247,-1.492728,1.178897,-2.448369,0.2566844,1.233944,0.5636148,-1.362983,0.09892472,10.50398,13.49904,-0.1127028,-0.01787955,-0.05967005,-0.5233708,-3.637228,-0.4442267,0.2740732,1.42264,0.473505,0.1458409,0.1206153,0.01423746,-0.9818255,0.5405244,-0.2156726,0.4373879,1.503246,0.336442,-0.05548909,1.268465,0.5864192,273.6449,106.2421,170.4598,True
0,0.8111119,-0.03164461,0.1726113,0.08397584,-1.495133,1.179089,-2.44864,0.2545954,1.233216,0.5649621,-1.363399,-0.03915912,10.5305,13.60617,-0.1236117,-0.0178652,-0.09581293,-0.5253714,-3.639428,-0.4406211,0.2719416,1.422276,0.475282,0.1809581,0.1291565,0.01069775,-0.9822217,0.5425542,-0.2200613,0.4352953,1.503325,0.3383677,-0.05796929,1.267652,0.5874639,273.4473,106.5451,169.7231,True
0,0.8222231,-0.0124146,0.1642669,0.1021108,-1.497434,1.178983,-2.44912,0.2525763,1.232599,0.5663369,-1.36248,0.08428936,10.58355,13.64902,-0.1172386,-0.01784468,-0.09799078,-0.5262161,-3.640795,-0.4383979,0.2698642,1.421939,0.4771557,0.1800903,0.1387051,0.02990045,-0.9817248,0.5450501,-0.223338,0.4331914,1.503424,0.3403072,-0.06061703,1.26669,0.5886555,273.1911,106.551,169.3026,True
0,0.8333342,0.01643578,0.1528337,0.1319658,-1.500088,1.179439,-2.450343,0.2505252,1.232019,0.5675781,-1.362697,-0.02076219,10.68966,13.64902,-0.1035242,-0.007130407,-0.1119259,-0.5278705,-3.641703,-0.4369656,0.2677821,1.421507,0.478899,0.1590257,0.1429289,0.05249535,-0.9809205,0.5476754,-0.2259615,0.4310228,1.503533,0.3422828,-0.06316195,1.265648,0.5900369,272.9305,104.3652,171.2908,True
0,0.8444453,0.03566404,0.1444439,0.143702,-1.502239,1.179602,-2.45139,0.2484928,1.231518,0.5687714,-1.36276,-0.00564327,10.79576,13.6276,-0.1007567,-0.008117154,-0.1726678,-0.5313603,-3.645185,-0.4329714,0.2656689,1.420982,0.4805086,0.1526389,0.1493027,0.05471028,-0.9806137,0.5498478,-0.2284358,0.4288194,1.503579,0.3443081,-0.06547121,1.264578,0.5914937,272.7258,100.8776,174.8035,True
0,0.8555565,0.06769699,0.1286563,0.1565386,-1.504466,1.180326,-2.453305,0.2465785,1.230746,0.5699079,-1.363233,-0.0434115,10.90185,13.60617,-0.110792,0.01533866,-0.2247719,-0.5355495,-3.647166,-0.4297021,0.2635734,1.420381,0.4820902,0.1677654,0.1769897,0.07485469,-0.9799128,0.554132,-0.2334202,0.4266324,1.503672,0.3461959,-0.0675725,1.263566,0.5929744,272.558,96.85241,178.919,True
0,0.8666676,0.110424,0.1001403,0.1651793,-1.506507,1.180987,-2.456,0.2445513,1.229835,0.5710962,-1.36288,0.03243859,10.98143,13.58474,-0.1023975,0.03349043,-0.2343979,-0.5385183,-3.647593,-0.4285071,0.2614086,1.419779,0.4837325,0.2019796,0.201468,0.08840598,-0.9791538,0.5580657,-0.2389708,0.4243333,1.503741,0.3480761,-0.06953294,1.262662,0.5944211,272.465,92.11008,183.7736,True
0,0.8777788,0.1531034,0.0832475,0.1662875,-1.508076,1.181897,-2.459134,0.2428115,1.229021,0.5720341,-1.363403,-0.04832229,11.00796,13.6276,-0.09399147,0.05908637,-0.2386922,-0.5415331,-3.647268,-0.4280571,0.2594377,1.419225,0.4852786,0.2405304,0.2153044,0.107209,-0.9782206,0.5621533,-0.2454689,0.4221554,1.503945,0.3499806,-0.07141295,1.261871,0.5957937,272.4501,88.18838,187.7926,True
0,0.8888899,0.1722261,0.09715195,0.1640482,-1.510402,1.181803,-2.461683,0.241086,1.228134,0.5729787,-1.363954,-0.05012003,11.03448,13.69188,-0.105602,0.05370519,-0.2258305,-0.5435634,-3.648203,-0.4257068,0.2573335,1.418498,0.4866869,0.2397864,0.19392,0.1380746,-0.9759159,0.5643569,-0.2492466,0.4200327,1.503947,0.3515484,-0.07318281,1.261074,0.5970256,272.5681,85.52153,190.5219,True
0,0.900001,0.1902744,0.1185448,0.1639024,-1.513362,1.1811,-2.464505,0.2394781,1.22708,0.5738966,-1.36408,-0.011383,11.03448,13.71331,-0.1279209,0.05893773,-0.21608,-0.5457089,-3.648643,-0.4231251,0.2553833,1.417867,0.4880605,0.2334519,0.1811238,0.143436,-0.9746711,0.5667552,-0.2528679,0.4179335,1.50403,0.3530977,-0.07490818,1.260122,0.598105,272.7402,83.57505,192.4997,True
0,0.9111122,0.1880927,0.1280476,0.1510642,-1.515419,1.180542,-2.466446,0.2379732,1.226157,0.5746379,-1.363217,0.07874669,11.03448,13.71331,-0.136574,0.08554648,-0.2213098,-0.548813,-3.64739,-0.4222908,0.2534997,1.417209,0.4892535,0.2228046,0.165132,0.1435106,-0.9734557,0.5685857,-0.2559977,0.4158309,1.50408,0.3546009,-0.0765501,1.258879,0.5989904,272.8269,81.53905,194.5304,True
0,0.9222233,0.1912992,0.1237621,0.1393749,-1.517436,1.179972,-2.468799,0.2365937,1.225239,0.575556,-1.363125,0.007499572,11.00796,13.69188,-0.1207825,0.1452526,-0.2192284,-0.5525132,-3.642975,-0.4253026,0.251532,1.416545,0.4906166,0.2250816,0.161908,0.1573304,-0.9717869,0.5713204,-0.2602156,0.4138139,1.504173,0.3562608,-0.078232,1.257369,0.5998113,272.8016,78.43963,197.5397,True
0,0.9333345,0.2010133,0.1015065,0.1468799,-1.51933,1.180526,-2.471092,0.2351095,1.224375,0.5763855,-1.362003,0.1023879,11.03448,13.6276,-0.09438944,0.1805145,-0.2364233,-0.5567871,-3.63986,-0.4278086,0.2497543,1.415879,0.4918759,0.2413456,0.1618534,0.1848619,-0.9693283,0.5743531,-0.2652141,0.4118109,1.504232,0.3576696,-0.07991626,1.255615,0.6006729,272.7152,73.98107,201.9034,True
0,0.9444456,0.2127092,0.08877726,0.1491373,-1.521101,1.181069,-2.473605,0.2340885,1.223818,0.5770531,-1.362123,-0.01200004,11.03448,13.6276,-0.0827463,0.1731117,-0.2514349,-0.56049,-3.640025,-0.4272349,0.2479668,1.415297,0.493212,0.23845,0.1671181,0.2136641,-0.9666774,0.577835,-0.2698096,0.4097791,1.504208,0.3590913,-0.08157779,1.253714,0.6016053,272.53,68.24133,207.6005,True
0,0.9555568,0.2319485,0.07614648,0.1630374,-1.523173,1.182183,-2.476905,0.232905,1.223078,0.5777788,-1.361901,0.02045269,11.03448,13.71331,-0.09437442,0.1549516,-0.2471142,-0.5633513,-3.640499,-0.4252874,0.2465102,1.414774,0.4943306,0.2182413,0.1660221,0.2170689,-0.9647402,0.5805244,-0.2730848,0.4079338,1.504208,0.3603735,-0.08316939,1.251778,0.6026272,272.3477,61.20233,214.6299,True
0,0.9666679,0.2341268,0.06658074,0.1631001,-1.524998,1.182811,-2.479775,0.2313521,1.222028,0.5786676,-1.361974,-0.006989816,11.03448,13.86329,-0.07715262,0.1368854,-0.2302083,-0.565461,-3.640159,-0.4252746,0.2448157,1.414229,0.49544,0.209484,0.1479601,0.193682,-0.963733,0.5821758,-0.2760042,0.4062433,1.504258,0.361536,-0.08464613,1.249907,0.603646,272.2316,51.67078,224.2319,True
0,0.977779,0.2213989,0.04835584,0.1525705,-1.525894,1.183731,-2.481899,0.2302633,1.221471,0.5793562,-1.362606,-0.05774593,11.03448,14.07757,-0.04197417,0.1231526,-0.2336706,-0.568292,-3.640851,-0.4254863,0.2434035,1.413838,0.4965222,0.2123204,0.1224736,0.1573665,-0.9634582,0.5829766,-0.2790167,0.4045737,1.504394,0.362741,-0.08586283,1.248179,0.6045278,272.1859,41.50148,234.498,True
0,0.9888902,0.2128874,0.04292755,0.1408985,-1.527033,1.184221,-2.484099,0.2290018,1.220681,0.5801377,-1.362107,0.04596492,11.00796,14.35612,-0.01621199,0.09339887,-0.2189622,-0.5700384,-3.641981,-0.425093,0.241966,1.413591,0.497551,0.2142196,0.1065324,0.1349439,-0.9627839,0.5838422,-0.2818911,0.4028051,1.504514,0.3637943,-0.08618276,1.247429,0.6050069,272.3,34.50517,241.4185,True
0,1.000001,0.2001318,0.03104156,0.1186096,-1.52752,1.184361,-2.486144,0.2280206,1.219873,0.5807543,-1.361163,0.08580267,10.95491,14.65609,0.004074126,0.07749514,-0.2201958,-0.5725924,-3.643104,-0.4247635,0.2405807,1.413198,0.4985144,0.1990837,0.08313069,0.1126818,-0.962182,0.5841764,-0.283776,0.4012247,1.504608,0.3647184,-0.08718948,1.247067,0.6053643,272.9953,44.41603,231.3436,True
0,1.011112,0.2022244,0.03303831,0.0951578,-1.527995,1.184175,-2.488476,0.2270748,1.219478,0.5814064,-1.361109,0.004229019,10.92838,15.02035,0.01044957,0.05728865,-0.2319818,-0.5753073,-3.645429,-0.4231537,0.2391822,1.412857,0.4994662,0.1809104,0.07781185,0.1064654,-0.9614741,0.5853157,-0.2858259,0.3997118,1.504736,0.3656526,-0.08820189,1.246836,0.6055316,273.2385,48.55999,227.0009,True
0,1.022224,0.2022314,0.02339238,0.08137989,-1.528751,1.184341,-2.490674,0.2262893,1.218893,0.5820816,-1.360963,0.01339328,10.87533,15.38461,0.000917457,0.05191974,-0.2255289,-0.5776279,-3.646587,-0.4217014,0.2377993,1.412399,0.5003457,0.1661706,0.07458197,0.1236572,-0.9597607,0.5870408,-0.2881993,0.3981787,1.504854,0.3666408,-0.08928619,1.246596,0.6056312,273.3723,52.79947,222.5343,True
0,1.033335,0.2022433,0.01153132,0.05801217,-1.528503,1.18451,-2.49295,0.2254652,1.218543,0.5826662,-1.361238,-0.02532486,10.8488,15.59888,-0.009694278,0.08487792,-0.2051718,-0.5798213,-3.644359,-0.4231712,0.2365346,1.412088,0.5011044,0.1524322,0.07455394,0.1344522,-0.9581957,0.5886503,-0.2903719,0.3966681,1.504972,0.3675661,-0.09014051,1.246377,0.6057231,273.4679,56.47321,218.6452,True
0,1.044446,0.1958647,0.003969539,0.04209083,-1.528504,1.184499,-2.495024,0.2244485,1.218375,0.5833619,-1.361107,0.01224547,10.8488,15.64174,-0.01407628,0.1189514,-0.2051027,-0.5829404,-3.641943,-0.4248155,0.2352953,1.411813,0.5019479,0.1355186,0.07664807,0.1474175,-0.9564881,0.5904221,-0.2923621,0.3952899,1.505135,0.3685226,-0.09079751,1.246201,0.6059123,273.611,58.5309,216.3756,True
0,1.055557,0.180985,-0.01325744,0.02090769,-1.527636,1.184768,-2.496518,0.223687,1.218194,0.5840662,-1.361146,-0.00380458,10.8488,15.51318,-0.009680882,0.1412961,-0.176346,-0.5848579,-3.639068,-0.4272904,0.2342433,1.411841,0.5026479,0.1302325,0.08302002,0.1517485,-0.9550889,0.592306,-0.2947648,0.3941319,1.505265,0.3694201,-0.09123989,1.246022,0.6061935,273.8156,59.21078,215.5155,True
0,1.066668,0.1746594,-0.03572212,0.009333037,-1.526717,1.185509,-2.498251,0.2229373,1.218084,0.5847819,-1.360948,0.01821136,10.87533,15.27748,-0.001864016,0.1093329,-0.1402146,-0.5853255,-3.638896,-0.427583,0.2331962,1.411871,0.5032754,0.1225289,0.06815688,0.127292,-0.9546058,0.5928695,-0.2961938,0.3930237,1.505379,0.3701556,-0.09170379,1.245864,0.6065355,274.0566,59.04862,215.5222,True
0,1.077779,0.1672211,-0.04110214,0.005108336,-1.526281,1.185937,-2.49991,0.2222151,1.218004,0.5854666,-1.360352,0.05434423,10.90185,15.10606,0.009038627,0.08696612,-0.1168798,-0.5859242,-3.639186,-0.4278879,0.2322124,1.411772,0.5041339,0.1116703,0.05436353,0.1060616,-0.9543374,0.5933281,-0.297417,0.3918897,1.505548,0.3709655,-0.09236243,1.245741,0.6069209,274.2924,58.52216,215.8694,True
0,1.08889,0.1512837,-0.05077768,0.00198938,-1.525668,1.186678,-2.501313,0.2215578,1.218155,0.5861266,-1.36056,-0.01943682,10.92838,15.02035,0.02629914,0.06782498,-0.09571721,-0.5862395,-3.639329,-0.4286438,0.2313299,1.411707,0.5047596,0.08395535,0.044762,0.1052693,-0.9531549,0.5938357,-0.2975792,0.3909974,1.505551,0.3716474,-0.09301837,1.245636,0.6072559,274.4165,58.40459,215.7884,True
0,1.100002,0.1364043,-0.0604476,-0.005393079,-1.524956,1.187065,-2.502519,0.2208558,1.217966,0.5865853,-1.36059,-0.00249328,10.92838,14.95607,0.01665844,0.08695642,-0.09455527,-0.5878113,-3.637584,-0.4299985,0.2304852,1.411665,0.5054207,0.07012126,0.05645914,0.1064971,-0.9522537,0.5953086,-0.2988836,0.390019,1.505567,0.3721249,-0.09365658,1.245541,0.6075282,274.4901,58.85453,215.1568,True
0,1.111113,0.109831,-0.08410229,-0.02545695,-1.523208,1.187859,-2.50295,0.2202678,1.218055,0.5872371,-1.360378,0.01939276,10.95491,14.89179,0.0134119,0.0901424,-0.1009161,-0.5894188,-3.636806,-0.430746,0.2297766,1.411599,0.5059836,0.0605139,0.05113399,0.1044536,-0.951337,0.596155,-0.2997153,0.3892446,1.505641,0.3727286,-0.09425478,1.245467,0.6077797,274.5104,59.13087,214.7311,True
0,1.122224,0.09391028,-0.09907778,-0.02855022,-1.52202,1.188581,-2.503691,0.2195731,1.218062,0.58779,-1.360247,0.01185232,10.98143,14.87037,0.003940828,0.07307129,-0.09342285,-0.5904958,-3.636887,-0.4305277,0.2290323,1.411612,0.5065484,0.05926262,0.04157796,0.08633358,-0.9509903,0.5963278,-0.3004392,0.3885227,1.505732,0.3731766,-0.0948355,1.245408,0.6080156,274.5211,59.29161,214.4733,True
0,1.133335,0.0769287,-0.1172621,-0.03054901,-1.520565,1.189835,-2.504051,0.218941,1.218162,0.5884159,-1.359553,0.0634656,11.00796,14.95607,0.001175649,0.0325334,-0.05402916,-0.5894103,-3.638031,-0.4297189,0.2284663,1.411745,0.5070701,0.0440859,0.02458785,0.05981208,-0.9511752,0.595973,-0.3003239,0.3879634,1.505695,0.3736417,-0.09539337,1.245324,0.6082131,274.5713,60.19089,213.4927,True
0,1.144446,0.0662696,-0.1236714,-0.02623628,-1.5195,1.191053,-2.504055,0.2185909,1.218654,0.5888774,-1.359933,-0.03511557,11.00796,15.04178,0.01958779,-0.008976161,-0.03076969,-0.5884148,-3.640153,-0.428729,0.2279748,1.411747,0.5075448,0.02792051,0.01822199,0.04185595,-0.9511997,0.5958348,-0.3000126,0.3873243,1.505742,0.3741143,-0.09593567,1.245264,0.6083969,274.4919,60.96091,212.6276,True
0,1.155557,0.04176599,-0.1215922,-0.02089608,-1.518683,1.191929,-2.503728,0.2180368,1.218687,0.5892689,-1.359728,0.01922527,11.03448,15.08464,0.02082154,-0.02284604,-0.01481693,-0.5879636,-3.641182,-0.4282509,0.2274289,1.411752,0.5079186,0.003272433,0.01825191,0.02719009,-0.9515246,0.5961398,-0.2994733,0.386903,1.505736,0.3746216,-0.09657321,1.245233,0.6085932,274.5367,62.04163,211.4414,True
0,1.166668,0.01611837,-0.09610159,-0.01675335,-1.51847,1.192163,-2.503214,0.2172845,1.218545,0.5898154,-1.359502,0.02054051,11.06101,14.93465,0.009123824,-0.01756456,-0.009401212,-0.5878875,-3.641155,-0.4279809,0.2269062,1.411703,0.5083165,-0.001020195,0.02250495,0.02511077,-0.951386,0.5965096,-0.2994578,0.3864375,1.505734,0.3750379,-0.09712368,1.245237,0.6087741,274.3654,62.00844,211.4233,True
0,1.17778,-0.00206603,-0.07056523,-0.01368054,-1.518655,1.191982,-2.502879,0.2167437,1.218287,0.5902271,-1.359348,0.01400327,11.08753,14.63467,-0.01966767,0.001511158,-0.004917006,-0.5881623,-3.639961,-0.4278605,0.2263935,1.411682,0.5086029,-0.01705533,0.02783361,0.01995333,-0.9515645,0.5969943,-0.299037,0.386162,1.505624,0.3755155,-0.09763513,1.245297,0.6089377,274.2005,61.8559,211.5775,True
0,1.188891,-0.01599523,-0.04932313,-0.01592204,-1.518544,1.191699,-2.50222,0.2163042,1.218225,0.5905578,-1.359379,-0.002781827,11.11406,14.24898,-0.04842597,0.03655112,0.01237044,-0.5881602,-3.636853,-0.4289444,0.2260115,1.411585,0.5088258,-0.03409253,0.04167441,0.02122439,-0.951589,0.5981895,-0.298735,0.3859112,1.505508,0.3758945,-0.09832521,1.245344,0.6091158,274.3106,62.75044,210.6391,True
0,1.200002,-0.03421571,-0.01845581,-0.01073677,-1.519395,1.191194,-2.501205,0.2159815,1.218089,0.5908513,-1.359775,-0.03599031,11.14058,13.88472,-0.05793933,0.06313236,0.03482747,-0.5879908,-3.633577,-0.4308467,0.2256026,1.411577,0.509032,-0.03953323,0.04808174,0.01063932,-0.9520082,0.5988643,-0.2985063,0.3857515,1.505425,0.3762167,-0.0991099,1.245337,0.6093464,274.3751,63.00284,210.2844,True
0,1.211113,-0.05559901,0.004941064,-0.004459182,-1.519959,1.190653,-2.499861,0.2157422,1.217989,0.5909982,-1.359669,0.01011128,11.11406,13.58474,-0.0578333,0.06204847,0.04867769,-0.5873111,-3.631919,-0.4316933,0.2253587,1.411538,0.5092463,-0.04810039,0.05234934,0.006475474,-0.9522905,0.5996979,-0.2981707,0.3856415,1.50533,0.3765039,-0.09973783,1.245296,0.6096044,274.3843,62.80727,210.3729,True
0,1.222224,-0.05561989,0.01348199,-0.0002476331,-1.520256,1.19053,-2.499338,0.2153675,1.218007,0.5911891,-1.359475,0.0176809,11.08753,13.37047,-0.05880104,0.03542017,0.04972107,-0.5866635,-3.632073,-0.4308792,0.2252559,1.411555,0.5093935,-0.05774588,0.05236258,0.001243371,-0.9526628,0.6003675,-0.2975779,0.3854501,1.505232,0.3767495,-0.1001632,1.245275,0.6098891,274.2947,61.75712,211.362,True
0,1.233335,-0.05455764,0.01781573,0.01037603,-1.520829,1.190483,-2.49877,0.2151607,1.217981,0.5912759,-1.359316,0.01457977,11.03448,13.24191,-0.05980207,-0.01784073,0.03263188,-0.585929,-3.635705,-0.4272584,0.2251214,1.411584,0.5095587,-0.07186671,0.04602384,-0.0252586,-0.9538857,0.600261,-0.2962335,0.3854193,1.505175,0.3769646,-0.100468,1.245296,0.6102148,274.2962,60.33747,212.7596,True
0,1.244446,-0.05134457,0.0189442,0.01782409,-1.521392,1.190496,-2.498497,0.2148568,1.218001,0.5915287,-1.360273,-0.08754106,10.98143,13.19906,-0.04702416,-0.05079526,0.01652746,-0.5856382,-3.638458,-0.4248599,0.2248435,1.411596,0.5096991,-0.08602237,0.03649917,-0.05496282,-0.955433,0.5998223,-0.294519,0.3854588,1.505163,0.3772399,-0.1007313,1.245354,0.610539,274.3083,58.52204,214.6043,True
0,1.255558,-0.04178625,0.02536024,0.0145747,-1.521737,1.189983,-2.49832,0.2147249,1.218004,0.5915208,-1.36045,-0.01527591,10.92838,13.22048,-0.03740171,-0.07525805,0.00898454,-0.5849718,-3.641126,-0.4226341,0.224642,1.411693,0.5098097,-0.1021516,0.0333345,-0.06971905,-0.956723,0.5997499,-0.2928377,0.385402,1.505219,0.377512,-0.1010664,1.245421,0.6108094,274.3905,57.62202,215.5359,True
0,1.266669,-0.02903678,0.03605705,0.01343011,-1.522314,1.189405,-2.498505,0.2146461,1.21811,0.5915375,-1.360814,-0.03319821,10.90185,13.28477,-0.04908846,-0.0625174,0.02185511,-0.5843534,-3.641661,-0.4212362,0.224401,1.411827,0.5098424,-0.1053604,0.035461,-0.07075271,-0.957661,0.5999054,-0.2916462,0.3854046,1.50511,0.3777947,-0.1013454,1.245462,0.6110029,274.3219,56.94218,216.2591,True
0,1.27778,-0.01634005,0.04995662,0.0122472,-1.522872,1.188441,-2.498137,0.2147938,1.218444,0.5912259,-1.361004,-0.01712025,10.92838,13.3919,-0.05542098,-0.04445914,0.0336438,-0.5836243,-3.640636,-0.4215624,0.2243001,1.411852,0.5098898,-0.104165,0.04395781,-0.05796263,-0.9580525,0.6007975,-0.2911075,0.3853294,1.505069,0.3780196,-0.1016637,1.245496,0.6111754,274.337,57.18088,216.0357,True
0,1.288891,-0.007830796,0.05317707,0.01115153,-1.523371,1.187922,-2.498311,0.2146559,1.218513,0.5911982,-1.36138,-0.0341757,10.95491,13.41333,-0.06391576,-0.02319657,0.04757606,-0.5829223,-3.639159,-0.4218359,0.2240259,1.411888,0.509789,-0.1050125,0.05881717,-0.0355489,-0.957963,0.6021813,-0.2906092,0.3853157,1.504995,0.3781667,-0.1018792,1.245521,0.6113235,274.289,57.17482,216.0772,True
0,1.300002,0.002841416,0.04680495,0.007980691,-1.523529,1.187681,-2.498665,0.2144201,1.218574,0.5911419,-1.360867,0.04713334,11.00796,13.37047,-0.08420324,0.03210959,0.0658884,-0.5825841,-3.634902,-0.4239404,0.223823,1.411878,0.5097387,-0.1017092,0.07371632,-0.02489838,-0.9583359,0.6037998,-0.2905391,0.3853351,1.504905,0.3782837,-0.1016992,1.245517,0.6117185,274.7326,55.85572,217.4616,True
0,1.311113,0.04236932,0.01817645,0.004914291,-1.52317,1.188269,-2.500659,0.2138414,1.218391,0.5912185,-1.361312,-0.04113587,11.03448,13.30619,-0.09818062,0.06828407,0.06496106,-0.5827566,-3.631123,-0.4255212,0.2236106,1.411876,0.50969,-0.0974629,0.0854383,-0.02598197,-0.9589979,0.605244,-0.2904076,0.3853776,1.504817,0.3784046,-0.101911,1.245657,0.6117464,274.5781,54.25162,219.0843,True
0,1.322224,0.04244218,-0.002110713,-0.001356684,-1.522486,1.188729,-2.50122,0.213613,1.218249,0.5912335,-1.361503,-0.01712415,11.03448,13.22048,-0.1120123,0.0831421,0.07253739,-0.5823523,-3.628113,-0.4265705,0.2235864,1.41179,0.5097115,-0.09221266,0.08331937,-0.03243299,-0.959783,0.6059,-0.2897682,0.385539,1.504596,0.3786998,-0.102189,1.24571,0.6117515,274.3828,54.53942,218.8477,True
0,1.333336,0.01045741,0.007411929,0.007143136,-1.522952,1.188559,-2.500225,0.2134989,1.218082,0.5909863,-1.363016,-0.1382622,10.98143,13.17763,-0.1066012,0.07143493,0.07887824,-0.5815108,-3.626633,-0.4268147,0.2234851,1.41179,0.5096886,-0.09238181,0.06418146,-0.04951895,-0.9608898,0.6055815,-0.2885447,0.385618,1.504537,0.3787689,-0.1024455,1.245685,0.611766,274.235,55.33641,218.1231,True
0,1.344447,-0.01833403,0.02120925,0.01562461,-1.523844,1.188272,-2.499235,0.2134036,1.218058,0.5910087,-1.361601,0.1303966,10.87533,13.13477,-0.1045436,0.03631707,0.05220132,-0.5813574,-3.628502,-0.4242056,0.2234233,1.411866,0.5095844,-0.09560886,0.05033709,-0.05271169,-0.9615173,0.6053917,-0.2871892,0.3856339,1.504539,0.3789892,-0.1025767,1.245555,0.6116279,274.0394,58.98111,214.4414,True
0,1.355558,-0.04929345,0.04354425,0.02831195,-1.525184,1.187714,-2.497558,0.2133385,1.218053,0.5909188,-1.359835,0.1602408,10.76923,13.13477,-0.07049853,0.02046578,0.03595846,-0.5813835,-3.629073,-0.424338,0.2233517,1.411913,0.5095282,-0.09968689,0.04072042,-0.03564623,-0.9614251,0.6057985,-0.2862336,0.3856934,1.504497,0.3789556,-0.1026853,1.245451,0.6113893,273.7959,63.52142,209.9133,True
0,1.366669,-0.05245524,0.03932391,0.03686184,-1.525868,1.187906,-2.497098,0.2130698,1.218074,0.5907648,-1.359754,0.006225866,10.66313,13.1562,-0.04600115,-0.01458843,0.01870148,-0.5811929,-3.63171,-0.422515,0.2233276,1.412005,0.5094869,-0.09432224,0.03218096,-0.03144994,-0.9614683,0.6057215,-0.2852046,0.3856767,1.504503,0.3789549,-0.1027003,1.245399,0.6113032,273.7836,63.96499,209.5429,True
0,1.37778,-0.03856459,0.02873498,0.03903925,-1.526236,1.188288,-2.4972,0.212965,1.218158,0.5906703,-1.359257,0.04562629,10.61008,13.19906,-0.036314,-0.02948306,0.02606329,-0.5804413,-3.632736,-0.4214032,0.2233768,1.412005,0.5093102,-0.08778406,0.03322268,-0.01766937,-0.9614257,0.6063581,-0.2848813,0.3857111,1.504468,0.3789487,-0.102732,1.245516,0.6112545,273.6947,64.6214,208.75,True
0,1.388891,-0.01298049,0.02455364,0.036896,-1.526459,1.188373,-2.498017,0.2129914,1.218271,0.5904884,-1.360541,-0.1177023,10.58355,13.28477,-0.03832483,-0.03802598,0.03885254,-0.5793755,-3.633304,-0.4204482,0.2233907,1.412083,0.5092008,-0.0793386,0.04281773,-0.02412416,-0.9620131,0.6069961,-0.2845201,0.3858767,1.504445,0.3788519,-0.1029263,1.245587,0.6115006,273.8876,60.57233,213.1575,True
0,1.400002,0.0008759722,0.02138919,0.03370177,-1.526757,1.188437,-2.498488,0.2129001,1.218312,0.5903463,-1.361321,-0.07020177,10.6366,13.32762,-0.04353188,-0.03167853,0.05807155,-0.5781425,-3.63271,-0.4203382,0.2234263,1.412288,0.5091457,-0.07620396,0.04177342,-0.03055321,-0.9627476,0.6073827,-0.2840434,0.3859431,1.504426,0.3789046,-0.1032961,1.245678,0.6119505,274.2603,57.03186,216.8199,True
0,1.411114,0.001897868,0.02985705,0.02406122,-1.527087,1.187898,-2.498533,0.2128361,1.218337,0.5901995,-1.362082,-0.0690845,10.66313,13.28477,-0.0434198,-0.02211219,0.07832198,-0.5767092,-3.631345,-0.4209915,0.22346,1.412349,0.5089841,-0.06365906,0.02157482,-0.05416415,-0.9639146,0.6061167,-0.2829827,0.3861479,1.504343,0.3787963,-0.1035131,1.24572,0.6121654,274.2942,55.21001,218.7728,True
0,1.422225,-0.01197146,0.03078737,0.01343242,-1.527345,1.187751,-2.498193,0.212898,1.218491,0.5900486,-1.361716,0.03386082,10.74271,13.17763,-0.0477329,-0.01361373,0.07410504,-0.5760683,-3.630963,-0.420756,0.2235236,1.412374,0.508786,-0.06154139,0.01412132,-0.05526545,-0.9644467,0.6058168,-0.2821116,0.3862468,1.504327,0.3786862,-0.1036217,1.245715,0.6121884,274.2881,56.36485,217.7144,True
0,1.433336,-0.03221768,0.03390978,0.0123639,-1.527484,1.187306,-2.496803,0.2128527,1.218504,0.5899522,-1.361184,0.04824995,10.79576,13.09192,-0.04143113,-0.007190436,0.06447893,-0.5757967,-3.630419,-0.4209677,0.2235219,1.412393,0.5086298,-0.05303648,0.03330186,-0.05637601,-0.9653714,0.606819,-0.2823848,0.3863665,1.504287,0.3785796,-0.1037166,1.245682,0.6121543,274.2813,58.29004,215.9088,True
0,1.444447,-0.05355196,0.03171637,0.01241003,-1.527973,1.187072,-2.494936,0.2131066,1.218721,0.5896358,-1.360703,0.0436212,10.79576,13.04907,-0.02990166,-0.003934206,0.03991003,-0.5760401,-3.630652,-0.4208181,0.2234348,1.412435,0.5084248,-0.04854985,0.03751139,-0.03404011,-0.9651413,0.6075997,-0.2824013,0.3865097,1.504228,0.3784866,-0.1037614,1.24577,0.6119974,274.0925,61.51675,212.5641,True
0,1.455558,-0.05350686,0.01784147,0.008230926,-1.527736,1.187258,-2.494408,0.2130495,1.218729,0.5894861,-1.359671,0.09411098,10.79576,13.0705,-0.03533471,0.002443839,0.02824462,-0.5760247,-3.630415,-0.4203925,0.2233431,1.412435,0.5082905,-0.05366616,0.03107317,-0.01376,-0.9646363,0.6079423,-0.2818282,0.3865912,1.504149,0.3783841,-0.1038336,1.245837,0.6118286,273.9389,63.21072,210.8728,True
0,1.466669,-0.04819022,0.01681872,0.0114305,-1.528119,1.187247,-2.493851,0.2128523,1.218947,0.5894673,-1.359219,0.04055872,10.79576,13.11335,-0.04905413,0.02047939,0.05499433,-0.574985,-3.627831,-0.4215326,0.2233604,1.4124,0.5081074,-0.07254463,0.01502298,0.01409758,-0.9633958,0.607726,-0.2802793,0.3865839,1.504019,0.3782842,-0.1039511,1.245844,0.6118272,273.8808,61.69626,212.4927,True
0,1.47778,-0.04605615,0.01684622,0.01462111,-1.52844,1.187226,-2.493397,0.2128073,1.218967,0.5893033,-1.360661,-0.1319589,10.76923,13.17763,-0.05217869,0.0364229,0.07102242,-0.5739437,-3.625275,-0.4231766,0.2234289,1.412354,0.5079286,-0.07441431,0.02669062,0.03971208,-0.9623322,0.6090871,-0.2801731,0.3866834,1.503928,0.3782358,-0.1040673,1.245966,0.6118848,273.8715,58.84983,215.4757,True
0,1.488891,-0.06096161,0.006097371,0.005125517,-1.528313,1.187178,-2.491919,0.2127266,1.219029,0.5892835,-1.360889,-0.01965527,10.76923,13.30619,-0.05025876,0.04605067,0.04544159,-0.5747868,-3.624131,-0.4237031,0.223646,1.41218,0.507776,-0.05629966,0.05651031,0.04172638,-0.9622145,0.6110817,-0.2812253,0.3868476,1.50386,0.3782027,-0.1041313,1.246017,0.6119353,273.8659,57.31073,217.0596,True
0,1.500003,-0.07055524,0.006037463,0.0008738674,-1.528221,1.186993,-2.490779,0.2126911,1.219042,0.5891073,-1.361019,-0.01174641,10.82228,13.47761,-0.05138249,0.05137257,0.03800298,-0.5748305,-3.623019,-0.4242373,0.2237737,1.412239,0.5076389,-0.04479179,0.06721532,0.0213901,-0.9630454,0.6122795,-0.2818554,0.3870282,1.503843,0.3780935,-0.1042582,1.246083,0.611984,273.7984,56.11042,218.3048,True
0,1.511114,-0.0822813,0.01135709,0.006206848,-1.528934,1.187042,-2.489561,0.2123783,1.218914,0.5891709,-1.360043,0.08932322,10.87533,13.71331,-0.04600636,0.03434701,0.03688157,-0.5744082,-3.622993,-0.4239449,0.2239945,1.412395,0.5075064,-0.04205625,0.04068112,-0.02343899,-0.9646428,0.61108,-0.2806791,0.3874119,1.503818,0.3779781,-0.1043129,1.246134,0.611942,273.7249,56.11209,218.3059,True
0,1.522225,-0.08334576,0.01459935,0.01472774,-1.529689,1.187258,-2.488692,0.2123301,1.218946,0.5890157,-1.360351,-0.02892561,10.98143,13.88472,-0.02881579,0.00882565,0.04312027,-0.5734484,-3.623996,-0.423568,0.2242226,1.412604,0.5073571,-0.04861537,0.0226146,-0.04045651,-0.9654524,0.6104339,-0.2795201,0.3877136,1.50373,0.3777652,-0.1044068,1.246184,0.6118577,273.5928,56.35703,218.0625,True
0,1.533336,-0.0716342,0.02111857,0.02852277,-1.530624,1.187388,-2.488303,0.2125097,1.219243,0.5888531,-1.3604,-0.004023113,11.06101,14.03471,-0.003056319,-0.01454092,0.05889193,-0.5719767,-3.624626,-0.4238618,0.2245735,1.412818,0.5071642,-0.05621989,0.006665766,-0.05532894,-0.9664366,0.6094623,-0.2780718,0.3879562,1.503796,0.377517,-0.1045141,1.246229,0.6117677,273.4435,56.6234,217.7916,True
0,1.544447,-0.05994979,0.02965689,0.02419218,-1.531029,1.186977,-2.488106,0.2127049,1.219632,0.5886359,-1.360806,-0.03709063,11.14058,14.12042,0.02148674,-0.03576565,0.0523039,-0.5711682,-3.626313,-0.4237103,0.2249205,1.413008,0.5068398,-0.04341818,0.000283096,-0.0533399,-0.9667983,0.6093162,-0.2778689,0.3882921,1.503895,0.3772316,-0.1046907,1.246286,0.6117426,273.3096,55.84488,218.622,True
0,1.555558,-0.0610712,0.04125532,0.003890884,-1.531183,1.185883,-2.487521,0.2129369,1.219945,0.5884068,-1.361355,-0.04987387,11.22016,14.1847,0.02794428,-0.04853081,0.05544055,-0.5700752,-3.627518,-0.4232714,0.2253274,1.41329,0.506557,-0.02941607,-0.002941262,-0.0385757,-0.9666742,0.6091831,-0.277952,0.3885455,1.50398,0.3769147,-0.1047882,1.246369,0.6117433,273.2878,55.17712,219.3961,True
0,1.566669,-0.08249881,0.06986842,-0.006892571,-1.532024,1.184453,-2.485778,0.213347,1.220157,0.5882382,-1.361592,-0.02129849,11.24668,14.22755,0.01625217,-0.02408291,0.06833376,-0.5692384,-3.625479,-0.4249057,0.2257378,1.413521,0.5063055,-0.01635809,-0.02323081,-0.01211261,-0.9655184,0.6085507,-0.2778399,0.3887773,1.504006,0.3764253,-0.1048273,1.246488,0.6117232,273.2829,53.74625,220.907,True
0,1.577781,-0.09964389,0.09643038,-0.008097886,-1.533132,1.182796,-2.484016,0.2136739,1.220444,0.5880518,-1.361198,0.03614328,11.27321,14.27041,0.01193885,0.0003999677,0.07265118,-0.5687436,-3.623248,-0.4267644,0.226178,1.413787,0.5060394,-0.02064196,-0.04666245,-0.01531813,-0.965519,0.6069483,-0.2765397,0.3890251,1.504141,0.3760281,-0.1048723,1.246598,0.6116971,273.2573,53.03568,221.6692,True
0,1.588892,-0.1274892,0.1379212,-0.0008517914,-1.535231,1.180702,-2.48162,0.2141163,1.220628,0.5877373,-1.360007,0.1085807,11.29973,14.35612,0.03757153,0.02921895,0.09380995,-0.5675105,-3.619693,-0.4311788,0.2267628,1.414134,0.5058556,-0.01428298,-0.08180548,-0.01972296,-0.9652792,0.6043629,-0.2751181,0.3893736,1.504203,0.3755388,-0.1049023,1.246691,0.6117045,273.2255,52.56838,222.1205,True
0,1.600003,-0.1414019,0.1591857,0.002228964,-1.536684,1.178986,-2.479792,0.2144344,1.221108,0.5875592,-1.359953,0.004110109,11.29973,14.46325,0.06417343,0.01652964,0.08400449,-0.5670174,-3.62017,-0.4323203,0.2273768,1.414406,0.5055897,0.0005713478,-0.09350242,-0.02629308,-0.9654252,0.6026388,-0.2747173,0.3897827,1.504265,0.3750184,-0.1049438,1.24681,0.6117743,273.1962,51.37925,223.2473,True
