loc,t,aDotS,bDotS,gDotS,aS,bS,gS,xS,yS,zS,qE,qDotE,emgA,emgB,aDotSH,bDotSH,gDotSH,aSH,bSH,gSH,xSH,ySH,zSH,aDotUB,bDotUB,gDotUB,aUB,bUB,gUB,xUB,yUB,zUB,xHand,yHand,zHand,aHand,bHand,gHand,enable
7,0,0.7460476,-0.3888984,0.8204116,-1.434213,-4.502424,-2.663527,0.3234674,1.252023,0.5388315,-1.008653,0.0649075,19.20424,14.27041,-0.5334659,0.5932713,-0.4931836,-0.4865478,-3.403085,-0.6474914,0.3573193,1.446675,0.4681554,-0.07472318,0.5961888,0.3464588,-1.065592,0.5226763,-0.1422013,0.5259879,1.505314,0.3315318,0.04290363,1.12276,0.4215678,294.9724,266.2304,343.1623,True
7,0.01111111,0.7226647,-0.4128804,0.7524116,-1.437181,-4.49469,-2.67197,0.3222586,1.250934,0.5367365,-1.008298,0.03245505,18.64722,14.31326,-0.4638448,0.5881619,-0.4436336,-0.4929016,-3.397007,-0.6502014,0.355465,1.446139,0.4665225,-0.07165676,0.5663973,0.3325222,-1.063141,0.5294023,-0.1447945,0.5247108,1.505458,0.3307192,0.0430268,1.119287,0.4173163,295.0956,257.0164,352.5751,True
7,0.02222222,0.7142181,-0.4377128,0.7078373,-1.440124,-4.486677,-2.680679,0.3212123,1.249732,0.5346746,-1.009542,-0.1136639,18.16976,14.35612,-0.4484643,0.5690463,-0.3936781,-0.4985874,-3.390745,-0.6513975,0.3534708,1.445276,0.4650698,-0.06750625,0.5408511,0.3207184,-1.060781,0.5356641,-0.1472502,0.523474,1.505658,0.3299639,0.04359176,1.115489,0.4121241,295.5299,253.2151,356.1244,True
7,0.03333334,0.6812258,-0.4587104,0.6152986,-1.440542,-4.479901,-2.687923,0.3202715,1.248803,0.5327041,-1.00995,-0.03607022,17.85146,14.39897,-0.4456654,0.5189369,-0.3276843,-0.5018466,-3.385939,-0.6508721,0.3516697,1.444715,0.4633849,-0.07834148,0.5185088,0.3016104,-1.058979,0.5415264,-0.1488768,0.5222945,1.50584,0.3292344,0.04447076,1.114448,0.408873,295.7058,246.3405,3.48063,True
7,0.04444445,0.6235759,-0.429443,0.5629186,-1.442872,-4.474527,-2.693581,0.3194602,1.247888,0.530863,-1.010487,-0.04864557,17.53315,14.37754,-0.4504676,0.4720018,-0.2786779,-0.5051223,-3.381833,-0.6492795,0.3497372,1.44421,0.4618073,-0.1115667,0.5089458,0.2827634,-1.057287,0.5479577,-0.1495615,0.521111,1.505948,0.328536,0.04503664,1.113991,0.4071349,295.6833,244.2757,6.149991,True
7,0.05555556,0.5914725,-0.3924817,0.5317858,-1.445871,-4.469688,-2.699588,0.3186315,1.246972,0.5290098,-1.009488,0.09181836,17.24138,14.29184,-0.4501815,0.4570759,-0.2477905,-0.5094153,-3.376373,-0.6492257,0.3480718,1.443916,0.4600616,-0.115798,0.5153282,0.2860209,-1.054827,0.5552627,-0.1518068,0.5198671,1.506082,0.3278039,0.04557161,1.113549,0.4062261,295.4714,244.1033,7.057875,True
7,0.06666667,0.545529,-0.3567917,0.4804151,-1.447898,-4.465639,-2.704694,0.3177156,1.246258,0.5271039,-1.008295,0.1085657,16.97613,14.14185,-0.4351364,0.4635117,-0.2255197,-0.5139496,-3.369887,-0.6506582,0.3464434,1.443507,0.4584608,-0.1063657,0.5249443,0.2710262,-1.053345,0.5625517,-0.1545747,0.5187746,1.506233,0.3270724,0.04598846,1.113109,0.4055347,295.252,244.1891,7.566616,True
7,0.07777778,0.5144794,-0.3231408,0.4322782,-1.44986,-4.461774,-2.709864,0.3169686,1.245735,0.5253971,-1.008996,-0.06470703,16.7374,13.92758,-0.3965123,0.4657768,-0.1874375,-0.5178176,-3.362375,-0.6543011,0.3449758,1.443282,0.4569709,-0.08635038,0.5239194,0.2495185,-1.052174,0.5694024,-0.1576559,0.5176564,1.506512,0.3263919,0.04626876,1.112714,0.4047929,295.1669,244.1628,8.13838,True
7,0.08888889,0.4856204,-0.3000665,0.3937802,-1.45156,-4.458229,-2.714653,0.3161696,1.245219,0.5236681,-1.008704,0.02759865,16.5252,13.71331,-0.3546021,0.423312,-0.1600633,-0.5204296,-3.35817,-0.6555091,0.3435908,1.443084,0.4554389,-0.08110699,0.5132828,0.2409244,-1.050693,0.5758756,-0.1601601,0.5165529,1.506672,0.3256059,0.04649245,1.112348,0.4038651,295.1978,243.8297,9.036813,True
7,0.1,0.4301199,-0.2762107,0.3265363,-1.451941,-4.455468,-2.717905,0.3152692,1.245082,0.5220304,-1.009144,-0.04023485,16.20689,13.54189,-0.338349,0.3605298,-0.1591486,-0.5229452,-3.357219,-0.653189,0.3422225,1.443074,0.4539585,-0.07581758,0.4930516,0.2376443,-1.048875,0.5817579,-0.1623037,0.5155313,1.506845,0.3247612,0.04667017,1.112048,0.4027733,295.3528,243.014,10.38525,True
7,0.1111111,0.3629803,-0.2759164,0.2488037,-1.450947,-4.45234,-2.720163,0.314289,1.244889,0.5203838,-1.009229,-0.007066051,15.80902,13.37047,-0.3339368,0.3264562,-0.1570735,-0.5257229,-3.355423,-0.6512222,0.3409446,1.442877,0.4524598,-0.06408846,0.4536427,0.2363849,-1.047017,0.5863655,-0.1643367,0.5145835,1.506977,0.3238173,0.04672578,1.111836,0.4014194,295.2767,242.8325,11.01627,True
7,0.1222222,0.283029,-0.2659628,0.1880341,-1.449862,-4.449986,-2.720871,0.3133,1.244797,0.5189288,-1.008174,0.09674036,15.19894,13.24191,-0.3026984,0.2935426,-0.1328188,-0.5274833,-3.352807,-0.6516089,0.3398716,1.442701,0.4512489,-0.05028474,0.4227568,0.2319356,-1.045197,0.5908442,-0.1664361,0.5136904,1.507091,0.3229337,0.0468756,1.111589,0.4002862,295.525,241.4674,12.77959,True
7,0.1333333,0.2008625,-0.2313941,0.1452103,-1.449416,-4.448605,-2.720567,0.3123049,1.24471,0.5175006,-1.00748,0.06299433,14.61538,13.19906,-0.2671922,0.2489164,-0.1117804,-0.528369,-3.351444,-0.6513953,0.3388773,1.442647,0.4498434,-0.0439851,0.3769694,0.221141,-1.04356,0.5940658,-0.1678247,0.5129498,1.507217,0.3219275,0.04684821,1.111462,0.3992749,295.8862,240.538,14.08571,True
7,0.1444445,0.1432113,-0.1987164,0.1247646,-1.449582,-4.447334,-2.720349,0.3113208,1.244583,0.5160415,-1.006524,0.08734528,14.05836,13.24191,-0.2465184,0.2106224,-0.07360822,-0.5287525,-3.349348,-0.6512984,0.3378384,1.442666,0.448458,-0.05067244,0.3344016,0.1902422,-1.042942,0.5967959,-0.1683826,0.5122158,1.507324,0.3208687,0.04667883,1.111383,0.3983813,296.3249,239.8456,15.07925,True
7,0.1555556,0.06849179,-0.1608129,0.1000314,-1.449867,-4.446347,-2.719138,0.3102729,1.244781,0.5145731,-1.006185,0.03068102,13.52785,13.37047,-0.2313066,0.1968027,-0.04069034,-0.5291307,-3.34572,-0.6525136,0.3368719,1.442435,0.446794,-0.03912127,0.2982163,0.1719526,-1.042,0.5995321,-0.1697225,0.5115185,1.507433,0.3198242,0.04635182,1.11137,0.3975943,296.8535,239.4141,15.74706,True
7,0.1666667,0.001267288,-0.1324669,0.07429012,-1.449627,-4.445934,-2.71688,0.3092309,1.24492,0.5132318,-1.006945,-0.06913234,12.99735,13.54189,-0.2096998,0.1798258,-0.006749771,-0.5291371,-3.341777,-0.6543562,0.3359482,1.442579,0.4452982,-0.0243675,0.2748103,0.1557854,-1.041158,0.6023697,-0.1714125,0.5108149,1.507454,0.3188992,0.04568198,1.111451,0.3964759,297.112,239.8912,15.32522,True
7,0.1777778,-0.05421309,-0.1104711,0.04965693,-1.449179,-4.445316,-2.714808,0.3082286,1.245139,0.5117028,-1.006736,0.02024078,12.46684,13.71331,-0.1828344,0.1639314,0.01968356,-0.5292026,-3.338428,-0.6559336,0.3353174,1.442821,0.4438212,-0.04262508,0.2588494,0.141025,-1.040507,0.605323,-0.17171,0.5100948,1.507489,0.3180113,0.04522534,1.111445,0.3955534,297.8052,239.2449,16.15508,True
7,0.1888889,-0.08834543,-0.1000573,0.03255023,-1.448646,-4.444722,-2.712729,0.3071923,1.245336,0.5103157,-1.006384,0.03245675,12.01592,13.86329,-0.1676482,0.1341457,0.04192816,-0.5285256,-3.336159,-0.6565529,0.3347029,1.443003,0.442481,-0.05024213,0.253547,0.1251131,-1.04016,0.6084527,-0.17242,0.5095817,1.50754,0.3170242,0.0446884,1.111581,0.3946212,298.5569,238.9076,16.7635,True
7,0.2,-0.1256652,-0.09508935,0.0058232,-1.446209,-4.444372,-2.710568,0.3060997,1.245287,0.5084219,-1.007171,-0.07172982,11.61804,13.99186,-0.1503071,0.09797066,0.06522044,-0.527308,-3.334528,-0.656678,0.3340455,1.443136,0.4412169,-0.03236271,0.2280297,0.1014434,-1.040168,0.6105145,-0.1737587,0.5090815,1.507613,0.3160181,0.04409001,1.111767,0.3937277,299.3448,238.6317,17.28167,True
7,0.2111111,-0.1662061,-0.08045506,-0.01450235,-1.445263,-4.444383,-2.707339,0.3050494,1.245614,0.5070722,-1.007862,-0.06214122,11.29973,14.12042,-0.1350963,0.0564694,0.08426045,-0.5255759,-3.333859,-0.6563038,0.3334777,1.44327,0.4398961,-0.02310829,0.190805,0.06719577,-1.040741,0.6113502,-0.1742397,0.5087036,1.507643,0.3149858,0.0431845,1.112023,0.3924256,299.7265,239.1443,16.82474,True
7,0.2222222,-0.2056796,-0.07002763,-0.02840838,-1.444493,-4.444263,-2.703629,0.304187,1.246048,0.5059376,-1.008399,-0.04822283,11.00796,14.20613,-0.1250814,-0.009559669,0.1086487,-0.5225628,-3.335003,-0.6541773,0.3331766,1.443352,0.4386985,-0.03076828,0.1514117,0.04696799,-1.040858,0.6116517,-0.1736192,0.5083524,1.507738,0.3139641,0.04229562,1.112142,0.3909716,300.1177,239.1703,16.78507,True
7,0.2333333,-0.2291679,-0.05631272,-0.03594935,-1.443839,-4.444364,-2.700303,0.3032546,1.246298,0.5045919,-1.007908,0.04551416,10.74271,14.31326,-0.1280337,-0.04154806,0.1256856,-0.5200536,-3.335199,-0.6524327,0.3327023,1.443547,0.4374449,-0.04280172,0.1429391,0.01510902,-1.041944,0.6130519,-0.1734996,0.5080337,1.507698,0.3128557,0.04137486,1.112244,0.3893653,300.4697,238.8584,17.03039,True
7,0.2444444,-0.2559168,-0.02342815,-0.04041213,-1.443625,-4.445093,-2.696534,0.3024074,1.246674,0.5032356,-1.007845,0.005750004,10.55703,14.39897,-0.1269877,-0.03621516,0.1267472,-0.5189148,-3.333514,-0.6523882,0.332313,1.443742,0.4360731,-0.05487281,0.1312766,-0.01887447,-1.04338,0.6141728,-0.1729049,0.5076609,1.507712,0.3117082,0.04037158,1.112443,0.3877956,300.8492,238.5023,17.24146,True
7,0.2555556,-0.2837139,0.004126315,-0.04804055,-1.443392,-4.446383,-2.692298,0.3016142,1.247193,0.5020986,-1.008741,-0.08161586,10.47745,14.48468,-0.1121174,-0.01592235,0.1319827,-0.5179816,-3.33064,-0.6541443,0.3318472,1.443951,0.4347689,-0.06041788,0.1025492,-0.041237,-1.044506,0.6141921,-0.1719995,0.5073574,1.50768,0.3106122,0.03928415,1.112707,0.3863,301.1634,238.3915,17.20781,True
7,0.2666667,-0.2976001,0.01359391,-0.05875209,-1.442689,-4.447284,-2.688368,0.3008655,1.247513,0.5008864,-1.008909,-0.01431287,10.45093,14.59181,-0.08985984,0.001222812,0.1265247,-0.517401,-3.327689,-0.6563949,0.3314138,1.444127,0.4335091,-0.07013464,0.07380563,-0.05503618,-1.04555,0.6137913,-0.1706732,0.5070096,1.50769,0.3095291,0.0381299,1.112944,0.3847993,301.4454,238.4776,17.02158,True
7,0.2777778,-0.294402,0.01137439,-0.07471945,-1.441449,-4.44792,-2.685161,0.3000626,1.248127,0.4998319,-1.008912,3.909477E-05,10.47745,14.67752,-0.07932812,-0.002979413,0.1083356,-0.5168567,-3.32731,-0.6559853,0.3310381,1.444334,0.4324176,-0.07861327,0.06851278,-0.05282591,-1.046212,0.6151614,-0.1704732,0.5066819,1.507429,0.308249,0.03694269,1.113178,0.3832992,301.7415,238.575,16.82013,True
7,0.2888889,-0.2911519,-0.004663126,-0.08526815,-1.44004,-4.447952,-2.682013,0.2992535,1.24866,0.4986932,-1.009532,-0.05642912,10.5305,14.76323,-0.0644888,-0.002912179,0.09757882,-0.5162788,-3.32643,-0.6565264,0.3306638,1.444592,0.4312756,-0.0761675,0.06633196,-0.02195916,-1.045585,0.6160282,-0.1700775,0.5063134,1.507377,0.3071477,0.03573192,1.113426,0.3818551,302.0304,238.6638,16.58593,True
7,0.3,-0.2921652,-0.01534287,-0.08732029,-1.438865,-4.447721,-2.679017,0.2983409,1.249307,0.4975014,-1.010585,-0.09559188,10.58355,14.82751,-0.04944001,-0.02416643,0.1059847,-0.5144034,-3.326052,-0.6566663,0.3303725,1.44498,0.4301956,-0.06101918,0.05671587,0.0002363557,-1.045,0.6166188,-0.1702719,0.5059014,1.507526,0.3062837,0.0345415,1.11366,0.3804547,302.2812,238.743,16.34561,True
7,0.3111111,-0.2974017,-0.0409545,-0.09141145,-1.437263,-4.447052,-2.675586,0.2974824,1.250002,0.4964056,-1.010879,-0.02596773,10.66313,14.91322,-0.04427069,-0.009223547,0.09210728,-0.5141478,-3.324894,-0.6572863,0.330139,1.445283,0.4291286,-0.04158892,0.05034113,0.02239781,-1.044315,0.6179587,-0.1714562,0.5055426,1.507277,0.3050044,0.03338737,1.113886,0.379099,302.4931,238.7856,16.12353,True
7,0.3222222,-0.3186457,-0.0581219,-0.09768304,-1.435506,-4.446433,-2.671478,0.2965753,1.250724,0.4952657,-1.011159,-0.02528886,10.76923,14.99893,-0.03921332,0.02170677,0.07292224,-0.5147848,-3.322501,-0.6588858,0.3300564,1.445556,0.4280512,-0.04272214,0.03223622,0.01598646,-1.044344,0.6176224,-0.1706282,0.5052392,1.507298,0.3039348,0.03224921,1.114097,0.3777237,302.6972,238.8387,15.92197,True
7,0.3333333,-0.3463097,-0.0678235,-0.09974468,-1.433947,-4.446044,-2.666723,0.2956833,1.251417,0.4941175,-1.010818,0.03135762,10.82228,15.10606,-0.03169265,0.02598703,0.0845892,-0.5139874,-3.320237,-0.6607322,0.3299158,1.445954,0.4269702,-0.06094322,0.008847684,0.002285697,-1.044812,0.6172633,-0.1693797,0.5049934,1.507253,0.3028278,0.03111064,1.114307,0.3762811,302.9319,238.8306,15.81005,True
7,0.3444445,-0.4123555,-0.06584704,-0.08694679,-1.433358,-4.445634,-2.65994,0.2946349,1.252462,0.4929986,-1.01026,0.05090553,10.82228,15.14892,-0.01508424,-0.002761725,0.1590331,-0.5100284,-3.316248,-0.6644464,0.3300341,1.446545,0.4259179,-0.04853658,-0.04009012,-0.03627233,-1.046155,0.6145353,-0.1678271,0.5048885,1.507145,0.3016968,0.02996574,1.11453,0.3747857,303.2079,238.7184,15.80339,True
7,0.3555556,-0.4496189,-0.07018222,-0.07731633,-1.43243,-4.444995,-2.654054,0.2936716,1.253296,0.4918287,-1.009798,0.04197159,10.76923,15.2132,-0.007473469,-0.005945016,0.1792164,-0.5078281,-3.313288,-0.6671858,0.3300029,1.447029,0.4249473,-0.04243141,-0.06982993,-0.06620778,-1.047587,0.6130027,-0.1670042,0.5047464,1.507007,0.3004861,0.02875407,1.114776,0.373263,303.5517,238.5891,15.80537,True
7,0.3666667,-0.5017807,-0.0798867,-0.06658469,-1.431539,-4.44411,-2.646801,0.2925225,1.254279,0.4905915,-1.008036,0.1610109,10.71618,15.29891,0.0345581,-0.07610344,0.2097628,-0.503298,-3.313837,-0.6683717,0.3301949,1.447663,0.4240272,-0.02259839,-0.0953263,-0.1069347,-1.049837,0.6102456,-0.1660103,0.5046666,1.50695,0.2993658,0.02743352,1.115068,0.3717386,303.9775,238.5412,15.72344,True
7,0.3777778,-0.5774217,-0.07903357,-0.05697826,-1.430835,-4.44342,-2.63799,0.2913765,1.255135,0.4893055,-1.009106,-0.09895634,10.71618,15.42747,0.05066283,-0.1207757,0.203222,-0.5001438,-3.315932,-0.6674521,0.3303397,1.44826,0.4231515,0.0008029491,-0.1048691,-0.1114537,-1.051029,0.6089879,-0.1662622,0.504686,1.507083,0.2983677,0.0259041,1.115439,0.3701673,304.5511,238.6753,15.48809,True
7,0.3888889,-0.6519718,-0.08575583,-0.06650332,-1.429302,-4.44293,-2.628411,0.2899765,1.256161,0.4879072,-1.008268,0.07788776,10.66313,15.57746,0.05099733,-0.1783126,0.2180906,-0.4953661,-3.318676,-0.6656404,0.3305742,1.44888,0.4222002,0.009414218,-0.112337,-0.1030308,-1.051625,0.6071013,-0.1657322,0.5046017,1.507051,0.2972655,0.02430454,1.115809,0.3685524,305.0987,239.125,15.02919,True
7,0.4,-0.7275275,-0.1095745,-0.08337043,-1.42704,-4.44198,-2.618081,0.2884391,1.257347,0.4865258,-1.007102,0.1062889,10.66313,15.68459,0.02449864,-0.1901415,0.2310543,-0.4915173,-3.318464,-0.6650898,0.3308671,1.449425,0.4211938,-0.002022944,-0.122996,-0.07735615,-1.051301,0.605878,-0.1649855,0.5045291,1.507009,0.2961495,0.0221255,1.116206,0.3667576,305.2169,239.3742,15.02336,True
7,0.4111111,-0.7700391,-0.1374113,-0.08104643,-1.4251,-4.440249,-2.608446,0.286887,1.258578,0.4851429,-1.006819,0.0253721,10.68966,15.74888,0.002013564,-0.1614695,0.2312333,-0.4890219,-3.316396,-0.666214,0.3311529,1.450084,0.4201961,-0.01803668,-0.1421328,-0.08254941,-1.052209,0.6037835,-0.1634587,0.5045292,1.506821,0.2949684,0.0182852,1.116874,0.3630472,303.2984,243.4798,10.31764,True
7,0.4222222,-0.8242251,-0.1769964,-0.075445,-1.422813,-4.437454,-2.597988,0.2851729,1.260224,0.4835918,-1.006626,0.0180358,10.76923,15.81315,-0.02564301,-0.1487965,0.2452841,-0.4859582,-3.314078,-0.6670574,0.3314218,1.450715,0.4191875,-0.02774881,-0.1644916,-0.09526005,-1.05312,0.6004471,-0.1611316,0.5045916,1.506747,0.2939458,0.01355759,1.11826,0.3538758,300.0146,253.9328,356.1464,True
7,0.4333333,-0.8720619,-0.204816,-0.06779237,-1.420729,-4.434911,-2.587066,0.2833222,1.261879,0.4820745,-1.00781,-0.1079614,10.87533,15.83458,-0.03836054,-0.1488596,0.2549561,-0.4824428,-3.312973,-0.6671783,0.3317286,1.451485,0.4182596,-0.01508038,-0.1569654,-0.1081618,-1.054633,0.5992951,-0.1611942,0.5046968,1.506675,0.2929277,0.01124325,1.12097,0.3428845,299.0567,252.6605,353.8158,True
7,0.4444444,-0.9326918,-0.2306005,-0.06760286,-1.418393,-4.432478,-2.57524,0.2814316,1.263634,0.4805946,-1.00753,0.02690422,11.16711,15.85601,-0.03802466,-0.1829665,0.2836952,-0.4772257,-3.312715,-0.6670007,0.3320246,1.452372,0.4172211,0.01421525,-0.1483649,-0.1595832,-1.057769,0.5971066,-0.1613396,0.5050172,1.506572,0.2919643,0.01049338,1.125133,0.3317242,298.4545,249.5139,353.3228,True
7,0.4555556,-0.9763409,-0.2393414,-0.07711545,-1.415832,-4.430693,-2.563314,0.2797127,1.265276,0.4790614,-1.007597,-0.006008035,11.45889,15.83458,-0.0451887,-0.1947467,0.3188875,-0.4718738,-3.310885,-0.6679,0.3323662,1.453336,0.4162846,0.002102852,-0.1578789,-0.1988956,-1.060916,0.5943343,-0.1596179,0.5053775,1.506605,0.2909312,0.01048756,1.130572,0.3216656,297.7165,246.9387,352.7635,True
7,0.4666667,-1.076467,-0.2440443,-0.0898402,-1.413031,-4.429061,-2.548239,0.2774362,1.26731,0.4774058,-1.007277,0.02972151,11.69761,15.79173,-0.06481269,-0.2130013,0.3957164,-0.4644532,-3.306273,-0.6707302,0.3330069,1.454281,0.415056,-0.03350548,-0.174863,-0.2433013,-1.064713,0.5907153,-0.1562724,0.5057369,1.506465,0.2898624,0.01019474,1.136932,0.3134931,296.6916,244.8575,352.4571,True
7,0.4777778,-1.132912,-0.2496226,-0.09724274,-1.410277,-4.427294,-2.534309,0.2755536,1.269272,0.4758573,-1.007793,-0.04699394,11.90981,15.74888,-0.07930607,-0.2205653,0.4512094,-0.4576301,-3.301623,-0.6736157,0.3336284,1.455217,0.4138353,-0.06369117,-0.196147,-0.2781887,-1.068344,0.5863591,-0.1523898,0.5062352,1.506592,0.288913,0.0089515,1.143836,0.3076172,295.4512,243.1859,352.6623,True
7,0.4888889,-1.225645,-0.2351221,-0.1090214,-1.407787,-4.426377,-2.518042,0.273475,1.271308,0.474201,-1.005344,0.224722,12.01592,15.72745,-0.08111614,-0.2184798,0.4980986,-0.450683,-3.295869,-0.6778421,0.3340237,1.456154,0.4125812,-0.07332489,-0.2195768,-0.2834539,-1.071129,0.5822425,-0.1493464,0.5066075,1.506552,0.2879827,0.006516148,1.150918,0.3040817,294.1365,241.9903,353.3569,True
7,0.5,-1.278966,-0.2193266,-0.1080437,-1.405696,-4.425538,-2.502051,0.2713698,1.273408,0.472492,-1.006877,-0.1415866,12.06897,15.70602,-0.09258336,-0.1951292,0.5471978,-0.4438563,-3.287127,-0.6843498,0.3345029,1.457142,0.4113402,-0.08075544,-0.2334461,-0.2812604,-1.0735,0.5780916,-0.1462683,0.5069247,1.506468,0.2868617,0.002792797,1.15804,0.3025102,293.0428,241.3456,354.37,True
7,0.5111111,-1.331225,-0.2024279,-0.1017465,-1.403944,-4.424767,-2.485476,0.2691433,1.275756,0.4706457,-1.005604,0.118326,12.09549,15.68459,-0.1392878,-0.174043,0.5837591,-0.4371957,-3.278274,-0.6892519,0.3349555,1.458243,0.4101059,-0.1031381,-0.2387811,-0.2821028,-1.076191,0.5743557,-0.1425127,0.5073385,1.506325,0.2858572,-0.001515483,1.165162,0.3024338,292.0096,241,355.7302,True
7,0.5222223,-1.38128,-0.2080138,-0.1134159,-1.401083,-4.423675,-2.469114,0.2668568,1.278335,0.468725,-1.006453,-0.07821742,12.06897,15.66317,-0.1783237,-0.213637,0.6159618,-0.4289942,-3.272978,-0.6908085,0.3354834,1.459147,0.4087965,-0.1351925,-0.2281325,-0.2902672,-1.079132,0.5713331,-0.1384354,0.5076526,1.506206,0.2847648,-0.00616105,1.172276,0.3031087,291.1111,241.0429,357.0409,True
7,0.5333334,-1.404698,-0.2156667,-0.1304065,-1.397844,-4.422814,-2.453171,0.2646077,1.280715,0.466908,-1.0067,-0.02129539,11.93634,15.62031,-0.1984816,-0.2233122,0.6224858,-0.4218213,-3.267645,-0.6928887,0.3359392,1.460069,0.4074669,-0.1502618,-0.2206596,-0.3050171,-1.082676,0.5682761,-0.1348595,0.5080655,1.506016,0.283709,-0.01077759,1.179444,0.3038118,290.2853,241.2334,358.2511,True
7,0.5444446,-1.437705,-0.2223295,-0.1537903,-1.39419,-4.422298,-2.436245,0.2621563,1.283276,0.4650049,-1.007515,-0.07395092,11.83024,15.55603,-0.2313595,-0.2064191,0.653627,-0.4145018,-3.257692,-0.6983333,0.3363998,1.46103,0.4061098,-0.1728689,-0.2067978,-0.3271375,-1.086809,0.5653355,-0.1307956,0.5086036,1.505831,0.2827444,-0.01515945,1.186744,0.3038823,289.5279,241.3145,359.3686,True
7,0.5555557,-1.470756,-0.2160948,-0.159156,-1.391274,-4.421838,-2.418974,0.2597887,1.285899,0.4630864,-1.00861,-0.09911901,11.75066,15.44889,-0.2493299,-0.1969268,0.6793253,-0.4069481,-3.24763,-0.7042043,0.336854,1.461991,0.4047608,-0.1802416,-0.1897837,-0.3174437,-1.089652,0.5629333,-0.1273737,0.5090945,1.505473,0.2816813,-0.01910095,1.194225,0.3028973,288.7298,240.7688,0.6789184,True
7,0.5666668,-1.528354,-0.1960617,-0.1592693,-1.388901,-4.421941,-2.399873,0.257301,1.288578,0.4611392,-1.008266,0.03258432,11.67109,15.34176,-0.2587888,-0.1756812,0.7092432,-0.3993623,-3.234925,-0.7126981,0.3373404,1.462897,0.4033558,-0.1789871,-0.1599848,-0.298234,-1.09219,0.561667,-0.124812,0.5095454,1.505175,0.2807612,-0.02251652,1.201833,0.3007375,287.8142,239.5409,2.116648,True
7,0.577778,-1.588117,-0.1686238,-0.1658228,-1.386702,-4.422659,-2.38007,0.2549214,1.291354,0.459183,-1.00833,-0.005834418,11.61804,15.23462,-0.2713088,-0.1779038,0.7444906,-0.390707,-3.222983,-0.7204157,0.3378201,1.463909,0.4019985,-0.1673486,-0.1322993,-0.3047045,-1.095728,0.5601084,-0.1225539,0.5101659,1.504854,0.2797432,-0.02556612,1.209555,0.2974702,286.9209,237.8103,3.578554,True
7,0.5888891,-1.65317,-0.1497369,-0.1744497,-1.38433,-4.423501,-2.359098,0.252377,1.294175,0.4571831,-1.00711,0.1119382,11.51194,15.14892,-0.2977874,-0.1886789,0.760645,-0.3822345,-3.212311,-0.7260706,0.3382623,1.464872,0.4006665,-0.1696333,-0.1280157,-0.3195894,-1.099625,0.5581111,-0.1196612,0.5106671,1.504607,0.2788639,-0.02831143,1.217434,0.2933539,286.0653,235.788,5.011775,True
7,0.6000003,-1.701144,-0.1381726,-0.1702195,-1.382384,-4.42381,-2.338613,0.2500052,1.296964,0.4552321,-1.006953,0.01377051,11.35279,15.04178,-0.3214161,-0.1749078,0.7405857,-0.375559,-3.20145,-0.7318119,0.3389081,1.465853,0.3993409,-0.1986615,-0.1301391,-0.3437993,-1.104132,0.5553755,-0.1149287,0.5113055,1.504341,0.2779014,-0.03094669,1.225584,0.2886979,285.2755,233.5309,6.504353,True
7,0.6111114,-1.725645,-0.1382518,-0.169147,-1.380035,-4.424104,-2.3188,0.2475552,1.299819,0.4532797,-1.006445,0.0469437,10.98143,14.89179,-0.3436394,-0.2133428,0.7396454,-0.3672148,-3.193764,-0.7345768,0.3395125,1.466727,0.3980854,-0.2245295,-0.1215882,-0.3722842,-1.10901,0.5534828,-0.1106706,0.5118741,1.504044,0.2770274,-0.03353102,1.234138,0.2838869,284.4792,230.865,8.361033,True
7,0.6222225,-1.746912,-0.1468311,-0.1648139,-1.377474,-4.423856,-2.29912,0.2451538,1.302863,0.4512932,-1.007421,-0.08914457,10.34483,14.72038,-0.3305001,-0.2878689,0.7480149,-0.3571736,-3.189177,-0.7356458,0.3400669,1.467599,0.3968408,-0.2322623,-0.1109174,-0.397748,-1.11397,0.5516694,-0.1069661,0.5124639,1.503765,0.2761457,-0.03614386,1.243194,0.2792377,283.62,227.7639,10.7372,True
7,0.6333337,-1.75756,-0.1490695,-0.1754491,-1.374678,-4.424437,-2.279218,0.2427018,1.305931,0.449399,-1.008764,-0.121593,9.549072,14.57039,-0.3090561,-0.3760652,0.7630966,-0.3467409,-3.184305,-0.737449,0.3405586,1.468629,0.3955343,-0.2333515,-0.1130647,-0.3998764,-1.118301,0.5494052,-0.1033275,0.5130776,1.503406,0.2754068,-0.03862968,1.252726,0.2750097,282.6165,224.1743,13.7874,True
7,0.6444448,-1.760713,-0.1609834,-0.2009136,-1.371002,-4.42519,-2.259577,0.2402759,1.309111,0.4474556,-1.009361,-0.0533525,8.779839,14.4204,-0.3107324,-0.3879571,0.7744333,-0.3361074,-3.178652,-0.7394469,0.3409603,1.46953,0.3942344,-0.2482415,-0.1183988,-0.3976007,-1.122472,0.5472682,-0.09917958,0.5135876,1.50306,0.2746694,-0.04098582,1.262591,0.2712981,281.5132,219.8404,17.78658,True
7,0.655556,-1.752135,-0.1770045,-0.2114585,-1.367371,-4.425679,-2.240172,0.2379638,1.31231,0.4456086,-1.009688,-0.0292809,8.090186,14.27041,-0.31062,-0.3656146,0.801088,-0.3267299,-3.165363,-0.7485791,0.3413758,1.470401,0.3928664,-0.2696342,-0.1066988,-0.4048165,-1.12708,0.5455959,-0.09465407,0.5142066,1.502685,0.2738197,-0.04324053,1.27262,0.2680723,280.431,214.6629,22.80274,True
7,0.6666671,-1.738204,-0.2004464,-0.2198331,-1.363379,-4.425979,-2.221192,0.2356059,1.315548,0.4438407,-1.010296,-0.05519473,7.453578,14.14185,-0.3161257,-0.309182,0.8075647,-0.3189673,-3.14932,-0.7601186,0.3417151,1.471282,0.3915257,-0.2835922,-0.06727248,-0.4142013,-1.132068,0.5457318,-0.09106945,0.5146672,1.502354,0.2731466,-0.04550394,1.28267,0.2652678,279.463,208.4219,28.98462,True
7,0.6777782,-1.726456,-0.2100326,-0.2250995,-1.359644,-4.426547,-2.202207,0.2334569,1.318811,0.4419928,-1.010764,-0.04216136,6.870025,14.03471,-0.3279662,-0.3028378,0.7938087,-0.3105906,-3.138228,-0.7666319,0.3421569,1.472126,0.3902717,-0.2729623,-0.02679899,-0.4153111,-1.136714,0.5462425,-0.08863346,0.5151471,1.502136,0.2725916,-0.04776004,1.292605,0.2628133,278.679,201.0921,36.35176,True
7,0.6888894,-1.709392,-0.2164308,-0.2357173,-1.355729,-4.427434,-2.183542,0.2313134,1.322169,0.4402409,-1.011348,-0.05300254,6.39257,13.99186,-0.3461877,-0.3114271,0.772626,-0.3021468,-3.129406,-0.7706565,0.3426541,1.473161,0.388972,-0.2568551,-0.01722566,-0.402678,-1.140756,0.5460024,-0.08621984,0.5155572,1.501842,0.2719316,-0.04991327,1.302307,0.2606111,278.0893,193.0691,44.48287,True
7,0.7000005,-1.696672,-0.2015455,-0.2464692,-1.352434,-4.429123,-2.164532,0.22946,1.325566,0.4384594,-1.011553,-0.01829541,6.180372,14.01328,-0.3629289,-0.3424094,0.7982861,-0.2917701,-3.117961,-0.776993,0.3430775,1.47413,0.3876569,-0.2418104,-0.02578233,-0.3889905,-1.144466,0.5446572,-0.08334016,0.5160192,1.50158,0.2713149,-0.05192358,1.3117,0.2585158,277.7068,184.6947,53.00499,True
7,0.7111117,-1.691431,-0.1792524,-0.2615296,-1.349449,-4.431318,-2.145199,0.2274856,1.329036,0.4367645,-1.012008,-0.04139521,6.233422,14.01328,-0.3602684,-0.3616387,0.8643056,-0.2799622,-3.100054,-0.7901351,0.343643,1.475265,0.3862574,-0.2414456,-0.02584248,-0.3538453,-1.147311,0.5439551,-0.08034038,0.5163738,1.501224,0.2706034,-0.05373805,1.320771,0.2563946,277.5356,176.6215,61.21734,True
7,0.7222228,-1.694708,-0.1569077,-0.2616487,-1.34713,-4.433125,-2.125648,0.225484,1.332412,0.4350312,-1.011906,0.009653869,6.445624,13.99186,-0.3141903,-0.3508396,0.9087341,-0.2692333,-3.078208,-0.8090156,0.3442226,1.47618,0.3850322,-0.2624617,0.002853297,-0.323751,-1.14996,0.5446696,-0.07688946,0.5167541,1.50094,0.2698925,-0.05534901,1.329567,0.2541753,277.5646,169.1664,68.72704,True
7,0.7333339,-1.708676,-0.1228664,-0.2586493,-1.34546,-4.435307,-2.105545,0.2235577,1.335932,0.4331877,-1.011697,0.01902489,6.657823,13.90615,-0.2489977,-0.3601832,0.9295845,-0.2586792,-3.058415,-0.827508,0.3448227,1.477037,0.3839345,-0.2771321,0.01877548,-0.2990702,-1.152649,0.5450668,-0.0734404,0.5170467,1.500608,0.269181,-0.05676491,1.338207,0.2518575,277.7331,162.6205,75.22798,True
7,0.7444451,-1.72686,-0.1015712,-0.250259,-1.34391,-4.437308,-2.085605,0.2216792,1.339488,0.4314909,-1.011416,0.02550771,6.870025,13.79901,-0.2294776,-0.3846375,0.9645824,-0.2471451,-3.036979,-0.8464141,0.3453574,1.477991,0.3827794,-0.2576911,0.008090869,-0.2737178,-1.154798,0.5446709,-0.07102065,0.5173855,1.50031,0.2685595,-0.05811952,1.346867,0.2494546,277.9975,156.5839,81.13947,True
7,0.7555562,-1.738598,-0.09737838,-0.2545418,-1.341662,-4.439465,-2.065712,0.2198676,1.342976,0.4298384,-1.010999,0.03799957,7.108754,13.69188,-0.2322077,-0.4379298,0.9986591,-0.2342761,-3.016463,-0.8635382,0.345856,1.478764,0.3818593,-0.2321148,-0.00255695,-0.2729293,-1.157761,0.5439542,-0.06904511,0.5177462,1.500003,0.2680097,-0.05942727,1.355678,0.2469849,278.294,150.7779,86.83044,True
7,0.7666674,-1.743895,-0.1059932,-0.2651327,-1.338709,-4.441732,-2.045693,0.2180072,1.346586,0.4280207,-1.011185,-0.0172128,7.320952,13.58474,-0.2306462,-0.5306206,1.016682,-0.2194391,-3.002295,-0.8748937,0.3463491,1.479789,0.3807266,-0.2185277,-0.009971514,-0.2986488,-1.161892,0.5432239,-0.06683043,0.5181306,1.499727,0.2673953,-0.06063422,1.364766,0.2444739,278.6453,145.2467,92.26979,True
7,0.7777785,-1.727921,-0.1048795,-0.2662116,-1.336326,-4.443959,-2.026645,0.2162645,1.350213,0.4262979,-1.011398,-0.01919735,7.559682,13.47761,-0.2411565,-0.5860654,1.006055,-0.2061702,-2.989187,-0.8846941,0.3467334,1.481053,0.3794153,-0.2379527,-0.01953224,-0.3229598,-1.16619,0.5423759,-0.06307963,0.5185509,1.49949,0.2668655,-0.06158859,1.37415,0.2420026,279.1298,139.5637,97.85322,True
7,0.7888896,-1.707703,-0.09841507,-0.2662606,-1.334253,-4.446296,-2.007925,0.2145219,1.353765,0.4247193,-1.011405,-0.0004753779,7.771884,13.34904,-0.239933,-0.5956627,1.023083,-0.1933359,-2.964474,-0.9062942,0.3470907,1.482119,0.3781581,-0.2884259,-0.01736005,-0.3618545,-1.171561,0.5418877,-0.05787688,0.5189548,1.499145,0.266268,-0.06224663,1.383777,0.2396123,279.8023,133.7864,103.5413,True
7,0.8000008,-1.690701,-0.08771351,-0.2673858,-1.332447,-4.448873,-1.989252,0.2130656,1.357301,0.4230309,-1.012412,-0.09203529,7.95756,13.30619,-0.2270396,-0.5711256,1.054986,-0.1814657,-2.925781,-0.9420991,0.3475791,1.483008,0.3768783,-0.3325561,-0.004515499,-0.4061319,-1.177541,0.5420725,-0.05290023,0.5193366,1.498856,0.2657223,-0.06267955,1.393601,0.237278,280.6205,128.4496,108.8049,True
7,0.8111119,-1.673722,-0.06955566,-0.269641,-1.331129,-4.451719,-1.970747,0.2116041,1.360846,0.4215193,-1.012853,-0.03958377,8.169763,13.37047,-0.2141912,-0.5008061,1.103958,-0.1710895,-2.869437,-0.9955975,0.3479497,1.48384,0.3755,-0.3490388,0.02111076,-0.4527879,-1.184009,0.5428336,-0.04873185,0.5196633,1.49847,0.2651625,-0.06284937,1.403478,0.2350534,281.5327,123.5047,113.6478,True
7,0.8222231,-1.677023,-0.04297569,-0.2793978,-1.330324,-4.455357,-1.95107,0.2104333,1.364302,0.4200723,-1.012906,-0.00462099,8.355438,13.49904,-0.2292875,-0.4156451,1.126517,-0.1629498,-2.806131,-1.054825,0.3484789,1.484514,0.3739421,-0.3397193,0.03714618,-0.476301,-1.190202,0.5437188,-0.04547694,0.5199291,1.498086,0.2647808,-0.06279798,1.413248,0.2329797,282.4984,119.089,117.9602,True
7,0.8333342,-1.681417,-0.007956028,-0.2977382,-1.329855,-4.459536,-1.931249,0.209226,1.367854,0.4186909,-1.013029,-0.01123617,8.594163,13.71331,-0.2300771,-0.3603153,1.196878,-0.1537704,-2.724968,-1.132289,0.3490463,1.485208,0.3725414,-0.3046071,0.0626961,-0.4776847,-1.195532,0.5448765,-0.04359994,0.5201827,1.497614,0.264111,-0.06256443,1.422797,0.2310612,283.4676,115.4769,121.505,True
7,0.8444453,-1.695326,0.007880405,-0.3116858,-1.329002,-4.463612,-1.911034,0.208121,1.371401,0.4170763,-1.011971,0.09671696,8.806365,13.949,-0.2083982,-0.3389896,1.259607,-0.1445548,-2.631586,-1.223045,0.3500057,1.485791,0.3713255,-0.240578,0.08185504,-0.4655265,-1.200198,0.5461031,-0.04353576,0.5204124,1.497503,0.2634437,-0.06223349,1.432087,0.2293184,284.4149,112.6072,124.2993,True
7,0.8555565,-1.723159,0.04272935,-0.3395785,-1.32893,-4.468663,-1.889767,0.2071374,1.374856,0.4153953,-1.011812,0.01362539,9.018568,14.16327,-0.1551825,-0.3153582,1.265643,-0.1376252,-2.541593,-1.312139,0.3510132,1.486666,0.3701534,-0.1943998,0.0977851,-0.4286935,-1.203797,0.5475257,-0.04325533,0.5205618,1.497219,0.2630012,-0.06186318,1.441184,0.2277868,285.2833,110.4642,126.3803,True
7,0.8666676,-1.731826,0.07981622,-0.3653848,-1.329442,-4.474302,-1.868766,0.2062383,1.378252,0.4141347,-1.011422,0.0356648,9.23077,14.35612,-0.1093727,-0.3481845,1.247182,-0.1299623,-2.451822,-1.401481,0.3518651,1.487498,0.3689678,-0.1702144,0.09768768,-0.3564999,-1.205407,0.5486287,-0.04256264,0.5206748,1.496881,0.262296,-0.06154497,1.450248,0.2264642,286.1065,108.7444,128.1123,True
7,0.8777788,-1.704365,0.1437024,-0.3796299,-1.331477,-4.479768,-1.849617,0.2054793,1.381255,0.4121747,-1.010643,0.07091229,9.389919,14.48468,-0.05050123,-0.49281,1.207222,-0.1179237,-2.367043,-1.487071,0.3527558,1.488537,0.3678634,-0.1612973,0.09229773,-0.3182471,-1.207767,0.5492724,-0.04111947,0.5208625,1.49663,0.2615631,-0.06123907,1.459377,0.225287,286.9189,107.1967,129.8109,True
7,0.8888899,-1.632171,0.2121772,-0.3747776,-1.33483,-4.485156,-1.832466,0.2048566,1.384231,0.4108372,-1.011096,-0.0418484,9.549072,14.54896,-0.01292324,-0.6438959,1.163152,-0.1050862,-2.267314,-1.58752,0.3534625,1.489525,0.3667464,-0.1875634,0.06028151,-0.2839299,-1.20979,0.5488299,-0.0379868,0.5210328,1.496343,0.2606969,-0.06082773,1.468649,0.2242552,287.7469,105.7792,131.3885,True
7,0.900001,-1.55147,0.2860345,-0.3657097,-1.339153,-4.49029,-1.817096,0.2043399,1.387008,0.4094036,-1.013024,-0.1757829,9.681698,14.54896,0.01350641,-0.6757092,1.112862,-0.09766024,-2.158668,-1.696618,0.3540809,1.490393,0.3656399,-0.2185197,0.03790995,-0.2911054,-1.213335,0.5483735,-0.03445625,0.5212204,1.496056,0.2599266,-0.06015151,1.478058,0.223468,288.6415,104.1957,133.1268,True
7,0.9111122,-1.417731,0.4207532,-0.3655746,-1.347235,-4.496728,-1.804999,0.2040542,1.389195,0.4081998,-1.015072,-0.1858588,9.761274,14.50611,0.05097187,-0.6498968,1.001825,-0.09269398,-2.076286,-1.780637,0.3544674,1.491186,0.3644085,-0.2569918,0.0123477,-0.3035284,-1.217063,0.5474035,-0.02993127,0.5214115,1.495756,0.2591527,-0.0591267,1.487449,0.2229116,289.6339,102.1714,135.3633,True
7,0.9222233,-1.336035,0.5115244,-0.3779086,-1.354607,-4.503426,-1.791603,0.2038884,1.391508,0.4072058,-1.01662,-0.1403013,9.840847,14.48468,0.03386569,-0.5454923,0.9019081,-0.09234884,-1.998759,-1.85737,0.3549013,1.492125,0.3630989,-0.3286126,-0.02491149,-0.3284177,-1.221663,0.5457888,-0.02325552,0.5216271,1.495487,0.2586474,-0.05772989,1.496551,0.2226662,290.7082,100.017,137.6535,True
7,0.9333345,-1.257934,0.7097774,-0.4058654,-1.367552,-4.512216,-1.778904,0.2042582,1.392542,0.4061749,-1.019685,-0.2796062,9.867373,14.48468,0.006680846,-0.4784513,0.861674,-0.09226309,-1.907666,-1.947142,0.3551973,1.492846,0.3617158,-0.3663176,-0.03977787,-0.3696013,-1.227126,0.5446839,-0.01764637,0.5217568,1.495193,0.2579763,-0.05613204,1.505139,0.2227477,291.8087,97.86738,139.8936,True
7,0.9444456,-1.210596,0.8772421,-0.4037946,-1.381306,-4.519916,-1.765191,0.2044913,1.394014,0.405478,-1.017931,0.1621863,9.920423,14.50611,-0.02913427,-0.3709861,0.8279252,-0.09511586,-1.824762,-2.028051,0.355628,1.493235,0.3601875,-0.3625234,-0.00562644,-0.4132636,-1.233142,0.5457676,-0.01418852,0.5218787,1.494838,0.2572536,-0.05455839,1.512916,0.2233363,292.9,95.75517,142.0246,True
7,0.9555568,-1.13848,0.9670315,-0.3959065,-1.393313,-4.526576,-1.75368,0.2045227,1.395353,0.4038193,-1.017958,-0.004871966,9.94695,14.61324,-0.03362387,-0.2954041,0.8408,-0.09873297,-1.728549,-2.123323,0.3561193,1.493596,0.3587837,-0.343373,0.02634296,-0.4144779,-1.2377,0.5472696,-0.01164494,0.5219942,1.494461,0.2564764,-0.05332979,1.519863,0.2244979,293.7589,94.07559,143.7961,True
7,0.9666679,-1.021712,1.082575,-0.3860509,-1.408227,-4.533543,-1.745387,0.2046,1.395952,0.4024448,-1.015975,0.1811434,9.999999,14.76323,-0.02328295,-0.2623155,0.8151881,-0.1017983,-1.651152,-2.200393,0.3564063,1.494031,0.3573961,-0.2886105,0.0880848,-0.3712729,-1.24029,0.5504504,-0.0114982,0.5219529,1.494209,0.2555993,-0.0524817,1.525963,0.2264738,294.317,92.42348,145.6306,True
7,0.977779,-0.9124215,1.19601,-0.3633889,-1.423799,-4.539728,-1.73791,0.2046555,1.396236,0.4005237,-1.017071,-0.1020658,10.07958,14.93465,0.008325577,-0.2579167,0.7680837,-0.1035405,-1.58084,-2.271604,0.3567112,1.494341,0.3561046,-0.2679782,0.1146766,-0.3330951,-1.242693,0.5526164,-0.009898704,0.5219666,1.493895,0.2547643,-0.05229903,1.531702,0.2291367,294.5121,90.83027,147.7527,True
7,0.9888902,-0.8636196,1.26669,-0.3383191,-1.439474,-4.545392,-1.729348,0.2047367,1.396622,0.3990333,-1.019715,-0.2413003,10.2122,15.12749,0.02367097,-0.2439312,0.6859579,-0.1051624,-1.531891,-2.321087,0.3567809,1.494602,0.3548932,-0.2587376,0.1401438,-0.2628399,-1.243212,0.5551862,-0.008242483,0.521874,1.493626,0.2538733,-0.05262111,1.537168,0.2321313,294.7023,89.20432,150.3425,True
7,1.000001,-0.8424697,1.323661,-0.2737206,-1.455513,-4.548723,-1.720323,0.2051019,1.396928,0.3974741,-1.019719,0.001066259,10.34483,15.27748,0.02086425,-0.2459929,0.5900981,-0.1054676,-1.489324,-2.363431,0.3569418,1.494898,0.3537173,-0.2773539,0.1421884,-0.208318,-1.243907,0.5568091,-0.004914065,0.5218402,1.493351,0.2529747,-0.05308487,1.542028,0.2353302,295.0372,87.20683,153.3429,True
7,1.011112,-0.8189253,1.303038,-0.1819757,-1.469492,-4.549706,-1.711904,0.2051808,1.397065,0.3952608,-1.017549,0.1975913,10.47745,15.55603,-0.02727354,-0.2087524,0.4317372,-0.1041264,-1.487106,-2.363685,0.3569567,1.495006,0.3525786,-0.2792352,0.1219126,-0.1848906,-1.24516,0.5575206,-0.001934787,0.5217774,1.493073,0.2520297,-0.05364918,1.546169,0.2384551,295.3607,85.05965,156.4333,True
7,1.022224,-0.8431892,1.253716,-0.05593842,-1.481851,-4.547716,-1.701934,0.2055051,1.397215,0.3931339,-1.01576,0.16133,10.55703,16.02742,-0.08986276,-0.1780289,0.3363265,-0.1039517,-1.474892,-2.372627,0.3571332,1.495403,0.351485,-0.2563349,0.07177851,-0.1351256,-1.245075,0.5564449,0.0004783037,0.5217103,1.492847,0.2510598,-0.05423283,1.549728,0.241319,295.4335,83.10593,159.1661,True
7,1.033335,-0.8411784,1.296934,0.03539527,-1.498233,-4.546669,-1.692558,0.2055001,1.397799,0.3904467,-1.015378,0.03350921,10.6366,16.67023,-0.08652589,-0.1756993,0.3630296,-0.1060742,-1.4338,-2.412258,0.35737,1.495675,0.3503928,-0.2312808,0.0408228,-0.08322994,-1.244258,0.5558867,0.002324141,0.5217477,1.492577,0.2500153,-0.05459867,1.552953,0.2436889,295.334,81.10637,161.9417,True
7,1.044446,-0.7208556,1.322282,0.09590644,-1.514733,-4.545936,-1.688517,0.205157,1.398908,0.38854,-1.013146,0.2037426,10.68966,17.48446,-0.0804227,-0.1779761,0.3170778,-0.1067778,-1.398116,-2.447486,0.3579568,1.495535,0.3492148,-0.2150644,0.01096973,-0.06106092,-1.244156,0.5550829,0.004523912,0.5218631,1.492395,0.2490325,-0.05454531,1.556024,0.2451479,295.3384,79.05882,164.7894,True
7,1.055557,-0.4511975,1.302702,0.2120811,-1.528693,-4.541407,-1.69331,0.2048524,1.39979,0.3858538,-1.01338,-0.02320632,10.68966,18.36297,-0.07735494,-0.218413,0.2765354,-0.1057499,-1.360394,-2.484176,0.358456,1.495645,0.3480892,-0.2065678,-0.04441367,-0.06549074,-1.245161,0.5527925,0.007367635,0.5221323,1.492161,0.2481046,-0.05392739,1.559244,0.2453422,295.361,77.04794,167.3274,True
7,1.066668,-0.2840653,1.910532,0.04824142,-1.569501,-4.552083,-1.695644,0.2044565,1.39893,0.3834994,-1.01846,-0.4645551,10.66313,19.34862,0.01577753,-0.4780416,0.3448905,-0.1033259,-1.222693,-2.624189,0.3587212,1.496044,0.3468852,-0.2102277,-0.1061341,-0.1124168,-1.247906,0.5493646,0.01093041,0.5223876,1.491925,0.2471659,-0.05301253,1.563195,0.2443187,295.4877,75.21542,169.0749,True
7,1.077779,-0.6311868,2.760598,0.0652028,4.654247,-4.557609,-1.676346,0.204146,1.396374,0.3815389,-1.026779,-0.7572254,10.66313,20.46282,0.05869639,-0.6611992,0.4381635,-0.1049147,-1.072298,-2.775789,0.3585865,1.49632,0.3455229,-0.2438588,-0.1262943,-0.1717536,-1.251794,0.5473989,0.0154,0.5225314,1.491675,0.246207,-0.05178588,1.567626,0.2426259,296.023,73.65943,170.0672,True
7,1.08889,-0.9769896,3.227608,-0.01015475,4.602374,-4.564456,-1.654044,0.2039682,1.394124,0.3794198,-1.024229,0.2385808,10.66313,21.64131,0.05229956,-0.6730811,0.5830812,-0.1133457,-0.9673062,-2.88053,0.3578492,1.496625,0.344126,-0.3161981,-0.0995495,-0.2636511,-1.258009,0.5473076,0.02147094,0.5225781,1.491392,0.24541,-0.05047121,1.57163,0.2407718,297.1666,72.11017,170.6213,True
7,1.100002,-1.110715,3.427809,-0.1221531,4.560244,-4.572424,-1.638405,0.2040022,1.392437,0.3781312,-1.00078,2.13584,10.76923,22.71266,-0.02295476,-0.5093214,0.5805654,-0.1193986,-0.9617761,-2.882679,0.3572526,1.496798,0.342972,-0.4183155,-0.05683637,-0.349887,-1.264614,0.5485455,0.02914936,0.5223964,1.491172,0.2447243,-0.05038819,1.575133,0.2407348,298.2635,69.36464,171.3258,True
7,1.111113,-1.27221,3.566284,-0.1943898,4.515491,-4.579422,-1.619135,0.2038444,1.390951,0.3767779,-0.9957815,0.4412072,10.95491,23.78402,-0.1512792,-0.1400139,0.4166791,-0.1217864,-1.058027,-2.780663,0.3561972,1.4966,0.3417642,-0.4665206,-0.004621357,-0.3738145,-1.26935,0.5503289,0.03526132,0.5220482,1.491013,0.2441747,-0.05208562,1.57923,0.2444028,298.4231,64.13859,174.9073,True
7,1.122224,-1.198021,3.085188,-0.3372175,4.497503,-4.58839,-1.610545,0.2040386,1.392499,0.3767741,-1.003194,-0.6791752,11.45889,25.51961,-0.2402574,0.2007045,0.2269214,-0.1234343,-1.172488,-2.661251,0.3559422,1.496299,0.3414946,-0.3545484,0.06330793,-0.2965401,-1.271633,0.5524042,0.0374262,0.521673,1.490903,0.24365,-0.05436274,1.584301,0.2523541,298.4305,59.36267,179.997,True
7,1.133335,-1.087499,2.571675,-0.4063063,4.485556,-4.595217,-1.603813,0.2041482,1.394275,0.3771913,-1.001593,0.1526602,12.20159,27.96229,-0.2185458,0.208336,0.1362239,-0.1232793,-1.1861,-2.646382,0.3561919,1.49615,0.3412645,-0.1982562,0.1262198,-0.183574,-1.268333,0.5568855,0.03060984,0.5212905,1.490884,0.2431746,-0.05578621,1.589775,0.2641261,299.2902,56.15108,185.1836,True
7,1.144446,-0.7793484,1.583159,-0.3925205,4.500889,-4.598483,-1.605797,0.204866,1.397362,0.3782251,-1.012346,-0.9836739,13.20955,31.11206,-0.08212695,-0.01366134,0.01893964,-0.1164675,-1.145855,-2.689916,0.3571803,1.496329,0.3413906,0.1036054,0.2804174,0.06282582,-1.259252,0.5652297,0.01672385,0.5208315,1.490732,0.2427068,-0.0559704,1.595743,0.2787256,301.0694,53.3802,190.8727,True
7,1.155557,-0.5834504,1.015867,-0.4208101,4.506848,-4.603427,-1.606781,0.2055795,1.399308,0.3790076,-1.015664,-0.2962321,14.08488,33.85472,0.227061,-0.4695384,0.1004978,-0.1131172,-0.9682894,-2.878732,0.3584246,1.497,0.3412316,0.1617561,0.3368052,0.1251669,-1.256231,0.570742,0.01211978,0.5206223,1.490568,0.2420285,-0.05460594,1.601789,0.2940728,303.4467,53.10323,195.0062,True
7,1.166668,-0.2199933,0.3301321,-0.5635108,4.527364,-4.613621,-1.618224,0.2066845,1.40187,0.3803425,-1.024335,-0.7917682,14.80106,36.16884,0.6088049,-0.7760834,0.2829048,-0.1189144,-0.7959421,-3.068923,0.3599911,1.497719,0.3409462,0.1351765,0.3485065,0.1307863,-1.254431,0.5753139,0.00997993,0.5205951,1.490474,0.2413788,-0.05182764,1.607323,0.307887,306.112,54.11307,198.0072,True
7,1.17778,-0.1373408,0.1382634,-0.6272268,4.529276,-4.622091,-1.620409,0.2072374,1.403048,0.3824923,-1.021884,0.228305,15.41114,38.14013,0.7770923,-0.8202603,0.4042172,-0.1272085,-0.7198008,3.125596,0.3606749,1.498134,0.3402226,0.06557055,0.282494,0.0941174,-1.255111,0.5759472,0.01194561,0.520589,1.490305,0.240767,-0.04806543,1.611619,0.317483,308.5878,56.40446,199.2804,True
7,1.188891,-0.1407806,-0.1093634,-0.6980606,4.539224,-4.631829,-1.620389,0.207297,1.404604,0.3838668,-1.028297,-0.5904567,15.94164,39.8543,0.8241367,-0.6742315,0.5116246,-0.1367448,-0.7018409,3.097018,0.3614489,1.498515,0.3393557,-0.05180612,0.1004804,-0.03278156,-1.259938,0.570487,0.01834918,0.5208483,1.490248,0.2400582,-0.04458891,1.614646,0.3219129,310.2281,58.56609,198.9371,True
7,1.200002,-0.1944701,-0.284337,-0.7139573,4.546962,-4.640265,-1.617383,0.207466,1.40642,0.3871329,-1.017118,1.024881,16.20689,40.73281,0.7556562,-0.4966467,0.5740657,-0.1445409,-0.7137671,3.104241,0.3617314,1.498734,0.3387704,-0.1576988,-0.08787986,-0.1832529,-1.267273,0.563042,0.02571602,0.5210713,1.490105,0.2394445,-0.04236435,1.615835,0.3212918,310.7691,61.04189,196.2437,True
7,1.211113,-0.3426652,-0.56826,-0.7216302,4.563655,-4.647985,-1.609313,0.2071331,1.408446,0.3888841,-1.010667,0.5791123,16.23342,41.41847,0.5886378,-0.2629536,0.5882331,-0.1516905,-0.7522229,-3.141297,0.3616793,1.498932,0.3378313,-0.2226529,-0.2240946,-0.287185,-1.27364,0.5565665,0.03193104,0.5210809,1.48995,0.2388058,-0.04251745,1.6157,0.3174968,309.9643,62.28176,192.9243,True
7,1.222224,-0.40455,-0.8557783,-0.6792682,4.582321,-4.65294,-1.603507,0.207168,1.410076,0.3908567,-1.004988,0.5124419,15.96817,41.4399,0.3991923,-0.1007038,0.5545477,-0.1564256,-0.7751873,-3.116445,0.361651,1.498853,0.3371208,-0.2507963,-0.275171,-0.331715,-1.279028,0.551689,0.03712234,0.5211482,1.489804,0.2382302,-0.04498459,1.614705,0.312276,307.9868,63.2859,189.5061,True
7,1.233335,-0.4766297,-0.9633337,-0.6402144,4.595845,-4.658406,-1.596619,0.2075526,1.411697,0.3917589,-0.9975061,0.678211,15.49072,40.9685,0.301628,-0.002019584,0.5222968,-0.1612869,-0.7900842,-3.102191,0.3617482,1.498994,0.3367891,-0.2529996,-0.2506613,-0.338041,-1.282829,0.5500652,0.04032532,0.5209324,1.489709,0.2378459,-0.04894665,1.613394,0.3073651,305.2943,64.19894,186.4798,True
7,1.244446,-0.5052447,-1.003725,-0.6111786,4.60858,-4.664043,-1.590608,0.2078911,1.413541,0.3927553,-0.9975562,-0.01215871,15.09284,40.90422,0.3002436,0.05657959,0.50958,-0.1666489,-0.8043295,-3.091377,0.3618641,1.499246,0.3363087,-0.2261209,-0.1952954,-0.3126682,-1.285504,0.5497913,0.042038,0.5207621,1.489586,0.2374053,-0.05316502,1.61219,0.3034541,302.6092,65.43631,184.2443,True
7,1.255558,-0.5095209,-0.9982444,-0.5888727,4.619142,-4.669596,-1.585656,0.208481,1.415254,0.3935242,-0.9943604,0.290657,14.88063,41.84701,0.319195,0.07369262,0.4860295,-0.1714335,-0.8083866,-3.091895,0.3625128,1.499553,0.3361228,-0.1573378,-0.09736161,-0.251438,-1.286052,0.5520923,0.04080202,0.5204617,1.489522,0.2370892,-0.05627028,1.611102,0.3007485,300.5488,66.77897,182.6207,True
7,1.266669,-0.4522159,-0.9175256,-0.4903395,4.626768,-4.671745,-1.582659,0.2089683,1.41711,0.3936751,-0.9923604,0.1784106,14.74801,42.7898,0.3930157,-0.05276304,0.4598201,-0.1753537,-0.7804039,-3.126364,0.3630821,1.499859,0.3358088,-0.08182751,-0.01012262,-0.1583386,-1.284673,0.5549194,0.03842862,0.5200456,1.489517,0.2367775,-0.05793023,1.610706,0.2993342,299.2133,67.84998,181.5967,True
7,1.27778,-0.4342914,-0.8788528,-0.4671925,4.634275,-4.67716,-1.578876,0.2100153,1.420381,0.3990712,-0.9903843,0.1768742,14.61538,43.3469,0.425236,-0.1453044,0.4456491,-0.1798092,-0.7542797,3.125439,0.3637603,1.500129,0.3352604,-0.03751063,0.04518438,-0.0947928,-1.283638,0.5569578,0.03698198,0.5199336,1.48944,0.2363479,-0.0581952,1.611415,0.2991933,298.6368,69.08121,180.5882,True
7,1.288891,-0.3964375,-0.7141535,-0.3862307,4.636435,-4.678631,-1.576044,0.2102103,1.421917,0.3988328,-0.9891737,0.1064694,14.45623,43.2612,0.411683,-0.2305763,0.4403319,-0.1846982,-0.7244608,3.091858,0.3642486,1.500401,0.3347113,0.002653142,0.08024266,-0.02164687,-1.281178,0.5591456,0.03490685,0.5195757,1.489471,0.2359674,-0.05723074,1.613225,0.3001418,298.8063,70.18063,179.8859,True
7,1.300002,-0.4395562,-0.5550894,-0.3254429,4.636914,-4.68133,-1.569947,0.2104384,1.424611,0.4029768,-0.9842457,0.4464111,14.27056,41.97557,0.3338576,-0.2564251,0.4174082,-0.1887846,-0.7077481,3.074357,0.3647386,1.500803,0.334018,0.0125129,0.07380523,0.005942658,-1.2804,0.5594042,0.03480778,0.5193707,1.489398,0.2355316,-0.05548999,1.616047,0.301917,299.3309,71.28447,178.8768,True
7,1.311113,-0.4761866,-0.4162398,-0.2517484,4.636818,-4.681702,-1.563443,0.2104789,1.425906,0.4029808,-0.9809115,0.2977883,14.08488,40.71138,0.259264,-0.2407429,0.4232715,-0.1938068,-0.6981381,3.064605,0.3651456,1.501114,0.3332984,-0.00131529,0.04610129,0.007110401,-1.280298,0.5589185,0.03545307,0.5191959,1.48935,0.2350588,-0.05350488,1.619813,0.3049417,299.9902,72.47176,177.489,True
7,1.322224,-0.5494664,-0.1259059,-0.1246973,4.629085,-4.679024,-1.554883,0.2099368,1.426666,0.4019113,-0.973028,0.7150356,13.95225,39.1472,0.1465451,-0.1453981,0.5061803,-0.2020444,-0.7092634,3.077576,0.3654857,1.501529,0.3324142,-0.02501396,-0.01997041,-0.02148248,-1.281415,0.5554354,0.03747733,0.5191905,1.489413,0.2340126,-0.05161418,1.623889,0.3087165,301.1873,72.78706,177.5402,True
7,1.333336,-0.5668716,-0.006463394,-0.09351455,4.626158,-4.679344,-1.548297,0.2096426,1.427526,0.4004657,-0.9676085,0.4858688,13.87268,36.87594,0.09771121,-0.1051575,0.5523695,-0.2096057,-0.7113985,3.079803,0.3658178,1.501832,0.3317671,-0.03583882,-0.05831233,-0.03846564,-1.282404,0.5534769,0.03888242,0.5192136,1.489218,0.2337046,-0.0502392,1.628113,0.3131557,302.2255,72.77779,178.0078,True
7,1.344447,-0.5682464,0.09388167,-0.06113691,4.621678,-4.678838,-1.54192,0.2096327,1.428614,0.400099,-0.9608701,0.6087228,13.66048,33.49046,0.0667662,-0.06907165,0.565406,-0.2163563,-0.7156697,3.08436,0.3662161,1.502059,0.3311064,-0.06824051,-0.1456128,-0.08406459,-1.28496,0.548861,0.04197142,0.5193857,1.489085,0.2331166,-0.04920985,1.631789,0.3173504,303.404,72.12813,179.9013,True
7,1.355558,-0.5587031,0.107807,-0.04840496,4.620652,-4.679096,-1.536063,0.209611,1.429603,0.3984556,-0.9573191,0.3159189,13.55437,31.00492,0.1016272,-0.1168061,0.4958616,-0.2195574,-0.7026359,3.069097,0.3666216,1.502322,0.3306124,-0.09095277,-0.1700664,-0.1179581,-1.287459,0.5465334,0.04424842,0.5194241,1.488921,0.2329862,-0.04866488,1.634837,0.3204467,304.4307,70.93644,182.4613,True
7,1.366669,-0.5213892,0.118855,-0.036958,4.619226,-4.679541,-1.531056,0.2097411,1.43079,0.3980708,-0.9524071,0.4427276,13.4748,29.14078,0.1163301,-0.1294935,0.4584596,-0.2234408,-0.6953951,3.060203,0.3669843,1.502594,0.3300047,-0.1104446,-0.1806825,-0.1486658,-1.290295,0.5441836,0.04681651,0.5194784,1.488784,0.2324965,-0.04851418,1.637027,0.3218606,304.9775,70.39863,183.9134,True
7,1.37778,-0.4894879,0.1231164,-0.02514638,4.617912,-4.679026,-1.527119,0.2098918,1.431847,0.396997,-0.9471857,0.4695372,13.39523,27.70516,0.1318625,-0.1772922,0.3666797,-0.2244683,-0.6785077,3.041561,0.3673271,1.503066,0.3295329,-0.1193504,-0.1721046,-0.1858413,-1.293519,0.5428564,0.04864663,0.5194686,1.488888,0.2319691,-0.04872712,1.638482,0.3216739,304.9686,70.1272,184.3411,True
7,1.388891,-0.4341592,0.1468944,0.000250455,4.615522,-4.678072,-1.524087,0.2099523,1.43265,0.3964877,-0.9420922,0.45756,13.31565,26.52667,0.1265859,-0.2262956,0.3464254,-0.2280161,-0.6614311,3.023694,0.3675846,1.503529,0.328958,-0.1109194,-0.1358706,-0.1933346,-1.295969,0.542712,0.04960883,0.5194889,1.488789,0.2315161,-0.04925585,1.639356,0.3200356,304.6247,70.11953,184.1023,True
7,1.400002,-0.390714,0.2217599,0.02531278,4.610782,-4.676793,-1.520969,0.2098102,1.432845,0.394738,-0.9371051,0.4477423,13.2626,25.32676,0.1149017,-0.2284798,0.3507647,-0.2327326,-0.653151,3.014865,0.3678253,1.503806,0.3283069,-0.1193972,-0.1177627,-0.1878957,-1.297814,0.5422308,0.05140247,0.5193868,1.488714,0.231107,-0.05002744,1.639874,0.3174947,304.0282,70.17814,183.351,True
7,1.411114,-0.3877079,0.2825938,0.04089807,4.605597,-4.675549,-1.516632,0.2098509,1.433385,0.3940809,-0.9316856,0.4872461,13.20955,24.61967,0.07506591,-0.1551094,0.331943,-0.235629,-0.6585065,3.020671,0.3680593,1.503879,0.3276377,-0.1116011,-0.08796955,-0.1549141,-1.298478,0.5423667,0.05220541,0.5191869,1.488663,0.2306998,-0.05091277,1.640117,0.3145206,303.4332,70.13535,182.5934,True
7,1.422225,-0.4017254,0.3347498,0.04269575,4.600286,-4.674674,-1.511381,0.2098915,1.433593,0.3923497,-0.9251688,0.5872181,13.1565,24.04114,0.007393777,-0.0871481,0.2909339,-0.2370693,-0.6658068,3.030088,0.3683398,1.504039,0.3269303,-0.1006826,-0.07947426,-0.1294445,-1.299043,0.5418443,0.05304005,0.5191024,1.488574,0.2302825,-0.05185626,1.640101,0.3115994,302.9917,69.93359,182.0299,True
7,1.433336,-0.3943377,0.360509,0.07021907,4.595888,-4.672711,-1.506993,0.2098382,1.433922,0.3905716,-0.9174324,0.697965,13.12997,23.29119,-0.02970928,-0.08519921,0.3178221,-0.2415796,-0.6630028,3.028846,0.3685931,1.504104,0.32655,-0.06604247,-0.07314003,-0.07652935,-1.298153,0.5412151,0.05276494,0.5191021,1.488484,0.2298341,-0.05288486,1.639875,0.3090262,302.6606,69.45864,181.9077,True
7,1.444447,-0.3793309,0.3352111,0.1044682,4.593194,-4.670158,-1.503049,0.2098591,1.434331,0.3899577,-0.9100075,0.6687211,13.10345,21.76987,-0.02088106,-0.1139573,0.345429,-0.2466321,-0.6559419,3.021903,0.368893,1.504164,0.3261006,-0.026198,-0.06998961,-0.03539003,-1.297115,0.5404645,0.05186639,0.5190685,1.488343,0.2294841,-0.05400199,1.639689,0.3071325,302.2307,68.8375,182.0753,True
7,1.455558,-0.3920498,0.3172049,0.1269488,4.590654,-4.667881,-1.497971,0.2098267,1.434557,0.3885932,-0.9046875,0.4767658,13.23607,20.26998,-0.001648754,-0.1447693,0.3356752,-0.2503776,-0.6459306,3.011244,0.3691469,1.504012,0.3257458,-0.01651606,-0.06999713,-0.02590219,-1.297267,0.5396771,0.05209063,0.5191022,1.48817,0.2290807,-0.05504183,1.639657,0.3059308,301.8804,68.09113,182.7957,True
7,1.466669,-0.3952194,0.3132026,0.1685229,4.5875,-4.664325,-1.493019,0.2097797,1.434766,0.3880584,-0.8991253,0.5005134,13.3687,18.7058,-0.01286262,-0.1351511,0.2622591,-0.250939,-0.641294,3.007428,0.3693638,1.504001,0.3255527,-0.02092208,-0.06678279,-0.03970136,-1.298187,0.5390869,0.05262513,0.5192277,1.48799,0.2288065,-0.05584902,1.639812,0.3052393,301.6821,67.3772,183.6814,True
7,1.47778,-0.3716996,0.2877755,0.1803941,4.585476,-4.661791,-1.489296,0.2098435,1.434873,0.3863001,-0.8919448,0.648279,13.3687,17.01307,0.0209682,-0.1530858,0.2151319,-0.2521486,-0.6330608,2.998159,0.3698148,1.504153,0.3251324,-0.02527124,-0.07422659,-0.04819695,-1.2992,0.5380538,0.05341316,0.5194864,1.487802,0.2284687,-0.05633196,1.640082,0.3048914,301.6478,66.80981,184.4333,True
7,1.488891,-0.3299813,0.2323881,0.1626365,4.584986,-4.660442,-1.486813,0.2100377,1.435007,0.3849154,-0.8862068,0.5152209,13.2626,15.2132,0.06208597,-0.1730881,0.1423815,-0.251633,-0.622112,2.985417,0.3700597,1.504141,0.3248951,-0.04030108,-0.08912915,-0.05978141,-1.300319,0.5365401,0.05476045,0.5196646,1.487628,0.2282445,-0.05653503,1.640494,0.3046526,301.7371,66.26444,185.1775,True
7,1.500003,-0.2776049,0.1748791,0.1395554,4.585008,-4.659636,-1.485405,0.2101885,1.435345,0.3843489,-0.8816975,0.4044394,12.99735,13.32762,0.04683372,-0.1890703,0.08601267,-0.2513513,-0.6113345,2.975026,0.3702865,1.504237,0.3246686,-0.06286329,-0.09762762,-0.07873706,-1.301903,0.5352829,0.05652693,0.5198643,1.487412,0.2280383,-0.05647389,1.641041,0.3043784,301.9278,65.66809,185.9476,True
7,1.511114,-0.2337906,0.1335086,0.1462002,4.584989,-4.657707,-1.483813,0.2102784,1.435485,0.3828874,-0.8773896,0.3869313,12.7321,11.97771,0.02464937,-0.1987676,0.1074639,-0.2536613,-0.602545,2.96699,0.3705308,1.504277,0.324357,-0.08577261,-0.07412422,-0.1296022,-1.305079,0.5354946,0.05822229,0.5199774,1.487193,0.2278149,-0.05618315,1.641564,0.3037448,302.2459,65.3135,186.631,True
7,1.522225,-0.1890015,0.1232548,0.1856688,4.584261,-4.654329,-1.482646,0.2102103,1.435808,0.3821714,-0.8730487,0.3900333,12.46684,10.99207,-0.03180288,-0.1393695,0.1420081,-0.2565178,-0.6061386,2.972751,0.3707081,1.504084,0.3239777,-0.06237016,-0.04321901,-0.1319309,-1.306615,0.5361087,0.05800685,0.5201454,1.486971,0.2276647,-0.05581786,1.641919,0.3026286,302.4897,65.37887,186.6665,True
7,1.533336,-0.1602629,0.1330453,0.202633,4.582644,-4.651437,-1.481306,0.210085,1.435916,0.380919,-0.8678528,0.4683491,12.20159,10.19927,-0.06193005,-0.1064362,0.1177508,-0.257052,-0.6061293,2.97441,0.370992,1.504066,0.3236451,-0.0419888,-0.03790423,-0.1182842,-1.307384,0.5358484,0.05785131,0.5201768,1.486798,0.2274303,-0.05561676,1.642065,0.3011519,302.6225,65.52518,186.3424,True
7,1.544447,-0.1220373,0.1726179,0.2076907,4.579658,-4.648631,-1.480869,0.2100757,1.43601,0.3801196,-0.8634309,0.3971195,11.90981,9.342188,-0.06936669,-0.1288263,0.1081912,-0.2582318,-0.5985463,2.968123,0.3712824,1.504237,0.3232858,-0.02909127,-0.01767609,-0.1066697,-1.308137,0.5364013,0.0575629,0.5203212,1.486676,0.2272899,-0.05570243,1.641956,0.2993184,302.6497,65.39146,186.246,True
7,1.555558,-0.1050822,0.1918404,0.1947954,4.575865,-4.646887,-1.479419,0.2104839,1.436818,0.3826377,-0.8584838,0.4459227,11.80371,8.656524,-0.05838171,-0.1554511,0.1411045,-0.2611704,-0.5902099,2.960238,0.371536,1.504329,0.3229477,-0.05028719,0.003614686,-0.09576759,-1.308904,0.5372908,0.05856984,0.520471,1.486569,0.2271495,-0.05615659,1.641655,0.2972132,302.5298,65.00957,186.3073,True
7,1.566669,-0.108253,0.1841697,0.1650117,4.574445,-4.645833,-1.478082,0.2102539,1.436553,0.3811829,-0.8549061,0.32057,12.06897,8.935076,-0.04324812,-0.1564907,0.1718921,-0.2645398,-0.584927,2.955006,0.371408,1.504439,0.3225257,-0.1002819,0.02063068,-0.0877666,-1.309544,0.5381534,0.06108013,0.5206112,1.486489,0.2270143,-0.05691135,1.641151,0.2949379,302.263,64.51306,186.446,True
7,1.577781,-0.1316498,0.1712983,0.1629726,4.573113,-4.643929,-1.475594,0.2100979,1.4365,0.3806674,-0.8499814,0.4454253,12.41379,9.513605,-0.07453486,-0.1160947,0.1391228,-0.2649158,-0.5852,2.957102,0.371185,1.504515,0.3221471,-0.1397718,0.0302234,-0.09480309,-1.310876,0.5389519,0.06366713,0.520741,1.48642,0.2269142,-0.05782399,1.640501,0.2928971,301.644,64.04441,186.0801,True
7,1.588892,-0.1507906,0.162816,0.1800836,4.571989,-4.640975,-1.472904,0.2097504,1.436201,0.3791385,-0.8465763,0.3056296,12.7321,9.985,-0.1498841,-0.01512481,0.08435854,-0.2634394,-0.5966687,2.972406,0.3708781,1.504431,0.3219035,-0.1610299,0.0227525,-0.09033217,-1.311757,0.5390126,0.06622243,0.5207813,1.486346,0.2268598,-0.05878582,1.639973,0.2918704,300.8947,63.64045,185.5894,True
7,1.600003,-0.1251966,0.1555028,0.1897104,4.570725,-4.638383,-1.471958,0.2095578,1.436277,0.3785665,-0.8427925,0.3420419,12.86472,10.17785,-0.1911747,0.04020232,-0.000520654,-0.260316,-0.6037323,2.982758,0.3707166,1.504295,0.3217473,-0.1446192,0.02589951,-0.04895043,-1.310922,0.5393749,0.06701259,0.5208643,1.486338,0.2268708,-0.05963226,1.639461,0.2916347,300.7125,63.25696,186.0759,True
7,1.611114,-0.06758799,0.1227219,0.1888494,4.569557,-4.63643,-1.472417,0.2097809,1.436996,0.3802714,-0.840337,0.2203672,12.91777,10.75637,-0.1830224,0.02645105,-0.06131554,-0.2576065,-0.6014599,2.982351,0.3707272,1.504291,0.3215885,-0.1165786,0.05249161,-0.01511073,-1.309806,0.5408679,0.06696305,0.5209266,1.486266,0.2268326,-0.06028276,1.639057,0.2918213,300.7779,62.67538,187.1881,True
7,1.622225,-0.01001265,0.1057882,0.1782867,4.569076,-4.634677,-1.473894,0.209887,1.437086,0.3797929,-0.8400675,0.02179664,12.91777,11.69916,-0.1261468,-0.07986719,-0.06075636,-0.2579932,-0.5812904,2.962097,0.3711354,1.504227,0.32146,-0.05546457,0.1270287,0.02484918,-1.307914,0.5449275,0.06436088,0.5210691,1.486171,0.2268534,-0.06067779,1.638838,0.2918948,300.9424,62.00018,188.4799,True
7,1.633336,0.00912614,0.1059365,0.1782931,4.566608,-4.632762,-1.473598,0.2102214,1.437938,0.3827446,-0.8397554,0.02737216,12.89124,12.89908,-0.07208355,-0.1500513,0.01443203,-0.2617365,-0.5674147,2.947618,0.3712751,1.504266,0.3212063,-0.0470497,0.1547466,0.01521596,-1.308029,0.5475988,0.06404423,0.5212264,1.486086,0.2268634,-0.06081356,1.63889,0.2917453,300.8675,61.60307,188.9036,True
7,1.644447,-0.00160479,0.131491,0.1813251,4.564528,-4.630405,-1.472892,0.2101658,1.437822,0.3823698,-0.8391354,0.05529429,12.78515,14.07757,-0.07596487,-0.1522552,0.06772295,-0.2646032,-0.5623893,2.943674,0.3712564,1.504251,0.3208337,-0.08492042,0.1281858,-0.04195981,-1.310324,0.5484342,0.06599633,0.5213957,1.486079,0.2268941,-0.06067688,1.639186,0.29171,300.707,61.48377,188.6335,True
7,1.655559,-0.02936253,0.158071,0.1896809,4.562438,-4.627646,-1.471461,0.2096517,1.437822,0.3813198,-0.8358981,0.2945465,12.51989,14.72038,-0.145294,-0.06840638,0.1034457,-0.2662607,-0.5722461,2.957344,0.3713289,1.504169,0.3205729,-0.09146829,0.102645,-0.05790992,-1.311409,0.5488005,0.0671604,0.5215682,1.486105,0.2268965,-0.06032604,1.639504,0.2918275,300.7041,61.49961,188.2077,True
7,1.66667,-0.04744387,0.1495345,0.1961352,4.561308,-4.625096,-1.469929,0.2094631,1.437786,0.380996,-0.8340429,0.1662276,12.51989,15.51318,-0.1754301,-0.0003368706,0.09733679,-0.2667561,-0.5811197,2.968854,0.3713009,1.504026,0.3203416,-0.06777549,0.09196415,-0.03366805,-1.310987,0.549448,0.06698782,0.5217162,1.486032,0.2268775,-0.05998258,1.640013,0.2925268,300.6825,61.30983,187.8946,True
7,1.677781,-0.03552634,0.0908174,0.1752125,4.562797,-4.623765,-1.470042,0.2091132,1.437915,0.3795094,-0.8323305,0.1547869,12.57294,16.3274,-0.1724483,-0.001358226,0.06641921,-0.2663156,-0.5804858,2.970052,0.3712689,1.504034,0.3201416,-0.03524041,0.09295597,0.02139581,-1.308766,0.5504838,0.06589619,0.5217568,1.485893,0.2269301,-0.05970106,1.640557,0.2934349,301.1356,60.91353,188.6165,True
7,1.688892,-0.00777166,0.06956735,0.1636368,4.562022,-4.622395,-1.470613,0.2093482,1.438719,0.3816555,-0.8313404,0.08887481,12.67905,17.0345,-0.1501509,-0.06088062,0.0225217,-0.2654916,-0.5695841,2.960451,0.3713473,1.504072,0.3200591,-0.02881476,0.08975762,0.02452054,-1.308326,0.5513859,0.06577022,0.5218755,1.485828,0.2269793,-0.05961785,1.641127,0.2940062,301.6808,60.49804,189.6523,True
7,1.700003,0.02837039,0.09752387,0.1858116,4.560334,-4.619433,-1.471722,0.2093387,1.438787,0.3811316,-0.8321121,-0.07160998,12.70557,17.20591,-0.1122873,-0.111926,0.0775845,-0.2685068,-0.5594184,2.950539,0.3712648,1.504004,0.3200898,-0.05257694,0.07702122,-0.007208221,-1.309525,0.5519897,0.06710367,0.5218946,1.485744,0.2270353,-0.05958769,1.641562,0.2939158,302.0228,60.26968,190.3589,True
7,1.711114,0.01953138,0.2096685,0.2351356,4.555121,-4.614588,-1.471006,0.2089059,1.438374,0.3786936,-0.8320647,0.00459577,12.62599,17.1202,-0.1133451,-0.1119313,0.07865719,-0.2696589,-0.5554813,2.948016,0.3712696,1.503934,0.3199875,-0.05923375,0.07812201,-0.0327061,-1.310715,0.5530028,0.06774656,0.5219626,1.485646,0.2271316,-0.05962883,1.64184,0.2930239,301.9799,60.36409,190.209,True
7,1.722225,-0.03311405,0.3601102,0.2948833,4.546953,-4.608528,-1.46802,0.2086424,1.438012,0.3778179,-0.832191,-0.01211664,12.46684,16.92736,-0.1662542,-0.1045834,-0.01896747,-0.2665973,-0.5496874,2.946111,0.3713615,1.503986,0.3200016,-0.04234218,0.09626757,-0.04670423,-1.311634,0.554956,0.06723523,0.522045,1.485536,0.2272382,-0.05965378,1.642014,0.2919933,301.5684,60.30488,189.4813,True
7,1.733337,-0.05888156,0.4326987,0.3306212,4.540829,-4.603115,-1.465691,0.2083642,1.437568,0.3758547,-0.8301089,0.1900644,12.28117,16.67023,-0.1694858,-0.09287798,-0.01679958,-0.2666602,-0.5474238,2.945964,0.3714681,1.504009,0.3198638,-0.02539484,0.1186607,-0.05537138,-1.312328,0.5571598,0.06638169,0.5221747,1.485552,0.2272921,-0.05964035,1.64199,0.2908707,301.6125,59.77632,189.7438,True
7,1.744448,-0.06868795,0.5074774,0.3663505,4.533251,-4.596899,-1.463473,0.2082543,1.437255,0.3749132,-0.8274601,0.2402243,11.98939,16.39169,-0.173625,-0.08226693,0.006677781,-0.2676184,-0.5459468,2.946609,0.3716465,1.503858,0.3198214,-0.0008589383,0.1452952,-0.05132473,-1.312626,0.5598267,0.06486768,0.5222788,1.485536,0.227406,-0.0597234,1.641879,0.2893662,301.9045,58.70127,190.8551,True
7,1.755559,-0.06020596,0.5224897,0.3779649,4.52796,-4.591726,-1.462291,0.2081804,1.436865,0.3732233,-0.8276242,-0.01704345,11.61804,16.3274,-0.1639057,-0.1024733,0.01404715,-0.2684813,-0.5397425,2.942049,0.3717815,1.5037,0.3197351,0.01655009,0.123947,-0.01637937,-1.311557,0.5604402,0.06409243,0.5223539,1.485505,0.2274957,-0.05982436,1.641879,0.2875432,301.9938,57.40695,191.9545,True
7,1.76667,-0.04197393,0.4874494,0.3888388,4.524693,-4.58654,-1.461707,0.208015,1.436425,0.3710346,-0.8278835,-0.02336211,11.40584,16.7988,-0.1477831,-0.127985,0.02029933,-0.2694235,-0.5314507,2.935103,0.3718796,1.503454,0.3197773,0.01148755,0.09408052,0.008131921,-1.31063,0.5604441,0.06410868,0.5224181,1.485436,0.2276065,-0.05976221,1.642039,0.285412,301.975,56.41137,192.6527,True
7,1.777781,-0.03129335,0.4789816,0.3920871,4.520186,-4.581475,-1.460782,0.2079185,1.436247,0.3701441,-0.828665,-0.07138997,11.19363,17.20591,-0.1621626,-0.1343516,-0.05950565,-0.2665238,-0.5221455,2.92843,0.3718508,1.503198,0.3199208,-0.002400761,0.08555679,0.003992384,-1.310902,0.5611431,0.06448072,0.5224726,1.485326,0.2277243,-0.05940647,1.642392,0.283226,301.9504,55.56317,193.0032,True
7,1.788892,-0.02386291,0.4886486,0.4005428,4.514922,-4.575974,-1.459724,0.2078028,1.435969,0.3692245,-0.8291773,-0.04633017,10.95491,17.31305,-0.1819069,-0.1620181,-0.1563421,-0.2621168,-0.5078912,2.917459,0.3718559,1.503258,0.3200381,-0.006876492,0.06747683,-0.01729508,-1.311795,0.5613381,0.06466368,0.5226004,1.485246,0.2279158,-0.05873911,1.642822,0.2810054,302.1752,55.07804,193.2111,True
7,1.800003,-0.02922972,0.507884,0.4131979,4.509118,-4.570064,-1.458235,0.2075883,1.435363,0.3674843,-0.8286474,0.04867313,10.71618,17.01307,-0.1774891,-0.1758665,-0.1425372,-0.2617041,-0.4976818,2.909309,0.3719766,1.50332,0.3201199,-0.01378467,0.06648342,-0.06729892,-1.314239,0.5622807,0.0647513,0.5226782,1.485151,0.228158,-0.05789818,1.643234,0.2786515,302.5116,54.8397,193.2037,True
7,1.811115,-0.02917215,0.4855469,0.4080494,4.503895,-4.564873,-1.45644,0.2077735,1.435748,0.3696778,-0.8283416,0.02728882,10.4244,16.30598,-0.1587928,-0.2025069,-0.07344721,-0.2643603,-0.4873726,2.900391,0.3719531,1.503223,0.3200791,-0.02472813,0.07930424,-0.09486586,-1.3162,0.5638036,0.06502481,0.5227768,1.485082,0.2283726,-0.05709156,1.643691,0.2763901,302.7074,54.4776,193.0019,True
7,1.822226,-0.04702353,0.3990484,0.3851937,4.502911,-4.561141,-1.454546,0.207671,1.435569,0.369123,-0.8278325,0.04620363,10.3183,16.54168,-0.1948724,-0.1504986,-0.0241334,-0.2657888,-0.4893164,2.905715,0.3718967,1.50288,0.3199735,-0.03214939,0.09314895,-0.09157,-1.316905,0.565581,0.06512414,0.5227622,1.485033,0.2286606,-0.0563831,1.644141,0.2744098,302.9377,53.92513,193.0268,True
7,1.833337,-0.05100623,0.3060766,0.3442602,4.502997,-4.558638,-1.45355,0.207279,1.435299,0.367754,-0.8272582,0.05206789,10.37135,18.10585,-0.2259772,-0.06435367,-0.006773083,-0.2657281,-0.4982648,2.917904,0.3718417,1.502666,0.3199029,-0.01586339,0.1016298,-0.06189897,-1.316421,0.5669435,0.06436408,0.5227607,1.484972,0.2289002,-0.05578755,1.644554,0.2728167,302.9992,53.25955,193.046,True
7,1.844448,-0.05600471,0.1961034,0.3098384,4.504815,-4.556526,-1.452355,0.2071262,1.435275,0.3676021,-0.8267751,0.04368274,10.5305,20.7628,-0.2271321,-0.0866973,-0.03129801,-0.264796,-0.4911355,2.913618,0.3717823,1.502509,0.3199892,0.01424375,0.1271724,-0.03447177,-1.31566,0.5692918,0.06250625,0.5227618,1.484842,0.2291563,-0.0553067,1.645104,0.2721425,302.7797,52.74414,192.8044,True
7,1.855559,-0.0515033,0.1181846,0.2858438,4.506303,-4.554263,-1.451636,0.2068196,1.435325,0.3667724,-0.8273674,-0.0543898,10.74271,24.4054,-0.2058037,-0.09833258,-0.03465267,-0.2646959,-0.4838543,2.908031,0.371797,1.50238,0.3201327,0.01635228,0.1623326,-0.03551045,-1.316049,0.572493,0.06149985,0.5228507,1.484795,0.229357,-0.0548659,1.645652,0.2721152,303.0046,52.69705,193.0032,True
7,1.86667,-0.007431891,-0.01295602,0.2494155,4.511273,-4.553401,-1.452937,0.2068321,1.43563,0.3667889,-0.8271379,0.02149437,11.19363,28.3694,-0.1623502,-0.09067638,-0.06264623,-0.2632812,-0.4795589,2.90415,0.3718072,1.502316,0.3202291,-0.001886334,0.1879109,-0.04700273,-1.316799,0.5756806,0.06132221,0.5229325,1.484722,0.229558,-0.05451021,1.64608,0.2722367,303.4952,52.87921,193.3639,True
7,1.877781,0.0728645,-0.1375076,0.2235388,4.516791,-4.553233,-1.456882,0.2071452,1.436527,0.3674722,-0.8275688,-0.03968761,11.53846,32.50482,-0.1166904,-0.05215058,-0.0629161,-0.2625259,-0.4819609,2.906206,0.3718622,1.502255,0.3202708,-0.008289933,0.1687422,-0.04909981,-1.317423,0.5769354,0.06129451,0.5230622,1.484628,0.2297294,-0.05424161,1.646345,0.2722142,303.8276,53.00588,193.6228,True
7,1.888893,0.1166778,-0.1832385,0.2153067,4.5207,-4.551536,-1.45946,0.2072135,1.436864,0.3673172,-0.829237,-0.15227,11.67109,36.91879,-0.1069092,-0.07343903,-0.04702377,-0.2630063,-0.4761763,2.90153,0.3718843,1.50228,0.320169,-0.02008693,0.1410532,-0.05754165,-1.318314,0.5775871,0.06176909,0.5231857,1.484602,0.2299237,-0.05409331,1.646489,0.2718041,303.9708,53.07754,193.7884,True
7,1.900004,0.1349316,-0.2291168,0.1975009,4.524781,-4.550201,-1.461411,0.2068158,1.436954,0.3661981,-0.8316274,-0.2174221,11.43236,41.07563,-0.1237166,-0.07992698,-0.01708249,-0.2641142,-0.472659,2.900082,0.3718995,1.502276,0.3200612,-0.03184212,0.1250762,-0.06170826,-1.319117,0.5784844,0.06225938,0.5232904,1.484539,0.2301137,-0.05396182,1.646415,0.2709527,303.7745,53.39186,193.4495,True
7,1.911115,0.1103251,-0.1982758,0.1930541,4.525125,-4.548241,-1.461135,0.2068014,1.437203,0.3677061,-0.8301009,0.1406066,10.82228,43.68974,-0.1588689,-0.05664179,-0.002960534,-0.2645653,-0.4739914,2.904487,0.3718184,1.50233,0.3198447,-0.04569854,0.1165507,-0.06264287,-1.319767,0.579502,0.06302877,0.5234303,1.484527,0.2302694,-0.05389059,1.646087,0.2697765,303.4752,53.79114,192.8327,True
7,1.922226,0.05470852,-0.1249184,0.1957777,4.524168,-4.54584,-1.459323,0.2065282,1.437267,0.3673882,-0.8281935,0.1719423,10.05305,44.6111,-0.1907236,-0.03654642,0.02284979,-0.2654618,-0.4765219,2.910109,0.3717086,1.502369,0.3196912,-0.05207855,0.1144207,-0.06151599,-1.320321,0.5808918,0.06348044,0.52352,1.484535,0.2304561,-0.0540233,1.645469,0.2682363,303.3882,53.95388,192.5618,True
7,1.933337,0.009777565,-0.05366147,0.1973969,4.522801,-4.544238,-1.458039,0.2063222,1.437657,0.367043,-0.8247852,0.3092236,9.28382,44.46111,-0.1851672,-0.006749369,0.07184944,-0.2676754,-0.4818665,2.917017,0.3715723,1.502464,0.3194938,-0.05614026,0.1122605,-0.04230026,-1.320028,0.5820834,0.06390282,0.5235599,1.484563,0.2306314,-0.05452601,1.644631,0.2662804,303.1922,53.96398,192.2613,True
7,1.944448,-0.02465176,0.06359626,0.2232504,4.518591,-4.540308,-1.455825,0.2060738,1.43757,0.3664393,-0.821851,0.2646465,8.514586,43.98971,-0.1957413,-0.007867292,0.08257539,-0.2690027,-0.4828063,2.920407,0.3713542,1.502519,0.3193662,-0.06993957,0.1218355,-0.03681407,-1.320094,0.5838318,0.06472733,0.5236234,1.484487,0.2307968,-0.05530671,1.643762,0.2644625,302.5934,53.54102,191.9399,True
7,1.955559,-0.0419545,0.1542951,0.2524666,4.514646,-4.535986,-1.4541,0.2056153,1.437225,0.3649769,-0.8206478,0.1067315,7.824934,44.28969,-0.2363604,-0.01971823,0.05622158,-0.2688642,-0.4796569,2.921365,0.3712713,1.502458,0.3193412,-0.08479944,0.133532,-0.03132155,-1.32028,0.5856293,0.06570657,0.5236366,1.484454,0.2310431,-0.05629464,1.643175,0.2630062,302.0255,52.84975,192.197,True
7,1.966671,-0.0378166,0.1969907,0.2628292,4.511404,-4.532227,-1.453061,0.2054228,1.437287,0.3644114,-0.8185108,0.1932773,7.559682,44.31112,-0.2550353,-0.04099742,-0.03635323,-0.2655795,-0.4723046,2.917871,0.3712218,1.502346,0.319381,-0.07620244,0.1420474,-0.02394324,-1.320217,0.5875757,0.06578673,0.5236714,1.484387,0.2313364,-0.05724252,1.64296,0.2620004,301.6429,52.15438,192.7371,True
7,1.977782,-0.03147141,0.2129557,0.2595189,4.509356,-4.529182,-1.452417,0.2053036,1.437148,0.3626146,-0.8169023,0.1436268,7.665781,43.90401,-0.2294501,-0.07284148,-0.05148013,-0.2648759,-0.4639987,2.911438,0.3712993,1.502291,0.3193636,-0.03775874,0.1558965,-0.01473453,-1.319957,0.5898213,0.06424423,0.5237256,1.484363,0.231689,-0.05785904,1.642983,0.2613558,301.6786,51.29869,193.6456,True
7,1.988893,-0.02617669,0.2247545,0.2690248,4.506967,-4.525536,-1.451571,0.2052174,1.437324,0.3621449,-0.8149853,0.1721229,8.063659,43.13263,-0.2110155,-0.09517793,-0.01754211,-0.2663071,-0.4581176,2.907445,0.3713737,1.502271,0.3193388,-0.001605663,0.1868102,-0.02038976,-1.320177,0.5930865,0.06217016,0.5237852,1.484281,0.2319751,-0.05811011,1.643129,0.2607554,302.008,50.60144,194.5237,True
7,2.000004,-0.02411087,0.2483175,0.2816622,4.503431,-4.521356,-1.450438,0.2051324,1.437432,0.3626337,-0.8122023,0.250499,8.700266,42.10414,-0.1912374,-0.1548119,0.03552141,-0.2695332,-0.4469955,2.898196,0.3714283,1.502268,0.3193479,0.002510693,0.2028146,-0.03425482,-1.320858,0.5960371,0.06131076,0.5237672,1.48433,0.2321405,-0.0580716,1.64331,0.26002,302.356,50.2057,195.0657,True
7,2.011115,-0.051877,0.2705759,0.2730028,4.499763,-4.518055,-1.44819,0.20501,1.437584,0.3626668,-0.8085916,0.3252509,9.28382,40.86136,-0.1762314,-0.177128,0.03646179,-0.2705623,-0.4376013,2.890652,0.3714381,1.502243,0.3192818,-0.001800586,0.1942959,-0.03955021,-1.321387,0.5978813,0.06107188,0.5238838,1.484266,0.2323828,-0.05788632,1.643398,0.2589073,302.6703,50.01525,195.3343,True
7,2.022226,-0.08601962,0.2863525,0.2579942,4.496413,-4.515191,-1.445497,0.2049063,1.437565,0.3623719,-0.8043705,0.3800862,9.761274,39.66145,-0.1774144,-0.1579545,0.03009366,-0.2707923,-0.4337106,2.888907,0.3713809,1.502232,0.3192234,-0.01688995,0.1666268,-0.05754373,-1.322548,0.5988991,0.06152754,0.5240142,1.484244,0.2325127,-0.05774597,1.643414,0.2575436,302.7022,49.71183,195.2219,True
7,2.033337,-0.1072584,0.2616495,0.2389928,4.494803,-4.512917,-1.443237,0.2045977,1.437598,0.3617213,-0.7986549,0.5160879,10.15915,38.56868,-0.1593847,-0.1312555,0.03319238,-0.2713612,-0.432484,2.888891,0.3713006,1.50222,0.319171,-0.03725228,0.1432054,-0.0701481,-1.323625,0.5998183,0.06236963,0.5240886,1.484151,0.2326419,-0.05778405,1.643353,0.2562611,302.5737,49.21653,195.0257,True
7,2.044448,-0.08047968,0.2104872,0.2233509,4.494393,-4.510867,-1.442791,0.204505,1.437714,0.3615415,-0.7931911,0.4916147,10.39788,37.71159,-0.1553672,-0.0694513,0.0332242,-0.2713548,-0.4372385,2.895067,0.3711446,1.50211,0.3191483,-0.06071362,0.1250932,-0.07206559,-1.324445,0.6007549,0.06372891,0.5242491,1.484054,0.2328546,-0.05811945,1.643266,0.255254,302.4484,48.66914,195.0927,True
7,2.055559,-0.05690664,0.1690274,0.2278867,4.494475,-4.507954,-1.442589,0.2043763,1.437665,0.3598809,-0.7882898,0.4402792,10.55703,37.81873,-0.155522,-0.03855633,0.02899711,-0.2714118,-0.4392053,2.898783,0.3710849,1.502053,0.3192306,-0.06169252,0.1091023,-0.06355931,-1.3248,0.601548,0.06427193,0.5243707,1.484003,0.2330832,-0.05870248,1.643093,0.254525,302.4178,48.2009,195.436,True
7,2.06667,-0.047243,0.1434966,0.2291222,4.494189,-4.505238,-1.441868,0.2043192,1.437715,0.3596246,-0.7844985,0.3389294,10.8488,39.66145,-0.1599106,-0.07262322,-0.008294158,-0.2705516,-0.4307081,2.892495,0.3710874,1.50188,0.3193331,-0.04446926,0.09949497,-0.0467061,-1.324666,0.6023055,0.06398697,0.5243871,1.483924,0.2333021,-0.05948187,1.642758,0.2539044,302.4178,47.86676,195.8669,True
7,2.077781,-0.05579337,0.1573442,0.2343701,4.492345,-4.501823,-1.440254,0.2040805,1.437311,0.3577163,-0.778933,0.5015059,11.19363,42.27555,-0.1609018,-0.112033,-0.01897672,-0.2707274,-0.4204371,2.884503,0.3712194,1.501866,0.319447,-0.0145142,0.1090695,-0.03421776,-1.324566,0.6038476,0.06274008,0.5244119,1.483844,0.2335072,-0.06031419,1.64205,0.2531927,302.4643,47.57817,196.3937,True
7,2.088892,-0.06639749,0.1444931,0.2301999,4.491625,-4.499168,-1.438761,0.2038723,1.436995,0.3562,-0.7717298,0.6494007,11.48541,45.27534,-0.1276026,-0.1598554,-0.006475598,-0.2719982,-0.408377,2.873131,0.3712825,1.501842,0.319509,-0.001603939,0.123969,-0.02154481,-1.324247,0.6057809,0.06181516,0.5244364,1.483756,0.2337542,-0.06122021,1.640888,0.251999,302.5052,47.15422,197.0892,True
7,2.100003,-0.08664194,0.1421352,0.2057223,4.490341,-4.497434,-1.436772,0.2038011,1.43686,0.355942,-0.7639283,0.7027918,11.72414,48.36083,-0.1072885,-0.1800185,-0.006635256,-0.2727466,-0.398707,2.86432,0.3713373,1.501836,0.3195448,-0.01242878,0.1516886,-0.03737,-1.324967,0.6086344,0.06167295,0.5243672,1.483677,0.2339516,-0.06226904,1.639353,0.2502757,302.3406,46.54078,197.7144,True
7,2.111114,-0.0994183,0.1409333,0.1918936,4.48909,-4.495325,-1.434964,0.2035714,1.43646,0.3543289,-0.7565892,0.6600034,11.96286,50.76066,-0.1222202,-0.1481299,0.009472571,-0.2733202,-0.3980094,2.865715,0.3712243,1.501677,0.3194857,-0.01908515,0.1613099,-0.0628574,-1.326453,0.6108084,0.06157521,0.5243945,1.483584,0.2342143,-0.06351586,1.637561,0.2478989,302.1337,45.74477,198.4999,True
7,2.122225,-0.08982958,0.1398671,0.1876354,4.487841,-4.493106,-1.433776,0.203466,1.436499,0.3540857,-0.7484915,0.7297645,12.25464,52.94622,-0.1321791,-0.06613239,0.002170622,-0.2725575,-0.4053844,2.874633,0.371178,1.501431,0.3194187,-0.01510752,0.1517648,-0.09061192,-1.328376,0.6123875,0.06126309,0.5244378,1.483425,0.23441,-0.0649083,1.635608,0.2449724,301.6242,44.97531,198.9471,True
7,2.133336,-0.07696156,0.1120922,0.171844,4.487813,-4.491518,-1.433178,0.2033316,1.436371,0.3529193,-0.7410997,0.6643957,12.46684,54.66039,-0.1270297,-0.07140805,-0.02557333,-0.271603,-0.4003816,2.87113,0.371207,1.501263,0.3194528,0.00305062,0.1347262,-0.086566,-1.329089,0.6134359,0.06037093,0.5245019,1.483293,0.2344735,-0.0663805,1.633638,0.2419278,300.8923,44.17816,199.1602,True
7,2.144447,-0.05029684,0.09819067,0.1527516,4.487345,-4.490354,-1.433224,0.2032932,1.436378,0.3527312,-0.7339917,0.6389768,12.41379,55.56031,-0.06837565,-0.07438336,-0.01852914,-0.2718262,-0.3968976,2.86663,0.3712168,1.501248,0.3195679,0.01072089,0.1208496,-0.06642426,-1.329121,0.6143639,0.05975095,0.5245747,1.483202,0.2346027,-0.0678644,1.631732,0.2389731,300.2458,43.32895,199.5068,True
7,2.155558,-0.03005582,0.09924716,0.1442269,4.48647,-4.488557,-1.43325,0.2031947,1.436035,0.3514144,-0.7264997,0.6740853,11.98939,55.13177,-0.04476701,-0.1062555,-0.01020709,-0.2726619,-0.3890358,2.858899,0.3712086,1.501164,0.3195879,-0.007301905,0.1091155,-0.05880409,-1.329536,0.6153211,0.06018851,0.5246218,1.483146,0.2347627,-0.06927752,1.629948,0.2363656,299.6562,42.50572,199.8867,True
7,2.166669,-0.02790321,0.08957821,0.1315083,4.485929,-4.487398,-1.432776,0.2030891,1.436038,0.3512385,-0.7188634,0.6868049,11.40584,54.5961,-0.05315096,-0.1457021,-0.01232039,-0.2733383,-0.3778418,2.848976,0.3711314,1.501131,0.3195188,-0.05949367,0.09311887,-0.05828855,-1.330142,0.615855,0.06258748,0.5246687,1.483099,0.2348957,-0.07057627,1.628214,0.2341177,299.2248,41.91232,200.2336,True
7,2.17778,-0.03424764,0.07129966,0.1114035,4.486031,-4.486652,-1.431989,0.2029013,1.435805,0.3500578,-0.7106326,0.7409611,10.76923,53.8033,-0.09383129,-0.08195025,-0.004511371,-0.2731168,-0.3826455,2.856217,0.3711232,1.501141,0.3195579,-0.08824731,0.07287081,-0.05802136,-1.33081,0.6160553,0.06447646,0.5246105,1.482975,0.235091,-0.07177269,1.62645,0.2323116,298.9271,41.3938,200.5772,True
7,2.188891,-0.0320881,0.06598264,0.1114049,4.48561,-4.485812,-1.431637,0.2029023,1.436131,0.3504815,-0.7014873,0.8240827,10.18567,52.75337,-0.1066527,-0.04153464,0.01265949,-0.2734545,-0.3866252,2.861611,0.3710615,1.501237,0.319546,-0.06270497,0.07927339,-0.0604119,-1.331562,0.6172675,0.06392679,0.5246234,1.482871,0.2352328,-0.07295649,1.624584,0.2307906,298.786,40.81499,201.1327,True
7,2.200002,-0.01825887,0.07129079,0.1028393,4.484748,-4.484802,-1.43163,0.2028609,1.436146,0.3502831,-0.6923425,0.8231844,9.70822,51.33919,-0.08839107,-0.03296818,0.03917573,-0.2747248,-0.3878194,2.863165,0.3710738,1.501214,0.3195364,-0.03397539,0.1027233,-0.06280743,-1.332239,0.6192777,0.06288229,0.5246928,1.482848,0.2353611,-0.07427546,1.622684,0.2295112,298.5718,40.21796,201.7367,True
7,2.211113,0.01477283,0.06596142,0.09008563,4.484431,-4.483966,-1.432677,0.2027195,1.435699,0.3486912,-0.6839397,0.7552987,9.310343,49.53931,-0.07656281,-0.0318762,0.05614283,-0.2759994,-0.3874471,2.863312,0.3711227,1.501216,0.3195844,-0.02760115,0.1155116,-0.06391525,-1.332799,0.6210632,0.06264847,0.5248438,1.482862,0.2354221,-0.07575082,1.620757,0.2283388,298.261,39.5636,202.4266,True
7,2.222224,0.02224307,0.05951099,0.07840784,4.48406,-4.483419,-1.433052,0.2027036,1.43565,0.3485034,-0.6753787,0.7702204,9.124667,47.91087,-0.05753348,-0.05200923,0.02402904,-0.2755567,-0.3821773,2.858217,0.3710853,1.501194,0.3196387,-0.03081718,0.1101872,-0.06602073,-1.333539,0.6221905,0.06282423,0.5248879,1.482822,0.2355301,-0.07729422,1.61884,0.2273973,297.7849,38.70409,203.1486,True
7,2.233335,0.003108058,0.04666922,0.07958052,4.484222,-4.482272,-1.432201,0.2026342,1.435264,0.3477502,-0.6672252,0.7326805,9.177716,46.23955,-0.04276126,-0.05725035,0.0004820414,-0.2749229,-0.3785715,2.854709,0.3710375,1.501267,0.3196774,-0.04591692,0.07399685,-0.08508921,-1.335062,0.6219054,0.06391454,0.5248173,1.482775,0.2356968,-0.07882544,1.61683,0.2265923,297.557,37.94166,204.0385,True
7,2.244446,-0.03313946,0.0550487,0.07421384,4.483451,-4.481542,-1.430497,0.2025501,1.434981,0.3475211,-0.6572122,0.9029222,9.469496,44.41825,-0.04626918,-0.08063945,-0.05704509,-0.2727706,-0.3693514,2.84642,0.3708712,1.501328,0.3196292,-0.05868331,0.05694627,-0.08391728,-1.335972,0.6220022,0.06494438,0.5247825,1.482721,0.2357945,-0.08033625,1.614545,0.2255719,297.5177,37.3687,204.9254,True
7,2.255557,-0.05657226,0.05721091,0.09019203,4.483084,-4.479813,-1.428777,0.2022526,1.434529,0.3462012,-0.6464664,0.9681532,9.8939,42.48982,-0.06551868,-0.04131506,-0.04514917,-0.2725996,-0.372423,2.850868,0.370706,1.501207,0.3196261,-0.05957584,0.06332154,-0.06685178,-1.33601,0.6231785,0.06532974,0.5247687,1.482669,0.2359324,-0.08187243,1.61198,0.2242774,297.2596,36.63409,205.7375,True
7,2.266668,-0.04599418,0.08614352,0.110229,4.481365,-4.477576,-1.428069,0.202148,1.434408,0.3458567,-0.6357498,0.9651032,10.37135,40.60424,-0.09010553,0.01928935,-0.02360781,-0.2723871,-0.3814595,2.861431,0.3707315,1.501018,0.3196516,-0.03047667,0.07500032,-0.03410928,-1.335174,0.6243954,0.06436807,0.5247492,1.482648,0.2360325,-0.08344211,1.609203,0.2226716,296.8311,35.68336,206.6252,True
7,2.277779,-0.005446291,0.06824888,0.1252431,4.481573,-4.475678,-1.429168,0.2020683,1.434313,0.3448999,-0.6261299,0.8647947,10.82228,38.56868,-0.08147062,-0.0158262,-0.02689863,-0.2724249,-0.3763732,2.857112,0.3708473,1.500851,0.3196945,0.0007762518,0.06856762,0.0007196688,-1.3339,0.6249235,0.06319548,0.5246992,1.482622,0.2361109,-0.08509526,1.606421,0.2208672,296.316,34.50206,207.6758,True
7,2.28889,0.02448291,0.03204378,0.1148246,4.482614,-4.474884,-1.430318,0.202081,1.434348,0.3446686,-0.6173894,0.7852107,11.19363,36.72595,-0.06636811,-0.06264217,-0.02598752,-0.2728366,-0.3678205,2.849094,0.3709878,1.500733,0.3197756,0.01581449,0.06003194,0.01227111,-1.33339,0.6252244,0.06245858,0.5247132,1.482541,0.2362354,-0.08677518,1.603746,0.2188048,295.8639,33.19643,208.9055,True
7,2.300001,0.07579586,-0.03734031,0.07160472,4.485266,-4.475998,-1.433128,0.2021704,1.43448,0.3449616,-0.6090682,0.7472104,11.48541,35.07606,-0.01800194,-0.1168166,0.00450588,-0.2747972,-0.357381,2.837502,0.3709922,1.500581,0.3197973,0.02951073,0.06112356,-0.001714317,-1.333838,0.6260107,0.06158853,0.5247492,1.482414,0.2363043,-0.08830577,1.601179,0.2165782,295.4149,31.8137,210.1088,True
7,2.311112,0.07367721,-0.04602688,0.04929882,4.485926,-4.476133,-1.433751,0.2020589,1.434278,0.3443966,-0.5986051,0.9432034,11.69761,33.44761,-0.01799771,-0.1082993,0.009849641,-0.2753607,-0.3552502,2.835747,0.3710145,1.500698,0.3197761,0.01963253,0.08672203,-0.02927783,-1.335118,0.6279631,0.06124472,0.5248643,1.482277,0.2364419,-0.08962983,1.598582,0.214154,294.9987,30.86407,210.879,True
7,2.322223,0.03432063,-0.06971031,0.03030556,4.487504,-4.476669,-1.432887,0.2019148,1.434018,0.3444002,-0.5892771,0.8376844,12.01592,32.012,-0.03636843,-0.03699741,0.01218248,-0.274974,-0.3624663,2.843737,0.3708114,1.500783,0.3196135,-0.001080202,0.0995714,-0.07378785,-1.33735,0.6298062,0.06164525,0.5250255,1.482213,0.2364841,-0.09080943,1.595848,0.2117071,294.4158,30.15493,211.1852,True
7,2.333334,0.01086467,-0.06451926,0.02069465,4.487958,-4.476741,-1.432209,0.2018925,1.433743,0.3438272,-0.57696,1.112128,12.25464,30.46925,-0.06658854,0.04492578,0.001824865,-0.2737341,-0.3737358,2.85639,0.3705808,1.500802,0.3195078,-0.02267847,0.09534201,-0.1023383,-1.339462,0.6307777,0.06241491,0.5251691,1.482147,0.236562,-0.09202269,1.592869,0.2095079,293.8032,29.64651,211.233,True
7,2.344445,0.02257332,-0.06350799,0.007897947,4.488563,-4.477182,-1.432937,0.2018528,1.433611,0.343761,-0.5648597,1.089941,12.44032,28.73366,-0.08721595,0.07365071,-0.037418,-0.2715157,-0.3784038,2.862588,0.3704707,1.500778,0.3194299,-0.06331979,0.06872323,-0.1179353,-1.341285,0.6307127,0.06468845,0.5252435,1.482257,0.2365746,-0.09350008,1.589696,0.2076423,293.3125,28.71328,211.8672,True
7,2.355556,0.05036305,-0.0954689,-0.003613801,4.490685,-4.47788,-1.434774,0.2017564,1.433482,0.3432419,-0.5548888,0.8958554,12.51989,26.89094,-0.08743293,0.09603541,-0.05656977,-0.269759,-0.3827335,2.867647,0.3705751,1.500666,0.3194649,-0.081137,0.03139262,-0.09117109,-1.34126,0.6297312,0.06632203,0.5251169,1.482213,0.2365673,-0.09520412,1.586434,0.2061791,292.782,27.37527,213.1014,True
7,2.366668,0.08777235,-0.1412991,-0.02249198,4.49374,-4.479254,-1.437391,0.2018859,1.433451,0.343313,-0.5463342,0.7682183,12.49337,25.00535,-0.03903966,-0.01137957,-0.05062518,-0.2705809,-0.3683811,2.852542,0.3706678,1.500693,0.3194695,-0.04650553,0.02279986,-0.03934181,-1.339923,0.6295633,0.06557395,0.5250842,1.482232,0.2365589,-0.09697251,1.583202,0.2050599,292.2895,25.77711,214.7978,True
7,2.377779,0.09851524,-0.1722355,-0.03293202,4.496602,-4.480281,-1.439082,0.2018287,1.433339,0.3430228,-0.5376374,0.782158,12.36074,22.69123,0.0009265095,-0.04111885,0.01085015,-0.2731668,-0.3650979,2.847966,0.3706393,1.500678,0.3195326,-0.009897785,0.03767474,-0.001345667,-1.338583,0.6305639,0.06420083,0.5249758,1.482223,0.2366042,-0.09868626,1.580032,0.2042233,291.8582,24.38519,216.3716,True
7,2.38889,0.0836159,-0.1765106,-0.02863362,4.498664,-4.480743,-1.439567,0.2017676,1.43324,0.3429639,-0.5285885,0.8142054,12.30769,20.86994,0.009391563,-0.02830508,0.009742735,-0.2731711,-0.3664727,2.848998,0.3706293,1.500674,0.3194582,-0.008870391,0.05259402,-0.004530091,-1.338682,0.631721,0.06398164,0.5249358,1.482189,0.2366052,-0.1002815,1.576841,0.2034897,291.4793,23.42974,217.5749,True
7,2.400001,0.03975546,-0.1115438,-0.01413969,4.497502,-4.480114,-1.438277,0.2017199,1.433146,0.3431907,-0.5181835,0.938062,12.36074,19.82001,-0.0123006,0.04193589,-0.007078107,-0.2716499,-0.3755028,2.858482,0.3704838,1.500615,0.3193052,-0.02946563,0.06329408,-0.0383911,-1.340329,0.6330535,0.06483146,0.5248435,1.482145,0.2366099,-0.1017162,1.573519,0.2027841,291.0738,22.65213,218.5246,True
7,2.411112,0.01725202,-0.06469341,-0.008051618,4.496693,-4.479785,-1.437722,0.2016372,1.433087,0.3427925,-0.5077748,0.9377837,12.46684,19.77716,-0.02513539,0.06105527,-0.003771227,-0.2714145,-0.3798662,2.863412,0.3704246,1.500578,0.3193033,-0.02955295,0.05159504,-0.04693072,-1.341084,0.6333107,0.06513506,0.5248705,1.482069,0.2365658,-0.103158,1.570136,0.201991,290.6755,21.6046,219.7011,True
7,2.422223,-0.007364527,-0.02424048,-0.001926561,4.495551,-4.479422,-1.436688,0.2016355,1.433063,0.3425398,-0.4973448,0.9401134,12.62599,20.35569,-0.01628363,0.02803506,0.02489674,-0.2728547,-0.3782617,2.861768,0.3703831,1.500504,0.3193204,-0.01023832,0.02601523,-0.03438436,-1.341077,0.6326711,0.06474011,0.5247793,1.482059,0.2365675,-0.1046019,1.566837,0.2011101,290.2422,19.87152,221.4285,True
7,2.433334,-0.01592415,-0.01146711,0.0001233499,4.495443,-4.479336,-1.436289,0.2016084,1.433214,0.3420489,-0.4895913,0.695802,12.97082,21.89844,-0.01515429,0.002472946,0.01954255,-0.2732424,-0.3747424,2.858427,0.3704084,1.500414,0.3193696,0.01977553,0.02600427,-0.01658561,-1.340644,0.633059,0.06341546,0.5247238,1.482053,0.2365816,-0.1059953,1.563893,0.2002292,289.8714,17.47111,223.7649,True
7,2.444445,-0.02124289,-0.01137945,0.01504003,4.495611,-4.478696,-1.43573,0.2015403,1.433461,0.3418567,-0.4813211,0.7453598,13.50132,24.51253,-0.004693513,-0.034722,-0.02850826,-0.2717703,-0.3663821,2.850063,0.3704655,1.50037,0.3194366,0.05300537,0.03131152,0.003320741,-1.339912,0.6335515,0.06162715,0.5246377,1.482055,0.2365446,-0.1072484,1.561441,0.1993205,289.6089,15.46307,225.8139,True
7,2.455556,-0.02656397,-0.01346016,0.02144198,4.495627,-4.478398,-1.435136,0.2017067,1.434031,0.3428741,-0.4743569,0.6256971,14.27056,28.1337,0.01249848,-0.08365189,-0.03400473,-0.271896,-0.3568136,2.840193,0.3706177,1.500432,0.3193574,0.05938736,0.02812224,0.002175309,-1.340099,0.6338263,0.06078319,0.5247277,1.482139,0.2365792,-0.1082459,1.559508,0.1983882,289.416,13.96149,227.3529,True
7,2.466667,-0.02231204,-0.01025188,0.02141766,4.495697,-4.478143,-1.434971,0.201671,1.434488,0.3428535,-0.467226,0.6421762,15.27851,32.41911,0.01284943,-0.06454024,0.02673825,-0.2742976,-0.359427,2.84255,0.3707224,1.500551,0.3191848,0.04637512,0.02282505,-0.0200707,-1.341071,0.6339623,0.06068012,0.5247109,1.482184,0.2364933,-0.1089894,1.558064,0.1973978,289.2635,13.07308,228.2418,True
7,2.477778,-0.03504232,-0.0295118,0.01410388,4.496585,-4.478363,-1.434265,0.2014624,1.434975,0.3427866,-0.4602459,0.6283991,16.1008,36.34026,0.007026568,-0.04548413,0.118422,-0.2783973,-0.3646765,2.847747,0.3707731,1.500711,0.3190084,0.03342507,-0.003778236,-0.03701855,-1.34205,0.6332324,0.0609776,0.5246361,1.482159,0.2363834,-0.1094338,1.557001,0.1964239,289.0604,12.30118,228.775,True
7,2.488889,-0.05200342,-0.06053517,0.002609048,4.498256,-4.478987,-1.433259,0.2013982,1.435297,0.3428524,-0.4541627,0.5468061,16.68435,39.55432,0.01164207,-0.03487289,0.174864,-0.2820181,-0.3682063,2.85085,0.3707658,1.500822,0.3188639,0.02268017,-0.02400801,-0.0465262,-1.342943,0.6323024,0.06130224,0.5245987,1.482183,0.2362876,-0.1096151,1.556262,0.1957155,288.8284,11.52323,229.1631,True
7,2.5,-0.1937426,-0.04508742,-0.01446263,4.498111,-4.479669,-1.426488,0.2012268,1.4358,0.3432763,-0.4474265,0.6074421,17.1618,42.2327,0.01179472,-0.01147516,0.2089779,-0.2852544,-0.37418,2.856325,0.3706068,1.500836,0.3187828,0.001355596,-0.05596524,-0.04955019,-1.34363,0.6306689,0.06231557,0.5244402,1.482359,0.2361856,-0.1098529,1.555811,0.1952314,288.7601,11.33762,229.206,True
7,2.511111,-0.2351739,-0.08573261,-0.02161385,4.500129,-4.480377,-1.422864,0.2010269,1.436279,0.3434536,-0.4411665,0.5635206,17.55968,44.71823,0.006067395,0.01624081,0.1675039,-0.2853407,-0.3777906,2.859974,0.3705742,1.500879,0.3187625,-0.008182697,-0.06875756,-0.0452049,-1.343965,0.6296011,0.06289055,0.5243323,1.48245,0.2360826,-0.1102625,1.555504,0.1948945,288.7287,11.54346,229.0095,True
7,2.522222,-0.2519833,-0.1689537,-0.03274676,4.504638,-4.481856,-1.419725,0.2008529,1.437194,0.3438199,-0.4300307,1.010041,17.74536,46.47525,0.03750475,0.007922478,0.08844081,-0.2837236,-0.3757864,2.856614,0.3705864,1.501045,0.3187904,-0.007019114,-0.06664103,-0.03562555,-1.344095,0.6289012,0.06310414,0.5241745,1.48251,0.2359715,-0.1107803,1.555169,0.1947021,288.6472,11.6287,228.9013,True
7,2.533333,-0.2282347,-0.2818515,-0.04048958,4.511059,-4.483425,-1.418395,0.2009445,1.438392,0.344831,-0.4277005,0.201473,17.71883,47.09663,0.07192732,-0.05374304,0.1019823,-0.2860341,-0.3685145,2.84773,0.3707095,1.501188,0.3188093,0.01865658,-0.04321143,-0.02413565,-1.343975,0.6292623,0.06199333,0.5240464,1.482506,0.2358236,-0.1114946,1.555107,0.1947771,288.4385,10.58574,229.8653,True
7,2.544444,-0.2142819,-0.3245192,-0.05510824,4.515866,-4.485329,-1.416855,0.2010239,1.439289,0.3451765,-0.4237425,0.3576807,17.42706,46.77523,0.07982014,-0.09104402,0.1434403,-0.2895708,-0.364164,2.842507,0.3708631,1.501267,0.3187051,0.03796016,-0.03470188,-0.0115379,-1.343685,0.6291364,0.0609523,0.5238895,1.482535,0.2357364,-0.1121815,1.555374,0.1951376,288.1814,10.19604,230.3624,True
7,2.555555,-0.2153536,-0.3309413,-0.06253591,4.519081,-4.487423,-1.415003,0.2011435,1.440506,0.3463552,-0.4208689,0.2563905,16.92308,45.68245,0.08339839,-0.0783044,0.2052115,-0.2936407,-0.3674012,2.844612,0.3709099,1.501412,0.3185692,0.04657535,-0.03364459,-0.003105346,-1.343489,0.628746,0.06017998,0.5237795,1.482586,0.2357247,-0.1126989,1.555893,0.1957321,287.84,10.45646,230.2699,True
7,2.566666,-0.2365694,-0.337502,-0.07211857,4.523043,-4.489008,-1.412028,0.2009943,1.44131,0.3467178,-0.4159155,0.4473848,16.4191,44.09685,0.06982327,-0.03793961,0.2671263,-0.2979981,-0.3754277,2.852006,0.3707892,1.50152,0.3184028,0.03152856,-0.034697,-0.015738,-1.344166,0.6283268,0.06046814,0.5236936,1.482644,0.2356713,-0.1129131,1.556464,0.1965284,287.5355,11.37717,229.521,True
7,2.577777,-0.2684633,-0.3578343,-0.07412051,4.527223,-4.491138,-1.408526,0.2007088,1.442624,0.3481636,-0.410578,0.4807575,15.88859,42.27555,0.02055687,-0.0008278042,0.2504647,-0.2998682,-0.3814186,2.859126,0.3706597,1.501644,0.3181887,0.002595918,-0.04959515,-0.03250742,-1.34516,0.6273292,0.06161276,0.5235834,1.482668,0.2356114,-0.1130296,1.556972,0.19741,287.3903,12.20541,228.8135,True
7,2.588888,-0.3004535,-0.3493705,-0.06989582,4.530689,-4.49242,-1.404277,0.2005178,1.4435,0.3485315,-0.4045981,0.5393859,15.33157,40.1757,0.004327074,0.03215051,0.2335695,-0.3013644,-0.3877247,2.865683,0.3705693,1.501833,0.318064,-0.02426487,-0.05915369,-0.05461844,-1.346485,0.6264743,0.06289934,0.5234274,1.482738,0.235522,-0.1132501,1.557408,0.1984013,287.2733,12.61113,228.4568,True
7,2.599999,-0.3303448,-0.32159,-0.04449754,4.533392,-4.49239,-1.399655,0.2004197,1.44425,0.3482258,-0.3990257,0.5016343,14.74801,37.84016,0.02335435,0.05886242,0.2270665,-0.3030933,-0.3950949,2.871729,0.3706405,1.502127,0.318028,-0.03504995,-0.05700743,-0.06728807,-1.347724,0.6259851,0.06376699,0.5232851,1.482777,0.2354317,-0.1137647,1.557795,0.1993809,287.0948,12.84908,228.3268,True
7,2.61111,-0.3485682,-0.2789527,-0.03199521,4.535213,-4.492587,-1.395347,0.2004505,1.44513,0.3483577,-0.393506,0.4971601,14.13793,35.4189,0.04597411,0.01631688,0.2385797,-0.306434,-0.3928317,2.868204,0.370915,1.502231,0.3180542,-0.02105201,-0.06554981,-0.05252571,-1.34776,0.6249633,0.06377951,0.5231335,1.482846,0.2352774,-0.1145582,1.558217,0.2004215,286.8005,12.73703,228.528,True
7,2.622221,-0.3732412,-0.2182078,-0.01855358,4.535593,-4.492413,-1.390298,0.2005758,1.446099,0.3485405,-0.3883661,0.4623672,13.5809,33.25476,0.06858267,-0.06241789,0.2287531,-0.3094838,-0.3843742,2.858607,0.3712177,1.502319,0.3180325,0.009177148,-0.08583824,-0.01451559,-1.346766,0.6231787,0.0630546,0.5229608,1.482907,0.2351832,-0.1154084,1.558667,0.2013771,286.6874,12.65671,228.9854,True
7,2.633332,-0.3839644,-0.1937725,-0.02296964,4.536954,-4.492994,-1.385862,0.2004831,1.447313,0.3486037,-0.3835703,0.4311419,13.07692,31.09064,0.08839998,-0.1114141,0.2924832,-0.3152597,-0.380293,2.85309,0.3715185,1.502482,0.3179662,0.03302892,-0.08802747,0.02572563,-1.345179,0.621922,0.0622458,0.5227919,1.482884,0.2351017,-0.1158893,1.559186,0.2016316,286.8334,12.08119,229.7897,True
7,2.644443,-0.3860356,-0.2140024,-0.02069643,4.539901,-4.493711,-1.381619,0.2002085,1.448558,0.349014,-0.3777561,0.5244435,12.7321,28.92651,0.1058082,-0.1145946,0.3424279,-0.3209439,-0.3810982,2.852099,0.3716959,1.502684,0.3178833,0.04162769,-0.07100017,0.03311724,-1.344668,0.6215612,0.06154379,0.5227243,1.482912,0.2350521,-0.1161068,1.559772,0.2014335,286.6433,11.92535,230.0957,True
7,2.655554,-0.3944933,-0.2385749,-0.026902,4.543421,-4.494765,-1.377199,0.1999535,1.449695,0.3490264,-0.3727658,0.4479671,12.54642,26.82665,0.09951979,-0.1135705,0.357392,-0.3255214,-0.3818356,2.851943,0.3716919,1.502966,0.317749,0.02230393,-0.06565356,0.01948038,-1.344889,0.6210975,0.06213314,0.5225961,1.482873,0.2350857,-0.116175,1.560541,0.2010483,286.4238,11.438,230.5095,True
7,2.666665,-0.4147457,-0.2376947,-0.04500905,4.545782,-4.49637,-1.372186,0.1997066,1.450798,0.3494749,-0.3673655,0.4861329,12.49337,24.89822,0.06315628,-0.1009146,0.344879,-0.3289047,-0.3827137,2.853434,0.371599,1.503345,0.317589,-0.01767907,-0.05706283,-0.03549771,-1.34724,0.6208541,0.06365008,0.5225514,1.482927,0.2350454,-0.1163189,1.561589,0.2005405,286.1914,11.27804,230.4486,True
7,2.677776,-0.4541648,-0.2411742,-0.06945787,4.548154,-4.498394,-1.366133,0.1995701,1.452051,0.3502715,-0.3613121,0.5452418,12.46684,23.09835,0.05026698,-0.06687877,0.3482028,-0.3326475,-0.3874367,2.857738,0.371545,1.50351,0.3174055,-0.03417123,-0.06764583,-0.08541501,-1.34996,0.6198977,0.06481016,0.5224972,1.482907,0.2350497,-0.1165895,1.562802,0.2000652,285.9328,11.78607,229.7015,True
7,2.688887,-0.4690256,-0.2700659,-0.08842625,4.551064,-4.500712,-1.360518,0.1997065,1.453694,0.3533735,-0.3546217,0.6029182,12.49337,21.59846,0.03624472,-0.03070579,0.3440676,-0.3358417,-0.3932874,2.863342,0.3714626,1.503692,0.3173571,-0.04402119,-0.07080616,-0.1108846,-1.351942,0.6190928,0.06571776,0.5224347,1.482824,0.2350049,-0.1169772,1.564023,0.1997126,285.7228,12.56381,228.745,True
7,2.699998,-0.4421177,-0.3757504,-0.1303108,4.557996,-4.504969,-1.357102,0.1995909,1.454884,0.3535728,-0.3475271,0.639631,12.49337,20.41997,0.04043275,-0.02535525,0.3365864,-0.3391834,-0.3958772,2.865188,0.3713825,1.503919,0.317276,-0.0568544,-0.05801696,-0.1149927,-1.353282,0.6190373,0.06681152,0.5223391,1.482865,0.2349448,-0.1174442,1.565166,0.1996808,285.5092,12.87547,228.1911,True
7,2.711109,-0.409963,-0.4450586,-0.1522176,4.564497,-4.508742,-1.354394,0.1993592,1.456212,0.3545101,-0.3419653,0.4992256,12.54642,19.56289,0.08612344,-0.04645944,0.3085423,-0.3418316,-0.3942546,2.861083,0.3712549,1.50411,0.3172274,-0.0718244,-0.02605759,-0.1190544,-1.354655,0.6199377,0.06791434,0.5221766,1.482938,0.2349007,-0.1178482,1.56626,0.2002855,285.0978,12.34686,228.2763,True
7,2.72222,-0.383114,-0.5250918,-0.1836679,4.57217,-4.514008,-1.352016,0.1994665,1.457666,0.355685,-0.3380324,0.3515198,12.57294,19.00578,0.08916551,-0.07624105,0.2701387,-0.3439856,-0.3901093,2.856046,0.371129,1.504275,0.3171914,-0.07152445,-0.001600912,-0.08919057,-1.354633,0.6207835,0.06850769,0.5219564,1.48296,0.2348483,-0.1181403,1.567391,0.2019325,284.6148,12.16713,228.1779,True
7,2.733331,-0.3948218,-0.5379734,-0.202801,4.576597,-4.518644,-1.347621,0.199815,1.459902,0.3606293,-0.3330017,0.4528838,12.51989,18.64153,0.09875602,-0.08685085,0.2647318,-0.3470157,-0.3888968,2.853578,0.3711379,1.504675,0.3170929,-0.06900598,0.01645279,-0.05083475,-1.353799,0.6214824,0.06901688,0.5217439,1.482958,0.2347786,-0.1187363,1.568507,0.2042412,284.4001,14.0126,226.8651,True
7,2.744442,-0.4002078,-0.5177859,-0.2082646,4.580951,-4.522243,-1.343509,0.1996595,1.460972,0.3615239,-0.3271592,0.5261998,12.46684,18.53439,0.08509058,-0.04327822,0.314942,-0.3517823,-0.3961172,2.859898,0.3709679,1.504923,0.3169367,-0.08450385,0.02596422,-0.003784824,-1.352107,0.6220132,0.07036844,0.5215091,1.483016,0.2347674,-0.1195977,1.569377,0.2068947,284.3211,16.05887,225.5301,True
7,2.755553,-0.4034944,-0.4782723,-0.1914927,4.584321,-4.524661,-1.339346,0.1992029,1.462177,0.3619657,-0.3193407,0.7064605,12.44032,18.72723,0.0691627,0.006688729,0.3502614,-0.3562346,-0.4051283,2.868207,0.3708293,1.50496,0.3166997,-0.1067726,0.03127091,0.007107433,-1.351773,0.6225501,0.07232639,0.5213524,1.482978,0.2346995,-0.1204655,1.569825,0.2098723,283.9306,16.68379,225.1155,True
7,2.766664,-0.4120671,-0.4590635,-0.183099,4.588173,-4.527356,-1.334836,0.1990724,1.463242,0.3628163,-0.3138589,0.4914977,12.49337,19.15577,0.06689233,0.05248246,0.3556505,-0.3596354,-0.4144092,2.876256,0.3707249,1.505052,0.3165894,-0.09394957,0.0270032,0.01016627,-1.351595,0.6225827,0.07279991,0.5210755,1.482938,0.2346869,-0.1212945,1.570121,0.2136391,283.384,15.4855,226.2235,True
7,2.777775,-0.4153579,-0.4164781,-0.1866445,4.590691,-4.530911,-1.331023,0.1990877,1.464676,0.3638752,-0.3085901,0.4742545,12.65252,19.6486,0.08258507,0.03342162,0.3043904,-0.3610895,-0.4144728,2.87481,0.3706686,1.505329,0.3165302,-0.0704862,0.03127118,0.01312862,-1.351309,0.623123,0.07266834,0.5208737,1.48287,0.2346926,-0.1225272,1.570547,0.2176145,283.363,15.22438,227.3856,True
7,2.788886,-0.4058561,-0.3888164,-0.1932226,4.593734,-4.534042,-1.327173,0.198821,1.465509,0.3635743,-0.3030038,0.5033825,12.78515,20.09856,0.08499807,-0.06030481,0.2925602,-0.3648925,-0.405227,2.865067,0.3706401,1.505525,0.3164556,-0.03961626,0.04726244,0.01070245,-1.351198,0.6242033,0.07172825,0.5206028,1.482892,0.2347329,-0.1235286,1.571323,0.2205897,283.8233,14.56665,228.7545,True
7,2.799997,-0.3899156,-0.3748994,-0.19013,4.596811,-4.536896,-1.323733,0.1986803,1.46669,0.3643405,-0.2985057,0.4037329,12.86472,20.48425,0.09049469,-0.08160903,0.30528,-0.3690555,-0.4035717,2.86239,0.3705975,1.505787,0.3164296,-0.03364825,0.0643706,-0.02981671,-1.352811,0.6256917,0.07154742,0.5204821,1.482924,0.2347305,-0.1242742,1.572115,0.2220678,284.0428,13.8482,229.734,True
7,2.811108,-0.3697312,-0.3641,-0.1827405,4.599509,-4.539327,-1.320227,0.1987454,1.468203,0.3666942,-0.2937925,0.4245748,12.91777,20.78423,0.1084367,-0.07832377,0.2827908,-0.3715674,-0.4040319,2.860996,0.3705181,1.506119,0.3162796,-0.0543817,0.05058364,-0.07862987,-1.355332,0.6259018,0.07276528,0.520362,1.482931,0.2347021,-0.1250121,1.572961,0.2228421,283.4861,14.96293,228.9093,True
7,2.822219,-0.3516377,-0.3598383,-0.1902358,4.602679,-4.542597,-1.317254,0.1985652,1.469497,0.3675907,-0.2896534,0.3718695,12.81167,21.08421,0.1321872,-0.08999017,0.3209638,-0.3765289,-0.4041251,2.858855,0.3704331,1.5065,0.3162014,-0.07585017,0.01332064,-0.09550963,-1.357009,0.6249448,0.07456478,0.5201937,1.482922,0.2346509,-0.1258597,1.573844,0.2233588,282.9943,16.53585,227.6501,True
7,2.83333,-0.3409739,-0.3673303,-0.1976313,4.606502,-4.546058,-1.314047,0.1982157,1.470458,0.3670557,-0.2852901,0.3929899,12.59947,21.01993,0.1345792,-0.1027991,0.3507575,-0.3817151,-0.4035688,2.856734,0.3702984,1.506662,0.3160834,-0.07895599,-0.01226248,-0.08805992,-1.357681,0.6239383,0.07564762,0.5200229,1.48292,0.2346067,-0.1264675,1.57468,0.2238813,282.6039,16.58556,227.3461,True
7,2.844441,-0.347325,-0.3834091,-0.2092357,4.610482,-4.549979,-1.310389,0.1979319,1.471693,0.3679783,-0.2814951,0.3409254,12.30769,20.97707,0.09717184,-0.07311484,0.3499853,-0.3854505,-0.4070315,2.860188,0.3700199,1.506849,0.3159876,-0.08081891,-0.0240203,-0.06248997,-1.357497,0.6232058,0.07678,0.5198259,1.482925,0.2345903,-0.1268234,1.57553,0.2248162,282.1793,16.05915,227.4176,True
7,2.855552,-0.3622124,-0.3951825,-0.2091384,4.614706,-4.553441,-1.306049,0.1975815,1.472771,0.3679943,-0.2773352,0.3750372,11.96286,21.04135,0.07872212,-0.03480646,0.322448,-0.3874511,-0.4112428,2.863851,0.3696439,1.507102,0.3159819,-0.08404775,-0.01123814,-0.06563175,-1.358296,0.6236283,0.07761144,0.5195202,1.482928,0.2346325,-0.127352,1.576512,0.2261232,281.9949,16.63715,226.9554,True
7,2.866663,-0.3781554,-0.4111834,-0.2047449,4.619128,-4.556699,-1.30153,0.1973525,1.473977,0.3687143,-0.2731397,0.37813,11.56498,21.29848,0.09018636,-0.0357894,0.2861475,-0.3895246,-0.411481,2.862684,0.3692653,1.507395,0.3159351,-0.09908934,-0.01122966,-0.07826257,-1.359658,0.6235487,0.07917072,0.5191643,1.482957,0.2346892,-0.1281597,1.577561,0.2275148,281.9503,17.96517,226.1126,True
7,2.877774,-0.3972898,-0.4250563,-0.2003771,4.623558,-4.560133,-1.296756,0.1970742,1.475346,0.3696218,-0.2690789,0.3659948,11.24668,21.7913,0.08597055,-0.04326005,0.2882922,-0.3927971,-0.4119776,2.862291,0.3689943,1.507657,0.3159688,-0.1066881,-0.01333981,-0.09203605,-1.361138,0.6234294,0.08063412,0.5188487,1.482903,0.2347097,-0.1289663,1.577901,0.2281131,282.0768,15.12117,228.6261,True
7,2.888885,-0.4036096,-0.4453113,-0.2002932,4.628415,-4.564509,-1.292773,0.197086,1.477151,0.3707366,-0.2657441,0.2998895,11.00796,22.39126,0.0796003,-0.05713284,0.2840658,-0.396208,-0.4113747,2.861142,0.3687935,1.507742,0.3159754,-0.1014873,0.01331287,-0.1037724,-1.362648,0.6246793,0.08127781,0.5184797,1.482849,0.2347531,-0.1295901,1.578276,0.228309,281.8134,13.32609,230.1283,True
7,2.899997,-0.4227863,-0.4464974,-0.2098637,4.632513,-4.568488,-1.287747,0.1968708,1.478488,0.3716767,-0.2625642,0.2864022,10.74271,23.09835,0.07538787,-0.07951856,0.2776821,-0.3994502,-0.4090954,2.858252,0.3686892,1.507981,0.3159108,-0.05553124,0.05698124,-0.08819985,-1.362932,0.6269062,0.07986288,0.5180904,1.48279,0.2348506,-0.1301106,1.57872,0.2283505,281.3257,11.58676,231.5064,True
7,2.911108,-0.4708033,-0.4201116,-0.226044,4.635237,-4.573007,-1.281288,0.1967234,1.480109,0.372865,-0.2604923,0.1852846,10.4244,23.95543,0.08109418,-0.1338556,0.3020835,-0.4045299,-0.403609,2.852093,0.3685291,1.508272,0.3158207,-0.01703772,0.09531847,-0.07362963,-1.363221,0.6291748,0.07830093,0.5177693,1.482795,0.2349739,-0.1306681,1.579381,0.2284812,280.8932,9.697371,232.957,True
7,2.922219,-0.5005908,-0.4351317,-0.229122,4.639573,-4.577106,-1.27497,0.1962742,1.481696,0.373924,-0.2569221,0.3232175,10.07958,24.98393,0.1016801,-0.1380864,0.3488088,-0.410309,-0.4032328,2.849923,0.3682137,1.50846,0.3157196,-0.01374007,0.1198052,-0.06297293,-1.363411,0.6314209,0.07785352,0.5174541,1.482769,0.2349813,-0.1312329,1.580068,0.2286555,280.3171,6.467001,235.5845,True
7,2.93333,-0.5079503,-0.466055,-0.2310878,4.64485,-4.582012,-1.269698,0.1958966,1.483392,0.3749971,-0.252857,0.3672221,9.681698,25.73388,0.1037509,-0.1306183,0.3434757,-0.4140672,-0.4032473,2.848652,0.3678859,1.508762,0.3155935,-0.02855235,0.1027405,-0.05325828,-1.363663,0.6319032,0.07872783,0.5171027,1.482767,0.2349646,-0.1318839,1.580703,0.2289044,279.8645,2.951818,238.5065,True
7,2.944441,-0.4897093,-0.5117811,-0.22652,4.651197,-4.586443,-1.265192,0.1954041,1.485141,0.3760574,-0.2505944,0.20243,9.310343,26.39811,0.09478652,-0.09758121,0.2988292,-0.4157349,-0.4046913,2.849224,0.3673269,1.509244,0.3155096,-0.07125529,0.05160797,-0.06354875,-1.364769,0.6307552,0.08128554,0.5167665,1.482772,0.2349763,-0.1326855,1.581441,0.2292895,279.5681,358.1444,242.6776,True
7,2.955552,-0.474729,-0.5394338,-0.2241817,4.657174,-4.59065,-1.260681,0.1949312,1.486181,0.3756452,-0.2492841,0.1164802,8.992041,27.06235,0.07752469,-0.09762038,0.266995,-0.4177972,-0.4031813,2.847506,0.3667194,1.509667,0.3154173,-0.1143105,0.01118117,-0.1068446,-1.367557,0.6297457,0.08429997,0.5164378,1.482837,0.2349505,-0.1335469,1.582224,0.2296506,279.3166,352.8507,247.3481,True
7,2.966663,-0.4821858,-0.5437159,-0.2219966,4.662355,-4.594696,-1.255146,0.194556,1.487326,0.3751783,-0.2477145,0.1408347,8.673739,27.76945,0.05301049,-0.05726087,0.2874559,-0.4214804,-0.4074048,2.85159,0.3661928,1.510006,0.3153498,-0.1285186,0.009098042,-0.1418586,-1.370154,0.6301053,0.08599027,0.5160261,1.482852,0.2350278,-0.134376,1.582957,0.229926,279.0334,347.8719,251.7219,True
7,2.977774,-0.478996,-0.5426937,-0.2294626,4.667116,-4.599178,-1.250177,0.1942652,1.48893,0.3760009,-0.2451578,0.2305686,8.381961,28.6051,0.04447195,-0.06048164,0.283246,-0.4245004,-0.4078519,2.851755,0.3657405,1.510432,0.3152039,-0.1211728,0.01231228,-0.1525831,-1.372186,0.6305258,0.08700787,0.5155637,1.482835,0.2350986,-0.1351182,1.583461,0.2300729,278.8732,343.571,255.5816,True
7,2.988885,-0.485346,-0.5684721,-0.2569593,4.672743,-4.604876,-1.244726,0.1939057,1.490424,0.3763735,-0.2414187,0.3379459,8.249334,29.09792,0.02752197,-0.1052731,0.271602,-0.4277846,-0.4031877,2.847668,0.3653436,1.510678,0.3149402,-0.09126186,0.03148316,-0.1443371,-1.373353,0.6316473,0.08669814,0.5149453,1.482822,0.2351775,-0.1356219,1.583805,0.2299641,278.7151,340.6212,258.4262,True
7,2.999996,-0.488479,-0.5930713,-0.2695712,4.678612,-4.610452,-1.239442,0.1934101,1.492151,0.3772573,-0.2391215,0.205317,8.249334,29.31219,0.01148,-0.09680842,0.2674623,-0.4306704,-0.4033192,2.848261,0.3649526,1.510998,0.3147213,-0.06211433,0.08044259,-0.1051399,-1.372826,0.634315,0.0859189,0.5144356,1.482834,0.2352064,-0.1360604,1.584207,0.2296887,278.406,337.1614,261.8038,True
7,3.011107,-0.4862971,-0.611199,-0.2737743,4.684579,-4.616358,-1.234448,0.1931929,1.494133,0.3784215,-0.2359156,0.2896265,8.355438,29.35505,0.03525969,-0.0914446,0.3195021,-0.4361528,-0.4055061,2.848998,0.3645517,1.511435,0.3144274,-0.04687144,0.1389919,-0.07111976,-1.372277,0.6378173,0.08537109,0.5140126,1.482847,0.2352676,-0.1366877,1.584723,0.2295948,278.1362,332.2201,266.3645,True
7,3.022218,-0.4905152,-0.6249853,-0.2630238,4.690701,-4.621236,-1.228987,0.1925937,1.495857,0.3792927,-0.2331523,0.2480513,8.461537,29.29076,0.01526126,-0.114978,0.3409243,-0.441265,-0.4038379,2.847891,0.3639212,1.511828,0.3141704,-0.0659187,0.15388,-0.05811637,-1.372264,0.6401052,0.08623422,0.5135396,1.482868,0.2352762,-0.1374969,1.585434,0.229569,277.735,325.6337,272.2885,True
7,3.033329,-0.4979632,-0.6291837,-0.2480494,4.696776,-4.625534,-1.223179,0.1919482,1.497218,0.3789532,-0.2304242,0.2452055,8.56764,28.75508,0.0001847446,-0.1160779,0.3175942,-0.4440874,-0.402676,2.847455,0.3633841,1.512215,0.3139639,-0.09476222,0.1357789,-0.06636765,-1.373283,0.641036,0.0881003,0.5130138,1.482922,0.2353036,-0.1384787,1.586053,0.2297485,277.7501,318.8364,278.3608,True
7,3.04444,-0.50328,-0.6312699,-0.2395093,4.702609,-4.630152,-1.217474,0.1913787,1.49884,0.3796933,-0.2268454,0.3228373,8.700266,27.96229,-0.04374763,-0.1055634,0.2870191,-0.4465477,-0.4021538,2.848827,0.362529,1.512589,0.3136516,-0.1237034,0.0569632,-0.08643103,-1.375061,0.6391059,0.09073097,0.5124329,1.483002,0.2353141,-0.1395111,1.586631,0.2301863,278.136,313.3738,283.0716,True
7,3.055551,-0.5108225,-0.6237443,-0.2417153,4.706662,-4.635241,-1.211027,0.1913367,1.501066,0.3842652,-0.2231894,0.3291755,8.806365,26.99807,-0.06846087,-0.07367856,0.2744337,-0.4489402,-0.4045536,2.852499,0.3617098,1.512844,0.3133459,-0.1259049,0.03354113,-0.09390309,-1.376369,0.63898,0.09219624,0.5118352,1.482983,0.2353518,-0.1404361,1.587293,0.230458,278.4058,308.442,287.4235,True
7,3.066662,-0.5140561,-0.6185707,-0.2576848,4.712197,-4.640728,-1.20506,0.1905935,1.502425,0.3832152,-0.2197864,0.3058416,8.912464,26.03386,-0.09966183,-0.02797382,0.2565916,-0.4508971,-0.4087426,2.858423,0.3608095,1.513264,0.312988,-0.122665,0.04205566,-0.08966058,-1.37712,0.6398451,0.09321756,0.5112553,1.482999,0.2353966,-0.1411928,1.587773,0.2303246,278.6006,303.7054,291.9051,True
7,3.077773,-0.5193781,-0.6196286,-0.2544786,-1.565507,-4.645809,-1.199078,0.1899092,1.504091,0.3839841,-0.2154092,0.3950648,8.992041,25.45532,-0.1263248,-0.008898452,0.2621237,-0.453694,-0.4117917,2.863355,0.3599561,1.513795,0.312979,-0.1173406,0.06762509,-0.08860759,-1.377851,0.6416179,0.09406392,0.5106755,1.482949,0.2353504,-0.141963,1.588278,0.230267,278.6171,297.6132,297.3051,True
7,3.088884,-0.520396,-0.6356049,-0.252227,-1.559275,-4.651073,-1.193163,0.1891444,1.505837,0.3845949,-0.2120057,0.3051728,9.098145,24.91965,-0.1242277,0.01027527,0.2674586,-0.4566384,-0.4152401,2.867717,0.3591586,1.5142,0.3127162,-0.1120625,0.09000003,-0.09289394,-1.378927,0.6434374,0.09479389,0.5100559,1.482926,0.2354667,-0.1430875,1.588825,0.2309491,279.2,293.6262,300.1374,True
7,3.099995,-0.5256614,-0.6773573,-0.2475538,-1.548478,-4.656995,-1.186578,0.1873984,1.504228,0.3709388,-0.2080781,0.3537058,9.204244,24.29826,-0.09985653,-0.006627478,0.2395803,-0.4586885,-0.4158507,2.868525,0.3582409,1.514958,0.312376,-0.07701579,0.1807404,-0.2028337,-1.384375,0.6493097,0.09334859,0.5094926,1.482924,0.2356508,-0.1442218,1.589524,0.2314394,279.8869,291.001,302.1488,True
7,3.111106,-0.4884267,-0.6986709,-0.2644333,-1.541935,-4.663547,-1.18144,0.1871318,1.505832,0.3710418,-0.20402,0.3651232,9.310343,23.54832,-0.09992349,-0.02046427,0.2225275,-0.4608099,-0.4152888,2.869154,0.3574701,1.51536,0.3120689,-0.07358386,0.1968315,-0.2827581,-1.389931,0.6524342,0.09364314,0.5088961,1.482895,0.2357287,-0.1452467,1.590041,0.2314789,280.4222,287.4637,305.2456,True
7,3.122217,-0.4265324,-0.7345918,-0.2450423,-1.533958,-4.668942,-1.178692,0.1864729,1.507327,0.3715005,-0.1991491,0.4392429,9.442968,22.75552,-0.1203456,0.04551831,0.2333992,-0.4628228,-0.4234355,2.8786,0.356382,1.515747,0.3117387,-0.1194343,0.1701894,-0.2876541,-1.393208,0.653797,0.09626768,0.5081036,1.482864,0.2357683,-0.1459424,1.59039,0.2308974,281.007,286.3492,307.1253,True
7,3.133328,-0.4104515,-0.7569836,-0.2503372,-1.526116,-4.675947,-1.174751,0.1858565,1.509125,0.3719049,-0.1962009,0.2627189,9.575595,21.72702,-0.1287253,0.07954189,0.2729057,-0.4665991,-0.4307923,2.886931,0.3554071,1.515858,0.3111718,-0.1445084,0.1317573,-0.2416458,-1.394253,0.6540304,0.09857851,0.5072777,1.482908,0.2357631,-0.1454449,1.590571,0.2282849,280.6039,281.8603,314.0376,True
7,3.144439,-0.3987208,-0.7612225,-0.2513776,-1.519207,-4.681946,-1.170389,0.1851575,1.510531,0.3723109,-0.1941679,0.1808269,9.70822,20.80565,-0.1263506,0.07845116,0.3069783,-0.4709822,-0.4353495,2.892304,0.3544139,1.516307,0.3108275,-0.1460959,0.1178281,-0.1894484,-1.394531,0.6549366,0.1001274,0.5064012,1.482932,0.2357211,-0.1450611,1.59091,0.2254473,279.8047,266.0773,330.3466,True
7,3.15555,-0.3603039,-0.774826,-0.229993,-1.511551,-4.687034,-1.167246,0.184255,1.51178,0.3727219,-0.1884799,0.5149323,9.787797,20.11999,-0.151056,0.0858614,0.2826544,-0.4725822,-0.4393268,2.898482,0.353497,1.51664,0.3105311,-0.1185586,0.1070531,-0.1023885,-1.392644,0.6557297,0.1002622,0.5054659,1.482977,0.2356551,-0.1455765,1.591168,0.2244683,280.0373,255.448,340.2289,True
7,3.166661,-0.3315989,-0.7810701,-0.2246768,-1.504733,-4.693088,-1.163645,0.1838007,1.512754,0.373069,-0.1830146,0.491859,9.840847,19.67002,-0.1317486,0.03906574,0.2760857,-0.4757348,-0.4384817,2.89859,0.3526282,1.516915,0.3102467,-0.09348569,0.103781,-0.0472539,-1.391079,0.6566376,0.1002401,0.5045883,1.48304,0.2355928,-0.1468255,1.591518,0.2254646,280.6117,256.4264,338.0491,True
7,3.177772,-0.312499,-0.75336,-0.2302066,-1.499004,-4.69861,-1.160474,0.1829925,1.513693,0.3733454,-0.179252,0.3365253,9.814323,19.58431,-0.1052225,0.003001805,0.2407087,-0.4774217,-0.4370932,2.897541,0.3516142,1.517246,0.3099689,-0.07985536,0.09727323,0.03463057,-1.387887,0.6572724,0.1005072,0.5037085,1.483149,0.2355936,-0.1482085,1.591824,0.2271688,281.2947,262.3055,331.1047,True
7,3.188883,-0.293408,-0.7212474,-0.2144284,-1.493299,-4.702891,-1.157273,0.1819408,1.51489,0.3734386,-0.1740466,0.4697678,9.70822,19.67002,-0.08550481,-0.007497374,0.1606622,-0.4763937,-0.4354703,2.89639,0.3504595,1.517628,0.3096516,-0.100047,0.1025772,0.0391048,-1.387309,0.658434,0.1020619,0.5029011,1.483176,0.2355189,-0.149258,1.592013,0.2280061,281.7656,263.7302,328.8123,True
7,3.199994,-0.278564,-0.690182,-0.1954775,-1.487773,-4.707076,-1.15432,0.1809854,1.515878,0.3734853,-0.1695443,0.4044365,9.602121,19.90572,-0.07401814,0.04050973,0.1531708,-0.4773226,-0.4415469,2.902206,0.3492621,1.517911,0.309365,-0.1529261,0.09307797,-0.02748597,-1.389876,0.6595932,0.1053017,0.5019914,1.483263,0.235523,-0.1498773,1.592152,0.2281243,281.9796,262.2939,329.7761,True
7,3.211105,-0.2647852,-0.659111,-0.1776032,-1.482696,-4.710892,-1.15125,0.1801409,1.51729,0.3740921,-0.1647064,0.4358183,9.522545,20.26998,-0.07541089,0.07356219,0.1255148,-0.4774382,-0.4460853,2.907244,0.3480026,1.518071,0.3089254,-0.1531373,0.05795582,-0.04884528,-1.391111,0.6591905,0.1070354,0.5011078,1.483297,0.2353499,-0.150475,1.592335,0.2279531,282.2038,259.6237,332.05,True
7,3.222216,-0.2435497,-0.6258241,-0.1480172,-1.477695,1.569402,-1.149057,0.179235,1.518175,0.3741879,-0.1602552,0.4001136,9.496022,20.6771,-0.0689355,0.1023234,0.153195,-0.4794425,-0.4518119,2.912881,0.3468107,1.518247,0.3085887,-0.1190115,0.008960698,-0.04714145,-1.391757,0.657628,0.1075233,0.5000991,1.483459,0.2352784,-0.1511764,1.59257,0.2277747,282.5638,257.4314,333.9119,True
7,3.233327,-0.2382784,-0.597865,-0.1119713,-1.472324,1.56713,-1.146159,0.1782431,1.519174,0.374265,-0.1555419,0.4245526,9.522545,20.7628,-0.0848491,0.1235477,0.1746321,-0.4816556,-0.4574244,2.919344,0.3457121,1.518354,0.3081207,-0.07214988,0.0164327,-0.04868376,-1.39224,0.6581703,0.1065973,0.4990413,1.483706,0.2351766,-0.1519108,1.592809,0.2277197,282.9625,255.9078,335.0654,True
7,3.244438,-0.2372629,-0.5764753,-0.1004021,-1.4675,1.56416,-1.143278,0.1772867,1.520031,0.3742888,-0.1517826,0.3371214,9.628648,20.6771,-0.09650359,0.1245583,0.1843032,-0.4836508,-0.461504,2.924426,0.3446517,1.51862,0.3077626,-0.04533102,0.04624074,-0.02973813,-1.391782,0.6596828,0.1059073,0.4979944,1.483933,0.2350662,-0.1527312,1.592983,0.227636,283.4137,254.3444,336.1079,True
7,3.255549,-0.2183704,-0.50594,-0.07749376,-1.464912,1.562038,-1.140469,0.1766686,1.520577,0.3739223,-0.1466177,0.4664176,9.787797,20.31283,-0.08560781,0.1256438,0.2204461,-0.4868131,-0.4663898,2.92946,0.3436549,1.519181,0.3074837,-0.008199578,0.07594343,0.05942024,-1.387784,0.6611871,0.1045781,0.4968399,1.484301,0.2348628,-0.1534237,1.593156,0.227663,283.7541,253.4789,336.6292,True
7,3.26666,-0.2013997,-0.4844925,-0.06699729,-1.461155,1.55986,-1.13819,0.1758768,1.521579,0.3742859,-0.1422043,0.3965368,10.02653,19.7343,-0.0590781,0.08210377,0.1818695,-0.4877255,-0.4653474,2.928246,0.3426508,1.519367,0.307138,0.02136052,0.09819578,0.1369168,-1.383569,0.6624383,0.1030542,0.4957203,1.484432,0.2347119,-0.1539479,1.593337,0.2277562,284.0457,253.1267,336.718,True
7,3.277771,-0.1663007,-0.4598203,-0.05547063,-1.457373,1.557885,-1.13733,0.1749898,1.522296,0.3741004,-0.1379917,0.3792271,10.37135,19.26291,-0.06023847,0.0863847,0.1712294,-0.4889372,-0.4687767,2.932034,0.3414561,1.519483,0.3068311,0.01294613,0.09924605,0.14766,-1.381576,0.6634014,0.1030942,0.4945279,1.484587,0.234534,-0.1543536,1.593506,0.2278514,284.3066,253.0685,336.5402,True
7,3.288882,-0.1386465,-0.4383877,-0.04710463,-1.45365,1.556042,-1.136538,0.1739306,1.523219,0.3738697,-0.1344683,0.3163473,10.6366,18.81294,-0.0730589,0.05546829,0.1489289,-0.4900259,-0.4687215,2.933284,0.3403831,1.519714,0.3065975,-0.009721864,0.077975,0.118027,-1.381397,0.6635005,0.1039371,0.4933916,1.484751,0.234457,-0.1547013,1.59367,0.2279072,284.533,253.0503,336.3524,True
7,3.299993,-0.1056163,-0.4415263,-0.04921329,-1.449128,1.55354,-1.13598,0.1731254,1.523931,0.3735719,-0.1319394,0.225949,10.8488,18.3844,-0.07077836,0.02457601,0.1531382,-0.4919114,-0.46777,2.933127,0.3393446,1.519841,0.3063049,-0.003708187,0.05885906,0.0806482,-1.381735,0.6635495,0.103781,0.4923032,1.484892,0.2343092,-0.155162,1.593832,0.2279605,284.7595,252.6144,336.4656,True
7,3.311104,-0.1109614,-0.4181466,-0.05050886,-1.445373,1.550596,-1.134637,0.1722787,1.524843,0.3733068,-0.1281859,0.3386984,11.00796,17.97729,-0.08474809,-0.005270477,0.1191195,-0.492296,-0.4659072,2.932814,0.3382234,1.520042,0.3059039,0.02671751,0.04508401,0.03450418,-1.382811,0.6636299,0.1023474,0.4912058,1.485048,0.2341025,-0.1555545,1.594014,0.2280063,285.0258,252.53,336.2451,True
7,3.322215,-0.1559117,-0.336178,-0.04252824,-1.444603,1.549975,-1.131268,0.1712451,1.525318,0.37308,-0.1245896,0.3233162,11.11406,17.57017,-0.09557484,0.05327216,0.1267076,-0.4934177,-0.471816,2.939445,0.3370325,1.520341,0.3054657,0.01601738,0.0568051,0.03037087,-1.382561,0.6646309,0.1022838,0.4901384,1.485231,0.233927,-0.1564694,1.593939,0.2275319,285.2487,250.4516,338.211,True
7,3.333326,-0.1624369,-0.2773307,-0.003508583,-1.443082,1.550734,-1.129236,0.1698602,1.52597,0.3728375,-0.1200958,0.4056384,11.16711,17.07735,-0.0786986,0.07465794,0.1148865,-0.4938976,-0.4755276,2.943084,0.3357694,1.520542,0.3050239,-0.01473695,0.06529647,0.04454941,-1.381367,0.6656141,0.1034103,0.4891794,1.485398,0.2336123,-0.1565822,1.594433,0.2275855,285.2841,250.4649,338.0051,True
7,3.344437,-0.1635532,-0.2548745,0.0091208,-1.441,1.550339,-1.127343,0.1686183,1.526624,0.3725801,-0.1141106,0.541468,11.19363,16.67023,-0.07766683,0.1066088,0.1276928,-0.4952819,-0.4809806,2.948698,0.3344609,1.520657,0.3046298,-0.05073941,0.04288184,0.06512755,-1.379947,0.6651567,0.1053464,0.4880186,1.485562,0.233357,-0.1568418,1.59464,0.2277173,285.5167,250.7616,337.4899,True
7,3.355548,-0.1902431,-0.2314121,0.02497996,-1.438572,1.550319,-1.124307,0.1672842,1.527201,0.3721128,-0.1116482,0.2184174,11.19363,16.34883,-0.07235944,0.0874618,0.1148503,-0.4959482,-0.4815726,2.949928,0.3330774,1.520615,0.304152,-0.05164639,0.01730188,0.08002025,-1.378579,0.6644232,0.1060431,0.4866779,1.485652,0.233063,-0.1572409,1.594865,0.2278552,285.9131,251.5503,336.5238,True
7,3.366659,-0.2136656,-0.2400328,0.01973736,-1.435837,1.549181,-1.120926,0.1660851,1.52796,0.3718092,-0.1087891,0.2576521,11.24668,16.09171,-0.1023621,0.0490358,0.06922031,-0.4954444,-0.4793248,2.950098,0.3316042,1.520645,0.3036911,-0.02895468,0.01938409,0.1106816,-1.376378,0.6643446,0.105536,0.4853281,1.485902,0.2328455,-0.1576613,1.595166,0.227834,286.3878,251.8911,336.07,True
7,3.37777,-0.2434835,-0.2466035,0.005956382,-1.433229,1.547498,-1.117013,0.1648955,1.528705,0.3715074,-0.1043815,0.3986029,11.35279,15.87744,-0.1035083,0.1171931,0.09485298,-0.4964691,-0.4876522,2.958629,0.3302709,1.52081,0.3035579,-0.01919628,0.04280481,0.1276642,-1.374261,0.6655992,0.1051195,0.4839857,1.486144,0.2327232,-0.1579972,1.595474,0.227678,286.8098,251.5877,336.2988,True
7,3.388881,-0.25201,-0.2583036,0.01134993,-1.430239,1.546113,-1.11351,0.1643298,1.529029,0.3710845,-0.1010212,0.3019118,11.45889,15.64174,-0.1042385,0.1022344,0.1342656,-0.4992751,-0.4901941,2.962003,0.3290636,1.520942,0.3031344,0.005314816,0.082226,0.1296042,-1.372545,0.6677755,0.1037765,0.482647,1.486412,0.2325411,-0.1583129,1.5958,0.2274723,287.2303,251.1685,336.6783,True
7,3.399992,-0.2636995,-0.2700662,0.009307303,-1.427101,1.544609,-1.109928,0.1633908,1.52985,0.3706818,-0.09773908,0.2958458,11.59151,15.2132,-0.1218445,0.07442257,0.1908172,-0.5032448,-0.4910184,2.964707,0.3280187,1.521264,0.3027799,0.03095845,0.09713794,0.1378874,-1.370611,0.6692084,0.1023471,0.4812896,1.486815,0.2323666,-0.1586967,1.596171,0.2273229,287.7102,250.8773,336.8719,True
7,3.411103,-0.2636995,-0.2700662,0.009307303,-1.427101,1.544609,-1.109928,0.1633908,1.52985,0.3706818,-0.09540934,0.2088948,11.75066,14.57039,-0.1218445,0.07442257,0.1908172,-0.5032448,-0.4910184,2.964707,0.3280187,1.521264,0.3027799,0.03095845,0.09713794,0.1378874,-1.370611,0.6692084,0.1023471,0.4812896,1.486815,0.2323666,-0.1590865,1.59651,0.2272476,288.1705,250.8284,336.8059,True
7,3.422215,-0.253082,-0.2646015,0.02522637,-1.421777,1.54268,-1.104077,0.1616005,1.531477,0.3698437,-0.09610017,-0.06662937,11.90981,13.73473,-0.04916029,0.05444192,0.2147823,-0.5082068,-0.4947991,2.966968,0.3259248,1.521859,0.3018353,0.05795003,0.1056184,0.1727678,-1.365624,0.6713353,0.09985283,0.4786478,1.487335,0.2319942,-0.1604735,1.596308,0.2260115,288.5319,246.5483,341.0101,True
