loc,t,aDotS,bDotS,gDotS,aS,bS,gS,xS,yS,zS,qE,qDotE,emgA,emgB,aDotSH,bDotSH,gDotSH,aSH,bSH,gSH,xSH,ySH,zSH,aDotUB,bDotUB,gDotUB,aUB,bUB,gUB,xUB,yUB,zUB,xHand,yHand,zHand,aHand,bHand,gHand,enable
5,0,0.6635904,-0.2898749,0.5665509,-1.521621,1.555728,-2.6921,0.3512826,1.223767,0.4893272,-1.141162,0.0653837,12.04244,14.72038,-0.6487519,0.5921205,-0.1458149,-0.6013588,-3.568045,-0.6881393,0.3632388,1.42511,0.4221506,-0.1832326,0.7552785,0.364238,-0.958419,0.3354514,-0.1693818,0.4893643,1.504335,0.2578127,0.04735931,1.122938,0.413575,292.683,283.5684,333.8748,True
5,0.01111111,0.5995903,-0.2528709,0.5333857,-1.525253,1.559244,-2.696813,0.3506354,1.222887,0.487478,-1.139619,0.1409487,11.96286,14.63467,-0.5658835,0.4708517,-0.0837256,-0.6008618,-3.565137,-0.6873233,0.3620096,1.424711,0.4209917,-0.1668559,0.6882378,0.2990274,-0.9580983,0.342683,-0.1720351,0.4887255,1.504449,0.2574255,0.04765656,1.12082,0.4108886,292.3854,278.3147,339.1733,True
5,0.02222222,0.4833413,-0.2299432,0.472712,-1.527258,1.562541,-2.698942,0.3497868,1.222073,0.4856544,-1.140661,-0.09613463,11.90981,14.52753,-0.4806087,0.3657154,-0.1239049,-0.6034281,-3.567215,-0.6832073,0.3609124,1.424131,0.4198575,-0.1575978,0.6477913,0.2626694,-0.9574256,0.3502858,-0.1750709,0.488163,1.504417,0.2569687,0.04784243,1.118251,0.407629,292.9054,277.2727,340.0905,True
5,0.03333334,0.3799298,-0.1983779,0.4268495,-1.529872,1.565146,-2.700299,0.3490359,1.221253,0.4839187,-1.139943,0.06709309,11.85676,14.44182,-0.4491902,0.3393036,-0.2104658,-0.6093829,-3.568696,-0.6779076,0.3596952,1.423538,0.4187989,-0.1342819,0.6115973,0.2506917,-0.9559278,0.358027,-0.1786699,0.4875537,1.504465,0.2564633,0.04801929,1.115376,0.4038541,293.5959,277.4769,339.5284,True
5,0.04444445,0.3223682,-0.1879399,0.4034177,-1.532504,1.568321,-2.702145,0.3482748,1.220491,0.4821947,-1.137831,0.1927824,11.77719,14.39897,-0.4024466,0.2819922,-0.2524157,-0.613432,-3.570854,-0.6730239,0.3586348,1.423123,0.417681,-0.1034649,0.559414,0.2396758,-0.9545185,0.3641692,-0.182145,0.4870353,1.504517,0.2560046,0.04819936,1.11238,0.3997475,294.2961,277.2917,339.1519,True
5,0.05555556,0.2487861,-0.1647749,0.3735429,-1.534859,1.570682,-2.702837,0.3476785,1.219864,0.4803505,-1.137574,0.02241476,11.69761,14.31326,-0.3713658,0.2415811,-0.243106,-0.6160419,-3.571423,-0.6693581,0.3575737,1.42265,0.4165413,-0.08650291,0.5200241,0.2309503,-0.9530537,0.3704785,-0.1853017,0.486454,1.504549,0.2554498,0.04832001,1.111701,0.3975132,293.9553,272.8109,344.0721,True
5,0.06666667,0.1869225,-0.1351836,0.3468262,-1.537344,-4.710715,-2.70298,0.346985,1.219365,0.4787507,-1.138792,-0.1108473,11.64456,14.22755,-0.3454381,0.1883573,-0.215666,-0.6174262,-3.572248,-0.6655863,0.3566474,1.422394,0.4153347,-0.08229393,0.4614363,0.2233994,-0.951515,0.3748596,-0.1871126,0.4860124,1.504577,0.2548225,0.04824404,1.111421,0.3964366,294.0526,272.2657,345.1564,True
5,0.07777778,0.1527887,-0.1119268,0.3233024,-1.539743,-4.709033,-2.70399,0.346295,1.21885,0.4771328,-1.138512,0.02703182,11.61804,14.12042,-0.3396808,0.1808388,-0.1603195,-0.6185916,-3.569836,-0.6638784,0.3559035,1.422168,0.4141073,-0.07163936,0.4209688,0.2232613,-0.9496555,0.3796831,-0.1894008,0.4855067,1.504576,0.2541273,0.04780927,1.111196,0.3955046,294.0237,274.3336,343.5472,True
5,0.08888889,0.1090127,-0.08987502,0.2912033,-1.5404,-4.708061,-2.703787,0.3456535,1.218075,0.4750555,-1.138611,-0.008863861,11.56498,14.01328,-0.3160261,0.2255888,-0.1124952,-0.6209251,-3.564164,-0.665684,0.3553365,1.421873,0.4127953,-0.06327212,0.3645248,0.2050159,-0.9484976,0.3826149,-0.1908219,0.485177,1.504501,0.2532234,0.04742339,1.111035,0.3945464,294.0552,274.6141,343.735,True
5,0.1,0.06636304,-0.091253,0.2475686,-1.540884,-4.706486,-2.703481,0.3450042,1.217969,0.4738181,-1.140126,-0.138032,11.51194,13.97043,-0.2987661,0.2351834,-0.080644,-0.6226076,-3.560124,-0.6663879,0.3546818,1.421662,0.4115491,-0.05516151,0.3176879,0.1644233,-0.9484145,0.3851558,-0.1919298,0.4849096,1.504434,0.2523327,0.04689749,1.111011,0.3935615,294.0197,274.4955,344.2582,True
5,0.1111111,0.03863142,-0.1021432,0.2093093,-1.541089,-4.704728,-2.702983,0.3443508,1.217778,0.4724534,-1.139655,0.04467316,11.51194,13.92758,-0.2857413,0.2298478,-0.04985084,-0.6235675,-3.556658,-0.666508,0.3541147,1.421539,0.4103658,-0.04389828,0.277257,0.1184675,-0.9489653,0.3875557,-0.1932573,0.4846064,1.504426,0.2514923,0.04607917,1.1109,0.3921483,293.8042,275.4055,343.7142,True
5,0.1222222,-0.001893046,-0.1045545,0.1667689,-1.540905,-4.703401,-2.701707,0.3437675,1.217825,0.4712217,-1.139978,-0.02958003,11.51194,13.90615,-0.2577475,0.1915421,-0.02559317,-0.6234534,-3.555206,-0.6658797,0.353863,1.421517,0.4092317,-0.03566585,0.2506467,0.08959974,-0.9493466,0.3897126,-0.1944076,0.4843642,1.504413,0.2506013,0.04541793,1.110755,0.3903771,293.684,274.9521,344.3244,True
5,0.1333333,-0.03923783,-0.1112271,0.1252794,-1.539973,-4.702139,-2.70002,0.3433752,1.218091,0.4702339,-1.140324,-0.03098596,11.53846,13.88472,-0.2149368,0.1490422,-0.01637533,-0.6233885,-3.554884,-0.6653173,0.3536513,1.421564,0.4080658,-0.02850759,0.213384,0.05859949,-0.9500273,0.3909157,-0.1951258,0.4842005,1.504392,0.2495909,0.04498379,1.110783,0.3887843,293.6647,273.4404,345.9151,True
5,0.1444445,-0.07444831,-0.1114615,0.09121757,-1.539034,-4.701071,-2.698056,0.3429413,1.218195,0.4692194,-1.14007,0.02376174,11.59151,13.88472,-0.1817707,0.122498,-0.008133207,-0.6234471,-3.554147,-0.665112,0.3533831,1.421614,0.4069135,-0.0233525,0.1675907,0.04145306,-0.9502851,0.3913156,-0.1951442,0.4841404,1.504383,0.2484419,0.04435436,1.110868,0.3869687,293.6743,274.2339,344.8854,True
5,0.1555556,-0.09898964,-0.1073965,0.05927983,-1.538352,-4.700215,-2.696325,0.3424996,1.218413,0.4681654,-1.140107,-0.003310596,11.64456,13.88472,-0.1100125,0.04065756,0.00934286,-0.6213538,-3.556466,-0.6645732,0.3534381,1.421914,0.4058118,-0.02343538,0.1122035,0.03289242,-0.9500864,0.3906438,-0.1944086,0.4840764,1.504325,0.2472923,0.04358172,1.110889,0.3843614,293.8137,275.9938,342.4067,True
5,0.1666667,-0.1128809,-0.1011399,0.03794563,-1.537487,-4.699553,-2.694695,0.3420559,1.218529,0.4669073,-1.140321,-0.01908102,11.67109,13.88472,-0.07998672,0.003451861,0.02079497,-0.6201581,-3.557185,-0.6640624,0.3533017,1.422063,0.4046826,-0.02461576,0.07918555,0.02009137,-0.9503347,0.3903025,-0.1940054,0.4839661,1.504236,0.2461796,0.04293762,1.110925,0.3811125,293.9818,276.4019,341.0036,True
5,0.1777778,-0.1331725,-0.105614,0.0007020831,-1.535693,-4.699024,-2.692469,0.3416619,1.219058,0.4658892,-1.141025,-0.06395161,11.69761,13.84187,-0.03920562,-0.05184548,0.03852398,-0.6178395,-3.559443,-0.6632134,0.3532706,1.422222,0.4036095,-0.02160487,0.02913022,0.001918588,-0.9506233,0.388468,-0.1926832,0.4838963,1.504126,0.2450206,0.0423052,1.111015,0.3774706,294.1155,276.5613,339.6996,True
5,0.1888889,-0.153457,-0.1132776,-0.0344081,-1.533338,-4.698391,-2.690149,0.3412764,1.219555,0.4649844,-1.141584,-0.05027698,11.69761,13.75616,-0.01782992,-0.07521524,0.0383369,-0.6165559,-3.561041,-0.6623985,0.3532402,1.422441,0.4025421,-0.02715242,0.0003786962,-0.02041803,-0.9514132,0.3870729,-0.1913971,0.4838169,1.503977,0.2438819,0.04163807,1.111138,0.3734721,294.2578,277.1814,337.8438,True
5,0.2,-0.1683868,-0.1144693,-0.05461255,-1.531721,-4.697661,-2.687951,0.3408727,1.21998,0.4639826,-1.141371,0.0200177,11.67109,13.67045,0.009800516,-0.09109327,0.02213241,-0.61584,-3.563449,-0.6614789,0.3532772,1.422678,0.4014487,-0.02501418,0.000379419,-0.01938044,-0.9516732,0.387077,-0.1911228,0.4838426,1.503877,0.2427065,0.04118228,1.111426,0.3697162,294.335,276.4793,337.5513,True
5,0.2111111,-0.1865432,-0.1135643,-0.08125866,-1.529053,-4.697515,-2.685315,0.3404788,1.220494,0.4629338,-1.141557,-0.01690749,11.61804,13.60617,0.0236441,-0.09530823,0.0198936,-0.6150262,-3.564834,-0.661016,0.3532166,1.422909,0.4003863,-0.02177368,0.0003724229,-0.01515555,-0.9516987,0.387064,-0.1910198,0.4837953,1.503741,0.2414472,0.04082118,1.111983,0.3666214,294.3878,275.4774,337.7397,True
5,0.2222222,-0.2089743,-0.1019816,-0.1026186,-1.526606,-4.697701,-2.682243,0.3401645,1.221115,0.4620018,-1.141994,-0.03963692,11.51194,13.56331,0.04608036,-0.09100547,0.03039651,-0.613767,-3.565258,-0.6619481,0.3532657,1.423269,0.3993115,-0.02718751,-0.0219932,-0.02364079,-0.9520897,0.3857156,-0.1896498,0.4837878,1.50361,0.2402227,0.04044326,1.112856,0.3644422,294.3394,274.7088,337.9757,True
5,0.2333333,-0.2292214,-0.1084595,-0.115343,-1.524471,-4.697264,-2.679085,0.3396961,1.221687,0.4611013,-1.141893,0.00982315,11.40584,13.58474,0.05052874,-0.09422488,0.05485894,-0.6118985,-3.565221,-0.6626301,0.3532889,1.423599,0.3983192,-0.04327223,-0.06246826,-0.03416059,-0.9524854,0.383047,-0.186988,0.4837939,1.503445,0.2389886,0.03994859,1.114017,0.3632027,294.1594,274.3766,338.1691,True
5,0.2444444,-0.2420156,-0.1106118,-0.1153588,-1.521967,-4.696663,-2.676162,0.3391733,1.222064,0.4599969,-1.141717,0.01607404,11.32626,13.6276,0.0239996,-0.08368616,0.07318114,-0.6103331,-3.564685,-0.6624213,0.3533982,1.423964,0.3973279,-0.06450015,-0.1072221,-0.02758105,-0.9520977,0.3797655,-0.1837323,0.4837821,1.503241,0.2377579,0.03929568,1.1154,0.3627949,293.898,274.2099,338.5038,True
5,0.2555556,-0.2803293,-0.1202108,-0.1056715,-1.520329,-4.695404,-2.672055,0.3385392,1.222929,0.4589267,-1.14186,-0.01294964,11.24668,13.67045,0.01330958,-0.0496474,0.08183262,-0.6097131,-3.56268,-0.6638851,0.3536139,1.424261,0.3962545,-0.07065339,-0.1125624,-0.004086301,-0.9511565,0.3783053,-0.181851,0.4838562,1.503101,0.2366006,0.03850977,1.116975,0.3630356,293.6132,274.1984,338.8889,True
5,0.2666667,-0.3122797,-0.1169926,-0.09498784,-1.519157,-4.694709,-2.66761,0.3378888,1.223762,0.458318,-1.142358,-0.04521568,11.22016,13.75616,0.01550994,-0.02197477,0.1031595,-0.6087262,-3.559908,-0.6663655,0.3537239,1.42465,0.3952291,-0.06212131,-0.1019149,-0.003106833,-0.9511347,0.3772855,-0.1809131,0.4839238,1.502921,0.2353981,0.0375712,1.118675,0.3636163,293.2664,274.3557,339.2894,True
5,0.2777778,-0.3719254,-0.1223618,-0.08848692,-1.51773,-4.693676,-2.661391,0.3370911,1.224461,0.4573684,-1.141446,0.08395513,11.19363,13.86329,0.01678677,-0.02627318,0.1297752,-0.6065866,-3.55812,-0.6681213,0.3538111,1.425027,0.3941445,-0.05795924,-0.112562,-0.01274635,-0.9513546,0.3751906,-0.1791663,0.4840524,1.502751,0.2342701,0.03654503,1.120404,0.3641733,292.9049,274.5947,339.6891,True
5,0.2888889,-0.4305008,-0.1330695,-0.08621874,-1.516113,-4.692495,-2.654761,0.3361005,1.225342,0.4566505,-1.141316,0.01131395,11.19363,13.92758,-0.008393329,-0.03494578,0.1789536,-0.6032544,-3.555112,-0.6696188,0.3538881,1.425464,0.3931236,-0.0688096,-0.1232092,-0.03181797,-0.9520023,0.3727362,-0.1765468,0.4841995,1.502565,0.233151,0.03546026,1.122213,0.3643943,292.7068,274.7643,340.0162,True
5,0.3,-0.4901232,-0.1554989,-0.08283187,-1.514183,-4.690711,-2.647527,0.335056,1.226217,0.4557221,-1.139896,0.1300479,11.19363,13.97043,-0.03464264,-0.05000911,0.2249341,-0.5993689,-3.55232,-0.6706734,0.3540394,1.42601,0.3920774,-0.08920041,-0.1082882,-0.04544884,-0.9528215,0.3717225,-0.1741675,0.4844526,1.502449,0.2321045,0.03430772,1.124163,0.3641657,292.5259,274.7861,340.2386,True
5,0.3111111,-0.5209851,-0.1736079,-0.07630461,-1.512526,-4.68879,-2.640902,0.3338776,1.227321,0.4550729,-1.139783,0.009556063,11.22016,14.01328,-0.05045536,-0.05009177,0.2474248,-0.5962685,-3.549183,-0.6722125,0.3541591,1.426488,0.3911359,-0.1031906,-0.09869925,-0.05914953,-0.9538016,0.3704706,-0.1718823,0.4846543,1.502321,0.2310534,0.03295197,1.12632,0.3634099,292.3301,274.64,340.4568,True
5,0.3222222,-0.5667304,-0.2076805,-0.06116457,-1.510704,-4.685852,-2.633249,0.3324161,1.228462,0.4541883,-1.139672,0.01060596,11.22016,14.01328,-0.05358967,-0.05117115,0.2548977,-0.5937209,-3.546613,-0.6737614,0.3542023,1.427117,0.3901742,-0.1235659,-0.0837841,-0.0717126,-0.9548694,0.3696426,-0.1693781,0.4849548,1.502051,0.2300589,0.03139306,1.12879,0.3621637,292.0838,274.2951,340.6925,True
5,0.3333333,-0.6188447,-0.2459982,-0.04066614,-1.508921,-4.682238,-2.625109,0.33077,1.229765,0.4533746,-1.140756,-0.09889396,11.22016,14.01328,-0.07689687,-0.04168923,0.2753263,-0.5907131,-3.542667,-0.6755305,0.3543616,1.427857,0.3892646,-0.1387578,-0.08163743,-0.09819002,-0.9567263,0.3682743,-0.1664574,0.4853097,1.50184,0.2291577,0.02971888,1.131642,0.3604873,291.7665,273.8328,340.9126,True
5,0.3444445,-0.6528767,-0.2726115,-0.02663559,-1.507223,-4.67861,-2.617001,0.3290918,1.230977,0.4524865,-1.140244,0.048066,11.19363,14.03471,-0.1064543,-0.08335395,0.2957238,-0.5861612,-3.541492,-0.674323,0.35452,1.428475,0.3882964,-0.1453781,-0.08908059,-0.1204975,-0.9585798,0.3663231,-0.1635253,0.4856617,1.501739,0.2282436,0.02798496,1.134887,0.3585137,291.349,273.3524,341.0394,True
5,0.3555556,-0.7348217,-0.3397971,-0.020877,-1.504086,-4.67363,-2.606488,0.3271958,1.23256,0.4515505,-1.140095,0.01345945,11.16711,14.03471,-0.1231899,-0.1537347,0.308524,-0.5807348,-3.542893,-0.6713837,0.3546345,1.429114,0.3873353,-0.1566225,-0.077327,-0.1768413,-0.9623572,0.3649856,-0.1605804,0.4861557,1.501611,0.2273126,0.02608927,1.138484,0.3562964,290.8636,272.8851,341.158,True
5,0.3666667,-0.7880678,-0.375098,-0.0376782,-1.500525,-4.669652,-2.596391,0.3252478,1.233872,0.450639,-1.140574,-0.0436451,11.14058,14.03471,-0.1260053,-0.2102457,0.3372301,-0.5745248,-3.543364,-0.6695672,0.3545857,1.429818,0.3862305,-0.1685466,-0.05281888,-0.1969487,-0.9652271,0.3646109,-0.1582613,0.4865766,1.501463,0.2264087,0.02403981,1.142414,0.3538878,290.3147,272.3802,341.2994,True
5,0.3777778,-0.8732781,-0.4382007,-0.06922565,-1.495145,-4.664608,-2.584057,0.3231871,1.235299,0.4497635,-1.138632,0.1783144,11.11406,14.01328,-0.1417812,-0.219918,0.3607719,-0.5691287,-3.541729,-0.6688982,0.3545327,1.430512,0.3851635,-0.1760097,-0.03577361,-0.1968594,-0.9673011,0.3644146,-0.1559126,0.4869917,1.501321,0.2255495,0.02191574,1.146603,0.3513474,289.6816,271.84,341.4793,True
5,0.3888889,-0.9392815,-0.5033744,-0.09226218,-1.489576,-4.659075,-2.572074,0.3207056,1.236925,0.4489205,-1.139453,-0.07621205,11.11406,13.99186,-0.1936458,-0.1903315,0.418725,-0.5633097,-3.535765,-0.6699808,0.3543013,1.431139,0.3839636,-0.1951652,-0.007018775,-0.1945138,-0.9694465,0.3650408,-0.1535049,0.4874279,1.501126,0.2248232,0.0196309,1.151053,0.3486856,289.0664,270.9761,341.9655,True
5,0.4,-0.9701481,-0.5418175,-0.1048197,-1.484319,-4.653899,-2.5608,0.3183802,1.238415,0.4480977,-1.137881,0.1450975,11.14058,13.97043,-0.2265029,-0.169169,0.4498964,-0.5578944,-3.530269,-0.6710098,0.354113,1.43177,0.3828185,-0.214522,0.01216711,-0.2113402,-0.9723467,0.3655013,-0.1506798,0.4877738,1.500939,0.2240314,0.01723932,1.155717,0.3460121,288.3209,269.8394,342.6693,True
5,0.4111111,-0.9935288,-0.5908586,-0.1066878,-1.478803,-4.647747,-2.549673,0.3156607,1.24021,0.4472609,-1.13866,-0.07211053,11.16711,13.949,-0.2551017,-0.1352181,0.4863785,-0.552543,-3.522902,-0.6734405,0.3537008,1.432474,0.3817024,-0.2457086,0.0388093,-0.2397724,-0.9762967,0.3663821,-0.1474592,0.4882431,1.500709,0.2232831,0.01467416,1.160582,0.3433807,287.5916,268.4142,343.6633,True
5,0.4222222,-0.9923987,-0.6249043,-0.09692861,-1.473775,-4.641439,-2.539421,0.3129448,1.241757,0.4464269,-1.140118,-0.1321071,11.22016,13.97043,-0.2986582,-0.07681999,0.5262008,-0.54767,-3.512712,-0.6774139,0.3533051,1.433267,0.3805146,-0.2768136,0.05905837,-0.2596834,-0.9800156,0.3673154,-0.143934,0.48873,1.500535,0.2225618,0.01191775,1.165677,0.340811,286.8523,266.8878,344.7942,True
5,0.4333333,-0.9902371,-0.6397776,-0.08834091,-1.468961,-4.635687,-2.529246,0.3102574,1.243462,0.4454608,-1.140813,-0.06203755,11.24668,13.97043,-0.3401743,-0.05033344,0.5414552,-0.5428801,-3.504817,-0.6791029,0.3528411,1.433948,0.379334,-0.2981853,0.06438497,-0.2658517,-0.9832487,0.3678481,-0.1401896,0.4891575,1.500336,0.2218795,0.009171898,1.170933,0.3383241,286.0491,265.475,345.8745,True
5,0.4444444,-0.9837878,-0.673769,-0.07008623,-1.46383,-4.62873,-2.519154,0.307225,1.245281,0.4444389,-1.142081,-0.1152503,11.24668,14.01328,-0.3772103,-0.03239295,0.5832994,-0.536921,-3.494886,-0.6821543,0.3523287,1.434713,0.3781018,-0.3205795,0.08036885,-0.2688101,-0.9865441,0.3691316,-0.1367413,0.4895685,1.500152,0.2212968,0.006389492,1.176262,0.3358407,285.2258,264.05,347.0338,True
5,0.4555556,-0.9741799,-0.6950532,-0.0689389,-1.458212,-4.622361,-2.509138,0.3044237,1.247136,0.4434347,-1.142581,-0.04464138,11.24668,14.05614,-0.3865814,-0.02394584,0.6153424,-0.530775,-3.485003,-0.6861632,0.3517666,1.435524,0.3768306,-0.3567868,0.1165839,-0.2662777,-0.9897244,0.3716724,-0.1328891,0.4900191,1.4999,0.2207623,0.00369321,1.181512,0.3332922,284.3608,262.6387,348.2001,True
5,0.4666667,-0.9730822,-0.70778,-0.05716249,-1.453037,-4.615702,-2.498978,0.3013687,1.248924,0.4423022,-1.142743,-0.01435982,11.24668,14.12042,-0.3907019,-0.04634413,0.6259893,-0.5242731,-3.477738,-0.6879307,0.3511725,1.43625,0.3755672,-0.3727783,0.1517362,-0.2671595,-0.9931833,0.3745197,-0.1298209,0.490409,1.499659,0.220222,0.00105078,1.186577,0.3306159,283.5786,261.1681,349.423,True
5,0.4777778,-0.9869371,-0.694962,-0.04655102,-1.448441,-4.610009,-2.488004,0.2983354,1.250639,0.441066,-1.14301,-0.02427087,11.24668,14.20613,-0.4139275,-0.05496487,0.6506528,-0.5174346,-3.468773,-0.6903292,0.3504679,1.436914,0.3742876,-0.3865951,0.169847,-0.2637982,-0.9962113,0.3770398,-0.1265041,0.4907673,1.499427,0.2196565,-0.00161705,1.191409,0.3277158,282.9203,259.3875,350.9236,True
5,0.4888889,-1.007194,-0.6672242,-0.03386711,-1.444515,-4.604862,-2.476682,0.295253,1.25236,0.4398775,-1.142965,0.004469383,11.24668,14.33469,-0.4564967,-0.04125828,0.6627015,-0.5113898,-3.458586,-0.6925907,0.3495863,1.43751,0.3729672,-0.4036626,0.2049995,-0.2657339,-0.9996542,0.3806589,-0.1234119,0.4911193,1.499221,0.2192397,-0.00421907,1.196002,0.3245965,282.3663,257.2393,352.7065,True
5,0.5,-1.024244,-0.649086,-0.02328946,-1.44028,-4.599587,-2.465378,0.2921919,1.254079,0.4384625,-1.142369,0.05450852,11.29973,14.4204,-0.4983756,0.006597757,0.6364512,-0.5076811,-3.447818,-0.6950542,0.3487345,1.438096,0.3716958,-0.4133519,0.2252473,-0.2752073,-1.00344,0.3839314,-0.1202718,0.4915966,1.498945,0.2187948,-0.006885108,1.200398,0.3212592,281.889,255.0635,354.4601,True
5,0.5111111,-1.021029,-0.6511576,-0.01156582,-1.435839,-4.593641,-2.454818,0.2891317,1.255738,0.4370837,-1.142188,0.01619057,11.32626,14.69895,-0.5264218,0.04384804,0.6036985,-0.5042429,-3.437536,-0.6973376,0.3479529,1.438729,0.3703506,-0.4219075,0.2412262,-0.2783076,-1.007081,0.3872962,-0.1170688,0.4919419,1.498652,0.2183197,-0.009652992,1.204699,0.3177718,281.4946,252.9498,356.095,True
5,0.5222223,-1.033796,-0.6361536,0.01289235,-1.432319,-4.587686,-2.443607,0.2861975,1.257348,0.4354522,-1.142369,-0.01648208,11.35279,15.25605,-0.5393399,0.0417099,0.5856724,-0.4999371,-3.429094,-0.698202,0.3470303,1.439359,0.3690798,-0.4347535,0.2454918,-0.2834848,-1.010599,0.3901986,-0.1132781,0.4922526,1.498429,0.217942,-0.01249944,1.20904,0.3142352,281.1413,250.8538,357.7103,True
5,0.5333334,-1.034844,-0.602973,0.05003875,-1.430016,-4.581936,-2.432696,0.2833289,1.258857,0.4336729,-1.143206,-0.07621056,11.37931,16.04885,-0.5479507,0.05874264,0.5793769,-0.4958151,-3.418459,-0.7011989,0.3461132,1.439945,0.3677609,-0.4529303,0.2593426,-0.2886076,-1.014368,0.3937342,-0.1093507,0.4926357,1.498151,0.2175648,-0.0153099,1.213511,0.3106876,280.7536,248.5302,359.6268,True
5,0.5444446,-1.006068,-0.5558418,0.09771553,-1.429034,-4.576645,-2.423223,0.2803948,1.260187,0.4318614,-1.142762,0.04128408,11.40584,17.07735,-0.5610244,0.08111972,0.5496711,-0.4930262,-3.408963,-0.7028484,0.3451329,1.440463,0.3664172,-0.4708959,0.2795694,-0.2745641,-1.017383,0.3978294,-0.1057001,0.4928708,1.497933,0.2172706,-0.01793647,1.218108,0.3071242,280.2705,246.0199,1.789498,True
5,0.5555557,-0.9858286,-0.5258948,0.1199315,-1.42732,-4.571547,-2.413663,0.2776598,1.26152,0.4299662,-1.143141,-0.03493077,11.37931,18.12728,-0.5908186,0.07037675,0.5498868,-0.4885052,-3.39972,-0.7034714,0.3440947,1.441075,0.3650429,-0.4728771,0.2923515,-0.2596182,-1.020167,0.4018754,-0.1025338,0.4931939,1.49771,0.2170048,-0.02036661,1.222839,0.3034745,279.7393,243.7968,3.726442,True
5,0.5666668,-0.9613115,-0.4680708,0.1771515,-1.428076,-4.56654,-2.404496,0.2747444,1.262616,0.4279273,-1.14475,-0.1467991,11.37931,19.15577,-0.6138043,0.05637586,0.6054342,-0.4820114,-3.387415,-0.706758,0.3430288,1.441512,0.3637025,-0.4739581,0.3115244,-0.2606605,-1.023529,0.4062285,-0.09945442,0.4933902,1.497454,0.2167201,-0.02264219,1.227695,0.2996747,279.1421,241.7589,5.471819,True
5,0.577778,-0.9559619,-0.4359483,0.2132343,-1.428043,-4.561026,-2.394653,0.2718869,1.263778,0.4259255,-1.144816,-0.004815128,11.37931,20.18427,-0.6264122,0.05949122,0.631108,-0.4763697,-3.374685,-0.7105894,0.3420529,1.441955,0.3623776,-0.4761515,0.3296283,-0.2648733,-1.026971,0.4108232,-0.0963015,0.4936583,1.497194,0.2164612,-0.02477286,1.232558,0.2957329,278.4379,239.4664,7.416509,True
5,0.5888891,-0.9676715,-0.4038544,0.2450608,-1.428534,-4.555983,-2.384178,0.2690432,1.26479,0.4238365,-1.145103,-0.02641732,11.40584,21.19134,-0.6341619,0.07549143,0.5981581,-0.4730967,-3.364644,-0.712191,0.3409439,1.442313,0.3611054,-0.4751124,0.3498709,-0.2670006,-1.030431,0.4158521,-0.09364047,0.4937866,1.496986,0.2163372,-0.02678318,1.237285,0.2916808,277.7384,236.6741,9.806206,True
5,0.6000003,-0.9804662,-0.3429399,0.2895352,-1.43039,-4.551487,-2.373302,0.2662985,1.265894,0.4215295,-1.144286,0.07482133,11.45889,21.91986,-0.6506039,0.07659864,0.5354346,-0.4707425,-3.357823,-0.7104898,0.3397598,1.442701,0.3598378,-0.4674517,0.3775576,-0.2457503,-1.032903,0.421566,-0.09149263,0.4938191,1.496788,0.2161205,-0.02882077,1.241799,0.2875334,277.0565,234.2411,11.82219,True
5,0.6111114,-0.9773042,-0.275706,0.3179945,-1.432858,-4.54746,-2.363066,0.2635195,1.26691,0.4191175,-1.143589,0.0630623,11.51194,22.32698,-0.6606855,0.08092451,0.4716018,-0.4688239,-3.351155,-0.7085817,0.3385331,1.443118,0.3585324,-0.4640948,0.399919,-0.22979,-1.035391,0.4274391,-0.08943374,0.493925,1.49658,0.215934,-0.03088563,1.246062,0.2832946,276.5001,231.6559,13.99944,True
5,0.6222225,-0.9719932,-0.2308323,0.3444082,-1.435399,-4.543377,-2.353039,0.2608983,1.267919,0.4168506,-1.143241,0.03139077,11.56498,22.45554,-0.64999,0.02452004,0.4543957,-0.4643738,-3.347166,-0.7053307,0.3373377,1.443485,0.3572426,-0.4533655,0.4254729,-0.2202808,-1.037871,0.433672,-0.08783984,0.4938906,1.49631,0.2157788,-0.03299754,1.250148,0.278991,276.071,229.366,15.88125,True
5,0.6333337,-0.9783477,-0.2329051,0.3625512,-1.436496,-4.537901,-2.342813,0.258314,1.269029,0.4143486,-1.143982,-0.06798648,11.59151,22.3484,-0.6327322,-0.02232784,0.4648626,-0.4587572,-3.3419,-0.7035997,0.3361179,1.44399,0.3559408,-0.4437238,0.4276,-0.2150438,-1.040406,0.4388921,-0.0859253,0.4938631,1.496099,0.2156246,-0.03515036,1.254218,0.2746591,275.7115,227.9697,16.89827,True
5,0.6444448,-0.9718302,-0.3030852,0.3884395,-1.436106,-4.530135,-2.333355,0.255812,1.270111,0.4119565,-1.144297,-0.02817615,11.61804,22.21984,-0.6377847,-0.06605768,0.4840106,-0.4526458,-3.337025,-0.7008417,0.3346933,1.44452,0.3546999,-0.4566892,0.4190848,-0.2330322,-1.043981,0.4435318,-0.08278383,0.4938087,1.495848,0.2154989,-0.03725928,1.258356,0.2703615,275.3098,226.4446,18.05359,True
5,0.655556,-0.9674675,-0.3626759,0.4057792,-1.435077,-4.521933,-2.323839,0.2533845,1.271102,0.4093544,-1.143929,0.03382069,11.59151,22.09128,-0.660269,-0.04268175,0.4778339,-0.4489488,-3.328572,-0.7003176,0.3333156,1.44491,0.3533232,-0.4845546,0.4308038,-0.2476397,-1.047552,0.449198,-0.07923836,0.4937937,1.495553,0.2154901,-0.03917209,1.262568,0.2661558,274.8491,224.1817,19.98905,True
5,0.6666671,-0.8840861,-0.498562,0.4840627,-1.433192,-4.508962,-2.318555,0.2505615,1.272036,0.4067519,-1.144335,-0.03736272,11.53846,22.00557,-0.6842965,0.06383234,0.4408818,-0.4488817,-3.315906,-0.7032761,0.3319324,1.445305,0.3518553,-0.4983337,0.4574322,-0.2410939,-1.050526,0.4558191,-0.07660609,0.4936731,1.495391,0.2153919,-0.04080886,1.26684,0.2619243,274.3732,220.4549,23.50124,True
5,0.6777782,-0.7528853,-0.5556367,0.5491102,-1.432917,-4.497486,-2.315898,0.2476243,1.272975,0.4037604,-1.144238,0.009234155,11.45889,21.94129,-0.7006892,0.1319948,0.4134082,-0.4484561,-3.303941,-0.7056562,0.3305532,1.445729,0.3504033,-0.490804,0.4766002,-0.2326289,-1.053186,0.4624332,-0.0746532,0.4936054,1.495248,0.2152822,-0.04203134,1.271082,0.2574761,273.8853,214.3972,29.37755,True
5,0.6888894,-0.6804148,-0.5212318,0.5967784,-1.435044,-4.488371,-2.312057,0.2448214,1.27371,0.4010012,-1.147402,-0.2898404,11.37931,21.94129,-0.7284984,0.1851632,0.4200821,-0.4473466,-3.290012,-0.7092453,0.3292171,1.446168,0.3488302,-0.4756659,0.48831,-0.211476,-1.055251,0.4688631,-0.07321216,0.4934593,1.495137,0.2151024,-0.0429089,1.275211,0.2525761,273.4177,205.9745,37.57625,True
5,0.7000005,-0.6337368,-0.2982419,0.6585004,-1.444055,-4.484694,-2.306715,0.2423655,1.273916,0.397687,-1.149687,-0.2072645,11.29973,22.027,-0.7483945,0.1818435,0.4649768,-0.4432209,-3.276696,-0.7124829,0.3279663,1.446523,0.3472784,-0.4626634,0.4840356,-0.1892338,-1.056866,0.4746027,-0.07134689,0.4932896,1.495027,0.214937,-0.04347641,1.278964,0.246926,272.9505,193.8163,49.38156,True
5,0.7111117,-0.6361672,0.004539281,0.7092803,-1.458086,-4.48472,-2.299528,0.239974,1.274109,0.3943639,-1.147732,0.178945,11.24668,22.11271,-0.8156309,0.1495059,0.5794229,-0.4357262,-3.260142,-0.7163477,0.3265406,1.44709,0.3456488,-0.467648,0.4531198,-0.1572465,-1.057722,0.4789089,-0.06822593,0.4930496,1.494834,0.2147284,-0.04396097,1.282026,0.2404793,272.6251,179.0301,63.46101,True
5,0.7222228,-0.7423658,0.604155,0.7108931,-1.483522,-4.497051,-2.286106,0.2384064,1.273774,0.3902323,-1.145299,0.219342,11.22016,22.21984,-0.819376,0.1302251,0.6422706,-0.4294528,-3.24431,-0.7216176,0.3250472,1.447649,0.3440843,-0.4812039,0.4392429,-0.1294265,-1.058556,0.4837479,-0.06483173,0.492855,1.494573,0.2144325,-0.04463565,1.284288,0.2336042,272.4159,168.8079,72.55605,True
5,0.7333339,-0.8785939,1.27915,0.6642538,-1.513911,-4.516009,-2.270142,0.2373144,1.273,0.3858359,-1.142162,0.283462,11.22016,22.32698,-0.7890332,0.08122617,0.6920578,-0.4219662,-3.230796,-0.7264366,0.3233252,1.448177,0.3424911,-0.5164191,0.4392407,-0.134374,-1.060437,0.4892445,-0.06067347,0.492555,1.494323,0.2142937,-0.04588102,1.285986,0.2269163,271.9984,168.2169,71.86131,True
5,0.7444451,-0.9487121,1.933045,0.6399702,-1.550767,-4.538963,-2.256041,0.2363784,1.272262,0.381726,-1.135443,0.6105558,11.24668,22.3484,-0.779317,0.05354446,0.6983348,-0.415941,-3.218555,-0.7294057,0.3213271,1.448707,0.3409431,-0.548633,0.4509682,-0.1585351,-1.063325,0.4951894,-0.05640389,0.4922102,1.494117,0.2141469,-0.04805357,1.287619,0.2211307,271.3577,185.9603,52.92807,True
5,0.7555562,-0.9140545,2.289901,0.6264727,4.700957,-4.556098,-2.24735,0.2353355,1.271348,0.3774922,-1.131141,0.3860706,11.27321,23.31262,-0.7752753,0.02059472,0.6545893,-0.4109678,-3.210343,-0.7284475,0.3191848,1.449039,0.3394291,-0.5873663,0.4818696,-0.1943393,-1.067107,0.5022617,-0.05207758,0.4916937,1.49406,0.214201,-0.051543,1.290016,0.2172008,271.1584,250.6939,347.3894,True
5,0.7666674,-0.7840006,2.941595,0.5326412,4.65662,-4.588583,-2.243423,0.235552,1.269445,0.3733866,-1.13107,0.002209531,11.35279,24.81251,-0.8453828,0.09401774,0.5668022,-0.4104325,-3.198434,-0.7277245,0.3170218,1.449105,0.338006,-0.6248106,0.554319,-0.2088235,-1.07045,0.5119197,-0.04851214,0.4908001,1.493949,0.2143235,-0.05618644,1.293846,0.2160481,272.2233,295.2001,302.7213,True
5,0.7777785,-0.7418834,3.195851,0.4514567,4.622087,-4.612739,-2.238151,0.234861,1.268208,0.3692832,-1.134364,-0.3013355,11.40584,26.59096,-0.9133608,0.1887429,0.4864992,-0.4117316,-3.183908,-0.7285951,0.3152544,1.449093,0.3366163,-0.6225309,0.587324,-0.1928348,-1.072326,0.5204048,-0.04572009,0.4900903,1.493899,0.2143791,-0.06135629,1.299293,0.2182137,273.7213,319.5961,279.1466,True
5,0.7888896,-0.7987838,3.398735,0.3429818,4.586304,-4.640643,-2.230059,0.2343548,1.267546,0.3660252,-1.136383,-0.1826845,11.45889,28.71223,-0.9562893,0.3294097,0.3539022,-0.4175213,-3.169314,-0.7298683,0.3138736,1.448689,0.3354378,-0.5343031,0.6426901,-0.1084845,-1.071262,0.5308941,-0.04769242,0.489172,1.493896,0.2145405,-0.06597915,1.305649,0.2234003,275.4565,340.2012,260.2826,True
5,0.8000008,-0.9594511,3.194733,0.2770845,4.563325,-4.656153,-2.216135,0.2327789,1.268332,0.3633659,-1.132003,0.3977065,11.48541,31.60489,-0.8916998,0.4534032,0.2055291,-0.4253777,-3.157554,-0.7330788,0.3129482,1.448313,0.3346229,-0.4248768,0.6490533,-0.03396785,-1.069442,0.5394606,-0.05084055,0.4883367,1.493819,0.2146235,-0.06995893,1.312015,0.2315797,278.0152,355.9491,246.7101,True
5,0.8111119,-1.033696,2.922917,0.2635574,4.54273,-4.668034,-2.203885,0.2309275,1.269426,0.3611484,-1.125069,0.6284078,11.43236,35.35462,-0.7616221,0.450784,0.07356265,-0.430631,-3.153833,-0.7323456,0.312213,1.448623,0.3339117,-0.2696677,0.6106985,0.03470724,-1.066984,0.5459514,-0.05661215,0.487585,1.493762,0.2145092,-0.07372358,1.317737,0.2417511,280.8088,4.796263,240.6867,True
5,0.8222231,-0.9728805,2.127564,0.3375281,4.54089,-4.660586,-2.19411,0.2275424,1.272318,0.3605042,-1.117384,0.6951584,11.40584,39.10435,-0.5259553,0.2108266,0.007509187,-0.4285612,-3.166402,-0.7224376,0.3119319,1.449243,0.3335068,-0.1605627,0.4977693,0.07611902,-1.065058,0.548003,-0.05911445,0.4871013,1.493677,0.2141404,-0.07764548,1.322763,0.2529422,283.3266,8.549737,240.0916,True
5,0.8333342,-0.8467095,1.786818,0.3358332,4.530477,-4.6634,-2.189737,0.2254671,1.273798,0.3594944,-1.116882,0.03944412,11.37931,42.27555,-0.3392745,-0.06249547,0.07282126,-0.4197946,-3.178268,-0.7136363,0.3111716,1.450195,0.3330059,-0.1066221,0.4264315,0.0382206,-1.066165,0.5508656,-0.06080449,0.4868158,1.493556,0.213547,-0.08172741,1.327583,0.2635813,285.2304,9.87206,242.2056,True
5,0.8444453,-0.6526402,1.481735,0.1963575,4.526922,-4.669053,-2.189996,0.2233588,1.275636,0.3588359,-1.120522,-0.3341591,11.35279,44.11828,0.005122662,-0.590239,0.3251171,-0.3944562,-3.204587,-0.7011264,0.3110921,1.45165,0.3326623,-0.1746166,0.2847899,-0.04959352,-1.069564,0.5490844,-0.05573037,0.4867721,1.493411,0.2128899,-0.08547905,1.332611,0.2721806,286.7287,10.91012,244.3494,True
5,0.8555565,-0.7209049,1.348792,0.03201878,4.519881,-4.680495,-2.181183,0.2223867,1.276599,0.3585072,-1.121881,-0.1229414,11.27321,45.78959,0.2205184,-1.027845,0.5987517,-0.3662598,-3.229598,-0.6871123,0.3103962,1.453027,0.3319197,-0.3178023,0.1197239,-0.1963001,-1.076118,0.5442328,-0.04501328,0.4865221,1.493085,0.2122438,-0.08843903,1.337908,0.2769994,287.6428,13.05743,244.4636,True
5,0.8666676,-0.8605521,1.200783,-0.1501862,4.515664,-4.691704,-2.168833,0.2208892,1.277575,0.3588367,-1.122585,-0.06727531,11.11406,46.86094,0.2230368,-1.106918,0.7594855,-0.3464037,-3.237836,-0.6816611,0.3096975,1.453889,0.3305695,-0.4333004,0.05481538,-0.3432282,-1.084556,0.5422531,-0.03554308,0.48628,1.492876,0.2117388,-0.09028687,1.342856,0.2779635,288.3341,15.70146,242.2341,True
5,0.8777788,-0.8623879,0.7707337,-0.3079947,4.524065,-4.695932,-2.1596,0.2182468,1.279465,0.3594713,-1.108737,1.263119,10.87533,47.07521,0.1986966,-0.8823967,0.8729358,-0.3353825,-3.217607,-0.7012599,0.3085363,1.454511,0.3294683,-0.4455418,0.05803838,-0.3931696,-1.090305,0.5433766,-0.03098401,0.4858756,1.492636,0.2113581,-0.0913996,1.346678,0.2760186,288.4307,18.57761,238.1497,True
5,0.8888899,-0.7618605,0.3389732,-0.4073209,4.535994,-4.696289,-2.154852,0.2158921,1.281314,0.3600237,-1.100357,0.7524596,10.58355,46.00385,0.1790109,-0.6651706,0.893658,-0.3273206,-3.196891,-0.7220189,0.307143,1.455121,0.328233,-0.4076899,0.1060193,-0.4404083,-1.096797,0.5463851,-0.02926175,0.4851736,1.492671,0.2111144,-0.09266032,1.349366,0.2729551,287.9455,19.26489,235.2528,True
5,0.900001,-0.5790899,-0.2877229,-0.5230096,4.561654,-4.690617,-2.153406,0.2133426,1.283726,0.361073,-1.101094,-0.0753713,10.2122,44.03257,0.1100595,-0.3456229,0.778548,-0.3283784,-3.171564,-0.7448062,0.3056099,1.455283,0.3271077,-0.3585756,0.1699453,-0.4280795,-1.100981,0.5509045,-0.02912539,0.4840564,1.492784,0.2108457,-0.09491731,1.351599,0.2703823,287.02,18.40063,234.1483,True
5,0.9111122,-0.5287913,-0.5670388,-0.5910567,4.57754,-4.689922,-2.148987,0.2115691,1.285629,0.3622625,-1.10292,-0.1694248,9.787797,42.31841,-0.008328944,-0.09747934,0.5763538,-0.3324312,-3.158559,-0.7531505,0.3042364,1.455628,0.3260841,-0.3345617,0.2231781,-0.371837,-1.103383,0.5556411,-0.0283861,0.4830106,1.492843,0.2105796,-0.09792968,1.353665,0.2687803,285.8405,18.31133,233.3435,True
5,0.9222233,-0.5554493,-0.6248661,-0.65041,4.590001,-4.692778,-2.142307,0.2097724,1.287176,0.3629251,-1.102985,-0.008288504,9.363397,40.64709,-0.1439883,0.1238483,0.4754471,-0.3366086,-3.136523,-0.7679124,0.3026219,1.456132,0.3251045,-0.293644,0.3072497,-0.2241155,-1.100554,0.5629256,-0.02975097,0.4816877,1.49301,0.2103279,-0.1006856,1.355204,0.267886,284.8125,19.9881,231.723,True
5,0.9333345,-0.5767719,-0.6505499,-0.6790435,4.600226,-4.696165,-2.13548,0.2079228,1.288619,0.363415,-1.094095,0.808324,8.938992,38.80437,-0.1795077,0.2526277,0.478068,-0.3368377,-3.10961,-0.790309,0.3017032,1.456484,0.323982,-0.2426239,0.377439,-0.02856623,-1.094617,0.5702814,-0.03202185,0.4804644,1.49313,0.2098997,-0.1027638,1.355744,0.267051,283.751,23.39929,228.6054,True
5,0.9444456,-0.577727,-0.7496507,-0.6849904,4.614328,-4.69658,-2.128984,0.2056679,1.290524,0.3643205,-1.085273,0.7959975,8.620689,36.55453,-0.1270648,0.3517384,0.549206,-0.3361373,-3.075637,-0.8227969,0.3007927,1.45691,0.3231831,-0.1813996,0.362448,0.1199235,-1.088716,0.5744857,-0.03406396,0.4791861,1.493109,0.209311,-0.1046454,1.355431,0.2664251,282.9172,24.90638,226.9307,True
5,0.9555568,-0.5625508,-0.894269,-0.6310973,4.629513,-4.693019,-2.123149,0.2032566,1.292452,0.3646739,-1.079213,0.5438803,8.408487,34.77608,-0.02156077,0.2751665,0.6633515,-0.3287571,-3.049116,-0.8513734,0.3002032,1.457426,0.3224967,-0.1415735,0.2729439,0.1578059,-1.086108,0.574575,-0.03363732,0.478209,1.493078,0.2087209,-0.1069563,1.354767,0.2663666,282.1263,24.34967,227.2442,True
5,0.9666679,-0.5527824,-0.9589592,-0.5679701,4.642632,-4.689773,-2.11704,0.2009957,1.294469,0.3652709,-1.074122,0.4568865,8.275862,33.61903,0.1020236,0.02936366,0.708891,-0.3167425,-3.042845,-0.8625827,0.2994686,1.458193,0.3222313,-0.1439573,0.2058524,0.1311466,-1.085779,0.5745879,-0.03198802,0.4771852,1.492876,0.207999,-0.1098071,1.354184,0.2670233,281.3075,22.96812,228.6706,True
5,0.977779,-0.5473124,-0.9382569,-0.4657957,4.651661,-4.686224,-2.110988,0.198734,1.29624,0.3651609,-1.069115,0.4491582,8.222812,33.01907,0.214296,-0.263153,0.6479187,-0.3042496,-3.056415,-0.8555716,0.298399,1.45896,0.3217151,-0.2003547,0.09404592,0.03258306,-1.088679,0.5715216,-0.02642122,0.4764522,1.492657,0.2073584,-0.1129716,1.353928,0.2680832,280.4741,22.18775,229.947,True
5,0.9888902,-0.5228642,-0.8784736,-0.4447819,4.660627,-4.686217,-2.106148,0.1964406,1.297826,0.3648405,-1.062427,0.6029055,8.169763,32.84765,0.2592014,-0.4142337,0.6100497,-0.2935917,-3.063666,-0.8529665,0.2973622,1.459566,0.3211248,-0.2265254,0.0621213,-0.02575559,-1.090623,0.57144,-0.02304992,0.4754562,1.492627,0.2067566,-0.116011,1.354026,0.2688968,279.8161,22.27332,230.5962,True
5,1.000001,-0.4761651,-0.7719446,-0.4591721,4.667659,-4.688518,-2.102659,0.1941585,1.299022,0.3644271,-1.055736,0.6019303,8.090186,32.82622,0.2811306,-0.56949,0.4892583,-0.2844869,-3.085677,-0.8354978,0.2957759,1.460027,0.3202116,-0.2390078,0.03553945,-0.1002238,-1.094169,0.5709714,-0.01992257,0.4744426,1.492667,0.2063556,-0.1187427,1.354516,0.2690609,279.3408,22.4815,230.9009,True
5,1.011112,-0.4567829,-0.6932532,-0.4757223,4.675398,-4.69064,-2.09837,0.1918501,1.300252,0.3640192,-1.049803,0.5325634,8.037136,32.91194,0.2496914,-0.5854345,0.4106411,-0.2782801,-3.097233,-0.8260041,0.2943098,1.460382,0.3191092,-0.2244826,0.02491511,-0.1376637,-1.096738,0.5708821,-0.01789165,0.4731963,1.492737,0.2058876,-0.1212101,1.355408,0.2683643,279.0465,23.17868,230.4244,True
5,1.022224,-0.4815501,-0.6026934,-0.4760057,4.681093,-4.693649,-2.092547,0.1892622,1.300996,0.3633974,-1.043989,0.522291,8.037136,32.78337,0.1535856,-0.4962376,0.4157769,-0.273651,-3.088577,-0.8323939,0.2922425,1.460846,0.3177795,-0.2017832,0.07397819,-0.2081851,-1.101466,0.5735031,-0.01776808,0.4717925,1.492864,0.2055738,-0.1235801,1.356518,0.2669595,278.6968,25.78109,227.6254,True
5,1.033335,-0.505055,-0.5630505,-0.4270742,4.687139,-4.693902,-2.086235,0.1868126,1.302109,0.3629434,-1.035959,0.7247096,8.116709,32.3334,0.009561598,-0.2837113,0.4736735,-0.2716009,-3.056756,-0.8580705,0.2901838,1.46084,0.3164718,-0.2092904,0.1410893,-0.2112503,-1.103802,0.5776264,-0.01702612,0.4703243,1.492971,0.2051103,-0.1259759,1.357514,0.2652794,278.3708,29.6669,223.214,True
5,1.044446,-0.4975195,-0.478396,-0.3177345,4.689083,-4.692598,-2.080865,0.1843776,1.302927,0.3621542,-1.026862,0.8202979,8.249334,31.21919,-0.1559027,0.03973565,0.4168447,-0.2785853,-3.022568,-0.8835551,0.2879777,1.460748,0.3151948,-0.2163747,0.2071107,-0.1738447,-1.104501,0.5828396,-0.01673584,0.4688032,1.493086,0.2046797,-0.1286121,1.35817,0.2636876,278.06,33.45258,218.8834,True
5,1.055557,-0.4357033,-0.3874169,-0.2383397,4.690448,-4.691905,-2.078275,0.1821177,1.304032,0.3614702,-1.018901,0.7159247,8.514586,29.61217,-0.2335583,0.2164277,0.3612669,-0.2835191,-2.998225,-0.9017708,0.2862332,1.460773,0.3140388,-0.1830463,0.2656169,-0.04097989,-1.100134,0.5883763,-0.018383,0.4671841,1.49327,0.2041538,-0.1316522,1.358443,0.2624431,277.7541,35.49778,216.483,True
5,1.066668,-0.3910143,-0.3201745,-0.2216668,4.692466,-4.692946,-2.075498,0.1798344,1.304911,0.3604879,-1.012433,0.5803637,8.779839,27.74802,-0.2950142,0.3207329,0.3054347,-0.2883554,-2.97911,-0.9146243,0.284266,1.460826,0.3130388,-0.1008434,0.2495806,0.07639811,-1.095308,0.5908641,-0.02149038,0.4653787,1.493463,0.203656,-0.1348358,1.358404,0.2615315,277.3979,34.9392,216.9985,True
5,1.077779,-0.3698188,-0.2146419,-0.211521,4.692925,-4.695511,-2.072181,0.177454,1.305439,0.3588598,-1.007707,0.4220551,9.098145,25.69102,-0.2884248,0.2621557,0.3084958,-0.2862685,-2.967698,-0.9228029,0.2826063,1.460939,0.3119383,-0.07066385,0.200563,0.1101395,-1.093148,0.5914817,-0.02183046,0.4637057,1.49369,0.2030451,-0.1379306,1.358175,0.2607717,277.1675,32.10106,220.0219,True
5,1.08889,-0.3911416,-0.1762485,-0.1956794,4.694562,-4.696629,-2.067008,0.1750218,1.306021,0.3578203,-0.9999227,0.7028311,9.389919,23.56975,-0.2376161,0.1035057,0.3430164,-0.2795243,-2.962744,-0.9268519,0.2807872,1.461229,0.3110077,-0.08113866,0.1643305,0.1262007,-1.09144,0.5921953,-0.02082965,0.4620103,1.493809,0.2023866,-0.1408264,1.35776,0.2600321,276.9954,29.7351,222.6083,True
5,1.100002,-0.4103326,-0.1228785,-0.1671219,4.694785,-4.697608,-2.061804,0.1725784,1.306588,0.3570774,-0.9914507,0.7632132,9.628648,21.81273,-0.1946169,0.01837939,0.3606634,-0.2744654,-2.955323,-0.9333722,0.278918,1.461317,0.3098624,-0.1164736,0.1600677,0.1095228,-1.090781,0.5940939,-0.01908767,0.4604574,1.49388,0.2017145,-0.1437271,1.357139,0.2592779,276.8335,28.67867,223.8501,True
5,1.111113,-0.3996618,-0.09932461,-0.1427565,4.695751,-4.698169,-2.057714,0.170051,1.306903,0.3559718,-0.9818782,0.8637245,9.761274,20.54853,-0.1682397,0.04086737,0.3359988,-0.2740766,-2.943015,-0.9439785,0.2767609,1.461458,0.3087366,-0.1444208,0.1632693,0.08531813,-1.090595,0.5963445,-0.01770256,0.4587816,1.493798,0.2010658,-0.1468297,1.356339,0.2585317,276.7001,27.60771,225.0524,True
5,1.122224,-0.3676752,-0.1066835,-0.1299887,4.697487,-4.698405,-2.054686,0.1675683,1.307319,0.3549688,-0.974203,0.68953,9.734747,19.71288,-0.1409772,0.04210251,0.2793301,-0.2737751,-2.938028,-0.9480675,0.2746064,1.4614,0.3074832,-0.1478489,0.1611532,0.06297994,-1.090662,0.5982868,-0.01683171,0.4571021,1.493893,0.2004297,-0.1501162,1.355479,0.2578196,276.4615,25.1666,227.5148,True
5,1.133335,-0.327155,-0.1332672,-0.1288769,4.70046,-4.698486,-2.052527,0.165119,1.307797,0.3539107,-0.9681293,0.544982,9.522545,19.1772,-0.1358206,0.04428513,0.2579924,-0.2729128,-2.930046,-0.9543241,0.2723407,1.461496,0.3062901,-0.1375709,0.1654442,0.02666084,-1.091477,0.6005203,-0.01683331,0.4552244,1.493999,0.1998234,-0.153467,1.354727,0.2571824,276.2438,21.82405,230.888,True
5,1.144446,-0.299488,-0.1514858,-0.1608021,4.703849,-4.699924,-2.050216,0.1625937,1.308184,0.3527839,-0.9622145,0.5315835,9.23077,18.77009,-0.1532232,0.0475011,0.2123198,-0.2729106,-2.926169,-0.9557747,0.2700903,1.461317,0.3049884,-0.1323995,0.1633251,0.01169061,-1.091916,0.6024545,-0.01644901,0.453429,1.494108,0.1992047,-0.1567091,1.354081,0.2565365,276.1056,19.55678,233.3163,True
5,1.155557,-0.2761407,-0.1431603,-0.2130776,4.706778,-4.703029,-2.047944,0.1599799,1.308957,0.3524189,-0.9561046,0.5494114,8.885942,18.32012,-0.1716003,0.05709144,0.1815806,-0.2731993,-2.920983,-0.958126,0.2678542,1.46119,0.3036759,-0.1238146,0.159056,0.01799065,-1.091429,0.6041637,-0.01612145,0.4515588,1.494345,0.1985404,-0.1597365,1.353456,0.2557841,275.9753,18.55873,234.498,True
5,1.166668,-0.2452501,-0.1612938,-0.2268963,4.710176,-4.704562,-2.046185,0.1570955,1.309419,0.3515065,-0.9489738,0.6426141,8.620689,17.8273,-0.2098089,0.09846324,0.2170907,-0.273186,-2.904426,-0.9703755,0.2655117,1.461009,0.302382,-0.1020903,0.1718175,0.05825507,-1.089396,0.6068597,-0.0169907,0.4495402,1.494538,0.1978617,-0.1626077,1.352745,0.2548521,275.7983,18.67949,234.5019,True
5,1.17778,-0.2217785,-0.1750595,-0.2151507,-1.570051,-4.705119,-2.044513,0.1543589,1.310062,0.3508117,-0.942155,0.613583,8.461537,17.39876,-0.2235842,0.1388671,0.2428371,-0.2735546,-2.886352,-0.9848008,0.2631448,1.460883,0.3011823,-0.0697085,0.1867096,0.09841291,-1.086975,0.609775,-0.01878328,0.4474211,1.494661,0.1971133,-0.1655802,1.351925,0.2538415,275.5015,18.51991,234.554,True
5,1.188891,-0.233502,-0.1473092,-0.2014036,-1.56868,-4.706316,-2.041649,0.1516896,1.310448,0.3504338,-0.9360932,0.5448385,8.328911,17.05592,-0.2043156,0.1080321,0.2426499,-0.2721511,-2.877847,-0.9914616,0.2606793,1.460701,0.3000181,-0.06085546,0.2026717,0.1292224,-1.08474,0.6129133,-0.01996652,0.4451883,1.494879,0.1962917,-0.1688577,1.351073,0.2530695,275.1348,17.15455,235.6608,True
5,1.200002,-0.3007178,-0.05790012,-0.1984883,-1.569892,-4.709279,-2.035956,0.1490602,1.310729,0.3493612,-0.9298315,0.563718,8.275862,16.7988,-0.2035523,0.06019145,0.1839741,-0.2712259,-2.879539,-0.9876069,0.2581479,1.460505,0.2987485,-0.07547142,0.2111713,0.1581448,-1.082072,0.6159702,-0.02008956,0.4429508,1.494982,0.1955385,-0.1723611,1.350141,0.252574,274.8726,15.23884,237.5532,True
5,1.211113,-0.3220778,-0.01750821,-0.2125019,-1.569557,-4.712272,-2.031836,0.1462768,1.311045,0.3487637,-0.9225701,0.6552605,8.355438,16.64881,-0.2133748,0.1006727,0.1681435,-0.272631,-2.870336,-0.9937676,0.2555834,1.460371,0.297653,-0.09012038,0.1973084,0.1827868,-1.079503,0.618009,-0.01961951,0.4408651,1.494989,0.1948955,-0.1758508,1.349098,0.2522817,274.6848,12.07365,240.8283,True
5,1.222224,-0.3209714,-0.04527986,-0.2252,-1.566972,1.568992,-2.028328,0.1432192,1.311429,0.3479726,-0.9139809,0.7762418,8.488064,16.34883,-0.2109413,0.1432,0.2246557,-0.2728419,-2.8506,-1.01053,0.2531215,1.460147,0.296495,-0.08455325,0.1600091,0.205076,-1.076465,0.6186069,-0.01917236,0.4385659,1.495069,0.194242,-0.1793043,1.34805,0.252187,274.61,7.513316,245.5293,True
5,1.233335,-0.3315943,-0.05903855,-0.206979,-1.565261,1.568012,-2.02448,0.1402725,1.312082,0.3480127,-0.9100251,0.3518717,8.700266,15.87744,-0.1997108,0.1548303,0.3045019,-0.271399,-2.825648,-1.032803,0.2506183,1.459618,0.2953832,-0.06522004,0.1386967,0.2197788,-1.073594,0.6196409,-0.01961471,0.4362857,1.495152,0.1937702,-0.1828656,1.347322,0.2522882,274.6335,1.58972,251.6557,True
5,1.244446,-0.3634998,-0.05260248,-0.1824924,-1.564412,1.56724,-2.01931,0.1370779,1.31246,0.3472476,-0.9058028,0.3800665,8.859415,15.2132,-0.2174998,0.1674803,0.3515314,-0.2705255,-2.80425,-1.050408,0.2482248,1.459088,0.2944214,-0.04810154,0.1514793,0.2270669,-1.070878,0.6221007,-0.02085149,0.4339928,1.495248,0.1931794,-0.1864543,1.347031,0.2525925,274.5683,358.3067,255.1723,True
5,1.255558,-0.4401321,-0.06840492,-0.1375857,-1.563653,1.566846,-2.011522,0.1338449,1.314101,0.3497076,-0.9007157,0.4587227,8.965518,14.33469,-0.1963556,0.1920816,0.3396983,-0.2716643,-2.787512,-1.064889,0.2455963,1.458757,0.2936733,-0.009571567,0.1951551,0.2448019,-1.067725,0.626563,-0.02426007,0.431511,1.495213,0.1926467,-0.1899996,1.347117,0.2529873,274.4215,357.5838,256.123,True
5,1.266669,-0.4582191,-0.06306084,-0.1248129,-1.56275,1.566243,-2.006005,0.1305069,1.314632,0.3496532,-0.8948152,0.5327035,9.018568,13.43475,-0.1450739,0.1357735,0.337083,-0.2695945,-2.776565,-1.075584,0.2430431,1.458637,0.2928813,0.02129149,0.2207336,0.2423702,-1.065138,0.6305246,-0.0274532,0.429069,1.495359,0.1921837,-0.1934402,1.347547,0.2534255,274.3665,357.8738,256.0118,True
5,1.27778,-0.4614042,-0.06615087,-0.1076943,-1.561847,1.565948,-2.000705,0.1272496,1.315049,0.3489578,-0.8879006,0.6250834,9.098145,12.32055,-0.09351137,-0.006805286,0.3364757,-0.2633605,-2.772361,-1.080498,0.2403316,1.458611,0.2921243,0.01990929,0.2015758,0.2125525,-1.063679,0.6322855,-0.02824895,0.4265743,1.495548,0.1916091,-0.196937,1.348388,0.2538389,274.3135,356.9241,256.9076,True
5,1.288891,-0.441151,-0.0735573,-0.103419,-1.560439,1.565436,-1.996551,0.1242732,1.315573,0.3482668,-0.8860614,0.1605382,9.177716,10.94922,-0.1202763,-0.05581774,0.2993297,-0.2605626,-2.76838,-1.081979,0.2377133,1.458445,0.2911747,-0.02185975,0.1440496,0.1905778,-1.062175,0.6318881,-0.02631496,0.4240596,1.495641,0.1908329,-0.2005496,1.349941,0.2545872,274.1739,353.8317,259.6472,True
5,1.300002,-0.4177372,-0.07572424,-0.1183575,-1.558913,1.564133,-1.992644,0.1213813,1.316139,0.3475404,-0.8828198,0.2929,9.310343,9.492177,-0.1629276,-0.03464724,0.3028868,-0.259189,-2.755751,-1.090902,0.2352161,1.458152,0.2903421,-0.03878278,0.1014264,0.2013785,-1.059576,0.6316533,-0.02517033,0.4215676,1.495727,0.1904235,-0.2040508,1.352025,0.255509,274.1836,358.1432,255.5918,True
5,1.311113,-0.4316739,-0.08424424,-0.1448516,-1.55725,1.561323,-1.98715,0.1189136,1.317637,0.3496103,-0.880374,0.2187212,9.416446,8.206554,-0.1950132,0.05684462,0.3224595,-0.260585,-2.733912,-1.10877,0.2327411,1.457949,0.2894762,-0.02371021,0.08436167,0.2161334,-1.056505,0.6321628,-0.02576289,0.4191414,1.495826,0.1899333,-0.2072533,1.354283,0.2562312,274.3587,6.388697,247.9449,True
5,1.322224,-0.4369824,-0.0821113,-0.1395477,-1.555888,1.560451,-1.982067,0.1158133,1.318159,0.3492241,-0.8772532,0.2813112,9.496022,7.049495,-0.1971375,0.117521,0.3470743,-0.2615853,-2.711791,-1.12784,0.2302963,1.457752,0.2886229,0.02630787,0.1003563,0.211362,-1.054334,0.6341445,-0.02876374,0.4166835,1.495924,0.1895878,-0.2100832,1.35638,0.2564848,274.5498,14.50257,240.3084,True
5,1.333336,-0.4262078,-0.1426829,-0.1149039,-1.552904,1.560797,-1.977361,0.1126629,1.319673,0.3523097,-0.8723946,0.4396709,9.602121,5.999572,-0.1539968,0.1601272,0.4331001,-0.261254,-2.679517,-1.15883,0.2277715,1.457734,0.2879078,0.07178719,0.1429799,0.1810987,-1.053306,0.6374347,-0.0326176,0.4142771,1.496134,0.1891484,-0.2126874,1.35815,0.2563545,274.4889,19.55906,235.0734,True
5,1.344447,-0.3898367,-0.2810868,-0.1068879,-1.545447,1.562947,-1.974321,0.1090937,1.320041,0.3522997,-0.8697831,0.233431,9.681698,4.949645,-0.06622088,0.09428845,0.4621494,-0.2576358,-2.659596,-1.180421,0.2252229,1.457639,0.2872279,0.07453784,0.1802997,0.1384743,-1.053403,0.6412218,-0.0355026,0.4119002,1.496271,0.1888862,-0.2153147,1.359782,0.2564693,274.1942,21.21806,232.7599,True
5,1.355558,-0.3717507,-0.3131859,-0.1429965,-1.540052,1.562145,-1.970824,0.1059921,1.320493,0.3521569,-0.8677926,0.178871,9.761274,3.749732,-0.06748605,0.06451274,0.4248241,-0.2559266,-2.648275,-1.190537,0.2227127,1.457318,0.2865145,0.0488755,0.1813689,0.1302189,-1.052245,0.6435779,-0.03618464,0.4094737,1.496168,0.1887276,-0.2182565,1.361388,0.2569236,273.9854,23.07645,230.4832,True
5,1.366669,-0.3419843,-0.2918924,-0.1623533,-1.537102,1.560045,-1.967884,0.1034577,1.321411,0.3537211,-0.8673276,0.03977514,9.70822,2.956929,-0.1251612,0.04201318,0.3964704,-0.2545236,-2.635474,-1.199495,0.2200176,1.457097,0.2857583,0.009482801,0.1526018,0.1327339,-1.05068,0.644487,-0.03534175,0.4069986,1.496057,0.1887653,-0.2214483,1.363005,0.2579403,273.7625,26.76227,226.5603,True
5,1.37778,-0.2909262,-0.2418364,-0.1775665,-1.535272,1.558149,-1.966391,0.100927,1.321525,0.3535275,-0.865179,0.1950515,9.655171,2.549817,-0.1680167,0.05790108,0.3712586,-0.2543532,-2.621478,-1.20971,0.2173395,1.456825,0.2850063,-0.01384941,0.1003898,0.1414639,-1.048808,0.6437681,-0.03404159,0.4045527,1.496009,0.1885939,-0.2247483,1.364308,0.258987,273.8161,35.17284,218.7105,True
5,1.388891,-0.1886906,-0.243975,-0.2022322,-1.53127,1.556319,-1.967525,0.09817523,1.321062,0.3528612,-0.8640008,0.1051484,9.575595,2.399828,-0.1987628,0.1495515,0.2874784,-0.2586691,-2.613619,-1.214145,0.2146943,1.456439,0.2844627,-0.03789792,0.07800545,0.1853836,-1.045252,0.6445161,-0.03317207,0.4019914,1.496215,0.1885533,-0.2279244,1.36515,0.2598596,273.7944,40.16068,214.0802,True
5,1.400002,-0.1844192,-0.2535532,-0.201131,-1.527543,1.555494,-1.965599,0.09542486,1.320958,0.3528609,-0.8639327,0.004508028,9.602121,2.421253,-0.1726126,0.1987047,0.243678,-0.2619506,-2.603925,-1.222433,0.2121034,1.455866,0.2839181,-0.03976309,0.1205987,0.2120658,-1.042068,0.6477597,-0.03428873,0.3995415,1.496195,0.1885288,-0.230773,1.365623,0.2608241,273.6137,40.99784,213.1921,True
5,1.411114,-0.2067801,-0.2674354,-0.2042258,-1.523608,1.554666,-1.962283,0.09253857,1.320692,0.3529665,-0.8651652,-0.1136374,9.655171,2.3784,-0.1466631,0.1808272,0.1475748,-0.2634149,-2.607047,-1.218647,0.2095838,1.455144,0.2835977,-0.03452431,0.165357,0.2045828,-1.040335,0.6518766,-0.03619129,0.3970678,1.496056,0.1880186,-0.2333947,1.365713,0.2617829,273.6387,42.56927,211.8994,True
5,1.422225,-0.2078419,-0.2738376,-0.2063268,-1.519695,1.553722,-1.959878,0.08981058,1.32055,0.3530252,-0.8608732,0.3923837,9.70822,2.46411,-0.1566,0.185128,0.1039775,-0.2655198,-2.605322,-1.218238,0.2071452,1.454418,0.2833505,-0.02165321,0.2122268,0.2140684,-1.037811,0.6566464,-0.03879214,0.3946744,1.495926,0.1880896,-0.235977,1.365196,0.2624888,273.7684,47.13991,207.7513,True
5,1.433336,-0.2035846,-0.2428589,-0.1872907,-1.517659,1.553041,-1.957739,0.08714697,1.320503,0.3534443,-0.8579608,0.2620101,9.734747,2.785515,-0.1759383,0.157432,0.07212326,-0.2664455,-2.603932,-1.216866,0.2046628,1.453705,0.2830384,0.02445748,0.2186079,0.2434254,-1.034184,0.6596768,-0.04209073,0.3923592,1.495637,0.1881082,-0.238835,1.364205,0.262836,273.6238,48.92459,206.1664,True
5,1.444447,-0.1843885,-0.2245371,-0.154425,-1.515756,1.552265,-1.956141,0.08479509,1.321314,0.3559749,-0.8578947,0.003662332,9.761274,3.235481,-0.181411,0.05098021,0.0123368,-0.2642106,-2.614435,-1.204523,0.2020901,1.453223,0.2829828,0.06295693,0.2292716,0.2568846,-1.030985,0.6633396,-0.04601862,0.3899742,1.495517,0.1881378,-0.242016,1.363047,0.2628528,273.1862,48.36052,206.7329,True
5,1.455558,-0.1545707,-0.2405617,-0.1714457,-1.511866,1.551235,-1.955329,0.08209029,1.321103,0.3562372,-0.857572,0.02927356,9.814323,3.492605,-0.1705204,0.02328208,0.03244998,-0.2631352,-2.611708,-1.20564,0.199526,1.452763,0.2828193,0.05205563,0.2452619,0.2335695,-1.029371,0.6672451,-0.04818271,0.3877412,1.495455,0.1882734,-0.2452437,1.361972,0.2626689,272.6344,46.35756,208.5849,True
5,1.466669,-0.1034295,-0.2383541,-0.1651444,-1.50881,1.550602,-1.95567,0.07943222,1.320875,0.3563981,-0.8575038,0.005590724,9.840847,3.706876,-0.1598701,0.04034498,0.03878463,-0.2639928,-2.607188,-1.208608,0.1969986,1.452534,0.2828009,0.003681287,0.2612565,0.191467,-1.028902,0.6712425,-0.04865622,0.3855895,1.495308,0.1884871,-0.2482793,1.36122,0.2625713,272.0311,42.05537,212.3837,True
5,1.47778,-0.05543688,-0.2402883,-0.1311199,-1.506206,1.551345,-1.956715,0.07688832,1.320654,0.3566837,-0.8577323,-0.02133394,9.8939,3.835439,-0.1253966,-0.03416053,0.05970854,-0.2610004,-2.606738,-1.208789,0.194482,1.452346,0.2825656,-0.0465639,0.2281954,0.09934354,-1.029433,0.672996,-0.04760773,0.383494,1.495175,0.1887779,-0.2510068,1.361004,0.2630256,271.5532,40.68907,213.1912,True
5,1.488891,0.03089195,-0.2741942,-0.1162255,-1.502127,1.551527,-1.959756,0.07511303,1.320883,0.3587582,-0.8582937,-0.05156928,9.999999,3.985428,-0.09624867,-0.0692917,0.0967117,-0.2584001,-2.601091,-1.214007,0.1919541,1.452058,0.2823181,-0.0586879,0.2379072,0.03229771,-1.032472,0.6760269,-0.04811267,0.381284,1.495106,0.1891809,-0.2535682,1.361189,0.26392,271.5756,51.09604,202.8955,True
5,1.500003,0.02228391,-0.1900586,-0.1197752,-1.502311,1.549877,-1.959595,0.0732497,1.319957,0.358892,-0.8583304,-0.003439566,10.15915,4.371115,-0.05892594,-0.09580368,0.09105596,-0.2562302,-2.600589,-1.215143,0.1893973,1.451666,0.2819798,-0.08154345,0.2773482,-0.0132486,-1.034374,0.6809353,-0.04902187,0.3790971,1.495051,0.1895714,-0.2559581,1.361484,0.264994,271.9445,60.21835,194.1908,True
5,1.511114,0.07548638,-0.1153153,-0.09673588,-1.503706,1.548895,-1.961332,0.07130685,1.319327,0.3601191,-0.859654,-0.1215575,10.39788,4.671093,-0.1073402,0.01488566,0.07244131,-0.2598697,-2.594914,-1.217806,0.1868971,1.450878,0.2820878,-0.09850076,0.2869268,-0.004537642,-1.03401,0.6850104,-0.04954172,0.3767615,1.49507,0.1901641,-0.2580302,1.361571,0.2660284,272.2466,65.93424,188.6956,True
5,1.522225,0.112747,-0.09398815,-0.1000814,-1.502585,1.548099,-1.963853,0.06952944,1.318407,0.3601611,-0.8560609,0.3291506,10.68966,4.842509,-0.1644235,0.1756072,0.05396245,-0.266755,-2.585284,-1.223361,0.1844352,1.450217,0.2818756,-0.09491696,0.2858374,0.03271171,-1.032627,0.6887311,-0.05049593,0.374435,1.495018,0.1906466,-0.2596248,1.361171,0.267171,272.4459,72.03361,182.5087,True
5,1.533336,0.1724217,-0.07994986,-0.07147272,-1.502215,1.548204,-1.967384,0.06749371,1.31775,0.3603375,-0.8569621,-0.08566573,11.00796,5.078208,-0.2441641,0.3363455,-0.00269118,-0.2762641,-2.580299,-1.222796,0.1821003,1.449672,0.2819598,-0.04204683,0.2804734,0.09715515,-1.029398,0.6921424,-0.05359185,0.3720694,1.495051,0.1913276,-0.2612689,1.360352,0.2684278,272.5545,71.21824,183.332,True
5,1.544447,0.155357,-0.02871586,-0.04294049,-1.503662,1.548177,-1.968565,0.06574932,1.317055,0.3604031,-0.8574036,-0.03970962,11.27321,5.485321,-0.294324,0.2978899,-0.0289984,-0.2782561,-2.582074,-1.216224,0.1799466,1.448905,0.2818162,0.0308215,0.3007039,0.1379539,-1.026944,0.6969364,-0.05880233,0.3697976,1.494976,0.1919198,-0.2630936,1.359171,0.2698264,272.5777,68.24387,186.4295,True
5,1.555558,0.1575023,0.005540952,-0.01326026,-1.505132,1.547758,-1.969993,0.06396368,1.317214,0.3625298,-0.8578388,-0.03993297,11.51194,6.085279,-0.2684254,0.2404106,-0.007984966,-0.2785224,-2.578876,-1.217318,0.1776007,1.44839,0.2817674,0.07348271,0.315624,0.143918,-1.025441,0.7017151,-0.06330813,0.3675458,1.494925,0.192549,-0.2650725,1.357531,0.2711001,272.5389,66.29759,188.7929,True
5,1.566669,0.199106,0.03253743,0.05473825,-1.507757,1.54961,-1.973363,0.06166548,1.316289,0.3634448,-0.8550473,0.2551838,11.61804,6.685236,-0.1925034,0.1394315,-0.009799071,-0.2766108,-2.581632,-1.215358,0.1753873,1.447897,0.2821047,0.06867945,0.3284431,0.09177944,-1.026465,0.7063517,-0.06620166,0.3653744,1.494732,0.1932142,-0.2672534,1.355472,0.2720354,272.3597,62.05445,193.4079,True
5,1.577781,0.21824,0.0463194,0.03547398,-1.508544,1.54902,-1.976386,0.0595845,1.315371,0.3635716,-0.8546654,0.03240719,11.67109,7.499465,-0.151391,0.004422963,-0.1179244,-0.2741937,-2.604864,-1.192641,0.1730792,1.44769,0.2823617,0.02239072,0.3114186,0.04537386,-1.02772,0.7096634,-0.06661978,0.3631973,1.494537,0.193907,-0.2695366,1.353236,0.2726251,271.8622,51.2808,204.1342,True
5,1.588892,0.2245483,0.1294186,0.03187043,-1.512235,1.546703,-1.978768,0.05779234,1.314828,0.3646724,-0.8561807,-0.1387763,11.64456,8.635095,-0.160708,-0.1713288,-0.1511587,-0.2680994,-2.625354,-1.1707,0.1706001,1.447231,0.282479,0.004900441,0.2922937,0.0007998347,-1.029143,0.7130355,-0.06797373,0.3610524,1.494091,0.1943579,-0.2718982,1.351226,0.2732475,271.3299,33.04352,221.9209,True
5,1.600003,0.2245189,0.2275976,0.07085975,-1.518406,1.546303,-1.981223,0.05595773,1.313667,0.3647554,-0.8558303,0.03304506,11.56498,10.07071,-0.198169,-0.1011346,-0.146501,-0.2696536,-2.628585,-1.164097,0.1681888,1.446542,0.2827199,0.03970934,0.2933893,-0.03258775,-1.030816,0.7167388,-0.07139216,0.3588579,1.493834,0.1951001,-0.2742741,1.34943,0.2739002,271.32,19.71616,235.1533,True
5,1.611114,0.2095799,0.2980243,0.1003985,-1.523986,1.54608,-1.98289,0.05394486,1.312148,0.3643544,-0.8548987,0.08453358,11.48541,11.74202,-0.1585854,0.03118202,-0.2115823,-0.2760153,-2.635555,-1.156849,0.1659047,1.445852,0.2829609,0.0661976,0.3051289,-0.04564077,-1.031891,0.7211405,-0.07523376,0.35663,1.493788,0.1960018,-0.2765781,1.347726,0.2745377,271.3703,13.67149,241.2274,True
5,1.622225,0.2032049,0.3076912,0.1195432,-1.528237,1.546377,-1.984997,0.05186674,1.310976,0.3644857,-0.8544998,0.03560614,11.43236,13.30619,-0.1120332,0.003707662,-0.2641854,-0.277193,-2.652593,-1.140724,0.1635467,1.445261,0.2832098,0.07029603,0.3467032,-0.0616495,-1.033705,0.7274341,-0.07951533,0.3543687,1.493776,0.1969862,-0.2787454,1.346171,0.2754003,271.5321,3.962314,250.828,True
5,1.633336,0.1339462,0.2852019,0.1048264,-1.530528,1.545954,-1.984026,0.04979676,1.309744,0.3647401,-0.8535037,0.09085643,11.35279,14.50611,-0.09028182,-0.1155647,-0.2517691,-0.2728547,-2.669564,-1.124002,0.1613084,1.444429,0.2838304,0.08085491,0.3743955,-0.07024205,-1.034897,0.7331012,-0.08366454,0.3520717,1.493788,0.197583,-0.2807717,1.344748,0.2763731,272.0075,0.241431,254.7622,True
5,1.644447,0.1201658,0.2563428,0.09002504,-1.532726,1.545358,-1.984864,0.04768172,1.308584,0.3645535,-0.8537077,-0.01949145,11.24668,15.38461,-0.1170506,-0.2061117,-0.3039122,-0.2703353,-2.695017,-1.09712,0.1590429,1.443546,0.2842572,0.09659895,0.3818713,-0.09277339,-1.037132,0.7381612,-0.0878654,0.3497515,1.493645,0.1982505,-0.2827947,1.343404,0.2771687,272.4736,0.3744919,255.0262,True
5,1.655559,0.1510272,0.2179762,0.07738105,-1.533766,1.545456,-1.987606,0.04578814,1.307513,0.3646798,-0.850709,0.2744239,11.08753,16.07028,-0.1279112,-0.1688419,-0.316554,-0.2717783,-2.709171,-1.081696,0.1567084,1.442792,0.2845588,0.129992,0.349911,-0.05799679,-1.036989,0.7415169,-0.09215576,0.3474989,1.493544,0.1991565,-0.2848585,1.342088,0.2776588,272.718,0.9188629,254.6898,True
5,1.66667,0.1797252,0.2402677,0.0559328,-1.536575,1.544084,-1.990542,0.04407448,1.306108,0.3633904,-0.8523149,-0.1491303,10.90185,16.3274,-0.1258426,-0.06023303,-0.2823087,-0.2756255,-2.709331,-1.080283,0.1543993,1.442208,0.2848649,0.1507809,0.2976812,-0.006035134,-1.035249,0.7434239,-0.09541947,0.3451639,1.493203,0.1996884,-0.287055,1.340885,0.277879,272.7891,359.0648,256.5561,True
5,1.677781,0.1701787,0.3031433,0.06946108,-1.541648,1.542765,-1.991542,0.0422124,1.305192,0.3634405,-0.8544779,-0.1961763,10.74271,16.26312,-0.1268748,-0.09218654,-0.2898155,-0.2753368,-2.724419,-1.064251,0.1521288,1.441561,0.2851262,0.1417431,0.2688814,0.04623936,-1.033284,0.7460571,-0.09802803,0.3427803,1.493002,0.2002666,-0.2892232,1.339806,0.2778921,272.8233,357.9962,257.5689,True
5,1.688892,0.2213069,0.2136765,0.05811299,-1.541425,1.543575,-1.996341,0.03989431,1.30446,0.3626883,-0.8548241,-0.03016833,10.58355,15.92029,-0.1257479,-0.1220084,-0.2930708,-0.2747349,-2.740453,-1.047426,0.1500026,1.441148,0.2856612,0.1399329,0.2571407,0.07714432,-1.031777,0.7492349,-0.1010414,0.340437,1.49264,0.2007334,-0.291112,1.338646,0.2777357,272.91,359.7939,255.7885,True
5,1.700003,0.2352166,0.1465799,0.05945159,-1.541105,1.544442,-1.999523,0.03777331,1.303843,0.3629203,-0.8527452,0.1899899,10.45093,15.36319,-0.05364696,-0.2230892,-0.2373291,-0.2700807,-2.753302,-1.036754,0.1480299,1.44068,0.2861872,0.1323371,0.2358422,0.06335939,-1.031711,0.7513829,-0.103337,0.3381142,1.492398,0.201237,-0.2928503,1.337281,0.2773726,273.1273,1.104743,254.5163,True
5,1.711114,0.1937165,0.1327832,0.08086682,-1.542695,1.545339,-2.000171,0.0355601,1.302662,0.3620076,-0.8560987,-0.3083241,10.3183,14.84894,-0.02042122,-0.309271,-0.2451811,-0.2663023,-2.775219,-1.016524,0.1458814,1.440165,0.2865155,0.1310465,0.2252029,0.04206276,-1.032239,0.7538587,-0.10598,0.3358405,1.49222,0.2018142,-0.2948022,1.335894,0.2769605,273.3517,358.0771,257.4503,True
5,1.722225,0.106355,0.1551155,0.08942157,-1.54548,1.545519,-1.998233,0.03343788,1.301841,0.362185,-0.8546569,0.1345287,10.29178,14.37754,-0.04153585,-0.3019219,-0.2173084,-0.2642772,-2.786694,-1.004324,0.1436651,1.439394,0.2866657,0.1349429,0.2188362,0.006861143,-1.033566,0.7562591,-0.108813,0.3335019,1.492023,0.2023058,-0.2969458,1.33436,0.2763897,273.3182,357.072,258.4431,True
5,1.733337,0.06587248,0.1423007,0.0873787,-1.546938,1.545197,-1.997535,0.03153738,1.301555,0.3629017,-0.8517572,0.2635451,10.3183,13.99186,-0.0589757,-0.05276785,-0.1709673,-0.2713772,-2.771781,-1.017143,0.1413573,1.438478,0.2869537,0.1486574,0.2220561,-0.00713902,-1.034518,0.7594014,-0.1127271,0.331147,1.491898,0.2030554,-0.2991801,1.332584,0.2757304,273.2675,355.1042,260.3099,True
5,1.744448,0.04565068,0.1124368,0.08327842,-1.547433,1.545837,-1.99734,0.02936146,1.301082,0.363095,-0.8490307,0.2472303,10.4244,13.67045,-0.052725,0.03564335,-0.1548947,-0.2749027,-2.769066,-1.01948,0.1391068,1.437876,0.2871323,0.1947306,0.2156586,0.01794529,-1.033697,0.7620284,-0.1178414,0.3288199,1.491747,0.2035589,-0.30157,1.330709,0.27496,273.4077,350.5117,264.8101,True
5,1.755559,-0.01401137,0.08775849,0.05470839,-1.547274,1.545454,-1.995476,0.02695665,1.300129,0.3624518,-0.8503697,-0.1240686,10.55703,13.34904,-0.08761445,0.002471358,-0.1323089,-0.2738822,-2.774784,-1.011765,0.1368957,1.437172,0.2873976,0.2309983,0.199702,0.02074529,-1.033604,0.7643458,-0.1229446,0.3265417,1.491306,0.2036862,-0.3040442,1.329121,0.2743031,273.6073,341.114,273.8581,True
5,1.76667,-0.04809874,0.07918011,0.04839983,-1.54804,1.545448,-1.993888,0.02454451,1.299391,0.3617659,-0.8513694,-0.08986566,10.61008,13.00621,-0.1468759,-0.05102438,-0.1010494,-0.2716233,-2.780338,-1.002579,0.1346151,1.436974,0.2877104,0.2510749,0.1826724,0.004544273,-1.034365,0.7658806,-0.1273438,0.3241827,1.491116,0.2040889,-0.3063791,1.328107,0.2740255,273.7306,332.9637,281.6513,True
5,1.777781,-0.01716489,0.03126429,0.04749961,-1.547106,1.54648,-1.994771,0.02226666,1.299204,0.3620398,-0.8500949,0.1173647,10.6366,12.64195,-0.09238992,-0.08602809,-0.09407204,-0.2704456,-2.787758,-0.9961786,0.1324125,1.436517,0.2878587,0.2010465,0.1869459,0.008255392,-1.034602,0.7688572,-0.1293955,0.3218417,1.491186,0.204767,-0.3086209,1.327697,0.2741019,273.7277,332.026,282.6069,True
5,1.788892,-0.0001286103,-0.006127839,0.0199409,-1.545512,1.546371,-1.995389,0.02005091,1.298934,0.3622963,-0.8505135,-0.03914157,10.6366,12.25627,-0.06339692,-0.05405549,-0.05163303,-0.27046,-2.78408,-1.000154,0.1301686,1.436082,0.288053,0.1658398,0.1933419,0.003290817,-1.035167,0.7717568,-0.131647,0.3194296,1.491199,0.2053678,-0.3109253,1.327793,0.2743124,273.6845,336.7049,278.2628,True
5,1.800003,-0.008674682,-0.01477084,-0.003445245,-1.544555,1.545839,-1.995125,0.01777777,1.298143,0.3612263,-0.8532577,-0.2502436,10.6366,11.91343,-0.04517107,-0.04764509,-0.03365191,-0.270133,-2.783071,-1.0012,0.1279315,1.435724,0.2881012,0.1339625,0.1848065,0.01107517,-1.03504,0.7739581,-0.1331141,0.3170823,1.491067,0.2056983,-0.3132004,1.328276,0.2744614,273.6791,342.092,273.1559,True
5,1.811115,-0.03638002,-0.006280666,-0.003436408,-1.544853,1.54592,-1.993783,0.01558757,1.297787,0.361104,-0.8533785,-0.00892528,10.6366,11.69916,-0.07747427,-0.02425204,-0.06852401,-0.2714837,-2.78934,-0.9930504,0.1256492,1.435266,0.2882192,0.1362492,0.1709536,0.02595384,-1.034507,0.7758176,-0.1357922,0.3147492,1.490952,0.2061327,-0.3152382,1.328884,0.274516,273.5383,347.4849,267.7791,True
5,1.822226,-0.04705891,-0.02559196,-0.03209877,-1.543513,1.545125,-1.99287,0.01345208,1.29761,0.3613229,-0.8524747,0.08248173,10.68966,11.63488,-0.1042365,0.008699521,-0.0725266,-0.2730092,-2.789864,-0.9904834,0.1234186,1.434826,0.2883055,0.1538004,0.1496337,0.07261829,-1.032493,0.7774866,-0.1391366,0.3123755,1.490848,0.2065127,-0.317152,1.32937,0.274516,273.395,354.6185,260.6568,True
5,1.833337,-0.05345317,-0.03950525,-0.04375067,-1.542191,1.544726,-1.992167,0.0111531,1.29705,0.3605716,-0.8513519,0.102022,10.74271,11.72059,-0.1255462,0.01927857,-0.0680985,-0.2738326,-2.791079,-0.9871784,0.1211438,1.434489,0.2884393,0.1722106,0.1400266,0.1011943,-1.030516,0.7792303,-0.1425193,0.3100353,1.49072,0.2067673,-0.3191231,1.329571,0.2743539,273.404,1.077862,254.3251,True
5,1.844448,-0.06090484,-0.06513052,-0.05534498,-1.540346,1.544458,-1.991236,0.009086579,1.296869,0.3608909,-0.8518403,-0.04535242,10.82228,11.78487,-0.125321,0.01497251,-0.04040861,-0.2735615,-2.789446,-0.9873664,0.1190341,1.434073,0.2884741,0.1894244,0.1283094,0.1169825,-1.029034,0.7808893,-0.1460131,0.307742,1.490536,0.207067,-0.321217,1.32955,0.2740754,273.4039,2.156047,253.1816,True
5,1.855559,-0.09071579,-0.08648734,-0.06055976,-1.538324,1.544108,-1.989372,0.007017821,1.296823,0.3612533,-0.8522558,-0.03739664,10.92838,11.76344,-0.09313525,0.02034449,-0.008694066,-0.273235,-2.785723,-0.9910491,0.1170642,1.433501,0.288445,0.2022173,0.132573,0.117917,-1.027905,0.7829939,-0.149847,0.3055101,1.490371,0.2073686,-0.3234264,1.329372,0.2737961,273.2778,1.759279,253.4877,True
5,1.86667,-0.1130968,-0.09935097,-0.07431865,-1.536357,1.543549,-1.987313,0.004930884,1.296583,0.3616364,-0.8521716,0.008037056,11.08753,11.65631,-0.07615528,0.04702108,-0.006653067,-0.2744776,-2.783444,-0.9928893,0.1150108,1.433186,0.2885029,0.1861134,0.1506987,0.1063747,-1.027571,0.7860136,-0.152854,0.3033197,1.490193,0.2076082,-0.3257006,1.329036,0.2734919,273.1465,1.671968,253.5618,True
5,1.877781,-0.1365302,-0.1100424,-0.07956632,-1.53459,1.543106,-1.985004,0.002681881,1.296178,0.3614459,-0.8513556,0.07461625,11.19363,11.5706,-0.07083348,0.08429972,0.007215831,-0.276124,-2.777381,-0.9980848,0.1129951,1.432787,0.2885945,0.1645723,0.1624264,0.08423476,-1.027721,0.7886161,-0.1552913,0.3011904,1.489994,0.2078836,-0.3279083,1.328604,0.2732871,272.9613,359.4703,255.594,True
5,1.888893,-0.1290405,-0.135575,-0.07522743,-1.532127,1.543069,-1.984025,0.000690788,1.296453,0.3623607,-0.8512576,0.008447535,11.27321,11.63488,-0.04619778,0.1109561,0.03476559,-0.2770614,-2.769238,-1.006221,0.1110119,1.432257,0.2888353,0.165549,0.1581736,0.07569739,-1.027409,0.790583,-0.1581755,0.2991126,1.489775,0.208106,-0.3300946,1.328245,0.2732955,272.7714,355.8087,259.078,True
5,1.900004,-0.1087504,-0.1899622,-0.08994424,-1.527807,1.543431,-1.983498,-0.001237601,1.296449,0.3627715,-0.8512176,0.003787559,11.32626,11.8063,-0.01975593,0.04293991,-0.01668342,-0.2766236,-2.778248,-0.9982191,0.1090996,1.431757,0.2889709,0.1762922,0.1496482,0.08410247,-1.026429,0.7923984,-0.1614264,0.2969807,1.489558,0.2083912,-0.3322887,1.328074,0.2735608,272.6367,354.1735,260.6958,True
5,1.911115,-0.08319749,-0.2252104,-0.1164559,-1.523685,1.542847,-1.98343,-0.00319013,1.296192,0.3626788,-0.8527021,-0.135622,11.27321,12.02057,-0.0306142,-0.01028146,-0.06356686,-0.2762913,-2.789809,-0.9862261,0.1072492,1.431356,0.2890594,0.1954934,0.1400949,0.08494733,-1.025804,0.7945986,-0.1655075,0.2950454,1.48925,0.2083631,-0.3344972,1.328153,0.2739922,272.5416,353.7127,261.2472,True
5,1.922226,-0.08215424,-0.2284754,-0.1324221,-1.520465,1.54207,-1.982534,-0.005063385,1.29599,0.363065,-0.8533711,-0.05991479,11.16711,12.21341,-0.04678121,0.003550813,-0.08259642,-0.2775461,-2.793832,-0.9812715,0.1054017,1.430733,0.2891092,0.2007535,0.1358389,0.07849741,-1.025411,0.7962732,-0.1687866,0.2929908,1.489064,0.2085786,-0.3365017,1.328454,0.2746022,272.3596,354.3548,260.6398,True
5,1.933337,-0.1034984,-0.1677823,-0.1305295,-1.520012,1.540837,-1.98072,-0.007019132,1.295305,0.3624587,-0.8538861,-0.04676307,11.08753,12.51339,-0.03173194,0.05679522,-0.04428402,-0.2793123,-2.786143,-0.9887675,0.1034831,1.430213,0.2891595,0.1892094,0.1241071,0.0956589,-1.023921,0.7976959,-0.1710759,0.2909731,1.48887,0.208811,-0.3382659,1.328814,0.2752618,272.1371,0.834058,254.3499,True
5,1.944448,-0.1279876,-0.1613506,-0.1166731,-1.518366,1.540662,-1.978449,-0.008945554,1.294804,0.3629591,-0.8530579,0.07608017,11.03448,12.87765,0.01233041,0.08026291,0.01507426,-0.2794141,-2.776819,-0.9993453,0.1014647,1.429582,0.2890987,0.1563882,0.1091747,0.1140899,-1.022302,0.7988366,-0.1723268,0.288936,1.488602,0.2089548,-0.3399313,1.329057,0.2758527,271.9946,11.67102,243.7156,True
5,1.955559,-0.1652699,-0.1625176,-0.1294008,-1.515685,1.539843,-1.975632,-0.01096362,1.29397,0.3623004,-0.8520613,0.0904344,11.00796,13.22048,-0.01240641,0.1430523,0.008973703,-0.2824783,-2.769932,-1.00509,0.09953329,1.428869,0.2891405,0.107421,0.1027599,0.1178059,-1.020979,0.8000231,-0.1725449,0.2867547,1.488308,0.2091172,-0.341659,1.329123,0.2763659,271.9974,19.92953,235.5967,True
5,1.966671,-0.1588704,-0.1656883,-0.125134,-1.513422,1.539455,-1.974055,-0.01279774,1.29363,0.3626795,-0.8515495,0.04617867,11.06101,13.45618,-0.03521761,0.1494543,-0.04517652,-0.2851436,-2.774271,-0.9996143,0.09758726,1.42833,0.2892473,0.1002705,0.09530573,0.1466321,-1.018788,0.8018851,-0.1745332,0.2846563,1.487976,0.2092645,-0.3435579,1.329026,0.2767174,272.0853,23.38995,232.2787,True
5,1.977782,-0.1098448,-0.2040387,-0.1335589,-1.509463,1.539267,-1.974467,-0.0145998,1.293136,0.3625941,-0.8511676,0.03468791,11.14058,13.45618,-0.04790923,0.1515258,-0.03229207,-0.286587,-2.771128,-1.001662,0.09572682,1.427536,0.2894411,0.1358938,0.08569693,0.1909979,-1.015331,0.8033083,-0.1779354,0.2825085,1.487696,0.2095044,-0.3455583,1.328799,0.2769036,272.0521,25.7549,230.0023,True
5,1.988893,-0.06617136,-0.2178966,-0.1431429,-1.506093,1.538761,-1.975051,-0.01637423,1.292828,0.362838,-0.8525194,-0.1237226,11.29973,13.41333,-0.04815833,0.161153,-0.06104233,-0.2890563,-2.77164,-1.000676,0.09391958,1.426911,0.2896917,0.194621,0.1208541,0.2042547,-1.013234,0.8066972,-0.1837965,0.2804004,1.487555,0.2098238,-0.3476189,1.328496,0.2768359,271.9074,28.24031,227.6084,True
5,2.000004,-0.001199855,-0.2232172,-0.154932,-1.502805,1.537887,-1.977151,-0.01799318,1.292448,0.363272,-0.8546872,-0.1970633,11.53846,13.41333,-0.01717551,0.1282232,-0.06239839,-0.2898851,-2.773439,-0.999748,0.09214827,1.426549,0.2898538,0.230858,0.13897,0.2060173,-1.011324,0.8097066,-0.1891547,0.2783434,1.487286,0.2100484,-0.3495345,1.328163,0.2766311,271.6907,30.97137,224.7816,True
5,2.011115,0.02645104,-0.1955114,-0.1604197,-1.50102,1.536555,-1.977919,-0.01932675,1.291859,0.3635859,-0.8549631,-0.02373293,11.83024,13.52046,-0.002973221,0.08773159,-0.03168062,-0.2891511,-2.77219,-1.001333,0.09052157,1.426016,0.2899296,0.2647112,0.1400624,0.1822089,-1.01069,0.8119296,-0.1943668,0.2764731,1.486918,0.2101817,-0.3512346,1.327688,0.2763412,271.5174,39.24535,216.3872,True
5,2.022226,0.02429126,-0.1571488,-0.1573903,-1.499948,1.535216,-1.978035,-0.02079102,1.291246,0.3640294,-0.8562345,-0.116392,12.04244,13.69188,0.007891241,0.01106593,-0.03401909,-0.2872283,-2.778208,-0.9959993,0.08894849,1.425426,0.2899208,0.2463501,0.1070512,0.1578781,-1.009786,0.8122148,-0.1965906,0.27452,1.486644,0.2104092,-0.3528251,1.327025,0.2761101,271.3764,48.68789,206.728,True
5,2.033337,0.01470006,-0.156091,-0.1573791,-1.497773,1.53431,-1.977622,-0.02227566,1.290477,0.3645751,-0.8547671,0.1349264,12.17507,13.88472,0.06207328,0.0559724,-0.03542892,-0.2891245,-2.776209,-1.000165,0.08720189,1.424553,0.2900612,0.1917021,0.08894412,0.1286149,-1.009264,0.8126816,-0.197031,0.2725216,1.486363,0.2105098,-0.3542836,1.326059,0.2761149,271.3015,58.28429,196.8989,True
5,2.044448,0.00296425,-0.1625639,-0.173313,-1.494899,1.53282,-1.977123,-0.02380082,1.289736,0.3650417,-0.8537029,0.09583313,12.22811,14.16327,0.07894521,0.08054049,-0.04830609,-0.2911453,-2.775785,-1.001965,0.0854789,1.423881,0.2902918,0.159634,0.1006724,0.1183071,-1.008523,0.8150192,-0.199091,0.2705503,1.486082,0.2105298,-0.3557091,1.32481,0.2764739,271.1896,61.20124,193.8459,True
5,2.055559,-0.001314094,-0.1561636,-0.1712049,-1.492647,1.531653,-1.976675,-0.02526286,1.289105,0.3658476,-0.8529455,0.06850178,12.22811,14.54896,0.06131014,0.158337,-0.09491901,-0.2962634,-2.775974,-1.001963,0.08360055,1.422924,0.2902966,0.1727698,0.127286,0.1522771,-1.006324,0.8183823,-0.2031265,0.2685931,1.485774,0.2105904,-0.3572808,1.323431,0.277216,271.0054,60.20621,194.85,True
5,2.06667,0.02643339,-0.1741589,-0.1488012,-1.489836,1.531771,-1.977897,-0.02687177,1.288273,0.3656912,-0.8528166,0.01129756,12.22811,14.95607,0.02046953,0.2093878,-0.1211593,-0.3005963,-2.77514,-1.001509,0.08185232,1.422002,0.2905476,0.2051476,0.1123785,0.1902716,-1.003322,0.820487,-0.2078714,0.2665678,1.485417,0.2106774,-0.3589936,1.322024,0.2782676,270.7838,61.3807,193.8383,True
5,2.077781,0.02537581,-0.163455,-0.1371288,-1.488002,1.531313,-1.978116,-0.02825701,1.287514,0.3660946,-0.8528571,-0.003731292,12.14854,15.08464,-0.007526398,0.2221438,-0.1550148,-0.30472,-2.777878,-0.9978002,0.08021802,1.421205,0.2908633,0.2451575,0.06227452,0.2462964,-0.9984627,0.8203727,-0.2119107,0.2645055,1.484949,0.2108281,-0.3608017,1.320689,0.2795472,270.5432,67.18314,188.2429,True
5,2.088892,0.02432678,-0.1324366,-0.1063728,-1.487453,1.531286,-1.978257,-0.02961603,1.286575,0.3658502,-0.8544022,-0.1412665,11.98939,15.02035,0.03424467,0.1402421,-0.1575995,-0.3045266,-2.785273,-0.9926059,0.0786497,1.420644,0.2912099,0.2666954,0.03031668,0.2673582,-0.994909,0.8207263,-0.2156742,0.2626156,1.484591,0.2109461,-0.3625894,1.319504,0.2809579,270.3748,69.19697,186.5368,True
5,2.100003,0.05308551,-0.1228095,-0.1032618,-1.486091,1.530766,-1.979755,-0.03084153,1.285652,0.3660717,-0.8535245,0.08138178,11.83024,14.80608,0.07163022,0.06261533,-0.1750576,-0.3042715,-2.796069,-0.9844013,0.07710671,1.419931,0.2914453,0.2825483,0.04630627,0.2554829,-0.9927061,0.8226119,-0.2204069,0.2606787,1.484274,0.2110291,-0.3642439,1.318376,0.282182,270.3779,70.71712,185.4786,True
5,2.111114,0.0839019,-0.1090609,-0.1353256,-1.484463,1.528595,-1.981326,-0.03178594,1.284816,0.3668556,-0.8532113,0.02777473,11.72414,14.57039,0.1116616,-0.01914112,-0.2660516,-0.3052489,-2.81917,-0.9649125,0.07560202,1.418907,0.2915263,0.2887761,0.08999108,0.2415952,-0.9912136,0.8261455,-0.22561,0.2588105,1.484152,0.2111731,-0.3657214,1.317265,0.283077,270.3805,66.63855,189.892,True
5,2.122225,0.07428966,-0.08351593,-0.1375583,-1.48365,1.52712,-1.981637,-0.03313091,1.283805,0.366467,-0.8545072,-0.1187352,11.61804,14.44182,0.08292064,0.05103029,-0.2348249,-0.308483,-2.817313,-0.9666209,0.07402673,1.418093,0.2916319,0.2652516,0.1017108,0.2333219,-0.9892876,0.8285222,-0.2290809,0.2570114,1.483892,0.2112467,-0.3670416,1.316182,0.2835119,270.3917,60.80417,195.9403,True
5,2.133336,0.09132755,-0.06216513,-0.1302211,-1.483128,1.526063,-1.983102,-0.03437075,1.28285,0.3663609,-0.8547192,-0.01842979,11.48541,14.4204,0.05828771,0.09143985,-0.235637,-0.3120069,-2.820073,-0.9637548,0.07239991,1.417308,0.2917535,0.2578075,0.08784412,0.2355403,-0.9864897,0.8296053,-0.2321874,0.255226,1.483616,0.2112432,-0.368142,1.315026,0.2835988,270.3887,82.30015,174.3125,True
5,2.144447,0.1307696,-0.05451751,-0.1047473,-1.48316,1.525635,-1.985762,-0.03498536,1.282733,0.3691072,-0.8532512,0.1341436,11.32626,14.37754,0.004061162,0.2147508,-0.174306,-0.317575,-2.807916,-0.9734999,0.0710839,1.416718,0.2917871,0.2821854,0.03033365,0.2224598,-0.9842148,0.8283899,-0.2354522,0.2536558,1.483139,0.2110465,-0.3691623,1.313758,0.2836596,270.4635,108.2304,148.0817,True
5,2.155558,0.1574237,-0.03733297,-0.07823174,-1.483311,1.525567,-1.988419,-0.03589475,1.281787,0.3691986,-0.8540955,-0.07837592,11.14058,14.31326,0.006473958,0.1891486,-0.1477337,-0.3190057,-2.807284,-0.974285,0.06983083,1.416058,0.2918217,0.2853607,0.01968259,0.2202891,-0.9819133,0.828875,-0.2389481,0.2520147,1.482842,0.211036,-0.3704337,1.312462,0.2837375,270.4715,115.3596,140.8939,True
5,2.166669,0.1499584,-0.005310446,-0.06344002,-1.484213,1.525025,-1.989602,-0.03679284,1.280935,0.3694899,-0.8552049,-0.1007689,10.92838,14.33469,0.01502246,0.157225,-0.1563809,-0.3206723,-2.812405,-0.96989,0.06866446,1.415326,0.2919939,0.2693282,0.02289026,0.2151286,-0.9799192,0.8302308,-0.2421173,0.2504317,1.48249,0.2110386,-0.3716799,1.311101,0.2839402,270.4078,141.6839,114.281,True
5,2.17778,0.1531393,0.04164531,-0.04554285,-1.486251,1.524257,-1.991334,-0.03775886,1.279864,0.3695867,-0.855051,0.01471248,10.74271,14.4204,0.02462253,0.1199892,-0.1692991,-0.3220571,-2.818161,-0.9649868,0.06741291,1.414594,0.2921205,0.2276176,0.01650072,0.1995816,-0.9782478,0.8307222,-0.2435234,0.2489187,1.482182,0.2110257,-0.3725964,1.309693,0.2846873,270.4343,179.8963,75.595,True
5,2.188891,0.1648914,0.03213487,-0.03165885,-1.486351,1.524426,-1.993642,-0.03886685,1.278709,0.3699496,-0.8533834,0.1521238,10.61008,14.59181,0.05472245,0.09553443,-0.1429449,-0.3227783,-2.819578,-0.9651605,0.0660747,1.413749,0.2923756,0.2145654,-0.001592107,0.1730651,-0.9771996,0.8302924,-0.2453514,0.2473032,1.481899,0.2109792,-0.3734405,1.308221,0.285799,270.3375,192.5915,63.06734,True
5,2.200002,0.1233391,0.04917273,-0.02527753,-1.487288,1.523959,-1.993569,-0.0398148,1.277552,0.3701255,-0.8536534,-0.02608691,10.50398,14.65609,0.07931259,0.07110238,-0.1410426,-0.3235858,-2.823449,-0.9631777,0.0647853,1.412864,0.2925858,0.2312331,-0.02393807,0.1366545,-0.9767431,0.8291203,-0.2478103,0.2457401,1.481518,0.2110317,-0.3743994,1.306739,0.2870481,270.2103,231.4708,24.60844,True
5,2.211113,0.0935031,0.06732318,-0.01145741,-1.48884,1.523755,-1.993388,-0.04070911,1.276376,0.3702793,-0.854112,-0.04164334,10.4244,14.4204,0.06490763,0.08714873,-0.206963,-0.3275427,-2.832314,-0.9548705,0.06351319,1.411938,0.2927444,0.2588812,-0.00794962,0.1310387,-0.9756501,0.8301017,-0.2523199,0.2441057,1.481148,0.2111232,-0.3754887,1.305241,0.2882291,270.2264,287.0898,329.4042,True
5,2.222224,0.0807464,0.0727296,0.008774435,-1.48999,1.52403,-1.993988,-0.04161146,1.275444,0.3702877,-0.8517833,0.2132293,10.39788,13.949,0.03726584,0.1256171,-0.3238804,-0.3342512,-2.846203,-0.9411398,0.06229433,1.41097,0.2928524,0.2845559,0.03786396,0.1414433,-0.9743457,0.8330911,-0.2579956,0.242593,1.480792,0.2111809,-0.3766416,1.303622,0.2891923,270.2812,305.2963,311.4729,True
5,2.233335,0.09886044,0.06421421,0.006655917,-1.490409,1.523865,-1.995699,-0.04249224,1.274497,0.370295,-0.8514701,0.02683188,10.39788,13.54189,0.0493246,0.1287734,-0.2781583,-0.3365559,-2.847552,-0.9407899,0.06104353,1.410144,0.2930462,0.3037708,0.05704209,0.146594,-0.9727675,0.8351915,-0.263033,0.2410738,1.48045,0.2112124,-0.3778301,1.301967,0.2898813,270.4789,302.2656,314.6463,True
5,2.244446,0.09033315,0.0673985,0.005589865,-1.491197,1.523531,-1.996411,-0.04331666,1.273576,0.3703117,-0.8523564,-0.08094002,10.37135,13.13477,0.0380722,0.07327635,-0.2387429,-0.3363317,-2.852275,-0.9364399,0.05985764,1.409361,0.2930489,0.3271787,0.06877484,0.1431452,-0.9718349,0.8370845,-0.2686533,0.2395899,1.480212,0.2113304,-0.3789624,1.300434,0.2902749,270.7641,298.4315,318.5567,True
5,2.255557,0.07647138,0.08229987,0.005543144,-1.492551,1.522984,-1.996746,-0.04415742,1.272587,0.3703599,-0.8536704,-0.1193927,10.34483,12.72766,0.03067473,0.0615306,-0.2355095,-0.3380516,-2.857941,-0.9311759,0.05872384,1.40857,0.2930753,0.3347097,0.05277954,0.150523,-0.9698801,0.8375618,-0.2728076,0.2381551,1.479852,0.2112894,-0.3799739,1.299112,0.290339,270.9784,295.6585,321.3731,True
5,2.266668,0.04344683,0.08975752,0.01301903,-1.493814,1.522903,-1.996011,-0.04510227,1.271501,0.3704419,-0.8528107,0.07956577,10.23872,12.23484,0.04495683,0.09447186,-0.1652592,-0.339601,-2.853033,-0.9367448,0.05762377,1.407869,0.2931755,0.3528525,0.001649499,0.1524295,-0.9677474,0.8361788,-0.2765474,0.2367685,1.479599,0.2112942,-0.3808263,1.297941,0.2901288,271.006,293.8811,323.0826,True
5,2.277779,0.01041533,0.1004,0.01728028,-1.495255,1.522657,-1.994921,-0.04598913,1.270511,0.3704894,-0.8523479,0.04152006,10.15915,11.84915,0.04271081,0.1360101,-0.1641091,-0.343021,-2.851821,-0.9383318,0.05652615,1.407181,0.2931542,0.3572065,-0.01859552,0.1608945,-0.9655088,0.83578,-0.2804458,0.2354133,1.479347,0.2112825,-0.3816069,1.296901,0.2897723,270.9905,293.7827,322.9958,True
5,2.28889,0.005122927,0.08868433,0.01733967,-1.496223,1.522121,-1.994768,-0.04674998,1.269627,0.3707442,-0.8513007,0.09553778,10.1061,11.72059,0.01068875,0.1380584,-0.170258,-0.3456852,-2.854802,-0.9344284,0.05538258,1.406564,0.293246,0.3309978,-0.01225758,0.2027284,-0.9618629,0.8369824,-0.2837433,0.2340764,1.479161,0.2111099,-0.3824127,1.295995,0.2894143,270.9588,296.2143,320.3432,True
5,2.300001,0.02537567,0.05998908,0.02809199,-1.495933,1.523291,-1.995864,-0.04759276,1.268971,0.3707943,-0.8510286,0.02420829,10.13263,11.76344,-0.009771928,0.1455015,-0.1956545,-0.3489258,-2.858231,-0.9303674,0.05443168,1.405813,0.2933185,0.2736405,0.0005067587,0.2193182,-0.9590661,0.8385665,-0.2856762,0.2328743,1.47895,0.2109916,-0.3833081,1.295241,0.2891366,270.9516,299.5931,316.7983,True
5,2.311112,0.0584467,0.001426949,0.02723744,-1.494254,1.524328,-1.997716,-0.04833856,1.26852,0.3709641,-0.8521684,-0.1042081,10.23872,11.93486,-0.0001980066,0.1391485,-0.2000029,-0.351508,-2.861566,-0.9275995,0.05337879,1.405172,0.293396,0.2404926,-0.01119788,0.2068685,-0.9572685,0.8386773,-0.2872395,0.231665,1.478621,0.2107711,-0.3842188,1.29467,0.2889942,270.9677,301.4993,314.7758,True
5,2.322223,0.09255864,-0.03799669,0.01883991,-1.492574,1.525007,-2.000041,-0.04906872,1.268017,0.3709769,-0.8535186,-0.1224381,10.4244,12.08485,0.01482689,0.1125527,-0.1959009,-0.3529599,-2.865547,-0.9246128,0.0524835,1.404643,0.2934589,0.2181928,-0.04316166,0.213484,-0.9542878,0.8376285,-0.2884166,0.230487,1.478427,0.2106261,-0.3850062,1.294232,0.2890386,270.9302,303.6218,312.6017,True
5,2.333334,0.09894682,-0.06148292,0.00508265,-1.491162,1.52508,-2.001239,-0.04987782,1.267243,0.3711309,-0.8543741,-0.07725882,10.61008,12.42768,0.01617165,0.08268299,-0.1714516,-0.3533621,-2.868141,-0.9224295,0.05160132,1.404084,0.293561,0.2128558,-0.07192959,0.2135276,-0.9513631,0.8362557,-0.2897248,0.2293595,1.478149,0.2106245,-0.3856354,1.293809,0.2891514,270.8228,307.7465,308.5616,True
5,2.344445,0.1053282,-0.04763487,0.002883106,-1.491292,1.525025,-2.00261,-0.0505546,1.266462,0.3711815,-0.8547991,-0.03846433,10.79576,12.81337,0.01006208,0.03256967,-0.1533803,-0.3529903,-2.873019,-0.917602,0.05066112,1.403618,0.2935646,0.1902803,-0.04847415,0.1935237,-0.9502963,0.8372374,-0.2917229,0.2283222,1.477952,0.2106223,-0.386136,1.293254,0.2892329,270.6519,311.0036,305.407,True
5,2.355556,0.1074414,-0.04554976,-0.007782415,-1.49073,1.524796,-2.003824,-0.0512338,1.265784,0.371244,-0.8535863,0.1110656,10.92838,13.13477,0.003027342,0.05800854,-0.08829983,-0.353263,-2.868262,-0.9219134,0.04977778,1.403133,0.2934322,0.1710383,-0.01331621,0.1884308,-0.9486781,0.8393998,-0.2940931,0.2272235,1.477726,0.2105958,-0.3866356,1.292433,0.2892516,270.4669,316.3217,300.1241,True
5,2.366668,0.1085158,-0.05939627,-0.008789185,-1.489697,1.525104,-2.005044,-0.05190089,1.26511,0.3713577,-0.8535186,0.005123947,10.98143,13.28477,-0.007776827,0.1229451,-0.0827779,-0.3565014,-2.86359,-0.9258719,0.04892898,1.402522,0.2933528,0.1611367,0.04317204,0.1587281,-0.9489338,0.8428511,-0.2976029,0.2262519,1.477587,0.2106273,-0.387283,1.291308,0.2892639,270.3937,316.5177,299.8679,True
5,2.377779,0.125603,-0.09770409,-0.002253611,-1.487594,1.526315,-2.007133,-0.05251572,1.264568,0.3714063,-0.8533226,0.01790917,10.98143,13.37047,-0.02657062,0.1805264,-0.1496558,-0.3621223,-2.865788,-0.9228764,0.0481033,1.401971,0.293263,0.1609289,0.0527611,0.140634,-0.9482356,0.8441112,-0.2999367,0.2253767,1.477455,0.2105935,-0.3880464,1.289921,0.2893165,270.4942,307.4856,308.8465,True
5,2.38889,0.1309373,-0.1211556,-0.005358227,-1.485528,1.527031,-2.008677,-0.0529952,1.263958,0.3713448,-0.8532187,0.009322057,10.92838,13.49904,-0.0338216,0.1793954,-0.1229588,-0.3636515,-2.863619,-0.924318,0.04727662,1.401429,0.2931514,0.1618014,0.03998014,0.1225063,-0.9474131,0.8441253,-0.301713,0.2245022,1.47736,0.2104998,-0.3888907,1.288355,0.2894177,270.6864,293.0237,323.306,True
5,2.400001,0.1383745,-0.1180051,-0.0171014,-1.484163,1.527066,-2.010428,-0.05342233,1.263349,0.3713248,-0.8539495,-0.06693322,10.8488,13.71331,-0.04880297,0.08674388,-0.1677384,-0.3637319,-2.874375,-0.9133263,0.04644057,1.401133,0.2930236,0.1604806,0.02934118,0.09801079,-0.9471948,0.8441635,-0.3034904,0.2236196,1.477309,0.210463,-0.3897117,1.286694,0.2895238,270.9384,281.858,334.5296,True
5,2.411112,0.1511341,-0.1052424,-0.0246295,-1.483405,1.526918,-2.012466,-0.0539141,1.262597,0.3714058,-0.8534494,0.04626232,10.71618,13.97043,-0.05395932,0.06114663,-0.154964,-0.3646027,-2.877788,-0.9093134,0.04561913,1.40072,0.2929702,0.1497919,0.02188148,0.09491796,-0.9463181,0.8444925,-0.304879,0.2226828,1.477192,0.2103255,-0.3903873,1.284977,0.2895306,271.172,274.1695,342.3214,True
5,2.422223,0.1617762,-0.1020611,-0.02998611,-1.482289,1.526892,-2.014618,-0.05434862,1.261966,0.3714797,-0.8535724,-0.01173467,10.66313,14.22755,-0.0398621,0.08987747,-0.111348,-0.3660025,-2.873358,-0.9135047,0.04485342,1.400317,0.2928469,0.114796,0.01973672,0.1101992,-0.9446802,0.8452974,-0.3053423,0.2218508,1.477109,0.2102523,-0.3909181,1.283264,0.289397,271.407,269.0154,347.52,True
5,2.433334,0.1692423,-0.1105903,-0.03102106,-1.48062,1.527354,-2.016778,-0.05505773,1.261437,0.3715665,-0.8538212,-0.02266842,10.6366,14.48468,-0.03042863,0.1303954,-0.1156192,-0.3692388,-2.871732,-0.91502,0.04403627,1.399786,0.2927191,0.08739151,0.02610695,0.139253,-0.9424208,0.8468364,-0.3061551,0.220979,1.476964,0.2101223,-0.3913781,1.281635,0.2891919,271.6101,265.7432,350.7143,True
5,2.444445,0.2161836,-0.1690989,-0.02017845,-1.477011,1.529287,-2.021075,-0.05536714,1.260809,0.371464,-0.8538553,-0.002990173,10.6366,14.69895,-0.0283927,0.1996321,-0.1006111,-0.3734002,-2.86537,-0.9205797,0.0433386,1.399464,0.2926712,0.08462125,0.03247149,0.1797649,-0.9394455,0.8486769,-0.3080838,0.2201588,1.476762,0.2100086,-0.3918355,1.280105,0.2890195,271.7495,263.8261,352.4953,True
5,2.455556,0.1469351,-0.09870123,0.01263543,-1.478588,1.529763,-2.020308,-0.05559441,1.260248,0.3712966,-0.8537199,0.01227536,10.61008,14.78466,-0.03255066,0.172982,-0.09742679,-0.374825,-2.865552,-0.9199293,0.04276076,1.399139,0.2926753,0.09747656,0.0356515,0.1870993,-0.9372319,0.8499649,-0.3103848,0.2193663,1.4767,0.2099288,-0.3923458,1.278669,0.2889287,271.8647,261.7777,354.455,True
5,2.466667,0.1352026,-0.06991553,0.01998206,-1.478956,1.530119,-2.021489,-0.05581126,1.259636,0.3712206,-0.8555522,-0.1677302,10.55703,14.61324,-0.05533789,0.1314801,-0.1676325,-0.3773656,-2.875093,-0.9096125,0.04234594,1.398615,0.2926683,0.1188495,0.03458136,0.1932628,-0.9351174,0.8512068,-0.3132455,0.2186325,1.476604,0.2098188,-0.3929044,1.277292,0.2888784,271.9539,259.0249,357.2433,True
5,2.477778,0.1351599,-0.04226308,0.01026453,-1.479163,1.529606,-2.022922,-0.05588672,1.259137,0.3711004,-0.8507282,0.4424255,10.4244,14.20613,-0.03072052,0.1059771,-0.162536,-0.3787787,-2.8784,-0.90696,0.04190627,1.39835,0.2927585,0.1433947,0.02711612,0.1972711,-0.9327903,0.8520182,-0.3161758,0.2180228,1.476454,0.2098365,-0.393185,1.275753,0.2887349,271.9921,256.7274,359.6342,True
5,2.488889,0.1362771,-0.06133077,0.0348518,-1.478417,1.531305,-2.024677,-0.05640519,1.258645,0.371124,-0.8521972,-0.1382706,10.23872,13.71331,0.01244581,0.07830632,-0.1011206,-0.3780575,-2.875509,-0.9113007,0.04146385,1.398027,0.2928298,0.1540712,0.02177842,0.1992874,-0.9306118,0.8528174,-0.3187101,0.2174031,1.47635,0.2099147,-0.3934809,1.274324,0.2884898,272.2866,261.5403,354.8325,True
5,2.5,0.123509,-0.07090142,0.04024375,-1.477751,1.532362,-2.025692,-0.0567809,1.258294,0.3712432,-0.8528805,-0.0607785,10.05305,13.22048,0.01465602,0.06232601,-0.09690272,-0.3789375,-2.877674,-0.9094312,0.04106843,1.397842,0.2929626,0.1369158,0.02071698,0.1888131,-0.9289932,0.8537145,-0.3202238,0.2168882,1.476211,0.2099257,-0.3937153,1.273128,0.2881808,272.5484,263.1039,353.2189,True
5,2.511111,0.1139323,-0.06659177,0.05089605,-1.477804,1.533409,-2.026731,-0.05723843,1.257819,0.3713317,-0.853084,-0.01818226,9.920423,12.79194,0.01261766,0.0622988,-0.084103,-0.379836,-2.877542,-0.909478,0.04049668,1.397612,0.2929752,0.1198157,0.02070369,0.1836676,-0.9272163,0.8545142,-0.321426,0.2162423,1.47614,0.2100174,-0.393894,1.272174,0.2878894,272.6703,262.3203,353.9135,True
5,2.522222,0.111796,-0.04738538,0.05827092,-1.47834,1.534202,-2.027985,-0.05749217,1.257373,0.3712728,-0.8524368,0.05927606,9.840847,12.57767,-0.01610072,0.03346722,-0.08925723,-0.3801311,-2.880641,-0.9054551,0.04007286,1.397442,0.2929332,0.09286055,0.02497949,0.1530572,-0.9267433,0.8552931,-0.3219429,0.2158307,1.476075,0.2100749,-0.3941584,1.271409,0.287582,272.6556,261.1483,355.0139,True
5,2.533333,0.1074728,-0.005894912,0.04635467,-1.479454,1.5334,-2.028866,-0.05754486,1.257138,0.3711429,-0.8524358,-0.0003348828,9.787797,12.32055,-0.03750383,0.03342463,-0.1018773,-0.3813695,-2.883521,-0.9016177,0.03967044,1.397184,0.2929306,0.0765167,0.0143396,0.1180664,-0.9266251,0.8549019,-0.3220446,0.2153869,1.476077,0.2101254,-0.3944881,1.270784,0.2872632,272.6326,260.3344,355.7402,True
5,2.544444,0.1042839,-0.005883941,0.04848987,-1.479684,1.533999,-2.030053,-0.05787429,1.256693,0.3711815,-0.852742,-0.02795947,9.814323,11.97771,-0.04078481,0.04514664,-0.1082333,-0.3830536,-2.884833,-0.8998944,0.03927317,1.396767,0.2929823,0.04288589,-0.009069448,0.05980385,-0.9277835,0.8531348,-0.3203066,0.2150898,1.476045,0.2103174,-0.3948327,1.270246,0.286955,272.6013,260.7051,355.2919,True
5,2.555555,0.09575886,-0.01551183,0.04108812,-1.479344,1.534396,-2.030881,-0.05812207,1.25639,0.3712068,-0.8525966,0.01357891,9.840847,11.74202,-0.03850953,0.1036761,-0.06660724,-0.3851932,-2.878458,-0.9054495,0.03886631,1.396508,0.2930996,0.02657808,-0.007988818,0.02909113,-0.9282251,0.852818,-0.3198395,0.214745,1.475959,0.2104163,-0.3950582,1.269737,0.2866765,272.6073,261.9671,353.9726,True
5,2.566666,0.0776521,-0.02086047,0.04007431,-1.479154,1.535006,-2.031191,-0.05842963,1.25598,0.3712592,-0.8527932,-0.01807371,9.8939,11.59203,-0.04048064,0.08872549,-0.05062931,-0.3854377,-2.877842,-0.9054114,0.03864327,1.396267,0.2931919,0.02554526,0.007982388,0.03230226,-0.9279689,0.8536952,-0.320664,0.2143469,1.475788,0.2105601,-0.3951971,1.269273,0.2865073,272.6422,262.7344,353.1392,True
5,2.577777,0.05529325,-0.02618259,0.04545721,-1.479013,1.535841,-2.031113,-0.05867204,1.255687,0.3713171,-0.8525183,0.0253015,9.973473,11.35633,-0.04896321,0.0312023,-0.06770347,-0.3850105,-2.883198,-0.8996049,0.03842145,1.396068,0.2933297,0.05438174,0.04951638,0.0405533,-0.9276648,0.8562514,-0.323663,0.2140521,1.475702,0.2106776,-0.3953461,1.268811,0.2864434,272.6077,262.6442,353.2015,True
5,2.588888,0.04144029,-0.01874349,0.04438072,-1.4793,1.536253,-2.03126,-0.05893853,1.255438,0.3713856,-0.852015,0.04585912,9.999999,10.97064,-0.02423527,-0.006041195,-0.0519782,-0.3840944,-2.885924,-0.8975082,0.0382458,1.395815,0.293545,0.06809504,0.0591012,0.02762649,-0.9280887,0.8570083,-0.3253392,0.2137773,1.475527,0.2108221,-0.395534,1.268316,0.2864498,272.5786,262.1825,353.6753,True
5,2.599999,0.03611351,-0.02729403,0.03909983,-1.478893,1.536744,-2.031525,-0.05916563,1.255237,0.3714645,-0.8516693,0.0312968,9.999999,10.56353,0.001620437,-0.01560932,-0.01810183,-0.383182,-2.884691,-0.8995588,0.03803104,1.395669,0.2936814,0.06144853,0.0473971,0.003185745,-0.9289132,0.8568387,-0.3257267,0.2134929,1.475472,0.2109566,-0.3957818,1.267797,0.2864845,272.5947,262.3547,353.5358,True
5,2.61111,0.03290737,-0.03264631,0.03166841,-1.478537,1.536976,-2.031799,-0.05926087,1.255054,0.371814,-0.8520427,-0.03423498,9.973473,10.2207,-0.001601619,0.005683491,-0.01271456,-0.3838776,-2.883184,-0.9007194,0.03785574,1.395528,0.293802,0.04877807,0.0239367,0.01503151,-0.9280056,0.8561926,-0.3252242,0.2132893,1.475395,0.2110858,-0.3960575,1.26731,0.2864982,272.6862,263.0284,352.8961,True
5,2.622221,0.02864925,-0.03798113,0.03063297,-1.478119,1.537505,-2.032034,-0.05944571,1.254908,0.3719604,-0.8523202,-0.02495921,9.973473,10.2207,-0.01867219,0.01734933,-0.01149955,-0.3844784,-2.882419,-0.9005628,0.03763387,1.395428,0.2939265,0.04469712,0.005815595,0.0321086,-0.9269281,0.8559103,-0.3254063,0.2130343,1.475253,0.2111688,-0.3963366,1.266909,0.2864818,272.7808,263.4471,352.4863,True
5,2.633332,0.02119163,-0.05079264,0.02537393,-1.477438,1.538014,-2.032037,-0.05967531,1.254985,0.3720901,-0.8524677,-0.01327302,9.94695,10.49925,-0.03595726,0.02587172,-0.03904746,-0.3857285,-2.884171,-0.8979039,0.0374127,1.395179,0.2940269,0.01817828,-0.006987687,0.04410272,-0.9257973,0.8555579,-0.324393,0.2128015,1.475254,0.2111852,-0.3965359,1.266586,0.2864477,272.8363,262.6802,353.2064,True
5,2.644443,0.02119535,-0.05505376,0.02539285,-1.476884,1.538611,-2.03233,-0.05987832,1.254839,0.3722267,-0.8524869,-0.001611831,9.973473,10.82066,-0.03482648,0.05141763,-0.02090956,-0.386699,-2.880928,-0.9006504,0.03718212,1.395107,0.2942166,0.007471841,-0.00272774,0.03888439,-0.9257105,0.8557205,-0.3242569,0.2125855,1.47519,0.2112861,-0.3966236,1.266334,0.2864608,272.8532,261.6574,354.1355,True
5,2.655554,0.02761262,-0.07741207,0.0276137,-1.475549,1.539719,-2.033003,-0.06003824,1.25489,0.3724341,-0.8523255,0.01480949,10.02653,11.20634,0.0003453493,0.03980697,-0.02332883,-0.3870553,-2.881065,-0.9016936,0.03707859,1.395118,0.2944317,0.0266948,0.0004611998,0.04401854,-0.9250474,0.8560745,-0.3253152,0.2122755,1.475095,0.2114246,-0.3967133,1.26617,0.2865096,272.8584,261.2274,354.5371,True
5,2.666665,0.03827141,-0.09020557,0.02233224,-1.474463,1.540432,-2.033892,-0.06015065,1.254635,0.3726764,-0.8526574,-0.03039058,10.13263,11.61346,0.006712696,0.002569884,-0.04048402,-0.3867016,-2.885423,-0.8978624,0.03704506,1.395015,0.2946167,0.06305831,-0.0006141737,0.05748613,-0.923996,0.8563769,-0.3274753,0.2121382,1.474996,0.2114532,-0.3965613,1.266086,0.2867492,272.78,261.1744,354.605,True
5,2.677776,0.04571719,-0.09877818,0.009575646,-1.473084,1.540762,-2.034674,-0.06019184,1.254576,0.3728533,-0.8530691,-0.03736065,10.23872,12.02057,-0.001670068,-0.01984207,-0.03086841,-0.385933,-2.887319,-0.8957979,0.03704321,1.394973,0.2947578,0.06948031,0.008969175,0.06062621,-0.9233164,0.8571796,-0.3289212,0.2119852,1.474921,0.2115397,-0.3968295,1.266031,0.2868072,272.8291,259.6086,356.2778,True
5,2.688887,0.0595441,-0.0956062,0.00208313,-1.472088,1.540982,-2.035668,-0.06009915,1.254556,0.3730016,-0.8533583,-0.02613333,10.34483,12.42768,-0.004661425,0.01097335,0.007560839,-0.3859096,-2.882008,-0.9005157,0.03709829,1.394908,0.2948837,0.0566643,0.003633566,0.05863274,-0.9226527,0.8571253,-0.32882,0.2119198,1.474894,0.2117069,-0.3969877,1.265957,0.2867698,272.7794,258.4384,357.4387,True
5,2.699998,0.05739484,-0.09032418,-0.007524977,-1.471183,1.540999,-2.036237,-0.05998233,1.254469,0.3732071,-0.8532832,0.007047666,10.39788,12.77051,-0.001730341,0.02062097,-0.02333996,-0.3872156,-2.884156,-0.8986094,0.03716943,1.394733,0.2949347,0.03534077,-0.03045688,0.05670255,-0.9216514,0.8556079,-0.3275571,0.2118944,1.474823,0.2117891,-0.3970199,1.265763,0.28666,272.6894,256.6192,359.1801,True
5,2.711109,0.03501729,-0.0829098,-0.01391988,-1.470465,1.540925,-2.035987,-0.05985075,1.254363,0.3734453,-0.853451,-0.01549783,10.47745,13.00621,0.004864462,0.04295162,0.0117994,-0.3873248,-2.879679,-0.9030188,0.03715867,1.394669,0.2950997,0.03611978,-0.04110055,0.0300559,-0.9218426,0.8542514,-0.327029,0.2119457,1.474745,0.2118483,-0.3969972,1.265315,0.2865053,272.7216,255.3935,0.2905768,True
5,2.72222,0.02434757,-0.07442508,-0.02033382,-1.469805,1.540756,-2.035873,-0.05973947,1.254236,0.3736825,-0.8530297,0.03864387,10.50398,13.1562,0.02172797,0.04623458,-0.01069586,-0.3883155,-2.880162,-0.903405,0.03716728,1.394581,0.2952101,0.05086518,-0.02831133,0.0139278,-0.92229,0.8542005,-0.328094,0.21196,1.474717,0.2118707,-0.3971094,1.263257,0.2867284,273.7297,245.9902,9.896159,True
5,2.733331,0.01155834,-0.05416362,-0.01294778,-1.469928,1.540831,-2.0356,-0.05949834,1.254271,0.3738356,-0.8521796,0.07741965,10.55703,13.30619,0.03974231,0.02075536,-0.03324706,-0.3885222,-2.883839,-0.9010544,0.03725743,1.394554,0.2953732,0.05822718,-0.02191669,0.005345499,-0.9223081,0.8541396,-0.3289084,0.2120964,1.474808,0.2118351,-0.3973446,1.260692,0.2874075,274.7502,245.9697,10.20292,True
5,2.744442,0.01048292,-0.04778616,-0.01510262,-1.469447,1.540852,-2.035714,-0.05927742,1.254251,0.3740413,-0.8523042,-0.01200213,10.58355,13.47761,0.04072262,0.01651872,-0.04604469,-0.3891134,-2.885638,-0.8998472,0.03737262,1.394433,0.2954955,0.03794606,-0.0261849,0.001294362,-0.9221605,0.8534045,-0.3281917,0.2122565,1.474797,0.2117977,-0.3978144,1.257969,0.2879424,275.6741,253.9222,2.147778,True
5,2.755553,0.01367444,-0.04459227,-0.01618681,-1.468991,1.540828,-2.03597,-0.05905876,1.254288,0.3742704,-0.8522376,0.006333002,10.58355,13.73473,0.04384982,0.0005728379,-0.06101156,-0.3895938,-2.88878,-0.8974006,0.03761676,1.394376,0.2957432,0.01880642,-0.04216825,0.004679163,-0.9216961,0.852267,-0.3270463,0.2123604,1.474792,0.2118022,-0.3981748,1.256235,0.2882415,276.0427,260.7761,355.2104,True
5,2.766664,0.005155475,-0.0467499,-0.02042519,-1.468267,1.540785,-2.035878,-0.0588811,1.254305,0.3745027,-0.8526973,-0.04202294,10.61008,14.05614,0.05999067,-0.01857674,-0.04732101,-0.3890133,-2.890345,-0.8971574,0.03776324,1.394338,0.2959278,0.02743552,-0.05816277,0.0152366,-0.9207277,0.8509403,-0.3267983,0.2123674,1.474766,0.2118876,-0.3981985,1.255652,0.2883081,276.3086,260.8204,355.1293,True
5,2.777775,-0.008707676,-0.03932855,-0.02576441,-1.467879,1.540461,-2.035293,-0.05866474,1.254373,0.3747816,-0.8529423,-0.02201956,10.68966,14.4204,0.0537285,-0.001589112,-0.02380814,-0.3891187,-2.888438,-0.8993229,0.03789204,1.394367,0.2960923,0.03818723,-0.05497203,0.02471515,-0.9199986,0.8505569,-0.3273539,0.2124459,1.474782,0.2119219,-0.397927,1.255606,0.2883056,276.4775,256.8699,359.1125,True
5,2.788886,-0.009773907,-0.03292209,-0.02152757,-1.467666,1.540505,-2.035149,-0.05847737,1.254397,0.3749983,-0.8526419,0.02760587,10.76923,14.93465,0.04112281,0.01005049,0.002934161,-0.38914,-2.885778,-0.9018843,0.03805509,1.394576,0.2962418,0.05230211,-0.04966425,0.05014322,-0.9185402,0.850701,-0.3285475,0.2124692,1.474911,0.2120745,-0.3975658,1.255752,0.2882913,276.5131,254.5096,1.429563,True
5,2.799997,0.005156433,-0.03713246,-0.01300826,-1.467227,1.540894,-2.035744,-0.05823877,1.25455,0.3752429,-0.8521913,0.04097234,10.87533,15.64174,0.02319825,-0.01665782,0.01687755,-0.3879001,-2.886311,-0.901096,0.03829786,1.394706,0.2963741,0.03958774,-0.05179972,0.05666229,-0.917581,0.8502229,-0.3282367,0.2126095,1.474918,0.2121823,-0.3972261,1.256065,0.2882981,276.4039,253.9925,1.825117,True
5,2.811108,0.02964898,-0.05316142,-0.0289512,-1.465831,1.540679,-2.036854,-0.0580661,1.254646,0.3753982,-0.8526195,-0.03942914,10.92838,16.26312,0.0265546,-0.01880611,0.03708803,-0.3871107,-2.884584,-0.9031253,0.03853607,1.394887,0.2965114,0.02666327,-0.03475553,0.04402553,-0.9175202,0.8502884,-0.3280418,0.2128727,1.474941,0.2122729,-0.3968674,1.256651,0.2884499,276.2313,253.2333,2.518005,True
5,2.822219,0.04348686,-0.05852322,-0.03960073,-1.464732,1.540351,-2.037766,-0.0578028,1.254794,0.3756025,-0.853411,-0.07197338,10.95491,16.60596,0.03259144,0.004708204,-0.0002077995,-0.3886516,-2.885759,-0.902618,0.03882742,1.395049,0.2967436,0.03403434,-0.02729473,0.03542227,-0.917532,0.8501641,-0.3286756,0.2131203,1.474985,0.2123861,-0.396506,1.257432,0.288556,275.928,254.7306,0.8835589,True
5,2.83333,0.04134706,-0.04255994,-0.04285837,-1.464579,1.539822,-2.038177,-0.05753633,1.254932,0.3759439,-0.8540278,-0.05584165,10.90185,16.73452,0.03805154,-0.004883103,0.01358036,-0.3881184,-2.885172,-0.9037567,0.03907111,1.395166,0.2969851,0.04003068,-0.01662117,-0.001913918,-0.9186915,0.8498257,-0.3290642,0.2134614,1.474967,0.2125354,-0.3960704,1.258327,0.2885309,275.5418,255.8418,359.6323,True
5,2.844441,0.0328297,-0.03400716,-0.03436147,-1.464493,1.539785,-2.038235,-0.05726355,1.255024,0.3761778,-0.8538041,0.02082993,10.82228,16.73452,0.04111853,-0.03039796,-0.01311819,-0.387736,-2.889313,-0.9004843,0.03935257,1.39521,0.2971914,0.01310133,-0.02299837,-0.03040808,-0.9197482,0.8486421,-0.3275704,0.2138831,1.475026,0.2127812,-0.3955748,1.259266,0.2884822,275.0854,254.182,1.203471,True
5,2.855552,0.01150645,-0.01804884,-0.03440182,-1.464662,1.539304,-2.03748,-0.05696747,1.255125,0.3764162,-0.8532033,0.05462275,10.71618,16.49882,0.03799471,-0.0304275,-0.003504197,-0.3872124,-2.889469,-0.9006134,0.03977504,1.395247,0.2974529,-0.01574667,-0.03472081,-0.03863918,-0.9201413,0.8472863,-0.3255792,0.2142566,1.475064,0.2129183,-0.3950655,1.260185,0.2885182,274.6404,251.9073,3.376284,True
5,2.866663,-0.00979814,-0.009493942,-0.02481793,-1.464924,1.53924,-2.036602,-0.05672267,1.255142,0.3767662,-0.8527058,0.0450419,10.55703,16.006,0.04118263,-0.01657628,0.0007552879,-0.3873232,-2.888523,-0.9020622,0.0400725,1.395345,0.2976933,-0.02884061,-0.033639,-0.06833053,-0.9216157,0.8461731,-0.3241155,0.2145991,1.475209,0.2130461,-0.394584,1.261083,0.2887739,274.2615,250.6216,4.586065,True
5,2.877774,-0.0374811,-0.003064593,-0.01095701,-1.465271,1.539498,-2.035247,-0.0564442,1.25527,0.3770318,-0.851934,0.07024841,10.4244,15.2132,0.03363707,-0.01977514,-0.01091058,-0.3874638,-2.889886,-0.9008039,0.04043922,1.395362,0.2979214,-0.01818891,-0.02618085,-0.06843614,-0.9223326,0.8458161,-0.3240473,0.2149441,1.475285,0.2131915,-0.3941301,1.262021,0.2892534,273.8946,250.1565,5.113282,True
5,2.888885,-0.05346186,-0.0009278008,-0.005651535,-1.465082,1.539117,-2.034062,-0.0560098,1.255661,0.3771765,-0.8517982,0.01192686,10.29178,14.50611,0.02300899,-0.0219412,-0.007638309,-0.387197,-2.890598,-0.8999511,0.04086751,1.395427,0.2981684,-0.005299993,-0.02086221,-0.05791484,-0.9225472,0.8456268,-0.3243222,0.2151918,1.475451,0.213269,-0.393794,1.263051,0.2899101,273.5095,249.54,5.903549,True
5,2.899997,-0.06408915,-0.01794854,0.001896487,-1.464507,1.539716,-2.033047,-0.05565092,1.255972,0.3773921,-0.851436,0.03317792,10.23872,14.20613,0.02192429,-0.01768135,-0.008687609,-0.3872226,-2.89076,-0.9000345,0.0412983,1.39553,0.2983119,0.006555755,-0.01555607,-0.04418495,-0.9227395,0.8455688,-0.3245296,0.2155203,1.475577,0.2134111,-0.3934628,1.264134,0.2906522,273.2079,248.8331,6.777268,True
5,2.911108,-0.0704793,-0.02542846,-0.001255999,-1.463917,1.539872,-2.03212,-0.05536321,1.256278,0.3776529,-0.8518035,-0.03376393,10.2122,14.09899,0.01879525,-0.01237745,0.002001967,-0.3870489,-2.889798,-0.9010507,0.04175887,1.395827,0.2985082,0.00777106,-0.01875274,-0.03034334,-0.92225,0.8452444,-0.3246359,0.2159868,1.475691,0.2135603,-0.3931281,1.265179,0.291348,272.9996,248.7696,7.043732,True
5,2.922219,-0.06941897,-0.02864701,-0.006569881,-1.463396,1.539829,-2.031374,-0.05498943,1.256713,0.3779283,-0.8520682,-0.02377174,10.23872,14.01328,0.02218891,-0.01879794,0.02540283,-0.386087,-2.888221,-0.9028563,0.04223722,1.396154,0.298748,0.02283166,-0.0390006,-0.01666708,-0.9216737,0.8439764,-0.3246622,0.2163844,1.475833,0.2136903,-0.3927165,1.266165,0.2919122,272.8824,248.2222,7.76617,True
5,2.93333,-0.07791909,-0.0456619,0.003080433,-1.462377,1.540333,-2.03022,-0.05455622,1.257275,0.3780982,-0.8523447,-0.02499659,10.3183,13.88472,0.02976251,-0.01560823,0.04239372,-0.3853855,-2.886215,-0.9052655,0.04271734,1.396463,0.2989264,0.02290033,-0.05285535,-0.01027696,-0.9211342,0.8427395,-0.3241975,0.2168078,1.475935,0.2137702,-0.392253,1.267056,0.2922705,272.7704,246.864,9.223704,True
5,2.944441,-0.08535087,-0.07122678,0.005338594,-1.460987,1.54124,-2.029125,-0.05419579,1.257738,0.3783293,-0.8526552,-0.02817711,10.39788,14.05614,0.0327632,-0.02514143,0.01251959,-0.3855293,-2.88933,-0.9029291,0.04338905,1.396764,0.2991493,0.01768398,-0.04753756,0.000432767,-0.9207581,0.8424941,-0.3240266,0.2173646,1.476063,0.2139101,-0.3918155,1.26784,0.2924273,272.6808,245.1216,10.95122,True
5,2.955552,-0.08322246,-0.07764027,3.72231E-05,-1.459935,1.541545,-2.028312,-0.05378482,1.258284,0.3785672,-0.852285,0.03412554,10.50398,14.29184,0.02548118,-0.02094186,0.03708463,-0.3847053,-2.886962,-0.9051738,0.04395705,1.397155,0.299392,0.02092367,-0.04540943,0.004661999,-0.9204236,0.8420612,-0.3241022,0.2179018,1.476268,0.2139874,-0.3913791,1.268517,0.2924381,272.6583,243.6439,12.35099,True
5,2.966663,-0.07789259,-0.07656361,0.001085851,-1.45927,1.54184,-2.027746,-0.05335829,1.258819,0.3788331,-0.8523309,-0.00443758,10.55703,14.46325,0.03641166,-0.02522831,0.07214732,-0.3831644,-2.883287,-0.9092906,0.04458565,1.397689,0.299566,0.04207028,-0.0400768,-0.01046776,-0.920943,0.84139,-0.3248303,0.2185432,1.476468,0.2140243,-0.3909289,1.269127,0.292313,272.7052,242.1694,13.75651,True
5,2.977774,-0.07576226,-0.06908593,0.005310904,-1.458904,1.54226,-2.027038,-0.0527854,1.259521,0.3790915,-0.852758,-0.03895744,10.58355,14.24898,0.04279213,-0.04649985,0.06247609,-0.3819554,-2.884621,-0.9087409,0.04532441,1.398265,0.29972,0.03663379,-0.04113568,-0.02106566,-0.9213424,0.8405856,-0.3245661,0.219192,1.476714,0.2140694,-0.3904759,1.269711,0.2920643,272.7685,240.2835,15.54809,True
