loc,t,aDotS,bDotS,gDotS,aS,bS,gS,xS,yS,zS,qE,qDotE,emgA,emgB,aDotSH,bDotSH,gDotSH,aSH,bSH,gSH,xSH,ySH,zSH,aDotUB,bDotUB,gDotUB,aUB,bUB,gUB,xUB,yUB,zUB,xHand,yHand,zHand,aHand,bHand,gHand,enable
5,0,-0.1204222,-0.2367044,0.2039607,4.558569,-4.61522,-2.605743,0.346643,1.214093,0.4871304,-0.9743612,0.009179886,10.74271,13.13477,-0.139666,0.07966933,0.06533191,-0.569884,-3.559198,-0.5466969,0.3729149,1.424451,0.4525335,-0.03476815,-0.009304179,-0.006245187,-0.9766611,0.4338319,-0.1581915,0.5220995,1.496141,0.3014579,0.04973796,1.108421,0.3735685,294.2242,291.329,327.4329,True
5,0.01111111,-0.1385093,-0.2388654,0.2051373,4.557282,-4.611289,-2.603118,0.3460742,1.214327,0.486798,-0.9747692,-0.03734548,10.8488,12.87765,-0.1417407,0.08178076,0.07280543,-0.5694978,-3.556695,-0.5471219,0.3728853,1.424773,0.4523034,-0.05518469,-0.02954511,-0.02306088,-0.9772906,0.4325791,-0.1561728,0.5220843,1.49624,0.3014216,0.05100504,1.107667,0.3677024,298.2638,296.5213,319.3595,True
5,0.02222222,-0.1651246,-0.2495712,0.2041834,4.557015,-4.607418,-2.599718,0.3455226,1.214941,0.4864495,-0.974163,0.05581713,10.95491,12.70623,-0.1531183,0.1029795,0.1176853,-0.5680725,-3.550828,-0.5499425,0.3728097,1.425366,0.4520347,-0.0788158,-0.0221065,-0.04092489,-0.9783027,0.4322711,-0.1542466,0.5221257,1.496272,0.3012545,0.0520732,1.107124,0.3602326,298.4305,294.7841,318.5162,True
5,0.03333334,-0.1693939,-0.2741464,0.1851038,4.557827,-4.603373,-2.597055,0.3448927,1.215637,0.4861438,-0.9739527,0.01876638,11.06101,12.53482,-0.1485966,0.1008099,0.1464067,-0.5664186,-3.546761,-0.551959,0.3726976,1.425896,0.4517531,-0.08961098,-0.02637616,-0.05572647,-0.9793205,0.4315997,-0.152772,0.5222454,1.496315,0.3012137,0.05336047,1.107154,0.3523296,299.0956,292.0939,318.3845,True
5,0.04444445,-0.1565837,-0.3125278,0.1692198,4.559132,-4.59859,-2.59504,0.3442064,1.216413,0.4858937,-0.9732969,0.05989395,11.16711,12.3634,-0.1224518,0.06668839,0.2015145,-0.5627158,-3.54346,-0.554301,0.3726019,1.42663,0.4515193,-0.09628242,-0.03597551,-0.082286,-0.9809647,0.4304564,-0.1508697,0.52227,1.496368,0.3010712,0.05483243,1.106964,0.3443855,300.1698,290.3781,317.2565,True
5,0.05555556,-0.1437998,-0.3328225,0.1501039,4.560282,-4.593988,-2.593523,0.3434589,1.217104,0.4854984,-0.9741518,-0.07851373,11.24668,12.21341,-0.1170513,0.06136481,0.2078481,-0.5609128,-3.540251,-0.5559602,0.3724319,1.427146,0.4512868,-0.1069221,-0.0413048,-0.08217299,-0.981721,0.4295378,-0.1490385,0.522135,1.496261,0.3009684,0.05598317,1.106984,0.3375597,300.8298,288.2076,317.0629,True
5,0.06666667,-0.1417386,-0.3467844,0.1160563,4.562423,-4.590201,-2.591491,0.342859,1.218071,0.4853694,-0.9751154,-0.08726955,11.32626,12.10628,-0.1161351,0.07630183,0.1950841,-0.5601672,-3.536403,-0.5580207,0.3723577,1.427797,0.4509666,-0.1238751,-0.04663019,-0.07346889,-0.9821195,0.4286191,-0.1465522,0.522108,1.496278,0.3008001,0.05683444,1.10719,0.3323039,301.4521,286.4824,316.9355,True
5,0.07777778,-0.142827,-0.3468272,0.1075154,4.56393,-4.586564,-2.589295,0.3423832,1.218835,0.4843407,-0.9756783,-0.05076608,11.37931,12.06342,-0.1259284,0.09761173,0.1781655,-0.5599871,-3.53208,-0.559924,0.3722325,1.428448,0.45069,-0.1344692,-0.04982027,-0.06909618,-0.9825988,0.42787,-0.1444775,0.522084,1.496334,0.3007307,0.05718901,1.107694,0.3289374,301.6658,285.3088,317.076,True
5,0.08888889,-0.138648,-0.338375,0.08297026,4.565575,-4.583709,-2.587491,0.3418463,1.219865,0.4842384,-0.9750386,0.05878204,11.35279,12.14913,-0.1290793,0.1242105,0.1910237,-0.559022,-3.525866,-0.5636532,0.3721687,1.429119,0.4503121,-0.1376998,-0.04236494,-0.07226116,-0.9834777,0.4274652,-0.1425974,0.5220726,1.496384,0.3005393,0.05705035,1.108537,0.3274293,301.622,284.8412,317.2578,True
5,0.1,-0.1440081,-0.3512318,0.06597921,4.567797,-4.579839,-2.585062,0.3414007,1.220857,0.4840569,-0.9747537,0.02549322,11.27321,12.3634,-0.1180789,0.1454666,0.2367792,-0.5566316,-3.517689,-0.5696549,0.3722184,1.42989,0.4499223,-0.1355619,-0.04662627,-0.0733625,-0.9844354,0.4265038,-0.1409553,0.522303,1.496352,0.300323,0.05650709,1.109714,0.3275056,301.4261,284.9241,317.5377,True
5,0.1111111,-0.15149,-0.3512728,0.05747769,4.56954,-4.57629,-2.58259,0.3408771,1.221742,0.4839156,-0.9750115,-0.02372734,11.16711,12.55624,-0.1103699,0.1496928,0.2665468,-0.5541889,-3.510817,-0.5745687,0.3722144,1.430563,0.4495504,-0.142012,-0.06154592,-0.0796785,-0.9853174,0.4248297,-0.1383398,0.5224506,1.496312,0.2999508,0.05564547,1.111175,0.3285837,301.1344,285.4439,317.853,True
5,0.1222222,-0.1750107,-0.3535475,0.02985019,4.572244,-4.573156,-2.579261,0.3404105,1.222713,0.4838316,-0.9745827,0.03942921,11.08753,12.74909,-0.1015565,0.1304944,0.294132,-0.5510922,-3.505132,-0.5785608,0.3722087,1.431226,0.4492221,-0.1399473,-0.07433175,-0.08608735,-0.986298,0.4231431,-0.135923,0.5224792,1.496305,0.2996898,0.0546985,1.112885,0.3302092,300.7943,286.0002,318.1451,True
5,0.1333333,-0.1835677,-0.352532,0.01921564,4.574396,-4.569944,-2.576506,0.3398442,1.223624,0.4836993,-0.9744751,0.009513187,11.00796,12.9205,-0.09942885,0.1230469,0.2919728,-0.5491087,-3.500118,-0.5817268,0.3722506,1.43195,0.4489121,-0.1452712,-0.08498425,-0.08710495,-0.9872572,0.4214633,-0.1333706,0.5224831,1.49642,0.2996337,0.05379536,1.114754,0.3318732,300.3935,286.529,318.4213,True
5,0.1444445,-0.2049312,-0.350507,9.296834E-05,4.577003,-4.567033,-2.573113,0.3393572,1.224575,0.4836531,-0.9736325,0.07703157,10.98143,13.00621,-0.09728077,0.1017539,0.2876556,-0.5467789,-3.496308,-0.5839974,0.3723432,1.432625,0.4486303,-0.1484099,-0.09030905,-0.08174285,-0.9877947,0.4198963,-0.1307415,0.5225438,1.496412,0.2993846,0.05294241,1.116674,0.3331544,299.981,286.9965,318.5905,True
5,0.1555556,-0.2113539,-0.3484212,-0.009483978,4.579417,-4.56405,-2.570145,0.3388639,1.2255,0.4835963,-0.9742397,-0.0560362,11.00796,13.04907,-0.08335656,0.08368018,0.2906967,-0.5442681,-3.492076,-0.5871674,0.3724375,1.433355,0.4483762,-0.1483912,-0.0849907,-0.08069122,-0.9886826,0.4187447,-0.1285753,0.5225407,1.496596,0.2992868,0.0521519,1.118581,0.3338133,299.6166,287.201,318.7495,True
5,0.1666667,-0.2167281,-0.3388802,-0.02015474,4.581775,-4.561474,-2.567199,0.3383601,1.226407,0.483583,-0.9737609,0.04442225,11.08753,13.04907,-0.05778096,0.05925637,0.2840442,-0.5416955,-3.488946,-0.590075,0.3725291,1.434002,0.4480689,-0.1389168,-0.08286301,-0.09144566,-0.9899582,0.4175378,-0.1266978,0.5226386,1.496648,0.29901,0.05146495,1.120435,0.3337597,299.2922,287.2172,318.8161,True
5,0.1777778,-0.2167568,-0.3314902,-0.03292876,4.584001,-4.558398,-2.564713,0.3377046,1.22725,0.4834116,-0.9742498,-0.0450352,11.11406,12.98479,-0.0321928,0.01459943,0.2730873,-0.5387117,-3.488137,-0.5912731,0.3726393,1.43451,0.4477768,-0.1368143,-0.0967222,-0.09574343,-0.991204,0.4153024,-0.1242184,0.5227644,1.49676,0.298912,0.0509335,1.122222,0.3330615,299.0299,286.983,318.8571,True
5,0.1888889,-0.2232203,-0.3187775,-0.04999951,4.586677,-4.556345,-2.561751,0.3372026,1.227963,0.4834249,-0.9743761,-0.01108808,11.11406,12.87765,-0.02903075,-0.01625745,0.2602273,-0.5359936,-3.486946,-0.5920061,0.3726678,1.434996,0.4474483,-0.1304781,-0.1031152,-0.1011345,-0.992353,0.4134689,-0.1219794,0.5228437,1.49677,0.2986412,0.05056276,1.123937,0.3318772,298.8004,286.594,318.8487,True
5,0.2,-0.2382309,-0.2953892,-0.0617656,4.588909,-4.555207,-2.558079,0.336802,1.22826,0.4826016,-0.9749673,-0.05394858,11.00796,12.72766,-0.03455186,-0.01729786,0.2379022,-0.5342088,-3.48518,-0.5929696,0.3726961,1.435369,0.4471366,-0.1378903,-0.1063153,-0.09785858,-0.9931514,0.4116608,-0.1192673,0.5229549,1.496576,0.298306,0.05026425,1.125561,0.3304101,298.6029,286.1326,318.8092,True
5,0.2111111,-0.2479111,-0.2634738,-0.07250464,4.590847,-4.554385,-2.55486,0.3362423,1.228924,0.4825368,-0.9744576,0.04710739,10.87533,12.66338,-0.04535934,-0.005576521,0.2241689,-0.5327409,-3.481982,-0.5947899,0.3726871,1.435815,0.4468515,-0.1398841,-0.09672605,-0.08614026,-0.9938496,0.4106195,-0.1172443,0.5230433,1.496602,0.2981195,0.04996518,1.127056,0.3288322,298.3849,285.6594,318.7639,True
5,0.2222222,-0.2458388,-0.2453894,-0.08109574,4.593017,-4.553246,-2.552069,0.3356952,1.229459,0.4825015,-0.9736432,0.07406594,10.71618,12.5991,-0.07012485,0.009317778,0.1988454,-0.5319835,-3.47956,-0.5952562,0.3726959,1.436044,0.4465644,-0.13222,-0.07222367,-0.06705727,-0.9939396,0.4104762,-0.1160374,0.5231469,1.496542,0.297967,0.0496112,1.128375,0.3273615,298.1329,285.2521,318.7169,True
5,0.2333333,-0.2415924,-0.2432696,-0.08538235,4.595507,-4.55159,-2.549387,0.3351746,1.229913,0.4822462,-0.974098,-0.04206593,10.61008,12.51339,-0.08530331,0.04233965,0.178798,-0.5316671,-3.475451,-0.5973721,0.3726907,1.436352,0.4463069,-0.1289894,-0.06370898,-0.06498135,-0.9948009,0.4096243,-0.1144392,0.5232382,1.496468,0.2978265,0.04906703,1.129505,0.3260941,297.9441,284.9603,318.6956,True
5,0.2444444,-0.2320053,-0.2272835,-0.08223672,4.597075,-4.549845,-2.547132,0.3345079,1.230527,0.4820809,-0.9747292,-0.05719592,10.5305,12.3634,-0.08542299,0.05939909,0.1703059,-0.5310397,-3.471627,-0.5996917,0.3727301,1.436624,0.4460807,-0.1268732,-0.04559901,-0.06607617,-0.9955924,0.4096292,-0.113113,0.5232898,1.496415,0.2976792,0.04840876,1.130559,0.3252331,297.8568,284.5682,318.7726,True
5,0.2555556,-0.2287902,-0.2197771,-0.06842623,4.598668,-4.548125,-2.544417,0.3341016,1.231165,0.4818947,-0.9750056,-0.0247951,10.58355,12.23484,-0.07926218,0.04987811,0.1414765,-0.5305219,-3.470334,-0.6001716,0.3728143,1.436908,0.4458847,-0.122625,-0.03495164,-0.06720178,-0.9965181,0.409254,-0.111677,0.5235322,1.496237,0.2973742,0.04769796,1.131584,0.3248495,297.7228,284.2597,318.9365,True
5,0.2666667,-0.2330482,-0.2058993,-0.05780967,4.599958,-4.54676,-2.541541,0.3336081,1.231634,0.4817612,-0.9754595,-0.04133135,10.71618,12.14913,-0.0761679,0.02010628,0.1211538,-0.529585,-3.470573,-0.5991995,0.3728694,1.437212,0.4457042,-0.1183694,-0.03175861,-0.06832168,-0.9973826,0.4087464,-0.1102922,0.5236208,1.49625,0.2972643,0.04695111,1.132589,0.3248406,297.5569,284.1277,319.1505,True
5,0.2777778,-0.2586091,-0.1888605,-0.04396049,4.601125,-4.545491,-2.537697,0.3331187,1.232152,0.4813459,-0.975012,0.0411784,10.92838,12.1277,-0.07948505,-0.02353295,0.09447396,-0.5284713,-3.473291,-0.595865,0.3729019,1.437429,0.445523,-0.1205824,-0.03282867,-0.07682242,-0.998499,0.4081021,-0.1086168,0.5238168,1.496161,0.2971103,0.04620713,1.133612,0.325049,297.425,284.163,319.3336,True
5,0.2888889,-0.2756601,-0.1792788,-0.03755737,4.602315,-4.544327,-2.53392,0.3327019,1.23253,0.481138,-0.9747473,0.02383735,11.14058,12.19199,-0.08371951,-0.04484376,0.09128093,-0.5270305,-3.473887,-0.5942721,0.3729025,1.437612,0.4453065,-0.1206449,-0.03496997,-0.08428955,-0.9997299,0.4072362,-0.1070151,0.5239007,1.496168,0.2969897,0.04555204,1.134687,0.3253139,297.2928,284.2358,319.5075,True
5,0.3,-0.2895043,-0.1739602,-0.03221086,4.603457,-4.543003,-2.530086,0.3320795,1.232958,0.4808943,-0.9737955,0.08685271,11.29973,12.29912,-0.09767958,-0.0416639,0.07969096,-0.5263892,-3.473924,-0.5927259,0.3728527,1.437746,0.4450679,-0.1260268,-0.0371035,-0.08955883,-1.000847,0.4065334,-0.1050436,0.5239167,1.496104,0.2968545,0.04486958,1.135811,0.3254885,297.1423,284.3387,319.6124,True
5,0.3111111,-0.3044285,-0.1803919,-0.0374724,4.605232,-4.541578,-2.526021,0.331412,1.233424,0.4806461,-0.9738605,-0.006554698,11.37931,12.44911,-0.1095227,-0.01717653,0.07345083,-0.526222,-3.471895,-0.5928223,0.3728411,1.437885,0.4447324,-0.1217228,-0.01474255,-0.08749758,-1.001971,0.406851,-0.1043323,0.5239074,1.496052,0.2968235,0.0441063,1.137032,0.325453,296.9965,284.4048,319.7002,True
5,0.3222222,-0.3140258,-0.1814904,-0.04170311,4.60693,-4.540228,-2.522045,0.3306847,1.233946,0.4804163,-0.9739798,-0.01065165,11.40584,12.64195,-0.1119318,0.02120327,0.05329685,-0.5271631,-3.469463,-0.5935915,0.37274,1.438083,0.4444644,-0.1184748,0.006566018,-0.08221321,-1.002791,0.4076796,-0.1035498,0.5239204,1.496024,0.2966871,0.04331339,1.138381,0.3251987,296.808,284.4144,319.7123,True
5,0.3333333,-0.3363878,-0.1847188,-0.03950478,4.608552,-4.538746,-2.517375,0.3298357,1.234539,0.4801025,-0.973901,0.007370924,11.43236,12.8348,-0.1108486,0.02972337,0.05756646,-0.526794,-3.467499,-0.5941856,0.3726736,1.438269,0.444169,-0.1023333,0.02466863,-0.06856555,-1.003491,0.4083557,-0.1035791,0.5239739,1.496067,0.2965167,0.04243296,1.139862,0.3247267,296.5861,284.3805,319.675,True
5,0.3444445,-0.3693778,-0.1900785,-0.03087163,4.609941,-4.536911,-2.511932,0.3287835,1.235248,0.4798069,-0.974098,-0.01799515,11.37931,12.98479,-0.1294963,-0.0066313,0.106674,-0.5236201,-3.466453,-0.593005,0.3724822,1.438602,0.4438891,-0.1012306,-0.001975372,-0.06645507,-1.004291,0.4069048,-0.10183,0.5239434,1.496077,0.2964053,0.04148666,1.141468,0.324089,296.3265,284.2614,319.6497,True
5,0.3555556,-0.4087505,-0.2146698,-0.03175616,4.612381,-4.534588,-2.505913,0.3276474,1.235924,0.4791322,-0.9735739,0.04814476,11.35279,13.11335,-0.1650744,-0.02388953,0.1751392,-0.5193697,-3.463187,-0.5926583,0.3723232,1.438782,0.4435856,-0.1161936,-0.0264864,-0.07161944,-1.005216,0.4053394,-0.09918704,0.523977,1.496039,0.2962949,0.04048136,1.143193,0.32336,296.0543,284.1443,319.5883,True
5,0.3666667,-0.4651906,-0.2542617,-0.05170285,4.615843,-4.532055,-2.498713,0.3261954,1.236816,0.4787636,-0.9729529,0.05649934,11.40584,13.13477,-0.1981501,-0.0005454123,0.176535,-0.5182725,-3.459808,-0.5922862,0.3721039,1.438926,0.443248,-0.1298784,-0.02542312,-0.05656385,-1.005375,0.4050115,-0.09718221,0.5239338,1.495916,0.296066,0.03934066,1.145046,0.3225727,295.8145,284.0394,319.5281,True
5,0.3777778,-0.508871,-0.2789101,-0.06960498,4.619302,-4.529736,-2.491405,0.3247448,1.237725,0.4783986,-0.9726045,0.03160191,11.45889,13.11335,-0.2249864,0.04201487,0.166192,-0.5181734,-3.454854,-0.5931385,0.3719187,1.439129,0.4428778,-0.118931,0.01294042,-0.02792877,-1.0048,0.406802,-0.09720085,0.5238785,1.495911,0.295943,0.03798603,1.147081,0.3217199,295.5739,283.9456,319.5268,True
5,0.3888889,-0.5780318,-0.3216902,-0.07456029,4.622852,-4.526012,-2.482594,0.3229612,1.238696,0.47804,-0.9717203,0.08083895,11.53846,13.04907,-0.2475289,0.08138266,0.1590029,-0.5182389,-3.449442,-0.5943108,0.3717112,1.439335,0.4425752,-0.09457885,0.03530857,-0.04312029,-1.006111,0.4079872,-0.09782589,0.5238687,1.495862,0.2958019,0.03640129,1.149328,0.3207482,295.2477,283.7507,319.6568,True
5,0.4,-0.6418751,-0.3484195,-0.06576806,4.626132,-4.522586,-2.473097,0.3212189,1.239969,0.4775732,-0.971862,-0.01331334,11.59151,13.00621,-0.2461852,0.01425186,0.1705938,-0.5151417,-3.450483,-0.5907413,0.3715566,1.43971,0.4422295,-0.08415935,0.02571424,-0.06559838,-1.007601,0.4077672,-0.09714572,0.5238497,1.495839,0.29564,0.03457014,1.151858,0.3197122,294.8806,283.3472,319.8729,True
5,0.4111111,-0.6780147,-0.3655294,-0.058111,4.628855,-4.518888,-2.464509,0.3195294,1.240941,0.4772234,-0.9709288,0.08576658,11.56498,13.00621,-0.2465413,-0.09555933,0.218351,-0.5089844,-3.454202,-0.5848365,0.3712894,1.440152,0.4418907,-0.09216085,-0.002013065,-0.119855,-1.010916,0.4059436,-0.09507485,0.5239033,1.495896,0.2955322,0.03257082,1.154721,0.3187104,294.449,283.0126,319.9829,True
5,0.4222222,-0.7205526,-0.3911491,-0.04937905,4.632309,-4.51496,-2.454691,0.3174438,1.242223,0.476778,-0.9705821,0.03126576,11.51194,13.02764,-0.2309454,-0.1733804,0.2724112,-0.5023894,-3.456595,-0.5807004,0.3709518,1.440566,0.4415154,-0.1053443,-0.008421578,-0.1580673,-1.013954,0.405201,-0.09305671,0.523874,1.495869,0.2953615,0.03037542,1.157976,0.3177156,294.0121,282.7946,320.0479,True
5,0.4333333,-0.7748549,-0.4008543,-0.04705047,4.635697,-4.511508,-2.444115,0.3154504,1.243267,0.475827,-0.9719697,-0.1266713,11.45889,13.09192,-0.2339836,-0.1989727,0.2830497,-0.4980654,-3.457482,-0.5771752,0.3704862,1.440994,0.441036,-0.1117354,0.01395012,-0.1590786,-1.015763,0.4061745,-0.09234085,0.523827,1.49577,0.295254,0.02811384,1.161716,0.31671,293.5235,282.7001,320.0442,True
5,0.4444444,-0.8206741,-0.393483,-0.04588274,4.638706,-4.508707,-2.433303,0.3132144,1.244606,0.4752867,-0.9713486,0.05817235,11.37931,13.17763,-0.2628783,-0.1841158,0.272677,-0.4950278,-3.457199,-0.5735067,0.3699633,1.441412,0.4405389,-0.1180305,0.0363238,-0.1494328,-1.017179,0.4074186,-0.09148864,0.5237339,1.495719,0.2951272,0.0258994,1.165866,0.3156717,292.861,282.8784,319.7586,True
5,0.4555556,-0.8504785,-0.3914341,-0.04578345,4.641682,-4.505611,-2.423108,0.3111235,1.246062,0.4746978,-0.9709017,0.04058127,11.27321,13.26334,-0.2969723,-0.151198,0.2815597,-0.4920312,-3.454138,-0.5717967,0.3694434,1.441797,0.4400282,-0.1371184,0.05230474,-0.1417877,-1.018566,0.408625,-0.09013283,0.523609,1.495591,0.2949908,0.02352577,1.170323,0.3144932,292.1132,283.1365,319.4089,True
5,0.4666667,-0.8781871,-0.390435,-0.04890504,4.645003,-4.50284,-2.412237,0.3086756,1.247552,0.4741325,-0.9710546,-0.01386791,11.24668,13.34904,-0.3073735,-0.1161383,0.3200665,-0.4878506,-3.448835,-0.5727929,0.3688685,1.442183,0.439455,-0.1584413,0.05762298,-0.1437049,-1.02039,0.4092232,-0.08803185,0.5234419,1.495496,0.2948864,0.02097561,1.174999,0.3131218,291.3335,283.4367,318.9857,True
5,0.4777778,-0.8941792,-0.3915507,-0.05418255,4.648529,-4.500111,-2.401631,0.306154,1.24906,0.4735281,-0.9721662,-0.1011548,11.22016,13.3919,-0.3081617,-0.1012905,0.3552607,-0.4831054,-3.443957,-0.5737863,0.3681861,1.442552,0.43888,-0.1757466,0.07252713,-0.1669635,-1.023082,0.4104766,-0.08600226,0.523239,1.495485,0.2946622,0.018315,1.17988,0.3116681,290.6175,283.6423,318.5214,True
5,0.4888889,-0.9091054,-0.3884159,-0.05731367,4.651754,-4.497181,-2.390926,0.3037554,1.250462,0.4729161,-0.971976,0.01849451,11.19363,13.45618,-0.3218118,-0.09071818,0.3809677,-0.4784284,-3.439057,-0.5741011,0.3672977,1.442934,0.4381177,-0.1950971,0.1044833,-0.1827629,-1.025963,0.4127768,-0.084427,0.523119,1.495195,0.2944276,0.01569242,1.184911,0.3102325,289.8802,283.8698,318.0154,True
5,0.5,-0.9005979,-0.3735068,-0.05738057,4.654705,-4.494829,-2.381332,0.301356,1.252043,0.4721093,-0.9725454,-0.05204128,11.19363,13.47761,-0.3454238,-0.05560842,0.3716491,-0.4755511,-3.433465,-0.5743999,0.3663172,1.443337,0.4372897,-0.2163981,0.1481574,-0.1814907,-1.028204,0.4161244,-0.0830861,0.5228752,1.495106,0.2942808,0.01293287,1.190016,0.308843,289.121,284.0887,317.525,True
5,0.5111111,-0.8793162,-0.3745695,-0.06595816,4.658425,-4.49245,-2.372252,0.2988577,1.253513,0.4713874,-0.972832,-0.02550624,11.14058,13.52046,-0.358275,-0.01091057,0.3771666,-0.4727771,-3.426117,-0.5765592,0.3654186,1.44372,0.4363694,-0.2281114,0.1726643,-0.1803156,-1.030411,0.4190794,-0.08172549,0.5227158,1.494981,0.2940772,0.01010378,1.195123,0.3075552,288.3279,284.419,316.9804,True
5,0.5222223,-0.8857613,-0.3586291,-0.07345375,4.661615,-4.490774,-2.362097,0.2961836,1.255092,0.4706664,-0.9741614,-0.1211924,11.03448,13.58474,-0.3836803,0.02838659,0.4072887,-0.469021,-3.416454,-0.5800349,0.3643133,1.444156,0.4354334,-0.2409754,0.1907696,-0.187645,-1.032975,0.4220599,-0.08014543,0.5223932,1.494904,0.2938776,0.007336369,1.200161,0.3063796,287.5741,284.9511,316.3285,True
5,0.5333334,-0.8911181,-0.3405225,-0.0713718,4.664344,-4.489074,-2.351872,0.2935269,1.256633,0.4699349,-0.9749401,-0.07009156,10.92838,13.60617,-0.4133809,0.05596131,0.4310381,-0.4651243,-3.406964,-0.5828738,0.3633268,1.444627,0.4344654,-0.2719467,0.1939624,-0.1947797,-1.035564,0.4244369,-0.07735897,0.5220237,1.494791,0.2937105,0.004647077,1.205053,0.3052698,286.8434,285.5651,315.6622,True
5,0.5444446,-0.8975656,-0.3053618,-0.06615186,4.666193,-4.488035,-2.341893,0.2907842,1.258183,0.4691875,-0.9739563,0.09050786,10.79576,13.58474,-0.4304644,0.07828397,0.4333584,-0.4620297,-3.398141,-0.5855274,0.3623059,1.445095,0.4335556,-0.2846191,0.2003559,-0.1839958,-1.03737,0.4270669,-0.07518796,0.5216633,1.494724,0.2934945,0.001964092,1.209686,0.3041861,286.1215,286.069,315.0732,True
5,0.5555557,-0.8805044,-0.3010671,-0.06409838,4.669057,-4.48627,-2.332981,0.2879896,1.259891,0.4683237,-0.9738653,0.007538701,10.66313,13.58474,-0.4315592,0.09745592,0.4355305,-0.4589702,-3.389018,-0.5890196,0.3611247,1.445638,0.432544,-0.2972009,0.2174101,-0.164691,-1.038644,0.4304734,-0.07333706,0.5212235,1.494714,0.2932925,-0.0008964315,1.214086,0.3031176,285.5529,286.3839,314.6378,True
5,0.5666668,-0.8602588,-0.3020878,-0.06308664,4.671962,-4.484428,-2.324133,0.2852118,1.261515,0.4675732,-0.974204,-0.03086972,10.58355,13.52046,-0.4313843,0.09529224,0.4547014,-0.4548216,-3.380003,-0.5923813,0.3600563,1.446191,0.4315946,-0.3056347,0.2238036,-0.1560822,-1.040236,0.4334775,-0.07119748,0.5207993,1.494676,0.2930529,-0.003907748,1.21835,0.3020902,285.105,286.6378,314.2873,True
5,0.577778,-0.8165594,-0.3180497,-0.07162879,4.675551,-4.481799,-2.316603,0.2824079,1.26317,0.4666145,-0.975412,-0.1101217,10.61008,13.43475,-0.4041992,0.05373007,0.5055174,-0.4483165,-3.372586,-0.5956157,0.358994,1.446771,0.4305773,-0.3119384,0.2344528,-0.1485724,-1.041913,0.4366871,-0.0693599,0.5202299,1.494719,0.2929091,-0.007039799,1.222585,0.3011151,284.7151,286.955,313.939,True
5,0.5888891,-0.780292,-0.3309951,-0.08203515,4.679059,-4.479967,-2.308791,0.279598,1.264826,0.4658298,-0.9755878,-0.01517912,10.68966,13.28477,-0.3760591,-0.01016358,0.5371185,-0.4412421,-3.367915,-0.5966514,0.3577419,1.447481,0.4294529,-0.3098814,0.2418942,-0.1560671,-1.044248,0.4396676,-0.0676387,0.5196795,1.494734,0.2927241,-0.01012859,1.226821,0.3001527,284.2464,287.2762,313.6477,True
5,0.6000003,-0.754829,-0.3297786,-0.1026328,4.68322,-4.478546,-2.301598,0.2767777,1.266496,0.464792,-0.9768299,-0.113608,10.90185,13.04907,-0.3708971,-0.02289444,0.5146788,-0.4367307,-3.362791,-0.5973982,0.3564109,1.447948,0.4283428,-0.3356611,0.2546655,-0.1760442,-1.047084,0.443191,-0.06482826,0.5190853,1.494681,0.2924497,-0.01307748,1.231038,0.2991538,283.7184,287.7167,313.2421,True
5,0.6111114,-0.7495335,-0.3276658,-0.1101159,4.686863,-4.47732,-2.293296,0.2740657,1.268053,0.4638865,-0.9764736,0.03341459,11.06101,12.79194,-0.3915457,0.00374949,0.4765576,-0.4340297,-3.355629,-0.5988384,0.3550929,1.448338,0.427187,-0.3525925,0.2759746,-0.1641568,-1.048698,0.4474152,-0.06238641,0.5184211,1.494663,0.2921286,-0.01584353,1.235159,0.2980218,283.1256,288.2619,312.7065,True
5,0.6222225,-0.758119,-0.3117419,-0.1208011,4.690183,-4.476693,-2.284648,0.2713273,1.269585,0.4630203,-0.9768134,-0.03161562,11.16711,12.51339,-0.4006971,0.06134695,0.4224057,-0.4330534,-3.346745,-0.6021378,0.3537696,1.448728,0.4259729,-0.3450063,0.298352,-0.1514603,-1.050212,0.4519776,-0.06110543,0.5177503,1.494675,0.2917986,-0.01853632,1.239126,0.2967418,282.5593,288.6505,312.2277,True
5,0.6333337,-0.7816573,-0.2724385,-0.1336562,4.692789,-4.476884,-2.275365,0.2687424,1.271079,0.4619586,-0.9755638,0.1144587,11.24668,12.32055,-0.3988188,0.09547642,0.4043368,-0.4311423,-3.33694,-0.6066308,0.3523424,1.449186,0.4247575,-0.333104,0.3015738,-0.1313241,-1.051002,0.4560682,-0.05959702,0.5170901,1.494646,0.2913339,-0.02122563,1.242898,0.2953421,282.0048,288.819,311.9158,True
5,0.6444448,-0.7923774,-0.2383668,-0.1326822,4.69485,-4.477069,-2.266218,0.2660767,1.272612,0.4610183,-0.9749609,0.05405512,11.27321,12.25627,-0.4005682,0.1007199,0.4491054,-0.4266379,-3.3254,-0.6126423,0.3510548,1.449655,0.4234858,-0.3212194,0.3037123,-0.1154689,-1.051926,0.4599373,-0.05840552,0.5163472,1.494585,0.2908969,-0.02393641,1.246504,0.2939093,281.5497,288.7576,311.7784,True
5,0.655556,-0.7903579,-0.1883172,-0.1360555,4.6963,-4.477963,-2.257509,0.2635183,1.274131,0.4597282,-0.9742626,0.06347885,11.27321,12.32055,-0.3957131,0.08145118,0.5108163,-0.4202335,-3.313947,-0.6188848,0.3498217,1.450106,0.4222002,-0.3242739,0.2877603,-0.09837829,-1.052642,0.4632503,-0.05572958,0.5156391,1.494464,0.2902739,-0.02672801,1.250052,0.2925379,281.1783,288.5898,311.7613,True
5,0.6666671,-0.7860925,-0.1744484,-0.1297375,4.698516,-4.477842,-2.249097,0.2606832,1.275803,0.4583633,-0.9743904,-0.01212477,11.19363,12.3634,-0.380587,0.0612185,0.5287588,-0.4148917,-3.304473,-0.623785,0.3485676,1.450593,0.420948,-0.3349007,0.2685839,-0.09612904,-1.053751,0.4658915,-0.05289011,0.5148957,1.494349,0.2897952,-0.02960243,1.253685,0.2913098,280.8698,288.5103,311.7256,True
5,0.6777782,-0.7583059,-0.1935318,-0.11271,4.701464,-4.476499,-2.241519,0.2578991,1.277151,0.4563234,-0.9749023,-0.0466118,11.11406,12.38483,-0.3535382,-0.02398801,0.5507512,-0.4072932,-3.301334,-0.6236601,0.3471015,1.451033,0.4197049,-0.3501364,0.2494099,-0.1258107,-1.056583,0.4683986,-0.04945251,0.5141591,1.494197,0.2893634,-0.03254758,1.257526,0.2902672,280.5572,288.8156,311.3991,True
5,0.6888894,-0.7241819,-0.2009235,-0.1095894,4.704302,-4.475657,-2.234651,0.2551205,1.278673,0.4549692,-0.9752874,-0.03481719,11.03448,12.44911,-0.3363304,-0.1198207,0.5408361,-0.3999972,-3.302236,-0.6195799,0.3454578,1.45174,0.4187138,-0.3534827,0.2515539,-0.1439347,-1.059429,0.4719031,-0.04757497,0.5133252,1.494281,0.2891171,-0.03555588,1.261625,0.2893613,280.1794,289.7729,310.5645,True
5,0.7000005,-0.7070773,-0.2082961,-0.09362718,4.706655,-4.474483,-2.227271,0.2526544,1.280128,0.4536798,-0.9761236,-0.07626718,11.03448,12.53482,-0.3344247,-0.1272238,0.5131075,-0.3950826,-3.298499,-0.6193666,0.3439277,1.452169,0.4174161,-0.3601464,0.282437,-0.1694452,-1.062421,0.476555,-0.04558692,0.5124137,1.494215,0.288646,-0.03862916,1.265944,0.2884106,279.668,291.4372,309.1929,True
5,0.7111117,-0.7241195,-0.1784155,-0.0713167,4.707531,-4.4741,-2.21852,0.2501859,1.281491,0.4523067,-0.976782,-0.05962983,11.14058,12.62053,-0.3499751,-0.08137968,0.4547222,-0.3928599,-3.292566,-0.6204004,0.3422679,1.452557,0.4160202,-0.3549587,0.316552,-0.1812822,-1.065611,0.4821444,-0.04420901,0.5115522,1.494157,0.2881229,-0.04156398,1.270292,0.2871686,279.0266,293.7827,307.1664,True
5,0.7222228,-0.7485678,-0.1687877,-0.04571361,4.708585,-4.472898,-2.209368,0.2476757,1.282872,0.4509108,-0.9761561,0.05752744,11.27321,12.5991,-0.3706629,-0.02917266,0.41984,-0.3908061,-3.284312,-0.6232215,0.3406127,1.45289,0.4145298,-0.3453514,0.3293377,-0.1792564,-1.067736,0.4867573,-0.04290832,0.5105581,1.49412,0.287616,-0.04415978,1.274478,0.2856546,278.4026,295.9832,304.9904,True
5,0.7333339,-0.7836781,-0.149574,-0.01372858,4.709015,-4.471677,-2.199308,0.2452364,1.284307,0.4492772,-0.974587,0.1428029,11.35279,12.51339,-0.3878601,0.01547769,0.4147309,-0.3877333,-3.275221,-0.6270407,0.3391359,1.453251,0.4131358,-0.3314837,0.3325394,-0.177251,-1.069467,0.4909599,-0.04169764,0.5093923,1.494042,0.2870033,-0.04639837,1.278413,0.2839399,277.9091,297.8939,302.9104,True
5,0.7444451,-0.7888427,-0.170765,0.02364308,4.710382,-4.468932,-2.190557,0.2426492,1.285837,0.4475164,-0.9740368,0.04914303,11.35279,12.3634,-0.3877779,0.05166161,0.4350359,-0.3843469,-3.262402,-0.6345277,0.3375756,1.453535,0.4115984,-0.3026917,0.2782143,-0.1753998,-1.07146,0.4921136,-0.04002199,0.5082412,1.494028,0.2864325,-0.04856693,1.282202,0.282068,277.5814,299.3742,301.2048,True
5,0.7555562,-0.839783,-0.1930558,0.07814889,4.711793,-4.465502,-2.179571,0.2403281,1.287384,0.445298,-0.9732128,0.07512049,11.27321,12.27769,-0.3630007,0.02187082,0.4560864,-0.379019,-3.254463,-0.6388428,0.3360575,1.45367,0.4098365,-0.3394777,0.3176313,-0.1270326,-1.070695,0.4975865,-0.03765044,0.5066784,1.493769,0.2855835,-0.05077562,1.285991,0.2800553,277.3232,300.5316,299.8831,True
5,0.7666674,-0.8938291,-0.2451454,0.1392085,-1.569766,-4.460135,-2.16776,0.2377566,1.289196,0.4432349,-0.9745875,-0.1261638,11.14058,12.44911,-0.3380851,-0.00689441,0.494168,-0.3728383,-3.245574,-0.6442128,0.3344732,1.453912,0.4083073,-0.3181741,0.3250697,-0.1282965,-1.072057,0.5018411,-0.03703738,0.5053177,1.493557,0.2848425,-0.05305085,1.289961,0.2778711,277.1016,301.7139,298.6315,True
5,0.7777785,-0.963564,-0.3983842,0.2304719,-1.564671,-4.450077,-2.154604,0.2349574,1.291021,0.4404144,-0.9726727,0.1763694,11.00796,12.62053,-0.3156543,-0.0366511,0.4917985,-0.3675194,-3.239465,-0.6472014,0.3327985,1.454161,0.4064558,-0.2978064,0.2920532,-0.1167783,-1.073111,0.5042649,-0.03555134,0.5039799,1.493454,0.2841198,-0.05523134,1.294151,0.2754282,276.7896,303.8172,296.5549,True
5,0.7888896,-0.9981152,-0.6017259,0.2898839,-1.556214,-4.438364,-2.142774,0.2318335,1.293261,0.437629,-0.9718605,0.07281618,10.90185,12.72766,-0.3612261,-0.01743212,0.4038147,-0.3668302,-3.23598,-0.6447441,0.3312442,1.454574,0.4048257,-0.2986088,0.3091307,-0.09222825,-1.073179,0.5090535,-0.03464293,0.5032854,1.4935,0.2834105,-0.0572091,1.298643,0.2725619,276.4983,306.252,294.1568,True
5,0.8000008,-0.9817796,-0.6685361,0.365712,-1.551565,-4.427576,-2.132675,0.2286178,1.295485,0.4346175,-0.970809,0.09591851,10.76923,12.77051,-0.4549585,0.09326258,0.3185442,-0.3693314,-3.224813,-0.6470126,0.3300636,1.455306,0.4030521,-0.3015624,0.3347052,-0.06876812,-1.073361,0.5141429,-0.03367461,0.5022038,1.493528,0.2825418,-0.0589551,1.303589,0.2690561,276.165,309.197,291.2369,True
5,0.8111119,-0.8881691,-0.4858956,0.4532131,-1.556314,-4.421832,-2.125571,0.2251421,1.297424,0.4311712,-0.9723755,-0.1435574,10.71618,12.68481,-0.4605753,0.047308,0.3930841,-0.3631481,-3.21517,-0.650793,0.3286087,1.45592,0.4013634,-0.2951002,0.3315242,-0.06134136,-1.073683,0.5184635,-0.03256726,0.5012898,1.493683,0.2815394,-0.06036216,1.309051,0.2644504,275.6329,312.894,287.5847,True
5,0.8222231,-0.8345587,-0.01673004,0.5462146,4.710242,-4.421692,-2.117794,0.2222507,1.298523,0.4275784,-0.9745539,-0.1974518,10.76923,12.77051,-0.425084,-0.1532652,0.6118776,-0.3470578,-3.209287,-0.6527629,0.3273051,1.456774,0.3992968,-0.2881492,0.2665263,-0.1103999,-1.076498,0.5193297,-0.02997654,0.5003461,1.493697,0.2804487,-0.06132494,1.314975,0.2585151,274.8772,317.777,282.3438,True
5,0.8333342,-0.8836318,0.4944441,0.5296331,4.688997,-4.428464,-2.106085,0.2195562,1.299359,0.423919,-0.977868,-0.3017377,10.8488,12.8348,-0.4092293,-0.3080236,0.7925752,-0.3298778,-3.202689,-0.6550663,0.3257104,1.457384,0.3972995,-0.3110496,0.2036401,-0.1612279,-1.079538,0.5191595,-0.02570536,0.4991277,1.493405,0.2793658,-0.06201824,1.32124,0.2514584,274.3444,326.0056,273.0983,True
5,0.8444453,-1.049578,1.343013,0.4972922,4.651333,-4.445867,-2.089024,0.2180125,1.299027,0.4195476,-0.9773977,0.04482435,10.92838,12.66338,-0.4272721,-0.3958248,1.015235,-0.3098822,-3.184001,-0.6674331,0.3236563,1.458053,0.3950281,-0.3702707,0.1535423,-0.2213118,-1.084193,0.5189261,-0.0193444,0.4979507,1.493178,0.278295,-0.0628842,1.327624,0.2440104,274.4585,337.6122,259.8884,True
5,0.8555565,-1.183247,2.404367,0.3639506,4.597916,-4.476764,-2.073411,0.2175139,1.297614,0.4152608,-0.9731244,0.3895587,10.95491,12.17056,-0.503517,-0.2638857,0.9873779,-0.3033378,-3.159226,-0.6826819,0.3211044,1.458279,0.3928118,-0.4374591,0.1535286,-0.2269374,-1.086263,0.5212188,-0.0132716,0.4965401,1.493078,0.2774751,-0.06428131,1.333882,0.2372583,275.2818,346.4187,249.3078,True
5,0.8666676,-1.319629,3.114907,0.1412781,4.552378,-4.507896,-2.058837,0.2170028,1.296209,0.411597,-0.9669197,0.5632096,10.90185,11.63488,-0.5624384,-0.140253,0.8688067,-0.3003662,-3.14151,-0.6913441,0.3189676,1.458394,0.3908267,-0.4894997,0.2525837,-0.2093246,-1.087527,0.5280573,-0.009492571,0.4948493,1.493083,0.2766871,-0.06683808,1.340128,0.2322971,276.4417,349.488,244.6861,True
5,0.8777788,-1.545456,3.28189,-0.09942806,4.518643,-4.535067,-2.038653,0.2158044,1.297055,0.4083323,-0.9665741,0.02707756,10.74271,11.18491,-0.6931615,0.0963546,0.6136317,-0.3070763,-3.12255,-0.6972741,0.316682,1.457883,0.3890548,-0.4526161,0.3857722,-0.1447696,-1.08722,0.5379565,-0.01017913,0.4930358,1.493172,0.2759781,-0.07093284,1.346834,0.230538,278.3082,348.1606,244.8815,True
5,0.8888899,-1.601463,2.982207,-0.1407726,4.500749,-4.545638,-2.021919,0.2131648,1.298711,0.4053299,-0.9671051,-0.04858162,10.5305,11.07778,-0.7736984,0.2553412,0.3493516,-0.3152751,-3.1133,-0.694787,0.3149557,1.457673,0.3873341,-0.3119471,0.4603881,-0.03971063,-1.08408,0.5460836,-0.01523301,0.4911618,1.493333,0.2751453,-0.07652616,1.354199,0.2335422,280.7519,348.3104,244.4569,True
5,0.900001,-1.403521,2.243724,-0.02367985,4.498414,-4.54226,-2.011952,0.20958,1.302389,0.4034956,-0.9621586,0.4518111,10.29178,11.22777,-0.801903,0.4649247,-0.1283656,-0.3367349,-3.118635,-0.6792613,0.314398,1.457378,0.3865776,-0.1512114,0.4796204,0.04806018,-1.080908,0.5530151,-0.02186961,0.4896421,1.49339,0.2741897,-0.08308555,1.36199,0.2417276,283.0971,351.1101,243.0494,True
5,0.9111122,-1.137905,1.698099,0.06913996,4.495625,-4.538225,-2.008513,0.2062521,1.305532,0.401722,-0.9689203,-0.6219558,10.02653,11.48489,-0.6459171,0.2951119,-0.2504157,-0.339193,-3.135594,-0.6615005,0.3137875,1.458223,0.3853302,-0.05586755,0.4529977,0.09607816,-1.078437,0.55719,-0.02608433,0.4883926,1.493313,0.2730622,-0.0900793,1.370496,0.2540467,285.22,354.7341,242.7943,True
5,0.9222233,-0.8364946,1.248154,0.07519358,4.497667,-4.535826,-2.009882,0.2037446,1.308523,0.4000521,-0.9800257,-1.008255,9.840847,12.25627,-0.2228633,-0.5074621,0.003307015,-0.3133166,-3.201263,-0.6108232,0.3138831,1.460108,0.3842325,0.04085614,0.3262404,0.0727094,-1.078283,0.5565527,-0.02958692,0.4875531,1.493201,0.2715409,-0.09603154,1.379644,0.2678784,287.2678,0.7463856,241.8003,True
5,0.9333345,-0.9167082,1.672413,-0.1039141,4.469475,-4.558082,-2.001477,0.202557,1.309937,0.3989713,-0.9873744,-0.663942,9.549072,13.41333,0.1741382,-1.134973,0.6176527,-0.2716329,-3.241081,-0.5869423,0.3137586,1.461823,0.3824761,-0.005903348,0.1344198,-0.1195358,-1.085515,0.5509183,-0.02506354,0.4870549,1.492907,0.2698929,-0.1000074,1.388997,0.2797085,289.2795,8.181593,239.4625,True
5,0.9444456,-1.059004,1.812445,-0.1732209,4.448676,-4.571867,-1.987941,0.2010731,1.310874,0.3976402,-0.9910901,-0.3364044,9.098145,14.84894,0.3725605,-1.296993,0.9618507,-0.2420478,-3.257441,-0.5817007,0.313335,1.463219,0.3806906,-0.130108,0.03421237,-0.2790465,-1.093908,0.5472934,-0.01773399,0.486333,1.492684,0.2682676,-0.1019598,1.397617,0.2871795,291.3192,15.26371,235.9313,True
5,0.9555568,-1.087568,1.629972,-0.2428123,4.439355,-4.581552,-1.977234,0.1981585,1.312499,0.3966429,-0.9747362,1.496286,8.488064,16.60596,0.5802101,-1.062633,1.264034,-0.2222056,-3.20607,-0.6432021,0.3115557,1.464514,0.378422,-0.3548723,-0.04046653,-0.4768856,-1.105445,0.5441838,-0.004597149,0.4859254,1.492501,0.2664855,-0.1026252,1.404535,0.2898116,292.8156,20.30455,231.7192,True
5,0.9666679,-0.9728063,1.167611,-0.3182397,4.443992,-4.585883,-1.971624,0.1955583,1.314013,0.3958213,-0.9689917,0.5116391,7.931033,19.82001,0.5483642,-0.8974956,1.207074,-0.2114092,-3.193753,-0.6593473,0.3100443,1.464946,0.3763249,-0.4729169,-0.04157838,-0.5565856,-1.114463,0.5436497,0.005114867,0.4850782,1.492433,0.2648633,-0.1038689,1.409882,0.2898854,293.6358,20.38237,229.7567,True
5,0.977779,-0.87717,0.7800145,-0.328883,4.448813,-4.588126,-1.965486,0.1929435,1.316069,0.3953154,-0.9727371,-0.3443129,7.400529,24.85537,0.2620394,-0.551614,0.9779803,-0.2118225,-3.165201,-0.6808438,0.3077843,1.465251,0.3740227,-0.5025292,-0.0320012,-0.5349284,-1.118778,0.5441307,0.01104546,0.4836361,1.492699,0.2633998,-0.106264,1.41426,0.2892476,293.6896,18.92751,229.2889,True
5,0.9888902,-0.8618615,0.6053559,-0.3240797,4.447838,-4.592382,-1.95707,0.1907102,1.318018,0.3946645,-0.9798526,-0.6475574,7.002651,29.80502,0.01463687,-0.2696378,0.7942408,-0.2131163,-3.136748,-0.7004207,0.3060144,1.465395,0.3722234,-0.3774568,-0.03510827,-0.3956463,-1.118641,0.5437598,0.01121404,0.4822237,1.492997,0.2621553,-0.1096745,1.418171,0.2886013,293.1533,18.43802,228.9921,True
5,1.000001,-0.8551794,0.4487023,-0.3437968,4.449812,-4.596427,-1.948842,0.1887423,1.319763,0.3942406,-0.9802659,-0.03298525,6.710876,34.09042,-0.2193871,0.1819967,0.4871121,-0.228112,-3.09323,-0.7319573,0.3039566,1.465312,0.3704219,-0.2333008,0.04700798,-0.1649691,-1.113342,0.5470086,0.00785526,0.4803432,1.493133,0.2608886,-0.1127701,1.421233,0.287873,292.4937,19.43972,228.0642,True
5,1.011112,-0.8315781,0.3699258,-0.3436178,4.449105,-4.601307,-1.941321,0.1869467,1.321529,0.3937573,-0.9769109,0.3062229,6.551723,37.64731,-0.2070398,0.2460088,0.4562255,-0.2275746,-3.066167,-0.7571804,0.3026454,1.465455,0.3685806,-0.1657681,0.157857,-0.02510133,-1.109633,0.5530145,0.005229117,0.4788522,1.493235,0.2594812,-0.1154908,1.423641,0.2870536,292.068,19.82655,227.7346,True
5,1.022224,-0.7597885,0.1868621,-0.3410574,4.454525,-4.603138,-1.93583,0.1851481,1.323178,0.3936357,-0.9764581,0.03868445,6.737399,40.79708,0.03228788,0.131479,0.5007904,-0.2204256,-3.051092,-0.7808359,0.3022541,1.466592,0.3675644,-0.1118852,0.3038521,0.1340882,-1.10279,0.5622748,0.0004695153,0.47716,1.493379,0.2579758,-0.1180076,1.425876,0.2865008,291.8023,19.06904,228.3313,True
5,1.033335,-0.6899959,-0.00991118,-0.3033103,4.461257,-4.602976,-1.930398,0.1833567,1.324652,0.3937933,-0.9767234,-0.02461048,7.29443,44.01114,0.1813973,-0.07385412,0.5576933,-0.2083455,-3.051475,-0.7875574,0.301616,1.467627,0.3663414,-0.09533161,0.331604,0.1913669,-1.100377,0.5675077,-0.0004407532,0.4763978,1.493672,0.2561398,-0.1202394,1.428283,0.28652,291.4774,18.47618,228.7953,True
5,1.044446,-0.6329804,-0.2440938,-0.2909718,4.471727,-4.602408,-1.924806,0.1814473,1.326274,0.3938434,-0.9790531,-0.2132383,8.222812,46.86094,0.3500467,-0.3462754,0.634542,-0.191852,-3.065016,-0.7843164,0.3011853,1.468437,0.3651323,-0.09655268,0.2517028,0.175418,-1.098896,0.5676447,0.0006149239,0.4751216,1.493801,0.2543581,-0.1221724,1.431108,0.2873055,291.2818,18.58239,228.7679,True
5,1.055557,-0.5613743,-0.4188341,-0.3448942,4.483531,-4.603943,-1.921239,0.1800445,1.327827,0.3937323,-0.9788268,0.02133243,9.28382,47.88944,0.4438381,-0.3907566,0.6261696,-0.1834886,-3.058795,-0.7978284,0.3006237,1.469,0.3635156,-0.1228478,0.07912441,0.1043672,-1.100557,0.561768,0.005619803,0.4735395,1.493588,0.25264,-0.1235519,1.434154,0.2885832,291.2286,20.20259,227.5617,True
5,1.066668,-0.4857371,-0.5265747,-0.4321098,4.49456,-4.608371,-1.919053,0.178562,1.329278,0.3935647,-0.9772773,0.1399366,10.45093,47.80373,0.4296799,-0.3385627,0.6082802,-0.1781229,-3.041028,-0.8191079,0.2996186,1.469594,0.3617082,-0.1392062,-0.1126569,0.06414047,-1.100231,0.5539344,0.01085638,0.4718391,1.493384,0.2508845,-0.1244912,1.437223,0.2898893,291.3524,22.66474,225.6772,True
5,1.077779,-0.3950548,-0.6095319,-0.4501844,4.505311,-4.610498,-1.917883,0.1769593,1.330602,0.393554,-0.9768187,0.03915015,11.45889,47.86801,0.3692993,-0.2025102,0.6878982,-0.1729425,-2.988925,-0.8724849,0.2986349,1.47015,0.3598988,-0.1367193,-0.2319856,-0.004041061,-1.102531,0.5465534,0.01561704,0.4707387,1.493326,0.2491033,-0.1252603,1.440161,0.2907394,291.4199,25.46415,223.4678,True
5,1.08889,-0.3266566,-0.6934806,-0.4362542,4.516335,-4.611358,-1.916268,0.175063,1.332086,0.3933516,-0.975232,0.1429433,12.25464,47.99657,0.3415877,-0.1323131,0.708521,-0.167907,-2.946033,-0.9175336,0.2973476,1.470576,0.3581574,-0.1555603,-0.2416071,-0.07306081,-1.105444,0.5433415,0.01932709,0.4694936,1.493304,0.2474837,-0.1259721,1.44266,0.2909346,291.31,28.34411,220.9177,True
5,1.100002,-0.2272543,-0.8317152,-0.4253922,4.531002,-4.61067,-1.916902,0.1733056,1.333182,0.393177,-0.9738328,0.1244745,12.83819,48.18941,0.3312811,-0.03316987,0.656593,-0.1671325,-2.907965,-0.9583145,0.2957916,1.471106,0.3564129,-0.2163503,-0.1532231,-0.1768345,-1.110964,0.5447271,0.02311491,0.4681523,1.493322,0.2458632,-0.1269945,1.444509,0.2906066,291.0581,30.8366,218.3937,True
5,1.111113,-0.2005075,-0.8699601,-0.4125618,4.542665,-4.611188,-1.91526,0.1720004,1.334033,0.3925958,-0.9702295,0.3253154,13.18302,48.16799,0.3411573,0.01281029,0.5809553,-0.1662366,-2.884035,-0.9862913,0.2944452,1.471532,0.3546593,-0.2291724,-0.1095444,-0.1798777,-1.112416,0.5450688,0.02573492,0.466951,1.493506,0.2442827,-0.1284756,1.445523,0.2898368,290.7524,32.60153,216.5074,True
5,1.122224,-0.1976531,-0.7016082,-0.4046373,4.545878,-4.614704,-1.913727,0.1709513,1.334504,0.391561,-0.9686742,0.1362476,13.39523,47.28947,0.1865199,0.1725965,0.3684793,-0.174183,-2.876892,-0.9902347,0.2925778,1.471569,0.3527551,-0.2147377,-0.06265647,-0.1246446,-1.112028,0.5460529,0.02726145,0.4653246,1.493751,0.2428079,-0.1304794,1.44567,0.2885408,290.2834,33.75736,215.362,True
5,1.133335,-0.0988314,-0.5414641,-0.3692791,4.547016,-4.617817,-1.916327,0.1701184,1.3351,0.3903594,-0.9618837,0.6162946,13.50132,46.04671,0.04467089,0.3098202,0.2698402,-0.1807386,-2.853296,-1.009078,0.2914745,1.471888,0.3512383,-0.1711389,-0.039189,-0.0334855,-1.109005,0.5461822,0.02732563,0.464128,1.493899,0.2411397,-0.1325785,1.444679,0.2865719,289.6265,34.84344,214.3331,True
5,1.144446,-0.04891868,-0.4689124,-0.3686047,4.550836,-4.620784,-1.918134,0.1691162,1.33567,0.3894551,-0.9562293,0.5079714,13.44828,44.6111,-0.01573439,0.3417616,0.1947932,-0.1854391,-2.841191,-1.018449,0.290279,1.472343,0.349607,-0.0809186,-0.02209998,0.1328247,-1.101555,0.5462063,0.02499963,0.4626079,1.494169,0.2395935,-0.1347663,1.442745,0.2840801,288.7802,34.60976,214.3662,True
5,1.155557,-0.04489342,-0.3399504,-0.3541643,4.551951,-4.624391,-1.918277,0.1679839,1.336079,0.3882248,-0.9549686,0.1074372,13.3687,43.15406,0.01448805,0.2480593,0.211406,-0.1824984,-2.828285,-1.033057,0.2893022,1.472784,0.3478899,-0.06112766,-0.003974527,0.190137,-1.097338,0.5467516,0.02464196,0.4611158,1.494346,0.2379065,-0.1371182,1.440326,0.2815914,287.9179,32.59792,215.9343,True
5,1.166668,-0.03649072,-0.3303002,-0.3232572,4.556377,-4.626303,-1.91787,0.1666282,1.336855,0.3874636,-0.948675,0.5702584,13.4748,42.16842,0.08363308,0.1064303,0.2787177,-0.175938,-2.812444,-1.052248,0.28824,1.473242,0.346256,-0.0911292,0.0109309,0.174477,-1.095937,0.5474591,0.02639725,0.4597262,1.494498,0.2361717,-0.1394728,1.437597,0.2794572,287.1757,30.36868,217.8408,True
5,1.17778,-0.02134592,-0.3279991,-0.3031541,4.560681,-4.627199,-1.918517,0.1651561,1.33728,0.3865499,-0.9403217,0.7537895,13.63395,41.35419,0.1382207,0.05754521,0.2930554,-0.1732136,-2.796566,-1.071534,0.2868839,1.473472,0.3444476,-0.1522055,-0.02529802,0.1410643,-1.09588,0.5457798,0.03128788,0.4586145,1.494529,0.2342768,-0.1419506,1.43472,0.2777956,286.4745,28.59625,219.4993,True
5,1.188891,-0.02026,-0.2521117,-0.2342057,4.561264,-4.627872,-1.918296,0.1637141,1.337646,0.3854034,-0.9331173,0.6475732,13.81963,40.62567,0.08575679,0.1192243,0.2819105,-0.1753905,-2.773244,-1.093346,0.2855379,1.473685,0.3427682,-0.1812003,-0.08708015,0.1190298,-1.09523,0.54241,0.03581898,0.457554,1.494654,0.2325275,-0.1447055,1.431989,0.2766776,285.8868,26.61969,221.5386,True
5,1.200002,-0.04378763,-0.1529302,-0.1886808,4.559895,-4.628856,-1.917203,0.1626882,1.337821,0.3843033,-0.9273095,0.5207163,13.97878,40.04714,0.03463748,0.2130067,0.1909142,-0.1809341,-2.763559,-1.101405,0.2841497,1.473965,0.3410871,-0.1502112,-0.1169016,0.1272232,-1.093622,0.5396591,0.03769385,0.4562712,1.494799,0.2308319,-0.147596,1.429572,0.2759949,285.3385,24.88547,223.5352,True
5,1.211113,-0.05255008,-0.0656437,-0.2049499,4.558882,-4.632653,-1.916761,0.1617139,1.338166,0.3833981,-0.9193205,0.7209801,13.95225,39.68288,0.02462174,0.2343665,0.1494929,-0.1836558,-2.754776,-1.110053,0.2827537,1.474449,0.3393297,-0.1142162,-0.124332,0.1065982,-1.093035,0.5383815,0.03827575,0.4550858,1.495049,0.2292123,-0.1503665,1.42741,0.2755238,285.0202,23.57519,225.2266,True
5,1.222224,-0.01862928,-0.03694557,-0.2445583,4.559569,-4.636864,-1.918404,0.1606507,1.338537,0.3826017,-0.9108011,0.7675204,13.87268,39.12578,0.06876126,0.1534659,0.1777196,-0.1812702,-2.743204,-1.123787,0.2814495,1.47489,0.3377056,-0.1072277,-0.08066116,0.06390044,-1.093728,0.5390219,0.03891011,0.453741,1.495181,0.2275686,-0.1529059,1.42549,0.2750823,284.9667,21.91388,227.2368,True
5,1.233335,0.04871511,-0.174308,-0.2698362,4.567559,-4.638311,-1.92155,0.1594308,1.338897,0.381717,-0.9032809,0.6758758,13.76658,38.41868,0.1406103,0.09286267,0.2131976,-0.1783796,-2.726241,-1.144761,0.2800155,1.474974,0.3359773,-0.121393,-0.04549821,0.03635776,-1.094082,0.540118,0.0405421,0.4524317,1.495314,0.2259054,-0.1550898,1.423799,0.2746022,284.9521,20.17065,229.2039,True
5,1.244446,0.06593952,-0.27125,-0.2801964,4.574913,-4.639301,-1.923013,0.1583007,1.339163,0.3809733,-0.8974682,0.5203352,13.5809,37.47589,0.1357617,0.1313107,0.1579191,-0.1812654,-2.720085,-1.152002,0.2784326,1.474859,0.3342898,-0.1535055,-0.01035076,0.02284986,-1.094327,0.5414168,0.04280872,0.4509236,1.495481,0.224323,-0.1571035,1.422355,0.2742066,284.7861,19.06223,230.3721,True
5,1.255558,0.06078201,-0.291339,-0.2353863,4.57894,-4.639314,-1.923477,0.1572976,1.339392,0.3800218,-0.891417,0.543197,13.39523,36.31884,0.04275568,0.3453678,0.06431659,-0.1924784,-2.708027,-1.161131,0.277109,1.474761,0.3326509,-0.1507472,0.01311082,0.08248571,-1.091118,0.542443,0.04420155,0.449424,1.49558,0.22278,-0.1590065,1.420909,0.2739557,284.5559,19.27275,230.2917,True
5,1.266669,0.0190968,-0.2243014,-0.2323302,4.58005,-4.641845,-1.922476,0.1567005,1.339499,0.3790853,-0.8815185,0.8942378,13.2626,35.16178,0.003467649,0.4317032,-0.01613259,-0.2004945,-2.704616,-1.163234,0.2760568,1.475249,0.3311489,-0.1008727,0.01313493,0.1629118,-1.086393,0.5423759,0.04356639,0.4478419,1.495824,0.2211726,-0.1607711,1.419,0.2735459,284.2455,20.70271,229.194,True
5,1.27778,0.02854791,-0.1603636,-0.232579,4.580588,-4.644443,-1.923453,0.1559513,1.33971,0.3783159,-0.872051,0.8522567,13.18302,33.98329,0.09416134,0.2155491,0.05617937,-0.1951618,-2.700661,-1.171077,0.2752384,1.475832,0.3296254,0.01187483,-0.0209175,0.244776,-1.080941,0.5405784,0.04025554,0.4465127,1.496047,0.219527,-0.1625672,1.416481,0.2727651,283.9221,20.92535,229.2363,True
5,1.288891,0.1255231,-0.2071097,-0.2571856,4.585624,-4.646758,-1.928539,0.1551619,1.340065,0.3779202,-0.8619512,0.9108502,13.07692,32.61195,0.2029607,0.07078117,0.1497687,-0.1893071,-2.684882,-1.192528,0.2740617,1.476101,0.3279829,0.01036541,-0.04009907,0.2053633,-1.080612,0.5393327,0.04128379,0.444961,1.496173,0.2178392,-0.164451,1.413477,0.2715525,283.6042,18.93232,231.3355,True
5,1.300002,0.1660794,-0.2859778,-0.2921728,4.592865,-4.648819,-1.932235,0.1544527,1.339984,0.3773103,-0.8556592,0.5623544,12.91777,30.96207,0.296368,-0.003657252,0.2095324,-0.1850268,-2.667814,-1.215993,0.2727866,1.476205,0.3263614,-0.08444457,-0.04545758,0.1073101,-1.082909,0.5386329,0.04579598,0.4436909,1.496344,0.2161286,-0.1664149,1.410278,0.2701331,283.1861,15.19856,234.9444,True
5,1.311113,0.1342219,-0.2848276,-0.2505571,4.596279,-4.649171,-1.932298,0.1536923,1.339952,0.3766513,-0.8518179,0.3411046,12.65252,28.99078,0.2088702,0.166715,0.1243302,-0.1932161,-2.661615,-1.221023,0.2712168,1.476009,0.3246741,-0.1785116,-0.0699954,0.07951127,-1.08372,0.5366585,0.05222778,0.4424943,1.496762,0.2145996,-0.168403,1.407085,0.2687769,282.6961,11.51379,238.416,True
5,1.322224,0.1277167,-0.2166216,-0.2390595,4.596956,-4.651206,-1.933624,0.1528737,1.33986,0.375711,-0.8425714,0.8367972,12.30769,27.08378,0.06696446,0.3337746,0.02894421,-0.2032594,-2.659185,-1.219114,0.2698004,1.47586,0.3230462,-0.1585494,-0.1189827,0.1517497,-1.079864,0.533066,0.05511225,0.4410882,1.496988,0.2130957,-0.1701902,1.403655,0.2676108,282.1078,9.716314,240.0921,True
5,1.333336,0.2000972,-0.2389709,-0.2796721,4.6017,-4.65467,-1.938751,0.1517592,1.340147,0.3752215,-0.8308013,1.063288,11.90981,25.51961,-0.06940126,0.4773802,-0.04949158,-0.2140287,-2.657064,-1.215511,0.2686352,1.475695,0.3216965,-0.1034423,-0.1306826,0.2246221,-1.075456,0.5306751,0.05530533,0.4399307,1.497207,0.2116251,-0.1718335,1.399802,0.2666277,281.5989,8.205768,241.594,True
5,1.344447,0.2533857,-0.2366914,-0.2702358,4.605243,-4.656374,-1.943788,0.1507714,1.340351,0.3745885,-0.823663,0.6385683,11.51194,23.99829,-0.06588942,0.444316,-0.02400573,-0.2168282,-2.646885,-1.225361,0.2678273,1.475775,0.3204098,0.002828479,-0.09763145,0.3001657,-1.069737,0.5304397,0.05174229,0.4387567,1.497315,0.2101841,-0.1736283,1.395854,0.2657728,281.3721,4.465189,245.4213,True
5,1.355558,0.1159344,-0.1365997,-0.2009844,4.603469,-4.657055,-1.940528,0.1498494,1.340144,0.3740165,-0.8197178,0.3505952,11.14058,22.43411,0.05040135,0.1845697,0.03840961,-0.2095902,-2.646632,-1.230094,0.2670978,1.476267,0.3192275,0.05296163,-0.04647872,0.3070595,-1.066351,0.5318891,0.04883412,0.4377009,1.497354,0.2085786,-0.1756786,1.392101,0.2650513,281.2297,359.9689,250.0554,True
5,1.366669,0.0295991,-0.1111957,-0.1955346,4.604654,-4.658953,-1.937959,0.1487521,1.340099,0.3729129,-0.8124948,0.6523007,10.8488,20.95564,0.2239034,-0.01641554,0.08231433,-0.2021574,-2.647125,-1.237928,0.2661301,1.476563,0.3180585,0.02203232,-0.004955409,0.2051021,-1.067641,0.5333394,0.04909857,0.4366162,1.497359,0.207032,-0.1778531,1.388461,0.2645467,280.9001,356.4908,253.6339,True
5,1.37778,0.03274383,-0.1176663,-0.2200224,4.607253,-4.661462,-1.938706,0.1478816,1.340172,0.3722258,-0.7968865,1.416393,10.66313,19.90572,0.2630748,-0.01625529,0.05427198,-0.2023262,-2.648678,-1.240635,0.2651038,1.476601,0.3166955,-0.05253958,-0.02735457,0.105762,-1.069781,0.5323498,0.05260356,0.4355862,1.497468,0.2056324,-0.1799085,1.384773,0.2642453,280.7855,353.4132,256.8172,True
5,1.388891,0.07842452,-0.055776,-0.2193045,4.606973,-4.66451,-1.941777,0.1471584,1.34028,0.3709795,-0.7897657,0.6345646,10.61008,19.19863,0.1773743,0.1103181,0.03927668,-0.2082635,-2.640735,-1.246898,0.2638402,1.476502,0.3151851,-0.07096317,-0.07635729,0.07824968,-1.069922,0.5295221,0.05559615,0.4346351,1.497375,0.204263,-0.1820482,1.38146,0.2640547,281.0712,348.8896,261.576,True
5,1.400002,0.1103307,-0.04402805,-0.2300822,4.608109,-4.667228,-1.944472,0.1465257,1.340455,0.3702903,-0.7866786,0.2733738,10.6366,18.64153,0.01927575,0.249471,0.03240799,-0.2155776,-2.628249,-1.253727,0.2627217,1.476569,0.3138976,-0.04418555,-0.1455957,0.09075902,-1.068766,0.5247867,0.05749472,0.4335573,1.497405,0.2030313,-0.1841858,1.378879,0.2638334,281.1862,344.9034,265.9326,True
5,1.411114,0.04948843,0.02085309,-0.2237691,4.606675,-4.670492,-1.943034,0.1457052,1.340372,0.3696125,-0.7828761,0.3412771,10.79576,17.84872,0.01640683,0.1567487,0.04292271,-0.2134816,-2.626887,-1.255215,0.2617659,1.476962,0.3125637,-0.004617631,-0.1562432,0.1052294,-1.067347,0.522448,0.05721961,0.4324234,1.497419,0.2018442,-0.1859208,1.376944,0.2636087,281.119,342.6387,268.4429,True
5,1.422225,-0.04396394,-0.07083558,-0.1848639,4.610592,-4.669729,-1.939422,0.1446025,1.340113,0.3685465,-0.7762646,0.5971761,11.00796,16.92736,0.1333928,0.0418842,0.1066623,-0.2091162,-2.616665,-1.270727,0.2607469,1.477159,0.3114202,0.006620567,-0.06888208,0.06353683,-1.067987,0.5252132,0.05565501,0.4313174,1.497405,0.2007074,-0.1871909,1.375384,0.263389,281.1374,342.2652,268.9574,True
5,1.433336,-0.1196685,-0.05826623,-0.2006897,4.611687,-4.672266,-1.935823,0.1437533,1.340163,0.3679848,-0.7657248,0.9542572,11.22016,16.75595,0.1586056,0.0452192,0.06702632,-0.209896,-2.618069,-1.272079,0.2596239,1.476854,0.3105161,-0.0374824,-0.00919966,0.02457326,-1.069042,0.52811,0.05624197,0.4305481,1.497735,0.1993885,-0.1882082,1.373912,0.2632024,281.1396,342.5341,268.7027,True
5,1.444447,-0.1378149,-0.004931331,-0.169952,4.610397,-4.673967,-1.933966,0.1428993,1.34035,0.3669355,-0.7578217,0.7109794,11.53846,17.27019,0.07072276,0.141991,0.03709295,-0.2148313,-2.613929,-1.273713,0.2586875,1.476756,0.3094516,-0.08210585,0.0238198,0.03570358,-1.068078,0.5295835,0.05797062,0.4291454,1.498029,0.1983128,-0.1894323,1.372546,0.2630646,281.218,342.3212,269.0209,True
5,1.455558,-0.03978334,-0.0004208162,-0.1574396,4.610659,-4.675221,-1.936866,0.1422163,1.340891,0.3663373,-0.7521784,0.5069936,12.04244,18.29869,-0.001161635,0.2632895,0.01558151,-0.221983,-2.606539,-1.278256,0.2580421,1.476725,0.3087094,-0.01303455,-0.0176845,0.1191208,-1.064172,0.5277066,0.05670908,0.4283518,1.498183,0.1973181,-0.1908709,1.371356,0.2627122,281.147,341.3803,270.2329,True
5,1.466669,0.02099215,-0.04508115,-0.1723764,4.613586,-4.677094,-1.93937,0.1416001,1.341287,0.3658464,-0.749111,0.2733788,12.65252,19.69145,0.05727208,0.1333621,0.08304084,-0.2181118,-2.594028,-1.292877,0.2574878,1.476946,0.3077009,0.07382725,-0.07945462,0.1714838,-1.060649,0.5241002,0.05471491,0.4271888,1.49813,0.1963947,-0.1924144,1.370522,0.2622556,281.1635,339.4927,272.1973,True
5,1.47778,-0.01836448,-0.07606404,-0.174297,4.616167,-4.678304,-1.938069,0.1406998,1.341483,0.3656616,-0.7492729,-0.02009167,13.31565,21.25562,0.1522268,-0.08810344,0.153168,-0.20908,-2.586119,-1.305392,0.2568966,1.477111,0.306849,0.08494349,-0.08692032,0.1149025,-1.061149,0.5226937,0.05400491,0.4263278,1.498163,0.1952841,-0.1938148,1.370088,0.2617677,281.3247,338.067,273.6578,True
5,1.488891,-0.1450605,-0.09116823,-0.1547428,4.617684,-4.678858,-1.931818,0.1398937,1.341647,0.3654842,-0.7443871,0.4436301,14.00531,22.94836,0.2011522,-0.1316076,0.1313532,-0.2065606,-2.586356,-1.308758,0.2560783,1.477152,0.305994,0.04591613,-0.06883369,0.05034667,-1.062621,0.5226946,0.05480466,0.4253243,1.497961,0.1940751,-0.1947661,1.369717,0.2612736,281.2592,338.1825,273.5426,True
5,1.500003,-0.198294,-0.1115342,-0.1587948,4.620166,-4.679958,-1.927817,0.1390673,1.342054,0.36515,-0.7358043,0.7775263,14.53581,24.59824,0.1830149,-0.03027493,0.03795255,-0.2101437,-2.595583,-1.301279,0.2551359,1.477132,0.305052,-0.05053453,-0.07205073,-0.002956651,-1.064609,0.5218515,0.05907424,0.4244784,1.498023,0.1930664,-0.1954796,1.369039,0.2608169,280.9767,338.918,272.7165,True
5,1.511114,-0.07674994,-0.1859204,-0.1780392,4.625381,-4.681104,-1.931256,0.1382436,1.342936,0.3646977,-0.7263202,0.8578857,14.93369,25.94815,0.07182164,0.1228186,0.0339015,-0.2163973,-2.585671,-1.308461,0.2542996,1.477281,0.304369,-0.07462736,-0.106172,0.03357603,-1.062259,0.5184171,0.06210731,0.4232705,1.49772,0.1921504,-0.1964228,1.368065,0.2604866,280.8204,338.46,273.0287,True
5,1.522225,0.002173892,-0.2401148,-0.1855202,4.630353,-4.681718,-1.933883,0.1375024,1.343433,0.3638043,-0.7243899,0.1672208,15.11936,26.50525,0.04969816,0.1184479,0.06072248,-0.217151,-2.577042,-1.316651,0.2535916,1.47752,0.303484,-0.02732187,-0.1253337,0.07355771,-1.060186,0.5159197,0.06202609,0.4223131,1.497676,0.1912317,-0.1977275,1.367195,0.2603253,280.8989,335.8447,275.6281,True
5,1.533336,0.02238267,-0.270027,-0.2216889,4.635457,-4.683721,-1.935164,0.1366957,1.343921,0.3635311,-0.7284832,-0.3774918,15.17241,26.65524,0.08997533,0.002324164,0.1208621,-0.2119908,-2.566472,-1.329927,0.2529021,1.47755,0.302531,0.03557248,-0.1008408,0.07502318,-1.0591,0.515344,0.05912511,0.4215371,1.497837,0.1904678,-0.199158,1.366734,0.2603168,280.9077,333.009,278.6393,True
5,1.544447,-0.09164462,-0.2489499,-0.2193367,4.638055,-4.685284,-1.930153,0.1356798,1.343998,0.3631377,-0.7246616,0.3500932,15.03979,26.3124,0.1076334,-0.05951278,0.1717268,-0.2083716,-2.552831,-1.345148,0.2521745,1.477696,0.3015447,0.01365055,-0.03694397,0.01666516,-1.060697,0.5173933,0.05850246,0.4206972,1.497837,0.1896346,-0.2002888,1.366387,0.2603485,280.6116,332.5214,279.4385,True
5,1.555558,-0.2045345,-0.2149576,-0.1797459,4.639514,-4.685531,-1.9242,0.1345807,1.344028,0.3628104,-0.7192063,0.4926468,14.77454,25.56246,0.09294793,-0.05641335,0.1942361,-0.2072365,-2.539554,-1.359175,0.2511998,1.477731,0.3007522,-0.03256202,0.00563032,-0.02011139,-1.061777,0.5187824,0.05987265,0.4198113,1.497774,0.1888227,-0.2011509,1.365756,0.2602479,280.2843,333.3325,278.8725,True
5,1.566669,-0.2195478,-0.1691669,-0.1820351,4.640665,-4.687923,-1.921776,0.1337853,1.344922,0.3634181,-0.7093905,0.8912635,14.42971,24.66253,0.03735671,0.007363148,0.1916569,-0.2091146,-2.527581,-1.36933,0.2503084,1.477477,0.299829,-0.02495836,0.001333402,-0.008455932,-1.061182,0.5178218,0.06003404,0.4189083,1.497829,0.1880114,-0.2021204,1.364721,0.2600791,280.0337,333.302,278.8942,True
5,1.577781,-0.1589091,-0.1328329,-0.1855133,4.641557,-4.689968,-1.922175,0.1327751,1.345567,0.3629861,-0.705148,0.3787795,14.24403,23.69831,-0.06515671,0.1915607,0.09597156,-0.2178072,-2.529094,-1.363969,0.249486,1.477299,0.2991312,0.0009259288,-0.01144091,0.0211005,-1.059913,0.5170603,0.05954269,0.4180267,1.497746,0.1872814,-0.2035502,1.363619,0.2599317,280.1105,331.0386,281.1083,True
5,1.588892,-0.07892829,-0.1870217,-0.1929923,4.646255,-4.690862,-1.924113,0.1318437,1.346016,0.3623989,-0.7060956,-0.09077547,14.37666,22.77694,-0.05674921,0.1554053,0.07026862,-0.2179052,-2.528554,-1.364662,0.2487732,1.477548,0.2982392,0.03656127,-0.03063966,0.06336136,-1.057443,0.5151516,0.05856637,0.417412,1.497773,0.1864388,-0.2052334,1.36294,0.2598663,280.3662,327.2744,284.8095,True
5,1.600003,-0.04697304,-0.2158035,-0.2174771,4.650627,-4.692761,-1.924863,0.1308887,1.346538,0.3621447,-0.7068461,-0.06923158,14.72149,22.17699,-0.01656087,-0.0235238,0.1036632,-0.2112153,-2.52427,-1.370074,0.2480767,1.477824,0.2974849,0.030022,-0.03916563,0.04958375,-1.057344,0.5143062,0.05882097,0.4165687,1.497758,0.1856883,-0.2068009,1.362944,0.260126,280.5201,324.2058,287.7891,True
5,1.611114,-0.1034076,-0.2041324,-0.1982017,4.652966,-4.69378,-1.921711,0.1297794,1.346426,0.361613,-0.705995,0.07631129,15.19894,21.89844,0.01499821,-0.1130151,0.1500897,-0.2062863,-2.511967,-1.383579,0.2472031,1.477916,0.2966299,-0.03859426,-0.02107367,0.00984842,-1.05848,0.5148576,0.06138746,0.4162571,1.497701,0.1850011,-0.2081005,1.363429,0.2606444,280.3965,324.3418,287.8857,True
5,1.622225,-0.1310241,-0.1933604,-0.150228,4.654462,-4.693385,-1.919062,0.128845,1.346596,0.3617334,-0.7018782,0.3732975,15.70292,21.81273,0.04768543,-0.04365044,0.1328861,-0.2081031,-2.505645,-1.391267,0.2462674,1.477964,0.2957911,-0.0771825,0.01406209,-0.01316246,-1.059085,0.5162997,0.06254647,0.4153056,1.497639,0.1843498,-0.2090448,1.363891,0.261166,279.9455,326.5136,286.0834,True
5,1.633336,-0.1427511,-0.1837821,-0.1459696,4.656616,-4.694203,-1.917125,0.127957,1.346867,0.3615236,-0.6950701,0.6173758,16.18037,22.04842,0.06231369,0.009686492,0.114741,-0.2100387,-2.501554,-1.396631,0.2452362,1.47787,0.2949605,-0.0719496,0.03217045,-0.02173574,-1.059363,0.5173747,0.06250732,0.4145284,1.497571,0.1836307,-0.2099633,1.36403,0.2615931,279.5452,328.6937,284.1359,True
5,1.644447,-0.1108111,-0.1826802,-0.1524496,4.659328,-4.69539,-1.917096,0.1270825,1.347136,0.3608491,-0.6926605,0.2134483,16.65783,22.51982,0.04511249,0.07888018,0.1182259,-0.2129719,-2.491903,-1.405916,0.244291,1.477739,0.2941804,-0.04122507,0.04815079,-0.03802632,-1.059839,0.518541,0.06114564,0.4134551,1.49766,0.1831019,-0.2110934,1.363852,0.2618506,279.4702,329.2318,283.7254,True
5,1.655559,-0.03089811,-0.2145416,-0.171721,4.663406,-4.696584,-1.919453,0.1263712,1.347494,0.3605194,-0.6908831,0.1593514,17.00265,23.07692,0.02234679,0.1055178,0.08119147,-0.2149256,-2.491717,-1.405593,0.243402,1.477616,0.2935243,-0.02420724,0.06306773,-0.04034426,-1.060316,0.5199718,0.06012299,0.4125074,1.497717,0.1824639,-0.2122682,1.363517,0.2619218,279.5443,328.0051,285.0073,True
5,1.66667,-0.001044094,-0.2315451,-0.1749394,4.667212,-4.697413,-1.920387,0.1255359,1.347652,0.3597209,-0.6903276,0.04785062,17.08223,23.69831,0.004142189,0.06077633,0.05676997,-0.2140148,-2.493027,-1.4039,0.2425734,1.477646,0.2927616,-0.016411,0.06516962,-0.01056392,-1.058911,0.5201469,0.05979942,0.4114122,1.497539,0.1818123,-0.2134489,1.363137,0.2618068,279.5599,326.2921,286.8165,True
5,1.677781,-0.01489083,-0.2070015,-0.1547481,4.668943,-4.697865,-1.919803,0.1246981,1.347812,0.3593445,-0.6901262,0.01597867,16.92308,24.04114,-0.002234578,0.01923331,0.04609417,-0.2128143,-2.492952,-1.403705,0.241815,1.477568,0.2919862,-0.004347026,0.06730846,0.02126554,-1.057583,0.520986,0.05904282,0.4104379,1.497526,0.181097,-0.2145127,1.362664,0.2615116,279.4337,325.078,288.1176,True
5,1.688892,-0.04483783,-0.1345871,-0.1432118,4.668521,-4.699419,-1.918174,0.123768,1.347642,0.358346,-0.6860772,0.3680228,16.71088,23.80544,0.01800312,0.01822359,0.04485092,-0.2130263,-2.490098,-1.407493,0.2410778,1.477702,0.2912526,0.010713,0.05770167,0.03285139,-1.056495,0.5209232,0.05827529,0.4096913,1.49744,0.1803536,-0.215365,1.361879,0.2610925,279.1819,324.5116,288.6994,True
5,1.700003,-0.06939402,-0.06741251,-0.1114233,4.66723,-4.700119,-1.916678,0.1229339,1.347583,0.3579128,-0.6816307,0.4014078,16.4191,23.22691,0.04491794,0.03313947,0.08086097,-0.213545,-2.479376,-1.419393,0.2401988,1.477777,0.2904725,0.005192943,0.04278304,0.01480309,-1.056912,0.5209259,0.05838848,0.408768,1.497463,0.1796288,-0.2162449,1.360713,0.2605368,279.0678,323.607,289.5998,True
5,1.711114,-0.0950134,-0.009818815,-0.08389472,4.665642,-4.701442,-1.914812,0.1224335,1.348348,0.35936,-0.6778656,0.3393821,16.12732,22.41268,0.04186512,0.02990616,0.09578736,-0.2135914,-2.472599,-1.426355,0.2391256,1.477727,0.2897727,-0.02692887,0.01719675,0.0002611992,-1.057227,0.5200312,0.06032752,0.4079318,1.497373,0.1790299,-0.217314,1.359336,0.2599007,279.2247,321.8242,291.351,True
5,1.722225,-0.06202999,0.05432213,-0.04372531,4.662971,-4.701843,-1.915008,0.1215594,1.348282,0.3589644,-0.6756291,0.2002932,15.86207,21.40561,0.02172036,0.05857868,0.1151977,-0.2149267,-2.462439,-1.435828,0.2382516,1.477654,0.2890964,-0.05262939,-0.006246466,-0.01223776,-1.057766,0.5191788,0.06217842,0.4068601,1.497378,0.1783483,-0.2186159,1.357991,0.2592324,279.5698,319.7196,293.4453,True
5,1.733337,-0.01622839,0.05867998,-0.04279259,4.662358,-4.702519,-1.916357,0.1208021,1.348335,0.358475,-0.6730788,0.2301759,15.64987,20.37712,0.01472731,0.1097924,0.06316022,-0.2181076,-2.465493,-1.432666,0.2373538,1.477524,0.2885585,-0.03965136,-0.01902168,0.004688336,-1.056904,0.5184955,0.06238055,0.4062431,1.497428,0.1777043,-0.2198458,1.356916,0.2587136,279.9727,316.8249,296.0405,True
5,1.744448,0.009259834,0.05861918,-0.07375492,4.662735,-4.704547,-1.917414,0.1199023,1.348225,0.3578193,-0.6729563,0.007760808,15.49072,19.43433,0.04436208,0.04283804,0.020156,-0.2163366,-2.472544,-1.427493,0.2365888,1.477466,0.2879682,0.0173297,-0.02645812,0.05200826,-1.05471,0.517705,0.06060689,0.4050852,1.497527,0.1771233,-0.2208658,1.356396,0.2587377,280.3488,314.1748,298.2728,True
5,1.755559,-0.02482884,0.0703011,-0.06412011,4.661794,-4.705326,-1.916076,0.119035,1.348198,0.35741,-0.6720242,0.08374621,15.27851,18.57724,0.04356892,-0.09563862,0.009173851,-0.2118486,-2.477509,-1.423528,0.2356986,1.477459,0.287288,0.05550959,0.003366187,0.03666539,-1.054835,0.518773,0.05812988,0.4039759,1.497448,0.1765521,-0.2217883,1.35637,0.2591746,280.4888,314.731,297.8679,True
5,1.76667,-0.05149631,0.09049152,-0.06093446,4.660522,-4.706441,-1.914516,0.1180888,1.348036,0.3563914,-0.6696146,0.2181511,15.03979,18.04157,0.02133123,-0.09358741,0.02542759,-0.2100941,-2.473999,-1.426062,0.234535,1.477404,0.2866197,0.04661255,0.03850975,0.003706448,-1.056268,0.5206968,0.05724252,0.4029196,1.497354,0.1759887,-0.2226147,1.356527,0.2597509,280.3442,316.8466,296.1973,True
5,1.777781,-0.05148143,0.1193536,-0.03227083,4.658171,-4.706656,-1.91393,0.117139,1.348104,0.3560328,-0.6653844,0.3837926,14.72149,17.72016,-0.0205025,0.02986758,0.0302985,-0.2141975,-2.468621,-1.429736,0.2334284,1.477453,0.2859333,0.00785153,0.07045347,-0.03316535,-1.057792,0.5230458,0.05737275,0.4018837,1.49737,0.1753745,-0.2235274,1.356592,0.2602949,280.1434,318.9463,294.4733,True
5,1.788892,0.000923708,0.1165245,0.04536643,4.656153,-4.704079,-1.915676,0.1164754,1.348149,0.3549318,-0.6634504,0.1728328,14.37666,17.39876,-0.01755017,0.0831633,0.01971924,-0.217021,-2.467726,-1.430488,0.2323437,1.477677,0.285239,0.002412252,0.05339875,-0.04167211,-1.059083,0.5228792,0.05790991,0.4006699,1.497548,0.1748528,-0.2245964,1.356554,0.2606862,280.1957,320.0762,293.6443,True
5,1.800003,0.02654488,0.08353771,0.04328158,4.656299,-4.703729,-1.916956,0.1164983,1.348302,0.3541591,-0.663314,0.01058654,14.08488,17.16306,0.03344131,0.05032448,-0.006366558,-0.2166247,-2.472486,-1.427953,0.2313139,1.477963,0.2845414,-0.007273087,0.02569718,-0.05114991,-1.060019,0.5221825,0.0586484,0.3994801,1.49766,0.1742563,-0.225803,1.356509,0.2607838,280.3874,320.3341,293.6459,True
5,1.811115,-0.08655968,0.1300531,0.006117329,4.654045,-4.705921,-1.9123,0.1165445,1.348142,0.3534026,-0.664839,-0.1400075,13.87268,17.05592,0.06431952,0.004626166,-0.02164867,-0.2149262,-2.477403,-1.424961,0.230175,1.478106,0.283886,-0.02000598,0.01290731,-0.04570095,-1.060561,0.5218216,0.05959995,0.3987249,1.497702,0.1737614,-0.2268641,1.356518,0.2605282,280.6422,320.3867,293.7848,True
5,1.822226,-0.01302879,0.08323821,-0.02054366,4.654797,-4.706798,-1.914361,0.1158651,1.348174,0.3528018,-0.6634211,0.1301823,13.7931,17.01307,0.01663018,0.092816,0.03328266,-0.2184804,-2.46432,-1.436227,0.2291139,1.478083,0.2830772,-0.04020881,0.004381169,-0.04228359,-1.060905,0.5214903,0.06095709,0.3974476,1.497813,0.1732047,-0.227331,1.356435,0.2596583,280.774,321.0099,293.3946,True
5,1.833337,0.1278383,-0.05821435,-0.03639447,4.659809,-4.705949,-1.92022,0.1148639,1.348046,0.352571,-0.6564159,0.638691,13.81963,17.05592,-0.008084655,0.1982003,0.0411564,-0.2241114,-2.457649,-1.44177,0.2281435,1.477953,0.2824428,-0.0397879,0.03848546,0.000257411,-1.060333,0.5233964,0.06100343,0.3960477,1.497872,0.1726525,-0.227194,1.356133,0.2582459,280.7305,320.9533,293.3231,True
5,1.844448,0.1341928,-0.0721105,-0.05983708,4.661329,-4.707527,-1.921865,0.1141236,1.348731,0.3541753,-0.6619745,-0.5139116,14.03183,17.27019,-0.006098524,0.2024956,0.02623211,-0.2265146,-2.457323,-1.442087,0.2271411,1.477879,0.2817707,-0.02118487,0.05447663,0.04691237,-1.058448,0.5245352,0.06019223,0.394935,1.497885,0.1720877,-0.2271835,1.355957,0.2566881,280.8345,319.4238,294.3726,True
5,1.855559,0.06180058,-0.09994707,-0.0595594,4.663064,-4.707577,-1.919785,0.1128043,1.348428,0.3538725,-0.6658947,-0.3539214,14.24403,17.74159,-0.03089669,0.1801338,-0.01406415,-0.2276204,-2.464707,-1.433836,0.2262198,1.477518,0.2813289,0.01664674,0.05556494,0.09971292,-1.056461,0.5251434,0.05887903,0.393957,1.498001,0.1714411,-0.2275597,1.355887,0.255273,280.5649,318.6334,294.6861,True
5,1.86667,0.05334788,-0.1393964,-0.06367038,4.666146,-4.707442,-1.920103,0.1115037,1.348248,0.3533976,-0.6609737,0.4517526,14.37666,18.47011,-0.0183091,0.135491,-0.04941566,-0.2277242,-2.472199,-1.426769,0.2252987,1.477458,0.2808235,0.05632488,0.03108518,0.1248222,-1.054794,0.5246553,0.05747847,0.3929284,1.498116,0.1708961,-0.2281894,1.355415,0.2542008,280.0378,318.2398,294.4806,True
5,1.877781,0.05649011,-0.127712,-0.07543701,4.667575,-4.708258,-1.920953,0.1105036,1.34827,0.3533404,-0.6561134,0.4397777,14.35013,19.43433,0.05797725,-0.03586328,-0.02805327,-0.2215516,-2.475108,-1.427187,0.224191,1.477521,0.2803335,0.06480667,0.002323208,0.1204739,-1.053667,0.5234943,0.05704145,0.3918329,1.498097,0.1702776,-0.2292485,1.354543,0.2539487,279.9417,316.8352,295.2801,True
5,1.888893,0.02339568,-0.1086438,-0.08607434,4.668423,-4.709385,-1.920106,0.1094981,1.348017,0.3525417,-0.6578024,-0.1579566,14.13793,20.16284,0.09991655,-0.1061032,-0.00512464,-0.2182189,-2.473526,-1.431162,0.2226974,1.477569,0.2796919,0.0527503,-0.02538183,0.09075256,-1.054294,0.5221089,0.05798953,0.3906986,1.498168,0.1697497,-0.2309024,1.353502,0.2543659,280.1166,315.5595,296.7293,True
5,1.900004,-0.02889526,-0.1184871,-0.129585,4.671068,-4.711661,-1.918,0.1084162,1.347749,0.3524535,-0.6583489,-0.04832689,13.7931,20.69852,0.06897441,-0.01567671,0.01663172,-0.2207478,-2.467324,-1.436996,0.2210987,1.477284,0.2789478,-0.04195807,-0.03394,0.002290094,-1.057551,0.5214599,0.06212329,0.3894383,1.498138,0.1692693,-0.2326524,1.352416,0.2551199,280.2686,314.3481,298.499,True
5,1.911115,-0.04486675,-0.1312994,-0.1359395,4.673557,1.569747,-1.916985,0.1073776,1.348565,0.3539386,-0.6564628,0.1725647,13.28912,21.12706,-0.05217741,0.2301102,0.004337355,-0.2318388,-2.462634,-1.436777,0.2194784,1.476998,0.2782855,-0.08673122,-0.0201002,0.0006295256,-1.057621,0.5219277,0.06445143,0.3882128,1.498235,0.1687329,-0.2341551,1.351363,0.2560062,280.4572,313.5728,299.8193,True
5,1.922226,0.04695492,-0.1970763,-0.1093149,4.67787,-4.712027,-1.920857,0.1057568,1.348447,0.353189,-0.6548713,0.1439642,12.67905,21.42704,-0.1324939,0.3247446,-0.01393999,-0.238803,-2.461952,-1.433159,0.218175,1.476831,0.2777572,-0.08511883,0.01186797,0.05174366,-1.055196,0.5232205,0.06480137,0.3867972,1.498234,0.168395,-0.2354953,1.350465,0.2568086,280.6057,313.0498,300.799,True
5,1.933337,0.1290226,-0.2289027,-0.1190012,4.681948,-4.712248,-1.925215,0.1044481,1.348781,0.3531075,-0.6558865,-0.09389804,12.01592,21.25562,-0.1354021,0.2820854,0.006240994,-0.2398065,-2.458511,-1.434993,0.2171495,1.476872,0.2774084,0.0008571595,0.06091639,0.1232221,-1.051427,0.5259013,0.06048678,0.3853961,1.498112,0.1680176,-0.2368016,1.349923,0.2576157,280.6773,311.1851,302.6601,True
5,1.944448,0.1203909,-0.1938211,-0.1340168,4.683411,1.569193,-1.926046,0.1031949,1.348564,0.3521724,-0.6609129,-0.4587213,11.45889,20.4414,-0.01936701,0.05114327,0.04631182,-0.2321579,-2.454463,-1.442932,0.2159543,1.477128,0.2769141,0.05421665,0.08862629,0.1322268,-1.049639,0.5280154,0.0569264,0.3840878,1.498094,0.1676495,-0.238115,1.349957,0.2586491,280.6728,309.4629,304.3213,True
5,1.955559,-0.02571479,-0.1612186,-0.1710446,4.685213,1.566426,-1.920687,0.1020908,1.348382,0.3521361,-0.6614286,-0.04365645,11.22016,19.88429,0.05706891,-0.07233103,0.09865925,-0.2265626,-2.444767,-1.45574,0.2145543,1.477118,0.2763281,0.01803087,0.1173716,0.03777365,-1.052717,0.5309797,0.05646807,0.3828411,1.498283,0.1672027,-0.2393996,1.350187,0.2594806,280.2824,310.5847,303.666,True
5,1.966671,-0.03745424,-0.1345147,-0.1509043,4.686109,1.565082,-1.919686,0.1009926,1.348866,0.3536813,-0.6573337,0.3740166,11.37931,19.90572,0.02038559,0.02988362,0.07788022,-0.2308156,-2.441891,-1.45726,0.2132114,1.476827,0.275763,-0.03679352,0.1173504,-0.007448317,-1.054419,0.5324851,0.05820898,0.3815757,1.498317,0.1667821,-0.2405861,1.350163,0.2598885,279.8494,312.5134,302.1561,True
5,1.977782,0.006273747,-0.1183354,-0.1180448,4.686922,1.565212,-1.921275,0.09945676,1.348847,0.3536642,-0.6505751,0.6146393,11.83024,20.78423,-0.05851367,0.2385971,0.01399218,-0.2416808,-2.446839,-1.448695,0.2116925,1.476558,0.2753515,-0.05535682,0.0811426,0.04921229,-1.052006,0.5320068,0.05990887,0.3803748,1.498462,0.1665099,-0.2418921,1.34974,0.2598388,279.6744,313.4709,301.3438,True
5,1.988893,0.07344104,-0.1501572,-0.1234613,4.690099,1.564314,-1.924818,0.09808412,1.349195,0.354697,-0.6545805,-0.3709518,12.30769,21.53418,-0.09867851,0.2437552,0.05164788,-0.2441565,-2.436886,-1.455903,0.2103773,1.476462,0.2749715,-0.004612587,0.01299144,0.1104511,-1.048776,0.5293099,0.05935733,0.3789257,1.498426,0.1660917,-0.2433906,1.349314,0.2596838,279.8728,310.7277,303.666,True
5,2.000004,0.08710288,-0.1247467,-0.177912,4.691906,1.560808,-1.926311,0.09657103,1.349436,0.3548193,-0.6579382,-0.3030761,12.70557,21.87701,-0.08262424,0.1330546,0.02678909,-0.2419301,-2.439907,-1.452554,0.2091779,1.47626,0.2746971,0.01794514,-0.002980396,0.1272554,-1.046784,0.5284379,0.05876851,0.3775726,1.498463,0.1656752,-0.2448571,1.349243,0.2598706,280.0745,307.857,306.0186,True
5,2.011115,0.07329154,-0.1920295,-0.2170648,4.697483,1.558715,-1.926662,0.0947136,1.349331,0.3547509,-0.6599931,-0.1857573,13.07692,22.28412,-0.02199126,0.01399269,-0.01872296,-0.2382799,-2.449621,-1.444959,0.2075765,1.476286,0.2744293,0.01185115,0.007673934,0.1550194,-1.044219,0.5289286,0.05863748,0.3761413,1.498385,0.1653414,-0.2462953,1.349404,0.2603369,279.9892,307.3611,306.4335,True
5,2.022226,0.03384912,-0.2316348,-0.2530564,4.702307,1.556312,-1.925479,0.09321603,1.349169,0.3549626,-0.6577315,0.2078789,13.44828,23.1412,0.01142941,-0.06053238,0.003207525,-0.2349196,-2.44803,-1.447822,0.2059528,1.476224,0.2739587,-0.01597767,0.02790811,0.1435981,-1.043002,0.5300313,0.05928037,0.3747833,1.49836,0.1649811,-0.2476728,1.34948,0.2611251,279.6437,307.6701,306.1332,True
5,2.033337,-0.01101961,-0.2436459,-0.3125599,4.707188,1.552154,-1.923804,0.09170303,1.349056,0.3555303,-0.6561188,0.1453943,13.76658,24.08399,-0.0388451,0.0256224,0.005953231,-0.2379838,-2.444424,-1.449217,0.2038742,1.475819,0.2732322,-0.0836004,0.09073929,0.09851154,-1.043314,0.5337039,0.0607752,0.3732972,1.498397,0.1649277,-0.2493657,1.349315,0.2622508,279.334,308.1805,305.8116,True
5,2.044448,-0.02386275,-0.2266253,-0.3157857,4.709888,1.549299,-1.923029,0.09014687,1.348907,0.3564975,-0.6541709,0.1765326,13.92573,24.04114,-0.0615325,0.09483518,-0.008625843,-0.2415056,-2.445174,-1.447011,0.2021264,1.475507,0.2727129,-0.1177151,0.1653056,0.09780765,-1.041891,0.5388463,0.06066415,0.3716885,1.498452,0.1647582,-0.251366,1.348786,0.2635804,279.0179,307.7593,306.568,True
5,2.055559,0.001759306,-0.2446588,-0.3083314,-1.569129,1.547471,-1.923877,0.08857194,1.348838,0.3571556,-0.6531701,0.0897228,13.81963,23.41975,-0.1004687,0.3514492,0.002865955,-0.254945,-2.437846,-1.451504,0.1999821,1.475123,0.2722592,-0.06301679,0.2718588,0.1334139,-1.038714,0.5467082,0.05557937,0.3698954,1.498366,0.16469,-0.2534178,1.347953,0.2650656,278.903,306.1016,308.4859,True
5,2.06667,0.01883537,-0.2606252,-0.3104544,-1.564454,1.545457,-1.924794,0.08690652,1.348619,0.3570251,-0.6535584,-0.03656224,13.5809,22.66981,-0.087657,0.3610535,0.009159982,-0.2585088,-2.434701,-1.454134,0.198238,1.474797,0.2719817,0.008368343,0.2622951,0.1337108,-1.037136,0.5493928,0.05157851,0.3682121,1.498347,0.1645615,-0.2554867,1.347011,0.2668275,278.9662,303.6573,311.031,True
5,2.077781,0.04434127,-0.2649298,-0.3382018,-1.559918,1.54216,-1.926145,0.08554336,1.34846,0.3575854,-0.6545315,-0.08921582,13.50132,22.54125,-0.04618761,0.2536481,-0.03189984,-0.2579485,-2.442091,-1.447819,0.1966332,1.474524,0.2717888,0.04898119,0.2282163,0.1449969,-1.035111,0.5507733,0.0488019,0.3665969,1.498367,0.1644258,-0.2574562,1.346113,0.2688995,279.1082,302.0134,312.8547,True
5,2.088892,0.05703788,-0.2447382,-0.3542812,-1.556377,1.538769,-1.927003,0.084057,1.347986,0.357233,-0.6537043,0.07539482,13.52785,22.94836,0.008401677,0.1504635,-0.03472163,-0.2563442,-2.444897,-1.446942,0.1948978,1.474149,0.2716279,0.009522259,0.209012,0.1411661,-1.033649,0.5522427,0.04958167,0.3650201,1.498467,0.1645029,-0.2592897,1.345221,0.2710409,279.0875,301.354,314.0312,True
5,2.100003,0.05275242,-0.2330077,-0.3543595,-1.552872,1.535246,-1.927317,0.08273396,1.34813,0.358727,-0.6528441,0.07689154,13.66048,23.54832,0.02743876,0.1271214,-0.05730868,-0.2571293,-2.449838,-1.443072,0.1931833,1.473748,0.2713826,-0.0310095,0.177047,0.1362872,-1.032259,0.5532835,0.05078781,0.3633651,1.498402,0.1643093,-0.2610457,1.344226,0.2729419,278.95,300.8604,315.1275,True
5,2.111114,0.07515389,-0.2051499,-0.3204204,-1.550688,1.533394,-1.928777,0.08099827,1.347673,0.3591952,-0.6509628,0.1703501,13.84615,24.1697,0.01657808,0.1281984,-0.08064168,-0.2589945,-2.455249,-1.437583,0.1912611,1.47336,0.2711887,-0.03611182,0.150422,0.157659,-1.02966,0.5541372,0.05101871,0.3616892,1.49825,0.1640174,-0.2626927,1.343033,0.2745802,278.8142,300.0695,316.2958,True
5,2.122225,0.0858956,-0.2135534,-0.289528,-1.547329,1.53225,-1.930113,0.07934839,1.346926,0.3588398,-0.648868,0.1889867,13.97878,24.98393,0.0004833341,0.1324394,-0.09220853,-0.2607943,-2.459829,-1.432618,0.1893954,1.472818,0.2709715,-0.02198264,0.1248636,0.1830802,-1.02668,0.5546036,0.05050499,0.3599682,1.498147,0.1638463,-0.264365,1.34163,0.2759612,278.8237,298.713,317.7794,True
5,2.133336,0.07088212,-0.1122428,-0.2493532,-1.549099,1.530123,-1.930274,0.07768378,1.346139,0.3591244,-0.6482443,0.05415438,14.05836,25.94815,-0.02528709,0.1462612,-0.11219,-0.2632141,-2.465571,-1.426052,0.1873916,1.472204,0.2705834,0.00694944,0.1238114,0.1998169,-1.023834,0.5561219,0.04883438,0.3581794,1.498132,0.1636825,-0.266099,1.340157,0.2773769,278.9958,296.4755,319.8579,True
5,2.144447,0.03776921,-0.03444213,-0.2229472,-1.550105,1.52718,-1.929453,0.07623726,1.345445,0.3596289,-0.6463263,0.1735355,14.2175,26.56953,-0.06388295,0.1675056,-0.1331112,-0.2660903,-2.472478,-1.417285,0.1855747,1.471624,0.2703907,0.03263143,0.1312729,0.2101899,-1.021163,0.5579619,0.04660133,0.3564954,1.498035,0.1635647,-0.2679769,1.338599,0.2787552,279.0792,295.7512,320.7992,True
5,2.155558,0.03985292,0.04133818,-0.1816618,-1.552588,1.525507,-1.929924,0.07470265,1.344548,0.359761,-0.6430922,0.2926265,14.37666,26.95522,-0.09713444,0.2483846,-0.1347934,-0.2719998,-2.47496,-1.412683,0.1836803,1.470968,0.2703772,0.0806179,0.1344816,0.2139254,-1.018682,0.5597771,0.04301857,0.3546179,1.498053,0.1634641,-0.2698832,1.336838,0.2798262,279.1324,295.7467,321.2239,True
5,2.166669,0.05260208,0.08726348,-0.1573802,-1.554239,1.523194,-1.930917,0.07332641,1.344202,0.3609309,-0.6398996,0.2879461,14.56233,27.10521,-0.09523976,0.2314074,-0.1667952,-0.2742268,-2.484116,-1.403087,0.1819206,1.470632,0.2702746,0.09440044,0.1313032,0.2084638,-1.016318,0.5614522,0.04084783,0.3528264,1.497988,0.1635606,-0.2718299,1.334969,0.2806162,279.4332,295.9435,321.1534,True
5,2.17778,0.07704537,0.1513226,-0.1299585,-1.557735,1.521404,-1.932595,0.07191333,1.343313,0.3610022,-0.6389003,0.08741332,14.72149,27.0195,-0.08336836,0.1345201,-0.1788086,-0.2727647,-2.494253,-1.392823,0.1802407,1.470263,0.2702098,0.09835243,0.1227765,0.179658,-1.015291,0.5626213,0.03898975,0.3511241,1.497915,0.1635442,-0.2737207,1.33315,0.2812935,279.8346,295.4959,321.5341,True
5,2.188891,0.08877637,0.1821064,-0.1205945,-1.557241,1.519361,-1.934385,0.06888184,1.337475,0.3469775,-0.6372689,0.1469929,14.77454,26.65524,-0.06504466,0.06105889,-0.1780556,-0.2712834,-2.502361,-1.384999,0.1784174,1.469745,0.2703223,0.1001868,0.1323742,0.1519272,-1.014626,0.5649961,0.03655775,0.3493707,1.497705,0.1634712,-0.2754816,1.331475,0.2819488,280.195,295.106,321.7943,True
5,2.200002,0.1239071,0.1885991,-0.1153749,-1.559231,1.517504,-1.936573,0.06726673,1.336385,0.3466351,-0.6354877,0.1597062,14.72149,26.18384,-0.03769492,0.04737119,-0.2209396,-0.2722933,-2.516482,-1.371856,0.1765172,1.469153,0.2702496,0.1084502,0.1558082,0.1283956,-1.014001,0.5680292,0.03343865,0.3476842,1.4976,0.1634693,-0.2770828,1.329983,0.2827858,280.4727,294.8624,321.883,True
5,2.211113,0.1473564,0.1982944,-0.1048478,-1.561152,1.515076,-1.939053,0.06559262,1.335218,0.3465898,-0.6330115,0.2231912,14.58886,25.62674,-0.06426558,0.0643253,-0.2110872,-0.2740414,-2.523212,-1.364083,0.1744308,1.468359,0.2702651,0.09775467,0.1515469,0.1242397,-1.012745,0.5698332,0.03177524,0.3458858,1.497482,0.1635387,-0.2789575,1.328377,0.2831764,280.1324,300.472,318.1359,True
5,2.222224,0.1505444,0.2186124,-0.09531901,-1.56431,1.513224,-1.940958,0.06372723,1.334016,0.3467655,-0.6306435,0.2126301,14.37666,25.09107,-0.08855924,0.09721942,-0.1777806,-0.2763599,-2.524643,-1.360906,0.1724534,1.467569,0.2702217,0.09010179,0.1110766,0.105143,-1.012346,0.5698888,0.03095978,0.3440568,1.497297,0.1637025,-0.2814562,1.325671,0.2807825,279.4207,308.5479,312.9885,True
5,2.233335,0.1174735,0.2644151,-0.07728168,-1.568423,1.511416,-1.941164,0.06203148,1.332767,0.3465822,-0.628131,0.2259703,14.11141,24.59824,-0.1317364,0.212215,-0.2091353,-0.283029,-2.530894,-1.352328,0.1705083,1.466672,0.2703702,0.07093368,0.08443986,0.1053554,-1.011242,0.5698089,0.03086684,0.3422107,1.497068,0.1638656,-0.283657,1.321984,0.2764078,279.6544,306.2401,314.5202,True
5,2.244446,0.09615302,0.280442,-0.05597465,4.71095,1.51012,-1.940925,0.06032947,1.331628,0.3465049,-0.6246812,0.3115341,13.84615,24.08399,-0.137384,0.2186615,-0.2452844,-0.2861987,-2.542521,-1.339833,0.1684088,1.466179,0.2703891,0.07114279,0.1014972,0.1245251,-1.009086,0.5720297,0.02875468,0.3402525,1.496873,0.1640892,-0.2856546,1.317789,0.2716918,280.4789,299.8393,318.4016,True
5,2.255557,0.1261946,0.2028584,-0.02807009,4.710595,1.510994,-1.943253,0.05830526,1.330787,0.3469815,-0.6200718,0.4168647,13.66048,23.56975,-0.09994304,0.1452644,-0.2500235,-0.2861774,-2.553512,-1.329368,0.1663897,1.465656,0.2704933,0.1130711,0.1814117,0.1613433,-1.005899,0.5775399,0.02312955,0.3383505,1.496678,0.1642895,-0.2876694,1.313605,0.2679924,281.5123,294.8851,321.1193,True
5,2.266668,0.15503,0.1539216,-0.03116757,4.710389,1.510404,-1.945801,0.05642667,1.329937,0.3472211,-0.6167151,0.3015759,13.50132,22.96979,-0.06752189,0.01961849,-0.2377652,-0.2828314,-2.56374,-1.320119,0.1643389,1.46489,0.2705235,0.1270373,0.2282935,0.1729061,-1.003512,0.5822852,0.01870631,0.3365189,1.496579,0.1644433,-0.2897051,1.309859,0.2658957,282.5002,292.5354,322.3605,True
5,2.277779,0.1476808,0.08141708,-0.04582026,4.712269,1.510056,-1.94723,0.05450991,1.329101,0.3472826,-0.6165175,0.01383222,13.44828,22.39126,-0.07595745,-0.02726875,-0.2420432,-0.2817039,-2.575309,-1.307867,0.1622756,1.464159,0.2705088,0.1268845,0.2421395,0.1590553,-1.002136,0.5860884,0.01522103,0.3346796,1.496422,0.1645963,-0.2917472,1.306843,0.2654264,283.2323,291.6835,323.0493,True
5,2.28889,0.1168321,0.0280108,-0.07219172,-1.569239,1.508968,-1.947433,0.05248049,1.328286,0.3475344,-0.6141377,0.2155821,13.39523,21.87701,-0.09191039,-0.04114769,-0.2440709,-0.2819963,-2.586022,-1.296005,0.1599178,1.463404,0.2704353,0.09155941,0.213368,0.1423976,-1.001158,0.5875552,0.01460238,0.3327501,1.496258,0.1647689,-0.2937306,1.304522,0.2662911,283.491,291.4904,323.6214,True
5,2.300001,0.08702993,0.0002382956,-0.07841578,-1.56821,1.508249,-1.947226,0.05051067,1.32742,0.3477142,-0.6100434,0.3703008,13.31565,21.42704,-0.1155128,0.07275103,-0.2276525,-0.2870525,-2.588176,-1.291817,0.1575499,1.46278,0.2702541,0.03591418,0.2048308,0.1195655,-1.000481,0.58989,0.01477389,0.3307477,1.496122,0.1650293,-0.2956232,1.302673,0.2681307,283.4513,292.1191,323.6578,True
5,2.311112,0.07438391,-0.04338536,-0.05799302,-1.566753,1.508926,-1.947696,0.04847428,1.326757,0.3480425,-0.6057647,0.3860419,13.20955,20.82708,-0.1279494,0.2163688,-0.1484286,-0.293621,-2.578664,-1.299472,0.1552251,1.462046,0.2700908,0.01579878,0.2484993,0.1325587,-0.9985272,0.5946891,0.01267265,0.3287258,1.496002,0.1653283,-0.2975461,1.30108,0.270526,283.3129,292.9168,323.6527,True
5,2.322223,0.08724998,-0.07103519,-0.04940621,-1.565019,1.509387,-1.949213,0.04642031,1.326057,0.3481851,-0.6024235,0.3004628,12.99735,20.01286,-0.1425209,0.2673607,-0.09385937,-0.2978266,-2.571622,-1.304099,0.1530909,1.461349,0.2699792,0.02450964,0.2762033,0.1505711,-0.9961613,0.5994458,0.009449428,0.3266889,1.495856,0.1656961,-0.2996201,1.299642,0.273125,283.25,293.6655,323.6756,True
5,2.333334,0.08946396,-0.09761934,-0.03760532,-1.563228,1.510032,-1.950333,0.04440856,1.32548,0.3483083,-0.6003021,0.1896786,12.62599,19.02721,-0.199606,0.2128162,-0.05937053,-0.2984088,-2.569605,-1.301781,0.1510297,1.460564,0.2699189,0.05559468,0.2911338,0.1694011,-0.9937101,0.6039302,0.005424326,0.3246415,1.495759,0.1662421,-0.3017474,1.298303,0.2755547,283.2828,294.3908,323.6937,True
5,2.344445,0.07563197,-0.09443204,-0.03012072,-1.56237,1.510306,-1.950768,0.04227486,1.324867,0.3483431,-0.5985998,0.1521661,12.22811,18.06299,-0.2113126,0.1680718,-0.07107481,-0.299024,-2.573703,-1.295129,0.1489097,1.45991,0.2698913,0.07896861,0.2985979,0.1638235,-0.9920967,0.6080938,0.001498294,0.3226066,1.49566,0.1667163,-0.3038352,1.296992,0.2774418,283.3094,294.8584,323.881,True
5,2.355556,0.04366129,-0.08596652,-0.02793952,-1.56164,1.510317,-1.950235,0.04007253,1.324216,0.3484318,-0.5953858,0.2905227,11.88329,17.18449,-0.1963299,0.04884885,-0.09808517,-0.2959906,-2.584982,-1.282511,0.1467127,1.459171,0.2702017,0.134104,0.3199181,0.1408506,-0.9913442,0.6132923,-0.00456599,0.3205675,1.495497,0.1673379,-0.3058382,1.29556,0.2785418,283.2761,295.0238,324.1563,True
5,2.366668,0.009582756,-0.08278263,-0.0129464,-1.561162,1.510953,-1.948943,0.03794983,1.323412,0.3485894,-0.5917054,0.3319895,11.56498,16.30598,-0.1707399,0.03081283,-0.1004813,-0.2964018,-2.588665,-1.277939,0.1444918,1.458487,0.2703679,0.1487615,0.3359065,0.1172512,-0.9908099,0.6185797,-0.009488842,0.3185591,1.495297,0.1677988,-0.3078066,1.293922,0.2787958,283.3144,294.7466,324.5648,True
5,2.377779,-0.03510113,-0.08065301,0.01379129,-1.560753,1.512286,-1.947001,0.03554577,1.322501,0.3487189,-0.5877868,0.3535562,11.32626,15.27748,-0.1481797,-0.001108944,-0.08902705,-0.295507,-2.591857,-1.274037,0.1422033,1.457587,0.2704728,0.1399973,0.3401608,0.09497224,-0.9905607,0.6233705,-0.01341621,0.3166371,1.495109,0.1683395,-0.3099006,1.2921,0.2783221,283.4843,294.086,325.0567,True
5,2.38889,-0.06702366,-0.07855481,0.02447585,-1.559891,1.512648,-1.945528,0.03328958,1.322011,0.348758,-0.584141,0.3285335,11.22016,14.1847,-0.1699474,0.03513986,-0.129244,-0.2980546,-2.599163,-1.26429,0.1397677,1.456596,0.2705479,0.1142785,0.3156484,0.0792754,-0.9901361,0.6265829,-0.01567989,0.3147422,1.494885,0.1688752,-0.3121408,1.290189,0.2773607,283.7456,293.0457,325.7049,True
5,2.400001,-0.05099915,-0.09448441,0.02981595,-1.558618,1.513698,-1.945468,0.03087923,1.321244,0.3489108,-0.5808424,0.2972482,11.14058,13.37047,-0.191351,0.08195624,-0.1257696,-0.3010634,-2.600996,-1.259606,0.137353,1.455895,0.2705891,0.09597483,0.3060551,0.06136782,-0.9900232,0.6303248,-0.01820271,0.3127477,1.494711,0.1694407,-0.3144588,1.288316,0.2761504,284.026,291.9371,326.3495,True
5,2.411112,-0.03286098,-0.1157828,0.02022156,-1.556518,1.513857,-1.946012,0.02865729,1.320487,0.3490748,-0.5788444,0.1786817,11.16711,12.77051,-0.1999109,0.1021697,-0.1235227,-0.303089,-2.603215,-1.254987,0.1350452,1.455138,0.2705536,0.07657075,0.3358742,0.04133271,-0.9902469,0.6359763,-0.02155669,0.3107699,1.494574,0.1700711,-0.3169051,1.286635,0.2748714,284.3192,290.8809,326.9821,True
5,2.422223,-0.01152381,-0.166943,-0.002028588,-1.553119,1.514453,-1.94636,0.02645352,1.31951,0.349391,-0.5779262,0.08098926,11.22016,12.32055,-0.2232766,0.1319007,-0.105149,-0.3055285,-2.602803,-1.252015,0.1327037,1.454336,0.2705212,0.06278369,0.373159,0.0478697,-0.9895518,0.6425185,-0.02544144,0.3087685,1.49438,0.1706715,-0.3193487,1.285266,0.2737201,284.534,289.7865,327.6884,True
5,2.433334,-0.009367222,-0.1957441,-0.01472167,-1.550009,1.515056,-1.94633,0.02443191,1.318786,0.3496079,-0.5762463,0.1513113,11.24668,11.84915,-0.2361125,0.144656,-0.1071382,-0.3078742,-2.604611,-1.247253,0.1304857,1.453489,0.2704911,0.05985492,0.4253685,0.07452396,-0.9879635,0.650432,-0.03028121,0.3067424,1.494186,0.1713765,-0.3217032,1.284119,0.27285,284.5003,288.9713,328.1674,True
5,2.444445,0.006677728,-0.2308794,-0.018903,-1.54653,1.516104,-1.946993,0.02228159,1.317953,0.3499429,-0.573866,0.2149573,11.22016,11.44204,-0.2498423,0.146726,-0.09104998,-0.3097917,-2.604837,-1.2436,0.1282694,1.452494,0.2705948,0.09956405,0.4413647,0.1017918,-0.9861568,0.6568985,-0.03633963,0.3045458,1.494006,0.1721141,-0.3238791,1.282997,0.2723965,284.2806,288.3055,328.5659,True
5,2.455556,0.01421232,-0.2617366,-0.01242688,-1.542863,1.517659,-1.947473,0.02034292,1.317177,0.350147,-0.5715106,0.2123512,11.22016,11.22777,-0.2732008,0.135173,-0.2048554,-0.3128991,-2.623001,-1.222422,0.1262578,1.451442,0.2707033,0.1572255,0.4371206,0.1139556,-0.984658,0.6626968,-0.04319834,0.3025185,1.49378,0.1727815,-0.3258996,1.281717,0.272416,284.0569,287.6596,329.0802,True
5,2.466667,0.01525166,-0.2542986,-0.01888921,-1.540148,1.517635,-1.947726,0.01847234,1.316581,0.3502243,-0.5704752,0.09197372,11.22016,11.20634,-0.2427746,0.106374,-0.1455328,-0.3129827,-2.621321,-1.222247,0.1241241,1.450639,0.270865,0.1870031,0.4286134,0.1093823,-0.9838106,0.6682622,-0.04919311,0.3004737,1.493594,0.1734078,-0.3278181,1.280258,0.2728501,284.0063,287.0356,329.763,True
5,2.477778,-0.006121036,-0.2159766,-0.01470282,-1.539098,1.517999,-1.946943,0.01653108,1.315683,0.3503394,-0.5688986,0.1426108,11.24668,11.31348,-0.195683,0.08089757,-0.1289555,-0.3131227,-2.623516,-1.219654,0.1221907,1.449602,0.2711692,0.2126622,0.4222297,0.1176302,-0.9824561,0.6737926,-0.05556419,0.2985595,1.493291,0.1740084,-0.3297043,1.278607,0.2735548,284.0316,286.409,330.6086,True
5,2.488889,-0.0359733,-0.1680012,0.01290467,-1.53938,1.518985,-1.945622,0.01430178,1.314587,0.3504555,-0.5674334,0.1320394,11.35279,11.44204,-0.1995347,0.05654812,-0.2088718,-0.3148789,-2.638921,-1.202466,0.1202067,1.448563,0.2714045,0.2115156,0.3849438,0.1102047,-0.9815501,0.6774733,-0.05967265,0.2966862,1.492947,0.1746285,-0.331511,1.276805,0.2743225,284.1724,285.7949,331.5341,True
5,2.5,-0.06897943,-0.1360031,0.04483787,-1.539465,1.52064,-1.943911,0.01211527,1.313682,0.3504267,-0.5653337,0.1903201,11.45889,11.67774,-0.1985259,-0.06054318,-0.2495979,-0.3121917,-2.657141,-1.182807,0.1181546,1.447532,0.2716856,0.1848961,0.3476529,0.1105041,-0.9804326,0.6807518,-0.06269774,0.2948416,1.492633,0.1752589,-0.3333408,1.274981,0.2750489,284.416,285.2947,332.2961,True
5,2.511111,-0.1030627,-0.1018777,0.07570374,-1.540049,1.522382,-1.94175,0.009818435,1.312643,0.3503852,-0.5638684,0.1319881,11.53846,11.99914,-0.2017892,-0.1267822,-0.1580801,-0.308369,-2.657289,-1.180318,0.1161281,1.446427,0.2719021,0.1677993,0.3369958,0.1064287,-0.9795996,0.6849545,-0.06624746,0.2929924,1.49236,0.1760116,-0.3353253,1.273276,0.2756413,284.6842,285.2036,332.5915,True
5,2.522222,-0.137194,-0.06248314,0.08950978,-1.540965,1.523541,-1.939329,0.007427901,1.311716,0.3503489,-0.5628197,0.09451263,11.59151,12.3634,-0.234115,-0.1193276,-0.1950706,-0.3090481,-2.669035,-1.165302,0.1140011,1.445175,0.2720532,0.1623127,0.3455546,0.09050122,-0.9794334,0.6907603,-0.07128669,0.2911758,1.49192,0.1765544,-0.3375501,1.27183,0.2759594,284.9233,285.4202,332.5699,True
5,2.533333,-0.1670554,-0.0316103,0.1011987,-1.542121,1.524712,-1.936537,0.005083472,1.310797,0.3502867,-0.5619099,0.08227617,11.64456,12.72766,-0.2525028,-0.06182331,-0.2086408,-0.3113118,-2.675847,-1.155424,0.1119333,1.444058,0.2721939,0.1866262,0.3583409,0.07319082,-0.9795671,0.6960675,-0.07714059,0.2893098,1.4916,0.1772301,-0.3398791,1.270757,0.2758493,285.0856,285.537,332.6035,True
5,2.544444,-0.2235431,0.00882636,0.1225087,-1.544163,1.526139,-1.9323,0.002732426,1.309902,0.3502166,-0.5613283,0.05237978,11.61804,13.0705,-0.2367245,0.02852273,-0.0839604,-0.3130999,-2.661267,-1.167219,0.1098107,1.443095,0.2722826,0.2098263,0.3626129,0.05163482,-0.9799938,0.7011167,-0.08300993,0.2873819,1.49138,0.1780975,-0.3422873,1.270121,0.275266,285.1344,285.5896,332.5332,True
5,2.555555,-0.2747138,0.05675425,0.1491054,-1.547056,1.527689,-1.927583,0.0005227327,1.309259,0.3502049,-0.5607355,0.05369972,11.48541,13.37047,-0.2150322,0.1008907,-0.01902464,-0.3156038,-2.650656,-1.175669,0.1079042,1.442132,0.2723744,0.2481842,0.3700806,0.05228543,-0.9798115,0.7064025,-0.08993948,0.2854377,1.491008,0.1788013,-0.3447496,1.269949,0.2743069,285.0779,285.6198,332.2803,True
5,2.566666,-0.2928122,0.06421869,0.1629797,-1.548638,1.529572,-1.923802,-0.001601785,1.308583,0.3501117,-0.5591658,0.1430659,11.32626,13.58474,-0.213082,0.1041322,-0.0371578,-0.3171372,-2.653993,-1.170031,0.1060537,1.440989,0.2726049,0.2770286,0.3637251,0.05836134,-0.9793019,0.7115501,-0.0969143,0.2834977,1.490507,0.1794286,-0.347184,1.270216,0.2731214,284.9219,285.7632,331.7956,True
5,2.577777,-0.306592,0.03223925,0.1652497,-1.548596,1.531631,-1.919931,-0.003913969,1.308122,0.3500819,-0.5585852,0.05193539,11.19363,13.64902,-0.216903,0.08592415,0.006519319,-0.3168938,-2.648963,-1.172255,0.1042558,1.439927,0.2728114,0.2877987,0.3530773,0.06890112,-0.9785466,0.7159125,-0.1029386,0.2815906,1.4901,0.1801186,-0.3495739,1.270941,0.2718402,284.777,286.1376,331.0578,True
5,2.588888,-0.3193297,-0.00617598,0.1536484,-1.547454,1.532783,-1.916166,-0.006046116,1.307966,0.3501539,-0.559593,-0.09238147,11.08753,13.58474,-0.2124647,0.008179367,0.004198629,-0.3143713,-2.65235,-1.166669,0.1024399,1.43871,0.2730422,0.2794928,0.3424594,0.08709204,-0.9774536,0.720861,-0.1085851,0.2797714,1.489698,0.1807821,-0.3518289,1.272162,0.2705618,284.5919,286.6365,330.2389,True
5,2.599999,-0.3448921,-0.02651717,0.1388639,-1.546836,1.534076,-1.91151,-0.008445114,1.307525,0.3501711,-0.5597011,-0.00895045,11.00796,13.52046,-0.2168571,-0.01416098,-0.01711307,-0.3137236,-2.657254,-1.159437,0.1006705,1.437568,0.2733157,0.2794841,0.3318062,0.08602932,-0.9769231,0.7249284,-0.113933,0.2779191,1.489285,0.1814075,-0.3539269,1.273752,0.2693372,284.1812,287.0258,329.5866,True
5,2.61111,-0.3928462,-0.03411107,0.1261736,-1.546432,1.534543,-1.905593,-0.01084962,1.307185,0.3503525,-0.5598614,-0.01465306,10.92838,13.45618,-0.17915,-0.0205377,0.02940567,-0.3129166,-2.65125,-1.164312,0.09869888,1.436537,0.273756,0.291336,0.3233178,0.09654546,-0.9760395,0.7295616,-0.1203533,0.2761907,1.488965,0.1820881,-0.3560069,1.275538,0.2682316,283.6521,287.1185,329.2206,True
5,2.622221,-0.4375411,-0.0448288,0.1359089,-1.546204,1.536685,-1.899309,-0.01339212,1.306951,0.3505065,-0.5590348,0.07579553,10.90185,13.34904,-0.1543039,-0.05141617,0.05895001,-0.3107627,-2.648529,-1.166049,0.09679154,1.435752,0.274092,0.3116085,0.290303,0.09847674,-0.9750025,0.7323347,-0.1261092,0.2743533,1.488538,0.1826813,-0.3581162,1.277364,0.2673731,283.0948,287.0568,328.9924,True
5,2.633332,-0.4630181,-0.0735992,0.145653,-1.545251,1.539034,-1.893585,-0.01601419,1.306454,0.3508449,-0.5578268,0.1098129,10.95491,13.19906,-0.1520593,-0.09508692,0.05883965,-0.3082556,-2.649788,-1.163157,0.09497914,1.434839,0.2744153,0.3157448,0.2604998,0.08565235,-0.9747963,0.735068,-0.131338,0.272531,1.488044,0.1833279,-0.3604495,1.279116,0.2668344,282.599,287.2988,328.5276,True
5,2.644443,-0.4576512,-0.1076908,0.13937,-1.543612,1.541076,-1.888665,-0.01813492,1.306089,0.3510268,-0.5575333,0.02613817,11.03448,13.00621,-0.1648431,-0.06424162,0.06860204,-0.3083461,-2.646895,-1.163509,0.09325814,1.434073,0.2747416,0.3132266,0.234942,0.04839477,-0.9758275,0.7374579,-0.1361091,0.2707794,1.487631,0.1838396,-0.3630166,1.280811,0.266651,282.27,287.6432,328.0742,True
5,2.655554,-0.423508,-0.146004,0.1298272,-1.541254,1.543063,-1.885093,-0.02007285,1.305952,0.3511956,-0.558337,-0.07342038,11.00796,12.77051,-0.1258875,-0.01849193,0.1493082,-0.3078332,-2.631594,-1.177977,0.09175149,1.433255,0.2748904,0.3249503,0.255186,0.04932804,-0.9757524,0.7416672,-0.1424551,0.2690816,1.487176,0.1843724,-0.3657088,1.282514,0.2666799,281.9985,288.0198,327.765,True
5,2.666665,-0.4011148,-0.1768819,0.118169,-1.538882,1.544883,-1.881267,-0.02203044,1.305669,0.3513353,-0.5594385,-0.09986444,10.90185,12.62053,-0.1122357,-0.01307967,0.1300195,-0.307651,-2.62934,-1.17923,0.09024993,1.432246,0.2748752,0.3271443,0.2796863,0.05569272,-0.9754216,0.7464632,-0.1488909,0.2673448,1.486847,0.1851237,-0.3682904,1.284187,0.2667577,281.6325,288.3654,327.5502,True
5,2.677776,-0.3584838,-0.2088469,0.0978974,-1.535644,1.546425,-1.878808,-0.0236893,1.305506,0.3514318,-0.5609555,-0.1378646,10.79576,12.53482,-0.1273481,-0.06417952,0.09276681,-0.3055498,-2.633402,-1.173418,0.08884475,1.431495,0.27496,0.3591684,0.2871537,0.06173643,-0.9750711,0.7508562,-0.1564133,0.2657702,1.486487,0.1856015,-0.3704143,1.285748,0.2667588,281.2332,288.5544,327.4727,True
5,2.688887,-0.3286912,-0.2291266,0.06382024,-1.532558,1.546918,-1.876184,-0.02546376,1.305247,0.3514621,-0.5607967,0.01555716,10.6366,12.44911,-0.1348406,-0.1674658,0.05853035,-0.300673,-2.642621,-1.162767,0.08750969,1.430361,0.2749314,0.3990533,0.2541505,0.1050045,-0.9727015,0.7532723,-0.1634598,0.2642094,1.486216,0.1861467,-0.3721149,1.287103,0.2666162,280.8098,288.5152,327.5433,True
5,2.699998,-0.3170408,-0.2291932,0.0360968,-1.529942,1.547126,-1.873068,-0.02723429,1.304979,0.3515928,-0.5619915,-0.1095759,10.50398,12.3634,-0.1686023,-0.1335526,0.1057736,-0.2994533,-2.634462,-1.167496,0.0861209,1.429257,0.2749453,0.4055644,0.2381755,0.1155916,-0.9714317,0.7561018,-0.1698103,0.2626994,1.485889,0.1865382,-0.3736137,1.288186,0.2663087,280.4374,288.2753,327.7365,True
5,2.711109,-0.335134,-0.2890415,-0.01163469,-1.524381,1.546669,-1.868884,-0.02899459,1.304798,0.3517792,-0.5617959,0.018721,10.39788,12.32055,-0.1741111,-0.09200779,0.09844379,-0.2995065,-2.631067,-1.168575,0.08457053,1.428081,0.2748771,0.4312449,0.2083596,0.125984,-0.9699962,0.7580762,-0.1764288,0.2613441,1.485708,0.1869159,-0.3749927,1.28893,0.2658647,280.0908,287.6233,328.2752,True
5,2.72222,-0.3489794,-0.3082948,-0.02644885,-1.520212,1.547209,-1.86453,-0.03084639,1.304625,0.3519897,-0.5610716,0.06581699,10.29178,12.27769,-0.1828088,-0.008951515,0.1050805,-0.3013367,-2.623658,-1.173218,0.08317861,1.427258,0.2749014,0.403112,0.1870578,0.1838218,-0.9663078,0.7605507,-0.1814183,0.2600821,1.485297,0.1872327,-0.3765231,1.289321,0.2653911,279.8438,286.696,329.0124,True
5,2.733331,-0.332993,-0.3167901,-0.02965487,-1.516606,1.547801,-1.861404,-0.03247565,1.3043,0.3523381,-0.5598359,0.1123378,10.29178,12.27769,-0.1535528,0.1296609,0.08272038,-0.3070428,-2.614962,-1.180689,0.08202416,1.426798,0.2749283,0.3267022,0.1774386,0.2112816,-0.9634321,0.7630019,-0.1837459,0.2587849,1.48482,0.1875141,-0.3782778,1.289428,0.2650212,279.7177,285.3112,330.183,True
5,2.744442,-0.2935394,-0.3166455,-0.01270521,-1.51364,1.549228,-1.859667,-0.03386033,1.304076,0.35268,-0.5594801,0.03160041,10.39788,12.32055,-0.1224429,0.1158509,0.1037106,-0.3068004,-2.609494,-1.185378,0.08097285,1.426364,0.2751398,0.2746004,0.1731648,0.2203719,-0.9611173,0.765733,-0.1865848,0.2575542,1.484473,0.1878214,-0.3802336,1.28939,0.264874,279.6862,282.9886,332.338,True
5,2.755553,-0.1783385,-0.3407794,0.02864297,-1.509801,1.552327,-1.861857,-0.03453198,1.304049,0.3529856,-0.5606902,-0.1108233,10.47745,12.27769,-0.06215344,0.1041598,0.1702612,-0.3059136,-2.595739,-1.199838,0.08038193,1.425844,0.2752764,0.2317535,0.1816832,0.1984468,-0.9602187,0.7689263,-0.1896189,0.2565756,1.484035,0.1878576,-0.3822329,1.289407,0.264964,279.7354,281.1312,334.1419,True
5,2.766664,-0.1303905,-0.3481622,0.02429403,-1.505847,1.553618,-1.861939,-0.03541979,1.303906,0.3531661,-0.5620788,-0.1260596,10.5305,12.23484,-0.05922236,0.05206118,0.1264492,-0.3049687,-2.597715,-1.197095,0.07964739,1.42531,0.2753947,0.2358971,0.1848778,0.1877502,-0.9589505,0.7719117,-0.1942475,0.2555324,1.483842,0.18818,-0.3839554,1.28954,0.265242,279.7113,280.0802,335.2408,True
5,2.777775,-0.06762487,-0.3449502,-0.008892938,-1.501922,1.55355,-1.863387,-0.03580016,1.303746,0.3533251,-0.5657145,-0.3316487,10.55703,12.23484,-0.08861157,-0.05434448,0.02529541,-0.3021942,-2.613313,-1.180262,0.07914555,1.424903,0.2754431,0.2622745,0.1443979,0.1629717,-0.9580578,0.7724851,-0.1983666,0.2547328,1.483711,0.1883526,-0.3850687,1.289732,0.2655636,279.5995,279.5826,335.8954,True
5,2.788886,-0.03469966,-0.3396862,-0.04520816,-1.497931,1.55295,-1.863856,-0.0363234,1.303476,0.3535767,-0.5635813,0.1974009,10.50398,12.27769,-0.1091599,-0.08945917,-0.01827402,-0.3009899,-2.621208,-1.170604,0.07843897,1.424223,0.2755558,0.2683299,0.103935,0.1298914,-0.9576471,0.7727306,-0.2017776,0.2539588,1.483286,0.1883047,-0.3853738,1.289722,0.2657163,279.2766,279.0445,336.6251,True
5,2.799997,0.005636578,-0.3216436,-0.09010848,-1.494449,1.551242,-1.86528,-0.03654447,1.303067,0.3539224,-0.5642157,-0.06034027,10.47745,12.34197,-0.04125926,-0.006175146,-0.02511428,-0.3040382,-2.620297,-1.173244,0.07781672,1.423884,0.275692,0.2328936,0.04426396,0.1025947,-0.9571359,0.771027,-0.2022247,0.2534174,1.48322,0.1883295,-0.3854807,1.289399,0.2656533,279.036,277.9956,337.7071,True
5,2.811108,0.04175388,-0.3046039,-0.1147556,-1.491263,1.55006,-1.866696,-0.0369328,1.302528,0.3544455,-0.5629172,0.1191412,10.45093,12.44911,-0.005758587,0.04068608,0.0279227,-0.3050374,-2.610706,-1.183495,0.07714316,1.423309,0.2757566,0.1946376,0.0346568,0.1115345,-0.9555795,0.7714527,-0.2033308,0.2527484,1.483176,0.1885896,-0.3855241,1.288694,0.2655242,278.8896,276.3323,339.2036,True
5,2.822219,0.06086499,-0.2715618,-0.1181386,-1.488677,1.549001,-1.867931,-0.03721604,1.302201,0.3548784,-0.5633763,-0.04341356,10.45093,12.57767,-0.0003827959,0.158045,-0.04966468,-0.3116996,-2.61308,-1.181319,0.0766044,1.422885,0.2758629,0.1448579,0.04315926,0.1387071,-0.9533296,0.7728473,-0.2042253,0.252234,1.483082,0.1887794,-0.3857648,1.287629,0.2655306,278.9117,274.4151,340.862,True
5,2.83333,0.0842467,-0.2406055,-0.1151055,-1.486861,1.548303,-1.869574,-0.03746256,1.30149,0.355442,-0.5630098,0.03374881,10.47745,12.74909,-0.02044185,0.05704428,-0.1775285,-0.3117582,-2.636544,-1.157847,0.07604253,1.422526,0.2759228,0.1246799,0.02930608,0.1442553,-0.9515453,0.7731085,-0.2050514,0.2517207,1.482942,0.1888931,-0.3861144,1.286225,0.2658835,279.0149,272.657,342.3912,True
5,2.844441,0.1129437,-0.2384991,-0.1375473,-1.483608,1.547057,-1.871529,-0.03774419,1.300912,0.3560143,-0.5624053,0.05462485,10.61008,12.94193,0.001242198,0.04317639,-0.1394017,-0.3115163,-2.636777,-1.158312,0.07560873,1.421993,0.2761621,0.07421516,-0.01652686,0.1064578,-0.951344,0.7707813,-0.2028357,0.2513522,1.482875,0.1890445,-0.3865941,1.284537,0.2666645,279.2285,271.4773,343.5095,True
5,2.855552,0.1203048,-0.2354118,-0.1748608,-1.480268,1.544807,-1.872896,-0.03805506,1.300235,0.3566465,-0.5624042,-0.0005660599,10.71618,13.09192,0.02372712,0.003818557,-0.1386168,-0.311038,-2.642712,-1.153633,0.0750291,1.4213,0.2763674,0.0589196,0.001567662,0.07253725,-0.9517211,0.7712994,-0.2031009,0.2510681,1.482899,0.1891792,-0.3870896,1.282692,0.2678127,279.5481,270.8382,344.2971,True
5,2.866663,0.1213005,-0.221609,-0.188762,-1.477508,1.542976,-1.873896,-0.03838941,1.299563,0.3572218,-0.5624713,-0.006308593,10.8488,13.13477,0.03414454,0.01454131,-0.1621239,-0.3126269,-2.64965,-1.147773,0.07454467,1.420606,0.2765715,0.08229986,0.02180726,0.06802011,-0.9511373,0.7725574,-0.205599,0.2505116,1.482856,0.1894066,-0.3875161,1.280757,0.2692096,279.8263,270.4482,344.9512,True
5,2.877774,0.125492,-0.1907177,-0.1920704,-1.475803,1.541141,-1.875274,-0.0386771,1.298924,0.3578656,-0.5617006,0.07031733,10.92838,13.09192,0.02891734,0.02112974,-0.2675327,-0.3158189,-2.668365,-1.130065,0.07381997,1.419981,0.2768006,0.1067628,0.03246617,0.06455754,-0.9506702,0.7735648,-0.208236,0.2500047,1.482745,0.189692,-0.3879333,1.278781,0.2707686,280.0533,269.5988,346.0614,True
5,2.888885,0.1317867,-0.1534454,-0.2007321,-1.474602,1.538921,-1.876715,-0.03882787,1.298319,0.3585587,-0.5610018,0.06316693,10.92838,13.04907,0.02023065,0.07437303,-0.269481,-0.3194201,-2.673738,-1.12482,0.07325247,1.419515,0.2770832,0.09710523,0.04419494,0.05825959,-0.950512,0.7748663,-0.209611,0.2495784,1.482498,0.1897407,-0.3884217,1.276832,0.272485,280.2824,268.6989,347.1752,True
5,2.899997,0.1541007,-0.1171657,-0.1955777,-1.473811,1.537084,-1.878992,-0.03889045,1.297838,0.3592238,-0.5611627,-0.01530677,10.87533,12.9205,0.03321993,0.07968542,-0.2450846,-0.3212486,-2.677634,-1.121932,0.07272005,1.419084,0.2773712,0.07689024,0.08041026,0.06166533,-0.950178,0.7776798,-0.211349,0.2490772,1.482345,0.1900482,-0.3889654,1.275016,0.2742998,280.5464,268.2831,347.8356,True
5,2.911108,0.1722381,-0.1257159,-0.2062499,-1.470946,1.534459,-1.881074,-0.03870699,1.297641,0.3597438,-0.5611504,0.001206095,10.76923,12.53482,0.06324067,-0.05466341,-0.1454715,-0.3154408,-2.679595,-1.121906,0.07252261,1.418655,0.2776368,0.09710413,0.07721446,0.05931836,-0.9496747,0.7786329,-0.2136478,0.248604,1.482233,0.1902957,-0.3894641,1.273407,0.2761345,280.7873,268.2819,348.102,True
5,2.922219,0.1806633,-0.1214482,-0.2212424,-1.469077,1.531955,-1.882933,-0.03889164,1.297069,0.360395,-0.5617847,-0.0581073,10.68966,12.08485,0.05183528,-0.05795394,-0.1112861,-0.314922,-2.681193,-1.120516,0.07218403,1.418226,0.2779233,0.1478986,0.05271858,0.02681745,-0.9503778,0.7780784,-0.2167046,0.2482374,1.482097,0.1905947,-0.389813,1.272034,0.2779353,280.9763,268.4208,348.2151,True
5,2.93333,0.1976694,-0.1022388,-0.2213464,-1.467854,1.529695,-1.885471,-0.03925207,1.296593,0.3609862,-0.5615483,0.02193744,10.66313,11.61346,0.03688174,-0.05822104,0.002834497,-0.3129113,-2.670973,-1.13007,0.07179609,1.417975,0.2782364,0.1725018,0.05378464,0.03613146,-0.949941,0.7788727,-0.2198394,0.2479326,1.482018,0.1910307,-0.3899358,1.270866,0.2796414,281.0827,268.4114,348.4724,True
5,2.944441,0.2019446,-0.07229046,-0.1873631,-1.467786,1.528815,-1.887671,-0.03949621,1.296003,0.3615813,-0.5610982,0.0407776,10.76923,11.18491,0.007830787,-0.02949036,-0.02029578,-0.3141263,-2.674078,-1.126216,0.07153907,1.417434,0.2786241,0.1673926,0.05059515,0.05643188,-0.9486824,0.7799007,-0.2220405,0.247527,1.481901,0.1912813,-0.3899114,1.26984,0.281248,281.1071,267.7246,349.3476,True
5,2.955552,0.1528937,0.03650624,-0.1162299,-1.472052,1.528682,-1.8877,-0.03979337,1.295107,0.3620398,-0.5615445,-0.04125874,10.92838,10.82066,0.001902964,-0.004886141,-0.07985346,-0.3163787,-2.682792,-1.117625,0.07134128,1.416937,0.279002,0.1330699,0.003697865,0.03443942,-0.9486734,0.7777688,-0.2209516,0.2472419,1.481748,0.1915469,-0.3900708,1.268887,0.2827986,281.0559,267.2636,349.925,True
5,2.966663,0.1294303,0.07701831,-0.09180209,-1.473997,1.527826,-1.888174,-0.04002288,1.294511,0.3625064,-0.5609635,0.05340318,11.06101,10.52068,0.07116045,0.1100515,0.07421986,-0.3183995,-2.65749,-1.144888,0.07114759,1.416541,0.2795448,0.1060899,-0.02827487,0.001714485,-0.9495069,0.7756849,-0.2199491,0.2470396,1.481566,0.1917939,-0.3904389,1.26791,0.2842873,280.9931,267.3475,349.9798,True
5,2.977774,0.1230497,0.118685,-0.05253961,-1.476468,1.527097,-1.889335,-0.03987101,1.293889,0.3629534,-0.558581,0.2173131,11.19363,10.32783,0.1467287,0.1996973,0.09395013,-0.3225147,-2.644999,-1.160946,0.07076377,1.416191,0.2800491,0.07932057,-0.03680631,-0.01078197,-0.9499543,0.7747612,-0.2193289,0.2469103,1.481317,0.1918242,-0.3908361,1.266823,0.2856032,280.9956,268.3189,349.2226,True
5,2.988885,0.1358675,0.1732351,0.005842276,-1.480449,1.527756,-1.891505,-0.03986982,1.292894,0.3633192,-0.5589219,-0.03296182,11.27321,10.39211,0.1338317,0.1720075,0.07376461,-0.3232737,-2.645064,-1.161634,0.07061425,1.416045,0.2804246,0.0730202,-0.05171604,-0.002188543,-0.9494409,0.7737744,-0.2194027,0.246762,1.481195,0.1921091,-0.391269,1.265734,0.2865752,281.1843,270.1957,347.5917,True
5,2.999996,0.1476045,0.1903768,0.02812951,-1.483371,1.527945,-1.89357,-0.03969333,1.292103,0.3635833,-0.5597778,-0.07770998,11.24668,10.73495,0.06491074,-0.03455889,-0.06984214,-0.3186573,-2.673216,-1.133099,0.07056475,1.415847,0.280823,0.07198034,-0.06023823,-4.450884E-05,-0.9491618,0.7726348,-0.2195049,0.2465654,1.481133,0.1923802,-0.391566,1.26475,0.2871637,281.4163,271.018,346.8725,True
5,3.011107,0.1507692,0.1818001,0.01110519,-1.484627,1.526848,-1.895077,-0.03962639,1.291264,0.363862,-0.5607701,-0.09007531,11.16711,11.07778,0.02228162,-0.1102637,-0.09305146,-0.3156368,-2.683889,-1.121489,0.07052207,1.415261,0.2813244,0.05581182,-0.06558318,-0.01692092,-0.9497674,0.7711487,-0.2186279,0.2463326,1.481217,0.192837,-0.3915103,1.26389,0.287441,281.5288,271.5711,346.2616,True
5,3.022218,0.1486376,0.1625615,-0.00586937,-1.485434,1.525883,-1.896554,-0.03954211,1.290643,0.3641164,-0.560751,0.002428139,11.00796,11.42061,0.05366342,-0.005712714,-0.1261536,-0.3202994,-2.684634,-1.122553,0.07032976,1.41495,0.2818401,0.03884139,-0.04321356,-0.009283734,-0.9497408,0.7715256,-0.2187097,0.2461362,1.481126,0.1931205,-0.3912137,1.263058,0.2874251,281.4719,272.6462,345.0896,True
5,3.033329,0.1742518,0.1488026,0.004765499,-1.486772,1.525814,-1.899245,-0.0394178,1.290031,0.364408,-0.5602135,0.04901551,10.87533,11.74202,0.07173233,0.01373839,-0.2434644,-0.3240231,-2.702802,-1.106754,0.07011145,1.415017,0.2823131,0.03915182,-0.02508672,0.01947171,-0.9486478,0.7724749,-0.2198088,0.2460334,1.481084,0.1932974,-0.3908285,1.262143,0.2871775,281.3837,273.2909,344.289,True
5,3.04444,0.2084338,0.1276227,0.02393245,-1.487665,1.526569,-1.902873,-0.03933686,1.289454,0.3647034,-0.5600718,0.01248243,10.79576,12.02057,0.06272321,-0.01302916,-0.1869707,-0.322961,-2.704258,-1.105741,0.07003587,1.415073,0.2827139,0.06292915,-0.01761463,0.05117424,-0.9469562,0.773039,-0.2216546,0.245878,1.481036,0.1935906,-0.3905876,1.261097,0.2868996,281.3629,273.1165,344.1971,True
5,3.055551,0.2543924,0.07771831,0.0452564,-1.487054,1.527497,-1.907476,-0.0389047,1.289207,0.3649247,-0.561151,-0.09877349,10.76923,12.27769,-0.007663414,-0.149478,-0.2356099,-0.3194217,-2.724711,-1.083958,0.0698531,1.414897,0.2830055,0.06703731,-0.01868107,0.03727471,-0.9471143,0.7726609,-0.2223215,0.2456667,1.481074,0.1938541,-0.3904723,1.259957,0.2867747,281.4718,272.8483,344.2065,True
5,3.066662,0.2608221,0.0275649,0.0177132,-1.485364,1.527315,-1.9106,-0.03889525,1.288872,0.3651891,-0.562009,-0.07764501,10.76923,12.42768,-0.02523328,-0.1421907,-0.1725841,-0.3183671,-2.726451,-1.081411,0.0696356,1.414766,0.2833846,0.04647794,-0.019758,0.007671608,-0.9479895,0.7721027,-0.2217952,0.2454876,1.481121,0.1941383,-0.3903394,1.258712,0.2868522,281.5985,273.0065,343.9303,True
5,3.077773,0.2608927,-0.01507436,0.01142704,-1.483545,1.527204,-1.913389,-0.03894201,1.28855,0.3653524,-0.5628048,-0.07234422,10.82228,12.57767,-0.001043193,-0.02813733,-0.1736448,-0.3223485,-2.725764,-1.082855,0.06937426,1.414735,0.2836621,0.03130081,0.001526922,-0.01560965,-0.9492353,0.7724641,-0.2216184,0.2453273,1.481181,0.1945305,-0.3900518,1.257286,0.2870587,281.7246,273.2668,343.7122,True
5,3.088884,0.2599086,-0.03527724,0.02534907,-1.482785,1.5284,-1.916419,-0.03917733,1.288046,0.3656726,-0.5612271,0.1445708,10.8488,12.74909,0.01338032,0.00926882,-0.2163078,-0.3254969,-2.734565,-1.075179,0.06918088,1.414682,0.2839279,0.04005063,-0.002735868,0.005606104,-0.9482414,0.7723495,-0.2223303,0.2452002,1.48125,0.1948342,-0.3896177,1.256436,0.2873468,281.425,274.7896,342.2749,True
5,3.099995,0.2535311,-0.02992891,0.03599994,-1.482893,1.529183,-1.919068,-0.03916964,1.287671,0.3659027,-0.5605181,0.06341571,10.8488,12.96336,0.002983198,0.03580231,-0.1799411,-0.3269925,-2.734124,-1.075278,0.06895187,1.414711,0.2841535,0.04630715,-0.01445543,-0.007243013,-0.9485685,0.7715088,-0.2226038,0.2450005,1.48139,0.1950905,-0.3892943,1.25598,0.2876442,281.1232,276.103,340.8833,True
5,3.111106,0.2322275,-0.02462086,0.04455956,-1.48317,1.529981,-1.9209,-0.03918183,1.287167,0.3662643,-0.5604985,0.001300132,10.76923,13.19906,-0.005947389,-0.005892355,-0.1181582,-0.3250963,-2.734105,-1.074735,0.06877038,1.414712,0.2844031,0.02469699,-0.0006252117,-0.03470749,-0.9499837,0.7715677,-0.2221239,0.2447425,1.481616,0.1953249,-0.3891111,1.255643,0.2878904,280.8996,277.0273,339.8099,True
5,3.122217,0.1896054,-0.04288674,0.02448153,-1.481936,1.530044,-1.921573,-0.03921774,1.287014,0.3664746,-0.5601065,0.03583044,10.66313,13.45618,-0.01518391,-0.01664009,-0.08186764,-0.3242915,-2.734466,-1.073859,0.06867394,1.41451,0.2845316,0.005530793,0.01215345,-0.03343821,-0.9504358,0.7721797,-0.221865,0.2445587,1.481739,0.1955719,-0.3889632,1.255319,0.2880487,280.7143,277.9134,338.8188,True
5,3.133328,0.1640779,-0.08455893,0.0001372695,-1.479323,1.529482,-1.922745,-0.03923652,1.287117,0.3667717,-0.5592457,0.07839546,10.5305,13.69188,-0.01570802,0.1003526,0.01317557,-0.3273158,-2.717819,-1.089384,0.06849235,1.414571,0.2848184,0.01534503,0.03239325,-0.01223961,-0.9499218,0.7735214,-0.2232451,0.24439,1.48175,0.1957865,-0.3887582,1.255032,0.2881376,280.5147,278.6629,338.0331,True
5,3.144439,0.1651757,-0.1090768,-0.005105374,-1.477451,1.530116,-1.924738,-0.03955045,1.287033,0.3670835,-0.5581592,0.09879716,10.45093,13.97043,0.005271815,0.0877026,-0.02646289,-0.3286756,-2.722107,-1.086045,0.06831217,1.414761,0.2851369,0.05607265,0.01323336,0.009697912,-0.948937,0.7731498,-0.225166,0.2442441,1.481799,0.1960406,-0.3885654,1.254802,0.2882012,280.3263,279.1641,337.4927,True
5,3.15555,0.1790727,-0.1314161,-0.00399968,-1.475278,1.530923,-1.927288,-0.03958455,1.287184,0.3672764,-0.5587754,-0.05702434,10.37135,14.22755,-0.01558744,-0.01549201,-0.1255523,-0.3278112,-2.740089,-1.068174,0.06820616,1.414899,0.2854357,0.06966126,-0.00701651,-0.01494884,-0.9497514,0.7716952,-0.2255668,0.2440192,1.481956,0.1963191,-0.3884945,1.254714,0.2882714,280.2256,279.1398,337.4223,True
5,3.166661,0.1822558,-0.1335035,0.002390135,-1.474273,1.531551,-1.929042,-0.03941908,1.286905,0.3675449,-0.5597112,-0.08486916,10.37135,14.44182,-0.01310599,-0.05281713,-0.09689423,-0.3264439,-2.743062,-1.065152,0.06798965,1.415017,0.2857192,0.0351731,0.0110671,-0.05080181,-0.9516465,0.7720054,-0.2248166,0.2439453,1.482159,0.1964829,-0.3884031,1.254619,0.2885953,280.1393,279.9665,336.4571,True
5,3.177772,0.1822593,-0.1302938,0.006640602,-1.473066,1.532234,-1.931156,-0.03937644,1.286914,0.3676591,-0.5603904,-0.06138536,10.4244,14.54896,0.01899985,-0.1017399,-0.09514757,-0.3244156,-2.749836,-1.06008,0.06786987,1.415064,0.2859271,0.008468752,0.02384326,-0.05690727,-0.9525845,0.7726802,-0.2243817,0.2439362,1.482278,0.1966352,-0.3885213,1.254558,0.2886757,280.1423,279.8317,336.4127,True
5,3.188883,0.1737033,-0.1292967,-0.009316489,-1.471597,1.532201,-1.932879,-0.03961021,1.286971,0.3678288,-0.559675,0.06585033,10.50398,14.54896,-0.01074716,-0.09970829,-0.0852882,-0.3239288,-2.753159,-1.055804,0.0676873,1.415084,0.2859836,0.004221078,0.01211642,-0.05579349,-0.9530021,0.772029,-0.2239652,0.2438788,1.48251,0.1968539,-0.3884197,1.254405,0.2886634,279.992,279.6693,336.4847,True
5,3.199994,0.1523723,-0.1283164,-0.02098622,-1.469991,1.532158,-1.933955,-0.03974104,1.286972,0.3680027,-0.5599488,-0.02563983,10.61008,14.50611,-0.01373782,0.01097094,-0.02965463,-0.3266293,-2.7432,-1.064882,0.06753445,1.415228,0.2861276,0.01599078,-0.01025075,-0.05165351,-0.9532572,0.7707698,-0.2238334,0.2437663,1.48264,0.1969903,-0.3881586,1.254216,0.2886449,279.7519,279.7569,336.3865,True
5,3.211105,0.1406462,-0.1123167,-0.008228714,-1.469457,1.532717,-1.935156,-0.03978667,1.287023,0.3682895,-0.5596915,0.02382679,10.66313,14.48468,0.003292218,0.05892511,-0.01693113,-0.3284802,-2.739251,-1.069262,0.06742179,1.415478,0.2862444,0.02583475,-0.009169228,-0.0283216,-0.9527869,0.7710465,-0.2247018,0.2436275,1.482507,0.1969762,-0.3879524,1.254062,0.2886645,279.5683,280.0491,336.095,True
5,3.222216,0.1395779,-0.1005644,0.002388533,-1.468938,1.533337,-1.9367,-0.0398452,1.287003,0.3684685,-0.559063,0.05725512,10.66313,14.44182,-0.001124647,0.03659562,-0.04037523,-0.3287891,-2.743526,-1.065025,0.06735104,1.415549,0.2863467,0.02282375,-0.01342512,-0.01123763,-0.9522297,0.7708669,-0.2247428,0.2434863,1.482569,0.1970713,-0.387972,1.253949,0.2887425,279.4765,280.927,335.0985,True
5,3.233327,0.1225063,-0.08781802,0.00235384,-1.468234,1.533132,-1.937501,-0.03959122,1.287232,0.3685825,-0.5591525,-0.008601803,10.61008,14.35612,0.01301997,-0.03477481,-0.02786141,-0.3263502,-2.748586,-1.060623,0.06733978,1.415703,0.286608,-0.0005183946,-0.01236122,-0.002465732,-0.9520385,0.7708192,-0.2239489,0.2434028,1.482666,0.1972091,-0.387972,1.253789,0.2887591,279.5097,281.5045,334.4232,True
5,3.244438,0.09265547,-0.09325621,-0.01247183,-1.466813,1.532974,-1.937566,-0.03963381,1.28731,0.3687212,-0.5595989,-0.04058092,10.47745,14.20613,0.0001315139,-0.0347835,-0.03946971,-0.3263555,-2.751112,-1.057878,0.06716478,1.415678,0.2867723,-0.01002389,-0.00810051,0.00509548,-0.9517344,0.7709887,-0.2236459,0.2432456,1.482744,0.1973159,-0.387933,1.253766,0.2888475,279.4824,281.9539,333.9702,True
5,3.255549,0.05853814,-0.08268236,-0.01668543,-1.4662,1.532863,-1.937167,-0.03980497,1.287138,0.3688924,-0.559071,0.04863097,10.3183,14.01328,-0.003361601,0.00466432,-0.0606733,-0.328192,-2.752753,-1.056147,0.06701761,1.415641,0.2869999,-0.004583378,-0.005954607,0.01568415,-0.9513631,0.7713108,-0.2240041,0.2432157,1.482846,0.1974654,-0.3878449,1.253717,0.2889359,279.4173,282.4615,333.463,True
5,3.26666,0.03402016,-0.06028851,0.003542809,-1.466624,1.533499,-1.936565,-0.03984115,1.287034,0.3690565,-0.5583866,0.06224237,10.23872,13.82044,-0.002198711,0.04829947,-0.03716544,-0.3299092,-2.74887,-1.059828,0.06685066,1.415684,0.2872324,0.02432641,-0.0123196,0.02814839,-0.9507597,0.7712992,-0.2254033,0.2430963,1.482927,0.1976461,-0.387758,1.253705,0.2890013,279.3516,282.8278,333.0914,True
5,3.277771,0.02336179,-0.03574665,0.02160075,-1.467366,1.534179,-1.936643,-0.03997746,1.286933,0.3692405,-0.5580356,0.03171938,10.15915,13.64902,0.0008671731,0.04301237,-0.05318341,-0.3307412,-2.751298,-1.05766,0.06677493,1.415725,0.2874334,0.0434896,-0.009132653,0.02794435,-0.9504023,0.7711452,-0.2262627,0.2429676,1.482853,0.1978076,-0.3877638,1.253678,0.2890454,279.3822,283.2424,332.6218,True
5,3.288882,0.02018283,-0.02504131,0.039683,-1.467821,1.535115,-1.936857,-0.04009339,1.287043,0.3693454,-0.5579578,0.007050459,10.15915,13.49904,-0.002079204,0.009943139,-0.03511792,-0.3295976,-2.752923,-1.055992,0.06689468,1.415841,0.2876148,0.04141586,-0.01233504,0.0332888,-0.9499027,0.7708881,-0.2264353,0.2429919,1.482854,0.1979568,-0.3878244,1.253616,0.2890935,279.473,283.7267,332.0658,True
5,3.299993,0.02765092,-0.03460131,0.04182889,-1.467382,1.535831,-1.937321,-0.0399777,1.287025,0.3694997,-0.5588515,-0.08158562,10.2122,13.24191,-0.001546976,0.01515246,0.02561236,-0.3287502,-2.746211,-1.062324,0.06695038,1.415994,0.2878382,0.02845278,-0.02086306,0.01638881,-0.9500816,0.7702189,-0.225986,0.2428924,1.482895,0.1980979,-0.387877,1.253622,0.2891371,279.5311,283.9041,331.8848,True
5,3.311104,0.03618968,-0.040968,0.04183249,-1.467022,1.536462,-1.938128,-0.03998592,1.287061,0.3697536,-0.5592223,-0.03305881,10.3183,13.02764,0.0170624,-0.01578134,0.0722574,-0.3267912,-2.741583,-1.067474,0.0669921,1.41613,0.2879078,0.01767578,-0.02726958,0.004784732,-0.9503165,0.7693517,-0.2253327,0.2428255,1.482967,0.198411,-0.3879215,1.253651,0.2891159,279.5632,283.7104,332.0939,True
5,3.322215,0.04793714,-0.049458,0.04396663,-1.466509,1.537327,-1.939237,-0.04005012,1.287238,0.369997,-0.5596228,-0.03632452,10.47745,12.85623,0.01180991,-0.02539549,0.07867334,-0.325826,-2.74017,-1.068634,0.06704223,1.416158,0.2880893,0.006962474,-0.03686221,-0.001486854,-0.9503192,0.7684519,-0.2246081,0.2428564,1.482961,0.19856,-0.3879226,1.253697,0.289017,279.5381,283.1144,332.7131,True
5,3.333326,0.05757503,-0.07180133,0.04614642,-1.465301,1.538407,-1.940302,-0.04004899,1.287321,0.3702028,-0.5600622,-0.03985577,10.61008,12.70623,-0.01304459,-0.007283429,0.044841,-0.3266452,-2.741223,-1.066626,0.06708097,1.416154,0.2882705,0.009041741,-0.04858137,-0.005760571,-0.9501461,0.7673435,-0.2240659,0.242888,1.482959,0.1986647,-0.3878362,1.253708,0.2889012,279.4366,282.5514,333.2791,True
5,3.344437,0.05759109,-0.08245214,0.04618244,-1.464388,1.539328,-1.940931,-0.04000887,1.287409,0.3703792,-0.5603813,-0.02888252,10.68966,12.5991,-0.01335355,0.00130109,0.01289912,-0.3274729,-2.743317,-1.064468,0.06713289,1.416111,0.288496,0.01110587,-0.05284451,-0.01217535,-0.9503485,0.7663766,-0.223726,0.242856,1.482986,0.1988466,-0.387755,1.253684,0.2888662,279.3617,282.4848,333.3262,True
5,3.355548,0.0522813,-0.1070097,0.03242607,-1.462464,1.539973,-1.94141,-0.03996226,1.287507,0.3706141,-0.5603115,0.006596547,10.66313,12.51339,-0.002746181,0.01198542,0.01069703,-0.3279198,-2.742442,-1.065677,0.06712586,1.416226,0.2887022,0.006860737,-0.05070867,-0.009994866,-0.9502601,0.7659436,-0.2233295,0.242942,1.483033,0.1989293,-0.3876921,1.253636,0.288906,279.3164,282.8077,332.9858,True
5,3.366659,0.05014184,-0.110238,0.02605581,-1.461226,1.540664,-1.941969,-0.03994468,1.287629,0.370769,-0.5598518,0.04188157,10.6366,12.47054,-0.003682274,-0.01146987,0.01811956,-0.3267976,-2.742337,-1.065714,0.06715667,1.416261,0.2889113,0.00589693,-0.04111834,-0.0003961734,-0.949875,0.7659049,-0.2233489,0.242913,1.48305,0.1991134,-0.387605,1.253566,0.2889493,279.2468,283.1561,332.6304,True
5,3.37777,0.05119515,-0.1230715,0.01011563,-1.4594,1.540912,-1.94259,-0.03984749,1.287705,0.3710027,-0.5596889,0.01456118,10.6366,12.44911,0.006007144,-0.002948884,0.03189829,-0.3266143,-2.739834,-1.068494,0.06717831,1.416296,0.2890754,0.01444401,-0.01021465,0.002700517,-0.9498984,0.7672393,-0.2245796,0.2429023,1.483058,0.1992629,-0.3875166,1.253517,0.2889654,279.1707,283.3406,332.4399,True
5,3.388881,0.04587082,-0.1348104,0.0059072,-1.457709,1.541526,-1.94283,-0.03967378,1.287698,0.3712592,-0.5597794,-0.008316605,10.74271,12.42768,0.01023842,0.02688659,0.03724674,-0.3275667,-2.735932,-1.072438,0.06732282,1.416326,0.2891889,0.01335557,0.004702293,0.0005767248,-0.9501477,0.7678692,-0.2250976,0.2429019,1.483059,0.1994104,-0.3874422,1.253493,0.2889652,279.1081,283.4432,332.3191,True
5,3.399992,0.04909001,-0.139053,0.01017731,-1.456261,1.542453,-1.943661,-0.03959423,1.287729,0.3714948,-0.5599275,-0.01344589,10.90185,12.38483,-0.004216161,0.02058988,-0.03187741,-0.3288189,-2.74307,-1.065114,0.06750137,1.416247,0.2893586,0.0146167,0.003640946,0.01867361,-0.9493935,0.7681132,-0.2254262,0.2429125,1.483109,0.1995711,-0.3873816,1.253482,0.2889671,279.0592,283.5467,332.1951,True
5,3.411103,0.04055301,-0.1305444,0.01123501,-1.455222,1.543037,-1.943888,-0.03941569,1.287771,0.371732,-0.5595477,0.03485643,11.08753,12.38483,0.01426947,0.02694376,0.01164767,-0.3285089,-2.738424,-1.070271,0.06761318,1.416272,0.2896073,0.01786574,-0.005957354,0.02397201,-0.9487703,0.7675315,-0.2252805,0.2428963,1.483143,0.1997628,-0.3872861,1.253445,0.288998,278.988,283.8747,331.8351,True
