loc,t,aDotS,bDotS,gDotS,aS,bS,gS,xS,yS,zS,qE,qDotE,emgA,emgB,aDotSH,bDotSH,gDotSH,aSH,bSH,gSH,xSH,ySH,zSH,aDotUB,bDotUB,gDotUB,aUB,bUB,gUB,xUB,yUB,zUB,xHand,yHand,zHand,aHand,bHand,gHand,enable
6,0,0.2109624,-0.3798086,0.4949557,4.619095,1.549822,-2.534166,0.3696153,1.214081,0.4900148,-0.952781,0.01884439,11.51194,14.14185,-0.3193204,0.2083216,0.008380726,-0.5977784,-3.772616,-0.4267039,0.4064741,1.421477,0.4639654,-0.09410792,0.294181,0.0315195,-1.093567,0.3754705,-0.1550903,0.5481702,1.493301,0.305584,0.05794838,1.116898,0.409368,295.0848,293.7996,325.6245,True
6,0.01111111,0.2024264,-0.3819985,0.4768744,4.617485,1.556358,-2.535598,0.3687434,1.213513,0.4883273,-0.9529909,-0.01933806,11.45889,14.22755,-0.3182226,0.2029917,0.01049234,-0.5983654,-3.769109,-0.4260474,0.405684,1.421331,0.4632394,-0.0961685,0.2845931,0.03686014,-1.093522,0.3786862,-0.1554937,0.5480248,1.493217,0.3054073,0.0573311,1.115885,0.4062769,295.8036,296.7898,322.463,True
6,0.02222222,0.1970754,-0.3799114,0.4587664,4.616141,1.562337,-2.537011,0.3678814,1.213318,0.4871085,-0.9524732,0.04748051,11.45889,14.31326,-0.3244748,0.2125277,0.02973935,-0.5985934,-3.764093,-0.4264187,0.4048325,1.421304,0.4625349,-0.1153378,0.2579489,0.03600081,-1.093468,0.3809001,-0.1545779,0.5478048,1.493148,0.3051999,0.05699733,1.114177,0.4011799,296.2426,296.4843,321.9826,True
6,0.03333334,0.1928016,-0.382121,0.43108,4.615367,1.568371,-2.538686,0.3670089,1.212832,0.485292,-0.952438,0.002854725,11.53846,14.39897,-0.3158215,0.2242414,0.04885947,-0.5987846,-3.758451,-0.4278073,0.403973,1.421278,0.4616909,-0.1269291,0.2536764,0.04677554,-1.093071,0.3839144,-0.1542562,0.5476154,1.493115,0.3049443,0.05694911,1.112101,0.3947889,296.7981,294.7616,322.2573,True
6,0.04444445,0.1874456,-0.386447,0.4023322,4.614998,-4.709159,-2.540032,0.3661907,1.212653,0.4840972,-0.9524434,-0.0004260596,11.59151,14.44182,-0.3115182,0.2359555,0.05736649,-0.5991969,-3.752902,-0.4290608,0.403138,1.421219,0.4609122,-0.1226456,0.2877686,0.05098876,-1.093044,0.3888657,-0.1553329,0.54739,1.49306,0.3047891,0.05717944,1.109974,0.3878369,297.4857,292.9796,322.3615,True
6,0.05555556,0.1767293,-0.3844578,0.3394802,4.615921,-4.704693,-2.541417,0.3654485,1.212597,0.4830709,-0.9527763,-0.03037073,11.64456,14.37754,-0.3018683,0.2561974,0.07117596,-0.5995159,-3.746221,-0.4315269,0.4024545,1.421236,0.4600904,-0.1153259,0.3048183,0.03919131,-1.093596,0.3932565,-0.1563313,0.5472424,1.493062,0.3045454,0.05716785,1.108893,0.3820946,297.1381,290.3877,323.9874,True
6,0.06666667,0.1735161,-0.3834246,0.3256327,4.615691,-4.699317,-2.542753,0.3646228,1.212426,0.4819164,-0.9525009,0.02546639,11.67109,14.27041,-0.2975278,0.2498066,0.07857665,-0.5997034,-3.741361,-0.4322862,0.4017045,1.421189,0.4592879,-0.1164727,0.2930973,0.03068222,-1.093957,0.3964039,-0.156445,0.5471587,1.492993,0.304297,0.0570816,1.10856,0.3773406,297.1335,290.0209,323.4716,True
6,0.07777778,0.1617317,-0.377183,0.2670518,4.617063,-4.695228,-2.543932,0.3638639,1.211998,0.4803989,-0.9524418,0.005211492,11.67109,14.16327,-0.2921111,0.2327663,0.08382581,-0.5995479,-3.737352,-0.4326049,0.4009604,1.421208,0.4585717,-0.1188602,0.2622033,0.005138285,-1.095049,0.3982575,-0.1559158,0.5470003,1.492985,0.3040197,0.05730757,1.10819,0.3729997,297.7498,290.5421,321.8695,True
6,0.08888889,0.1552851,-0.3687412,0.2361448,4.617851,-4.690939,-2.545033,0.363279,1.211936,0.4793909,-0.9525414,-0.009078387,11.69761,14.07757,-0.2728105,0.2083036,0.09108323,-0.5990185,-3.733754,-0.433099,0.4003349,1.421176,0.4578621,-0.1220922,0.2483522,0.0009189546,-1.095391,0.4008069,-0.1556394,0.5469097,1.492943,0.3037763,0.05736703,1.108086,0.36997,297.4886,289.4346,322.5467,True
6,0.1,0.1562932,-0.3570924,0.2009634,4.618906,-4.687335,-2.546456,0.3626276,1.21191,0.4785142,-0.9523342,0.01904996,11.69761,13.949,-0.2313332,0.1924573,0.07791442,-0.5992736,-3.730759,-0.4343088,0.3996186,1.421223,0.4571748,-0.1281235,0.2611304,0.03507608,-1.094424,0.4047059,-0.1558176,0.5467202,1.492933,0.3035004,0.05737936,1.108026,0.3679887,297.4118,289.1707,322.6906,True
6,0.1111111,0.1583633,-0.3379393,0.1839087,4.619373,-4.683562,-2.548006,0.3619927,1.21197,0.4778786,-0.9523256,0.0007241464,11.67109,13.79901,-0.2175452,0.1924976,0.07140426,-0.5996272,-3.726922,-0.4353938,0.3988965,1.421352,0.4565234,-0.1322283,0.2717756,0.05110452,-1.093796,0.4086705,-0.1559331,0.5465893,1.492941,0.3032994,0.05746799,1.107924,0.3670614,297.1515,288.5262,323.7843,True
6,0.1222222,0.1572572,-0.3177539,0.1604083,4.620094,-4.680771,-2.549454,0.3614145,1.211984,0.4770474,-0.9526516,-0.0297808,11.61804,13.69188,-0.2174516,0.2020601,0.08527021,-0.599444,-3.721757,-0.4372378,0.3982169,1.42145,0.4558866,-0.1374289,0.2547271,0.06181345,-1.093072,0.4113883,-0.1554801,0.5463913,1.492918,0.3030312,0.05748479,1.107907,0.3668276,297.1473,289.0998,323.6239,True
6,0.1333333,0.1582465,-0.2984386,0.1359616,4.618433,-4.679522,-2.550386,0.3615844,1.218557,0.4955482,-0.9528759,-0.02018704,11.51194,13.60617,-0.2205093,0.1988268,0.1012737,-0.5987617,-3.716957,-0.4384096,0.3974583,1.421502,0.4551556,-0.1417595,0.2291522,0.05332763,-1.093182,0.4131638,-0.1546383,0.5461447,1.492821,0.3027623,0.05741921,1.107816,0.3666778,297.2202,289.739,323.3408,True
6,0.1444445,0.1507568,-0.2835581,0.1242213,4.619088,-4.676703,-2.551563,0.361019,1.218701,0.4952269,-0.9527288,0.01358466,11.37931,13.56331,-0.2108953,0.1956526,0.1033161,-0.5985332,-3.712688,-0.4398858,0.3967881,1.421598,0.4544945,-0.1439678,0.22489,0.04589379,-1.093294,0.4158405,-0.1541786,0.5459989,1.492802,0.302516,0.05732145,1.107735,0.3664193,297.2621,290.1227,323.2612,True
6,0.1555556,0.1421992,-0.2623163,0.1039411,4.620061,-4.674406,-2.552818,0.3605866,1.218354,0.4943597,-0.9521025,0.05721147,11.32626,13.54189,-0.2033124,0.1892608,0.1160259,-0.5978935,-3.708352,-0.4414544,0.3962042,1.421744,0.4538517,-0.1355473,0.2323534,0.03727843,-1.09367,0.4190863,-0.154397,0.54588,1.492827,0.30229,0.0570679,1.108164,0.3669027,297.2878,288.822,322.8461,True
6,0.1666667,0.1314972,-0.2346565,0.09217785,4.620441,-4.672697,-2.553739,0.3601277,1.218463,0.4941003,-0.952502,-0.03699529,11.27321,13.58474,-0.1989265,0.1807298,0.1276891,-0.5970535,-3.704216,-0.4427926,0.3956229,1.421717,0.453191,-0.1334495,0.2259586,0.03406459,-1.093656,0.421661,-0.1541438,0.54582,1.492775,0.3020055,0.05833713,1.109587,0.3702992,299.1347,285.4756,322.0337,True
6,0.1777778,0.1197287,-0.2091584,0.07928561,4.621864,-4.671383,-2.554668,0.3601342,1.218262,0.4926353,-0.9526542,-0.01346909,11.27321,13.69188,-0.193492,0.1743329,0.1382842,-0.5960644,-3.700035,-0.4442981,0.3950738,1.421749,0.4525878,-0.1303276,0.215308,0.02657294,-1.093916,0.4239057,-0.1538396,0.5457258,1.492747,0.3017476,0.05825129,1.110834,0.375146,298.9769,286.1132,322.3724,True
6,0.1888889,0.1111803,-0.1868224,0.06754706,4.622136,-4.669848,-2.555668,0.359682,1.218289,0.4921832,-0.9523347,0.02937666,11.24668,13.82044,-0.1786584,0.1647961,0.1264268,-0.5957571,-3.697066,-0.4452728,0.3947662,1.421795,0.4519937,-0.1261392,0.2046588,0.01906445,-1.094318,0.4260315,-0.1535632,0.5456364,1.492783,0.3015208,0.05731783,1.111556,0.3797056,298.0748,288.4892,322.9553,True
6,0.2,0.1015374,-0.1495605,0.06215628,4.621905,-4.669291,-2.5564,0.3594036,1.218355,0.4918597,-0.9523384,-0.0005772379,11.22016,13.92758,-0.1662137,0.1649017,0.0869026,-0.5969145,-3.694489,-0.4460124,0.3943645,1.421801,0.4515002,-0.124036,0.192942,0.01584518,-1.094519,0.4279645,-0.1531456,0.5455263,1.492791,0.3012714,0.05626974,1.111623,0.382688,297.4321,290.523,323.4044,True
6,0.2111111,0.0918916,-0.122966,0.05993072,4.622482,-4.66872,-2.556908,0.3592125,1.217962,0.490272,-0.9525115,-0.01572086,11.19363,13.99186,-0.150418,0.1511422,0.06223595,-0.5975952,-3.692586,-0.446292,0.3939461,1.421946,0.4509895,-0.1164774,0.1801594,0.02428298,-1.094218,0.4297693,-0.152981,0.5454449,1.492826,0.3010726,0.05566629,1.111051,0.3834769,297.2452,291.2654,323.8533,True
6,0.2222222,0.08760646,-0.105929,0.05883655,4.622329,-4.667873,-2.557668,0.3590003,1.218019,0.4898832,-0.9522468,0.02435065,11.14058,14.05614,-0.14299,0.1309389,0.05254765,-0.5976853,-3.691111,-0.4461889,0.3936335,1.422,0.4505715,-0.1121383,0.1652476,0.03062773,-1.093881,0.4313137,-0.1526002,0.5453371,1.492871,0.3008344,0.05552809,1.110036,0.382268,297.5614,290.7713,324.134,True
6,0.2333333,0.08334958,-0.09635425,0.05669445,4.622278,-4.666776,-2.558647,0.3586353,1.217531,0.4890022,-0.9520833,0.01476875,11.06101,14.09899,-0.1333854,0.1181923,0.05031014,-0.5976027,-3.689089,-0.4466864,0.3933273,1.422126,0.4499986,-0.1099319,0.1588542,0.03806192,-1.093428,0.4331553,-0.1521773,0.5451923,1.492921,0.300571,0.05546246,1.109258,0.3801455,297.4309,289.3859,325.0387,True
6,0.2444444,0.07263021,-0.07294869,0.0523816,4.622238,-4.666603,-2.558742,0.3588201,1.217627,0.488333,-0.9524423,-0.03285204,10.98143,14.03471,-0.1162465,0.09266485,0.05331298,-0.5970594,-3.688331,-0.4466119,0.3930843,1.422172,0.4496017,-0.1003571,0.1418156,0.03582725,-1.09324,0.4342922,-0.1519307,0.5450896,1.492946,0.3003342,0.05551597,1.109108,0.3779541,297.1414,288.011,326.1313,True
6,0.2555556,0.05343278,-0.0623345,0.04599177,4.622178,-4.666142,-2.558662,0.3586546,1.217621,0.4879844,-0.9527943,-0.03184142,10.8488,13.82044,-0.09479385,0.06820315,0.06266813,-0.5961753,-3.687594,-0.4468608,0.3928979,1.422156,0.449162,-0.0909334,0.1396929,0.02081404,-1.093746,0.4359838,-0.1519645,0.5450013,1.492903,0.300117,0.05574184,1.108903,0.3751637,297.6558,288.7087,324.4298,True
6,0.2666667,0.04169968,-0.05810406,0.03854053,4.622312,-4.665617,-2.558675,0.3584792,1.217613,0.4876292,-0.9519288,0.07945164,10.74271,13.52046,-0.07785737,0.06401221,0.04866586,-0.5963776,-3.686641,-0.4473799,0.3926351,1.422153,0.4487376,-0.08247913,0.137568,0.01433062,-1.094053,0.4376082,-0.1520899,0.5449067,1.492915,0.2998781,0.05591611,1.108704,0.3723699,297.4452,288.1658,324.3207,True
6,0.2777778,0.02356965,-0.04539575,0.02789668,4.622546,-4.665104,-2.558453,0.3584105,1.21749,0.4870281,-0.9517871,0.01232906,10.66313,13.22048,-0.06640302,0.06835179,0.01874926,-0.5975596,-3.685835,-0.4477434,0.392426,1.422187,0.4482889,-0.07077795,0.1354438,0.01313668,-1.09416,0.4392557,-0.1523757,0.5448392,1.492867,0.2996156,0.05620543,1.108673,0.369945,297.5353,287.7418,323.9857,True
6,0.2888889,0.01604508,-0.02625904,0.01187442,4.622842,-4.665824,-2.558177,0.3585706,1.217419,0.4865313,-0.9520199,-0.02122503,10.6366,12.9205,-0.06997214,0.08970855,-0.01740005,-0.5995383,-3.684158,-0.4480811,0.3922697,1.422163,0.4479387,-0.05278717,0.1258711,0.001223489,-1.094725,0.4404095,-0.1529624,0.5447513,1.492915,0.2993274,0.05640418,1.108619,0.367997,297.6695,287.3996,323.6884,True
6,0.3,0.006420995,-0.01565523,-0.006245159,4.62332,-4.666397,-2.557947,0.3585294,1.2175,0.4862692,-0.9519416,0.00744213,10.66313,12.64195,-0.0680287,0.09827118,-0.03657732,-0.6011682,-3.682737,-0.4485482,0.3921798,1.422185,0.4475894,-0.0388559,0.10031,0.00746482,-1.094439,0.4406298,-0.1531075,0.5446405,1.492935,0.2989919,0.05643032,1.108614,0.3667428,297.6913,287.0852,323.6651,True
6,0.3111111,-0.005338366,-0.01463816,-0.02541946,4.624277,-4.666921,-2.557344,0.3586321,1.217571,0.4859438,-0.9518968,0.004125859,10.71618,12.3634,-0.04761644,0.06953424,-0.02401173,-0.600661,-3.682878,-0.4484214,0.3922391,1.422218,0.447289,-0.0344911,0.06622289,0.01487387,-1.093902,0.4402643,-0.1526782,0.5445604,1.492928,0.2986825,0.05642489,1.108593,0.3661181,297.7072,287.0712,323.6411,True
6,0.3222222,-0.009623064,-0.01254729,-0.04246324,4.625201,-4.667444,-2.557144,0.3586672,1.217739,0.4857461,-0.9520822,-0.01689786,10.76923,12.17056,-0.01971,0.03868763,-0.009392282,-0.6000544,-3.683517,-0.4486105,0.3922843,1.422337,0.4470234,-0.02906564,0.03639762,0.02227154,-1.093307,0.4396533,-0.1522766,0.5444574,1.49298,0.2983043,0.05642532,1.108597,0.3661186,297.7419,287.2444,323.5838,True
6,0.3333333,-0.01283084,-0.009368476,-0.04885754,4.625829,-4.667864,-2.556929,0.3587036,1.217894,0.4855409,-0.9518628,0.0203289,10.79576,12.042,0.009117005,0.02171143,-0.006469089,-0.5998307,-3.683949,-0.4491874,0.392248,1.422467,0.4467704,-0.02049927,0.02042571,0.02537498,-1.09289,0.4394758,-0.152259,0.5442749,1.493033,0.2979975,0.0563594,1.108582,0.3663658,297.8809,287.6868,323.1644,True
6,0.3444445,-0.02565151,0.006568113,-0.06165744,4.626426,-4.669008,-2.556292,0.3588237,1.21812,0.4854152,-0.9523571,-0.04531715,10.79576,12.042,0.04208324,-0.001611769,-0.02064358,-0.6001077,-3.685852,-0.4492492,0.392323,1.422641,0.4465148,-0.01401195,-0.004072381,0.03276148,-1.09213,0.4385299,-0.1518968,0.544142,1.493081,0.2976406,0.05628622,1.108582,0.3665631,298.0048,287.9921,322.8582,True
6,0.3555556,-0.04058106,0.01502324,-0.07972801,4.626929,-4.669679,-2.555676,0.3586784,1.218333,0.4852712,-0.9525009,-0.01267185,10.76923,12.14913,0.04747181,-0.009069603,-0.01537284,-0.5999463,-3.686441,-0.449332,0.392427,1.422846,0.4462276,-0.009737557,-0.02431045,0.03271766,-1.091597,0.4375788,-0.1514974,0.5440438,1.493103,0.2972696,0.05623165,1.10861,0.3666903,298.1116,288.1451,322.734,True
6,0.3666667,-0.05021044,0.02668547,-0.1010459,4.628095,-4.671307,-2.554916,0.3587524,1.218643,0.4851747,-0.9521073,0.03612414,10.66313,12.32055,0.05083127,0.00155136,0.006989649,-0.5993332,-3.685163,-0.4510668,0.3924847,1.423041,0.4459419,-0.009703094,-0.0243106,0.03591336,-1.091043,0.4373628,-0.1512918,0.5438911,1.49317,0.2968833,0.05620496,1.108659,0.3667313,298.1646,288.1158,322.7783,True
6,0.3777778,-0.07797411,0.04361989,-0.134048,4.629416,-4.673334,-2.553241,0.3588805,1.219213,0.4853067,-0.9522181,-0.01038516,10.58355,12.51339,0.05423372,0.01960776,0.03682698,-0.5982515,-3.68259,-0.453817,0.392652,1.423172,0.445708,0.0009463718,-0.04241509,0.03473255,-1.090534,0.4363163,-0.1511142,0.5437437,1.493245,0.296499,0.05619055,1.10873,0.3667431,298.3042,287.9525,322.914,True
6,0.3888889,-0.09930506,0.05100432,-0.1510618,4.630583,-4.674878,-2.55168,0.3590829,1.21953,0.4852779,-0.9521152,0.009583404,10.55703,12.70623,0.06386545,0.01323584,0.03992877,-0.5977204,-3.682278,-0.4551443,0.3927782,1.42341,0.4454656,0.005149566,-0.06585005,0.0272187,-1.090412,0.4345919,-0.1506308,0.5436593,1.493294,0.2960792,0.05607475,1.1088,0.3667416,298.3925,287.8097,323.0376,True
6,0.4,-0.1323861,0.06367442,-0.1840727,4.632559,-4.67759,-2.549304,0.359136,1.219973,0.4854412,-0.9512886,0.0755661,10.5305,12.87765,0.0853712,-0.03146958,0.0492449,-0.5961342,-3.68511,-0.454522,0.3930019,1.42364,0.445292,0.009359099,-0.1116548,0.01971377,-1.090046,0.4314176,-0.1494337,0.543514,1.493329,0.2955964,0.05594678,1.108923,0.3669012,298.4459,287.3756,323.4238,True
6,0.4111111,-0.1611844,0.06890546,-0.2074732,4.634444,-4.679878,-2.546739,0.3592556,1.220428,0.4854794,-0.9515299,-0.02253471,10.6366,13.0705,0.09272093,-0.03356056,0.03639514,-0.5960133,-3.685852,-0.4551052,0.3933209,1.423877,0.4449928,0.01677492,-0.1233609,0.01536978,-1.089764,0.429716,-0.14901,0.5434315,1.493417,0.2951126,0.05580745,1.109158,0.3674413,298.5012,286.8618,323.9395,True
6,0.4222222,-0.2017128,0.07303751,-0.2425891,4.637192,-4.682929,-2.543244,0.3592211,1.221033,0.485764,-0.9508737,0.06041413,10.76923,13.26334,0.1129396,-0.03243722,0.03409303,-0.5956085,-3.686203,-0.456751,0.393617,1.424125,0.4448586,0.03066957,-0.1244176,0.0194814,-1.089217,0.4281914,-0.1490936,0.543295,1.493466,0.2946672,0.05566132,1.109474,0.3684087,298.5322,286.3956,324.6035,True
6,0.4333333,-0.2422241,0.06970688,-0.2798108,4.640184,-4.685791,-2.539535,0.3590751,1.221647,0.4861166,-0.950887,-0.001600516,10.87533,13.45618,0.1309857,-0.02918169,0.02756174,-0.5953012,-3.68627,-0.4587183,0.3938754,1.424381,0.444639,0.04129536,-0.1244124,0.01724456,-1.08875,0.426738,-0.1491812,0.5430984,1.493523,0.2941983,0.05528023,1.110006,0.3697205,298.527,286.3406,324.8973,True
6,0.4444444,-0.2773935,0.06640799,-0.3042742,4.643333,-4.688692,-2.535445,0.3589602,1.222423,0.4865665,-0.9501972,0.06329661,10.98143,13.6276,0.151036,-0.04718733,-0.0003417246,-0.5956836,-3.68884,-0.4589577,0.3942587,1.424682,0.4445372,0.04646277,-0.1457142,0.001207472,-1.088936,0.4240416,-0.1486358,0.5429546,1.493549,0.293715,0.05471235,1.110824,0.3712966,298.4423,286.3833,325.1631,True
6,0.4555556,-0.3222546,0.06523335,-0.3339956,4.646935,-4.692251,-2.53056,0.3590204,1.223482,0.4868016,-0.9502526,-0.005345466,11.03448,13.84187,0.1745295,-0.07907704,-0.003797136,-0.5949768,-3.692141,-0.458884,0.39464,1.424973,0.444427,0.05480163,-0.1734038,-0.01806176,-1.089392,0.4207267,-0.1480331,0.5428469,1.493603,0.2932334,0.05387701,1.111968,0.3731077,298.2916,286.3513,325.4818,True
6,0.4666667,-0.3478001,0.06727475,-0.353193,4.650271,-4.695432,-2.526006,0.3588811,1.224331,0.4872441,-0.9502361,0.001827585,11.00796,14.07757,0.1853788,-0.1014485,0.01204947,-0.593503,-3.694665,-0.4592414,0.3950404,1.425354,0.4443414,0.05990753,-0.1883136,-0.03942467,-1.090198,0.4175743,-0.1474249,0.5427473,1.493666,0.292748,0.05283312,1.113473,0.375122,298.0514,286.3484,325.7803,True
6,0.4777778,-0.4117644,0.07563768,-0.3818962,4.653796,-4.699256,-2.519521,0.3586897,1.225336,0.4877226,-0.949761,0.04368871,10.95491,14.35612,0.2026821,-0.1131741,0.03851538,-0.59143,-3.696187,-0.4607815,0.3955461,1.425719,0.4442518,0.068298,-0.2128077,-0.05336273,-1.090727,0.4138619,-0.1468036,0.5427068,1.493774,0.2923396,0.05174064,1.115366,0.3772883,297.7532,286.4269,326.0518,True
6,0.4888889,-0.4320067,0.07346343,-0.3882629,4.657057,-4.702525,-2.514169,0.3585108,1.22625,0.4881947,-0.9504412,-0.06229125,10.8488,14.61324,0.2190471,-0.1440836,0.07347161,-0.5885618,-3.698708,-0.4616723,0.3960843,1.42615,0.4442005,0.07249121,-0.2468934,-0.06193283,-1.091081,0.4093847,-0.1457343,0.5426186,1.49392,0.2917571,0.05066489,1.117657,0.3795347,297.392,286.5313,326.3342,True
6,0.5,-0.4938323,0.07864894,-0.4137666,4.660903,-4.706687,-2.506618,0.3581212,1.22751,0.4889324,-0.9489524,0.1369781,10.74271,14.69895,0.225739,-0.1505177,0.106428,-0.5856164,-3.69996,-0.4633613,0.3966447,1.426624,0.4441259,0.07445741,-0.2777849,-0.07900126,-1.091931,0.4044687,-0.1443899,0.542517,1.494016,0.2912128,0.04952482,1.120243,0.3817964,296.9077,286.7228,326.4849,True
6,0.5111111,-0.5439268,0.08492505,-0.4297008,4.664511,-4.710616,-2.499376,0.3579381,1.228747,0.4895101,-0.9503618,-0.1298417,10.68966,14.61324,0.2408261,-0.1643638,0.1222579,-0.5829191,-3.702239,-0.464601,0.3972753,1.427114,0.4440122,0.07331496,-0.2958938,-0.08750977,-1.09257,0.4000242,-0.1431351,0.5423905,1.494104,0.2907157,0.04822563,1.123075,0.3840503,296.4284,286.9119,326.5946,True
6,0.5222223,-0.5876384,0.09441186,-0.4477796,4.668197,1.568099,-2.49155,0.3575881,1.230052,0.4902534,-0.948732,0.1505718,10.66313,14.52753,0.2527362,-0.1782141,0.1402412,-0.5798671,-3.704486,-0.4659749,0.3978633,1.427676,0.4439526,0.07120264,-0.3065482,-0.08642219,-1.092954,0.3956685,-0.1418538,0.5422964,1.494195,0.2901754,0.04685359,1.126086,0.3862737,295.8906,287.1034,326.6594,True
6,0.5333334,-0.6356191,0.1102891,-0.4637342,4.671679,1.563211,-2.483097,0.3572031,1.231446,0.4910288,-0.9493232,-0.05511229,10.66313,14.50611,0.2571569,-0.1931427,0.1540295,-0.5767171,-3.707067,-0.4668119,0.3983793,1.428163,0.4438813,0.06909327,-0.3076029,-0.08427627,-1.093418,0.3919065,-0.1408226,0.5422403,1.49425,0.2895694,0.04531499,1.129278,0.3885289,295.4384,287.1345,326.8167,True
6,0.5444446,-0.6601493,0.1230189,-0.472254,4.674986,1.55833,-2.475059,0.3568203,1.232846,0.4917777,-0.9492944,0.003582464,10.6366,14.52753,0.2615886,-0.2091377,0.1688773,-0.5732289,-3.709823,-0.4675901,0.399024,1.428841,0.4438519,0.0711284,-0.3203846,-0.09388706,-1.094224,0.387167,-0.1395329,0.5421557,1.494323,0.2889678,0.04376673,1.132691,0.3908542,294.9549,287.1761,326.9832,True
6,0.5555557,-0.6974554,0.1346575,-0.483962,4.678548,1.553182,-2.46663,0.356634,1.234251,0.4923737,-0.9491181,0.01635343,10.58355,14.63467,0.2629045,-0.220906,0.1944065,-0.5692912,-3.712175,-0.4685819,0.3998228,1.429522,0.4438581,0.07743362,-0.3469871,-0.1025026,-1.095418,0.381968,-0.1381454,0.5423895,1.494318,0.288307,0.04213502,1.136312,0.3933035,294.4487,287.2535,327.1055,True
6,0.5666668,-0.7315722,0.1559322,-0.4818377,4.68107,1.547787,-2.457671,0.3562961,1.235773,0.4932013,-0.9499815,-0.07870968,10.50398,14.82751,0.2727029,-0.2368966,0.2134681,-0.5652431,-3.714902,-0.4696743,0.4006783,1.430239,0.4437857,0.06983879,-0.3714806,-0.1152306,-1.096758,0.3763647,-0.1358902,0.5424749,1.494448,0.2878444,0.04041206,1.140155,0.3959258,293.9272,287.4066,327.1881,True
6,0.577778,-0.7571647,0.1622693,-0.4892797,4.684237,1.542631,-2.448482,0.3559549,1.237331,0.4939296,-0.9500965,-0.009546277,10.37135,15.12749,0.2921489,-0.2667145,0.2356189,-0.5605145,-3.718643,-0.4703843,0.4014786,1.430869,0.4437516,0.07268873,-0.3810323,-0.1461882,-1.099277,0.3714139,-0.1343621,0.5425864,1.494766,0.2869396,0.03871916,1.144192,0.3987131,293.3236,287.7018,327.223,True
6,0.5888891,-0.8051492,0.1802762,-0.5052376,4.687207,1.536741,-2.438174,0.3555346,1.238938,0.4947762,-0.9499458,0.0140299,10.18567,15.53461,0.2944917,-0.2816512,0.2558078,-0.5560382,-3.721563,-0.4711225,0.4022259,1.431522,0.4436407,0.07575586,-0.397045,-0.1621469,-1.100096,0.3653212,-0.1329564,0.5418303,1.494552,0.2867239,0.0371401,1.148366,0.4016201,292.6934,288.082,327.2225,True
6,0.6000003,-0.8499192,0.1919122,-0.516929,4.690216,1.53083,-2.427373,0.3550819,1.240552,0.4956582,-0.9500929,-0.01325374,10.05305,15.98457,0.3075787,-0.2859399,0.2897786,-0.5506288,-3.723331,-0.4734496,0.4030545,1.432196,0.4435644,0.07221299,-0.4119599,-0.1951352,-1.10269,0.3591749,-0.130843,0.5418859,1.494557,0.2861443,0.03555619,1.152662,0.4046211,292.1121,288.5332,327.1559,True
6,0.6111114,-0.8957441,0.2056816,-0.5233117,4.6932,1.524732,-2.416487,0.3547348,1.242,0.4962106,-0.9493749,0.0660084,9.94695,16.30598,0.326925,-0.3050894,0.3034182,-0.54563,-3.726782,-0.4747777,0.4039807,1.432937,0.4434803,0.07938561,-0.4204854,-0.2207548,-1.104886,0.3531732,-0.1290176,0.5421469,1.494518,0.2858229,0.03392825,1.157066,0.407665,291.5206,288.9115,327.1691,True
6,0.6222225,-0.9288045,0.2290657,-0.5254509,4.695386,1.518335,-2.40528,0.3542928,1.243664,0.4970963,-0.9492497,0.01118802,9.920423,16.49882,0.3292676,-0.3264223,0.3214705,-0.5399895,-3.730566,-0.4752488,0.4048001,1.433679,0.4434242,0.09087968,-0.4119551,-0.2411202,-1.107631,0.3479728,-0.1280733,0.542221,1.494518,0.2852192,0.03216334,1.161607,0.4107695,290.9512,289.2207,327.2057,True
6,0.6333337,-0.946936,0.2439316,-0.5254499,4.697462,1.512164,-2.394478,0.3538877,1.245174,0.4977586,-0.9496225,-0.03382951,9.973473,16.5631,0.3240798,-0.3349699,0.3342823,-0.5346419,-3.733639,-0.4760408,0.4056199,1.43454,0.4432442,0.08962226,-0.4141166,-0.2581358,-1.110142,0.3418947,-0.1261473,0.5422127,1.494558,0.2846947,0.03031429,1.166333,0.4139401,290.3412,289.5974,327.2091,True
6,0.6444448,-0.9586729,0.2673797,-0.5148323,4.698812,1.505636,-2.383405,0.3534796,1.246932,0.4986289,-0.9497802,-0.0137814,10.02653,16.52025,0.3145586,-0.3392682,0.3407483,-0.529258,-3.73691,-0.4764443,0.4064943,1.435319,0.4431732,0.07679662,-0.437561,-0.2633249,-1.112544,0.3351382,-0.1235725,0.542263,1.494565,0.2840927,0.02849995,1.171245,0.4171285,289.6768,290.1268,327.1001,True
6,0.655556,-0.965104,0.2918786,-0.5084853,4.700017,1.498809,-2.372434,0.3532264,1.24877,0.4992211,-0.9505978,-0.07436074,10.1061,16.41311,0.3082489,-0.3563377,0.3450329,-0.5235913,-3.741352,-0.4758368,0.4074141,1.436077,0.4430568,0.05572912,-0.4684881,-0.2439257,-1.113811,0.3275085,-0.1201842,0.5424618,1.494468,0.2832389,0.02672558,1.176357,0.4203343,289.0165,290.7894,326.8345,True
6,0.6666671,-0.9725872,0.3014353,-0.5191491,4.701857,1.491812,-2.36132,0.352864,1.250541,0.5000713,-0.9507427,-0.0123785,10.13263,16.37026,0.3146906,-0.3648485,0.3481584,-0.5180147,-3.745501,-0.4759862,0.4083261,1.436815,0.4429317,0.05503535,-0.4802203,-0.2098434,-1.114511,0.3207928,-0.117827,0.5426748,1.494479,0.2823408,0.02505781,1.181626,0.4235114,288.3159,291.602,326.4253,True
6,0.6777782,-0.98541,0.3184244,-0.5340861,4.703621,1.484338,-2.35001,0.3525778,1.252232,0.500586,-0.9511304,-0.03518793,10.15915,16.41311,0.3351701,-0.3840126,0.3703238,-0.5114515,-3.749801,-0.4766502,0.4092252,1.437615,0.4427369,0.06262255,-0.4684976,-0.1971407,-1.115712,0.3151586,-0.116296,0.5427879,1.494495,0.2816551,0.02349983,1.187041,0.426662,287.6595,292.5005,325.9092,True
6,0.6888894,-0.9960923,0.3364954,-0.5437037,4.705081,1.476707,-2.338659,0.3523378,1.253962,0.5011847,-0.9512779,-0.01303254,10.1061,16.47739,0.3310795,-0.4053501,0.3831021,-0.504905,-3.754942,-0.475811,0.4099916,1.438463,0.442559,0.06584141,-0.4599857,-0.1950485,-1.117375,0.3092765,-0.1146259,0.5429655,1.494449,0.2809839,0.0220733,1.192578,0.4297759,286.9756,293.4058,325.3835,True
6,0.7000005,-1.009976,0.351367,-0.5543699,4.706438,1.468881,-2.326933,0.3520678,1.255748,0.5020409,-0.9513184,-0.003510404,10.07958,16.52025,0.3025369,-0.3916322,0.4132015,-0.4980404,-3.756884,-0.4765114,0.4107465,1.439262,0.4423919,0.04745668,-0.4599963,-0.2204188,-1.120037,0.303152,-0.1119079,0.5430813,1.494414,0.2803605,0.02068216,1.198166,0.4329021,286.2189,294.2734,324.8573,True
6,0.7111117,-1.005747,0.3609975,-0.5501513,4.707465,1.461216,-2.315711,0.3520693,1.257724,0.5028877,-0.9514968,-0.01614055,10.07958,16.47739,0.2812978,-0.3672219,0.4283355,-0.4920094,-3.757606,-0.4782135,0.4118589,1.439921,0.4422107,0.03560805,-0.4568099,-0.232022,-1.122589,0.297206,-0.1092953,0.5432346,1.494306,0.2797565,0.01933832,1.203742,0.4360615,285.4523,295.2803,324.2208,True
6,0.7222228,-0.9545904,0.3504312,-0.5448649,4.708794,1.454528,-2.306871,0.351705,1.259599,0.5037189,-0.9513493,0.01379272,10.1061,16.39169,0.2716445,-0.3182578,0.4359651,-0.4867385,-3.755838,-0.4823374,0.4127219,1.440727,0.4420962,0.02391827,-0.4461644,-0.2286995,-1.124522,0.2918938,-0.1068644,0.5433756,1.494267,0.2791941,0.01805409,1.209275,0.4392909,284.7369,296.3392,323.511,True
6,0.7333339,-0.9236783,0.3313121,-0.5459354,4.710598,1.447838,-2.297668,0.351462,1.261414,0.5042851,-0.9520236,-0.06161837,10.2122,16.28455,0.2822332,-0.3107569,0.4305639,-0.4812332,-3.757434,-0.484527,0.4135911,1.44157,0.4419777,0.02714771,-0.4301817,-0.2244717,-1.12635,0.2869976,-0.1051829,0.5435178,1.494259,0.2786186,0.01685282,1.214785,0.4426534,284.1153,297.3357,322.8396,True
6,0.7444451,-0.9226061,0.3345288,-0.5363557,4.711467,1.441124,-2.287537,0.3513187,1.263291,0.5050654,-0.954559,-0.2312152,10.34483,16.15599,0.2867289,-0.3267655,0.4528681,-0.4742248,-3.759577,-0.4859659,0.414497,1.442382,0.4419072,0.03032041,-0.4301797,-0.2266366,-1.128414,0.281468,-0.1032643,0.5436732,1.494237,0.2780635,0.01583962,1.220311,0.4461487,283.5291,298.4192,322.1567,True
6,0.7555562,-0.9535177,0.3665048,-0.5076231,4.710528,1.434138,-2.275862,0.351275,1.264986,0.5056002,-0.95438,0.01819362,10.45093,15.98457,0.274367,-0.3790583,0.4859055,-0.465683,-3.764436,-0.4842396,0.4154615,1.44309,0.4418204,0.01845777,-0.4515252,-0.2414015,-1.130679,0.2744393,-0.1001096,0.5438419,1.494049,0.2775671,0.01494018,1.225726,0.4496753,282.8087,299.9197,321.187,True
6,0.7666674,-0.9897448,0.3824655,-0.4948434,4.710238,1.42703,-2.263808,0.3512188,1.266377,0.5057757,-0.9532679,0.1011982,10.55703,15.7703,0.2732493,-0.3971526,0.474163,-0.4591258,-3.769075,-0.4830175,0.4165125,1.443853,0.4416971,0.01305333,-0.457939,-0.2487907,-1.133011,0.2680645,-0.09730631,0.5440813,1.49402,0.2770486,0.01416331,1.230885,0.4530971,282.1055,301.5902,320.0727,True
6,0.7777785,-1.004649,0.3792559,-0.4905584,4.710405,1.420362,-2.252277,0.3509701,1.268045,0.5065627,-0.9515879,0.1527335,10.66313,15.55603,0.275232,-0.4035036,0.4549582,-0.4531214,-3.773857,-0.4818346,0.4174047,1.444581,0.4416161,0.006708682,-0.4408982,-0.2433954,-1.135106,0.2630897,-0.09507325,0.5442496,1.493919,0.2765701,0.01345141,1.235805,0.4563735,281.5905,303.2635,318.873,True
6,0.7888896,-1.001458,0.376059,-0.4926906,4.710871,1.413386,-2.241216,0.3509098,1.269686,0.5069654,-0.9511656,0.03756516,10.71618,15.42747,0.2688655,-0.3992704,0.4592853,-0.4464577,-3.776895,-0.481943,0.4183957,1.445353,0.4415171,0.00462392,-0.4174695,-0.2380326,-1.137031,0.2585778,-0.09320105,0.5444556,1.493911,0.2760406,0.01273968,1.240629,0.459464,281.2317,305.099,317.5308,True
6,0.8000008,-0.9875909,0.3569622,-0.4713206,4.710559,1.407656,-2.23028,0.3508202,1.27158,0.5082791,-0.9518468,-0.06239915,10.74271,15.32033,0.274315,-0.3939591,0.4752282,-0.4393172,-3.77931,-0.4829707,0.4193412,1.446087,0.4414833,0.004616737,-0.3876411,-0.2369672,-1.139267,0.2546762,-0.09162579,0.5446738,1.493804,0.2756124,0.01198724,1.245484,0.4623198,280.8481,306.6633,316.4095,True
6,0.8111119,-0.9854468,0.3559585,-0.464906,4.709857,1.401049,-2.219293,0.3507047,1.274347,0.5115266,-0.9525424,-0.06297851,10.79576,15.23462,0.2914211,-0.3694608,0.4911046,-0.4322364,-3.779831,-0.4863145,0.4205458,1.446811,0.4414284,0.005587846,-0.3876427,-0.2454974,-1.141885,0.2494287,-0.08950964,0.5450788,1.493959,0.2750769,0.01119047,1.250489,0.4650116,280.4034,307.911,315.4466,True
6,0.8222231,-0.9619724,0.3443084,-0.4478668,4.709721,1.395449,-2.209318,0.3505382,1.276262,0.5123913,-0.9528114,-0.02402415,10.8488,15.12749,0.295664,-0.3790304,0.4857201,-0.4254469,-3.783741,-0.4862599,0.4216381,1.447566,0.4414017,0.01075593,-0.3919007,-0.2604681,-1.14491,0.2441008,-0.08760362,0.5453004,1.493902,0.274631,0.01053109,1.255664,0.4676082,279.9052,309.2378,314.2827,True
6,0.8333342,-0.9374045,0.3103102,-0.4275834,4.710138,1.390629,-2.199572,0.3504091,1.278191,0.5132565,-0.952813,9.073082E-05,10.98143,14.95607,0.3000284,-0.4237523,0.4856179,-0.4176902,-3.79077,-0.4832079,0.422645,1.448221,0.4410739,0.0150477,-0.4100018,-0.2583827,-1.147243,0.2382431,-0.08544566,0.5455732,1.493909,0.2743986,0.009940631,1.261102,0.4703704,279.4793,310.0656,313.2374,True
6,0.8444453,-0.9288971,0.2996961,-0.421138,4.709833,1.385109,-2.189048,0.3505711,1.280133,0.5141428,-0.9538127,-0.0914793,11.16711,14.82751,0.2959689,-0.4610729,0.4972991,-0.4094791,-3.798139,-0.4796686,0.4236246,1.449005,0.4410317,0.01191938,-0.425983,-0.2530222,-1.149462,0.2321938,-0.08299502,0.5458003,1.493867,0.2739828,0.00932022,1.266952,0.4737506,279.0581,311.1278,311.9447,True
6,0.8555565,-0.9426919,0.2773374,-0.4040322,4.710138,1.380531,-2.178083,0.3503987,1.281985,0.5149963,-0.9540796,-0.02365196,11.32626,14.69895,0.2930241,-0.4984065,0.5153716,-0.4005384,-3.806232,-0.4754187,0.4245766,1.449755,0.4409666,0.005585492,-0.425982,-0.2497636,-1.151753,0.2268085,-0.08086156,0.5460262,1.493745,0.2736616,0.008955482,1.273005,0.4774933,278.416,314.8673,308.7304,True
6,0.8666676,-0.955432,0.262403,-0.3997413,4.710685,1.375493,-2.167089,0.3502574,1.283878,0.5156786,-0.9532204,0.07854101,11.51194,14.59181,0.2889522,-0.4888821,0.5420681,-0.3919086,-3.809522,-0.4753567,0.4255472,1.450433,0.4408891,-0.005227059,-0.4089443,-0.2634954,-1.154877,0.2221542,-0.07857204,0.5462176,1.493636,0.2733102,0.008924445,1.279013,0.4812149,277.7271,320.2776,304.1351,True
6,0.8777788,-0.9660369,0.2400395,-0.3879669,4.711259,1.371157,-2.155949,0.3500246,1.285716,0.5166099,-0.9526473,0.0517416,11.64456,14.52753,0.2812217,-0.4196383,0.5316079,-0.3858148,-3.808459,-0.4792175,0.4263721,1.451054,0.4408181,-0.01615262,-0.3887107,-0.288954,-1.158731,0.2177791,-0.07642367,0.5464672,1.493451,0.2730176,0.009103964,1.284855,0.4846873,277.1667,326.0945,299.0356,True
6,0.8888899,-0.9499873,0.1964071,-0.3783328,-1.570381,1.367213,-2.145809,0.3498737,1.287707,0.5172553,-0.9525903,0.004805368,11.67109,14.54896,0.2671353,-0.3653258,0.5222501,-0.3798845,-3.806891,-0.4830418,0.4272977,1.451579,0.4406784,-0.01074171,-0.3674012,-0.2804886,-1.161279,0.2137843,-0.0749552,0.5466626,1.493333,0.2728186,0.009177677,1.290521,0.4877797,276.7037,331.5826,294.1066,True
6,0.900001,-0.9414139,0.1676694,-0.3718957,-1.569031,1.363447,-2.13562,0.3496791,1.289634,0.5181367,-0.9524998,0.008331874,11.61804,14.65609,0.2540912,-0.3024922,0.5107521,-0.3746636,-3.803288,-0.4887702,0.4282424,1.452105,0.4405987,0.001034945,-0.3524794,-0.274223,-1.163846,0.2098504,-0.07380738,0.5468463,1.493269,0.2725594,0.009081376,1.29602,0.4904451,276.293,336.4706,289.5837,True
6,0.9111122,-0.9371156,0.1517238,-0.3633549,-1.568051,1.3595,-2.125425,0.349656,1.291515,0.5188475,-0.9535214,-0.09345635,11.45889,14.82751,0.2337488,-0.3493773,0.486342,-0.3680243,-3.810777,-0.4835733,0.4291645,1.452757,0.4405508,0.02234787,-0.3354139,-0.2723176,-1.166476,0.2062644,-0.07336982,0.5469934,1.493245,0.2723799,0.008847837,1.301383,0.4927037,275.9311,340.9995,285.2715,True
6,0.9222233,-0.9573616,0.1581063,-0.3537467,-1.567995,1.355274,-2.113969,0.3495133,1.293515,0.5196311,-0.9535603,-0.002741012,11.27321,15.08464,0.2371243,-0.4164795,0.487262,-0.3599683,-3.820976,-0.4767777,0.4300298,1.453386,0.4404464,0.038389,-0.325816,-0.266098,-1.168977,0.2024825,-0.07288193,0.5471554,1.493176,0.2720647,0.008634234,1.306592,0.4945476,275.5576,345.5758,280.8321,True
6,0.9333345,-0.9658895,0.1645253,-0.3452817,-1.567745,1.350687,-2.102664,0.3497126,1.295794,0.5202265,-0.9534873,0.006569033,11.08753,15.36319,0.2403668,-0.4250053,0.4904154,-0.3526718,-3.82636,-0.4745255,0.4309928,1.454095,0.440412,0.04372403,-0.3300696,-0.266154,-1.171661,0.1980783,-0.07183318,0.5473449,1.493138,0.2718382,0.008475532,1.311649,0.4960804,275.2169,350.42,276.0032,True
6,0.9444456,-0.9626868,0.1602844,-0.3420798,-1.567344,1.346542,-2.092005,0.3495532,1.297858,0.520993,-0.9521994,0.1176524,10.95491,15.64174,0.2501113,-0.4186267,0.5105839,-0.345012,-3.828906,-0.475297,0.431853,1.454873,0.4402809,0.03205743,-0.3556443,-0.2628326,-1.174149,0.1925519,-0.06964539,0.5474751,1.493027,0.2715099,0.008405113,1.316595,0.4974392,274.9559,355.3302,271.043,True
6,0.9555568,-0.9498752,0.1528504,-0.341029,-1.566604,1.342459,-2.082003,0.3491665,1.299716,0.5216784,-0.9522628,-0.006715246,10.90185,15.79173,0.2342947,-0.4176475,0.5309638,-0.3369538,-3.832428,-0.4739817,0.4327938,1.455749,0.4401197,0.0002582073,-0.3737716,-0.2486385,-1.176067,0.1872065,-0.06635585,0.5476308,1.492912,0.2712376,0.008324899,1.321618,0.4988112,274.794,359.1475,267.1694,True
6,0.9666679,-0.9338656,0.1486383,-0.3293228,-1.566354,1.338842,-2.072219,0.3489169,1.30172,0.5223939,-0.9530016,-0.06737194,10.92838,15.7703,0.2281784,-0.4134619,0.5651193,-0.3282266,-3.833982,-0.4747676,0.4337722,1.456453,0.4399099,-0.01781934,-0.3695214,-0.2452458,-1.178408,0.1827774,-0.06385568,0.5477839,1.492768,0.2708874,0.008364046,1.326875,0.5003034,274.6232,3.186413,263.1415,True
6,0.977779,-0.9242609,0.1422731,-0.3229301,-1.565969,1.335263,-2.062306,0.3486711,1.303988,0.5230925,-0.9537408,-0.06702035,10.95491,15.62031,0.2136885,-0.4327567,0.6088865,-0.3182712,-3.837513,-0.4732144,0.4347846,1.457094,0.4396083,-0.01356062,-0.3588656,-0.245294,-1.180946,0.1787351,-0.06239999,0.5479578,1.492688,0.2706501,0.008401724,1.3324,0.5020044,274.4715,10.62203,255.8034,True
6,0.9888902,-0.9274558,0.1305857,-0.3282593,-1.56525,1.330874,-2.051618,0.3486488,1.306262,0.5238552,-0.9539598,-0.0195668,10.95491,15.40604,0.2226921,-0.4381584,0.6642026,-0.3077485,-3.838192,-0.4752965,0.4357859,1.457749,0.4393594,0.01626417,-0.3577899,-0.2466834,-1.183524,0.1741506,-0.06204766,0.5481361,1.492597,0.2703526,0.008438081,1.338054,0.5038988,274.4816,20.90182,245.7121,True
6,1.000001,-0.9615362,0.1123971,-0.3430985,-1.563811,1.32679,-2.03982,0.3482089,1.308587,0.5246606,-0.953743,0.019889,10.95491,15.14892,0.2317833,-0.457423,0.7248137,-0.2960365,-3.83948,-0.4769447,0.4366098,1.458437,0.4391496,0.04705638,-0.3630961,-0.2566026,-1.186424,0.169432,-0.06191264,0.5482407,1.492507,0.2700968,0.008552947,1.343702,0.5059115,274.6834,30.24066,236.6224,True
6,1.011112,-1.027552,0.0910483,-0.3514823,-1.562927,1.32266,-2.026523,0.3476358,1.310794,0.5256751,-0.9528769,0.07890064,10.90185,14.84894,0.2406569,-0.4936833,0.7534236,-0.284947,-3.84571,-0.4739732,0.4373945,1.459067,0.4389677,0.05559948,-0.3598897,-0.2556396,-1.189037,0.1651242,-0.06128227,0.5484107,1.492309,0.2698488,0.008742422,1.349305,0.5079756,274.9216,37.55922,229.5764,True
6,1.022224,-1.074412,0.08673175,-0.3450271,-1.562122,1.319113,-2.013038,0.3471333,1.313059,0.5265415,-0.9516987,0.107077,10.74271,14.52753,0.2427852,-0.5022064,0.7501826,-0.2754129,-3.851582,-0.4710615,0.4381719,1.459697,0.4388323,0.04705557,-0.3439159,-0.256613,-1.191688,0.1615014,-0.06015468,0.548533,1.492162,0.2695839,0.008972682,1.354897,0.510098,275.1272,43.90506,223.4834,True
6,1.033335,-1.124469,0.0888201,-0.3257856,-1.561966,1.316137,-1.998841,0.3466194,1.31532,0.5274515,-0.9502505,0.1316539,10.58355,14.24898,0.2295702,-0.4627516,0.7120195,-0.2680173,-3.852725,-0.4719952,0.438714,1.460389,0.4386921,0.02030775,-0.3194232,-0.2659312,-1.19496,0.1585983,-0.05831098,0.5486044,1.491979,0.2693529,0.008996352,1.360624,0.512309,275.3563,49.93358,217.6988,True
6,1.044446,-1.138273,0.08674845,-0.2991495,-1.562025,1.313422,-1.986224,0.3461944,1.317627,0.5282691,-0.9502079,0.003110269,10.45093,14.14185,0.205766,-0.4403749,0.6760433,-0.2607922,-3.855801,-0.470412,0.4392655,1.461115,0.4385846,-0.005375057,-0.3066546,-0.2774028,-1.198503,0.1551354,-0.05632612,0.5487627,1.491826,0.2691107,0.00884101,1.366599,0.514595,275.6624,55.04204,212.8301,True
6,1.055557,-1.118003,0.07935087,-0.2831794,-1.561598,1.310829,-1.97456,0.3456385,1.320068,0.5290732,-0.9498601,0.0321514,10.37135,14.07757,0.1723906,-0.4297488,0.6401281,-0.2536927,-3.861159,-0.4657474,0.4398815,1.4618,0.4384015,-0.009681731,-0.3066573,-0.2816181,-1.20157,0.1513376,-0.05469147,0.5488365,1.491695,0.2689171,0.008747213,1.372861,0.5168219,276.0644,59.44784,208.7143,True
6,1.066668,-1.099878,0.06980203,-0.2789311,-1.560803,1.307838,-1.963035,0.3453757,1.322455,0.5298407,-0.9517174,-0.1698669,10.45093,13.97043,0.1541787,-0.3978331,0.6382136,-0.2459216,-3.860188,-0.4677057,0.4404621,1.462532,0.438221,-0.009732515,-0.2992001,-0.2858796,-1.204686,0.147878,-0.05339611,0.5489215,1.49159,0.2687142,0.008857883,1.379449,0.5188577,276.5652,63.27729,205.1797,True
6,1.077779,-1.074295,0.0581186,-0.2800038,-1.559828,1.304865,-1.952107,0.3449301,1.324957,0.5305059,-0.9530612,-0.1212114,10.61008,13.82044,0.1513215,-0.3958071,0.6797822,-0.2360631,-3.859532,-0.4698743,0.4411173,1.463336,0.437942,-0.009624898,-0.2842854,-0.2752334,-1.207271,0.1449443,-0.05229383,0.5490243,1.491525,0.2685642,0.009276436,1.386283,0.5205911,277.2198,67.36018,201.3572,True
6,1.08889,-1.066825,0.05598222,-0.2746733,-1.559179,1.302117,-1.940545,0.3444308,1.327188,0.5308549,-0.9533606,-0.02646026,10.82228,13.71331,0.1517399,-0.427842,0.7202095,-0.2250573,-3.863978,-0.4671975,0.4418066,1.464095,0.4376378,-0.01481041,-0.2789612,-0.262403,-1.209693,0.1416569,-0.05086744,0.5491778,1.49146,0.2683835,0.009923865,1.393205,0.5219976,278.0058,71.68085,197.2071,True
6,1.100002,-1.052971,0.05280839,-0.2736181,-1.558524,1.299157,-1.929381,0.3439425,1.329527,0.5315402,-0.9539267,-0.05170036,11.03448,13.60617,0.135233,-0.4524923,0.7757016,-0.2131232,-3.866554,-0.4656276,0.4423373,1.464884,0.4373267,-0.02968946,-0.2789716,-0.2590474,-1.21227,0.1382282,-0.04882107,0.5492579,1.491289,0.2682111,0.01075116,1.400029,0.5231309,278.8362,75.6563,193.2997,True
6,1.111113,-1.034845,0.04643373,-0.2768293,-1.55769,1.2961,-1.918625,0.3435317,1.33174,0.5321984,-0.9532796,0.05954136,11.22016,13.52046,0.1238506,-0.4621884,0.8130595,-0.2017515,-3.868085,-0.4650595,0.4428782,1.465582,0.4370234,-0.05209017,-0.2832488,-0.2630538,-1.215011,0.1345972,-0.04633501,0.5494517,1.491149,0.2680941,0.0115367,1.406654,0.5240863,279.6927,78.93604,190.0789,True
6,1.122224,-1.024186,0.03471284,-0.2864071,-1.556486,1.292779,-1.907451,0.342994,1.334069,0.5329614,-0.9535379,-0.02423261,11.27321,13.41333,0.107917,-0.4515933,0.8217384,-0.1911143,-3.867866,-0.46594,0.4432941,1.466316,0.436759,-0.07033974,-0.2651502,-0.274562,-1.218199,0.1319291,-0.04402765,0.5495777,1.490933,0.2679892,0.01217502,1.412985,0.5249004,280.4887,81.38322,187.6884,True
6,1.133335,-0.9932573,0.004905298,-0.2927739,-1.554392,1.289853,-1.897232,0.3424069,1.336383,0.5336449,-0.9539171,-0.03445658,11.27321,13.28477,0.107124,-0.4079967,0.8697731,-0.1795993,-3.853933,-0.4806393,0.4435261,1.466976,0.436568,-0.07999331,-0.243853,-0.2797504,-1.22102,0.1297078,-0.04208807,0.5497168,1.490712,0.2678924,0.01263939,1.418994,0.525678,281.1552,83.44984,185.5973,True
6,1.144446,-0.9772535,-0.01638868,-0.2970168,-1.552472,1.286833,-1.886584,0.3420261,1.338727,0.5343971,-0.9534564,0.04231619,11.19363,13.22048,0.1026106,-0.3770765,0.8496283,-0.1702772,-3.846045,-0.4893859,0.443711,1.467624,0.4363859,-0.09075394,-0.2150996,-0.2881564,-1.224477,0.1279813,-0.040165,0.5497506,1.490545,0.2678487,0.01299137,1.424642,0.5265179,281.7184,85.29971,183.6995,True
6,1.155557,-0.9569849,-0.03980571,-0.3023224,-1.550159,1.283861,-1.876538,0.3414689,1.340847,0.5352643,-0.954257,-0.07365654,11.11406,13.28477,0.05921781,-0.3386807,0.7701749,-0.1641839,-3.843638,-0.490848,0.4436953,1.468255,0.4362721,-0.09944463,-0.1969909,-0.3040118,-1.227918,0.1262699,-0.03833833,0.5498019,1.490445,0.2679098,0.01318305,1.430027,0.5275251,282.1677,86.94979,182.0537,True
6,1.166668,-0.9441887,-0.04405352,-0.2895205,-1.548731,1.281647,-1.866219,0.3410851,1.342914,0.5359719,-0.9538159,0.0408799,11.06101,13.47761,0.04381585,-0.2694071,0.7342193,-0.157428,-3.826344,-0.5078696,0.4439536,1.468815,0.436121,-0.1027883,-0.1820742,-0.3167622,-1.231799,0.1244582,-0.03651593,0.5498005,1.490159,0.2679474,0.01334418,1.435153,0.5286717,282.5716,88.47735,180.6246,True
6,1.17778,-0.9345952,-0.03335184,-0.2714422,-1.547996,1.279278,-1.856044,0.3405995,1.34497,0.5367644,-0.9542346,-0.03874651,11.08753,13.67045,0.05004892,-0.2608382,0.7182021,-0.1495679,-3.816852,-0.517984,0.4440919,1.469357,0.4360688,-0.1090913,-0.1618381,-0.3071065,-1.234893,0.1231056,-0.03462669,0.5497651,1.490025,0.268079,0.01356442,1.440079,0.5299351,282.9346,89.81849,179.4185,True
6,1.188891,-0.9292445,-0.03227825,-0.2565594,-1.546805,1.277067,-1.845716,0.3403247,1.347209,0.537406,-0.9538756,0.03305714,11.11406,13.79901,0.05746159,-0.2778693,0.7095787,-0.1408317,-3.814386,-0.5213143,0.4444574,1.469845,0.4358094,-0.1067867,-0.147983,-0.2890834,-1.238256,0.1214959,-0.0329678,0.5494335,1.490003,0.2682097,0.01386691,1.444847,0.5312845,283.3458,90.99615,178.41,True
6,1.200002,-0.9089793,-0.04288682,-0.2491057,-1.545319,1.274865,-1.836169,0.3397673,1.349377,0.5382493,-0.9538607,0.0009645916,11.16711,13.90615,0.06382936,-0.2650712,0.7106138,-0.1326158,-3.800855,-0.5356426,0.4447171,1.470354,0.4357569,-0.09260169,-0.1234733,-0.2562079,-1.23995,0.1209053,-0.03220854,0.5493358,1.489882,0.2683721,0.01428574,1.449525,0.5326336,283.747,91.70855,177.8983,True
6,1.211113,-0.8822933,-0.07485652,-0.2490774,-1.542342,1.272855,-1.827154,0.3391989,1.351636,0.5390096,-0.9536098,0.02294705,11.22016,13.97043,0.08105204,-0.2980874,0.7242526,-0.1228857,-3.796786,-0.5410406,0.4449683,1.470912,0.4355929,-0.07425138,-0.1085605,-0.2330141,-1.242408,0.1196904,-0.03162957,0.5492133,1.489799,0.2685435,0.01475437,1.454244,0.5339395,284.1313,92.24335,177.5679,True
6,1.222224,-0.8737117,-0.1217896,-0.2671291,-1.538285,1.270123,-1.817493,0.338626,1.354028,0.539922,-0.9542596,-0.0597063,11.24668,14.03471,0.07788575,-0.3587704,0.7081848,-0.1134288,-3.809435,-0.5293627,0.4449484,1.47141,0.4355781,-0.0604509,-0.1181378,-0.2385129,-1.245539,0.117761,-0.03078827,0.5491966,1.489608,0.2686956,0.01528671,1.459096,0.5351272,284.5154,92.95702,177.0548,True
6,1.233335,-0.8747631,-0.1388566,-0.2777478,-1.535343,1.267275,-1.807557,0.3379922,1.356306,0.5408392,-0.9547177,-0.04147727,11.24668,14.09899,0.09190202,-0.3747423,0.72295,-0.1036705,-3.807203,-0.5330298,0.4449736,1.472021,0.4355848,-0.05946967,-0.1128068,-0.2460051,-1.248879,0.1164863,-0.02971528,0.5492617,1.489504,0.2688046,0.01579364,1.46411,0.5361841,285.0331,93.95216,176.2208,True
6,1.244446,-0.8651471,-0.1485774,-0.2798993,-1.531631,1.265022,-1.798021,0.3372631,1.358486,0.5413287,-0.9539688,0.06861284,11.19363,14.09899,0.09968412,-0.3897103,0.760139,-0.09298267,-3.798011,-0.5433978,0.4449135,1.472641,0.4355145,-0.05004454,-0.09362293,-0.2599574,-1.252323,0.1160289,-0.02931954,0.5493201,1.489267,0.2689192,0.01626387,1.469174,0.5370609,285.646,95.24749,175.0547,True
6,1.255558,-0.8608785,-0.153899,-0.2809591,-1.52913,1.262418,-1.7886,0.3365189,1.360687,0.5422249,-0.9534883,0.04323506,11.08753,14.03471,0.07216561,-0.3887565,0.7816815,-0.08285041,-3.784459,-0.556846,0.4448148,1.473212,0.4354415,-0.05135223,-0.07870179,-0.2823257,-1.256321,0.1156024,-0.02865961,0.5493375,1.489171,0.2690649,0.01663531,1.47425,0.5378121,286.2424,96.72034,173.6137,True
6,1.266669,-0.866194,-0.1549513,-0.2820308,-1.527042,1.259564,-1.778809,0.3360977,1.363154,0.5437984,-0.9537488,-0.02418835,10.92838,13.90615,0.05308795,-0.376057,0.7999742,-0.07304465,-3.761244,-0.5797688,0.4448462,1.473772,0.4354851,-0.05679592,-0.08403718,-0.2950575,-1.260011,0.1141655,-0.02751658,0.5494391,1.489007,0.2692554,0.01694974,1.479306,0.5385046,286.821,97.87868,172.4794,True
6,1.27778,-0.8618992,-0.1751828,-0.2809305,-1.523841,1.257062,-1.769228,0.3353584,1.365465,0.5447669,-0.9538287,-0.007115991,10.79576,13.86329,0.0370695,-0.3100705,0.8151505,-0.06449857,-3.696282,-0.6444232,0.4447955,1.474452,0.4355114,-0.09945428,-0.1213591,-0.3020612,-1.263466,0.1112116,-0.0241333,0.5493791,1.488939,0.2696149,0.01725537,1.484256,0.5390803,287.4028,98.8693,171.571,True
6,1.288891,-0.8533501,-0.1816011,-0.2767043,-1.520655,1.254541,-1.759936,0.3347467,1.367514,0.5456097,-0.9533973,0.03943187,10.68966,13.84187,0.03899729,-0.282355,0.8024006,-0.05653678,-3.63989,-0.7011153,0.4447781,1.47528,0.4356222,-0.12178,-0.1075269,-0.2964936,-1.266514,0.1103783,-0.02173859,0.5492776,1.488827,0.2699509,0.01751704,1.489128,0.5396602,287.9092,99.84348,170.4922,True
6,1.300002,-0.8213763,-0.1815213,-0.2628903,-1.51823,1.252552,-1.751916,0.3341113,1.369812,0.5464034,-0.953483,-0.008215708,10.66313,13.86329,0.04286611,-0.3173894,0.7447708,-0.04880243,-3.632432,-0.7092464,0.444706,1.476071,0.4356425,-0.131187,-0.04362158,-0.2750637,-1.268672,0.1121279,-0.02056387,0.5491551,1.488805,0.2702603,0.01779096,1.494002,0.5404534,288.3377,100.8015,169.356,True
6,1.311113,-0.7851446,-0.1804246,-0.2597882,-1.515359,1.24992,-1.744323,0.3335469,1.372025,0.5469356,-0.953728,-0.02238726,10.66313,13.92758,0.03842354,-0.340793,0.7170645,-0.04048431,-3.608453,-0.7335368,0.4445359,1.476738,0.4356012,-0.1223911,0.0352136,-0.244255,-1.270329,0.1153323,-0.02045201,0.5490016,1.488769,0.2705619,0.0181376,1.498832,0.5414211,288.8464,101.6677,168.5624,True
6,1.322224,-0.7542529,-0.1825853,-0.2683821,-1.512058,1.246851,-1.736449,0.3329923,1.374156,0.5474682,-0.9548865,-0.1058116,10.66313,13.97043,0.02014256,-0.3195223,0.7066033,-0.03303385,-3.516957,-0.824426,0.4444523,1.477408,0.4354405,-0.1171684,0.04907124,-0.2538829,-1.273373,0.1161799,-0.01969141,0.5487823,1.488634,0.2707837,0.01863342,1.503516,0.5424379,289.3887,102.323,168.1264,True
6,1.333336,-0.7223108,-0.174013,-0.2705629,-1.50991,1.244035,-1.729269,0.3323982,1.376251,0.5481257,-0.9552743,-0.0346833,10.68966,14.01328,0.01169002,-0.2972014,0.7216322,-0.025732,-3.341143,-0.9999983,0.4442142,1.478213,0.4353931,-0.1343675,0.02775458,-0.2696818,-1.276961,0.1157139,-0.01750016,0.548596,1.488531,0.2711141,0.01918751,1.508059,0.5434017,289.92,102.7604,167.9537,True
6,1.344447,-0.680742,-0.176091,-0.259987,-1.507043,1.241644,-1.722593,0.3319687,1.378179,0.5486333,-0.9548019,0.04320861,10.71618,14.12042,0.005336553,-0.2525146,0.7398816,-0.02079716,-3.012632,-1.328308,0.4441314,1.478952,0.4352844,-0.1460183,0.0224223,-0.2631654,-1.279652,0.1157685,-0.01544873,0.5483688,1.488409,0.2714212,0.01974567,1.512382,0.5442222,290.4529,103.3207,167.6545,True
6,1.355558,-0.6210916,-0.1567593,-0.2334536,-1.505594,1.240028,-1.717375,0.3314109,1.3799,0.549104,-0.9551795,-0.03512189,10.71618,14.24898,0.01059431,-0.1790224,0.7538271,-0.02113485,-2.581962,-1.75913,0.4439846,1.47972,0.4352658,-0.1725347,0.02133715,-0.2522289,-1.282117,0.1159373,-0.0126628,0.5482206,1.48826,0.271682,0.02021017,1.516499,0.5449045,290.938,104.0207,167.1089,True
6,1.366669,-0.5774496,-0.1215047,-0.2058833,-1.504901,1.238622,-1.711996,0.3309534,1.381416,0.5495787,-0.9554468,-0.0242832,10.68966,14.37754,0.02192974,-0.1725248,0.7121933,-0.02155403,-2.267471,-2.074101,0.4439162,1.48023,0.435221,-0.2012773,0.008536421,-0.2508554,-1.284786,0.1156559,-0.009428922,0.5480467,1.488084,0.2719676,0.02057801,1.520412,0.545502,291.3756,104.5944,166.5934,True
6,1.37778,-0.529631,-0.02972334,-0.1656367,-1.50753,1.237767,-1.707722,0.3304262,1.382572,0.5498006,-0.9565521,-0.1011203,10.61008,14.48468,0.0252693,-0.195718,0.5981337,-0.02086001,-2.07373,-2.268056,0.4436629,1.4805,0.43519,-0.2151382,-0.02236558,-0.2539055,-1.287696,0.1143625,-0.006242982,0.5478792,1.487961,0.2722507,0.02093928,1.524014,0.5459815,291.7814,105.0609,166.1956,True
6,1.388891,-0.5180144,0.03104074,-0.1551102,-1.509751,1.236081,-1.702106,0.3298145,1.383802,0.5500767,-0.9561116,0.04084044,10.55703,14.59181,0.02070111,-0.2020475,0.5598081,-0.02276204,-1.836155,-2.505659,0.4433938,1.480839,0.4352427,-0.2131165,-0.04473421,-0.2656505,-1.291058,0.1130348,-0.0036211,0.5476954,1.48781,0.2725191,0.02126356,1.527245,0.546344,292.1913,105.2855,166.0169,True
6,1.400002,-0.5277075,0.08848731,-0.1637959,-1.511811,1.233194,-1.695549,0.3293328,1.384725,0.5501432,-0.9566969,-0.05426211,10.55703,14.67752,0.005096287,-0.2093799,0.4757643,-0.02370586,-1.684363,-2.656956,0.4429269,1.481111,0.435354,-0.1981096,-0.04046075,-0.2562245,-1.293648,0.1128231,-0.00182613,0.5474931,1.487694,0.2729161,0.02152295,1.530092,0.5466257,292.5151,105.2637,166.0305,True
6,1.411114,-0.5340579,0.06182371,-0.1701134,-1.511227,1.231212,-1.68917,0.3286994,1.385592,0.5501864,-0.9550894,0.1472346,10.58355,14.72038,-0.02659172,-0.2540108,0.3704732,-0.02237907,-1.496314,-2.843486,0.4423636,1.481498,0.4355354,-0.1829575,0.02453023,-0.2297461,-1.29535,0.1152157,-0.0009725865,0.5472507,1.487505,0.2733154,0.02166463,1.532619,0.5469159,292.7749,104.9411,166.3068,True
6,1.422225,-0.5189517,-0.04255041,-0.1528929,-1.506863,1.23046,-1.683617,0.3283334,1.386801,0.550427,-0.9537568,0.1202573,10.6366,14.67752,-0.0249247,-0.1953527,0.3364771,-0.02515089,-1.451004,-2.88832,0.4418194,1.482019,0.4357612,-0.1840466,0.04691932,-0.230798,-1.298008,0.1166654,0.0007163903,0.547045,1.487332,0.2736492,0.02160092,1.534992,0.5473229,292.9277,104.8121,166.4172,True
6,1.433336,-0.5377294,-0.2213949,-0.07580133,-1.498746,1.2331,-1.677132,0.3277574,1.387544,0.550462,-0.9536151,0.01191224,10.74271,14.54896,-0.01616442,-0.1823628,0.2416136,-0.02451706,-1.394258,-2.945202,0.4410606,1.482179,0.4359443,-0.2023489,0.1118912,-0.2444452,-1.301168,0.12032,0.002602974,0.5467473,1.48726,0.2741189,0.02150685,1.537266,0.5478699,293.0385,104.9686,166.3433,True
6,1.444447,-0.5204096,-0.3245535,0.007483095,-1.492181,1.23665,-1.672241,0.326996,1.388521,0.5503626,-0.9542655,-0.05954703,10.8488,14.39897,-0.05716459,-0.1514826,0.1919408,-0.02488884,-1.353203,-2.984037,0.4405217,1.4822,0.4360044,-0.2109006,0.1236168,-0.2475506,-1.30401,0.1220967,0.004581969,0.546476,1.487127,0.2744412,0.02150084,1.539455,0.5484034,293.1752,105.3373,166.2084,True
6,1.455558,-0.3739484,-0.4996314,0.2122486,-1.481846,1.247075,-1.673728,0.3253116,1.389832,0.5500343,-0.9530846,0.1083811,10.92838,14.29184,-0.1688199,0.03689027,0.1452996,-0.02669606,-1.594138,-2.73766,0.4398956,1.482054,0.4360182,-0.188881,0.1406682,-0.1796004,-1.303982,0.1242909,0.005469067,0.5461624,1.48714,0.2748845,0.02169756,1.541443,0.5485837,293.4105,105.8943,166.0329,True
6,1.466669,-0.3291321,-0.5026407,0.2761298,-1.476721,1.252336,-1.671716,0.3239553,1.39099,0.5498788,-0.9543566,-0.1174323,10.98143,14.27041,-0.1933498,0.06131524,0.1498155,-0.02912646,-1.604527,-2.72442,0.4396154,1.482259,0.4360712,-0.1401727,0.1428342,-0.1076664,-1.302785,0.1260862,0.004964399,0.5459863,1.487044,0.275285,0.0219768,1.543174,0.5479115,293.7143,106.3289,166.0222,True
6,1.47778,-0.2856882,-0.3618393,0.322679,-1.4782,1.257336,-1.669838,0.3221478,1.392328,0.5492167,-0.9599779,-0.5130848,10.95491,14.29184,-0.2452405,-0.04347473,0.283213,-0.03511751,-1.417662,-2.906588,0.4396769,1.482645,0.435751,-0.08925814,0.1311413,-0.02937416,-1.300393,0.127196,0.003906857,0.5457724,1.48696,0.2756164,0.02196758,1.544847,0.5460717,294.0453,106.437,166.1704,True
6,1.488891,-0.2432286,-0.3054026,0.2735156,-1.476834,1.258889,-1.668741,0.3204273,1.393893,0.5485749,-0.9569057,0.2846735,10.90185,14.33469,-0.2410968,-0.1416379,0.369273,-0.04127367,-1.254408,-3.067254,0.4395235,1.48299,0.4356987,-0.05588635,0.094944,0.001156868,-1.299546,0.1269615,0.00357556,0.5456594,1.486845,0.275923,0.02127447,1.546209,0.5426686,294.5912,106.441,166.0766,True
6,1.500003,-0.3138954,-0.176901,0.1614115,-1.47834,1.256122,-1.66233,0.3192561,1.395609,0.5475144,-0.9560844,0.0717757,10.92838,14.37754,-0.1613148,-0.3003002,0.4354156,-0.048722,-1.060371,3.021064,0.4391468,1.483325,0.4354868,-0.1013013,0.08533294,-0.06228139,-1.302379,0.1276129,0.00608479,0.5456048,1.486666,0.2760746,0.01962264,1.547378,0.5381406,294.8228,106.7356,164.8904,True
6,1.511114,-0.6612124,0.3752345,0.1189967,-1.500087,1.253766,-1.643683,0.3176014,1.396288,0.5463908,-0.9567033,-0.05740503,10.98143,14.57039,-0.1493827,-0.3163146,0.4597678,-0.05465605,-1.000457,2.962594,0.4382872,1.483476,0.4355657,-0.18986,0.09274757,-0.1742626,-1.308348,0.1291399,0.01102495,0.5454829,1.486467,0.2763014,0.01713641,1.548685,0.5332766,294.7235,107.0628,163.1881,True
6,1.522225,-0.9334817,0.7638722,0.2686183,-1.521395,1.260439,-1.625212,0.3155813,1.396821,0.5457244,-0.9515954,0.4674458,11.08753,14.91322,-0.1790278,-0.2823617,0.4920413,-0.06146629,-0.9884794,2.953666,0.4373495,1.483921,0.4356883,-0.2312532,0.0863414,-0.2601153,-1.313816,0.130041,0.01454139,0.5453531,1.486422,0.2767205,0.01431404,1.550074,0.5288226,294.5269,108.1025,160.7762,True
6,1.533336,-1.133731,1.418068,0.4921817,-1.559052,1.271546,-1.606408,0.3129662,1.396565,0.5443208,-0.9390961,1.138894,11.32626,15.36319,-0.2589125,-0.2889811,0.496935,-0.06755374,-0.9535134,2.924962,0.4361552,1.484335,0.4358315,-0.2349493,0.1033897,-0.3058841,-1.318725,0.1318177,0.01684769,0.5450705,1.486432,0.2772715,0.01161227,1.552024,0.5256497,294.0056,108.8708,158.6491,True
6,1.544447,-1.196545,1.96771,0.5230303,4.685047,1.276502,-1.591779,0.3105791,1.395827,0.5432777,-0.9386535,0.03264832,11.48541,16.73452,-0.3794717,-0.1835701,0.3766953,-0.06689861,-0.9752184,2.954864,0.4347723,1.484112,0.4360945,-0.2336861,0.1502675,-0.2845846,-1.320881,0.1352846,0.01836569,0.5447382,1.486409,0.2777574,0.009515715,1.555892,0.5246431,292.989,107.0561,159.313,True
6,1.555558,-1.357745,2.659651,0.4311455,4.630621,1.277069,-1.570543,0.3076245,1.394529,0.5425582,-0.9402913,-0.1459938,11.59151,18.32012,-0.3558482,-0.177169,0.4010145,-0.07229523,-0.9683475,2.951219,0.4335533,1.484227,0.4364693,-0.1973481,0.2429574,-0.1677707,-1.318627,0.1413529,0.01778406,0.5442111,1.48645,0.2784977,0.009003632,1.562059,0.5254817,292.4211,102.673,163.4226,True
6,1.566669,-1.459376,2.815797,0.3041093,4.596111,1.276101,-1.550558,0.3052682,1.39514,0.5420589,-0.9464331,-0.5596588,11.67109,19.84144,-0.3353892,-0.2942849,0.3920884,-0.07831185,-0.8821364,2.867836,0.4323995,1.484269,0.436532,-0.1440644,0.3036968,-0.06391945,-1.315681,0.1466966,0.0159819,0.5434722,1.486498,0.2792673,0.01058238,1.570477,0.5277206,293.0466,96.27581,170.0986,True
6,1.577781,-1.470801,2.57033,0.104367,4.576103,1.270732,-1.53374,0.3029776,1.398231,0.542244,-0.941567,0.4478271,11.61804,21.31991,-0.3518679,-0.4168988,0.423942,-0.08668642,-0.7975691,2.78802,0.4314113,1.484483,0.43697,-0.1158417,0.3132972,-0.01414695,-1.314047,0.1505839,0.01528548,0.5428047,1.486457,0.2800958,0.01429076,1.580338,0.5314686,295.25,91.38583,175.2297,True
6,1.588892,-1.341104,2.125152,0.04341555,4.567964,1.269667,-1.523379,0.301297,1.400949,0.5424685,-0.9432884,-0.1621591,11.61804,22.8198,-0.3159241,-0.4819517,0.4991485,-0.09700138,-0.7556174,2.748556,0.4306848,1.485021,0.4373653,-0.07381551,0.3378273,0.03335234,-1.312184,0.1552061,0.01374804,0.542148,1.486374,0.2811615,0.01950606,1.591474,0.5376103,298.1916,87.40949,179.3374,True
6,1.600003,-1.16603,1.400127,0.09167702,4.579622,1.272695,-1.517131,0.3007285,1.405053,0.5429165,-0.9473003,-0.3639571,11.64456,24.21256,-0.2622753,-0.4968131,0.5412893,-0.106103,-0.7321978,2.726379,0.4301881,1.485707,0.4377418,-0.04633194,0.3676753,0.01494834,-1.312762,0.1604243,0.01205373,0.5415548,1.486272,0.2821255,0.02577963,1.603268,0.5457337,301.2404,85.74966,182.2854,True
6,1.611114,-1.019982,0.7942789,0.1056232,4.592257,1.274056,-1.510789,0.3005761,1.409169,0.5426314,-0.9552876,-0.7274095,11.72414,25.69102,-0.2558774,-0.5127774,0.537997,-0.113937,-0.7019067,2.698928,0.4297288,1.486356,0.4379716,-0.0268743,0.3783513,-0.05770715,-1.315882,0.1652246,0.01056343,0.5411555,1.486199,0.2828324,0.03252294,1.614943,0.5546757,304.1956,86.0032,184.4403,True
6,1.622225,-1.036638,0.5982343,0.09650089,4.589739,1.275392,-1.498098,0.3009064,1.411847,0.5423083,-0.9606544,-0.4846447,11.93634,27.06235,-0.1975059,-0.5341466,0.6333362,-0.125959,-0.6881044,2.685675,0.4301257,1.487541,0.4377491,-0.01513179,0.3421513,-0.1579778,-1.320836,0.1679415,0.009719472,0.5409151,1.486099,0.2835021,0.03953385,1.624741,0.5623845,307.2032,86.72096,186.7163,True
6,1.633336,-1.085797,0.7261836,0.1889445,4.577235,1.281455,-1.483474,0.3002387,1.414353,0.5418687,-0.9600579,0.05740462,12.41379,27.70516,0.002618611,-0.6523177,0.8359816,-0.1449111,-0.6692811,2.660637,0.4304043,1.488574,0.4373221,-0.006378368,0.2942271,-0.2390508,-1.326291,0.1696103,0.009194563,0.5406947,1.485923,0.2839522,0.0455892,1.632083,0.5668087,309.6597,87.74284,188.6441,True
6,1.644447,-1.040082,0.7720616,0.181349,4.567234,1.28413,-1.473074,0.2993323,1.416579,0.5417705,-0.9529248,0.6510254,12.89124,28.54082,0.1208951,-0.6693512,0.9649363,-0.1618568,-0.6678302,2.654257,0.4303224,1.489002,0.4370148,-0.05467349,0.2175053,-0.3770399,-1.334979,0.1694167,0.01162097,0.5405474,1.485746,0.2842517,0.04946452,1.637395,0.5671913,311.0048,88.50375,189.3236,True
6,1.655559,-0.95702,0.7389691,0.07588097,4.559852,1.281886,-1.46566,0.2981004,1.418408,0.5421975,-0.9506388,0.2031924,13.3687,29.50503,0.1634442,-0.5393432,0.9957409,-0.1734874,-0.6940286,2.676784,0.430148,1.489411,0.436609,-0.1760753,0.1481901,-0.4769643,-1.343796,0.1687969,0.01791908,0.5403923,1.485491,0.2844439,0.05103363,1.641621,0.5644603,311.0465,88.10339,188.8585,True
6,1.66667,-0.8906798,0.5771339,0.05060161,4.558794,1.281507,-1.458028,0.2972071,1.419189,0.5423102,-0.9541595,-0.3230887,13.76658,30.31926,0.1117451,-0.5169843,0.9397389,-0.1823328,-0.689053,2.673259,0.429684,1.489996,0.4364686,-0.2667404,0.09699604,-0.4909185,-1.349271,0.1684427,0.02397191,0.5399907,1.485234,0.2848537,0.05071137,1.645903,0.5601372,310.477,87.06763,187.7386,True
6,1.677781,-0.8712452,0.4450642,0.05196592,4.558491,1.282551,-1.449179,0.2955369,1.420408,0.54302,-0.9562522,-0.1890977,13.95225,30.83351,-0.05108893,-0.4884113,0.8388698,-0.1891947,-0.6807037,2.67148,0.4289386,1.490628,0.436393,-0.3353486,0.02023941,-0.4358641,-1.352144,0.1658864,0.0308647,0.5396123,1.484969,0.2851117,0.04929467,1.650308,0.5555321,309.9528,86.9931,185.5426,True
6,1.688892,-0.8700449,0.3918413,0.06698798,4.555879,1.284042,-1.43962,0.2943318,1.421316,0.5436194,-0.9554389,0.07452129,13.95225,31.06921,-0.1973517,-0.3734613,0.7050223,-0.1924517,-0.6857494,2.683639,0.4283606,1.491227,0.4365382,-0.3194126,-0.007465497,-0.3422826,-1.352471,0.164933,0.03359152,0.539094,1.484803,0.2855268,0.04760369,1.654171,0.5517336,309.722,87.8799,182.8166,True
6,1.700003,-0.7406037,0.07879889,0.02705533,4.564744,1.282056,-1.435888,0.2944669,1.423131,0.5440507,-0.9529546,0.2250239,13.76658,30.83351,-0.1920024,-0.2667215,0.6082658,-0.1957114,-0.6965522,2.695734,0.4280692,1.491609,0.4365144,-0.274501,0.01811975,-0.2245004,-1.351056,0.166195,0.03479633,0.5386705,1.484679,0.2858613,0.04626215,1.656814,0.5491292,309.7329,88.71124,180.8559,True
6,1.711114,-0.6678349,-0.1128833,-0.002428986,4.572118,1.280107,-1.431164,0.294331,1.42519,0.5444288,-0.9505515,0.2164855,13.50132,30.68352,-0.1076718,-0.1481173,0.535364,-0.1977866,-0.7152864,2.712538,0.427796,1.491742,0.4365656,-0.2524673,0.04795375,-0.1544179,-1.3502,0.1678059,0.03641926,0.5382334,1.484533,0.2862422,0.04507853,1.658829,0.5480424,309.7215,88.9129,180.0816,True
6,1.722225,-0.5288746,-0.3758244,-0.0381756,4.583901,1.277236,-1.43065,0.2943631,1.427163,0.544929,-0.9538473,-0.3045974,13.20955,30.83351,-0.02990687,-0.1777423,0.5250697,-0.2042133,-0.7124811,2.707354,0.4276158,1.492046,0.4365921,-0.2465654,0.1076018,-0.09694551,-1.349275,0.1711026,0.03823714,0.5378944,1.484341,0.2865551,0.04435727,1.660445,0.5483342,309.4315,88.70004,180.3314,True
6,1.733337,-0.4145677,-0.5695781,-0.07515685,4.596068,1.273589,-1.430243,0.2941172,1.428824,0.54547,-0.9511262,0.2498889,12.99735,31.39062,0.04069185,-0.287315,0.5274619,-0.2128601,-0.69322,2.685568,0.4275942,1.492736,0.4365377,-0.2537659,0.1299629,-0.07129539,-1.349125,0.1733816,0.04080362,0.537519,1.484181,0.286957,0.04426155,1.661664,0.5493312,309.0835,89.14179,180.6743,True
6,1.744448,-0.3644465,-0.6228328,-0.1144809,4.603597,1.27025,-1.427995,0.2937041,1.430315,0.5458958,-0.9522452,-0.1069906,13.02387,32.11913,0.04067647,-0.343753,0.512412,-0.2198471,-0.6795194,2.672198,0.4272123,1.493177,0.4363761,-0.268949,0.1214219,-0.09670851,-1.351191,0.1742064,0.04419969,0.5372657,1.483972,0.2871549,0.04447136,1.66295,0.5506119,308.9129,89.70335,181.0405,True
6,1.755559,-0.3251551,-0.5770395,-0.1550993,4.607965,1.266394,-1.426255,0.2932479,1.431025,0.5463545,-0.9494318,0.2558103,13.28912,33.16906,-0.01079512,-0.2660751,0.4948866,-0.2242158,-0.6869674,2.681442,0.4267552,1.493823,0.4361024,-0.2599804,0.1288926,-0.1543325,-1.354744,0.1760553,0.04637948,0.5370634,1.483794,0.2873828,0.0447624,1.664084,0.5516217,309.1407,90.54948,181.0796,True
6,1.76667,-0.3167705,-0.5067142,-0.1552642,4.610422,1.264329,-1.422856,0.2929688,1.431972,0.546684,-0.9441124,0.4813818,13.60743,34.51897,-0.03211364,-0.168157,0.5187176,-0.2295842,-0.7073507,2.702213,0.4263884,1.494307,0.4358554,-0.2518929,0.1257092,-0.1948988,-1.358127,0.1775487,0.04859736,0.5367558,1.483604,0.2875271,0.04465071,1.664987,0.5521167,309.5124,91.43002,180.7586,True
6,1.777781,-0.2721449,-0.4266716,-0.1256514,4.612054,1.26379,-1.421532,0.2927097,1.432378,0.5470273,-0.9408218,0.2943357,13.87268,36.04028,-0.06147701,-0.06693852,0.4765541,-0.2319294,-0.7258608,2.721954,0.4257942,1.494447,0.4355369,-0.2458113,0.1139991,-0.2247951,-1.361647,0.1786146,0.05087836,0.5365791,1.48344,0.2876642,0.04389912,1.665751,0.5522028,309.6695,92.03989,180.238,True
6,1.788892,-0.2167349,-0.4254517,-0.1012049,4.616817,1.262949,-1.421064,0.2926145,1.433128,0.5471079,-0.9358817,0.4469943,14.11141,37.58303,-0.08896857,0.1035088,0.420456,-0.2324918,-0.7461988,2.743376,0.4254348,1.494544,0.4353845,-0.2427135,0.09269422,-0.2354853,-1.36441,0.1790229,0.05339292,0.5362762,1.483323,0.2877426,0.04267162,1.666178,0.5521072,309.5603,92.44705,179.6079,True
6,1.800003,-0.1558938,-0.4838935,-0.0808997,4.624267,1.261593,-1.421232,0.2924155,1.433806,0.5471609,-0.9342492,0.1427996,14.19098,38.63295,-0.05116299,0.1559487,0.3714579,-0.2329275,-0.7752054,2.770992,0.4249521,1.494626,0.4355624,-0.2519296,0.06605014,-0.2023611,-1.365552,0.1789459,0.05651015,0.5359714,1.483223,0.2878878,0.04119167,1.666393,0.5520063,309.1346,92.56546,179.2106,True
6,1.811115,-0.1131693,-0.5317014,-0.05633926,4.631804,1.260704,-1.421516,0.2921203,1.434381,0.547245,-0.9313399,0.2621023,14.13793,38.78294,-0.05841619,0.04438967,0.2306892,-0.2324226,-0.7598851,2.756597,0.4245809,1.494746,0.4356902,-0.2393456,0.03196403,-0.1236636,-1.364382,0.1782016,0.05889527,0.5356447,1.483034,0.2881057,0.03976856,1.666213,0.5518612,308.7199,92.59885,179.0602,True
6,1.822226,-0.07590131,-0.5177519,-0.03935334,4.636935,1.260198,-1.421681,0.2919113,1.434964,0.5469835,-0.9277335,0.3243624,13.8992,38.05443,-0.05637154,-0.03757517,0.1942897,-0.2348301,-0.7486069,2.746086,0.4244901,1.495024,0.4356701,-0.2229113,0.01598828,-0.08228938,-1.36394,0.177805,0.06084204,0.5352926,1.482918,0.2882948,0.03836735,1.665685,0.5515093,308.368,92.85962,178.9443,True
6,1.833337,-0.05466735,-0.4825742,-0.04690703,4.640917,1.258821,-1.421913,0.2915353,1.435298,0.5469811,-0.923466,0.3842707,13.39523,36.81165,-0.03383945,-0.1493472,0.1800278,-0.238411,-0.7290664,2.726657,0.4242023,1.495054,0.4357147,-0.1873666,0.02240331,-0.04538333,-1.363282,0.1783183,0.06160637,0.5350456,1.482784,0.2885273,0.03684825,1.664845,0.5508018,308.0959,93.38712,178.5988,True
6,1.844448,-0.04204651,-0.3823743,-0.04923528,4.640887,1.258044,-1.422089,0.2911872,1.436219,0.54913,-0.9187783,0.4220995,12.7321,35.20463,-0.03106447,-0.1290324,0.1363637,-0.2388248,-0.7267556,2.724758,0.4238699,1.494995,0.4355831,-0.1724032,0.03732146,-0.04021432,-1.363565,0.1792516,0.06279281,0.5348409,1.48261,0.2887757,0.03508238,1.663812,0.549738,307.7823,93.8447,178.1275,True
6,1.855559,-0.04109003,-0.3077397,-0.02063426,4.641798,1.258652,-1.421611,0.2905488,1.436336,0.549305,-0.9140885,0.4220315,12.14854,33.38333,-0.0109594,-0.03845393,0.1470337,-0.2396477,-0.7403231,2.737379,0.4232671,1.494935,0.4357285,-0.1567079,0.07781599,-0.06381929,-1.365097,0.1816661,0.06360295,0.5345607,1.482568,0.2890058,0.03306112,1.662732,0.5484585,307.3572,94.15402,177.5817,True
6,1.86667,-0.06140497,-0.2555181,0.006977011,4.64319,1.259574,-1.420069,0.2898189,1.436414,0.549422,-0.9093502,0.4264733,11.64456,31.15492,-0.04766558,0.003094343,0.0994869,-0.2388397,-0.7445418,2.742949,0.4225958,1.494961,0.4358933,-0.1408173,0.1012621,-0.07037428,-1.365918,0.1835743,0.06439684,0.5342777,1.482448,0.2893169,0.03076311,1.661823,0.5473866,306.8374,94.58825,176.4957,True
6,1.877781,-0.08598693,-0.1969125,0.03457315,4.643542,1.260875,-1.418148,0.2891367,1.436528,0.5495358,-0.9039211,0.4894376,11.19363,28.45511,-0.1023794,-0.003334455,0.05199189,-0.2380088,-0.7418302,2.743287,0.4219862,1.495029,0.4360974,-0.1354888,0.09806989,-0.07043152,-1.366654,0.1846525,0.06552335,0.5339789,1.482332,0.2896605,0.0283007,1.661321,0.5472303,306.312,94.79787,175.4344,True
6,1.888893,-0.09779689,-0.1233489,0.07171438,4.642845,1.263102,-1.416579,0.2885144,1.436579,0.5494087,-0.8978549,0.5470716,10.87533,25.47675,-0.1698109,-0.01301365,0.01097535,-0.2370075,-0.7362415,2.741983,0.4213913,1.495125,0.4364276,-0.1343521,0.08953989,-0.06404833,-1.367042,0.1851925,0.06694201,0.5336477,1.482207,0.2899768,0.02612021,1.660679,0.5477883,305.9576,94.60156,175.4882,True
6,1.900004,-0.06591782,-0.07532276,0.08650523,4.642377,1.264791,-1.416784,0.287926,1.436701,0.5493252,-0.8923821,0.4923325,10.66313,22.90551,-0.1397915,-0.0246966,0.0288047,-0.2380685,-0.7357624,2.741824,0.4210637,1.495136,0.4365711,-0.1286451,0.09912534,-0.02788321,-1.366005,0.186576,0.06788531,0.5333703,1.482047,0.2903414,0.02424927,1.659866,0.5487063,305.6512,94.25739,176.1686,True
6,1.911115,-0.02437412,-0.06883942,0.08857957,4.643003,1.265734,-1.418019,0.2874053,1.437178,0.5495026,-0.8876833,0.422039,10.50398,20.95564,-0.1116404,-0.09501741,0.06357358,-0.2410917,-0.724624,2.731373,0.4207704,1.495021,0.4365821,-0.1072713,0.1066011,-0.02065067,-1.365848,0.1881272,0.06809596,0.533103,1.481902,0.2905543,0.02266569,1.659018,0.5496752,305.3292,93.78706,177.0488,True
6,1.922226,-0.01270537,-0.04968136,0.07148915,4.64305,1.266004,-1.41822,0.2868221,1.437426,0.5494738,-0.8842078,0.3106265,10.34483,19.54146,-0.1021259,-0.07794053,0.05819482,-0.2417442,-0.7246477,2.732082,0.4202214,1.495021,0.4367895,-0.09276227,0.1183326,-0.05808921,-1.367735,0.1900003,0.06820249,0.5329266,1.481793,0.2908437,0.02134431,1.658226,0.5504441,305.0552,93.24852,177.9051,True
6,1.933337,-0.07565353,0.002403796,0.07250674,4.641527,1.267085,-1.415287,0.2861108,1.437514,0.5495973,-0.8798584,0.3912305,10.18567,18.53439,-0.1316662,-0.1193922,-0.04075848,-0.2392483,-0.7047731,2.715907,0.4199345,1.494926,0.4368761,-0.08468316,0.1119545,-0.09972508,-1.370241,0.1912777,0.06874418,0.5326982,1.4816,0.2911065,0.02012194,1.657534,0.5509154,304.9051,92.93104,178.3887,True
6,1.944448,-0.1183571,0.06094453,0.08627739,4.639168,1.268981,-1.412375,0.2853504,1.437655,0.5496879,-0.8731786,0.6034132,10.07958,17.99871,-0.131536,-0.08216864,-0.01406782,-0.239677,-0.7070445,2.719633,0.4191502,1.494982,0.4373264,-0.1043382,0.07146803,-0.1474573,-1.373354,0.190887,0.07063742,0.532441,1.481457,0.2914195,0.01877639,1.656928,0.5511326,304.8384,92.87688,178.4559,True
6,1.955559,-0.1322611,0.09716408,0.09793183,4.637026,1.270869,-1.410234,0.2845182,1.437882,0.5499303,-0.8644525,0.7889599,10.02653,18.17013,-0.06744112,-0.07566996,0.008849986,-0.2407412,-0.706037,2.717185,0.4185394,1.495183,0.4376898,-0.1235148,0.05867109,-0.1483198,-1.375059,0.191226,0.07261162,0.5320978,1.48134,0.2917984,0.01721662,1.656316,0.5511955,304.7496,92.82973,178.3806,True
6,1.966671,-0.1215806,0.07907463,0.09156738,4.63692,1.271624,-1.409446,0.2837884,1.438169,0.5504088,-0.8589696,0.4912494,9.973473,18.89865,-0.08022134,-0.09382645,0.006770849,-0.2413378,-0.6981876,2.711187,0.417994,1.495081,0.4379582,-0.1350694,0.07251653,-0.1322108,-1.375703,0.1928057,0.07409367,0.5316468,1.481257,0.292273,0.01546235,1.655845,0.5512437,304.4734,92.51756,178.4644,True
6,1.977782,-0.1226554,0.08119167,0.0862374,4.636052,1.272551,-1.407974,0.2831455,1.438449,0.5505588,-0.8546979,0.3833733,9.920423,20.01286,-0.1185449,-0.11522,0.00384598,-0.2420994,-0.6903182,2.706145,0.4174243,1.495149,0.4381394,-0.1322687,0.1055336,-0.06724949,-1.373984,0.195098,0.07506226,0.5312374,1.48121,0.2926805,0.01368483,1.655594,0.5513147,304.1254,92.07299,178.7024,True
6,1.988893,-0.1034512,0.04708505,0.06497258,4.636784,1.272318,-1.407211,0.2826777,1.438458,0.5504677,-0.8509476,0.3362519,9.8939,21.19134,-0.1671223,-0.04839322,0.07577601,-0.2444841,-0.7024247,2.721543,0.4168284,1.495092,0.4383821,-0.1071826,0.103409,-0.01212375,-1.372253,0.1959971,0.07526093,0.5307286,1.481168,0.2931702,0.01201117,1.655501,0.5514215,303.8642,91.78564,178.835,True
6,2.000004,-0.07679779,0.03326089,0.04686814,4.636569,1.272279,-1.407432,0.2820051,1.439005,0.5508854,-0.845232,0.5162449,9.867373,22.04842,-0.1595095,-0.01754412,0.1024103,-0.2458849,-0.7091883,2.729421,0.4163103,1.495311,0.4385972,-0.09001516,0.07784793,-0.002719514,-1.37201,0.1959116,0.07566334,0.530356,1.481057,0.2936087,0.01050523,1.655364,0.5515782,303.7355,91.74687,178.7693,True
6,2.011115,-0.04905465,0.01308817,0.05434044,4.637207,1.273064,-1.407845,0.2814981,1.439405,0.551183,-0.8406928,0.4072322,9.840847,22.54125,-0.1293315,-0.1037933,0.1190104,-0.2491627,-0.6965905,2.717587,0.4157299,1.495321,0.4389062,-0.08691622,0.06293553,-0.01234695,-1.372593,0.1961427,0.07659651,0.5300041,1.480925,0.2940145,0.009192107,1.655069,0.5517748,303.6361,91.65408,178.8393,True
6,2.022226,-0.06923141,-0.02745713,0.04166378,4.638824,1.27285,-1.406369,0.2808663,1.439846,0.5515614,-0.8367743,0.3516271,9.787797,22.71266,-0.07696155,-0.1016012,0.138815,-0.2515521,-0.6955407,2.715697,0.4153032,1.495372,0.4392786,-0.1162711,0.06824668,-0.06742857,-1.375197,0.1972734,0.07871798,0.5296975,1.480797,0.2944262,0.008004827,1.65457,0.5519875,303.5315,91.66946,178.8503,True
6,2.033337,-0.1096864,-0.05313728,0.02151127,4.640111,1.272026,-1.403813,0.2801796,1.440299,0.5521202,-0.8321974,0.4122852,9.628648,22.47696,-0.05380277,-0.1004036,0.1056,-0.2520783,-0.6917979,2.711868,0.4146702,1.495289,0.4396157,-0.1218714,0.09807526,-0.09080271,-1.37684,0.1996824,0.07989057,0.5294197,1.48071,0.2948556,0.006673702,1.654107,0.5523593,303.3877,91.62151,178.8506,True
6,2.044448,-0.1501674,-0.05642672,0.01304283,4.640672,1.271868,-1.400878,0.2795342,1.440696,0.5525777,-0.8254399,0.6111341,9.389919,21.96272,-0.08716599,-0.06633813,0.07504381,-0.2514956,-0.6918001,2.714138,0.4141067,1.495344,0.4400144,-0.08906307,0.09916604,-0.1113879,-1.378434,0.2008836,0.07941306,0.5289658,1.480664,0.2953424,0.005209818,1.653546,0.5528229,303.2228,91.52444,178.9584,True
6,2.055559,-0.1810526,-0.06395289,0.007764729,4.641602,1.2716,-1.397782,0.2789859,1.44114,0.5530782,-0.8195303,0.532155,9.204244,21.31991,-0.09009448,-0.06003153,0.1091732,-0.2537977,-0.6942246,2.717604,0.4136703,1.495593,0.4404316,-0.05280715,0.09386477,-0.1085795,-1.379483,0.201831,0.07861066,0.5284994,1.480635,0.2958741,0.003520952,1.653022,0.5533607,302.9434,91.5498,178.9771,True
6,2.06667,-0.1927878,-0.05758972,0.004568657,4.641988,1.271531,-1.39539,0.2786719,1.441604,0.5535142,-0.8148857,0.417646,9.045091,20.50568,-0.0418469,-0.06959718,0.1449595,-0.2567889,-0.6938051,2.716153,0.4133221,1.495753,0.4406645,-0.03553617,0.09494498,-0.08745506,-1.379563,0.2030385,0.07828495,0.5279505,1.480647,0.2963586,0.001721682,1.652658,0.5539974,302.548,91.58958,178.9314,True
6,2.077781,-0.178933,-0.05541237,0.01413724,4.642577,1.271921,-1.393868,0.2783223,1.442122,0.5538826,-0.8107626,0.3710499,8.965518,19.62717,-0.002257317,-0.09403299,0.1584247,-0.2595613,-0.6908796,2.71201,0.4129844,1.495858,0.4409509,-0.03207356,0.1034662,-0.06192235,-1.379238,0.2044935,0.07820213,0.5275284,1.480651,0.2968051,6.412668E-05,1.652472,0.5546904,302.1354,91.50329,179.0086,True
6,2.088892,-0.1330483,-0.09901751,0.006722216,4.645127,1.271211,-1.394223,0.2780325,1.442884,0.5542607,-0.8076936,0.2750866,8.992041,18.87722,-0.01216437,-0.1333762,0.1094087,-0.2603144,-0.6789311,2.70109,0.4126517,1.495853,0.441124,-0.04672908,0.08640959,-0.03832927,-1.37885,0.2048677,0.07929669,0.5272096,1.480736,0.2971518,-0.001255063,1.652475,0.5553692,301.7753,91.41005,179.1266,True
6,2.100003,-0.1255155,-0.1448431,-0.008098453,4.648081,1.270046,-1.393258,0.277545,1.443715,0.5548329,-0.8049559,0.2456245,9.045091,18.21299,-0.04830651,-0.07387337,0.1364787,-0.2619501,-0.6872489,2.710955,0.4122512,1.495921,0.4415255,-0.0606297,0.05230681,-0.04564258,-1.379651,0.2043139,0.08050496,0.5268888,1.480703,0.2975264,-0.002113091,1.652642,0.5559711,301.5573,91.32194,179.2651,True
6,2.111114,-0.1638708,-0.1459936,-0.01444768,4.649641,1.269386,-1.39025,0.276992,1.444347,0.5553381,-0.8030927,0.1657523,9.124667,17.5916,-0.04818122,-0.07818711,0.1524407,-0.2645057,-0.6868721,2.711273,0.4118425,1.496095,0.4418061,-0.06394731,0.02354617,-0.05839743,-1.380858,0.2037502,0.08149992,0.5265328,1.480698,0.2979298,-0.002613843,1.65297,0.5564409,301.5397,91.32831,179.3577,True
6,2.122225,-0.2129823,-0.08749583,-0.01451962,4.648537,1.269518,-1.386189,0.2765618,1.44497,0.555908,-0.7981622,0.4469087,9.23077,16.94879,-0.03732295,-0.1016374,0.170408,-0.2676264,-0.6836026,2.70812,0.4114235,1.49627,0.4421906,-0.03770657,-0.006256769,-0.09703892,-1.383331,0.2028976,0.08119658,0.5260546,1.480639,0.2984431,-0.003025452,1.65338,0.5567639,301.7098,91.68049,179.1163,True
6,2.133336,-0.2183654,-0.06730463,-0.03266812,4.64846,1.268627,-1.383633,0.2761809,1.445622,0.5564461,-0.7923805,0.5223067,9.23077,16.22027,0.0002384484,-0.09951217,0.2063077,-0.2710944,-0.6849853,2.708382,0.4111362,1.496689,0.4425454,-0.03353888,0.009727715,-0.1045382,-1.384641,0.2037095,0.08131643,0.5256231,1.480614,0.2989333,-0.003643313,1.653881,0.5570365,301.8799,92.09547,178.7034,True
6,2.144447,-0.2109419,-0.06521166,-0.05718861,4.648907,1.267006,-1.381743,0.2758012,1.446413,0.5569916,-0.7878253,0.4099701,9.098145,15.36319,0.03113072,-0.1484064,0.1910228,-0.2738523,-0.6761124,2.698409,0.4105476,1.496924,0.4427567,-0.0409689,0.03634818,-0.10019,-1.385363,0.2050449,0.0818187,0.5251852,1.480579,0.2993965,-0.004473146,1.65449,0.5573467,301.8683,92.21241,178.4575,True
6,2.155558,-0.2013332,-0.08546928,-0.07313389,4.65022,1.265399,-1.379957,0.2754354,1.447216,0.5575054,-0.7860038,0.1612161,8.965518,14.48468,0.02594973,-0.1250404,0.2156229,-0.2769895,-0.6789809,2.701046,0.4100672,1.497212,0.4430697,-0.04526996,0.06084722,-0.1022716,-1.386427,0.2066096,0.08218009,0.5247115,1.480619,0.2998486,-0.00532841,1.655266,0.5577866,301.6851,92.07449,178.4233,True
6,2.166669,-0.1948999,-0.1120912,-0.07733948,4.652062,1.264108,-1.378042,0.2750015,1.448121,0.5580812,-0.7836165,0.2148835,8.885942,13.58474,0.007814169,-0.04842815,0.2361997,-0.2792218,-0.6907228,2.712983,0.4096063,1.497475,0.4433832,-0.02398517,0.08109419,-0.1035676,-1.387609,0.208091,0.08143148,0.5242188,1.48066,0.3002903,-0.006043864,1.656108,0.5583828,301.5561,92.15213,178.29,True
6,2.17778,-0.1949193,-0.0950209,-0.06565856,4.652456,1.263696,-1.375932,0.2746664,1.448913,0.5585704,-0.780547,0.2765671,8.832892,12.62053,0.01093073,-0.01965497,0.2351756,-0.2812468,-0.6971471,2.718966,0.409199,1.497702,0.4436367,-0.006813992,0.07790891,-0.09203241,-1.388183,0.2089228,0.08078247,0.5237728,1.480685,0.3006809,-0.006619126,1.656938,0.5591661,301.5405,92.40227,178.0895,True
6,2.188891,-0.2343774,-0.0620135,-0.04544498,4.651751,1.264152,-1.371877,0.2743767,1.449759,0.5591497,-0.7771935,0.3020518,8.912464,11.63488,0.02588998,-0.07179175,0.2242813,-0.2841444,-0.690608,2.711735,0.4088438,1.497852,0.4439144,-0.001290917,0.02677245,-0.07718409,-1.388635,0.2074002,0.08088659,0.5232558,1.480782,0.3011141,-0.007120431,1.657689,0.5600997,301.5929,92.65077,177.9782,True
6,2.200002,-0.2684909,-0.05036326,-0.04756524,4.651752,1.263528,-1.367665,0.2739221,1.450566,0.5596917,-0.7738171,0.3039828,8.992041,10.7778,0.04965231,-0.06117836,0.2667221,-0.2884289,-0.6966084,2.716179,0.4084703,1.498026,0.4441988,-0.03331572,-0.0201242,-0.08643597,-1.390112,0.2056779,0.08262031,0.5227354,1.480891,0.301445,-0.007649238,1.658374,0.5611069,301.6196,92.76634,178.035,True
6,2.211113,-0.3324954,-0.0111061,-0.07100599,4.649971,1.262304,-1.361962,0.2734374,1.451492,0.5606244,-0.7687875,0.455252,9.098145,10.13499,0.05286041,-0.09098244,0.2581248,-0.2918143,-0.6943284,2.713199,0.4081663,1.498403,0.4443758,-0.04262711,-0.02651793,-0.06076915,-1.390021,0.2053947,0.08352472,0.5220789,1.480881,0.3017993,-0.008198874,1.659,0.5621009,301.5604,92.62162,178.3051,True
6,2.222224,-0.3613468,0.03570108,-0.07427138,4.648007,1.261826,-1.35713,0.2731245,1.452399,0.5611846,-0.7655113,0.2938843,9.28382,9.856439,0.05190203,-0.08888642,0.2719877,-0.2954452,-0.6961746,2.714493,0.4078989,1.498776,0.4446318,-0.02215051,-0.04035186,-0.03968306,-1.389882,0.2046117,0.08318809,0.5214065,1.48097,0.3021369,-0.008775393,1.659774,0.5630391,301.387,92.35999,178.653,True
6,2.233335,-0.32616,0.01872251,-0.07427119,4.648166,1.260942,-1.354627,0.2729183,1.453366,0.5617044,-0.7613866,0.3731586,9.496022,9.963574,0.08411399,-0.1229363,0.2918848,-0.299987,-0.6947806,2.7111,0.4076557,1.499362,0.4448159,-0.005080219,-0.04566655,-0.03773528,-1.390284,0.2039462,0.08281073,0.5208609,1.481022,0.3024929,-0.009355308,1.660848,0.5639312,301.2351,92.34741,178.6912,True
6,2.244446,-0.288812,-0.01423027,-0.07209985,4.64937,1.260072,-1.352761,0.2727008,1.454348,0.5621593,-0.7597471,0.1452766,9.681698,10.41354,0.1160898,-0.1792817,0.2755235,-0.3042156,-0.6864727,2.700621,0.4074186,1.499638,0.4449191,-0.01806127,-0.04034425,-0.05570593,-1.391557,0.2038366,0.08354016,0.5203203,1.481135,0.3028786,-0.009817454,1.662386,0.5649359,301.0883,92.3241,178.6144,True
6,2.255557,-0.2301345,-0.07062251,-0.09121341,4.651682,1.257907,-1.352319,0.2725645,1.455382,0.5625157,-0.7600161,-0.02687168,9.787797,10.84208,0.1126665,-0.1440955,0.2585879,-0.306484,-0.6882918,2.701204,0.406971,1.4999,0.4450665,-0.05675703,-0.01586577,-0.08618499,-1.393471,0.2046499,0.08530878,0.5198308,1.481213,0.3031938,-0.009854199,1.664213,0.565993,301.0874,92.24128,178.7143,True
6,2.266668,-0.2279791,-0.08983987,-0.1114118,4.652805,1.255734,-1.349987,0.2723002,1.456243,0.5629084,-0.7588779,0.103095,9.840847,11.12063,0.08175334,-0.08880256,0.2728231,-0.3093192,-0.6963098,2.708991,0.4063536,1.500248,0.445168,-0.06960645,-0.00521685,-0.09137625,-1.394602,0.2051021,0.08642916,0.5193682,1.481158,0.3034818,-0.009428212,1.66605,0.5669512,301.3606,92.39107,178.7675,True
6,2.277779,-0.2216434,-0.07711351,-0.137013,4.652794,1.253368,-1.347726,0.2719072,1.456849,0.5631359,-0.7583436,0.04665453,9.8939,11.44204,0.03016883,-0.07070358,0.2242871,-0.3103227,-0.6969671,2.710948,0.40579,1.500543,0.4451911,-0.07395991,-0.003088199,-0.09985236,-1.396,0.2052673,0.08737458,0.5188297,1.481227,0.3037765,-0.008772559,1.667734,0.5677002,301.794,92.70906,178.7187,True
6,2.28889,-0.2174443,-0.05156535,-0.1487941,4.652126,1.251434,-1.345561,0.2715079,1.457372,0.5634613,-0.7548475,0.3182529,10.02653,11.69916,0.01309733,-0.05050431,0.2276738,-0.312653,-0.7006779,2.714903,0.4051697,1.500779,0.4452934,-0.0706003,0.003303684,-0.08390859,-1.396335,0.2054906,0.0879493,0.5182703,1.481225,0.3040321,-0.008193832,1.669152,0.5682452,302.262,93.19759,178.427,True
6,2.300001,-0.1929808,-0.03021088,-0.1510011,4.651389,1.249782,-1.344349,0.2710847,1.457876,0.5638385,-0.7532309,0.144189,10.23872,11.91343,0.0295646,-0.008018792,0.3000805,-0.3174744,-0.7124677,2.725313,0.4045843,1.501081,0.4453595,-0.07370846,0.02247377,-0.07428904,-1.396852,0.206367,0.08873493,0.5176627,1.481288,0.3043163,-0.007939243,1.670374,0.5687249,302.564,93.5434,178.1258,True
6,2.311112,-0.1866022,-0.02060201,-0.1467679,4.650957,1.24835,-1.342574,0.2707167,1.458381,0.5641847,-0.7521694,0.09536065,10.47745,11.95629,0.03378388,0.03139655,0.3065266,-0.3202286,-0.7219699,2.733719,0.4040513,1.501268,0.4455225,-0.07873116,0.04377227,-0.04440276,-1.396294,0.2075433,0.08958048,0.5170485,1.481357,0.3045683,-0.008016892,1.671406,0.5692523,302.7054,93.74015,177.9042,True
6,2.322223,-0.1919529,-0.005666673,-0.1329671,4.650397,1.247118,-1.340085,0.2704029,1.458987,0.5642974,-0.7521081,0.004279731,10.68966,11.8063,0.007184051,0.03374415,0.1831813,-0.3183489,-0.7204943,2.733247,0.4037965,1.501421,0.4455676,-0.07742406,0.03418016,-0.02204539,-1.395839,0.2074612,0.09045853,0.5164249,1.4815,0.304745,-0.008347736,1.67225,0.5699069,302.7091,93.82059,177.7903,True
6,2.333334,-0.1962392,0.02100688,-0.1106497,4.649253,1.24687,-1.337785,0.2700526,1.459438,0.5644479,-0.7507206,0.126248,10.82228,11.63488,0.05072977,-0.006565154,0.1550294,-0.319541,-0.7174769,2.728517,0.4034558,1.501546,0.4457443,-0.0407867,0.02035229,0.01591453,-1.394424,0.207074,0.08981351,0.5158714,1.481518,0.3048987,-0.008835923,1.67288,0.5707031,302.6537,93.85196,177.784,True
6,2.344445,-0.1995066,0.06792578,-0.08200689,4.647176,1.247118,-1.335185,0.2697852,1.459738,0.5644078,-0.7491536,0.1416732,10.90185,11.78487,0.0871764,-0.02037813,0.1781393,-0.3227091,-0.7198021,2.728518,0.4030627,1.501832,0.445739,-0.02269934,0.02036566,0.0135993,-1.394314,0.2073421,0.08946144,0.5153068,1.481529,0.3050714,-0.009398572,1.673354,0.5715913,302.5016,93.80392,177.9489,True
6,2.355556,-0.1889881,0.1468005,-0.07153841,4.642732,1.247751,-1.333386,0.2692797,1.459886,0.5644655,-0.7486913,0.04078282,10.90185,12.14913,0.1033173,-0.08638668,0.1778536,-0.3258441,-0.7134007,2.720696,0.4026973,1.501973,0.4458294,-0.001750392,0.008666771,-0.02071735,-1.395665,0.2071822,0.08879139,0.5148305,1.481528,0.3051851,-0.00992409,1.673826,0.5724666,302.2691,93.65925,178.2741,True
6,2.366668,-0.1528478,0.193763,-0.07698022,4.638411,1.247915,-1.333197,0.2688252,1.460289,0.5650194,-0.7479365,0.06846431,10.79576,12.47054,0.08395547,-0.1300205,0.1427583,-0.3272945,-0.7061833,2.713759,0.4022999,1.502234,0.4457955,-0.0140839,-0.008375249,-0.07918058,-1.398457,0.2068536,0.0895211,0.5142326,1.481456,0.3052855,-0.01026309,1.674356,0.5732083,302.0966,93.39385,178.7001,True
6,2.377779,-0.1540368,0.2544712,-0.08031176,4.63375,1.247985,-1.331406,0.2683132,1.459939,0.5649524,-0.7482827,-0.03251098,10.55703,12.9205,0.08058007,-0.1235927,0.1236281,-0.3285462,-0.7038277,2.710812,0.4017688,1.502367,0.4457817,-0.03790904,-0.02010544,-0.1162151,-1.401051,0.2064612,0.09080581,0.513714,1.481462,0.305429,-0.01034347,1.675024,0.573753,302.0424,93.0303,179.1423,True
6,2.38889,-0.1658779,0.3226397,-0.07512293,4.627786,1.248726,-1.329056,0.2678082,1.459672,0.5648801,-0.7494737,-0.1088613,10.23872,13.47761,0.06761675,-0.07566433,0.1163857,-0.329171,-0.7077457,2.714164,0.4011913,1.502425,0.4458253,-0.07127442,-0.01159642,-0.1478222,-1.403668,0.2070013,0.09261409,0.5132083,1.481507,0.3055429,-0.01025515,1.675949,0.5742317,302.1649,92.66631,179.4054,True
6,2.400001,-0.1841181,0.4111082,-0.03374839,4.620853,1.251706,-1.32606,0.2671984,1.459266,0.5645964,-0.7475397,0.1773923,9.840847,14.14185,0.03738992,0.001021676,0.09124406,-0.3282762,-0.7156111,2.722237,0.4005679,1.502317,0.445894,-0.07754746,-0.002014775,-0.1360351,-1.40473,0.2074275,0.0936213,0.512644,1.481516,0.3056769,-0.01004813,1.676989,0.5748236,302.4936,92.45434,179.463,True
6,2.411112,-0.1735383,0.4665893,-0.004053555,4.614163,1.254396,-1.324237,0.2664471,1.458881,0.5643091,-0.7464579,0.09702436,9.522545,14.57039,0.01336323,0.01070779,0.02435407,-0.3264173,-0.7143224,2.721834,0.4000607,1.502056,0.4460375,-0.02346401,0.02570683,-0.0577671,-1.402397,0.2084157,0.09180928,0.5119363,1.481435,0.3058236,-0.009672085,1.67784,0.5755329,302.8842,92.13989,179.7455,True
6,2.422223,-0.170357,0.4751279,-0.005129367,4.608846,1.255627,-1.322433,0.2658651,1.459004,0.5643184,-0.7457234,0.06634105,9.310343,14.91322,0.01113122,0.005407776,0.010511,-0.3261403,-0.7134651,2.720967,0.399645,1.501878,0.4461524,0.01109121,0.04170095,-0.01338975,-1.401133,0.2091888,0.0904295,0.5113631,1.481406,0.3059609,-0.009215035,1.678583,0.5763655,303.1953,91.53293,180.4115,True
6,2.433334,-0.1479493,0.457065,-0.002982765,4.604574,1.256732,-1.321415,0.265288,1.459002,0.5642211,-0.7466758,-0.08757383,9.177716,15.27748,0.0271818,-0.04992656,0.002796773,-0.327123,-0.7062525,2.71326,0.3994048,1.501899,0.4461677,0.0477265,0.04704816,0.02563781,-1.399411,0.2097475,0.08849604,0.5108342,1.481339,0.3059597,-0.008722392,1.679291,0.5771703,303.4677,90.65496,181.4464,True
6,2.444445,-0.1191172,0.4273089,0.001319535,4.600936,1.257854,-1.321079,0.264748,1.459054,0.5642493,-0.7465043,0.01635721,9.098145,15.72745,0.04556114,-0.1010495,0.02064087,-0.3291166,-0.6999365,2.706239,0.399089,1.501765,0.4461999,0.05749243,0.02362218,0.04044819,-1.398622,0.2091471,0.08770934,0.5103726,1.481312,0.3059647,-0.008341853,1.68005,0.5778478,303.7504,89.95708,182.3009,True
6,2.455556,-0.07860254,0.4199685,0.01940255,4.596931,1.259754,-1.32143,0.264355,1.458877,0.5640352,-0.7470401,-0.04944331,9.098145,16.26312,0.07977641,-0.1563579,0.01916603,-0.3307753,-0.6901473,2.694965,0.3988651,1.50191,0.4460933,0.03682932,-0.03710849,-0.003018497,-1.400272,0.2066986,0.08837087,0.5099924,1.481229,0.3058443,-0.008168595,1.68094,0.5784307,303.9515,89.59402,182.7269,True
6,2.466667,-0.06053056,0.4305952,-0.005137257,4.591753,1.26016,-1.321457,0.2639074,1.458559,0.5638571,-0.7475408,-0.04550605,9.098145,16.73452,0.08945255,-0.1467692,0.0329564,-0.3319087,-0.6884407,2.692137,0.3984067,1.501909,0.4459269,0.006594609,-0.03819681,-0.04105017,-1.402087,0.2064236,0.08937755,0.509487,1.48121,0.3058197,-0.008111799,1.681774,0.5788986,304.1593,89.38497,182.9352,True
6,2.477778,-0.04467259,0.4635396,-0.05637325,4.584886,1.25902,-1.32155,0.2635778,1.458121,0.5638559,-0.7480553,-0.04686603,9.204244,17.01307,0.06601477,-0.066984,0.05677029,-0.3323652,-0.6959703,2.69933,0.397831,1.50199,0.4457748,-0.03544866,-0.02437168,-0.08640973,-1.404628,0.2068834,0.09115627,0.5091361,1.481209,0.3056982,-0.008125871,1.682387,0.5792445,304.3676,89.12786,183.1558,True
6,2.488889,-0.005169852,0.414589,-0.06589942,4.581826,1.258653,-1.322879,0.2632905,1.458236,0.5639503,-0.7472793,0.07104369,9.336869,17.18449,0.02528072,0.08734989,0.07238024,-0.3310272,-0.7153,2.718803,0.3974026,1.501899,0.4457641,-0.04487782,-0.02864057,-0.07246315,-1.404906,0.2065102,0.09183724,0.5086926,1.4812,0.3056123,-0.008172725,1.682609,0.579438,304.5666,88.76448,183.4675,True
6,2.5,0.03132483,0.2580088,-0.0868988,4.584086,1.25647,-1.324737,0.263051,1.458299,0.5642779,-0.7467679,0.04586163,9.442968,17.52732,0.03034619,0.09488533,0.04359319,-0.3300434,-0.7186117,2.721482,0.3971115,1.501823,0.4457567,-0.04240544,-0.04568766,-0.04159633,-1.404401,0.205348,0.0924045,0.5082126,1.481135,0.3055615,-0.008363235,1.682544,0.5796873,304.6608,88.43977,183.6265,True
6,2.511111,0.04971104,0.09818883,-0.1153354,4.587737,1.253091,-1.326369,0.2629323,1.45833,0.5645936,-0.74778,-0.09312081,9.575595,17.80587,0.0432109,0.03527568,0.03482683,-0.3309233,-0.7128132,2.714895,0.3968108,1.501781,0.4458055,-0.02382736,-0.054203,0.001882094,-1.402886,0.2042611,0.09216481,0.5077844,1.481065,0.3054323,-0.00869285,1.68234,0.5803123,304.6003,88.13605,183.7195,True
6,2.522222,0.01785764,0.02668872,-0.1428355,4.588906,1.250395,-1.325763,0.262728,1.458022,0.5648026,-0.7478806,-0.008534861,9.681698,17.78444,0.08662023,-0.02203023,-0.01466762,-0.3302075,-0.7038732,2.70398,0.3965476,1.5017,0.445899,-0.01403137,-0.02117085,0.023092,-1.401885,0.205206,0.09180129,0.5073072,1.480994,0.305268,-0.009155666,1.682041,0.5812949,304.5023,88.06477,183.8747,True
6,2.533333,0.01891431,0.0245344,-0.1545502,4.588237,1.248385,-1.326217,0.2624555,1.457654,0.5650542,-0.7471732,0.06437559,9.787797,17.3559,0.09562513,-0.005880862,-0.08075437,-0.3272247,-0.7010756,2.699823,0.3960494,1.501774,0.4458134,-0.01822397,-0.005195362,0.03059631,-1.40122,0.2056926,0.09203618,0.5069238,1.481014,0.3051608,-0.009742446,1.681473,0.5823892,304.4118,88.45502,183.8546,True
6,2.544444,0.05088849,0.01607867,-0.1609348,4.587374,1.246938,-1.328275,0.2621587,1.457371,0.5655775,-0.7447354,0.222223,9.920423,16.52025,0.08707352,0.03670095,-0.07100341,-0.3260359,-0.7063611,2.70432,0.3955568,1.501839,0.4457366,-0.03433184,-0.0009423816,0.0190489,-1.401475,0.2057854,0.09299839,0.5065059,1.481033,0.3049989,-0.01045086,1.680605,0.5834478,304.2643,88.90104,183.7701,True
6,2.555555,0.06368104,0.006496727,-0.1694502,4.587058,1.244717,-1.329734,0.2620433,1.456969,0.5659208,-0.7455434,-0.07571603,10.05305,15.85601,0.08094323,0.05577512,-0.03362237,-0.3262356,-0.7111234,2.708116,0.3951445,1.501801,0.4456406,-0.06025006,-0.01693545,-0.014768,-1.402878,0.2051758,0.09469482,0.5060721,1.481023,0.3048885,-0.01121857,1.679631,0.5844772,303.9891,88.93021,183.9132,True
6,2.566666,0.05849311,-0.07770565,-0.1671341,4.590765,1.24199,-1.330043,0.2620598,1.456554,0.565603,-0.7472388,-0.1542032,10.07958,15.66317,0.08634581,0.1047346,-0.01011626,-0.3258452,-0.7191043,2.714472,0.3948545,1.501644,0.4457233,-0.05170837,-0.02758561,-0.01380169,-1.403139,0.20451,0.09507192,0.5057485,1.480924,0.30477,-0.01195448,1.678723,0.5855275,303.7157,88.74239,184.1498,True
6,2.577777,0.07141796,-0.1554613,-0.1691177,4.594725,1.238841,-1.331661,0.2619433,1.456681,0.5656431,-0.7465219,0.06665426,10.02653,15.81315,0.1108245,0.1282218,-0.006003639,-0.3249818,-0.7255969,2.718553,0.3945426,1.501538,0.4457841,-0.02813227,-0.03396251,-0.001269793,-1.402813,0.2038783,0.09472624,0.5053253,1.480907,0.3046932,-0.01261348,1.677864,0.58662,303.5587,88.62306,184.3182,True
6,2.588888,0.103635,-0.2821314,-0.1507562,4.601766,1.236202,-1.334199,0.2619578,1.456957,0.5658553,-0.745048,0.133934,9.920423,16.22027,0.1063725,0.08248631,-0.04229593,-0.3235933,-0.7211763,2.713341,0.3943486,1.501509,0.4459169,0.009523409,-0.04565691,0.0324218,-1.401327,0.2029022,0.0934679,0.504782,1.480903,0.3046699,-0.01310511,1.676908,0.5876517,303.4539,88.67323,184.5073,True
6,2.599999,0.1217929,-0.3012532,-0.141142,4.605181,1.234174,-1.336348,0.2618634,1.457164,0.5659957,-0.7460702,-0.09470674,9.70822,16.90593,0.1010495,0.04521228,-0.0529904,-0.3230414,-0.7174833,2.708919,0.3941793,1.501541,0.4459741,0.01924533,-0.05950054,0.04403517,-1.400539,0.201658,0.09312089,0.5043616,1.480898,0.30461,-0.0134665,1.67591,0.5883588,303.2853,88.99047,184.6457,True
6,2.61111,0.152714,-0.3064822,-0.1326434,4.607911,1.2322,-1.339421,0.2618005,1.457346,0.5666189,-0.7470694,-0.090468,9.522545,17.97729,0.1119268,0.01750304,-0.03396494,-0.3237046,-0.7159482,2.705898,0.3938702,1.501646,0.4458878,2.1616E-05,-0.08081488,0.037845,-1.400466,0.2001124,0.09408496,0.5039154,1.480948,0.3044748,-0.01391595,1.675147,0.5886983,303.1026,89.52013,184.4699,True
6,2.622221,0.04171994,-0.1948038,-0.1189148,4.606025,1.231798,-1.336056,0.2617385,1.457242,0.5666134,-0.746646,0.03921003,9.363397,19.39147,0.1272096,-0.01556818,-6.316975E-05,-0.3255432,-0.7140515,2.702039,0.3937082,1.501724,0.4457083,-0.01090421,-0.09040781,0.01132249,-1.401416,0.1988785,0.09472305,0.5034869,1.480991,0.3043354,-0.01449554,1.674532,0.5885847,302.962,90.15741,183.9877,True
6,2.633332,-0.007322781,-0.1586064,-0.09550656,4.606129,1.231397,-1.334317,0.2613951,1.45728,0.5669498,-0.7472873,-0.05920171,9.23077,21.57703,0.08771189,0.02906939,0.003561396,-0.3249376,-0.7192705,2.70737,0.3932742,1.501717,0.4456444,-0.02299059,-0.08295442,-0.02263906,-1.402915,0.1983308,0.09551853,0.503143,1.480991,0.3042526,-0.01525167,1.67408,0.5881914,302.8276,90.59608,183.3745,True
6,2.644443,0.007561781,-0.131904,-0.07640013,4.606876,1.231071,-1.335201,0.261143,1.457401,0.5670063,-0.7407843,0.5947012,9.124667,24.19113,0.06316708,0.08225037,0.01348702,-0.3243469,-0.7282329,2.715887,0.3928562,1.501704,0.4457824,-0.01666664,-0.06376573,-0.02803038,-1.403291,0.1984434,0.0953915,0.5028133,1.480947,0.3043213,-0.01611822,1.67366,0.5877978,302.7206,90.85821,182.7295,True
6,2.655554,0.04378896,-0.1168513,-0.04451427,4.607752,1.231527,-1.336915,0.2605639,1.457432,0.5670865,-0.7414544,-0.06674283,8.992041,26.5481,0.0388329,0.0608524,0.02748877,-0.3250591,-0.729271,2.717263,0.3924255,1.501828,0.445868,-0.007110465,-0.05204045,-0.03026151,-1.403723,0.1983019,0.09516539,0.5023735,1.480994,0.3043001,-0.01693307,1.673513,0.5876213,302.4003,90.61054,182.6304,True
6,2.666665,0.00532275,-0.05619275,-0.04673849,4.60618,1.23113,-1.335764,0.2601126,1.457261,0.5673656,-0.7438747,-0.2206097,8.779839,28.56224,0.02043464,0.02150317,-0.0193212,-0.3239831,-0.7239095,2.712443,0.3917128,1.501947,0.4460084,-0.0198017,-0.03819875,-0.02054423,-1.403754,0.1983136,0.09582186,0.5018099,1.481126,0.3042412,-0.01750978,1.673715,0.5876645,302.1808,90.5595,182.5894,True
6,2.677776,-0.0331811,0.0321936,-0.02877122,4.603013,1.232285,-1.333818,0.2597501,1.457086,0.5671163,-0.7442539,-0.03358836,8.620689,31.30491,0.004064724,0.05882994,-0.05531759,-0.3216422,-0.7269013,2.715712,0.3913077,1.501933,0.445956,-0.02600144,-0.03607505,-0.002366768,-1.40323,0.1979139,0.09638246,0.5013269,1.481184,0.304215,-0.01776835,1.673993,0.5877801,302.2764,90.70885,182.5554,True
6,2.688887,-0.01722478,0.05998057,-0.002216442,4.601707,1.23345,-1.33406,0.2594667,1.457091,0.5668478,-0.7402996,0.3607104,8.514586,35.14035,0.0008830577,0.07798432,-0.04778895,-0.3207873,-0.7313397,2.720017,0.3910407,1.501997,0.4459281,-0.01161795,-0.04033591,0.04647946,-1.401219,0.1970208,0.09602959,0.5007908,1.481154,0.3040681,-0.0179536,1.674146,0.5879163,302.6211,90.8442,182.5095,True
6,2.699998,0.005139748,0.08033402,0.02861055,4.600758,1.235013,-1.334713,0.2591201,1.457078,0.566503,-0.7381212,0.1949851,8.381961,40.09,-0.0007043052,0.04163314,0.007535068,-0.322904,-0.7313674,2.720102,0.3908508,1.501918,0.4458058,0.01206587,-0.04992037,0.06859758,-1.399887,0.195835,0.09525408,0.5004544,1.481249,0.3040717,-0.01820462,1.674202,0.5882009,302.8106,90.66122,182.636,True
6,2.711109,0.01042542,0.1112726,0.04451638,4.598807,1.236541,-1.33483,0.2587463,1.45699,0.5662527,-0.7388802,-0.07188711,8.328911,44.84679,0.003011309,-0.008534089,0.05533183,-0.3256545,-0.7293647,2.718055,0.3906691,1.50183,0.4457414,0.02045828,-0.05311132,0.05572313,-1.399757,0.1950828,0.09481332,0.5001014,1.481262,0.3038983,-0.0184297,1.674218,0.5885745,302.801,90.1647,183.1641,True
6,2.72222,-0.01414935,0.1634785,0.05723017,4.595253,1.23862,-1.333758,0.2583026,1.457123,0.5667374,-0.7378943,0.0895953,8.381961,48.42511,0.02524839,-0.03079549,0.03166445,-0.3255704,-0.7261556,2.713943,0.3903652,1.501871,0.4456863,0.02019146,-0.06376579,0.02909213,-1.400426,0.1940278,0.09469721,0.4997337,1.481161,0.3036907,-0.01862485,1.67413,0.5888475,302.8099,89.82192,183.7015,True
6,2.733331,-0.04724116,0.2039154,0.06570096,4.592022,1.240481,-1.3319,0.2578236,1.456857,0.5666025,-0.7352977,0.2348129,8.541114,51.08207,0.02190441,-0.006277457,0.02109455,-0.3252018,-0.7279761,2.715491,0.3900211,1.501785,0.4456935,0.002563503,-0.07229251,-0.02611981,-1.402716,0.1931298,0.09541307,0.4994123,1.481084,0.3035703,-0.0189278,1.673888,0.5888836,302.8874,89.56525,184.1292,True
6,2.744442,-0.05792075,0.2252049,0.07099295,4.589362,1.2421,-1.330834,0.2571627,1.456563,0.5662291,-0.7317674,0.3189517,8.885942,53.5676,0.00463945,0.004385299,-0.002180114,-0.3243267,-0.7281367,2.716213,0.3896555,1.501665,0.4456136,-0.01039732,-0.0765626,-0.04409979,-1.403883,0.1922271,0.09593505,0.4990884,1.480925,0.3033938,-0.01951662,1.673593,0.588767,302.9072,89.26041,184.3337,True
6,2.755553,-0.05471235,0.2198891,0.07313157,4.587337,1.24352,-1.330163,0.2567915,1.456528,0.5661047,-0.7282446,0.31739,9.389919,55.51746,0.003395792,0.01614217,-0.02025374,-0.3233109,-0.7288566,2.7169,0.3894171,1.501614,0.445576,-0.002804521,-0.07655913,-0.03139638,-1.40393,0.1913674,0.09588898,0.4987735,1.480849,0.3033018,-0.02042918,1.673403,0.5887354,302.8135,88.81112,184.4715,True
6,2.766664,-0.03120073,0.1708967,0.06148601,4.587382,1.243681,-1.330548,0.2566386,1.4567,0.5656557,-0.726081,0.1930597,9.867373,55.6246,0.008804539,-0.008348164,-0.01715472,-0.3236694,-0.7264057,2.714298,0.3892357,1.501692,0.4454939,0.01115562,-0.06056813,-0.01982236,-1.403676,0.1912669,0.09528817,0.4985752,1.480764,0.3033655,-0.0214167,1.673139,0.5887459,302.7023,88.3367,184.7952,True
6,2.777775,0.02744311,0.125139,0.0338265,4.587399,1.243181,-1.332809,0.256481,1.456822,0.5654294,-0.7232618,0.2536873,10.3183,53.91044,0.01001038,-0.01903001,-0.003339661,-0.3243059,-0.7253247,2.713117,0.3890802,1.501668,0.4453976,0.02292419,-0.02967186,-0.01354547,-1.403475,0.191923,0.09444794,0.4982215,1.480747,0.303272,-0.022416,1.67274,0.5887236,302.6087,87.94765,185.1721,True
6,2.788886,0.06048821,0.1038503,0.01678902,4.586897,1.242893,-1.334562,0.2563636,1.456861,0.5650802,-0.7204618,0.2510208,10.58355,51.10349,0.02299313,-0.04566353,0.01247615,-0.3255118,-0.722689,2.709914,0.3889685,1.501705,0.445188,0.02183957,-0.01901699,-0.01566753,-1.403795,0.1921231,0.0941036,0.4980507,1.480794,0.3029199,-0.02339946,1.672199,0.5886349,302.4424,87.64223,185.4923,True
6,2.799997,0.06473016,0.1070274,0.005065456,4.58552,1.24302,-1.335327,0.2561454,1.456769,0.5649815,-0.7180298,0.2170069,10.6366,48.42511,0.03065476,-0.05741184,0.03369279,-0.3269712,-0.7211363,2.707824,0.388737,1.501745,0.4450445,0.006776478,-0.02967368,-0.03255609,-1.404828,0.1915352,0.09433103,0.4977824,1.480761,0.3027694,-0.02437142,1.67147,0.5884316,302.2362,87.5797,185.5997,True
6,2.811108,0.02744927,0.1058965,0.007240638,4.584452,1.243465,-1.334302,0.2558424,1.456614,0.5649481,-0.7127721,0.4750697,10.55703,46.30384,0.02318028,-0.02442465,0.04235902,-0.3273243,-0.7250538,2.711688,0.3884783,1.501779,0.4449005,-0.01589978,-0.04566466,-0.06214694,-1.406671,0.1906199,0.09546394,0.4975388,1.480712,0.302572,-0.02543433,1.67046,0.5882128,302.0934,87.615,185.5163,True
6,2.822219,-0.0002285307,0.09305145,0.004110774,4.583905,1.243641,-1.333285,0.2554939,1.456496,0.5648758,-0.7063411,0.5798282,10.39788,44.86822,0.01025609,0.02455171,0.04044206,-0.3267581,-0.7308489,2.717535,0.388148,1.501802,0.444803,-0.03614851,-0.05101086,-0.06407063,-1.407574,0.1899444,0.096477,0.4972977,1.480655,0.3023937,-0.02670814,1.669138,0.5880974,301.9179,87.45806,185.5507,True
6,2.83333,0.000848854,0.09200177,0.009439318,4.582989,1.244169,-1.333389,0.2551125,1.45632,0.564678,-0.6986782,0.6914993,10.2122,43.92543,0.002529522,0.04483451,0.01391875,-0.3255075,-0.7333634,2.720187,0.3879266,1.501744,0.4447401,-0.03575169,-0.06699538,-0.02785498,-1.40684,0.1885627,0.09711324,0.4970193,1.480615,0.3022373,-0.02828445,1.667586,0.5882106,301.6334,87.09045,185.7772,True
6,2.844441,0.02640581,0.09630755,0.008341134,4.581806,1.244607,-1.334583,0.2548664,1.45634,0.5644701,-0.692359,0.5675344,10.05305,43.53975,0.02681753,-0.004018132,-0.02687734,-0.3246734,-0.725876,2.711918,0.3877665,1.50177,0.4448032,-0.02045036,-0.07445258,0.007128294,-1.40582,0.1873174,0.09685145,0.4967681,1.480519,0.3022211,-0.03012794,1.665934,0.5885579,301.1832,86.5937,186.2276,True
6,2.855552,0.04132552,0.09206985,0.006202804,4.580958,1.244792,-1.335568,0.2546288,1.456277,0.5642331,-0.6869539,0.4847974,9.973473,43.94686,0.04287301,-0.0423242,-0.02922793,-0.3250537,-0.7203318,2.705657,0.3876405,1.501763,0.4447613,0.002106515,-0.06591693,0.02500025,-1.40489,0.1867656,0.09607673,0.496506,1.480463,0.3021104,-0.03209567,1.664245,0.5890433,300.6647,86.08882,186.8009,True
6,2.866663,0.03596798,0.108039,0.006176628,4.579265,1.245297,-1.335691,0.2543066,1.456211,0.5639913,-0.6810225,0.5331033,9.8939,44.80394,0.04709855,-0.05294771,-0.0356751,-0.3249259,-0.7176031,2.702596,0.3874587,1.501874,0.4446621,-0.005576842,-0.05312888,0.004847322,-1.405608,0.186813,0.09648979,0.4963326,1.480427,0.3022561,-0.0340538,1.662472,0.5895388,300.1966,85.51974,187.4738,True
6,2.877774,0.002858459,0.1591387,0.01568523,4.575738,1.246607,-1.334249,0.2540723,1.45616,0.5639558,-0.6732386,0.7016045,9.840847,45.76816,0.03868923,-0.04874162,-0.02068133,-0.3253227,-0.7167288,2.701614,0.3872386,1.502006,0.4445934,-0.02836147,-0.04355387,-0.03326264,-1.407308,0.1868036,0.09757902,0.4960991,1.480402,0.3022122,-0.03597973,1.660573,0.5899763,299.7866,84.94668,188.1277,True
6,2.888885,-0.01847398,0.1964642,0.04972661,4.572689,1.249309,-1.333006,0.2535749,1.455884,0.5637131,-0.6643745,0.7988138,9.867373,46.47525,0.01627616,0.008700866,-0.00757863,-0.3248721,-0.7233649,2.708606,0.387005,1.501892,0.4445167,-0.0339061,-0.04142233,-0.05344974,-1.40867,0.1865466,0.09819048,0.4959394,1.480356,0.3021486,-0.03791958,1.658532,0.5903342,299.3939,84.39287,188.7238,True
6,2.899997,-0.03236829,0.2391158,0.08161554,4.56933,1.252309,-1.331796,0.2532399,1.455642,0.5632648,-0.6546226,0.8791586,9.814323,46.47525,5.078316E-05,0.04385928,-0.02653987,-0.3233354,-0.726522,2.712083,0.3868744,1.501855,0.4444919,-0.02435329,-0.03715753,-0.0567442,-1.4094,0.1863026,0.09810233,0.4957598,1.480292,0.3021662,-0.03993998,1.656471,0.5906634,298.9443,83.65149,189.4082,True
6,2.911108,-0.01964455,0.2817913,0.09961782,4.565246,1.255156,-1.331588,0.2528685,1.455388,0.5627825,-0.6465207,0.7276033,9.787797,46.34669,-0.00865275,0.03537168,-0.05099004,-0.3219943,-0.7250445,2.711082,0.3867891,1.501817,0.4444776,-0.01358143,-0.0392756,-0.04621253,-1.409665,0.1858882,0.09785599,0.4956375,1.480247,0.3021126,-0.04197134,1.654542,0.5910151,298.4515,82.60278,190.3459,True
6,2.922219,0.01016315,0.2892953,0.09743874,4.562311,1.256872,-1.332443,0.2525334,1.45519,0.562274,-0.6380098,0.7661224,9.70822,46.41097,-0.007414985,-0.0498404,-0.05545633,-0.3228614,-0.7138872,2.700523,0.3867279,1.501705,0.444438,0.004781421,-0.04246077,-0.02296169,-1.409059,0.1852741,0.09728421,0.4954118,1.480181,0.3020234,-0.04389772,1.652704,0.5912327,298.0818,81.47148,191.4824,True
6,2.93333,0.02720016,0.2882436,0.08889911,4.55945,1.258303,-1.3331,0.252277,1.455023,0.5618656,-0.6301204,0.7087193,9.655171,47.48233,-0.01251502,-0.08824048,-0.03952166,-0.3239911,-0.7071308,2.694445,0.3867218,1.501578,0.4443374,0.009123294,-0.04458937,-0.01555071,-1.40902,0.1846941,0.09711537,0.4952513,1.480074,0.3020158,-0.04566965,1.650921,0.5911598,297.7901,80.3588,192.6288,True
6,2.944441,0.02396963,0.3042201,0.08566344,4.55577,1.259957,-1.332929,0.2520209,1.454978,0.5618885,-0.6219882,0.7312539,9.628648,49.8393,0.000499323,-0.06911183,-0.005494954,-0.324903,-0.7089987,2.695828,0.3866699,1.501569,0.4443419,0.006956641,-0.03713141,-0.01872133,-1.409381,0.1846135,0.09712601,0.4951083,1.480028,0.3019445,-0.04735996,1.649156,0.5907876,297.5825,79.43174,193.5008,True
6,2.955552,-0.006903119,0.3009935,0.09848948,4.552987,1.26225,-1.331434,0.2516975,1.454709,0.5616853,-0.6124839,0.8563646,9.814323,53.58903,0.003605627,-0.05417529,-0.01187859,-0.324666,-0.7082546,2.694973,0.3865108,1.50159,0.4443452,0.004595514,-0.03180355,-0.04000261,-1.41055,0.1845955,0.09714812,0.4950137,1.479935,0.3019471,-0.04908307,1.647296,0.5902054,297.3894,78.80273,193.9641,True
6,2.966663,-0.02818307,0.2945735,0.1027985,4.550372,1.264393,-1.330142,0.2514399,1.45438,0.5614443,-0.602194,0.9270505,10.02653,57.46732,-0.008317541,-0.04030831,-0.03198922,-0.3236902,-0.7066426,2.694037,0.3864286,1.501473,0.4444282,0.0001325309,-0.03606421,-0.0591282,-1.411833,0.1841445,0.09739073,0.494993,1.479931,0.3018503,-0.05095873,1.645314,0.5896087,297.1017,78.15633,194.2922,True
6,2.977774,-0.0441369,0.2881771,0.1145492,4.547925,1.26677,-1.328687,0.251121,1.454085,0.5612209,-0.5914268,0.9702061,10.2122,61.19563,-0.02330304,-0.02542153,-0.03609296,-0.3230803,-0.706596,2.694752,0.3862695,1.501355,0.4444897,0.001069024,-0.02860623,-0.07085394,-1.41296,0.184162,0.09731963,0.4948799,1.479891,0.3018539,-0.053022,1.643262,0.589217,296.7156,77.25346,194.8304,True
6,2.988885,-0.03024305,0.2594154,0.1039364,4.546258,1.267832,-1.3288,0.250854,1.453949,0.5610373,-0.5820546,0.842402,10.37135,64.28112,-0.03716346,-0.02864369,-0.03811787,-0.3228571,-0.7046439,2.693779,0.3861789,1.501178,0.4444277,0.007613286,-0.02434201,-0.05601081,-1.413083,0.1840612,0.09707302,0.4947502,1.479966,0.3017545,-0.05511472,1.641096,0.5889892,296.2827,76.1647,195.7298,True
6,2.999996,-0.004589658,0.1997526,0.07953721,4.546126,1.267919,-1.329658,0.2507344,1.453941,0.5609601,-0.5725093,0.8593309,10.47745,66.23099,-0.03708239,-0.0222786,-0.02638537,-0.3229573,-0.7047635,2.694302,0.3861999,1.501094,0.444402,0.02931763,-0.02540041,-0.01895199,-1.411984,0.1835859,0.09601334,0.4946835,1.479894,0.3017662,-0.05712599,1.638828,0.5888384,295.8548,75.04392,196.7955,True
6,3.011107,0.01576712,0.1198338,0.04879255,4.547162,1.267148,-1.330593,0.2508447,1.45398,0.5609694,-0.5641768,0.7479509,10.55703,66.91665,-0.004905827,-0.06058061,-0.01182594,-0.3241568,-0.6996382,2.688291,0.3862407,1.500943,0.4443161,0.03158335,-0.01687546,-0.005129087,-1.411617,0.1836588,0.09566474,0.4945988,1.479855,0.3017244,-0.05907191,1.636544,0.5887111,295.4441,73.94769,197.8768,True
6,3.022218,0.01903169,0.06971838,0.02439624,4.547795,1.266453,-1.330996,0.2508297,1.453847,0.5609956,-0.5549506,0.8304226,10.58355,66.10242,0.0110721,-0.06373447,-0.01303045,-0.3243549,-0.697018,2.685104,0.386205,1.500889,0.4443004,0.0187016,-0.001971678,-0.0135094,-1.412015,0.1841909,0.09583864,0.4945132,1.479818,0.3016922,-0.06098748,1.634228,0.5886139,295.0462,73.14914,198.6412,True
6,3.033329,0.01164589,0.01317601,-0.006364923,4.549349,1.264813,-1.331149,0.2509609,1.453747,0.5611985,-0.5447422,0.9193134,10.58355,63.83115,0.03125196,-0.0444983,-0.0152932,-0.3237956,-0.6974073,2.684421,0.3859996,1.500896,0.4443846,-0.006132901,0.0001472225,-0.04520969,-1.413676,0.1844935,0.09665144,0.4945166,1.479781,0.3015928,-0.0628776,1.63177,0.5885805,294.6097,72.62473,199.099,True
6,3.04444,0.006403263,-0.04118957,-0.01902974,4.551101,1.263751,-1.331126,0.2508895,1.453826,0.5614507,-0.533747,0.9902381,10.58355,60.29569,0.02699107,-0.02748094,-0.009890652,-0.3238377,-0.6980808,2.684981,0.3858892,1.500827,0.4443505,-0.009535778,-0.009439273,-0.06434908,-1.414979,0.1841682,0.09700485,0.4945099,1.479557,0.3016186,-0.06474283,1.629083,0.5886663,294.1247,72.16824,199.4826,True
6,3.055551,0.004394212,-0.1158015,-0.03590828,4.554551,1.261887,-1.331389,0.2510193,1.453979,0.5616605,-0.5226443,0.9994875,10.71618,56.69595,0.02041363,0.008749781,-0.02147254,-0.3226425,-0.7012708,2.688039,0.3858569,1.500699,0.4443123,6.020069E-06,-0.009431893,-0.06871203,-1.415914,0.1841407,0.09669965,0.4944634,1.479449,0.3016226,-0.06664303,1.626171,0.588935,293.6144,71.55182,200.046,True
6,3.066662,0.01620474,-0.1712133,-0.05497954,4.557715,1.259743,-1.332491,0.2510615,1.454133,0.5619531,-0.5117381,0.9813861,11.00796,53.28905,0.03126312,-0.001925213,-0.001344141,-0.3234862,-0.7008052,2.686823,0.385871,1.500536,0.4442704,0.01179944,-0.0072973,-0.06244691,-1.416386,0.1841639,0.09602533,0.4943621,1.479357,0.3014798,-0.06861483,1.623096,0.589442,293.0149,70.827,200.7712,True
6,3.077773,0.04294592,-0.2425869,-0.07722494,4.56246,1.256866,-1.334357,0.2512404,1.454432,0.5621068,-0.5009624,0.9695173,11.45889,50.48211,0.05383364,-0.02960366,0.01438652,-0.3246713,-0.6981413,2.682944,0.3859167,1.500514,0.4442198,0.0352941,0.005501924,-0.05630146,-1.416726,0.1846997,0.09479495,0.4942884,1.479304,0.3014457,-0.0706941,1.619966,0.5901572,292.3626,69.96899,201.74,True
6,3.088884,0.05679586,-0.2500465,-0.09214045,4.564768,1.254741,-1.335808,0.251493,1.454775,0.562361,-0.4905516,0.9359413,12.01592,48.48939,0.07640491,-0.04556727,0.03333721,-0.3259262,-0.6966864,2.679932,0.3858109,1.500619,0.4443035,0.03957689,0.01083355,-0.05422008,-1.417295,0.1850989,0.09413262,0.4942645,1.479211,0.3014166,-0.07277241,1.616761,0.5909549,291.6646,69.22397,202.6729,True
6,3.099995,0.04185725,-0.2351535,-0.08895996,4.566545,1.253408,-1.335925,0.2515283,1.454904,0.5624843,-0.4797456,0.9721161,12.65252,46.92522,0.06042197,-0.03070344,0.03776568,-0.3263587,-0.6979588,2.681077,0.3857568,1.500568,0.4442933,0.01824735,-0.003028562,-0.05718867,-1.418024,0.1846886,0.09474302,0.494215,1.47916,0.3014016,-0.07483511,1.613456,0.5917844,290.9945,68.56879,203.515,True
6,3.111106,-0.01470579,-0.1691752,-0.07093228,4.566015,1.25334,-1.333822,0.2514015,1.454852,0.5626266,-0.4676884,1.086021,13.31565,45.61817,0.03353867,0.009755041,0.01890284,-0.3252199,-0.7017094,2.685156,0.3856221,1.500568,0.4442878,-0.0135484,-0.02116471,-0.0430064,-1.418182,0.1837827,0.09610869,0.4941388,1.479127,0.3013058,-0.07685196,1.609978,0.5925846,290.3083,67.89023,204.3557,True
6,3.122217,-0.1074927,-0.09685133,-0.04435392,4.565016,1.253865,-1.329654,0.2514635,1.454915,0.5627072,-0.4544583,1.192267,13.84615,44.33255,0.009105666,0.01180001,0.02763431,-0.3256966,-0.7027637,2.686804,0.3855999,1.500497,0.4442866,-0.01549518,-0.02330076,-0.02593778,-1.417871,0.1834087,0.09637368,0.4940371,1.479042,0.3013251,-0.07885122,1.606381,0.5933806,289.6525,66.69146,205.647,True
6,3.133328,-0.142656,-0.07662097,-0.01879036,4.565328,1.254464,-1.326772,0.2513974,1.455133,0.5627816,-0.4403047,1.275885,14.19098,43.28262,0.01440976,0.003307194,0.02224376,-0.3259166,-0.7021898,2.685905,0.3856384,1.500371,0.4443359,0.01553972,0.001223181,-0.01241981,-1.417535,0.1843058,0.09479415,0.4939248,1.479127,0.3014944,-0.0808863,1.602768,0.594135,289.0561,65.01833,207.4271,True
6,3.144439,-0.1490708,-0.05743191,-0.007104516,4.565452,1.254781,-1.324918,0.2512375,1.455624,0.5628092,-0.4262272,1.268342,14.37666,42.68266,0.02079332,-0.001997812,0.02004843,-0.3260945,-0.7019411,2.685233,0.3856478,1.50035,0.4443738,0.04437757,0.007629369,-0.005277145,-1.417538,0.1845395,0.09328601,0.4938484,1.479009,0.3014123,-0.08293147,1.599351,0.5947843,288.4814,62.69842,209.8349,True
6,3.15555,-0.1490767,-0.04460728,0.01203852,4.565794,1.255347,-1.32329,0.2513333,1.456012,0.5626934,-0.4154744,0.9645594,14.29708,42.42554,0.03714234,-0.1106483,0.03245345,-0.328976,-0.6895323,2.672542,0.3858484,1.500341,0.4443331,0.07615623,-0.01364863,-0.02372567,-1.418348,0.1838007,0.09147825,0.4938342,1.478938,0.3013763,-0.08482368,1.596385,0.5952221,287.8714,60.11915,212.4986,True
6,3.166661,-0.1608457,-0.01800306,0.01092907,4.565168,1.2556,-1.321057,0.251501,1.456549,0.5626163,-0.4047403,0.9655187,14.11141,41.97557,0.03950596,-0.1479652,0.04939372,-0.3312024,-0.683556,2.66638,0.3858356,1.500314,0.4442208,0.06727675,-0.02749432,-0.05879629,-1.420274,0.1832791,0.09107904,0.4938126,1.478813,0.301193,-0.08546153,1.594949,0.5953419,287.4034,58.99189,213.7277,True
6,3.177772,-0.1896484,-0.001026977,0.004533405,4.564506,1.255595,-1.317872,0.2515788,1.45708,0.5626013,-0.3931151,1.04658,13.81963,40.92565,0.05348812,-0.110709,0.0770634,-0.3327822,-0.6862287,2.667898,0.3857994,1.500488,0.4441552,0.01450107,-0.03924061,-0.1136357,-1.423414,0.1827486,0.09275684,0.4938077,1.478746,0.3011706,-0.08613859,1.594481,0.5952811,287.7505,59.68293,213.0885,True
6,3.188883,-0.2013267,-0.01381381,0.01309673,4.565209,1.255805,-1.31526,0.2514549,1.457766,0.5626886,-0.380439,1.141972,13.42175,39.6186,0.04392308,-0.08305857,0.08786005,-0.3339306,-0.6882713,2.669582,0.3856621,1.500553,0.4441104,-0.007901877,-0.04564278,-0.1176678,-1.424947,0.1822726,0.0935406,0.4938543,1.478716,0.3011565,-0.086603,1.594188,0.5950672,287.8586,60.60419,212.2196,True
6,3.199994,-0.2108125,-0.06816809,0.01109759,4.5678,1.255221,-1.312795,0.2514174,1.458596,0.5628502,-0.3674997,1.165465,13.0504,38.31155,-0.003871769,-0.04276283,0.1181771,-0.3355482,-0.6934315,2.676116,0.3854951,1.500671,0.4440775,-0.01186637,-0.043523,-0.08991724,-1.424827,0.1817919,0.09378854,0.4937057,1.478751,0.3011985,-0.08698935,1.593967,0.5948945,287.9225,61.40554,211.4269,True
6,3.211105,-0.2639486,-0.1407253,0.003862597,4.571565,1.254044,-1.308384,0.2514229,1.459566,0.5631433,-0.3563128,1.005301,12.83819,37.34733,-0.03003161,-0.04295635,0.1748551,-0.3391312,-0.6971804,2.680724,0.385445,1.500826,0.4440563,-0.002881914,-0.02754388,-0.04526747,-1.423811,0.1819742,0.09342875,0.4936071,1.47885,0.3013072,-0.08740327,1.593814,0.5948846,288.0127,61.7222,211.0708,True
6,3.222216,-0.3033403,-0.1567815,0.002883568,4.573552,1.253559,-1.303838,0.2515162,1.460269,0.5632944,-0.3449651,1.021626,12.65252,36.34026,-0.04823712,-0.05149123,0.1611378,-0.340752,-0.6966499,2.68134,0.3854563,1.500844,0.4440477,0.01136132,-0.02540606,-0.008135619,-1.42285,0.1816951,0.09285457,0.4935005,1.478893,0.3013639,-0.08793248,1.593675,0.5949687,288.1387,61.79317,210.9401,True
6,3.233327,-0.3395274,-0.1781701,-0.003418669,4.576069,1.252612,-1.298986,0.2516175,1.461248,0.56359,-0.3317404,1.193111,12.46684,34.92608,-0.01832534,-0.094024,0.1586595,-0.3431446,-0.6918565,2.676044,0.38555,1.500995,0.4440451,0.02421121,-0.02433287,-0.001879594,-1.422657,0.1814187,0.09218878,0.4933675,1.478835,0.3015053,-0.08850653,1.593543,0.5950423,288.2092,61.97791,210.6516,True
6,3.244438,-0.3533123,-0.215493,-0.007578775,4.579413,1.251498,-1.294899,0.2517704,1.462229,0.5638287,-0.3206963,0.9926554,12.36074,33.64045,0.01721734,-0.1291743,0.1945069,-0.3473614,-0.6893228,2.672139,0.3855621,1.501081,0.4440444,0.02195186,-0.01474575,-0.01357706,-1.423342,0.1816325,0.09200156,0.4933113,1.478779,0.301549,-0.08906656,1.593503,0.5951049,288.1384,62.12682,210.3674,True
6,3.255549,-0.3648649,-0.3146297,-0.02652216,4.585784,1.248699,-1.290842,0.2519191,1.463481,0.5643058,-0.3099046,0.9716881,12.22811,33.04049,0.03126794,-0.1228068,0.2210304,-0.3508289,-0.6908416,2.672739,0.3854145,1.501161,0.4440894,-0.000858292,0.01720395,-0.05274819,-1.42514,0.1831024,0.09258346,0.4932953,1.478702,0.3016646,-0.08951868,1.593513,0.5951775,287.9931,62.12393,210.2699,True
6,3.26666,-0.3743048,-0.4052417,-0.04654066,4.592629,1.245615,-1.286849,0.252067,1.464723,0.5647118,-0.3004174,0.852555,12.14854,32.41911,-0.006240532,-0.07812394,0.207592,-0.352154,-0.6947604,2.677714,0.3853481,1.501525,0.4440296,-0.01616116,0.03531291,-0.08880275,-1.427165,0.1843489,0.09300397,0.4932575,1.478745,0.3018293,-0.08998373,1.593589,0.5953007,287.8342,61.94047,210.3496,True
6,3.277771,-0.3784939,-0.4478779,-0.05389868,4.598518,1.242993,-1.282782,0.2522819,1.465905,0.5651248,-0.2903953,0.9026867,12.09549,31.28348,-0.01674132,-0.07180418,0.2279346,-0.3552721,-0.6973495,2.680674,0.3853287,1.501804,0.4440258,-0.01847086,0.0331836,-0.1058243,-1.428898,0.1848191,0.09322848,0.4932203,1.478685,0.3019619,-0.09046576,1.593657,0.5954196,287.6719,61.89404,210.2535,True
6,3.288882,-0.3592135,-0.5032355,-0.05165954,4.605317,1.240623,-1.279687,0.2525854,1.467176,0.5654066,-0.2807488,0.8679929,11.98939,29.8693,0.007092834,-0.09101693,0.2692435,-0.3599374,-0.6982238,2.680429,0.3852646,1.502034,0.4439178,-0.03141132,0.009748645,-0.1227359,-1.430808,0.1843251,0.09391584,0.4930672,1.478721,0.302078,-0.0910625,1.593729,0.5955371,287.4889,62.0862,209.8082,True
6,3.299993,-0.3516883,-0.5405099,-0.05264278,4.611963,1.238076,-1.276248,0.2527239,1.468511,0.5657957,-0.2713149,0.8490547,11.85676,28.3694,0.01896453,-0.02609168,0.3076459,-0.363416,-0.7088594,2.689764,0.3851988,1.502236,0.4439452,-0.04305916,0.00548031,-0.1162186,-1.431838,0.1843752,0.09477684,0.4929731,1.478728,0.3022335,-0.09163566,1.593784,0.5956548,287.2116,62.28638,209.3326,True
6,3.311104,-0.3452253,-0.5820583,-0.05895044,4.61921,1.234974,-1.272981,0.2529894,1.469829,0.5662014,-0.2631874,0.7300121,11.77719,27.04092,-0.01330851,-0.05163106,0.2620377,-0.3650821,-0.7070948,2.689283,0.3851703,1.502501,0.4440398,-0.05424353,-0.01158449,-0.06710198,-1.431084,0.1836381,0.09586821,0.492876,1.478624,0.3021595,-0.09208824,1.593837,0.5957863,286.9194,62.36231,209.0401,True
6,3.322215,-0.3504668,-0.6108057,-0.06206754,4.625616,1.232232,-1.269523,0.2532935,1.471521,0.5681956,-0.2540554,0.8230439,11.75066,26.05528,-0.03030944,-0.06658862,0.2632099,-0.3682363,-0.707371,2.690491,0.3851818,1.502692,0.4440451,-0.04655511,-0.02010611,-0.04694404,-1.431098,0.1831557,0.09600776,0.492775,1.478525,0.3021939,-0.09243561,1.593871,0.5958771,286.6549,62.54435,208.7199,True
6,3.333326,-0.3792207,-0.6129819,-0.05776748,4.631986,1.22966,-1.264657,0.253639,1.472785,0.5686743,-0.2454934,0.7701508,11.64456,25.11249,-0.02711436,-0.1017132,0.2524423,-0.3714609,-0.7043456,2.687821,0.3851783,1.502734,0.4439826,-0.03358766,-0.0264921,-0.03003655,-1.430908,0.1826169,0.09601441,0.4926456,1.478485,0.3023427,-0.0928864,1.593936,0.5959656,286.4687,62.88734,208.2152,True
6,3.344437,-0.3983724,-0.6215346,-0.05237094,4.638906,1.227471,-1.259807,0.2538933,1.474306,0.5689709,-0.2369478,0.7693699,11.45889,23.97686,-0.01307504,-0.08363451,0.2811325,-0.3753294,-0.7085942,2.691431,0.3852466,1.502941,0.4439862,-0.03701837,-0.01583919,-0.05344009,-1.432373,0.1829179,0.09621309,0.4925268,1.478651,0.3025301,-0.0933672,1.594041,0.5961661,286.0878,63.11701,207.6111,True
6,3.355548,-0.4079273,-0.6407352,-0.05551302,4.645985,1.224417,-1.255178,0.2540968,1.475704,0.5694973,-0.2275048,0.8516978,11.22016,23.01264,0.03325295,-0.1209238,0.3328641,-0.3814536,-0.7093391,2.690074,0.3853182,1.503167,0.4440098,-0.03923944,0.00120542,-0.06087102,-1.433223,0.1835895,0.09661256,0.4924448,1.478591,0.3026576,-0.09411119,1.594236,0.5967077,285.9424,62.71716,207.3857,True
6,3.366659,-0.3993616,-0.667354,-0.05758896,4.653596,1.221227,-1.251228,0.254191,1.477123,0.5699821,-0.2197433,0.6974846,10.95491,22.15556,0.03099507,-0.1347342,0.3126106,-0.3846691,-0.7076243,2.688231,0.3853319,1.5034,0.4440212,-0.03728925,0.01079906,-0.07794157,-1.434686,0.1842051,0.09677475,0.4923927,1.47859,0.3028929,-0.09460456,1.594424,0.5972283,285.6381,61.40293,208.3818,True
6,3.37777,-0.3897902,-0.6684296,-0.06398079,4.660605,1.218108,-1.247431,0.2542695,1.478423,0.5700147,-0.2125511,0.6470187,10.79576,21.21277,0.04389513,-0.1837071,0.3123941,-0.3893366,-0.7033254,2.683372,0.3850809,1.503819,0.4440632,-0.04192359,0.01293429,-0.1130466,-1.437104,0.1846396,0.09731111,0.4923263,1.478549,0.3030319,-0.09507149,1.594649,0.5975273,285.366,60.57388,209.0808,True
6,3.388881,-0.3802915,-0.6279647,-0.076866,4.665589,1.215027,-1.243698,0.2542765,1.479714,0.570338,-0.206191,0.5715935,10.74271,20.2057,0.02363887,-0.19014,0.3082852,-0.3933228,-0.7018101,2.682287,0.3848469,1.504121,0.4440491,-0.06439891,0.0235734,-0.1223984,-1.438672,0.18539,0.09859821,0.4922025,1.478253,0.302963,-0.09557146,1.594879,0.5976418,284.9524,60.46019,209.0309,True
6,3.399992,-0.3707572,-0.6034666,-0.08545995,4.670893,1.211881,-1.239962,0.2541931,1.481085,0.5705488,-0.1996055,0.5928741,10.71618,19.34862,-0.03644837,-0.1188448,0.2780501,-0.3948605,-0.7062392,2.688814,0.3844495,1.504546,0.4440324,-0.08573411,0.02675905,-0.1253667,-1.440044,0.1859795,0.1000811,0.4920638,1.478202,0.303036,-0.09616108,1.595071,0.5976683,284.579,60.87568,208.4352,True
6,3.411103,-0.3239344,-0.5553642,-0.05153276,4.675344,1.210878,-1.23783,0.2540877,1.482401,0.5708718,-0.1930781,0.5874431,10.71618,18.49153,-0.04585841,-0.04333393,0.3219822,-0.3985271,-0.7165648,2.699097,0.384106,1.504993,0.4439979,-0.1226614,0.01607436,-0.09195276,-1.440056,0.1858299,0.1026896,0.4917632,1.478183,0.3032176,-0.09677324,1.595233,0.5976721,284.2113,61.30552,207.8652,True
