loc,t,aDotS,bDotS,gDotS,aS,bS,gS,xS,yS,zS,qE,qDotE,emgA,emgB,aDotSH,bDotSH,gDotSH,aSH,bSH,gSH,xSH,ySH,zSH,aDotUB,bDotUB,gDotUB,aUB,bUB,gUB,xUB,yUB,zUB,xHand,yHand,zHand,aHand,bHand,gHand,enable
0,0,1.071667,-0.2209232,0.2591904,-1.558796,-4.550979,-2.592078,0.3346937,1.256483,0.4692686,-0.7308689,-0.05804409,13.7931,12.98479,-0.1346406,0.5910084,-0.4610997,-0.4374045,-3.428533,-0.7481778,0.3713897,1.456638,0.4126194,-0.0479098,0.3609858,0.4764221,-1.057234,0.2517207,-0.06393504,0.5042996,1.502491,0.2512863,0.03111172,1.125574,0.3819257,283.2936,293.7358,334.8034,True
0,0.01111111,0.9541874,-0.1683238,0.1654401,-1.557556,-4.551869,-2.598408,0.3350459,1.256191,0.4692838,-0.7277322,0.2878162,13.5809,12.87765,-0.09754014,0.5302052,-0.3730941,-0.4408842,-3.423616,-0.7528282,0.3704536,1.456538,0.412286,-0.01966968,0.3216171,0.4239022,-1.054492,0.2544953,-0.06607063,0.5036561,1.502759,0.2511895,0.03867238,1.113275,0.3735684,289.444,283.3363,339.784,True
0,0.02222222,0.8292578,-0.1189275,0.07703168,-1.556161,-4.553071,-2.603414,0.3353333,1.255974,0.4693713,-0.7290244,-0.1201854,13.52785,12.79194,-0.07574749,0.4790446,-0.3307554,-0.4448427,-3.421103,-0.7551087,0.3696103,1.456175,0.4119914,-0.004415959,0.2662734,0.351276,-1.052987,0.2559697,-0.06724002,0.5029587,1.502957,0.2510393,0.04265434,1.109183,0.3671277,285.7715,261.1396,0.4549585,True
0,0.03333334,0.7065503,-0.09189354,-0.008117884,-1.553641,-4.554308,-2.607403,0.3354316,1.255906,0.4694993,-0.7265444,0.2285361,13.5809,12.74909,0.0004992485,0.3715625,-0.2911121,-0.4466094,-3.423723,-0.755334,0.3692698,1.456103,0.41188,0.003612489,0.2364792,0.3021683,-1.051476,0.2579137,-0.06852127,0.5023346,1.503199,0.2509134,0.04377553,1.108855,0.3638343,285.8582,249.8571,11.45677,True
0,0.04444445,0.5838824,-0.072276,-0.08043271,-1.550878,-4.555624,-2.60996,0.3354301,1.255729,0.4697232,-0.7257966,0.06693946,13.687,12.70623,0.05207309,0.3002601,-0.2597084,-0.4487634,-3.424727,-0.7565899,0.368852,1.456107,0.4119532,0.023408,0.1843283,0.2571931,-1.050012,0.258543,-0.06967682,0.5015966,1.503445,0.2507579,0.04396161,1.108849,0.3631212,285.9219,248.4698,13.08151,True
0,0.05555556,0.5113543,-0.06411511,-0.12084,-1.548465,-4.556416,-2.613416,0.3355998,1.255662,0.469897,-0.7257268,0.006704683,13.7931,12.68481,0.07150152,0.253407,-0.2439732,-0.4513813,-3.42559,-0.7571188,0.3682816,1.455934,0.4118652,0.05416393,0.1417515,0.2419447,-1.047565,0.2591916,-0.07160468,0.5011222,1.503607,0.250598,0.04373883,1.108807,0.3640277,285.7481,252.1559,9.590592,True
0,0.06666667,0.4100744,-0.06247314,-0.1739761,-1.54486,-4.557825,-2.614379,0.3356558,1.255766,0.4702389,-0.7253359,0.03648328,13.87268,12.74909,0.08336264,0.2086892,-0.2409646,-0.4537217,-3.428461,-0.7558794,0.3679698,1.455816,0.4118102,0.0733189,0.09915358,0.2374582,-1.045051,0.258996,-0.0729842,0.5005612,1.503782,0.2504513,0.04352362,1.10857,0.3654368,285.5575,257.1388,4.605083,True
0,0.07777778,0.3151495,-0.03943466,-0.2048194,-1.54232,-4.55972,-2.614964,0.3356929,1.255843,0.4704435,-0.7271884,-0.1689301,13.84615,12.79194,0.1155983,0.1501489,-0.2264331,-0.4549174,-3.43238,-0.7547579,0.3679744,1.455758,0.4118526,0.08282471,0.07360341,0.2288306,-1.042672,0.2593561,-0.07423481,0.4999619,1.504006,0.2501974,0.04345676,1.108229,0.3666875,285.4012,261.2014,0.4036734,True
0,0.08888889,0.223364,0.00709989,-0.2186881,-1.540655,-4.562564,-2.614304,0.3358336,1.2559,0.4707203,-0.7258765,0.1220626,13.66048,12.77051,0.15529,0.08524194,-0.2140948,-0.4553052,-3.437395,-0.7534416,0.368017,1.455716,0.4118309,0.09025921,0.03632508,0.2244692,-1.040283,0.2584985,-0.0750809,0.4995286,1.504135,0.2499385,0.04364449,1.107898,0.3674926,285.2032,264.0526,357.3882,True
0,0.1,0.1486509,0.047293,-0.2325552,-1.538959,-4.565533,-2.613862,0.335907,1.25599,0.4709575,-0.7262983,-0.03903865,13.3687,12.70623,0.1725774,0.06393173,-0.1919062,-0.4564445,-3.439532,-0.7541074,0.3679608,1.455673,0.4118745,0.09009077,-0.006272256,0.2052701,-1.038497,0.2570417,-0.07538477,0.4989834,1.50421,0.2496469,0.0437329,1.107697,0.3680071,285.0994,265.2235,355.9608,True
0,0.1111111,0.1070076,0.07484043,-0.23791,-1.537389,-4.568507,-2.61358,0.3361594,1.256027,0.4712007,-0.7261285,0.01671377,12.97082,12.5991,0.1750166,0.0116946,-0.1707259,-0.4562011,-3.444136,-0.7519848,0.3680726,1.455716,0.4118624,0.09928651,-0.05737637,0.16466,-1.037837,0.2542844,-0.07543723,0.4986113,1.504362,0.2493172,0.04371235,1.107646,0.3683577,285.1084,265.9622,355.0193,True
0,0.1222222,0.05252444,0.1172514,-0.2464909,-1.536112,-4.572331,-2.612363,0.336473,1.25618,0.4714921,-0.7272661,-0.1035008,12.65252,12.49196,0.1859084,-0.02559416,-0.1538494,-0.4561548,-3.448568,-0.7504889,0.3681315,1.455745,0.4119599,0.1098229,-0.08824563,0.1517467,-1.036418,0.2522859,-0.07599783,0.4982315,1.504406,0.2490609,0.04357279,1.107678,0.3686987,285.2257,266.7661,354.0388,True
0,0.1333333,0.002316077,0.1372503,-0.2720563,-1.534064,-4.576142,-2.610733,0.3367712,1.25642,0.4717569,-0.7283996,-0.102163,12.49337,12.3634,0.2097396,-0.04905458,-0.1136082,-0.4552924,-3.450819,-0.7517382,0.368564,1.455904,0.4119022,0.1161211,-0.1180638,0.1410099,-1.03507,0.2495775,-0.07616801,0.4979011,1.504506,0.2487683,0.04342378,1.107723,0.3690843,285.3531,267.734,352.9046,True
0,0.1444445,-0.03499376,0.1498642,-0.2890875,-1.531675,-4.579871,-2.608991,0.3371232,1.256712,0.4720502,-0.7283469,0.006164061,12.51989,12.25627,0.2215729,-0.03414838,-0.09449603,-0.4556866,-3.45115,-0.754269,0.3687295,1.455971,0.4118824,0.1170497,-0.1244425,0.1271461,-1.033983,0.2480483,-0.07672141,0.4976438,1.504602,0.2485161,0.04334197,1.107744,0.3695315,285.4249,268.8936,351.584,True
0,0.1555556,-0.05418752,0.1572503,-0.2912071,-1.529859,-4.582977,-2.607824,0.3375235,1.257097,0.4722183,-0.7286153,-0.02419317,12.81167,12.21341,0.2332077,-0.02131973,-0.1009579,-0.4569132,-3.452919,-0.7556307,0.3690661,1.45604,0.4119177,0.123275,-0.1350752,0.1100292,-1.033206,0.2461343,-0.07735977,0.4974304,1.504797,0.2482617,0.04324207,1.107791,0.3700589,285.5214,270.282,350.0235,True
0,0.1666667,-0.08624022,0.1869868,-0.2869937,-1.528873,-4.587202,-2.605564,0.3379023,1.257445,0.4725113,-0.7291985,-0.05268094,13.23607,12.19199,0.228706,-0.02446321,-0.1318228,-0.4584792,-3.457459,-0.7539436,0.3694053,1.456179,0.411871,0.1316851,-0.1499794,0.09821412,-1.032323,0.2436609,-0.07786044,0.497186,1.504914,0.2478702,0.04271646,1.10781,0.3713413,286.1789,276.8454,344.0945,True
0,0.1777778,-0.1086981,0.2135326,-0.2923681,-1.527685,-4.591697,-2.603589,0.338258,1.257812,0.4729505,-0.7303964,-0.1086985,13.63395,12.21341,0.2351167,-0.02445614,-0.129746,-0.4592472,-3.460118,-0.7543489,0.3699889,1.45634,0.4118118,0.1413028,-0.1840586,0.09915961,-1.030924,0.2402584,-0.07798668,0.4970494,1.504994,0.2474632,0.04249346,1.107715,0.372594,286.5568,280.0418,340.5307,True
0,0.1888889,-0.1343729,0.2400332,-0.3083943,-1.526122,-4.596761,-2.601028,0.3386605,1.258237,0.4733272,-0.7299842,0.03896113,13.95225,12.23484,0.2427546,-0.04470998,-0.1138691,-0.4589702,-3.463184,-0.7545558,0.3704048,1.456508,0.4117393,0.1380202,-0.2064261,0.08959237,-1.030021,0.2367867,-0.07762609,0.496851,1.505081,0.2470703,0.04236287,1.107732,0.3734328,286.9373,282.7123,337.8928,True
0,0.2,-0.1728249,0.2557754,-0.3456786,-1.523516,-4.60224,-2.597685,0.3391047,1.25871,0.4737461,-0.7306904,-0.06462105,14.27056,12.34197,0.2528935,-0.09166262,-0.0607852,-0.4562927,-3.465756,-0.7554666,0.37087,1.456695,0.4116251,0.1262169,-0.2383861,0.0801139,-1.029073,0.2325671,-0.0763744,0.4967026,1.50503,0.2466083,0.04219963,1.107808,0.3740669,287.203,283.8771,336.4557,True
0,0.2111111,-0.1995628,0.2747662,-0.3776599,-1.520937,-4.608152,-2.594276,0.3395127,1.259168,0.4741843,-0.7306553,0.004062292,14.42971,12.47054,0.2532592,-0.115176,-0.02248459,-0.4540817,-3.467571,-0.7565857,0.3712847,1.456913,0.411552,0.1068857,-0.2607556,0.06432442,-1.028565,0.2284153,-0.07473123,0.4965768,1.505014,0.2461665,0.04206936,1.107939,0.3745767,287.4489,284.3454,335.6494,True
0,0.2222222,-0.2423575,0.3139179,-0.4182015,-1.518349,-4.615256,-2.589791,0.3399969,1.259807,0.4746387,-0.7303149,0.03133912,14.16445,12.5991,0.2511585,-0.1034786,-0.01498633,-0.4535049,-3.468577,-0.7583993,0.3717209,1.457088,0.4114556,0.08442296,-0.2756796,0.05496238,-1.027952,0.2243038,-0.07280923,0.4965038,1.505,0.2457845,0.04205873,1.108087,0.375161,287.7764,284.4886,335.1474,True
0,0.2333333,-0.272301,0.3371668,-0.4480611,-1.515644,-4.622316,-2.585334,0.3403521,1.260448,0.4752071,-0.7306814,-0.03350005,13.42175,12.70623,0.2404313,-0.08431873,-0.0180613,-0.4538069,-3.469328,-0.7599825,0.372252,1.457297,0.4113491,0.07258077,-0.2841985,0.04229216,-1.027685,0.2204397,-0.07134875,0.4963609,1.504898,0.2453628,0.04207543,1.108264,0.3758473,288.1495,284.4278,334.729,True
0,0.2444444,-0.3182326,0.3560104,-0.5066411,-1.511803,-4.629965,-2.58006,0.3404525,1.261313,0.4759684,-0.7301706,0.04738666,12.54642,12.81337,0.2372743,-0.05452946,-0.003058404,-0.4539592,-3.467514,-0.7639834,0.3729321,1.457688,0.4113963,0.05652871,-0.2916615,0.03499753,-1.02729,0.2163963,-0.0693623,0.4962573,1.504855,0.2449729,0.04210494,1.108465,0.3766214,288.5735,284.3013,334.3297,True
0,0.2555556,-0.3364357,0.369694,-0.5418147,-1.508085,-4.637584,-2.575413,0.3407611,1.262253,0.4764855,-0.7305983,-0.03919415,11.75066,12.94193,0.245021,-0.07055172,0.02774088,-0.4521504,-3.467555,-0.7669345,0.3736326,1.458026,0.4113505,0.03711882,-0.3140336,0.01066997,-1.027867,0.2113604,-0.06664187,0.4963298,1.50475,0.244473,0.04206835,1.10872,0.3774855,289.0869,284.2053,333.888,True
0,0.2666667,-0.4154493,0.43125,-0.6184989,-1.504128,-4.647282,-2.568602,0.3409113,1.263328,0.4773335,-0.7303373,0.02454075,11.14058,13.0705,0.2604201,-0.1547407,0.06046996,-0.4475906,-3.472173,-0.7662596,0.3745081,1.45836,0.4113753,0.03576666,-0.3544989,-0.01916973,-1.028735,0.2051157,-0.06379336,0.4963174,1.504648,0.2440598,0.04195049,1.108994,0.3784413,289.6826,284.1004,333.4105,True
0,0.2777778,-0.4860395,0.4636602,-0.6633403,-1.499977,-4.658212,-2.559472,0.3410164,1.264412,0.4783394,-0.7313679,-0.09422275,10.74271,13.1562,0.2532636,-0.2165826,0.07745094,-0.4433828,-3.47757,-0.7640444,0.3752852,1.458743,0.4112053,0.03558756,-0.3683397,-0.03729059,-1.029451,0.1998097,-0.06150118,0.4963433,1.504517,0.2436845,0.04169931,1.109304,0.379498,290.4007,283.9753,332.9008,True
0,0.2888889,-0.6152196,0.5173349,-0.7400351,-1.495228,-4.670294,-2.547631,0.3409555,1.265732,0.4792976,-0.7298979,0.1355733,10.4244,13.11335,0.2526466,-0.2773797,0.1135507,-0.4380373,-3.482174,-0.7625746,0.3759012,1.45911,0.4112875,0.06323743,-0.3651249,-0.0418382,-1.029861,0.1952058,-0.06083459,0.4963419,1.50444,0.2434347,0.04146497,1.109621,0.3805954,291.1043,283.7469,332.4492,True
0,0.3,-0.7411553,0.5529126,-0.8188049,-1.489839,-4.682787,-2.534623,0.3408116,1.267263,0.4806142,-0.728047,0.1683833,10.23872,13.02764,0.2519448,-0.3072887,0.1486518,-0.4331472,-3.484936,-0.7629317,0.3767223,1.459577,0.4113955,0.05684301,-0.3353033,-0.04069664,-1.030136,0.1920738,-0.05968277,0.496404,1.504331,0.2432494,0.04103105,1.109957,0.3818692,291.9931,283.5915,331.8303,True
0,0.3111111,-0.8083789,0.5663958,-0.8677595,-1.484542,-4.694819,-2.522407,0.3404971,1.268845,0.4819784,-0.7260224,0.1842967,10.4244,12.9205,0.2573998,-0.2892128,0.1699486,-0.4295572,-3.485368,-0.7655931,0.3773741,1.460105,0.4115653,0.04927227,-0.2958851,-0.04911555,-1.030815,0.1897552,-0.05874347,0.4964155,1.504235,0.243125,0.04031684,1.110352,0.3833552,293.1304,283.4803,331.0362,True
0,0.3222222,-0.8862145,0.5552835,-0.9368656,-1.477699,-4.706821,-2.509176,0.3399868,1.270807,0.4836633,-0.7256757,0.03084715,10.82228,12.81337,0.269111,-0.2966377,0.166646,-0.4257521,-3.488911,-0.7657459,0.3782477,1.460663,0.4117267,0.05330887,-0.2862834,-0.07046314,-1.032214,0.1862612,-0.05774745,0.4964631,1.504138,0.2430093,0.03925905,1.110869,0.3849604,294.5411,283.1191,330.3443,True
0,0.3333333,-0.9608106,0.5367552,-0.9963617,-1.470621,1.564379,-2.495119,0.3393039,1.272979,0.4855165,-0.7274424,-0.1609628,11.19363,12.72766,0.2831082,-0.2977048,0.18464,-0.4215576,-3.490368,-0.7680218,0.3791279,1.461224,0.4119141,0.05703263,-0.2830524,-0.1216397,-1.035205,0.1825233,-0.05660442,0.4965976,1.504015,0.2429755,0.03798107,1.111495,0.3865872,296.0906,282.3176,329.9051,True
0,0.3444445,-1.039685,0.5288979,-1.042045,-1.463755,1.552109,-2.479898,0.3384655,1.275356,0.4872553,-0.7275719,-0.009768325,11.53846,12.62053,0.3166716,-0.3339548,0.2396977,-0.4147612,-3.491173,-0.7718842,0.3799956,1.46198,0.4120615,0.04805821,-0.3022107,-0.1663092,-1.038404,0.1776141,-0.054394,0.4967428,1.503871,0.2429495,0.03670605,1.112119,0.3881576,297.6966,281.2513,329.6361,True
0,0.3555556,-1.137686,0.5114217,-1.08234,-1.456541,1.539477,-2.462709,0.3375127,1.278093,0.4892704,-0.7276177,-0.003768238,11.83024,12.57767,0.338465,-0.3329611,0.3002468,-0.4081902,-3.488472,-0.7789421,0.3809497,1.462904,0.412307,0.0295459,-0.3181807,-0.2055499,-1.041748,0.1725739,-0.05162245,0.4969032,1.503693,0.242923,0.03555772,1.112706,0.3897991,299.7565,280.3176,329.3124,True
0,0.3666667,-1.235555,0.479077,-1.094965,-1.449545,1.527957,-2.444397,0.3364617,1.281031,0.4913239,-0.7273769,0.02262824,12.04244,12.57767,0.3539242,-0.3053854,0.3768878,-0.4016526,-3.480892,-0.7903162,0.3820675,1.463821,0.4125004,0.01319122,-0.3298819,-0.2416069,-1.045385,0.1677341,-0.04873984,0.4970558,1.503519,0.2430186,0.03413875,1.11318,0.3933836,300.7962,275.8806,333.8023,True
0,0.3777778,-1.303758,0.4597518,-1.094699,-1.443253,1.51623,-2.426538,0.3357914,1.28391,0.4931951,-0.7263591,0.09352948,12.12201,12.5991,0.3728309,-0.3587744,0.4586577,-0.3922357,-3.477294,-0.798291,0.3832904,1.46477,0.4128101,0.02679563,-0.3458459,-0.2662695,-1.048974,0.162366,-0.04689427,0.4972104,1.503452,0.2431219,0.03213937,1.11508,0.3987857,302.7155,277.3834,331.5596,True
0,0.3888889,-1.394292,0.4551798,-1.098833,-1.43734,1.50422,-2.406425,0.3346412,1.286966,0.4952393,-0.7260091,0.03185871,12.06897,12.5991,0.397883,-0.4493421,0.497686,-0.3814675,-3.479366,-0.801742,0.3844,1.465738,0.4130895,0.0448052,-0.3660694,-0.2771233,-1.052205,0.1567157,-0.04518665,0.4973378,1.503356,0.2432225,0.02923363,1.117405,0.4074777,303.5851,275.8686,334.7332,True
0,0.4,-1.480595,0.4591842,-1.097659,-1.432011,1.491694,-2.385755,0.3335127,1.289956,0.497345,-0.7274675,-0.132915,11.88329,12.66338,0.4329083,-0.605993,0.5631298,-0.3671061,-3.486033,-0.8015862,0.3856542,1.466681,0.4134018,0.05636483,-0.3852261,-0.2943052,-1.055812,0.1508791,-0.04348063,0.4975194,1.503206,0.2434025,0.02672883,1.119719,0.4200804,304.8102,268.7853,346.043,True
0,0.4111111,-1.540212,0.4515654,-1.086901,-1.426888,1.479887,-2.364818,0.3322374,1.292934,0.4994502,-0.7263889,0.1004999,11.59151,12.79194,0.4573511,-0.7126475,0.6532612,-0.3519165,-3.487587,-0.8060464,0.3865524,1.467701,0.4138355,0.04136196,-0.3905531,-0.302674,-1.05929,0.1455455,-0.04075782,0.4976817,1.502987,0.2436368,0.02344991,1.124284,0.4337378,305.1919,269.0136,349.5889,True
0,0.4222222,-1.59341,0.4301689,-1.064378,-1.421864,1.468696,-2.34363,0.331024,1.29587,0.5015886,-0.7267277,-0.03130184,11.19363,12.87765,0.4397944,-0.7575526,0.7076446,-0.3379205,-3.487139,-0.8107645,0.3871832,1.468498,0.4143677,0.002875209,-0.3841768,-0.3161155,-1.063019,0.1407121,-0.03722806,0.4977877,1.502797,0.2441502,0.01934083,1.13126,0.4469398,304.8157,270.8035,351.3122,True
0,0.4333333,-1.61252,0.4227763,-1.025973,-1.418003,1.457716,-2.323342,0.3296934,1.298776,0.5037889,-0.7273732,-0.05799082,10.55703,12.9205,0.3980685,-0.7192917,0.6974018,-0.3280279,-3.485115,-0.8157238,0.3878948,1.469305,0.4148765,-0.02820009,-0.3745973,-0.3328321,-1.067214,0.1360866,-0.03361762,0.4978752,1.502595,0.2446091,0.01456774,1.140556,0.4585991,303.5806,272.1353,352.818,True
0,0.4444444,-1.60176,0.4112379,-0.9769503,-1.414887,1.447945,-2.304381,0.3282738,1.301639,0.506,-0.7279825,-0.05469067,9.761274,12.9205,0.3321559,-0.5904108,0.6246942,-0.3237925,-3.479404,-0.8223719,0.3885224,1.470217,0.4155276,-0.03895035,-0.3351894,-0.3401547,-1.071202,0.1331385,-0.03149055,0.4979227,1.502515,0.245389,0.009429108,1.1518,0.4680371,301.6201,272.8036,354.1191,True
0,0.4555556,-1.580344,0.3868914,-0.9470809,-1.411169,1.438159,-2.286248,0.3270739,1.304513,0.5080123,-0.7296742,-0.1537271,8.726789,12.94193,0.2793319,-0.5030904,0.5752265,-0.3189711,-3.474165,-0.8285816,0.3891484,1.470962,0.4161227,-0.04317158,-0.2691554,-0.3326203,-1.074598,0.1319931,-0.03052835,0.4979286,1.502429,0.2462716,0.004262735,1.164379,0.475008,299.1919,272.8508,355.1115,True
0,0.4666667,-1.551388,0.3412689,-0.916093,-1.407032,1.42985,-2.268855,0.3257994,1.3074,0.5101051,-0.7315735,-0.1719521,7.453578,13.04907,0.243686,-0.4445085,0.5340922,-0.3138897,-3.469571,-0.8341841,0.389873,1.471797,0.4168065,-0.06141931,-0.2041773,-0.3419786,-1.078657,0.1317993,-0.02920449,0.4979442,1.502389,0.2472448,-0.0007161815,1.177529,0.4796875,296.5448,272.4018,355.7728,True
0,0.4777778,-1.525769,0.3019871,-0.9085368,-1.402004,1.419877,-2.2506,0.3249444,1.310828,0.5124578,-0.7329504,-0.1243056,6.39257,13.13477,0.2915817,-0.4209557,0.5358824,-0.3069021,-3.463426,-0.8452226,0.3904536,1.472458,0.4174802,-0.05293372,-0.1743506,-0.3431178,-1.082512,0.1302888,-0.02813124,0.4979956,1.502324,0.2480402,-0.005290084,1.190445,0.4825136,293.91,271.4369,356.3547,True
0,0.4888889,-1.484057,0.2660003,-0.8754668,-1.398027,1.412123,-2.234395,0.3238663,1.313528,0.5145228,-0.7337733,-0.07426956,5.729441,13.09192,0.295026,-0.4636018,0.5538812,-0.2971965,-3.461044,-0.8509985,0.3909351,1.473157,0.4181802,-0.03725803,-0.1732579,-0.3720454,-1.087585,0.1280063,-0.02728302,0.4980254,1.502251,0.2489359,-0.009283323,1.202433,0.4841223,291.553,269.8315,357.1893,True
0,0.5,-1.470088,0.2501449,-0.8499017,-1.394686,1.403759,-2.217268,0.3226267,1.316114,0.5166495,-0.7333691,0.03751738,5.198936,13.04907,0.2740042,-0.5105717,0.5741943,-0.2869609,-3.459437,-0.8548044,0.3912841,1.473797,0.4188931,-0.05441621,-0.1860527,-0.383592,-1.092125,0.1248289,-0.02455062,0.4980429,1.50223,0.2498026,-0.01270537,1.213045,0.4852356,289.7536,267.7109,358.3126,True
0,0.5111111,-1.442258,0.2290071,-0.8232661,-1.3913,1.39591,-2.201035,0.3214697,1.318548,0.5188036,-0.7350463,-0.1536794,4.774536,13.0705,0.1959006,-0.4851307,0.5407864,-0.2802253,-3.457318,-0.8560297,0.3914535,1.474389,0.4197605,-0.06276029,-0.1850027,-0.3664584,-1.095529,0.1224845,-0.02247362,0.4979876,1.502115,0.250653,-0.01560148,1.222239,0.4866503,288.6078,265.4521,359.5948,True
0,0.5222223,-1.400578,0.2036792,-0.788096,-1.388038,1.388807,-2.185563,0.3202894,1.320881,0.5210571,-0.7343986,0.06051464,4.456234,13.1562,0.1613297,-0.3924693,0.5114306,-0.2763898,-3.446818,-0.8667521,0.3916279,1.474832,0.4205759,-0.04185608,-0.1637345,-0.3016861,-1.096791,0.1210762,-0.02205204,0.4978656,1.50187,0.2515788,-0.01820586,1.230029,0.4888295,287.782,263.5971,0.9119294,True
0,0.5333334,-1.362122,0.1847171,-0.7582669,-1.384993,1.381856,-2.170521,0.3191189,1.323243,0.523279,-0.7350469,-0.05995298,4.297081,13.28477,0.1599421,-0.3370302,0.4891852,-0.2719546,-3.43795,-0.877008,0.3918099,1.475273,0.4214377,-0.03617996,-0.1520332,-0.2676448,-1.098606,0.1195814,-0.02115588,0.4977171,1.50171,0.2525523,-0.02076652,1.236623,0.4919975,287.312,262.4023,2.024704,True
0,0.5444446,-1.263934,0.1510808,-0.7135772,-1.381806,1.37598,-2.158722,0.3180664,1.325318,0.5253806,-0.7356498,-0.05466905,4.429708,13.34904,0.1562182,-0.2581304,0.4499659,-0.2692344,-3.42815,-0.8880942,0.3919548,1.475713,0.4223104,-0.04561147,-0.1286147,-0.2515605,-1.101021,0.1187541,-0.0199809,0.4975389,1.5016,0.2536213,-0.02319329,1.242365,0.4961195,287.0873,261.6057,3.118991,True
0,0.5555557,-1.213822,0.1502522,-0.6902213,-1.379363,1.368891,-2.145472,0.3170986,1.327489,0.5273869,-0.7359406,-0.02631215,4.827586,13.41333,0.1614614,-0.2825808,0.4317623,-0.2635517,-3.425326,-0.8927984,0.3920155,1.476158,0.4233952,-0.04562277,-0.1126338,-0.2515495,-1.10386,0.117917,-0.01904267,0.4973966,1.501489,0.2547004,-0.02544496,1.247615,0.5009996,286.9956,261.1696,4.145579,True
0,0.5666668,-1.134989,0.1612368,-0.6647998,-1.377654,1.362121,-2.134329,0.316175,1.32934,0.5294392,-0.7387108,-0.253309,5.066311,13.49904,0.1593489,-0.3720208,0.4060269,-0.2553812,-3.431935,-0.8881254,0.3921351,1.476563,0.4244885,-0.04260039,-0.08812195,-0.2664828,-1.107352,0.11763,-0.01852122,0.4972289,1.501352,0.2559636,-0.02747576,1.252719,0.5063274,286.9101,260.9748,5.153932,True
0,0.577778,-1.054024,0.1690229,-0.6425734,-1.37599,1.355129,-2.123747,0.3153912,1.331123,0.531234,-0.7373622,0.1250892,5.676391,13.60617,0.1550907,-0.4135535,0.3931967,-0.2482087,-3.43399,-0.8876777,0.3922036,1.476996,0.425597,-0.03959784,-0.07106618,-0.2835514,-1.111091,0.1172088,-0.01793213,0.4971592,1.501272,0.2571449,-0.02915017,1.257792,0.5117177,286.6138,260.7079,6.331334,True
0,0.5888891,-1.00495,0.1521692,-0.6319405,-1.37344,1.348714,-2.113006,0.3144326,1.332945,0.5333104,-0.7387332,-0.1269853,6.976128,13.69188,0.1529923,-0.4497635,0.385681,-0.2408073,-3.437219,-0.8861951,0.3920365,1.477323,0.4267995,-0.03660259,-0.03376864,-0.3006061,-1.11511,0.1181812,-0.01807274,0.4969344,1.501139,0.2583976,-0.03065383,1.262947,0.5169312,286.259,260.56,7.315111,True
0,0.6000003,-0.922772,0.1046368,-0.5988797,-1.370321,1.34356,-2.103865,0.3138626,1.335165,0.5366797,-0.7389718,-0.02093804,8.408487,13.75616,0.1497788,-0.4657392,0.3792832,-0.2338245,-3.439055,-0.8859192,0.3917383,1.477543,0.428021,-0.04287493,-0.01566861,-0.2877421,-1.1178,0.1185852,-0.01748179,0.4967156,1.501019,0.2596931,-0.03200582,1.268186,0.5217801,285.7299,260.2104,8.374646,True
0,0.6111114,-0.8832331,0.08354123,-0.5711891,-1.367833,1.338565,-2.094306,0.3128281,1.336582,0.5387092,-0.7381398,0.07567535,9.787797,13.82044,0.1099576,-0.4231499,0.3424031,-0.2297067,-3.439745,-0.8851863,0.3912397,1.477751,0.4292717,-0.04799961,-0.0167486,-0.2685127,-1.120081,0.1183073,-0.0166626,0.496455,1.500872,0.2609565,-0.03326842,1.273409,0.5261565,285.1165,259.4797,9.659486,True
0,0.6222225,-0.8287579,0.0614951,-0.5211337,-1.365764,1.335038,-2.086299,0.3117921,1.337749,0.5408409,-0.7388467,-0.06573492,11.19363,13.90615,0.06802481,-0.3433129,0.3205357,-0.2271629,-3.432799,-0.8911765,0.3908111,1.478026,0.4305265,-0.06384058,-0.01676643,-0.255567,-1.122513,0.1179577,-0.01531531,0.4961872,1.500727,0.2623169,-0.03456715,1.278559,0.5301172,284.6063,258.0619,11.26548,True
0,0.6333337,-0.7828652,0.057528,-0.4721847,-1.364503,1.331686,-2.078626,0.3108166,1.339001,0.5429189,-0.7379497,0.08221723,12.62599,13.99186,0.00431411,-0.1974022,0.2606277,-0.2290063,-3.421878,-0.8995982,0.3902908,1.478268,0.4318871,-0.08920604,-0.01572716,-0.2371971,-1.124611,0.1177486,-0.01353445,0.4958592,1.500606,0.2637947,-0.03579584,1.283583,0.5338629,284.1017,256.2112,13.08265,True
0,0.6444448,-0.6676412,0.05609798,-0.3626317,-1.364883,1.330959,-2.074961,0.3100194,1.339969,0.5445268,-0.7385665,-0.05751651,13.92573,14.09899,-0.01420161,-0.08769602,0.2460924,-0.2297046,-3.406736,-0.9134914,0.3900624,1.478524,0.4333162,-0.0838885,-0.01998451,-0.2383207,-1.127283,0.1173107,-0.01257625,0.4954223,1.500466,0.2653322,-0.03712977,1.288329,0.5373743,283.4778,254.5734,14.96037,True
0,0.655556,-0.6122068,0.05642764,-0.3232757,-1.365317,1.32758,-2.069193,0.3092764,1.340763,0.5453463,-0.7384088,0.01456466,15.11936,14.22755,0.006120943,-0.065308,0.2630177,-0.2275096,-3.394484,-0.9263443,0.3899156,1.478769,0.4346225,-0.06804806,-0.01783412,-0.2512683,-1.13052,0.1171594,-0.01232484,0.495024,1.500354,0.2668197,-0.03846592,1.292611,0.5405142,282.8477,253.0512,16.79854,True
0,0.6666671,-0.5397154,0.05355329,-0.2956767,-1.36465,1.325287,-2.065295,0.3085322,1.341716,0.547008,-0.7412115,-0.2568369,15.78249,14.33469,0.0814015,-0.1664367,0.3186636,-0.2199462,-3.388896,-0.9354084,0.3899115,1.478927,0.4359326,-0.02347912,-0.01886486,-0.2687826,-1.134126,0.116819,-0.01356721,0.4944722,1.500299,0.2684379,-0.03967915,1.296336,0.543165,282.3557,252.0443,18.08874,True
0,0.6777782,-0.5109478,0.05369317,-0.2882496,-1.36435,1.321824,-2.059831,0.3078269,1.34262,0.5486386,-0.7392296,0.1828696,16.1008,14.39897,0.09863406,-0.2058313,0.3290936,-0.2145901,-3.384448,-0.9414719,0.3897182,1.479152,0.4372258,-0.01171128,-0.02418671,-0.2635774,-1.136729,0.1162796,-0.01341008,0.4940172,1.500261,0.2699306,-0.04055487,1.299317,0.5451152,281.8582,251.4158,19.01822,True
0,0.6888894,-0.4863465,0.03574681,-0.2615981,-1.363175,1.320194,-2.055005,0.3068901,1.343133,0.5503616,-0.7398831,-0.06209018,16.49867,14.46325,0.1107911,-0.3624058,0.3339922,-0.2047049,-3.397403,-0.9303253,0.3893884,1.479141,0.4386742,-0.003133625,-0.02418485,-0.2583404,-1.139383,0.1159297,-0.01352167,0.4934471,1.500163,0.2714245,-0.04137191,1.301541,0.5464332,281.6253,250.9013,19.60786,True
0,0.7000005,-0.4799047,0.02622679,-0.2519842,-1.362414,1.317674,-2.049429,0.3058746,1.343673,0.5521817,-0.7380072,0.1717253,17.00265,14.48468,0.1271,-0.4313819,0.3082392,-0.1977866,-3.404855,-0.9244375,0.3888748,1.478926,0.4401166,0.00447534,-0.0177975,-0.243499,-1.141525,0.1159571,-0.01379118,0.4928472,1.500067,0.2728941,-0.04226667,1.303127,0.5474368,281.6426,249.9753,20.18532,True
0,0.7111117,-0.4702144,0.003940389,-0.2359532,-1.360804,1.31608,-2.044281,0.3046621,1.343998,0.5541503,-0.737507,0.04379011,17.45358,14.50611,0.1304449,-0.392007,0.252807,-0.1947543,-3.413594,-0.9178105,0.3879512,1.478458,0.4417357,0.02410065,-0.007159475,-0.2000185,-1.142179,0.116299,-0.0149161,0.4921609,1.499935,0.2743835,-0.04337553,1.30431,0.5485163,281.8139,249.3112,20.37175,True
0,0.7222228,-0.4435095,-0.008660525,-0.2146422,-1.36006,1.314358,-2.039915,0.3033538,1.344022,0.5561335,-0.7364876,0.09264316,17.87798,14.54896,0.09872881,-0.3088342,0.1765269,-0.1944928,-3.417392,-0.9142243,0.3869239,1.478029,0.4435241,0.03331557,0.01517238,-0.1329848,-1.141515,0.1171959,-0.01600054,0.4914213,1.499832,0.2760024,-0.04471013,1.305278,0.5498675,281.9763,248.7178,20.6208,True
0,0.7333339,-0.4115231,-0.009562112,-0.1955082,-1.359261,1.313074,-2.036104,0.3019446,1.344155,0.5581522,-0.7362804,0.01798954,18.14323,14.57039,0.05111888,-0.2566054,0.1024405,-0.1940837,-3.426586,-0.9041906,0.3860578,1.477759,0.4452968,0.03372205,0.02473683,-0.09356227,-1.141275,0.1178515,-0.01662372,0.4907408,1.499699,0.2775381,-0.04624971,1.306236,0.5516162,282.123,248.3206,20.83261,True
0,0.7444451,-0.3230982,0.0122329,-0.1392384,-1.360453,1.31286,-2.035434,0.3006402,1.343775,0.5601223,-0.7367721,-0.04523556,18.16976,14.59181,-0.02550417,-0.1873425,0.001995198,-0.1965631,-3.439556,-0.8885354,0.3846734,1.477432,0.4471967,0.03088791,0.03642636,-0.05837112,-1.140843,0.1186164,-0.01716967,0.4899489,1.499624,0.2791758,-0.04789182,1.307294,0.5537624,282.1663,247.7351,21.39799,True
0,0.7555562,-0.281655,0.05935179,-0.1053625,-1.362443,1.311795,-2.033478,0.2992529,1.343485,0.5620098,-0.7369601,-0.01705223,18.03714,14.59181,-0.0761306,-0.1862653,-0.06683603,-0.1964859,-3.457639,-0.8684584,0.3833162,1.477094,0.4490435,0.03639041,0.0534662,-0.04030659,-1.14075,0.1199723,-0.01829645,0.4891588,1.499546,0.2808335,-0.04951963,1.308455,0.5562403,282.0543,247.1752,22.07121,True
0,0.7666674,-0.2392817,0.1437354,-0.07906391,-1.366578,1.309762,-2.031886,0.2977458,1.342842,0.5638242,-0.739449,-0.2277436,17.85146,14.63467,-0.1104327,-0.2065222,-0.0996298,-0.1955783,-3.476277,-0.8478889,0.3818476,1.47642,0.4508283,0.02584728,0.1184293,-0.02630888,-1.140714,0.1237454,-0.01983762,0.4882716,1.499601,0.2826581,-0.05102836,1.309665,0.5589132,281.8297,246.7355,22.73939,True
0,0.7777785,-0.2010541,0.1801395,-0.0771099,-1.369674,1.306906,-2.030101,0.2959644,1.342117,0.5654445,-0.7380695,0.12766,17.53315,14.69895,-0.1317271,-0.2033925,-0.09625402,-0.1944864,-3.487068,-0.8350813,0.3803628,1.475801,0.4525998,0.0238535,0.1610282,-0.01028044,-1.140384,0.127167,-0.02138758,0.4873893,1.499583,0.2844293,-0.05226811,1.310678,0.5615811,281.3882,246.4045,23.37103,True
0,0.7888896,-0.1680096,0.1706378,-0.08458735,-1.37054,1.305087,-2.029019,0.2942034,1.341415,0.567358,-0.7378959,0.01416678,17.08223,14.72038,-0.1572409,-0.1555656,-0.07464507,-0.1944459,-3.487872,-0.8317108,0.3786121,1.474927,0.4544122,0.04110624,0.2217463,0.0130133,-1.139501,0.1323459,-0.02462385,0.4864393,1.499564,0.2862232,-0.05351921,1.311378,0.5641776,280.9893,246.7259,23.32648,True
0,0.8000008,-0.1040309,0.1527594,-0.08569522,-1.371231,1.303522,-2.029852,0.2925119,1.34061,0.5691152,-0.7373878,0.04611661,16.5252,14.7418,-0.1691761,-0.06292318,-0.07222071,-0.1967064,-3.482303,-0.8349524,0.3767597,1.474244,0.4562621,0.06358419,0.2579676,0.02558643,-1.138888,0.1365855,-0.02783989,0.4854769,1.499454,0.2879782,-0.05500001,1.311733,0.5667114,280.6486,247.4792,22.79076,True
0,0.8111119,-0.03476737,0.15733,-0.06238173,-1.372996,1.302755,-2.031698,0.290613,1.339317,0.5709858,-0.7373835,-0.000341483,15.86207,14.7418,-0.192333,0.03091012,-0.1400152,-0.201751,-3.484869,-0.8295662,0.3746504,1.473704,0.4581449,0.04755847,0.2622217,0.02149533,-1.138868,0.1399554,-0.0292218,0.4844876,1.499329,0.2898047,-0.05680512,1.311723,0.5692044,280.455,247.9007,22.52127,True
0,0.8222231,0.03646437,0.2205802,-0.01902144,-1.377923,1.301736,-2.03429,0.289152,1.337817,0.5726173,-0.7387848,-0.1284561,15.19894,14.78466,-0.2207615,0.06935531,-0.2185418,-0.2066576,-3.497207,-0.8140697,0.3725843,1.473306,0.4599829,-0.04334587,0.2430099,-0.01272166,-1.140337,0.1417911,-0.02613333,0.4833923,1.499265,0.2917356,-0.05872386,1.311316,0.5716314,280.405,247.7749,22.72462,True
0,0.8333342,0.1076464,0.2955021,0.01470982,-1.383655,1.300218,-2.037576,0.2877342,1.336477,0.5741839,-0.7392339,-0.04034002,14.64191,14.82751,-0.2499525,0.07046139,-0.271574,-0.2106182,-3.511904,-0.7959414,0.3702862,1.47282,0.4617956,-0.1364484,0.2610902,-0.05115657,-1.142374,0.1455561,-0.02288295,0.4823248,1.499208,0.2937708,-0.06055547,1.310427,0.5739602,280.3264,247.6194,22.94317,True
0,0.8444453,0.2066835,0.3075715,0.01663965,-1.387154,1.298526,-2.042649,0.2864144,1.335166,0.5756392,-0.7394192,-0.01716059,14.11141,14.87037,-0.2480399,0.1631454,-0.2692635,-0.2158231,-3.506096,-0.7990019,0.3677627,1.47205,0.4636555,-0.1666964,0.3399256,-0.08701017,-1.144569,0.1525424,-0.0230976,0.4811066,1.499408,0.2958288,-0.06226131,1.308935,0.5761717,280.1674,248.3524,22.28055,True
0,0.8555565,0.2759836,0.287528,0.004883677,-1.38909,1.297149,-2.047584,0.2848938,1.333759,0.5771635,-0.7395481,-0.01218304,13.66048,14.89179,-0.2406258,0.1972419,-0.2639242,-0.2200112,-3.504248,-0.7984932,0.365671,1.471427,0.4654529,-0.1201193,0.4209309,-0.1119496,-1.146661,0.160309,-0.0268974,0.4798313,1.499449,0.2979944,-0.06368543,1.306819,0.5782109,280.0695,250.7176,19.99639,True
0,0.8666676,0.3751876,0.2430795,-0.006842256,-1.389865,1.296147,-2.054957,0.2832215,1.332254,0.5787809,-0.7406507,-0.1012642,13.42175,14.89179,-0.2301034,0.259049,-0.2606848,-0.2254962,-3.497121,-0.8033825,0.3631345,1.470492,0.467346,-0.04954849,0.4625032,-0.08496393,-1.146985,0.1673995,-0.03152783,0.4784087,1.49961,0.3001776,-0.06493918,1.304177,0.5801143,280.1895,253.5532,17.22548,True
0,0.8777788,0.4434437,0.2220097,-0.004749626,-1.391416,1.295315,-2.061918,0.281578,1.330494,0.5803554,-0.7398091,0.07722437,13.23607,14.89179,-0.2519544,0.2719136,-0.3233403,-0.2317302,-3.505132,-0.7918758,0.3606994,1.469615,0.4693809,-0.0150654,0.4678246,-0.04696736,-1.146348,0.172973,-0.03459846,0.4769877,1.499753,0.3024478,-0.06609435,1.301049,0.581958,280.4564,255.3001,15.49691,True
0,0.8888899,0.4562141,0.2316812,0.003723234,-1.394357,1.294141,-2.067269,0.2800955,1.328758,0.5819907,-0.7412738,-0.1352549,13.10345,14.89179,-0.2652335,0.2752055,-0.3839507,-0.2384088,-3.514581,-0.7792713,0.3583751,1.468917,0.4713209,-0.02718383,0.4752356,0.01708526,-1.144185,0.1791662,-0.03652525,0.4753112,1.49983,0.3047032,-0.06738331,1.297498,0.58387,280.8142,256.4193,14.35809,True
0,0.900001,0.4421865,0.2956398,0.02910046,-1.399955,1.292551,-2.071201,0.2786649,1.326896,0.5834651,-0.7401868,0.100078,13.02387,14.84894,-0.2612676,0.2603908,-0.4255693,-0.2445016,-3.525512,-0.7659411,0.3559141,1.468177,0.4733469,-0.07105139,0.4783557,0.1017095,-1.140597,0.1853298,-0.03662193,0.4736229,1.499971,0.3070076,-0.06879117,1.29349,0.5859184,281.1352,257.3103,13.44948,True
0,0.9111122,0.4367868,0.3319482,0.06201683,-1.405196,1.291865,-2.075699,0.2771701,1.325406,0.5849335,-0.7377664,0.2197703,12.99735,14.76323,-0.2526214,0.2486676,-0.4139457,-0.2490988,-3.530243,-0.7588608,0.3536231,1.467486,0.4752681,-0.08542754,0.47512,0.1529952,-1.13731,0.1912095,-0.03764804,0.471969,1.500081,0.3092697,-0.07023424,1.289026,0.5881115,281.5147,258.9977,11.79221,True
0,0.9222233,0.4615087,0.2702888,0.07283207,-1.406538,1.292419,-2.081798,0.2756069,1.324099,0.5863557,-0.7356748,0.1890859,12.97082,14.59181,-0.2355987,0.2668176,-0.4108494,-0.2548555,-3.531485,-0.755506,0.3514898,1.466648,0.477186,-0.04564708,0.4804501,0.1877368,-1.134474,0.1974734,-0.04131788,0.4701958,1.500232,0.3115723,-0.07165694,1.284332,0.5904282,282.0978,261.7325,9.152252,True
0,0.9333345,0.4809029,0.2042835,0.0676873,-1.406726,1.292739,-2.087915,0.2738576,1.322745,0.5876353,-0.7355976,0.005433556,12.89124,14.4204,-0.1919249,0.2158476,-0.4294224,-0.2594766,-3.543583,-0.7430699,0.349357,1.465991,0.4791348,0.03218326,0.4868819,0.1943823,-1.132459,0.2038031,-0.04685672,0.4684853,1.500386,0.3137927,-0.0730613,1.279791,0.5927864,282.8548,265.0992,5.992198,True
0,0.9444456,0.4734603,0.2064352,0.08154055,-1.409413,1.292745,-2.09301,0.2721491,1.321326,0.5889945,-0.7367688,-0.1070917,12.7321,14.29184,-0.187574,0.1519473,-0.4370508,-0.2630766,-3.557876,-0.7272632,0.3471074,1.465333,0.4810705,0.1023354,0.4826723,0.1787303,-1.13125,0.2097615,-0.05291967,0.4668793,1.500561,0.3160117,-0.07442424,1.275722,0.5950087,283.6083,267.6172,3.775304,True
0,0.9555568,0.445724,0.2309328,0.1081353,-1.413458,1.292753,-2.097091,0.2704137,1.319767,0.5903409,-0.7366538,0.01124097,12.57294,14.1847,-0.2106144,0.0559738,-0.4189614,-0.2644274,-3.575348,-0.7072075,0.3448547,1.464792,0.4829953,0.1402783,0.4571531,0.1378338,-1.13132,0.2144618,-0.05760337,0.4652875,1.500642,0.3181889,-0.07571937,1.272164,0.5969204,284.1038,268.4599,3.211658,True
0,0.9666679,0.4244598,0.2309499,0.134801,-1.416888,1.293521,-2.101248,0.2686936,1.318305,0.5917299,-0.7353638,0.1175578,12.57294,14.09899,-0.2262204,0.03028524,-0.3805381,-0.266306,-3.584379,-0.6954275,0.3427382,1.464131,0.484854,0.1388516,0.4337378,0.1026789,-1.131582,0.2189214,-0.06083033,0.4637538,1.500723,0.3202963,-0.07706252,1.269031,0.5985104,284.3402,268.7621,3.01998,True
0,0.977779,0.4032804,0.2128959,0.1753721,-1.419887,1.295475,-2.105445,0.2669113,1.316755,0.5929821,-0.734037,0.1201394,12.62599,14.01328,-0.2137024,0.09745762,-0.3922231,-0.2724435,-3.585875,-0.6920933,0.3404863,1.463323,0.4868569,0.1087115,0.4081774,0.07103065,-1.131846,0.22315,-0.06280613,0.4621909,1.50084,0.3224323,-0.07852235,1.266267,0.5998549,284.4483,269.6905,2.048555,True
0,0.9888902,0.3948559,0.1937633,0.1967554,-1.422695,1.297266,-2.109873,0.2651706,1.315311,0.5942564,-0.7338181,0.01909255,12.65252,13.949,-0.203488,0.1593463,-0.4273323,-0.279486,-3.589187,-0.6869922,0.3382596,1.46271,0.4886599,0.07682391,0.4038931,0.07775396,-1.131029,0.2280746,-0.06463279,0.4607162,1.500934,0.3244448,-0.08011983,1.263827,0.6009968,284.5197,270.9522,0.7152016,True
0,1.000001,0.4003281,0.1629858,0.2266789,-1.42513,1.29992,-2.114885,0.2635306,1.31392,0.5952492,-0.7336918,0.01153635,12.62599,13.97043,-0.205812,0.1732337,-0.4475238,-0.2852395,-3.595581,-0.67853,0.3361363,1.462073,0.4904966,0.08230871,0.3900464,0.09260774,-1.129677,0.2326984,-0.06774842,0.4592456,1.501126,0.3265021,-0.08176415,1.261631,0.6019059,284.5545,271.8776,359.7408,True
0,1.011112,0.3993251,0.1427381,0.224612,-1.427257,1.301259,-2.119431,0.2620494,1.312615,0.5962684,-0.733965,-0.02503073,12.44032,14.05614,-0.2378695,0.1731768,-0.4589836,-0.2905983,-3.602414,-0.6681759,0.3341514,1.461382,0.4920623,0.09096675,0.3634144,0.1042181,-1.128394,0.2363667,-0.07060999,0.4577278,1.501316,0.3284748,-0.08330747,1.259891,0.6024328,284.4002,273.2875,358.2015,True
0,1.022224,0.3940677,0.1192625,0.2183068,-1.428893,1.302859,-2.123873,0.2605322,1.311369,0.5972962,-0.7344567,-0.04473741,12.09549,14.12042,-0.2770794,0.2017663,-0.4245116,-0.2952897,-3.601281,-0.6649753,0.3322657,1.460668,0.4935369,0.08469674,0.3516876,0.1149356,-1.126994,0.2404342,-0.07309951,0.4562402,1.501432,0.3304639,-0.08455162,1.259079,0.6026977,283.9095,273.8971,357.4668,True
0,1.033335,0.3717786,0.0925558,0.2184333,-1.430305,1.304903,-2.127477,0.2591715,1.310203,0.5982027,-0.7342058,0.02326861,11.72414,14.16327,-0.285491,0.2315237,-0.4009419,-0.3003758,-3.599279,-0.6634421,0.3304082,1.460006,0.495007,0.09565219,0.3612662,0.1446634,-1.1246,0.2455512,-0.07669211,0.4548475,1.501491,0.3323524,-0.08575615,1.258481,0.6027594,283.3046,273.9163,357.3367,True
0,1.044446,0.3345708,0.07541078,0.2281405,-1.43203,1.307298,-2.130443,0.2578669,1.309063,0.5989931,-0.7340045,0.01810798,11.35279,14.22755,-0.2651227,0.2709312,-0.3722582,-0.3057197,-3.594434,-0.665729,0.3289044,1.459606,0.4963753,0.1361986,0.3889868,0.152784,-1.122993,0.2516892,-0.08213136,0.4535812,1.501681,0.3340585,-0.08688366,1.257933,0.6028228,282.7244,273.7253,357.3457,True
0,1.055557,0.3164335,0.09031712,0.2440994,-1.435091,1.3093,-2.133634,0.2565777,1.307912,0.5998118,-0.7331091,0.08175251,10.92838,14.29184,-0.2393687,0.2305031,-0.3629691,-0.3095978,-3.599362,-0.6592932,0.3272425,1.459007,0.497829,0.1542991,0.3889955,0.1526016,-1.121621,0.2565596,-0.0863751,0.4522866,1.501798,0.3358326,-0.08795535,1.257393,0.6030108,282.1713,274.0736,356.8055,True
0,1.066668,0.2961482,0.1094667,0.2568509,-1.438492,1.311125,-2.136432,0.2554109,1.30695,0.6004536,-0.73243,0.06147383,10.50398,14.35612,-0.2221584,0.1719514,-0.3611007,-0.3126732,-3.607474,-0.6496811,0.3258161,1.458586,0.4990327,0.1624845,0.3741072,0.1194807,-1.12167,0.2606974,-0.09027503,0.4510917,1.501952,0.3373842,-0.08823329,1.25681,0.6033071,282.2664,274.8087,355.9719,True
0,1.077779,0.2919194,0.09452398,0.2505179,-1.440408,1.312963,-2.139832,0.2540698,1.30609,0.6011744,-0.7328098,-0.03505375,10.13263,14.44182,-0.206909,0.1399686,-0.3293321,-0.3153268,-3.610961,-0.6444365,0.3243712,1.458204,0.5003569,0.1483257,0.3570806,0.08872782,-1.121971,0.264614,-0.09310624,0.4499083,1.502083,0.3389916,-0.08838693,1.256283,0.6037203,282.1656,276.5204,354.3021,True
0,1.08889,0.2813607,0.06357881,0.2453177,-1.441558,1.315423,-2.143015,0.2528045,1.305513,0.6018348,-0.7326612,0.01405973,9.867373,14.52753,-0.1788522,0.09736145,-0.2987578,-0.3171255,-3.616286,-0.6383019,0.3230513,1.457856,0.5014603,0.1185208,0.298474,0.0879422,-1.121188,0.2663912,-0.09419467,0.4488458,1.502156,0.3402503,-0.08866782,1.255854,0.6041472,281.6442,279.0373,351.8922,True
0,1.100002,0.2548176,0.02934244,0.2284288,-1.441972,1.317566,-2.145317,0.2516708,1.304986,0.602504,-0.7333813,-0.06589563,9.787797,14.61324,-0.1710908,0.1004965,-0.2604608,-0.319346,-3.616323,-0.6366457,0.3217871,1.457491,0.5024981,0.1219756,0.2728973,0.110259,-1.119451,0.2691971,-0.09705704,0.4477184,1.502282,0.341691,-0.08917367,1.255407,0.6044838,281.7877,280.1251,350.8448,True
0,1.111113,0.2303524,0.007905666,0.2125674,-1.442638,1.319524,-2.147216,0.2504686,1.304369,0.603297,-0.7332764,0.01026389,9.867373,14.69895,-0.179516,0.1025746,-0.2476049,-0.3220625,-3.617656,-0.6330392,0.3205233,1.457191,0.5035262,0.1338505,0.2526553,0.1239718,-1.117805,0.271721,-0.1000843,0.4466512,1.502364,0.3429801,-0.09006406,1.255074,0.6047748,281.0476,282.2947,348.7492,True
0,1.122224,0.1888896,-0.02317503,0.1988871,-1.44243,1.321715,-2.148135,0.2493591,1.304015,0.6040218,-0.732528,0.06838341,9.920423,14.84894,-0.1835444,0.1120733,-0.2145257,-0.3240193,-3.616351,-0.6319918,0.3194324,1.456951,0.5044689,0.1521294,0.2441397,0.1397661,-1.115893,0.2748716,-0.1038401,0.4457228,1.502448,0.3441374,-0.09084293,1.254686,0.6049145,281.358,281.6009,349.3672,True
0,1.133335,0.1399793,-0.05210722,0.1979934,-1.442363,1.324376,-2.148409,0.2482175,1.303768,0.6047056,-0.7322351,0.02628061,9.973473,15.02035,-0.1832356,0.1013439,-0.1793887,-0.3250564,-3.61604,-0.6303068,0.3184095,1.456731,0.5055144,0.1380768,0.2249728,0.119666,-1.115403,0.2770751,-0.105793,0.4449161,1.502556,0.3451543,-0.09182853,1.254457,0.6051072,280.599,283.1789,347.8375,True
0,1.144446,0.09846597,-0.06290846,0.1959637,-1.442613,1.326779,-2.148425,0.2472107,1.303582,0.6053512,-0.7314361,0.0730615,10.15915,15.23462,-0.1594356,0.04595032,-0.1519989,-0.3248215,-3.620694,-0.6248586,0.3177062,1.456636,0.5062079,0.121723,0.1866397,0.08146367,-1.115874,0.2779339,-0.1069589,0.4441511,1.502667,0.3462899,-0.09268466,1.254156,0.6052399,280.9586,281.8367,348.9777,True
0,1.155557,0.07397054,-0.06406964,0.1917433,-1.443137,1.328803,-2.148946,0.2460736,1.30339,0.6059084,-0.7309525,0.04386977,10.4244,15.49175,-0.1401522,0.02148214,-0.1468778,-0.3258069,-3.624978,-0.6199043,0.3166905,1.456584,0.5070474,0.1170847,0.1589678,0.04421356,-1.116612,0.2788225,-0.1084221,0.4434578,1.502808,0.3472166,-0.09364139,1.254052,0.605468,280.3281,283.539,347.3342,True
0,1.166668,0.03765682,-0.04400619,0.1757528,-1.444079,1.329843,-2.14818,0.2452007,1.303389,0.6063805,-0.7310414,-0.00821229,10.61008,15.74888,-0.1110338,-0.007280946,-0.1120168,-0.325222,-3.627761,-0.6170539,0.3158907,1.456629,0.5077009,0.1157862,0.1643144,0.02185642,-1.11732,0.2811704,-0.1107979,0.4428381,1.502903,0.3481214,-0.09472108,1.254019,0.6056276,280.2834,283.8549,347.0385,True
0,1.17778,0.01517164,-0.02388722,0.1597019,-1.44492,1.33007,-2.147382,0.2446899,1.303971,0.6069374,-0.7319517,-0.0829033,10.74271,15.96315,-0.1118362,-0.02012893,-0.08327098,-0.3248854,-3.629169,-0.614351,0.3150158,1.45663,0.5082819,0.09645287,0.1664536,0.00715173,-1.117744,0.283498,-0.1122187,0.4421053,1.502914,0.3489165,-0.0957512,1.253945,0.6055897,280.7667,281.5778,349.1578,True
0,1.188891,0.002300008,-0.001614455,0.1436754,-1.446102,1.330774,-2.147328,0.2437218,1.303969,0.6073728,-0.7312012,0.06957345,10.74271,16.15599,-0.1191259,-0.008481666,-0.05868509,-0.3249099,-3.62809,-0.6137939,0.3141863,1.456646,0.5088615,0.06764886,0.1632423,0.003189463,-1.118062,0.2853919,-0.1127628,0.441564,1.503034,0.3496606,-0.09679806,1.254016,0.60564,280.2411,282.5067,348.3707,True
0,1.200002,-0.01478761,0.003600404,0.1277049,-1.446759,1.331437,-2.146694,0.2430356,1.304193,0.6078098,-0.7314915,-0.02697754,10.58355,16.30598,-0.1381215,0.0478441,-0.01793168,-0.3254654,-3.619503,-0.6196923,0.3135871,1.456646,0.5093331,0.0570868,0.1589805,0.01182694,-1.1177,0.2874179,-0.1139934,0.4410906,1.50317,0.3504796,-0.09781013,1.254108,0.6056377,280.7708,280.4268,350.2586,True
0,1.211113,-0.03077205,0.00138016,0.1170894,-1.447251,1.332375,-2.146036,0.2422603,1.304223,0.6082788,-0.7325067,-0.09231961,10.4244,16.41311,-0.1529578,0.09143423,0.005718286,-0.3262569,-3.611547,-0.6250167,0.3131231,1.456728,0.509748,0.05522875,0.1504403,0.03740937,-1.116519,0.2890916,-0.115276,0.4406345,1.503329,0.3511133,-0.09859182,1.254343,0.6058423,280.7385,281.1516,349.595,True
0,1.222224,-0.05418224,-0.01473965,0.0990698,-1.446868,1.333162,-2.144708,0.2416427,1.304506,0.6087523,-0.7322697,0.02260999,10.2122,16.47739,-0.1571493,0.09140891,0.01427903,-0.3264636,-3.608264,-0.6262745,0.3126824,1.456945,0.5101981,0.05864616,0.1301934,0.05760399,-1.115251,0.2901501,-0.1165255,0.4403282,1.503466,0.351665,-0.09966642,1.254503,0.606126,280.543,282.3448,348.3651,True
0,1.233335,-0.06904988,-0.02971717,0.09488041,-1.446717,1.334424,-2.143667,0.241081,1.304803,0.6091771,-0.7323778,-0.01004941,10.02653,16.49882,-0.1225918,0.03494826,0.05435665,-0.3240167,-3.60893,-0.6254178,0.3125955,1.457126,0.5105789,0.06299357,0.1056946,0.06500478,-1.114259,0.2907191,-0.1175743,0.4400827,1.503535,0.3521743,-0.1005981,1.254532,0.6062137,281.0515,280.8195,349.6712,True
0,1.244446,-0.07862797,-0.03402163,0.09171388,-1.44677,1.335493,-2.142604,0.2405983,1.305108,0.6096323,-0.7319618,0.03834562,9.814323,16.45597,-0.07440411,-0.0352575,0.06235076,-0.3216001,-3.613796,-0.6215512,0.312425,1.457318,0.5108902,0.02765744,0.07479881,0.04511217,-1.114452,0.2905561,-0.1167386,0.4398727,1.503549,0.3525786,-0.1013391,1.254616,0.606358,280.8442,281.6257,348.9427,True
0,1.255558,-0.08712635,-0.04046514,0.08428963,-1.446622,1.336362,-2.141717,0.2399884,1.305232,0.6100376,-0.7323672,-0.03727687,9.734747,16.41311,-0.05091219,-0.06821742,0.05782822,-0.3202499,-3.617656,-0.6180851,0.3121146,1.457432,0.5112543,-0.004591007,0.06415126,0.0166818,-1.115271,0.2910297,-0.1158209,0.4397129,1.50358,0.3529804,-0.1020722,1.25476,0.6065044,280.9765,281.6153,348.9364,True
0,1.266669,-0.108433,-0.04912449,0.06517651,-1.445903,1.336844,-2.139825,0.2396027,1.30549,0.610472,-0.7326292,-0.02340898,9.70822,16.37026,-0.04667452,-0.07245858,0.05352382,-0.3193476,-3.619395,-0.6160967,0.3119498,1.457484,0.5115712,-0.03485779,0.05137919,-0.02562279,-1.117026,0.2909798,-0.11428,0.4396178,1.50357,0.3532968,-0.1027601,1.254928,0.6065893,281.0995,281.2375,349.2823,True
0,1.27778,-0.1212276,-0.05562779,0.0449819,-1.445177,1.337186,-2.138095,0.2392992,1.305652,0.6107838,-0.7330191,-0.03536643,9.787797,16.3274,-0.04567802,-0.05328042,0.05036244,-0.3189982,-3.618276,-0.6166573,0.3117254,1.45752,0.5118365,-0.03304086,0.04394886,-0.05653443,-1.118587,0.2911464,-0.1141854,0.4395314,1.503492,0.3536344,-0.1034511,1.2551,0.6066381,281.1887,280.7162,349.7626,True
0,1.288891,-0.1233668,-0.05458056,0.04178577,-1.444888,1.337792,-2.136741,0.238903,1.305869,0.611201,-0.7322633,0.06947859,9.814323,16.28455,-0.04995233,-0.04477132,0.05148008,-0.3183884,-3.617717,-0.6164962,0.3115714,1.457555,0.5120969,-0.007599201,0.04077986,-0.0685211,-1.11977,0.2914112,-0.1150281,0.439542,1.503351,0.3539259,-0.1041796,1.25524,0.6066827,281.1809,280.2701,350.1459,True
0,1.300002,-0.10633,-0.05669291,0.03111381,-1.444301,1.338206,-2.136307,0.2388695,1.306064,0.6112742,-0.7325344,-0.02530507,9.681698,16.2417,-0.04238213,-0.0415873,0.06634513,-0.3170807,-3.616256,-0.6176928,0.3115518,1.4576,0.5122418,0.007077161,0.04080183,-0.09212074,-1.12169,0.2916465,-0.1157823,0.4395138,1.503183,0.3541481,-0.1048668,1.255372,0.6066089,281.5321,278.2004,351.9222,True
0,1.311113,-0.09462546,-0.05562266,0.02150108,-1.443743,1.338437,-2.135741,0.2387654,1.306238,0.611335,-0.7330905,-0.05040658,9.549072,16.17742,-0.02949387,-0.03519798,0.08116867,-0.3158003,-3.614262,-0.6197162,0.3116769,1.457524,0.5123975,0.002880368,0.04399152,-0.08568262,-1.122514,0.2922377,-0.1158749,0.4395832,1.503035,0.3543115,-0.1053273,1.255555,0.6066552,281.5289,278.145,352.0022,True
0,1.322224,-0.09360031,-0.04926696,0.009759648,-1.443318,1.338359,-2.134752,0.2387352,1.306375,0.6115854,-0.7341893,-0.1000017,9.522545,16.13456,-0.01877719,-0.05754311,0.08210289,-0.3142248,-3.616017,-0.6181746,0.3118383,1.457564,0.5125213,0.003118575,0.03865559,-0.0633148,-1.12243,0.292609,-0.1160478,0.4397658,1.503115,0.3545449,-0.1058032,1.255721,0.606767,281.5546,278.2484,351.8696,True
0,1.333336,-0.1011134,-0.04189386,-0.006237887,-1.442729,1.337929,-2.133212,0.238767,1.306445,0.6114504,-0.7342095,-0.001011372,9.416446,16.09171,-0.02095846,-0.06818964,0.07357763,-0.3130823,-3.618082,-0.615737,0.312153,1.457626,0.5126257,0.008617355,0.02267299,-0.04739998,-1.122346,0.2923592,-0.1161713,0.4399419,1.502949,0.3545618,-0.106098,1.255823,0.6067833,281.5712,278.0431,352.0866,True
0,1.344447,-0.09797022,-0.02697258,-0.007358734,-1.442806,1.337727,-2.13219,0.2389392,1.306495,0.611624,-0.7338032,0.03706926,9.23077,16.07028,-0.01033702,-0.06602484,0.07030077,-0.3121502,-3.61853,-0.615546,0.3123147,1.457667,0.5127573,-0.006350629,-0.007159394,-0.05471981,-1.123109,0.2910606,-0.115097,0.4402034,1.502864,0.3544831,-0.1063886,1.255889,0.6066522,281.6408,276.5748,353.3792,True
0,1.355558,-0.09163921,-0.008837486,-0.004238172,-1.443153,1.337549,-2.131299,0.2391167,1.306546,0.6113441,-0.7332811,0.04744444,8.992041,16.04885,0.01615757,-0.07550111,0.0498255,-0.3115872,-3.621798,-0.6135468,0.3125564,1.457777,0.5127616,-0.03412888,-0.0316646,-0.0640326,-1.123983,0.2897714,-0.1132666,0.4404636,1.502742,0.3542998,-0.1063364,1.255867,0.6068659,281.465,277.6093,352.3348,True
0,1.366669,-0.07994629,-0.002412893,-0.006408926,-1.443235,1.337327,-2.130774,0.2393495,1.306616,0.6114933,-0.7337722,-0.04524819,8.806365,16.02742,0.04475177,-0.09348059,0.02292416,-0.3111813,-3.627408,-0.6096694,0.312768,1.457826,0.5127821,-0.04917141,-0.05084081,-0.07667034,-1.125082,0.2883403,-0.1114895,0.4406432,1.502669,0.3541987,-0.1065693,1.256031,0.606775,281.6587,276.7192,353.1441,True
0,1.37778,-0.0501626,0.005116925,-0.01500905,-1.443146,1.33674,-2.131059,0.2397464,1.306638,0.6113322,-0.7339986,-0.02023316,8.726789,15.96315,0.05530152,-0.08704874,0.01220715,-0.3107153,-3.629846,-0.608245,0.313096,1.457837,0.5126696,-0.06212835,-0.0614892,-0.09358405,-1.126497,0.2870938,-0.1098463,0.4408732,1.502522,0.3540521,-0.1067658,1.256171,0.6066151,281.6857,275.6799,354.1361,True
0,1.388891,-0.01710812,-0.00972967,-0.02779393,-1.442202,1.336469,-2.131863,0.240053,1.306549,0.6111157,-0.7343837,-0.03504157,8.700266,15.94172,0.0552271,-0.06467313,0.01012437,-0.3107131,-3.629683,-0.6090189,0.3133322,1.4579,0.5126235,-0.06431974,-0.05935323,-0.09888698,-1.127712,0.2863343,-0.1086788,0.4410701,1.502413,0.3539202,-0.106882,1.256296,0.6064264,281.6626,274.8046,355.0302,True
0,1.400002,0.02340414,-0.02454818,-0.04059057,-1.441099,1.336164,-2.133404,0.2403959,1.306611,0.6111913,-0.7352205,-0.07627776,8.541114,15.94172,0.05523837,-0.05296657,0.01547613,-0.310303,-3.629261,-0.6099662,0.3135736,1.457964,0.5124791,-0.05471092,-0.05082239,-0.09685475,-1.128699,0.2860007,-0.1083638,0.4412878,1.502328,0.3538857,-0.1068955,1.256331,0.6062958,281.6355,274.064,355.6843,True
0,1.411114,0.04257547,-0.02770383,-0.04699785,-1.440402,1.335841,-2.13429,0.2406706,1.306613,0.6110075,-0.7356503,-0.03877357,8.355438,15.94172,0.05428983,-0.05832296,0.02825669,-0.3091972,-3.630258,-0.609601,0.3137828,1.458027,0.5123138,-0.03540198,-0.0401636,-0.08319478,-1.129085,0.2858883,-0.1085709,0.4414134,1.502237,0.3537347,-0.1067383,1.256341,0.6062876,281.4914,274.1836,355.6071,True
0,1.422225,0.04353755,-0.002166092,-0.05667438,-1.440567,1.334549,-2.134661,0.2411317,1.306583,0.6110306,-0.7362229,-0.05222777,8.328911,15.89886,0.05127824,-0.04773629,0.05493618,-0.3078247,-3.628064,-0.612106,0.3139262,1.45793,0.5122495,-0.02996148,-0.03377191,-0.07259054,-1.129495,0.2856693,-0.1083845,0.4415774,1.502072,0.3536265,-0.1065024,1.256265,0.6062651,281.2763,274.1525,355.6342,True
0,1.433336,0.03923947,0.008472979,-0.05671157,-1.440566,1.333719,-2.13476,0.2414772,1.306473,0.6108613,-0.7353994,0.0755077,8.408487,15.87744,0.04801772,-0.03601671,0.05072605,-0.3074401,-3.627263,-0.6132858,0.3141673,1.457858,0.5120711,-0.03422361,-0.0369675,-0.07254628,-1.130216,0.285036,-0.1075725,0.4417831,1.501942,0.3534055,-0.1062423,1.256165,0.6062897,281.0428,274.2421,355.5101,True
0,1.444447,0.0370795,0.0116214,-0.06843731,-1.440161,1.332607,-2.134966,0.241878,1.306411,0.6109221,-0.734731,0.06029733,8.514586,15.89886,0.04460026,-0.01041954,0.03163444,-0.3080153,-3.626056,-0.614794,0.3143443,1.457832,0.5119302,-0.05448055,-0.05295508,-0.07554355,-1.131103,0.2837031,-0.105781,0.4420819,1.501792,0.3530521,-0.1059832,1.256145,0.6064201,280.8154,275.0167,354.7569,True
0,1.455558,0.03815138,0.00305859,-0.08119547,-1.43916,1.331604,-2.135257,0.2423299,1.306317,0.6108513,-0.7342367,0.04464919,8.647213,15.96315,0.04985968,0.001318298,0.02735755,-0.3080292,-3.624768,-0.6167309,0.3146564,1.45788,0.511765,-0.05556835,-0.0572072,-0.0776653,-1.131945,0.2828883,-0.1047674,0.4424481,1.501729,0.3527184,-0.1057952,1.256086,0.6066066,280.6615,276.0239,353.7313,True
0,1.466669,0.04460593,-0.0161018,-0.08327071,-1.437947,1.331197,-2.135914,0.2427004,1.306277,0.6109297,-0.7342862,-0.004853527,8.753316,16.04885,0.0487247,-0.008247282,0.01562778,-0.3079637,-3.626354,-0.6157526,0.3148785,1.457874,0.5116379,-0.05557682,-0.06146767,-0.07873345,-1.132769,0.2818615,-0.1037123,0.4426673,1.501674,0.3524773,-0.1056552,1.256034,0.6067646,280.5513,276.8788,352.8589,True
0,1.47778,0.05317241,-0.02350003,-0.07473924,-1.437215,1.330985,-2.136839,0.2431369,1.306194,0.6107917,-0.7343305,-0.004025875,8.859415,16.07028,0.04216542,-0.009293038,-0.005632862,-0.3084175,-3.628743,-0.6137188,0.3152694,1.457891,0.5115433,-0.05548795,-0.05721453,-0.07020263,-1.133101,0.2812615,-0.1028721,0.4429533,1.501701,0.3523009,-0.1054874,1.25603,0.6069253,280.4196,277.6298,352.067,True
0,1.488891,0.06596429,-0.02655961,-0.05987349,-1.43701,1.330191,-2.137498,0.2441654,1.308374,0.6149099,-0.7345776,-0.02257016,8.965518,16.07028,0.06139736,-0.01990486,-0.00261966,-0.3080958,-3.630318,-0.6135974,0.3155715,1.457965,0.51142,-0.05513939,-0.04764874,-0.03610562,-1.132286,0.2811409,-0.1021967,0.443188,1.501608,0.352174,-0.1053011,1.255978,0.60703,280.2656,278.0772,351.5554,True
0,1.500003,0.07767182,-0.01795794,-0.04820258,-1.437023,1.330021,-2.138733,0.2446271,1.3085,0.6149776,-0.7345302,0.004101913,8.992041,16.04885,0.06580736,-0.01993432,0.01651834,-0.3072798,-3.629344,-0.6153489,0.3158873,1.458126,0.5113142,-0.05703098,-0.04235236,-0.01265672,-1.131766,0.2806696,-0.1012526,0.4433853,1.501536,0.3519702,-0.1050685,1.255926,0.6070819,280.0648,278.3416,351.2393,True
0,1.511114,0.0776875,-0.01794644,-0.04393355,-1.436676,1.329895,-2.139661,0.2446674,1.308547,0.6152117,-0.7337872,0.06729981,8.992041,16.02742,0.06382458,-0.02317134,0.03356881,-0.3063141,-3.628423,-0.6168875,0.3162031,1.458239,0.5111411,-0.06856935,-0.02852189,0.005589252,-1.130958,0.2809318,-0.1001881,0.4436413,1.50153,0.3518231,-0.1048742,1.256053,0.6073468,279.9425,278.3557,350.8382,True
0,1.522225,0.0787719,-0.0211206,-0.03859795,-1.436264,1.32987,-2.140558,0.2450312,1.308666,0.6153109,-0.7334607,0.02856947,9.018568,15.94172,0.05535516,-0.03917632,0.03573595,-0.3053873,-3.630141,-0.6155098,0.3163719,1.458331,0.5109618,-0.06770249,-0.02638046,-0.0136001,-1.131898,0.2805078,-0.09935562,0.4439214,1.5015,0.3515267,-0.1048172,1.256444,0.608313,280.2102,279.8505,348.3785,True
0,1.533336,0.07878949,-0.02433177,-0.04071862,-1.435538,1.329668,-2.141545,0.245112,1.30805,0.6144094,-0.7322175,0.1126856,9.098145,15.79173,0.03059528,-0.026394,0.007195857,-0.3062182,-3.631577,-0.6137625,0.3165227,1.458418,0.5107884,-0.05421226,-0.0252816,-0.04782817,-1.133556,0.2800684,-0.09902698,0.4441887,1.501575,0.3513808,-0.104625,1.256412,0.6090729,280.334,282.679,345.2363,True
0,1.544447,0.07774233,-0.02966182,-0.04069886,-1.434845,1.329554,-2.142374,0.2453713,1.308172,0.6144934,-0.7310084,0.1086456,9.23077,15.59888,0.01447596,0.0151203,0.003152352,-0.3071764,-3.627581,-0.6171769,0.3166442,1.458521,0.510638,-0.04153461,-0.01141567,-0.05754637,-1.134653,0.2803078,-0.099166,0.4444716,1.501667,0.3512762,-0.10441,1.256204,0.6094168,280.2531,285.1368,342.9435,True
0,1.555558,0.07452302,-0.0349813,-0.04492556,-1.434497,1.329188,-2.142544,0.2458977,1.308039,0.6151109,-0.7298718,0.1020951,9.442968,15.42747,0.01117082,0.03430127,-0.004243293,-0.3079701,-3.625643,-0.6191165,0.3168056,1.458589,0.5104654,-0.04546139,-0.005054964,-0.02553442,-1.133724,0.2804815,-0.0986576,0.4445946,1.501741,0.351243,-0.1041055,1.255977,0.6093614,280.0037,285.8796,342.4317,True
0,1.566669,0.06815338,-0.04246727,-0.04702081,-1.433567,1.329091,-2.143055,0.2461352,1.308204,0.6152649,-0.728366,0.1358398,9.681698,15.27748,0.01012783,0.05239036,0.004326202,-0.3084111,-3.621756,-0.6229142,0.3169553,1.458719,0.5102596,-0.05046578,0.007706925,0.006493255,-1.132585,0.281204,-0.09820913,0.4447637,1.501723,0.3510866,-0.1037902,1.255729,0.6090147,279.6416,285.3629,343.1686,True
0,1.577781,0.05641857,-0.03611557,-0.04596987,-1.432999,1.328652,-2.143321,0.2461685,1.308231,0.6142812,-0.726309,0.1859189,9.867373,15.19177,0.008192707,0.05233154,0.0288461,-0.3077171,-3.618191,-0.6263193,0.3172077,1.458809,0.5100222,-0.05460316,0.01941895,0.01933323,-1.132021,0.2819883,-0.0977689,0.4449899,1.501752,0.3507483,-0.1035344,1.255627,0.608794,279.3517,284.1883,344.2765,True
0,1.588892,0.03828159,-0.02872817,-0.04703239,-1.43261,1.328245,-2.143136,0.246293,1.308478,0.6142387,-0.7250845,0.109358,9.973473,15.10606,0.003065471,0.0458767,0.05124193,-0.3068659,-3.615103,-0.6291622,0.317459,1.458934,0.5098002,-0.01953278,0.008794287,0.01043882,-1.132159,0.2816902,-0.09857558,0.445219,1.50183,0.3504856,-0.1033252,1.255574,0.6089032,279.1786,284.1923,344.0602,True
0,1.600003,0.007319977,-0.009677844,-0.05130924,-1.432593,1.327436,-2.142151,0.2465082,1.308515,0.613847,-0.7236474,0.1297703,10.02653,15.02035,0.003171442,0.03627183,0.06081463,-0.3061096,-3.61268,-0.6315702,0.3177433,1.459059,0.5095994,-0.01761968,-0.03379902,-0.01305175,-1.132995,0.2795688,-0.09761737,0.4453296,1.501746,0.3502872,-0.1032137,1.255523,0.6091322,279.1336,285.6874,342.5634,True
0,1.611114,-0.01724964,0.004099919,-0.05665168,-1.432805,1.326175,-2.140897,0.2472367,1.310586,0.6171231,-0.7220954,0.1402172,9.94695,14.91322,0.01813099,0.00223266,0.05529215,-0.3051066,-3.614913,-0.6302102,0.3180733,1.459038,0.5093536,-0.04839856,-0.03489166,-0.002074008,-1.13261,0.2791067,-0.09585436,0.4455249,1.50173,0.3501167,-0.1031409,1.255473,0.6091879,279.1295,286.618,341.8399,True
0,1.622225,-0.04183424,0.02207976,-0.07052347,-1.432809,1.324682,-2.139462,0.2476369,1.310963,0.617275,-0.7204362,0.1500662,9.867373,14.82751,0.01686759,0.01612186,0.03509059,-0.3057085,-3.613977,-0.631232,0.3184017,1.459037,0.5090966,-0.04064665,-0.009344766,0.02768198,-1.131512,0.2800523,-0.09596914,0.4457263,1.501717,0.3498859,-0.1031047,1.255497,0.6091645,279.1299,286.5816,341.9868,True
0,1.633336,-0.05678626,0.026238,-0.08543758,-1.432266,1.323161,-2.138209,0.2477971,1.311212,0.6171377,-0.7194822,0.0856487,9.787797,14.7418,0.02316893,0.04277608,0.03189802,-0.3064382,-3.609728,-0.6357794,0.3186773,1.459104,0.5088663,0.01496053,0.005590637,0.04842459,-1.130383,0.2807604,-0.09821605,0.4460317,1.501773,0.3496449,-0.1031369,1.255724,0.6093462,279.2275,285.9908,342.3194,True
0,1.644447,-0.08773112,0.03245968,-0.1045862,-1.431806,1.321299,-2.135912,0.2483028,1.311747,0.6173358,-0.7188021,0.06125499,9.655171,14.65609,0.03486229,0.05239383,0.03182441,-0.3067552,-3.606401,-0.6397656,0.3192414,1.459292,0.5085275,0.03834945,-0.009305138,0.04284343,-1.130021,0.2801502,-0.09914176,0.4462928,1.50182,0.3493299,-0.1032256,1.256227,0.6101482,279.7578,285.6006,341.717,True
0,1.655559,-0.1090649,0.0355163,-0.1216068,-1.431132,1.319527,-2.133934,0.2485407,1.311614,0.6164858,-0.7185581,0.02159893,9.575595,14.59181,0.04030116,0.02895368,0.03812764,-0.3057932,-3.606455,-0.640327,0.3197924,1.459507,0.5081923,0.02627206,-0.03805923,0.006720074,-1.131172,0.278329,-0.09816013,0.4466547,1.501898,0.3488507,-0.1029787,1.2564,0.610808,280.3599,286.5898,340.3608,True
