loc,t,aDotS,bDotS,gDotS,aS,bS,gS,xS,yS,zS,qE,qDotE,emgA,emgB,aDotSH,bDotSH,gDotSH,aSH,bSH,gSH,xSH,ySH,zSH,aDotUB,bDotUB,gDotUB,aUB,bUB,gUB,xUB,yUB,zUB,xHand,yHand,zHand,aHand,bHand,gHand,enable
3,0,0.176114,-0.1944757,0.4176629,4.683452,1.541963,-2.823412,0.3413326,1.19606,0.4866142,-1.332084,0.004331362,8.541114,14.44182,-0.1833547,0.0653951,-0.3350247,-0.745397,-3.646687,-0.5169685,0.3185267,1.401663,0.4395647,0.2379937,0.3071387,0.1133496,-0.9525051,0.5668281,-0.3270884,0.4576841,1.50562,0.2957461,0.04297087,1.115915,0.4050266,291.7357,292.9371,324.4865,True
3,0.01111111,0.1548104,-0.2159374,0.3890314,4.680886,1.545931,-2.824273,0.3405694,1.195597,0.4859147,-1.333541,-0.1327052,8.647213,14.50611,-0.1797718,0.05572489,-0.2913952,-0.7472425,-3.647634,-0.5144628,0.3178579,1.401175,0.4395084,0.1974558,0.2474611,0.1030633,-0.9519299,0.5679144,-0.3285808,0.4572956,1.505569,0.2959135,0.04254621,1.115627,0.403428,291.3094,290.683,326.7296,True
3,0.02222222,0.1292069,-0.2235833,0.3571466,4.678976,1.549432,-2.824757,0.3398504,1.195199,0.4850743,-1.333599,-0.004021095,8.832892,14.57039,-0.1931553,0.07473546,-0.2273301,-0.7482247,-3.646004,-0.5130686,0.317177,1.400875,0.4391015,0.1410425,0.2048035,0.1046733,-0.9510186,0.5692126,-0.3289129,0.4569334,1.505505,0.2959142,0.04222978,1.115347,0.4012274,291.2606,290.3558,326.8055,True
3,0.03333334,0.111068,-0.2290188,0.3380322,4.6766,1.55283,-2.825175,0.3391961,1.194583,0.4842758,-1.333782,-0.01650376,8.992041,14.63467,-0.2183432,0.1288662,-0.1652282,-0.7496942,-3.641867,-0.5131168,0.3163718,1.400491,0.4385211,0.09432819,0.1866484,0.1189896,-0.9497876,0.5719017,-0.3300242,0.4565014,1.505419,0.2959461,0.04193743,1.115006,0.3985295,291.334,290.3646,326.3316,True
3,0.04444445,0.09294961,-0.2430189,0.3104159,4.675235,1.556604,-2.825434,0.338369,1.194281,0.4834821,-1.333703,0.007539407,9.124667,14.67752,-0.239501,0.1713594,-0.1330146,-0.7516682,-3.637842,-0.5126857,0.3156655,1.400165,0.4380352,0.06661931,0.1834379,0.1171362,-0.949353,0.5747571,-0.331697,0.4562111,1.505381,0.2959273,0.04162616,1.114605,0.3955303,291.4354,290.1622,325.9331,True
3,0.05555556,0.07592557,-0.2665867,0.2839045,4.673976,1.560798,-2.825547,0.337486,1.193906,0.4827566,-1.333907,-0.01853196,9.23077,14.69895,-0.2637484,0.2287212,-0.08475098,-0.7531318,-3.631732,-0.5136311,0.3149878,1.399756,0.4374628,0.04523699,0.1855549,0.1099078,-0.9490601,0.5776384,-0.3332011,0.4558956,1.505263,0.2959309,0.04130665,1.114169,0.392456,291.5275,289.8292,325.6314,True
3,0.06666667,0.06633755,-0.278404,0.2637217,4.672945,1.564853,-2.825804,0.3366633,1.193592,0.4819806,-1.334054,-0.01306799,9.336869,14.7418,-0.2847648,0.2520089,-0.04404638,-0.7539313,-3.627094,-0.5134751,0.3144383,1.399395,0.436857,0.06103092,0.2047616,0.09271118,-0.9497114,0.5813172,-0.3366587,0.4556577,1.505306,0.2958534,0.0409825,1.113717,0.3895074,291.6185,289.5694,325.3048,True
3,0.07777778,0.04080042,-0.3030749,0.2372186,4.672549,1.5693,-2.825314,0.3357354,1.193453,0.4813135,-1.334187,-0.01186843,9.522545,14.7418,-0.2939973,0.2423143,-0.002437003,-0.7539116,-3.622967,-0.5128564,0.3138121,1.399184,0.4362757,0.05028063,0.2111485,0.0843036,-0.9499634,0.5844743,-0.3386816,0.4554273,1.505235,0.2957666,0.04058188,1.113293,0.3868013,291.7217,289.2275,325.1592,True
3,0.08888889,0.02270878,-0.3148994,0.2224016,4.671456,-4.709436,-2.82496,0.3347428,1.193282,0.4807551,-1.334561,-0.03393078,9.681698,14.69895,-0.2872617,0.2177588,0.03369103,-0.7533273,-3.619732,-0.5121315,0.3132763,1.398996,0.4355726,0.02586636,0.2164465,0.0930777,-0.949524,0.5879999,-0.3401477,0.4552335,1.505141,0.2955668,0.04012324,1.112933,0.384394,291.8008,288.9315,325.0763,True
3,0.1,-0.003926527,-0.332105,0.2001384,4.671371,-4.704683,-2.823869,0.3338765,1.193189,0.4800527,-1.33408,0.04438372,9.787797,14.65609,-0.2743663,0.2007303,0.0420775,-0.7535174,-3.616967,-0.5114396,0.3127897,1.398891,0.4349687,-0.02843904,0.2025535,0.09469079,-0.9490025,0.5906237,-0.3393983,0.4552196,1.505065,0.2952731,0.03965716,1.112662,0.3822874,291.8551,288.7208,325.0188,True
3,0.1111111,-0.008170133,-0.3374627,0.1948388,4.670697,-4.70036,-2.823455,0.3330524,1.192989,0.4793324,-1.334374,-0.02719096,9.840847,14.61324,-0.2647247,0.1900985,0.04517674,-0.7539313,-3.614159,-0.5108708,0.3122732,1.398692,0.4341917,-0.04243117,0.1897742,0.07990549,-0.9492896,0.5927522,-0.3397741,0.4551241,1.50497,0.2950571,0.03912212,1.112521,0.3804437,291.9135,288.5007,325.0294,True
3,0.1222222,-0.02949182,-0.3439687,0.1810491,4.670475,-4.696014,-2.822129,0.332269,1.192974,0.4785833,-1.333917,0.04226695,9.920423,14.54896,-0.2496788,0.172006,0.05567531,-0.7537172,-3.611769,-0.5103315,0.311877,1.398663,0.4336131,-0.07161814,0.1674218,0.03650449,-0.9507011,0.5937107,-0.3386872,0.4552018,1.504966,0.2948241,0.03853901,1.112544,0.3788002,291.9362,288.4257,324.9694,True
3,0.1333333,-0.03375611,-0.3397385,0.1789151,4.669747,-4.691817,-2.821703,0.3314255,1.192865,0.4778838,-1.334742,-0.07564138,10.05305,14.50611,-0.2367671,0.1507115,0.06511897,-0.7532799,-3.60974,-0.5095264,0.3114637,1.398707,0.4329991,-0.08034438,0.1706245,0.01742297,-0.9517099,0.5958862,-0.338733,0.4551685,1.504928,0.2946174,0.03798295,1.112742,0.3772393,291.8961,288.3749,324.9518,True
3,0.1444445,-0.03911992,-0.3312512,0.1735699,4.669152,-4.68803,-2.820921,0.3306843,1.192878,0.4771791,-1.334133,0.05647151,10.2122,14.44182,-0.2248415,0.1081036,0.07772506,-0.752098,-3.609009,-0.5078454,0.3110745,1.398805,0.4324512,-0.09868601,0.1738278,-0.004758574,-0.95309,0.5980532,-0.3383067,0.4552453,1.504927,0.2943814,0.0375002,1.113083,0.3756716,291.7928,288.4452,324.814,True
3,0.1555556,-0.03703987,-0.3206235,0.1650247,4.668436,-4.684272,-2.820445,0.3299454,1.193077,0.4766188,-1.33513,-0.09161231,10.4244,14.4204,-0.2172266,0.0931794,0.09254962,-0.7509688,-3.607246,-0.5069892,0.3107033,1.398853,0.4318891,-0.1137784,0.1642429,-0.0227218,-0.9543954,0.5994454,-0.3373096,0.4552891,1.504891,0.2941227,0.0370413,1.113543,0.3740196,291.6979,288.4743,324.6741,True
3,0.1666667,-0.03814423,-0.3121263,0.1586062,4.667961,-4.680706,-2.819823,0.3292544,1.193057,0.4759083,-1.335024,0.01068346,10.68966,14.37754,-0.2020756,0.07399534,0.1158273,-0.7492111,-3.605484,-0.5065433,0.3103605,1.398929,0.4312887,-0.1276513,0.1589099,-0.02578273,-0.9553201,0.6011466,-0.3364789,0.4553154,1.504831,0.2938473,0.03659922,1.114074,0.3722562,291.5764,288.5297,324.4377,True
3,0.1777778,-0.0403137,-0.2983091,0.1564431,4.667227,-4.677094,-2.819317,0.3285434,1.193067,0.475137,-1.335412,-0.03560006,10.90185,14.31326,-0.1903218,0.08466426,0.1232089,-0.7485134,-3.602618,-0.5069567,0.3099593,1.399055,0.430665,-0.1360209,0.1546278,-0.01078114,-0.9554127,0.6031387,-0.3357876,0.4553128,1.504733,0.2935779,0.0361961,1.114638,0.3704019,291.494,288.5092,324.2038,True
3,0.1888889,-0.04569782,-0.2802428,0.152142,4.666474,-4.673892,-2.818586,0.3279012,1.193109,0.4744685,-1.335393,0.002124298,11.06101,14.20613,-0.1979134,0.1166173,0.118011,-0.7486827,-3.598593,-0.5072211,0.3096559,1.399133,0.430042,-0.1464497,0.1546057,0.0117008,-0.9550964,0.6056283,-0.3351604,0.4553649,1.504702,0.2933085,0.03583641,1.115216,0.368509,291.4158,288.4216,323.9976,True
3,0.2,-0.04680182,-0.2706731,0.1478503,4.665905,-4.670873,-2.81789,0.3272947,1.193154,0.4738286,-1.335575,-0.01664463,11.22016,14.07757,-0.2033035,0.1315239,0.1148876,-0.7486375,-3.595231,-0.5072384,0.3093313,1.399194,0.4294245,-0.1515295,0.1481906,0.03518571,-0.9544151,0.6077691,-0.3345466,0.455424,1.504656,0.2929671,0.03549215,1.115746,0.3666037,291.3041,288.3819,323.7705,True
3,0.2111111,-0.05219357,-0.2590098,0.1361127,4.665512,-4.668082,-2.816913,0.3268403,1.193492,0.4732859,-1.335419,0.01441805,11.27321,13.949,-0.2032967,0.1453612,0.1202404,-0.7483222,-3.591569,-0.5076646,0.3090838,1.399255,0.4287808,-0.1601056,0.1343425,0.02887657,-0.9546447,0.6090472,-0.333289,0.4555466,1.504627,0.2926018,0.03515505,1.116191,0.3646979,291.2168,288.3745,323.5272,True
3,0.2222222,-0.05756983,-0.2548307,0.1169331,4.665765,-4.665322,-2.815977,0.3263525,1.193638,0.4727347,-1.335493,-0.006820061,11.19363,13.82044,-0.1937649,0.1571102,0.116991,-0.7483232,-3.587895,-0.5085125,0.3089148,1.399381,0.4282134,-0.161305,0.1237,0.01503064,-0.9552636,0.6100973,-0.3320664,0.4556475,1.504587,0.2922449,0.03483751,1.116547,0.3628393,291.179,288.2961,323.3354,True
3,0.2333333,-0.07681739,-0.2389629,0.1030837,4.665558,-4.662897,-2.814451,0.3257847,1.193965,0.4722445,-1.335286,0.01906637,11.00796,13.71331,-0.1703684,0.1422743,0.1071849,-0.7480639,-3.586026,-0.5087924,0.308769,1.399556,0.4276125,-0.1711153,0.1098639,-0.008323055,-0.9565089,0.6106248,-0.3302083,0.4558189,1.504616,0.2918131,0.03457247,1.116841,0.3610886,291.1996,288.105,323.2498,True
3,0.2444444,-0.08964466,-0.2315829,0.09242935,4.665688,-4.660469,-2.812904,0.325302,1.194213,0.471693,-1.335379,-0.008642321,10.76923,13.60617,-0.158568,0.1167332,0.1091709,-0.7471397,-3.58458,-0.5085069,0.3086343,1.399772,0.4270859,-0.1669575,0.09070936,-0.02009392,-0.9571342,0.61106,-0.3287787,0.4560248,1.504535,0.291317,0.03438606,1.11715,0.3595074,291.2543,287.7971,323.3044,True
3,0.2555556,-0.1014281,-0.2221045,0.07218583,4.666126,-4.658229,-2.811309,0.3249015,1.194629,0.4711998,-1.334884,0.04540462,10.47745,13.49904,-0.1136751,0.07848983,0.1161897,-0.7456138,-3.583979,-0.5090667,0.3086049,1.400338,0.4266291,-0.1659049,0.07899371,-0.02224506,-0.9576014,0.6114922,-0.3272162,0.4561756,1.504514,0.2908256,0.03418043,1.117499,0.3581211,291.2673,287.5001,323.3882,True
3,0.2666667,-0.106763,-0.2242763,0.06475216,4.6664,-4.655591,-2.809842,0.3244506,1.194977,0.4707258,-1.334925,-0.004069378,10.29178,13.3919,-0.07518842,0.05832704,0.1264939,-0.7440893,-3.582706,-0.5104049,0.3085638,1.400746,0.4261112,-0.1764039,0.06086671,-0.008305717,-0.9573425,0.6118746,-0.3250537,0.4564104,1.504469,0.2902391,0.03386084,1.117951,0.3569363,291.2924,287.3168,323.425,True
3,0.2777778,-0.1121091,-0.2243264,0.05517011,4.667003,-4.653145,-2.808295,0.3239838,1.195572,0.470165,-1.335012,-0.007735028,10.18567,13.30619,-0.05811987,0.04878337,0.1263379,-0.7429745,-3.581342,-0.511295,0.3085165,1.401231,0.4256103,-0.163535,0.03530455,-0.002067193,-0.9570336,0.6114824,-0.323357,0.4565914,1.50446,0.2896626,0.03349841,1.118546,0.3559197,291.2708,287.2099,323.4637,True
3,0.2888889,-0.1206567,-0.2200984,0.0519823,4.667162,-4.650814,-2.80644,0.3235505,1.196065,0.4696054,-1.335282,-0.02462666,10.15915,13.24191,-0.0559547,0.03388107,0.1262926,-0.7418038,-3.580165,-0.5114795,0.3085394,1.40178,0.4250619,-0.1581818,0.01506726,-0.001073606,-0.9568567,0.6109152,-0.3214278,0.4567821,1.50445,0.2891128,0.03315943,1.119313,0.3550311,291.2048,287.1243,323.5136,True
3,0.3,-0.1632921,-0.2170648,0.04459402,4.667708,-4.648552,-2.80312,0.3229668,1.196892,0.4690924,-1.33532,-0.00316096,10.23872,13.19906,-0.06338717,0.02959847,0.1284792,-0.7406096,-3.578727,-0.5113879,0.3084841,1.402359,0.4245403,-0.1612933,-0.00837703,0.005331352,-0.9562815,0.6099535,-0.318974,0.4570298,1.504439,0.2885003,0.03283542,1.120238,0.3541933,291.1008,287.1348,323.4967,True
3,0.3111111,-0.1931145,-0.2203954,0.03615676,4.668225,-4.645873,-2.800111,0.3223275,1.197455,0.4686284,-1.335099,0.02028235,10.34483,13.1562,-0.0633665,0.03491655,0.1327508,-0.7394693,-3.576836,-0.5120907,0.3084669,1.402889,0.4239881,-0.1689159,-0.01902245,-0.01164012,-0.9567278,0.6091062,-0.3164104,0.457264,1.504416,0.287859,0.03250482,1.121312,0.3533283,290.9809,287.1523,323.4775,True
3,0.3222222,-0.2442194,-0.2376512,0.02246139,4.669538,-4.642907,-2.795558,0.3215268,1.198242,0.4681363,-1.333753,0.1229449,10.4244,13.1562,-0.07100581,0.0828502,0.125449,-0.7396663,-3.57279,-0.5139816,0.3085395,1.40357,0.4233801,-0.1670017,-0.03711242,-0.03404715,-0.9574853,0.6075743,-0.3137433,0.4575225,1.504387,0.2872186,0.03213017,1.122519,0.3523857,290.8641,287.1933,323.3999,True
3,0.3333333,-0.3017267,-0.2570852,0.001329988,4.671347,-4.639809,-2.790241,0.3205851,1.199145,0.4675946,-1.334154,-0.03752412,10.55703,13.1562,-0.06892955,0.105231,0.1265337,-0.7395337,-3.569222,-0.515821,0.3086051,1.404183,0.4228027,-0.1723821,-0.04137275,-0.03932313,-0.9579198,0.606698,-0.311086,0.457831,1.50435,0.2865717,0.03158014,1.123917,0.3513404,290.7705,287.081,323.4178,True
3,0.3444445,-0.3730502,-0.2786548,-0.008049153,4.672962,-4.636356,-2.783758,0.3195013,1.200117,0.4671123,-1.332962,0.1096102,10.76923,13.17763,-0.08683982,0.1147292,0.1554625,-0.7380061,-3.565027,-0.5172591,0.3086478,1.404785,0.42221,-0.1691971,-0.06267409,-0.04150572,-0.9579934,0.6050661,-0.3082489,0.4581657,1.504356,0.285789,0.0308938,1.125513,0.3501905,290.5826,286.9779,323.3849,True
3,0.3555556,-0.4220048,-0.2958678,-0.01109684,4.67451,-4.632869,-2.777386,0.318404,1.201112,0.4666207,-1.332415,0.0493344,10.95491,13.22048,-0.08437419,0.1008127,0.1927019,-0.7353536,-3.561691,-0.5188914,0.3087157,1.405572,0.4216185,-0.1575056,-0.08503241,-0.04590597,-0.9581074,0.6029022,-0.3056302,0.4584786,1.50436,0.2850566,0.03000598,1.127341,0.3489241,290.3763,286.75,323.4509,True
3,0.3666667,-0.4965274,-0.318516,-0.02366394,4.676664,-4.629206,-2.769325,0.3170458,1.202211,0.4661555,-1.331664,0.06872511,11.16711,13.24191,-0.06658487,0.03680059,0.2648781,-0.7296891,-3.560013,-0.5200874,0.3087382,1.406561,0.4209356,-0.1500627,-0.09674593,-0.04812322,-0.9582821,0.600958,-0.3030752,0.4587872,1.504338,0.284209,0.02890826,1.129474,0.347555,290.1425,286.4201,323.5844,True
3,0.3777778,-0.5625331,-0.3411537,-0.03944372,4.679265,-4.625313,-2.760719,0.3153684,1.203477,0.4656692,-1.332187,-0.04804509,11.32626,13.26334,-0.06094803,0.009058274,0.2946075,-0.7254451,-3.55796,-0.5211583,0.3088278,1.407471,0.4202702,-0.1680882,-0.1052889,-0.04048685,-0.9580551,0.5992097,-0.2996711,0.4591723,1.504324,0.2833741,0.02763855,1.131996,0.3461106,289.8775,286.1458,323.6328,True
3,0.3888889,-0.6061352,-0.3711442,-0.041375,4.681458,-4.620487,-2.752456,0.3137887,1.204556,0.4651992,-1.331093,0.1008387,11.51194,13.28477,-0.07634991,0.01739383,0.3693213,-0.7201225,-3.552246,-0.5240648,0.308958,1.408543,0.4194922,-0.1925285,-0.1234213,-0.03598646,-0.957702,0.5969797,-0.2954372,0.4594956,1.504384,0.282712,0.02628408,1.134929,0.3446199,289.4993,286.0058,323.5358,True
3,0.4,-0.6710249,-0.4022564,-0.04434451,4.68415,-4.615574,-2.74253,0.3117811,1.206054,0.4646871,-1.330992,0.008685864,11.77719,13.24191,-0.09957831,0.03005864,0.3993624,-0.7157624,-3.54707,-0.526051,0.309115,1.409483,0.4187286,-0.2234953,-0.1532669,-0.04527986,-0.9576716,0.5934754,-0.289876,0.459948,1.504374,0.2819271,0.0246926,1.138278,0.3430883,289.0453,285.8379,323.4484,True
3,0.4111111,-0.7476057,-0.4494264,-0.06001712,4.687816,-4.610011,-2.731615,0.3098135,1.207473,0.4641922,-1.331949,-0.08698758,12.04244,13.17763,-0.1260057,0.05655131,0.4337237,-0.7114022,-3.540375,-0.5286974,0.3094669,1.410443,0.4178693,-0.2235797,-0.1500673,-0.05379942,-0.9580871,0.5913377,-0.2863005,0.4603809,1.504426,0.281184,0.02285885,1.142054,0.3415305,288.491,285.7044,323.3252,True
3,0.4222222,-0.8498522,-0.4668613,-0.07787734,4.691545,-4.605281,-2.718546,0.3076149,1.209093,0.4636226,-1.330949,0.092533,12.22811,13.13477,-0.133051,0.07687056,0.4902574,-0.7065026,-3.53334,-0.5320452,0.3097351,1.411471,0.4170165,-0.2057593,-0.1319211,-0.08060206,-0.9596408,0.5897543,-0.2837095,0.4609243,1.504496,0.2803702,0.02098546,1.146178,0.3399292,287.8356,285.8444,322.9535,True
3,0.4333333,-0.9478499,-0.4789271,-0.08724076,4.695134,-4.600679,-2.704677,0.3055018,1.210811,0.4629824,-1.33045,0.04518886,12.25464,13.02764,-0.1254299,0.07556856,0.5115352,-0.7007831,-3.526695,-0.5362427,0.3099684,1.412589,0.4162278,-0.1933283,-0.1340209,-0.1148277,-0.9615743,0.5869993,-0.2804175,0.4615778,1.504474,0.2795026,0.01893174,1.150617,0.3382188,287.1682,285.9129,322.6573,True
3,0.4444444,-1.010693,-0.4812559,-0.08605,4.698351,-4.596124,-2.691084,0.3031825,1.212507,0.4623885,-1.328936,0.1386591,12.17507,12.87765,-0.1099425,0.06907833,0.5806444,-0.6932629,-3.51867,-0.5417884,0.3102285,1.413779,0.41537,-0.21185,-0.1478449,-0.1562034,-0.9640606,0.5834498,-0.2754236,0.46219,1.504492,0.2786586,0.0167771,1.15535,0.3363804,286.4382,285.7968,322.5019,True
3,0.4555556,-1.09696,-0.4964606,-0.08901716,4.701851,-4.591074,-2.675663,0.3009037,1.214441,0.4617064,-1.328783,0.01344618,11.98939,12.66338,-0.1192037,0.01999262,0.6072502,-0.6858764,-3.51486,-0.5429291,0.3105691,1.414988,0.4142323,-0.238681,-0.1499844,-0.1751048,-0.9660638,0.5805182,-0.2700259,0.4628011,1.504466,0.2778087,0.01441494,1.160452,0.3344472,285.74,285.5749,322.3989,True
3,0.4666667,-1.160877,-0.5052149,-0.09739333,4.705816,-4.586498,-2.660589,0.2984375,1.216539,0.4609361,-1.329899,-0.1013957,11.75066,12.47054,-0.1350178,-0.03757489,0.6104575,-0.6788877,-3.512602,-0.5425147,0.3107554,1.416303,0.4133744,-0.2759945,-0.1563969,-0.1779164,-0.9674646,0.5777353,-0.2640154,0.4634631,1.504382,0.2768869,0.01196544,1.166014,0.3324853,285.0101,285.468,322.1732,True
3,0.4777778,-1.211992,-0.5128481,-0.1004675,4.709637,-4.581884,-2.64553,0.2957989,1.218669,0.4601915,-1.329012,0.08259775,11.51194,12.27769,-0.1582546,-0.04513593,0.6330016,-0.6718713,-3.507337,-0.544087,0.3110468,1.417623,0.4125395,-0.2800951,-0.164935,-0.1629662,-0.9681006,0.5748881,-0.259186,0.4641545,1.504337,0.2760148,0.009509707,1.172027,0.3305326,284.1708,285.7296,321.6043,True
3,0.4888889,-1.241813,-0.5139914,-0.09613968,-1.570126,-4.577395,-2.631105,0.2933,1.22069,0.4594226,-1.330028,-0.09321322,11.29973,12.08485,-0.1867405,-0.03570285,0.6726633,-0.6644491,-3.500125,-0.5465853,0.3114471,1.418918,0.4116693,-0.3015347,-0.1798616,-0.1766047,-0.9697112,0.5711576,-0.253053,0.4648595,1.504308,0.2751839,0.007070847,1.1785,0.3285534,283.286,286.1501,320.9281,True
3,0.5,-1.278038,-0.5055454,-0.084382,-1.567046,-4.573103,-2.615741,0.290563,1.222979,0.4585698,-1.330902,-0.07845879,11.11406,11.87058,-0.198267,-0.03365004,0.6972628,-0.6569976,-3.4933,-0.5493795,0.311838,1.420238,0.4108098,-0.3262579,-0.1756031,-0.197654,-0.972057,0.568181,-0.2469461,0.4656278,1.504229,0.2743924,0.004598237,1.185408,0.3265284,282.2871,286.6956,320.1166,True
3,0.5111111,-1.306821,-0.4949605,-0.07372873,-1.563843,-4.568936,-2.600701,0.2880259,1.22488,0.4575245,-1.332223,-0.1197033,11.03448,11.67774,-0.1948162,-0.0507395,0.7249069,-0.6488739,-3.48742,-0.5520613,0.3123133,1.421634,0.4097626,-0.3424156,-0.1628185,-0.2134588,-0.9745439,0.5658324,-0.2413612,0.4664868,1.504076,0.2735417,0.002143515,1.192633,0.3244794,281.1855,287.7337,318.7777,True
3,0.5222223,-1.383562,-0.4802951,-0.0725747,-1.560625,-4.565219,-2.583035,0.2851894,1.227426,0.4564817,-1.331932,0.02790012,11.06101,11.59203,-0.1913075,-0.08593972,0.7525088,-0.6398452,-3.482401,-0.5541133,0.3127651,1.423017,0.4087572,-0.3576159,-0.1468295,-0.2399232,-0.977778,0.563585,-0.2356061,0.4673887,1.504031,0.272754,-0.0001809979,1.199978,0.3224312,280.0453,289.5512,316.6583,True
3,0.5333334,-1.458218,-0.4539147,-0.07365375,-1.55683,-4.562229,-2.564861,0.2824534,1.229516,0.455111,-1.332669,-0.0673407,11.14058,11.5706,-0.210255,-0.09669362,0.7782114,-0.6310658,-3.476158,-0.5561165,0.3132205,1.424357,0.4076223,-0.3611759,-0.1361523,-0.2739643,-0.9814532,0.5611053,-0.2301757,0.4682619,1.504046,0.2718711,-0.002500748,1.207329,0.3203506,278.9568,291.9633,313.9887,True
3,0.5444446,-1.509413,-0.4381169,-0.07893771,-1.553501,-4.559195,-2.546494,0.2796999,1.231968,0.4540637,-1.330626,0.1877744,11.22016,11.59203,-0.237734,-0.08510688,0.8093491,-0.6221629,-3.467788,-0.5592212,0.3136823,1.425796,0.4065614,-0.3721007,-0.1382699,-0.3004874,-0.9852785,0.5580487,-0.2239348,0.4691809,1.503945,0.2710645,-0.004755834,1.214544,0.3182103,277.9223,294.9034,310.8246,True
3,0.5555557,-1.570182,-0.4255222,-0.07885957,-1.550382,-4.556043,-2.527068,0.2768981,1.234735,0.4531016,-1.330479,0.01214893,11.24668,11.61346,-0.2640491,-0.07141319,0.8543419,-0.6126677,-3.457916,-0.5633704,0.3141949,1.427172,0.405365,-0.3936364,-0.1446619,-0.3237174,-0.9892344,0.5546282,-0.2170359,0.4702234,1.503659,0.27016,-0.007222756,1.221749,0.3159618,277.0508,297.4926,308.0172,True
3,0.5666668,-1.610687,-0.4181742,-0.07882079,-1.547153,-4.553011,-2.508101,0.2739516,1.237653,0.4520805,-1.330951,-0.04259885,11.19363,11.67774,-0.2849416,-0.08540732,0.9013541,-0.6021492,-3.449217,-0.5666895,0.3148007,1.428535,0.4042456,-0.4150464,-0.143611,-0.333076,-0.9925916,0.5517848,-0.210076,0.4712805,1.503452,0.2693293,-0.009761268,1.229017,0.3136452,276.1929,300.2822,304.9951,True
3,0.577778,-1.640536,-0.4065378,-0.07239313,-1.544317,-4.549975,-2.489113,0.2709889,1.24045,0.4509821,-1.330587,0.03413554,11.11406,11.78487,-0.3103425,-0.1206616,0.9121403,-0.5918849,-3.443357,-0.5672046,0.315419,1.430009,0.4031897,-0.4249231,-0.1382697,-0.360669,-0.997162,0.5489858,-0.2034924,0.4722714,1.503309,0.268532,-0.01223723,1.236485,0.3113599,275.4228,303.4956,301.4687,True
3,0.5888891,-1.645837,-0.4086729,-0.06811471,-1.541156,-4.546618,-2.471223,0.2680603,1.243338,0.4499826,-1.331618,-0.09416707,11.03448,11.87058,-0.3111084,-0.1558709,0.9397779,-0.5810059,-3.4367,-0.569232,0.3158417,1.431606,0.4021673,-0.432728,-0.129724,-0.3946813,-1.002359,0.5463396,-0.1972337,0.4732661,1.503358,0.2678666,-0.01465819,1.244347,0.3091556,274.7123,307.6918,296.9647,True
3,0.6000003,-1.65225,-0.4001606,-0.06493533,-1.538077,-4.543797,-2.452907,0.2651141,1.246274,0.4487689,-1.332269,-0.0582483,10.95491,11.89201,-0.3214112,-0.1921804,0.9717502,-0.5693162,-3.430149,-0.5709139,0.3162672,1.433128,0.4010615,-0.4403223,-0.1222625,-0.4073812,-1.00701,0.5439016,-0.1908576,0.474232,1.503242,0.2671335,-0.01699727,1.252695,0.3070499,273.9533,315.3754,289.0349,True
3,0.6111114,-1.668269,-0.3799658,-0.05642204,-1.535605,-4.541137,-2.434134,0.2622968,1.249285,0.4474294,-1.333843,-0.1431827,10.92838,11.82773,-0.3297596,-0.208214,0.9909627,-0.558116,-3.422696,-0.5731235,0.3166954,1.434626,0.3998868,-0.451931,-0.1158822,-0.3955382,-1.010651,0.541861,-0.1843296,0.4752424,1.503028,0.2663231,-0.019147,1.261459,0.3050385,273.2687,330.2685,273.9456,True
3,0.6222225,-1.687505,-0.3544038,-0.04155434,-1.533597,-4.538836,-2.41479,0.2595098,1.252416,0.4460604,-1.333912,-0.004940187,11.00796,11.8063,-0.3510764,-0.2103961,0.9889985,-0.5476364,-3.415323,-0.574797,0.3170975,1.436165,0.39872,-0.4710844,-0.1009862,-0.3921326,-1.014686,0.5402566,-0.1775892,0.4761434,1.502807,0.2656236,-0.02101506,1.270459,0.3030891,272.9377,354.2412,249.8004,True
3,0.6333337,-1.702489,-0.3310126,-0.03626319,-1.531464,-4.536684,-2.395444,0.2567281,1.255597,0.4446893,-1.333713,0.01836909,11.08753,11.78487,-0.3627703,-0.1912612,0.9987129,-0.5374904,-3.405677,-0.5786543,0.3176217,1.437619,0.3973763,-0.4925904,-0.07752526,-0.4100012,-1.019816,0.5393841,-0.171114,0.4771478,1.502488,0.2648237,-0.02270506,1.279543,0.3011301,273.2262,19.18515,224.7068,True
3,0.6444448,-1.717449,-0.3097387,-0.02562162,-1.529568,-4.534429,-2.37596,0.2540718,1.258706,0.4432602,-1.333413,0.0274268,11.16711,11.78487,-0.3657537,-0.194509,1.0243,-0.5260478,-3.395968,-0.5828744,0.3180265,1.439168,0.3960478,-0.4968047,-0.05409789,-0.4035396,-1.024031,0.5387522,-0.1651285,0.4779764,1.502371,0.2640953,-0.02426424,1.28863,0.2991107,273.9507,36.10179,207.642,True
3,0.655556,-1.728148,-0.2948552,-0.02458554,-1.52743,-4.53261,-2.356439,0.2512299,1.261867,0.4418347,-1.333683,-0.02470127,11.22016,11.78487,-0.3834701,-0.2287226,1.0638,-0.5129365,-3.38752,-0.5853096,0.3185779,1.44068,0.3947496,-0.4745421,-0.03809455,-0.4122709,-1.02872,0.5379068,-0.1600962,0.4789228,1.502346,0.2634597,-0.02575352,1.29772,0.2970076,274.8192,46.47814,197.0929,True
3,0.6666671,-1.734561,-0.2981237,-0.03946956,-1.524297,-4.530848,-2.337207,0.2485436,1.265075,0.4403708,-1.333863,-0.01598823,11.24668,11.82773,-0.4032313,-0.2544552,1.116112,-0.4991035,-3.377838,-0.5886662,0.3190549,1.44213,0.3933053,-0.4639605,-0.034885,-0.4187722,-1.033485,0.5365936,-0.1546194,0.4800174,1.502313,0.2627301,-0.02713223,1.306793,0.2948373,275.7578,53.56917,189.8057,True
3,0.6777782,-1.740941,-0.3056223,-0.04582445,-1.521112,-4.528798,-2.317723,0.2457809,1.268298,0.4389563,-1.334119,-0.02307027,11.19363,11.93486,-0.4209521,-0.2599194,1.163118,-0.4852961,-3.366157,-0.5936604,0.319417,1.443549,0.3919246,-0.4607935,-0.04020628,-0.4220054,-1.038136,0.535033,-0.1488292,0.4808954,1.502088,0.2619812,-0.0283609,1.315819,0.2926167,276.7674,58.62425,184.5363,True
3,0.6888894,-1.737753,-0.3013844,-0.04687362,-1.518447,-4.52679,-2.298567,0.2431621,1.271537,0.4374847,-1.334659,-0.04898619,11.08753,12.08485,-0.4335722,-0.2578624,1.184531,-0.4723372,-3.354202,-0.5990392,0.3198194,1.444981,0.3904703,-0.4746593,-0.04553258,-0.4239886,-1.042709,0.5335395,-0.1422535,0.4818598,1.501755,0.2612224,-0.02951672,1.324801,0.2903615,277.8217,62.57042,180.3629,True
3,0.7000005,-1.718539,-0.3119697,-0.04474451,-1.515236,-4.524569,-2.279982,0.2404415,1.274864,0.4360189,-1.33463,0.00310403,11.00796,12.23484,-0.4399548,-0.2514932,1.187791,-0.4596531,-3.342,-0.6047392,0.320145,1.44637,0.3890719,-0.4939173,-0.0370193,-0.4312404,-1.047724,0.532556,-0.1355706,0.4827081,1.501498,0.2604825,-0.03052416,1.333675,0.2881047,278.895,65.85216,176.8591,True
3,0.7111117,-1.686478,-0.33314,-0.02768955,-1.511962,-4.52131,-2.262233,0.2378992,1.278234,0.4345136,-1.3351,-0.04293383,10.90185,12.32055,-0.4326667,-0.2365314,1.172851,-0.4479938,-3.329616,-0.6112005,0.3205208,1.447764,0.3876498,-0.5057493,-0.02957618,-0.4406995,-1.052951,0.5315744,-0.1289159,0.4835511,1.501272,0.2597504,-0.03140572,1.342446,0.2858528,279.951,68.2547,174.2285,True
3,0.7222228,-1.646977,-0.3543344,-0.02236334,-1.508168,-4.518298,-2.245146,0.2354871,1.281597,0.4329498,-1.335811,-0.06452893,10.90185,12.34197,-0.4000189,-0.2097391,1.13429,-0.4378018,-3.316825,-0.6193423,0.3208246,1.44917,0.3863029,-0.5134386,-0.01358506,-0.461914,-1.058913,0.5311889,-0.1226585,0.4843409,1.501064,0.259028,-0.03214064,1.351125,0.2836087,280.9873,69.95191,172.3249,True
3,0.7333339,-1.592601,-0.3626498,-0.01285281,-1.504879,-4.515446,-2.22918,0.2330329,1.284923,0.431459,-1.336675,-0.07846791,10.92838,12.34197,-0.3788811,-0.2373153,1.10105,-0.4265372,-3.307994,-0.6240053,0.3211364,1.450428,0.3849261,-0.5018667,-0.0135695,-0.4769546,-1.06469,0.5301178,-0.1169831,0.4851223,1.500841,0.2583053,-0.03273323,1.359711,0.2813357,282.0202,71.31325,170.7869,True
3,0.7444451,-1.539325,-0.3699655,-0.01824113,-1.501233,-4.513028,-2.213623,0.2307422,1.288139,0.4299347,-1.337351,-0.06124575,10.92838,12.34197,-0.3809582,-0.2809833,1.093525,-0.4141311,-3.300116,-0.6269305,0.3214454,1.451785,0.3835578,-0.4966126,-0.01569876,-0.4833909,-1.070066,0.5290167,-0.1110243,0.4859677,1.50059,0.25754,-0.03306415,1.368122,0.2789721,283.0537,72.3561,169.5932,True
3,0.7555562,-1.49139,-0.3815999,-0.03960094,-1.496854,-4.511118,-2.198564,0.2284288,1.291279,0.4284742,-1.338363,-0.0921969,10.92838,12.34197,-0.3795355,-0.3481413,1.115759,-0.399578,-3.293216,-0.6290346,0.3217512,1.453159,0.3821008,-0.5052868,-0.01782383,-0.4982181,-1.076065,0.5279379,-0.1045853,0.4866356,1.500309,0.2567861,-0.03314754,1.376304,0.2764605,284.0935,73.35806,168.3893,True
3,0.7666674,-1.470102,-0.380545,-0.05241403,-1.492786,-4.509259,-2.182853,0.2262625,1.294443,0.426877,-1.338628,-0.02364747,10.90185,12.21341,-0.371003,-0.3321591,1.123179,-0.3874084,-3.279634,-0.6376662,0.3220566,1.454633,0.3805451,-0.5170515,-0.01251027,-0.5023571,-1.081791,0.5272701,-0.09806824,0.4874243,1.500086,0.2559986,-0.03307399,1.384199,0.2738239,285.1463,74.24931,167.1945,True
3,0.7777785,-1.434011,-0.3474363,-0.06324798,-1.489855,-4.508605,-2.168103,0.2241316,1.297461,0.4254267,-1.338847,-0.02015475,10.82228,11.95629,-0.3583821,-0.2990833,1.113554,-0.3764447,-3.264875,-0.647787,0.3222497,1.455934,0.3790457,-0.5348308,0.00129655,-0.4691361,-1.085994,0.527379,-0.09150408,0.4880078,1.499825,0.2551847,-0.03291859,1.39172,0.2711214,286.1805,75.16031,165.9317,True
3,0.7888896,-1.399994,-0.3260135,-0.05912268,-1.487073,-4.507397,-2.15337,0.22227,1.300345,0.4238989,-1.337899,0.08667473,10.74271,11.69916,-0.3510017,-0.2905373,1.107128,-0.3648318,-3.251034,-0.6569877,0.3224836,1.457287,0.3774352,-0.5282316,0.007689208,-0.4478825,-1.090306,0.5273677,-0.08581611,0.4888543,1.499491,0.2543333,-0.03280228,1.398841,0.2684165,287.1464,76.09855,164.6355,True
3,0.8000008,-1.360584,-0.3216107,-0.0549524,-1.48391,-4.505907,-2.139589,0.2201633,1.303292,0.4224062,-1.338548,-0.06043708,10.6366,11.46347,-0.3456659,-0.2777503,1.112437,-0.3531868,-3.234891,-0.6684089,0.3225006,1.458469,0.3759038,-0.5216057,0.01726255,-0.4245051,-1.094319,0.5275654,-0.08030149,0.4894056,1.499234,0.2535064,-0.03280693,1.405656,0.2657621,287.9491,76.88754,163.506,True
3,0.8111119,-1.245593,-0.297815,-0.05632519,-1.481208,-4.504981,-2.129656,0.2183088,1.306022,0.4207449,-1.338317,0.02160289,10.55703,11.2492,-0.3289544,-0.2350231,1.082566,-0.3436096,-3.217116,-0.6819754,0.3224553,1.459539,0.3743758,-0.5235556,0.01617134,-0.4074392,-1.098338,0.5272659,-0.07426784,0.4899314,1.498945,0.2528358,-0.03288428,1.412198,0.2633115,288.6677,77.49994,162.579,True
3,0.8222231,-1.193464,-0.2796002,-0.06604952,-1.478422,-4.504248,-2.117853,0.2164364,1.308769,0.4190395,-1.33889,-0.05293419,10.5305,11.05635,-0.3313392,-0.2126102,1.058125,-0.3339945,-3.199769,-0.6945189,0.3224458,1.460648,0.3728349,-0.5381979,0.007615536,-0.3817266,-1.101663,0.5267651,-0.06750368,0.4903474,1.49866,0.2520671,-0.03295303,1.418507,0.261103,289.331,77.90076,161.9817,True
3,0.8333342,-1.135014,-0.2378691,-0.06843281,-1.47691,-4.504348,-2.107225,0.2147616,1.31124,0.4175284,-1.342399,-0.3206355,10.58355,10.88493,-0.3485891,-0.1742751,1.043437,-0.3249781,-3.179065,-0.7096406,0.3225644,1.461829,0.3712976,-0.5443527,0.02674672,-0.3560562,-1.104686,0.5274292,-0.06147907,0.4906521,1.498394,0.2513597,-0.03304256,1.424661,0.2590643,290.0139,78.20773,161.5822,True
3,0.8444453,-1.112856,-0.1760517,-0.07826286,-1.476255,-4.505301,-2.095441,0.2132613,1.313726,0.4159462,-1.34032,0.1923272,10.66313,10.7778,-0.3508853,-0.1465603,1.03179,-0.3162749,-3.157697,-0.7259452,0.3225892,1.462817,0.3698409,-0.5324844,0.0427126,-0.3391141,-1.108035,0.5282463,-0.05625235,0.4911264,1.498196,0.2506087,-0.03304601,1.430431,0.2571726,290.8232,78.39643,161.3613,True
3,0.8555565,-1.098136,-0.1131296,-0.07210898,-1.476607,-4.506262,-2.083635,0.2116662,1.316001,0.4144919,-1.340678,-0.03509845,10.76923,10.86351,-0.3427121,-0.1326283,0.9933957,-0.3083317,-3.139067,-0.7401367,0.3227021,1.463603,0.3685005,-0.505685,0.06615663,-0.3212616,-1.111097,0.5297838,-0.05223045,0.4914528,1.497965,0.2499695,-0.03314549,1.435856,0.2553313,291.531,78.54922,161.1506,True
3,0.8666676,-1.081137,-0.09279682,-0.05942973,-1.475968,-4.506164,-2.072007,0.2101368,1.318349,0.4129372,-1.339151,0.1397248,10.87533,11.09921,-0.3322363,-0.1453403,0.9677151,-0.2995321,-3.121819,-0.7532573,0.3226769,1.464512,0.3670814,-0.4596826,0.08002895,-0.3004062,-1.113803,0.531069,-0.04901814,0.4917796,1.49767,0.2492387,-0.03331028,1.440924,0.2536154,292.1245,78.70186,160.8816,True
3,0.8777788,-1.042813,-0.08200433,-0.05527948,-1.475299,-4.506317,-2.061707,0.2085446,1.320516,0.4115243,-1.338529,0.05530855,10.92838,11.35633,-0.2994987,-0.1930932,0.9162242,-0.2909344,-3.110955,-0.76141,0.3225735,1.465412,0.3658531,-0.438453,0.09070495,-0.3070099,-1.117471,0.5323824,-0.04546708,0.4921026,1.497446,0.2485731,-0.03362233,1.44582,0.2520788,292.5657,78.83904,160.6347,True
3,0.8888899,-1.011929,-0.08190729,-0.05747895,-1.473982,-4.50652,-2.051401,0.2070086,1.322817,0.4101501,-1.33823,0.02671888,10.92838,11.74202,-0.2888756,-0.2218143,0.9043676,-0.2814801,-3.095476,-0.7733135,0.322592,1.466419,0.3645339,-0.4278875,0.1120186,-0.3134954,-1.121331,0.5342723,-0.04177754,0.4924983,1.497222,0.2478564,-0.03404041,1.450688,0.250771,292.9586,78.85088,160.5929,True
3,0.900001,-0.9565641,-0.07642045,-0.06399718,-1.472976,-4.50708,-2.042763,0.2055354,1.32485,0.4087522,-1.339233,-0.09211133,10.92838,12.29912,-0.2700384,-0.2855594,0.841238,-0.2725884,-3.092059,-0.7744063,0.322364,1.467333,0.3632092,-0.4311862,0.1162849,-0.3230459,-1.125314,0.5356873,-0.03749438,0.4927953,1.497014,0.247191,-0.03441866,1.455581,0.2496003,293.3812,78.80635,160.7372,True
3,0.9111122,-0.9193165,-0.06036922,-0.06518872,-1.472299,-4.507441,-2.034207,0.2042629,1.326594,0.4068661,-1.338988,0.02301174,10.92838,12.9205,-0.2734386,-0.2993609,0.8092813,-0.2644902,-3.081192,-0.7817962,0.3220983,1.468217,0.3618,-0.4388103,0.125881,-0.3378645,-1.129474,0.5373729,-0.03312413,0.4931049,1.496805,0.2465332,-0.03464883,1.460428,0.2484971,293.924,78.78886,160.8624,True
3,0.9222233,-0.904587,-0.0017239,-0.05901757,-1.473779,-4.508674,-2.02449,0.2031585,1.328281,0.4054449,-1.340231,-0.1142292,10.95491,13.52046,-0.26103,-0.2438762,0.780526,-0.2586132,-3.062732,-0.7971885,0.3216656,1.468999,0.3604188,-0.4494959,0.1258746,-0.3409494,-1.13336,0.5387493,-0.02844389,0.4932562,1.496611,0.245887,-0.03473327,1.465208,0.2473858,294.5211,78.82603,160.8954,True
3,0.9333345,-0.8812538,0.03567463,-0.04853492,-1.475203,-4.509583,-2.015535,0.2021181,1.329913,0.4041641,-1.339963,0.02522486,11.06101,14.05614,-0.2583327,-0.1266456,0.7562294,-0.2553226,-3.034162,-0.8220505,0.3212733,1.469687,0.3590622,-0.4578635,0.1247901,-0.325947,-1.136422,0.5401394,-0.02375859,0.4933273,1.496402,0.2453079,-0.03463856,1.469744,0.2462467,295.2168,78.78066,161.0101,True
3,0.9444456,-0.853534,0.03579967,-0.03794248,-1.475307,-4.509756,-2.007103,0.2010838,1.33159,0.4027324,-1.33839,0.1431437,11.19363,14.54896,-0.261868,-0.05843577,0.7361498,-0.2516517,-3.00775,-0.8445987,0.3209532,1.470348,0.3577082,-0.4491585,0.1311742,-0.3079213,-1.139206,0.541907,-0.01988609,0.4934176,1.496226,0.2447112,-0.03442333,1.473932,0.2449964,295.8784,78.63091,161.2041,True
3,0.9555568,-0.7905666,0.005136162,-0.03157261,-1.474378,-4.509425,-2.000661,0.2000173,1.333271,0.4014301,-1.338591,-0.01983745,11.32626,14.99893,-0.2677516,0.01301485,0.6915935,-0.2494764,-2.982841,-0.8654203,0.3207424,1.470934,0.3564498,-0.4136579,0.1364977,-0.2742008,-1.141097,0.5437019,-0.01736061,0.493368,1.496102,0.2442429,-0.03419013,1.477888,0.2437291,296.3539,78.5108,161.2096,True
3,0.9666679,-0.7467543,-0.04591058,-0.04747434,-1.471782,-4.509538,-1.993677,0.1992271,1.335037,0.3999069,-1.338763,-0.01567553,11.51194,15.34176,-0.2647005,0.01197389,0.6734576,-0.2447818,-2.961576,-0.883227,0.3205878,1.471559,0.355166,-0.3856827,0.1471514,-0.2467837,-1.142882,0.5459214,-0.01503488,0.493376,1.495957,0.2436688,-0.03394945,1.481694,0.2425364,296.7544,78.43739,161.176,True
3,0.977779,-0.7613316,-0.1514474,-0.05455185,-1.466769,-4.508161,-1.98486,0.1984173,1.336826,0.3987014,-1.340332,-0.1435837,11.64456,15.49175,-0.2080596,-0.1103534,0.6557182,-0.2362991,-2.954239,-0.8900745,0.3203208,1.472197,0.3540363,-0.3276678,0.1620889,-0.1994345,-1.143559,0.5486076,-0.01465271,0.4932444,1.495786,0.2430506,-0.03369994,1.485388,0.2413593,297.1654,78.41409,161.2038,True
3,0.9888902,-0.7769098,-0.2707845,-0.047707,-1.460508,-4.505546,-1.975716,0.1976543,1.33853,0.3975577,-1.339546,0.07273313,11.72414,15.38461,-0.170908,-0.171984,0.6190842,-0.2294388,-2.945304,-0.8980944,0.3201497,1.472692,0.352854,-0.3245009,0.1642259,-0.2015932,-1.146009,0.5506129,-0.01179754,0.4933226,1.49561,0.2424102,-0.03339479,1.488845,0.2401129,297.6443,78.44315,161.2497,True
3,1.000001,-0.7715685,-0.5614043,0.009714186,-1.44629,-4.496988,-1.968274,0.1967683,1.340498,0.3964021,-1.33707,0.2253921,11.75066,15.06321,-0.1605956,-0.1590969,0.5806751,-0.2251852,-2.931034,-0.910563,0.3197482,1.473186,0.3516607,-0.3384828,0.1652904,-0.2142313,-1.148847,0.5526541,-0.008388957,0.4931166,1.495404,0.2418005,-0.03302117,1.492004,0.2386534,298.0835,78.64797,161.1542,True
3,1.011112,-0.7340878,-0.8848649,0.09487709,-1.428966,-4.485084,-1.96324,0.1957108,1.342635,0.3947389,-1.336147,0.08232259,11.69761,14.67752,-0.1698792,-0.05459689,0.5202298,-0.2256129,-2.909617,-0.9290685,0.3194199,1.473472,0.3505239,-0.3426808,0.1439613,-0.2088726,-1.150914,0.5534374,-0.004672516,0.4930813,1.495263,0.2411976,-0.03249203,1.494926,0.2368294,298.3986,79.02039,160.8148,True
3,1.022224,-0.7299292,-1.131774,0.1638747,-1.410812,-4.472682,-1.957071,0.1945048,1.345107,0.3934305,-1.336976,-0.07642438,11.67109,14.27041,-0.1940189,0.05410877,0.4673768,-0.2272497,-2.88536,-0.9495924,0.3192754,1.473811,0.3494523,-0.3112369,0.09387812,-0.1602348,-1.151079,0.5527264,-0.001955293,0.4929467,1.495142,0.240555,-0.03158166,1.497636,0.2344512,298.6667,79.41794,160.4447,True
3,1.033335,-0.7230229,-1.50837,0.3174714,-1.387078,-4.45317,-1.952253,0.1927698,1.348422,0.3912952,-1.338755,-0.1620492,11.69761,13.86329,-0.2125464,0.1265668,0.4410532,-0.2280294,-2.859259,-0.9717611,0.3197927,1.474391,0.3484368,-0.2539924,0.02782209,-0.09057827,-1.149835,0.5507091,-0.0002186455,0.4929667,1.495111,0.2398,-0.02997406,1.499976,0.2309377,299.0278,79.85791,160.0964,True
3,1.044446,-0.520835,-1.614666,0.4369446,-1.372538,-4.439939,-1.951744,0.1908674,1.351362,0.3888774,-1.337285,0.135443,11.75066,13.47761,-0.2333908,0.08594297,0.4858876,-0.2234568,-2.83425,-0.9928626,0.3202193,1.475016,0.3472452,-0.2152267,-0.007331192,-0.0537231,-1.149141,0.5492756,0.001443966,0.4930688,1.494997,0.2389836,-0.02766055,1.501889,0.2256659,299.5084,80.4327,159.2789,True
3,1.055557,-0.3808941,-1.498389,0.4126291,-1.36086,-4.428527,-1.957797,0.1891145,1.353862,0.386142,-1.336796,0.04332646,11.85676,13.11335,-0.2243797,-0.04746102,0.6357851,-0.2125373,-2.797379,-1.026602,0.3210249,1.475899,0.3461146,-0.1766013,-0.04139116,-0.03071922,-1.148877,0.547877,0.00262561,0.4934394,1.494854,0.2382352,-0.02485049,1.503566,0.2183792,299.9154,81.25774,157.6151,True
3,1.066668,-0.2953608,-0.7144898,0.2788041,-1.377936,-4.437837,-1.955188,0.1886377,1.354545,0.3834662,-1.341613,-0.441132,12.04244,12.81337,-0.1419764,-0.3161351,0.8604549,-0.1933748,-2.754704,-1.069883,0.3212903,1.477008,0.3446698,-0.2195286,-0.09039302,-0.0643972,-1.150752,0.5451661,0.00778149,0.4936836,1.494589,0.2373698,-0.02168683,1.50525,0.2088339,300.2598,82.25931,155.1893,True
3,1.077779,-0.4673384,0.2997627,0.1553933,-1.411763,-4.45446,-1.941242,0.1883366,1.353659,0.3808372,-1.348169,-0.5961902,12.22811,12.72766,-0.09573305,-0.5250484,0.980064,-0.1746442,-2.714075,-1.11053,0.3209937,1.477833,0.342998,-0.3336973,-0.1159505,-0.1857469,-1.156973,0.5428253,0.01635554,0.4939908,1.4943,0.2365813,-0.01838788,1.506759,0.1979157,300.7947,83.32601,151.8767,True
3,1.08889,-0.6000229,1.048972,0.06262484,-1.443006,-4.468686,-1.927574,0.1880924,1.352377,0.3781269,-1.343241,0.4545239,12.36074,12.64195,-0.1081604,-0.4386885,0.9185351,-0.1702671,-2.678262,-1.14395,0.3197978,1.478576,0.3411145,-0.4200968,-0.1063758,-0.2956136,-1.163833,0.5418881,0.02448297,0.4940374,1.493947,0.2356188,-0.01543615,1.507579,0.1872043,301.5242,84.32454,147.8858,True
3,1.100002,-0.6022846,1.378,0.01892203,-1.467368,-4.47924,-1.919508,0.187571,1.351502,0.3760502,-1.331589,1.059377,12.38727,12.47054,-0.1282147,-0.3299341,0.8443337,-0.1675634,-2.640932,-1.178602,0.3185387,1.479146,0.3394966,-0.5165842,0.01937106,-0.4457871,-1.173823,0.5469368,0.03149028,0.4936544,1.493872,0.2352338,-0.01435686,1.508657,0.179313,301.841,84.93196,143.8209,True
3,1.111113,-0.7826775,1.794952,0.01360649,-1.497003,-4.489304,-1.9045,0.1873686,1.349254,0.3737009,-1.329996,0.1373821,12.28117,12.19199,-0.2535863,-0.1254255,0.6880687,-0.1718096,-2.616187,-1.195786,0.3167914,1.478914,0.3379276,-0.5146848,0.121655,-0.4584947,-1.178941,0.5523434,0.03493695,0.4933272,1.493934,0.2351449,-0.01612942,1.511441,0.1764741,301.4374,84.59296,141.936,True
3,1.122224,-0.8758816,1.963029,0.03560448,-1.523711,-4.497074,-1.891025,0.1868933,1.348593,0.3719106,-1.335268,-0.4812588,12.04244,11.78487,-0.4289263,0.06723261,0.5396372,-0.1787205,-2.59795,-1.202573,0.3152412,1.47845,0.3365564,-0.4371079,0.2771751,-0.3622298,-1.179328,0.5613514,0.03353612,0.4924487,1.4941,0.2349911,-0.01987862,1.515864,0.1794782,300.8307,83.34434,143.5314,True
3,1.133335,-0.9441853,1.663343,0.01861665,-1.530171,-4.498593,-1.878332,0.1856726,1.350184,0.3701921,-1.329059,0.5722484,11.75066,11.61346,-0.6877719,0.4253185,0.1269448,-0.1989413,-2.625747,-1.158262,0.3144304,1.477264,0.3357549,-0.2584689,0.3836319,-0.08061881,-1.170648,0.5695221,0.02722896,0.4917204,1.494294,0.2346935,-0.02413997,1.520754,0.18767,300.7021,81.05317,148.3618,True
3,1.144446,-0.8478366,1.208769,0.02204874,-1.52898,-4.497865,-1.87231,0.1843847,1.352515,0.3685234,-1.330036,-0.09429825,11.37931,11.37776,-0.7071146,0.4756143,-0.01235235,-0.2060264,-2.632521,-1.143882,0.314063,1.477092,0.3349352,-0.1008801,0.4059656,0.1169725,-1.162589,0.5747956,0.02083444,0.4911612,1.494216,0.2343571,-0.0281689,1.525897,0.1995254,300.8125,77.26921,155.7568,True
3,1.155557,-0.767953,0.9022428,0.02504632,-1.528998,-4.497326,-1.866405,0.1833319,1.354278,0.3672647,-1.33133,-0.1163697,10.95491,10.90636,-0.5210142,0.2243899,0.1316105,-0.1988433,-2.61718,-1.159033,0.3145873,1.477699,0.3346486,0.0561907,0.3931918,0.2623418,-1.154648,0.5788724,0.01307452,0.4908529,1.494248,0.2338481,-0.03159573,1.531765,0.212895,301.3497,73.23734,164.0469,True
3,1.166668,-0.6789107,0.6657469,-0.06383127,-1.528263,-4.500931,-1.861464,0.1823788,1.356653,0.366595,-1.338425,-0.6474957,10.5305,10.19927,-0.3398335,-0.04399404,0.3224409,-0.186311,-2.58637,-1.191303,0.3148294,1.478493,0.3340182,0.08699152,0.3207887,0.2481019,-1.153154,0.5799755,0.01125345,0.4909096,1.494053,0.2332172,-0.03381629,1.538299,0.2247523,302.467,70.4911,171.2619,True
3,1.17778,-0.5775651,0.55812,-0.1765947,-1.529087,-4.507235,-1.858116,0.1814235,1.35885,0.3658264,-1.339242,-0.06932939,10.2122,9.770729,-0.02589244,-0.4899873,0.5374358,-0.1621663,-2.554544,-1.233208,0.3156875,1.479645,0.3333957,0.006925046,0.1908631,0.1199229,-1.156151,0.5775269,0.01485272,0.4911368,1.493804,0.2324629,-0.03434483,1.544751,0.2328877,304.1323,69.13091,176.0293,True
3,1.188891,-0.5337402,0.4706701,-0.2509636,-1.530671,-4.513186,-1.853063,0.1806551,1.360562,0.364953,-1.339987,-0.06839102,10.02653,9.792157,0.1639466,-0.687827,0.6313733,-0.1467109,-2.524704,-1.270402,0.3154956,1.480529,0.3324616,-0.1559945,0.05880557,-0.08729814,-1.163987,0.573789,0.02354181,0.4912406,1.493443,0.2316914,-0.03331224,1.550435,0.2365235,305.7791,68.79093,177.877,True
3,1.200002,-0.4851432,0.2201884,-0.3450185,-1.523455,-4.518198,-1.848729,0.179903,1.362774,0.365685,-1.341265,-0.1166417,9.920423,10.2207,0.3563883,-0.7588338,0.6936104,-0.1331857,-2.475935,-1.32982,0.3154024,1.481578,0.331372,-0.328007,0.004565254,-0.3444326,-1.175959,0.5727407,0.03285355,0.4913564,1.493407,0.2310476,-0.03145176,1.555251,0.2359596,307.0257,69.55893,176.7929,True
3,1.211113,-0.4794277,0.1094346,-0.3393342,-1.520069,-4.52093,-1.843445,0.1788527,1.364623,0.3652549,-1.339131,0.1956867,9.920423,10.90636,0.3626046,-0.6012278,0.7215551,-0.1310739,-2.412581,-1.395867,0.3144814,1.48208,0.3299925,-0.3889629,0.004618987,-0.4684417,-1.185094,0.5732746,0.03888908,0.4913751,1.493286,0.2304842,-0.02948664,1.559037,0.2323992,307.8679,70.87463,173.9574,True
3,1.222224,-0.5164633,0.04545072,-0.3230675,-1.518288,-4.523392,-1.83624,0.177808,1.365956,0.3650358,-1.339117,-0.0007770465,9.973473,11.61346,0.1869138,-0.3108035,0.6947901,-0.1364135,-2.354756,-1.448918,0.3137132,1.482431,0.3286033,-0.3789299,0.01745875,-0.5260603,-1.19229,0.5744029,0.04203853,0.4911391,1.493307,0.2301068,-0.02788964,1.561737,0.2272549,308.21,72.38117,170.4691,True
3,1.233335,-0.6060339,0.06857127,-0.3261621,-1.518755,-4.527363,-1.826315,0.1767224,1.367283,0.3647342,-1.337748,0.1247531,9.973473,12.51339,0.02954185,-0.1087613,0.6676815,-0.1412924,-2.306143,-1.4915,0.3130077,1.482695,0.3276,-0.2768167,0.05262282,-0.4365412,-1.194139,0.576393,0.04096181,0.4906802,1.493409,0.2297468,-0.02688104,1.563463,0.221701,308.1657,74.12763,166.8031,True
3,1.244446,-0.6776276,0.1279598,-0.3347445,-1.521177,-4.532267,-1.816301,0.1758357,1.368491,0.3643367,-1.335482,0.2060183,10.02653,13.69188,-0.1866727,0.1070536,0.6144819,-0.1489165,-2.26451,-1.522944,0.3125839,1.483166,0.3266075,-0.1599518,0.09518506,-0.2608821,-1.191257,0.5788105,0.03801103,0.4900312,1.493575,0.2294812,-0.02668406,1.56469,0.2166065,307.9063,75.36526,164.0074,True
3,1.255558,-0.696917,0.1469885,-0.3592713,-1.522268,-4.537465,-1.807619,0.1749337,1.370156,0.3641181,-1.332685,0.2541333,10.2122,15.06321,-0.1802158,0.08150308,0.6143788,-0.1488925,-2.218235,-1.566807,0.3123422,1.48367,0.3258545,-0.09432857,0.1632772,-0.09211819,-1.186661,0.5829617,0.03531165,0.4894045,1.493658,0.2289848,-0.02722563,1.565794,0.2127149,307.4917,76.24111,162.0106,True
3,1.266669,-0.6797259,0.100145,-0.3687427,-1.52064,-4.541626,-1.800707,0.174133,1.371976,0.3640451,-1.332668,-0.0001611747,10.45093,16.3274,-0.1086368,0.004982859,0.6158037,-0.14619,-2.168159,-1.617816,0.3124501,1.484414,0.3252544,-0.09025045,0.2004987,-0.004769118,-1.184224,0.5865606,0.03515186,0.4890946,1.493627,0.2284405,-0.02837765,1.567395,0.2105642,306.9745,76.96029,160.6976,True
3,1.27778,-0.648342,-0.03820845,-0.3598253,-1.514857,-4.544005,-1.794458,0.1732962,1.374129,0.3639641,-1.334394,-0.1573544,10.66313,17.33447,0.01635206,-0.137446,0.613453,-0.1403427,-2.118057,-1.671937,0.3124707,1.484981,0.3247964,-0.1161815,0.1727247,0.06046465,-1.181181,0.5875519,0.03691221,0.4887189,1.493581,0.2278092,-0.02974079,1.569794,0.2104723,306.5684,77.47518,160.1888,True
3,1.288891,-0.6256172,-0.1286122,-0.3393291,-1.509858,-4.545835,-1.788221,0.1725006,1.376108,0.3641329,-1.336491,-0.1903425,10.8488,18.10585,0.1176452,-0.2521966,0.5889871,-0.1346947,-2.069185,-1.724778,0.3125888,1.48554,0.324373,-0.1321568,0.1002784,0.05523871,-1.181302,0.5858316,0.03965287,0.4884788,1.493382,0.2271867,-0.03092317,1.573017,0.2123196,306.4973,77.74075,160.5448,True
3,1.300002,-0.5794424,-0.2135523,-0.3007888,-1.504051,-4.546503,-1.783377,0.171797,1.378024,0.3639266,-1.337274,-0.07014646,10.95491,18.59867,0.165531,-0.2957105,0.5682756,-0.1310014,-2.02103,-1.77602,0.3125093,1.486075,0.3238013,-0.1509219,-0.02111958,-0.01711168,-1.184262,0.5808589,0.04392831,0.488234,1.493253,0.2266271,-0.03154653,1.576702,0.2155224,306.874,77.69537,161.7383,True
3,1.311113,-0.5261691,-0.2026501,-0.2838944,-1.502106,-4.54884,-1.779394,0.1710364,1.37975,0.3640723,-1.337199,0.007182678,11.06101,18.9415,0.1703991,-0.3104874,0.5053411,-0.1281897,-1.990118,-1.808465,0.3122643,1.486527,0.3232088,-0.1550497,-0.08496457,-0.1119461,-1.189093,0.5778213,0.04679414,0.4880326,1.493139,0.226203,-0.0314839,1.580543,0.2191236,307.6073,77.48862,163.3104,True
3,1.322224,-0.5050383,-0.1471897,-0.2841286,-1.501721,-4.552101,-1.774388,0.1703069,1.380985,0.3634372,-1.338328,-0.1035525,11.22016,19.28434,0.1329638,-0.2775452,0.4971852,-0.1277098,-1.946602,-1.851714,0.3121549,1.486969,0.3224843,-0.14826,-0.08064502,-0.1759311,-1.193112,0.5773401,0.04832466,0.4877862,1.493099,0.2257824,-0.03078671,1.584321,0.2223095,308.5073,77.21094,164.777,True
3,1.333336,-0.5181306,-0.06846929,-0.304603,-1.502749,-4.556427,-1.768007,0.1696517,1.382193,0.3632059,-1.339153,-0.07469678,11.27321,20.11999,0.09981388,-0.2403356,0.4921967,-0.127966,-1.903039,-1.894965,0.3119712,1.487346,0.3216593,-0.1336972,-0.04971048,-0.206952,-1.19626,0.5782033,0.04900935,0.4875289,1.493079,0.2254958,-0.02964266,1.587853,0.2244384,309.463,77.05724,165.7246,True
3,1.344447,-0.5277541,-0.06428063,-0.3173874,-1.501306,-4.560254,-1.761537,0.1688475,1.383602,0.3631012,-1.337955,0.1099228,11.29973,20.91279,0.08394241,-0.1829191,0.523333,-0.129974,-1.852745,-1.945393,0.3117734,1.487884,0.3208957,-0.1296344,-0.0219949,-0.2240119,-1.199118,0.5791155,0.04993108,0.4871466,1.493072,0.2251008,-0.02842988,1.591047,0.2254171,310.3918,77.10413,165.9172,True
3,1.355558,-0.4912645,-0.1247735,-0.2853001,-1.497674,-4.561749,-1.757108,0.1680667,1.385017,0.3629622,-1.336277,0.1521902,11.29973,21.51275,0.08637238,-0.149987,0.5713205,-0.1325967,-1.795196,-2.003456,0.3114592,1.488326,0.3201525,-0.1267266,0.03875767,-0.2463587,-1.202389,0.5821282,0.05024479,0.4866895,1.493058,0.2245882,-0.02746816,1.593835,0.2253868,311.1512,77.32809,165.5915,True
3,1.366669,-0.4612916,-0.1491029,-0.2607785,-1.494662,-4.563172,-1.753109,0.1674428,1.386225,0.36202,-1.335904,0.03280389,11.32626,22.00557,0.101073,-0.08496933,0.5649377,-0.1360907,-1.758808,-2.041239,0.3111708,1.488619,0.3195522,-0.1254588,0.08988155,-0.2239631,-1.203996,0.5851274,0.05037476,0.4861941,1.493012,0.224206,-0.02693505,1.596328,0.2247297,311.5886,77.77,164.8109,True
3,1.37778,-0.4326905,-0.09249228,-0.2450414,-1.495034,-4.565443,-1.749129,0.1669528,1.387115,0.3616459,-1.337703,-0.1647344,11.43236,22.39126,0.07895306,-0.03265063,0.4799949,-0.1385036,-1.747526,-2.052603,0.3107718,1.488877,0.3189015,-0.1215192,0.08875917,-0.1526262,-1.203262,0.5861849,0.05122564,0.4856513,1.493062,0.2237782,-0.02678172,1.598577,0.2237377,311.776,78.31239,163.9552,True
3,1.388891,-0.4181375,0.008706585,-0.2571118,-1.497847,-4.569186,-1.744664,0.1665805,1.388008,0.3613234,-1.33817,-0.04137578,11.56498,22.77694,0.04637113,-0.01979673,0.4067638,-0.139408,-1.73581,-2.063535,0.3105967,1.489287,0.3183119,-0.1113724,0.05783678,-0.1016232,-1.202775,0.5856243,0.0522909,0.4851416,1.493076,0.2233751,-0.02679267,1.600422,0.2225003,311.8748,78.70892,163.4236,True
3,1.400002,-0.4130811,0.08755398,-0.2595098,-1.500576,-4.57272,-1.739995,0.1661373,1.388825,0.3610394,-1.338038,0.01210041,11.80371,23.31262,0.008872241,-0.04112879,0.3739992,-0.1398186,-1.712076,-2.085772,0.3102788,1.489643,0.3178403,-0.08922219,0.0002630129,-0.0251953,-1.200602,0.583426,0.05328506,0.4846649,1.49304,0.222892,-0.02688066,1.601848,0.2210293,311.915,79.00927,163.0353,True
3,1.411114,-0.4077983,0.1046414,-0.2521194,-1.501864,-4.575552,-1.735433,0.1656437,1.389798,0.3607979,-1.337405,0.05757993,12.17507,23.80544,0.02705494,-0.05919798,0.3770111,-0.1409963,-1.680222,-2.118347,0.3101779,1.489889,0.3172576,-0.09006897,-0.01146316,-0.004953086,-1.200108,0.5830761,0.05448908,0.4843048,1.493045,0.2224135,-0.02703882,1.603001,0.2196846,311.8578,79.34066,162.3756,True
3,1.422225,-0.3938752,0.0855144,-0.2499385,-1.501554,-4.578032,-1.731421,0.1651431,1.391004,0.361105,-1.336926,0.0431782,12.59947,23.91258,0.06207526,-0.1005978,0.3468206,-0.1404146,-1.653205,-2.147023,0.3100487,1.490249,0.3168001,-0.1017848,-0.03491285,-0.006984293,-1.200406,0.5818235,0.05641001,0.4839422,1.492953,0.2219338,-0.02735064,1.604242,0.2189097,311.7514,79.69373,161.6514,True
3,1.433336,-0.3553429,0.03880826,-0.2392082,-1.500053,-4.580154,-1.728565,0.1646106,1.391939,0.3610013,-1.336554,0.033188,12.91777,23.89115,0.09719244,-0.13244,0.3315611,-0.1400636,-1.624127,-2.178073,0.3098989,1.490667,0.3163381,-0.1118506,-0.05937845,-0.05484273,-1.202738,0.5804748,0.0584729,0.4835985,1.4929,0.2215002,-0.02778607,1.605741,0.2189564,311.7059,79.93919,161.2769,True
3,1.444447,-0.3308076,0.03466238,-0.2285967,-1.499926,-4.582426,-1.72545,0.1641961,1.392822,0.3607538,-1.336462,0.007635286,13.1565,23.82687,0.1110715,-0.1419972,0.3325006,-0.1407672,-1.593972,-2.209551,0.3096199,1.49115,0.3158915,-0.1167029,-0.06891365,-0.1123272,-1.205853,0.5796695,0.06019277,0.4832581,1.492825,0.2211015,-0.02824914,1.607526,0.2197759,311.751,80.06392,161.3358,True
3,1.455558,-0.3053965,0.09555876,-0.2022144,-1.502865,-4.584262,-1.722848,0.1638378,1.393432,0.3606071,-1.336768,-0.02885693,13.39523,23.74116,0.1292557,-0.1196136,0.3483798,-0.143089,-1.5668,-2.238486,0.3093679,1.49145,0.3155482,-0.1075539,-0.06141359,-0.1539649,-1.208935,0.5793766,0.06120397,0.4829187,1.492786,0.2207615,-0.02861276,1.609451,0.2211753,311.9299,80.11326,161.7114,True
3,1.466669,-0.3077828,0.1744844,-0.1811448,-1.507832,-4.586485,-1.718684,0.163932,1.394551,0.3628817,-1.335514,0.1140173,13.60743,23.6126,0.1385606,-0.0599048,0.331379,-0.1461351,-1.556411,-2.250657,0.3091561,1.49176,0.3151381,-0.1023819,-0.06139708,-0.1689279,-1.211087,0.5788119,0.06235099,0.4825482,1.492795,0.220412,-0.02882012,1.611247,0.2227978,312.2748,80.04566,162.3777,True
3,1.47778,-0.2887565,0.2139236,-0.1940989,-1.510893,-4.58967,-1.715986,0.163583,1.395383,0.3628676,-1.334524,0.08830573,13.7931,23.39833,0.1294499,-0.03954789,0.2643778,-0.1468137,-1.553872,-2.254342,0.308917,1.492099,0.3147857,-0.093901,-0.06564783,-0.1732812,-1.213249,0.5780159,0.06340721,0.4821663,1.492817,0.2201123,-0.02895888,1.612879,0.2243643,312.608,79.88881,163.0445,True
3,1.488891,-0.2472184,0.1958393,-0.2292766,-1.511955,-4.593572,-1.714329,0.1633129,1.396188,0.3628864,-1.331392,0.2844181,13.92573,23.11978,0.1194707,-0.07034253,0.2047295,-0.145456,-1.543581,-2.265561,0.3086392,1.492374,0.3145518,-0.08960443,-0.06458482,-0.1701305,-1.215013,0.5773718,0.06445675,0.4817834,1.492872,0.2198107,-0.029084,1.614333,0.225931,312.7415,79.78532,163.1942,True
3,1.500003,-0.2076638,0.1372714,-0.2611172,-1.510937,-4.59726,-1.713017,0.1630743,1.397122,0.3633306,-1.330929,0.0384638,13.95225,22.73409,0.1279637,-0.1022511,0.1907461,-0.1449106,-1.524714,-2.28596,0.3084841,1.492755,0.3141899,-0.08737157,-0.05393916,-0.1594912,-1.216442,0.5772347,0.06540244,0.4814205,1.492881,0.2194948,-0.02926695,1.615915,0.2279097,312.6742,79.78223,163.0184,True
3,1.511114,-0.1809838,0.1170866,-0.2717568,-1.511081,-4.600657,-1.711681,0.1627161,1.39783,0.3634982,-1.330135,0.07078718,13.92573,22.30555,0.1389009,-0.1235881,0.2193737,-0.1456408,-1.498378,-2.313933,0.3083592,1.493275,0.3138604,-0.08518746,-0.05180847,-0.1552566,-1.218085,0.5768376,0.06627996,0.4810974,1.492955,0.2192192,-0.02961726,1.61766,0.2301179,312.8851,79.73678,163.4743,True
3,1.522225,-0.1853186,0.130926,-0.2760524,-1.512947,-4.60419,-1.708885,0.1625382,1.398867,0.3650017,-1.328277,0.1675975,13.92573,22.15556,0.1400175,-0.1182746,0.2279017,-0.1468233,-1.478823,-2.334804,0.3081177,1.493675,0.3134537,-0.09801589,-0.05821187,-0.1604569,-1.22012,0.5759479,0.06803418,0.4808063,1.49293,0.218895,-0.03011174,1.6192,0.2322586,313.2347,79.77651,164.1036,True
3,1.533336,-0.1992581,0.1564391,-0.2782393,-1.515077,-4.607681,-1.70604,0.1621498,1.399471,0.3653123,-1.325776,0.2253202,13.84615,21.91986,0.1262475,-0.06084482,0.2558221,-0.1502396,-1.467122,-2.347317,0.307799,1.494093,0.313159,-0.1064994,-0.06354111,-0.1571746,-1.221761,0.5752152,0.0697141,0.4804155,1.492886,0.2185211,-0.03079226,1.620336,0.2340721,313.5101,79.8886,164.5569,True
3,1.544447,-0.2056658,0.1628117,-0.2761254,-1.516569,-4.610943,-1.703328,0.1617517,1.40024,0.3654473,-1.321769,0.3626361,13.66048,21.5556,0.1305268,-0.0310356,0.2675732,-0.153111,-1.454022,-2.361852,0.3075244,1.494496,0.3128254,-0.1062849,-0.0582382,-0.1358651,-1.222615,0.5747392,0.07108643,0.4799929,1.492929,0.2181764,-0.03174435,1.621106,0.2354998,313.5453,80.03785,164.6218,True
3,1.555558,-0.1916858,0.1212952,-0.2813433,-1.516014,-4.61419,-1.701504,0.16147,1.400975,0.3658605,-1.319028,0.2458607,13.44828,21.10564,0.1452958,-8.228421E-05,0.2589905,-0.1556085,-1.447618,-2.370344,0.3071674,1.494782,0.3126311,-0.102958,-0.05611594,-0.1231136,-1.223574,0.5742382,0.07228325,0.4795672,1.492966,0.2178483,-0.03297671,1.621792,0.23683,313.2905,80.23279,164.3664,True
3,1.566669,-0.1585271,0.07663187,-0.2897807,-1.514776,-4.617427,-1.700759,0.1613713,1.401762,0.3666277,-1.316617,0.2167639,13.18302,20.54853,0.154551,0.01279651,0.2216637,-0.1567707,-1.444672,-2.375288,0.3068576,1.49506,0.3124111,-0.09325352,-0.0614474,-0.1125611,-1.224512,0.5733299,0.07323373,0.4791176,1.49291,0.2176096,-0.03439666,1.622507,0.2381283,313.036,80.3383,164.4283,True
3,1.577781,-0.1573216,0.02650851,-0.3077272,-1.513012,-4.621174,-1.698854,0.1611703,1.402514,0.3674359,-1.314911,0.1523121,12.89124,19.71288,0.1722768,-0.0232507,0.1617881,-0.1553672,-1.439134,-2.383307,0.3065882,1.495299,0.3122885,-0.08448336,-0.08063489,-0.09029534,-1.224861,0.5717537,0.0744215,0.4785939,1.492961,0.2173231,-0.03585067,1.623255,0.2393258,312.8122,80.44243,164.6677,True
3,1.588892,-0.1753345,-0.005543292,-0.3161146,-1.511355,-4.624784,-1.696142,0.1608399,1.402981,0.3675742,-1.313338,0.1406295,12.57294,18.8558,0.1722485,-0.03707908,0.1542915,-0.1558306,-1.429318,-2.394818,0.3061999,1.495628,0.3120682,-0.08761425,-0.09021993,-0.08494149,-1.225683,0.570573,0.07587159,0.4780636,1.492965,0.2169714,-0.03712377,1.623819,0.2403613,312.6256,80.67845,164.7409,True
3,1.600003,-0.1837613,-0.02578241,-0.3043112,-1.510142,-4.627542,-1.693711,0.1604929,1.403716,0.3681066,-1.309468,0.350684,12.25464,17.76302,0.1895156,-0.06477478,0.1732762,-0.156629,-1.409664,-2.416908,0.3059141,1.4959,0.3119273,-0.07366277,-0.09341324,-0.07549991,-1.226264,0.5694296,0.07665936,0.4774576,1.492955,0.216712,-0.03817307,1.624131,0.2412613,312.4951,81.02918,164.5422,True
3,1.611114,-0.1762632,-0.03640254,-0.3021609,-1.509,-4.6307,-1.691797,0.1601866,1.404423,0.3685718,-1.305682,0.3411357,12.04244,16.41311,0.2055696,-0.03387961,0.1923805,-0.1592102,-1.401756,-2.427548,0.3056543,1.496019,0.3118999,-0.05982386,-0.09552944,-0.07671284,-1.227271,0.5683476,0.07723247,0.4769401,1.493009,0.2164547,-0.03912457,1.624352,0.2420569,312.4335,81.39542,164.2954,True
3,1.622225,-0.1421864,-0.05439647,-0.3213406,-1.508187,-4.635341,-1.690613,0.1603049,1.406073,0.3727813,-1.303166,0.2255751,11.96286,15.04178,0.2084536,-0.01249734,0.1604347,-0.15995,-1.402026,-2.429594,0.3053868,1.4963,0.3119271,-0.04266509,-0.1008526,-0.06624452,-1.227828,0.5669946,0.07762822,0.4764516,1.492991,0.216181,-0.04005346,1.624635,0.2427059,312.3864,81.68613,164.158,True
3,1.633336,-0.1497446,-0.03424269,-0.341636,-1.507787,-4.639894,-1.68845,0.1601202,1.406751,0.3734317,-1.301185,0.1776263,11.96286,13.90615,0.2247397,-0.08279864,0.1761389,-0.1597103,-1.376727,-2.457626,0.3051771,1.496634,0.311867,-0.03955442,-0.1274763,-0.07588256,-1.229097,0.5646417,0.0788586,0.4759595,1.4929,0.2158558,-0.04097027,1.62511,0.2432429,312.2934,81.939,163.9847,True
3,1.644447,-0.1722291,0.01261923,-0.332221,-1.509154,-4.644551,-1.685527,0.1600945,1.408511,0.3765275,-1.299536,0.1476572,11.98939,12.96336,0.238774,-0.1040972,0.1919557,-0.1607271,-1.357826,-2.479469,0.3049938,1.496893,0.3118274,-0.0396555,-0.1327904,-0.08654615,-1.230649,0.5630763,0.07980429,0.4755103,1.492858,0.2156453,-0.04181556,1.625739,0.2439019,312.084,82.50446,163.1111,True
3,1.655559,-0.1968123,0.04989985,-0.3077922,-1.510827,-4.647326,-1.682267,0.1597326,1.409284,0.3772678,-1.296136,0.3078969,11.93634,12.06342,0.2557753,-0.08381525,0.1929264,-0.1622835,-1.348221,-2.492413,0.3046866,1.497313,0.3117559,-0.05172059,-0.1274451,-0.1194421,-1.233187,0.5618836,0.0811593,0.4750131,1.492794,0.2153826,-0.04256656,1.626593,0.2454306,311.8682,83.25588,161.799,True
3,1.66667,-0.191426,0.04251236,-0.3046324,-1.510604,-4.651495,-1.680273,0.1596532,1.411126,0.3804479,-1.292871,0.2943057,11.83024,11.09921,0.2673341,-0.05712792,0.1822336,-0.1637887,-1.344587,-2.499243,0.3044614,1.497801,0.3116317,-0.05500485,-0.1253131,-0.1279329,-1.235034,0.5606282,0.08227304,0.474539,1.492745,0.2151198,-0.04332923,1.627749,0.2478328,311.8259,83.64404,161.3915,True
3,1.677781,-0.1678599,0.004241109,-0.3045526,-1.508842,-4.654722,-1.679061,0.1595048,1.412138,0.3812387,-1.290336,0.2283318,11.67109,10.09213,0.2512209,-0.06139258,0.1642433,-0.1642632,-1.336124,-2.509847,0.3041836,1.498181,0.3115017,-0.0648331,-0.1199694,-0.1501945,-1.237527,0.5597483,0.08369996,0.4740783,1.492764,0.2148392,-0.04414246,1.629437,0.2512089,311.7919,83.75476,161.5349,True
3,1.688892,-0.1337047,-0.02663243,-0.3332887,-1.506823,-4.659392,-1.678549,0.1591525,1.412707,0.3814287,-1.289953,0.03225824,11.45889,9.256481,0.2127879,-0.07637617,0.1496052,-0.1643043,-1.324703,-2.522024,0.3039645,1.4987,0.3113639,-0.05843004,-0.1327515,-0.1502803,-1.239426,0.5577567,0.084729,0.4736032,1.492798,0.2145092,-0.04483793,1.631393,0.2551503,311.8708,83.57681,162.3773,True
3,1.700003,-0.1208821,-0.04153961,-0.3417966,-1.505353,-4.663395,-1.677307,0.1587926,1.413133,0.3810701,-1.289309,0.05779447,11.27321,8.677952,0.25249,-0.07528481,0.1855106,-0.1665386,-1.308696,-2.542033,0.3036458,1.499135,0.3111293,-0.05299807,-0.13489,-0.1407505,-1.24079,0.5561391,0.08559427,0.4731217,1.492803,0.2142034,-0.04533305,1.633474,0.2594234,312.0236,83.56673,163.1341,True
3,1.711114,-0.1038477,-0.03614211,-0.3375838,-1.504748,-4.666975,-1.676537,0.1584066,1.413912,0.3817639,-1.288747,0.04986351,11.16711,8.227983,0.2619575,0.001422584,0.1951805,-0.1702634,-1.313497,-2.540603,0.3033603,1.499363,0.3109262,-0.0548353,-0.1306507,-0.11196,-1.241104,0.5548701,0.08670933,0.4726416,1.492845,0.2138565,-0.04556303,1.635206,0.2633684,312.4618,83.41819,164.4259,True
3,1.722225,-0.1176834,-0.0222297,-0.3163446,-1.504854,-4.670691,-1.674534,0.1584183,1.415672,0.3852422,-1.286764,0.1801885,11.14058,7.649453,0.258756,0.03547877,0.2059392,-0.1734155,-1.311933,-2.544792,0.3030345,1.499795,0.3107643,-0.07690228,-0.1402778,-0.0840465,-1.24139,0.5529224,0.0888561,0.4720335,1.492931,0.2135882,-0.04573099,1.63635,0.2663676,313.0503,83.32729,165.6603,True
3,1.733337,-0.1486646,0.02037805,-0.2855332,-1.506287,-4.672988,-1.671739,0.1581167,1.416426,0.3859181,-1.285988,0.06873808,11.19363,6.94236,0.2323418,0.01619399,0.2274077,-0.1757282,-1.298908,-2.559171,0.3025805,1.500108,0.310782,-0.1064668,-0.1584324,-0.05924839,-1.241438,0.5504255,0.09194803,0.4713668,1.492865,0.2133234,-0.04608596,1.637014,0.2680601,313.397,83.38486,166.2693,True
3,1.744448,-0.1699491,0.02890664,-0.2749344,-1.506684,-4.67686,-1.669051,0.1579136,1.417832,0.3885739,-1.283874,0.1922189,11.37931,6.320977,0.2291029,-0.01361635,0.2124597,-0.1764925,-1.287055,-2.573288,0.3021608,1.500415,0.3107448,-0.1084519,-0.171221,-0.04645137,-1.241746,0.5481488,0.09383968,0.4706604,1.492865,0.2130706,-0.04676792,1.637518,0.2687313,313.2534,83.8512,165.4857,True
3,1.755559,-0.1634567,-0.0008968264,-0.2737844,-1.505347,-4.679705,-1.667264,0.1576395,1.418572,0.3892698,-1.282135,0.1570166,11.69761,5.913861,0.2384403,-0.02949667,0.1761308,-0.1765612,-1.280643,-2.582598,0.3017274,1.500774,0.3106017,-0.08387918,-0.1786641,-0.04032092,-1.242155,0.5458081,0.09467644,0.4699961,1.492885,0.2128217,-0.04769527,1.63828,0.269244,312.7544,84.49963,163.9796,True
3,1.76667,-0.1699319,0.03107633,-0.2621601,-1.506336,-4.682428,-1.665096,0.1573866,1.419097,0.3897078,-1.281737,0.03491903,12.09549,5.742445,0.2118286,-0.02424848,0.1806177,-0.1784185,-1.274006,-2.590539,0.3013828,1.501138,0.3104045,-0.06048793,-0.1509446,-0.04267449,-1.242858,0.545146,0.09474169,0.4694474,1.493001,0.2126262,-0.04862058,1.639329,0.2699559,312.3611,84.92384,163.065,True
3,1.777781,-0.1976243,0.06204303,-0.2335652,-1.508091,-4.686134,-1.662162,0.1572381,1.420594,0.3932703,-1.282176,-0.04062825,12.49337,5.785301,0.1895957,-0.01795337,0.1999849,-0.1809219,-1.265607,-2.600116,0.3010016,1.501358,0.3102591,-0.04674929,-0.1189727,-0.051316,-1.243792,0.5449128,0.09484342,0.4689384,1.492987,0.2124169,-0.04934689,1.64064,0.2712154,312.1717,85.36333,162.4495,True
3,1.788892,-0.2019119,0.07484314,-0.2240118,-1.509146,-4.688401,-1.659636,0.1569533,1.421286,0.3939075,-1.281482,0.0635495,12.78515,5.913861,0.1732623,0.04172075,0.1746796,-0.1834545,-1.274433,-2.592772,0.3006545,1.501411,0.3103094,-0.03817549,-0.1157736,-0.04607311,-1.244221,0.5436663,0.09544344,0.4682854,1.492945,0.2121761,-0.04969835,1.641863,0.2728217,312.2976,85.49391,162.6783,True
3,1.800003,-0.2040126,0.09736453,-0.1815296,-1.510709,-4.690175,-1.657597,0.1567214,1.422004,0.3947072,-1.280398,0.09833781,12.9443,6.06385,0.2019993,-0.00291419,0.1573155,-0.1836633,-1.263928,-2.606333,0.3003239,1.50171,0.310277,-0.02315691,-0.1179021,-0.03664007,-1.244402,0.5421514,0.09566101,0.4676158,1.493023,0.2119734,-0.04978376,1.643076,0.2746781,312.4459,85.64038,162.6837,True
3,1.811115,-0.2220934,0.1048742,-0.1463709,-1.512081,-4.690751,-1.654518,0.1565752,1.422749,0.3953094,-1.280385,0.0001829075,12.99735,6.278121,0.2138321,-0.05932435,0.153903,-0.1837528,-1.247771,-2.624936,0.2998601,1.501931,0.3102913,-0.009382159,-0.122147,-0.04424786,-1.245323,0.5406484,0.09574144,0.467074,1.492973,0.2118223,-0.04975869,1.644639,0.2771673,312.5229,85.86144,162.3133,True
3,1.822226,-0.2508051,0.1069941,-0.1143884,-1.512933,-4.691132,-1.650858,0.1560687,1.422592,0.3942106,-1.280669,-0.02596581,12.99735,6.535248,0.205535,-0.1190088,0.1634307,-0.1842827,-1.229243,-2.64494,0.2994064,1.502325,0.3102703,-0.0289865,-0.1285206,-0.08667127,-1.247985,0.5391427,0.09714572,0.466535,1.49297,0.2116141,-0.04957372,1.646373,0.280028,312.7691,85.69081,162.8929,True
3,1.833337,-0.2785343,0.1229266,-0.1005482,-1.514715,-4.691894,-1.646775,0.1556942,1.422867,0.3946459,-1.279427,0.1136375,12.91777,6.835225,0.1816858,-0.07744423,0.125355,-0.1846135,-1.230753,-2.644705,0.2989091,1.502574,0.3101673,-0.04833257,-0.1434395,-0.1035245,-1.249876,0.5370732,0.0990672,0.4659328,1.493066,0.2113509,-0.04924273,1.648112,0.2828816,313.0963,85.34653,163.895,True
3,1.844448,-0.2647543,0.1653226,-0.1157886,-1.514074,-4.694454,-1.645252,0.1541009,1.418048,0.3776572,-1.278624,0.07242826,12.78515,7.113777,0.1642967,-0.007134274,0.1054067,-0.1863009,-1.240216,-2.636597,0.298506,1.502953,0.3099623,-0.05775432,-0.1466638,-0.08744775,-1.250338,0.5352238,0.1006118,0.4652887,1.493135,0.21106,-0.04877244,1.649724,0.2852627,313.4882,84.87636,165.1708,True
3,1.855559,-0.1987518,0.1804685,-0.1127352,-1.516563,-4.695818,-1.645276,0.1536628,1.418452,0.3775837,-1.27818,0.04007706,12.75862,7.413754,0.1227683,0.05343759,0.1271702,-0.1894956,-1.247622,-2.629192,0.2983197,1.503065,0.3098309,-0.0412701,-0.1285837,-0.03753182,-1.249087,0.5342423,0.1008313,0.4647429,1.493164,0.210849,-0.04818933,1.650993,0.2866585,313.9516,84.5192,166.2212,True
3,1.86667,-0.09945431,0.1126303,-0.109459,-1.515243,-4.696735,-1.647372,0.1533077,1.418845,0.3776684,-1.280803,-0.2401152,12.83819,7.73516,0.1165756,0.04911333,0.150652,-0.1918807,-1.241658,-2.63615,0.2982769,1.503101,0.3097696,-0.006948829,-0.1221863,-0.01443895,-1.248571,0.5330308,0.1001753,0.4643005,1.493112,0.2105458,-0.04755129,1.651712,0.2864499,314.9052,83.51883,169.0556,True
3,1.877781,-0.08875257,0.09774876,-0.1104919,-1.515624,-4.698007,-1.646744,0.1531261,1.419142,0.3777442,-1.28239,-0.1431802,13.10345,8.142276,0.1656703,-0.04447393,0.1319616,-0.1908799,-1.22266,-2.658306,0.2983423,1.503434,0.3097205,0.02394708,-0.1413362,-0.01584149,-1.249018,0.5307238,0.0995471,0.4638533,1.493064,0.2102854,-0.04704613,1.650801,0.2821811,316.224,82.73853,172.4343,True
3,1.888893,-0.1327414,0.1849774,-0.1064419,-1.521025,-4.699456,-1.643068,0.1529384,1.419272,0.3779616,-1.284161,-0.1611101,13.31565,8.699377,0.1977468,-0.1253244,0.120878,-0.1898216,-1.202173,-2.681632,0.2982434,1.503794,0.3096719,0.02763227,-0.1689845,-0.07342878,-1.252169,0.5279227,0.1000494,0.4634681,1.493012,0.2100503,-0.04724626,1.649467,0.2752368,315.9995,83.55643,170.1414,True
3,1.900004,-0.1350118,0.2158053,-0.123576,-1.524442,-4.701522,-1.641198,0.1526058,1.419369,0.3780365,-1.281153,0.2758906,13.42175,9.406469,0.2498967,-0.1837339,0.09584042,-0.1883473,-1.18247,-2.705468,0.2979485,1.504285,0.3095839,-0.02851337,-0.1497961,-0.1442081,-1.256307,0.5273262,0.1024678,0.4631676,1.492982,0.2097757,-0.04807591,1.648054,0.2677803,315.168,84.95893,165.6066,True
3,1.911115,-0.05936153,0.2011014,-0.1428046,-1.526018,-4.703867,-1.643022,0.1522899,1.419362,0.3782809,-1.277502,0.3310917,13.44828,9.942146,0.2581111,-0.1868193,0.05633846,-0.1867243,-1.175177,-2.715775,0.2973123,1.504509,0.309365,-0.09272636,-0.1349102,-0.1712265,-1.259109,0.5266165,0.1058644,0.4627595,1.49291,0.2095754,-0.0493756,1.647045,0.2616905,314.2318,86.27106,161.4749,True
3,1.922226,-0.04880084,0.2202618,-0.1556537,-1.52881,-4.705997,-1.642701,0.1520402,1.419276,0.3783114,-1.278979,-0.1375567,13.42175,10.09213,0.2089741,-0.1432669,0.0536296,-0.1872357,-1.173374,-2.718087,0.296718,1.504645,0.3090937,-0.1086936,-0.1327926,-0.1699936,-1.260929,0.5253121,0.1077928,0.462279,1.49297,0.2093832,-0.05081387,1.646871,0.2581942,313.4129,87.04618,159.0176,True
3,1.933337,-0.01783507,0.1926436,-0.166259,-1.53018,-4.708285,-1.643245,0.1516201,1.41925,0.3784251,-1.282812,-0.3491093,13.31565,9.792157,0.09653201,0.04184087,0.03998418,-0.1901881,-1.207729,-2.681375,0.2959086,1.504588,0.308871,-0.1071497,-0.1221784,-0.1231251,-1.260806,0.5242389,0.1092967,0.4616471,1.493044,0.2091901,-0.05196387,1.647291,0.2575874,313.0261,87.38564,158.3467,True
3,1.944448,0.01639938,0.143752,-0.169338,-1.530095,-4.710096,-1.644219,0.1512765,1.419401,0.3786116,-1.28078,0.1884749,12.91777,9.513605,0.03749207,0.1684891,0.02474163,-0.1929551,-1.238348,-2.649633,0.2954151,1.504659,0.308671,-0.07955638,-0.1009353,-0.02964084,-1.258004,0.5234205,0.1093875,0.4609123,1.493128,0.208998,-0.052653,1.647743,0.2595463,313.135,87.30537,159.0301,True
3,1.955559,0.04750518,0.09602763,-0.1351415,-1.529433,-4.710359,-1.645859,0.1507156,1.419253,0.3786085,-1.281078,-0.02943123,12.38727,9.642169,0.04210986,0.1109173,0.05121328,-0.1937535,-1.231332,-2.657076,0.2949884,1.504745,0.3087039,-0.0384897,-0.06047163,0.02962638,-1.255517,0.5238857,0.1082596,0.4602329,1.493164,0.2088151,-0.05306894,1.648252,0.2633916,313.3989,86.77454,160.6901,True
3,1.966671,0.04004571,0.09924039,-0.1212869,-1.530618,-4.711236,-1.645831,0.1500719,1.419046,0.378536,-1.281294,-0.01946475,11.85676,10.17785,0.07533401,0.04601186,0.0550787,-0.1935793,-1.220021,-2.670386,0.2946258,1.504781,0.3086951,-0.02139177,-0.01998872,0.03800952,-1.254913,0.5248495,0.1077387,0.4596792,1.493245,0.2085567,-0.05339183,1.648822,0.2682433,313.7499,86.13974,162.775,True
3,1.977782,0.02190342,0.1151629,-0.120303,-1.532116,1.569564,-1.64544,0.149867,1.419152,0.3785641,-1.281626,-0.03039071,11.48541,11.03493,0.09733877,-0.01239263,-0.009136645,-0.1902743,-1.21484,-2.677424,0.2941794,1.504618,0.3087156,-0.01281198,-0.02318221,0.04324446,-1.254289,0.5243917,0.107744,0.4591406,1.493266,0.2083368,-0.05373561,1.649325,0.2731619,314.1098,85.51675,164.93,True
3,1.988893,-0.01758713,0.1523969,-0.09057918,-1.534749,1.568702,-1.643865,0.1495529,1.418961,0.3784573,-1.279764,0.1702632,11.16711,11.93486,0.1131603,-0.03040531,-0.03487359,-0.1888554,-1.215141,-2.678878,0.2936264,1.504601,0.3086481,-0.001508743,-0.08918424,-0.001671143,-1.256085,0.5210474,0.1084652,0.4586965,1.493193,0.2080958,-0.05420795,1.649571,0.2772904,314.4704,84.90912,166.8735,True
3,2.000004,-0.009053471,0.1534964,-0.08957987,-1.535983,1.566796,-1.644198,0.1491898,1.418867,0.3784904,-1.27911,0.05820581,10.82228,13.09192,0.0991242,-0.006971791,-0.05069324,-0.1881965,-1.221371,-2.673362,0.2931215,1.504565,0.3085725,-0.008943308,-0.09771857,-0.0005384926,-1.256258,0.5196547,0.1092136,0.4581406,1.493066,0.2079129,-0.05494571,1.649695,0.280144,314.5998,84.50115,168.1762,True
3,2.011115,0.01544003,0.1653756,-0.06514737,-1.538213,1.566714,-1.645226,0.1489087,1.418672,0.3783565,-1.277818,0.1177187,10.4244,14.54896,0.05935331,0.05476903,-0.07475072,-0.1880027,-1.240172,-2.65398,0.292541,1.504609,0.3084219,-0.008829996,-0.08707549,0.01118815,-1.255833,0.5189492,0.1095225,0.4576137,1.493028,0.2077315,-0.05582862,1.649765,0.2816602,314.4521,84.41743,168.6657,True
3,2.022226,0.04306079,0.1911533,-0.03761264,-1.541462,1.566162,-1.6461,0.1486664,1.418356,0.3782294,-1.279668,-0.1699961,9.973473,16.17742,0.03743011,0.03969362,-0.02346612,-0.1893055,-1.235718,-2.658068,0.2921056,1.504806,0.308347,-0.001438715,-0.06895658,0.005802433,-1.255915,0.5187446,0.1092756,0.4570362,1.493022,0.2076273,-0.05664437,1.649794,0.2820018,314.1942,84.43124,168.6477,True
3,2.033337,0.09848382,0.1774465,-0.05255504,-1.542969,1.564971,-1.648962,0.1482714,1.418266,0.3780634,-1.280471,-0.07194946,9.469496,17.46304,0.02171913,0.01084566,0.001100373,-0.1896693,-1.229942,-2.663474,0.2917833,1.504775,0.3083112,0.002882686,-0.0615014,0.01215591,-1.255641,0.5182713,0.1092482,0.4565519,1.493001,0.2075133,-0.05727252,1.649701,0.2814451,314.0343,84.59908,168.2106,True
3,2.044448,0.1295172,0.141369,-0.04502081,-1.543378,1.564578,-1.651457,0.1474763,1.418177,0.3781307,-1.280251,0.02051669,9.098145,18.34155,0.02913733,-0.007219097,-0.009642702,-0.1889587,-1.228642,-2.665385,0.2913769,1.504901,0.3081989,0.004984451,-0.07428237,0.00892891,-1.255757,0.5168843,0.1096479,0.4560797,1.493045,0.2073748,-0.0576902,1.649422,0.2803294,313.9487,84.68813,167.6538,True
3,2.055559,0.1254109,0.09339289,-0.05232138,-1.54273,1.56384,-1.652762,0.1469765,1.417973,0.3781002,-1.282005,-0.1607487,8.753316,18.77009,0.04624815,-0.06042285,-0.01841076,-0.1873086,-1.217823,-2.677141,0.29074,1.504993,0.3079948,-0.01357437,-0.07958692,-0.03456216,-1.257738,0.5159361,0.1106935,0.4555795,1.493071,0.2072835,-0.05801687,1.649065,0.279036,313.9193,84.79572,167.0368,True
3,2.06667,0.07326074,0.06124292,-0.06602508,-1.542826,1.562146,-1.650995,0.1463588,1.41763,0.3783431,-1.281514,0.04600194,8.488064,18.89865,0.02041963,0.006651928,-0.02979141,-0.1877624,-1.23094,-2.663642,0.2898561,1.504825,0.3079369,-0.04380658,-0.04229495,-0.0704465,-1.259776,0.5170241,0.1118504,0.4550668,1.493083,0.2072101,-0.05846651,1.648673,0.2778534,314.0306,85.02285,166.3848,True
3,2.077781,0.02121416,0.02171414,-0.04451913,-1.541871,1.562589,-1.64942,0.1455749,1.417616,0.3784332,-1.279979,0.1396495,8.381961,19.11292,-0.01850303,0.1142214,-0.06654385,-0.1883835,-1.258803,-2.634775,0.2890138,1.504814,0.3078225,-0.0542648,0.007749598,-0.04792663,-1.259359,0.5188032,0.112204,0.4544048,1.493135,0.2071705,-0.05922544,1.648196,0.276967,314.1488,85.19775,165.8832,True
3,2.088892,0.01496629,-0.01877614,-0.04225763,-1.540398,1.562232,-1.649437,0.1449432,1.417665,0.3784361,-1.276701,0.2984148,8.408487,19.52003,-0.03671724,0.1291003,-0.07489239,-0.1882354,-1.269688,-2.623144,0.2882596,1.504748,0.307853,-0.03699155,0.03437275,-0.0235788,-1.258631,0.5199968,0.1117047,0.4537835,1.493232,0.2070985,-0.06026981,1.647551,0.2764587,314.1076,85.37918,165.5291,True
3,2.100003,0.07793867,-0.05909421,-0.05712205,-1.538463,1.561242,-1.652331,0.1443537,1.417879,0.3783581,-1.276661,0.001454276,8.594163,20.31283,-0.05595005,0.09712476,-0.09184255,-0.1868618,-1.272366,-2.619195,0.287767,1.504722,0.3078494,0.02426778,0.05461137,0.02906556,-1.256458,0.520979,0.1089449,0.4531456,1.493313,0.207052,-0.06154535,1.64701,0.2764245,313.8406,85.5355,165.3167,True
3,2.111114,0.1238389,-0.08449109,-0.05283807,-1.536632,1.560937,-1.655215,0.1438541,1.418007,0.3783088,-1.278537,-0.1711193,8.885942,20.9985,-0.02362946,0.03004801,-0.06880132,-0.1859227,-1.26357,-2.628741,0.28747,1.504989,0.3077533,0.05871807,0.04396003,0.06279568,-1.254528,0.5208989,0.1071701,0.4525612,1.493385,0.2069459,-0.06284093,1.646765,0.2767356,313.4966,85.53369,165.4696,True
3,2.122225,0.1259812,-0.08445702,-0.04218861,-1.535715,1.560971,-1.656535,0.1432707,1.418028,0.3782101,-1.281662,-0.2842684,9.124667,21.42704,0.0367626,-0.04557515,-0.00125755,-0.1864809,-1.24357,-2.65073,0.2869508,1.505082,0.3075566,0.03831607,0.01625989,0.0448654,-1.254958,0.5201227,0.1077246,0.4520108,1.493397,0.2067957,-0.06394015,1.646696,0.2771902,313.2746,85.55382,165.7638,True
3,2.133336,0.04815341,-0.05801614,-0.0187379,-1.535913,1.561509,-1.654551,0.14262,1.417792,0.3780746,-1.281733,-0.00432562,9.071617,21.51275,0.06778909,-0.02743166,0.02090169,-0.1874711,-1.242109,-2.654023,0.2862871,1.505133,0.307303,-0.02188805,-0.0007868968,-0.008856786,-1.256829,0.5197337,0.1100104,0.451497,1.493409,0.2066414,-0.06481791,1.646565,0.277621,313.2798,85.62389,165.9997,True
3,2.144447,0.004337078,-0.006982968,-0.0007765143,-1.537272,1.561337,-1.65325,0.1421234,1.417745,0.3778682,-1.279852,0.1715465,8.992041,21.19134,0.0260796,0.02360368,0.01707983,-0.1883771,-1.252304,-2.642718,0.2855522,1.505033,0.3071575,-0.06044862,-0.00719777,-0.02976978,-1.257836,0.519538,0.1119028,0.4509852,1.493444,0.2065389,-0.06558166,1.646232,0.2779071,313.3706,85.61657,166.1816,True
3,2.155558,-0.01081655,0.06662337,0.04161981,-1.54096,1.562799,-1.652019,0.1417169,1.417304,0.3774743,-1.276268,0.3261465,9.124667,21.49132,-0.06513488,0.1342597,-0.02990122,-0.1893539,-1.282456,-2.609184,0.2848125,1.504938,0.3070362,-0.05801855,-0.02213359,-0.002108406,-1.257058,0.5186328,0.112816,0.4504091,1.493483,0.2064774,-0.06637765,1.645804,0.2779849,313.4087,85.53827,166.3127,True
3,2.166669,0.02754283,0.06892528,0.05434792,-1.541902,1.563754,-1.653578,0.1411913,1.417232,0.3771238,-1.276798,-0.0510079,9.549072,22.71266,-0.1015137,0.133144,-0.0498578,-0.1888703,-1.292187,-2.597393,0.284263,1.504903,0.3071656,-0.005298226,-0.03598212,0.04634373,-1.254822,0.5174629,0.1112975,0.4497823,1.493547,0.2065156,-0.06719751,1.645538,0.2778578,313.2536,85.43825,166.3871,True
3,2.17778,0.08834866,0.04677013,0.05541116,-1.541543,1.564326,-1.656817,0.1405255,1.41722,0.3768196,-1.276947,-0.01306577,10.26525,24.51253,-0.07353465,0.04158514,-0.04387291,-0.1874077,-1.280325,-2.60919,0.2838381,1.504967,0.3071656,0.03430835,-0.007209394,0.06619868,-1.253365,0.518126,0.1093353,0.449231,1.49358,0.2064526,-0.06787259,1.645528,0.277633,313.0443,85.3549,166.3891,True
3,2.188891,0.1043506,0.04258393,0.06179627,-1.541946,1.565216,-1.658577,0.1400041,1.417096,0.3765001,-1.279442,-0.228321,11.29973,26.91236,-0.04146501,-0.02755715,-0.05279454,-0.1853251,-1.270826,-2.619272,0.2834214,1.505096,0.3071456,0.03534231,0.01942815,0.0651438,-1.252627,0.5192959,0.1086218,0.4487729,1.493668,0.2064197,-0.06823108,1.645657,0.2774118,312.9384,85.11003,166.5482,True
3,2.200002,0.06165458,0.08194494,0.09363962,-1.543975,1.566487,-1.657926,0.1394542,1.417022,0.3761103,-1.280529,-0.09833071,12.38727,29.61217,-0.01259963,-0.03815797,-0.04345735,-0.1848585,-1.267514,-2.623363,0.2828645,1.505208,0.3069954,0.002001608,0.03114042,0.03566832,-1.25322,0.5200849,0.1095305,0.4483652,1.493693,0.2063258,-0.06839503,1.645792,0.2771258,313.127,84.98491,166.6886,True
3,2.211113,0.0114292,0.1329574,0.1095186,-1.547161,1.567926,-1.656517,0.1388669,1.416676,0.3756833,-1.277818,0.2472729,13.39523,32.29055,-0.04567554,0.04055505,-0.02492433,-0.1866514,-1.280862,-2.60876,0.2821674,1.505166,0.3066578,-0.04300923,0.0002361182,0.00841077,-1.254191,0.5191793,0.1119132,0.447937,1.493709,0.2062447,-0.06863064,1.645681,0.2767174,313.4901,84.95404,166.7029,True
3,2.222224,0.003886636,0.161728,0.1190329,-1.54997,1.569391,-1.656515,0.1381095,1.416296,0.3753181,-1.27365,0.3775388,14.35013,34.96893,-0.08420497,0.0884015,-0.03091003,-0.1873507,-1.293396,-2.594157,0.2814527,1.505041,0.3065193,-0.04079876,-0.01893674,0.01476462,-1.253802,0.5183753,0.1124493,0.447403,1.493739,0.2062044,-0.06918276,1.645325,0.2762165,313.6801,84.83777,166.6878,True
3,2.233335,0.030485,0.1724792,0.1210973,-1.552394,1.570624,-1.65774,0.1375623,1.416118,0.3748295,-1.271069,0.2317048,15.06631,37.47589,-0.115139,0.0979143,-0.03277208,-0.1877028,-1.30125,-2.584133,0.2809185,1.504954,0.3064055,-0.01608751,-0.01893384,0.03474905,-1.252802,0.5180127,0.1119225,0.4468497,1.493736,0.2062097,-0.07013407,1.644966,0.275716,313.5612,84.6211,166.726,True
3,2.244446,0.05609269,0.1491194,0.110492,-1.553564,-4.711792,-1.65888,0.1370757,1.41579,0.3744674,-1.270777,0.02367378,15.49072,39.29719,-0.1160698,0.08190596,-0.02107503,-0.1879936,-1.301534,-2.582602,0.2804771,1.50488,0.3063169,-0.002166175,-0.01253977,0.04206407,-1.252103,0.5180368,0.111404,0.446308,1.493762,0.2061942,-0.07131043,1.644632,0.2753255,313.2937,84.37923,166.8329,True
3,2.255557,0.09143094,0.09490323,0.1084904,-1.552768,-4.710603,-1.661183,0.1365395,1.415755,0.3739955,-1.27017,0.05383637,15.70292,40.62567,-0.07234181,0.02983798,-0.03112818,-0.1865491,-1.296697,-2.588129,0.2801251,1.504928,0.3063326,0.02241061,0.03435246,0.05250378,-1.250832,0.5202846,0.1095276,0.4458081,1.493764,0.2062511,-0.07258015,1.644252,0.275085,313.0574,84.14761,167.017,True
3,2.266668,0.1063249,0.1035138,0.1201717,-1.554386,-4.708869,-1.662753,0.1357604,1.415584,0.3735518,-1.267816,0.2127885,15.59682,40.81851,-0.0519968,-0.01485034,-0.03244826,-0.1852687,-1.28969,-2.595189,0.2797004,1.504964,0.3062205,0.02220355,0.04501863,0.03332854,-1.251262,0.5211506,0.1090719,0.4453786,1.493783,0.2062552,-0.073874,1.64371,0.2749627,312.8722,83.94673,167.2625,True
3,2.277779,0.08807711,0.1450114,0.1243237,-1.557593,-4.707633,-1.663109,0.135143,1.415203,0.3730659,-1.266216,0.1424271,15.19894,39.98286,-0.04238565,-0.04783133,-0.0400552,-0.1837459,-1.284044,-2.600622,0.2791224,1.504998,0.3061023,0.01001853,0.04717749,-0.01128771,-1.25295,0.5220274,0.1091105,0.4450025,1.493814,0.2062428,-0.07519009,1.642922,0.2748745,312.7084,83.80378,167.5215,True
3,2.28889,0.03563748,0.2204668,0.1262509,-1.562691,-4.707063,-1.661771,0.134783,1.415007,0.3724921,-1.262614,0.3259186,14.90716,38.89008,-0.05531956,-0.02121152,-0.05055104,-0.1833427,-1.290301,-2.593433,0.2784904,1.505016,0.3058684,-0.02869371,0.0343971,-0.04712028,-1.254739,0.5221552,0.1107366,0.4445861,1.493828,0.2062442,-0.07664743,1.641976,0.2746586,312.5558,83.66869,167.7699,True
3,2.300001,0.008720328,0.2960448,0.1324354,-1.568957,-4.705914,-1.660404,0.1344169,1.414392,0.3718672,-1.2581,0.4075244,14.72149,37.96871,-0.09497406,0.03517047,-0.061832,-0.1837405,-1.304636,-2.576805,0.2777724,1.505033,0.3056743,-0.04453712,0.03224333,-0.03417186,-1.25459,0.522451,0.1116679,0.4440826,1.493853,0.2062047,-0.07835288,1.640986,0.2743186,312.3331,83.39953,167.9978,True
3,2.311112,-0.002038062,0.3386876,0.1535862,4.709035,-4.704443,-1.660367,0.13391,1.41408,0.3713534,-1.25296,0.4640372,14.50928,37.19735,-0.1089114,0.1064906,-0.04985924,-0.1856063,-1.322105,-2.557953,0.2771868,1.50501,0.3055689,-0.03463511,0.03968669,-0.003371019,-1.253417,0.5231224,0.1114485,0.4435387,1.49388,0.2061117,-0.08024213,1.640034,0.2739798,311.9344,83.07819,168.1902,True
3,2.322223,0.001010271,0.3888405,0.1822101,4.703172,-4.701606,-1.660665,0.1329915,1.413661,0.3704975,-1.249357,0.3231772,14.24403,36.36169,-0.1131357,0.1064694,-0.04556369,-0.1859238,-1.327946,-2.5509,0.2767423,1.504941,0.3054438,-0.01956849,0.04607309,0.01139078,-1.25275,0.5237653,0.1108693,0.4430221,1.49389,0.2060683,-0.08213599,1.639303,0.273831,311.3804,82.73808,168.4062,True
3,2.333334,0.0318162,0.4305323,0.1948234,4.696754,-4.699672,-1.66197,0.1325851,1.413187,0.3696096,-1.247136,0.1979958,13.687,34.92608,-0.08656562,0.06609663,-0.06610455,-0.1842998,-1.328971,-2.549789,0.2764684,1.504851,0.3055353,0.004175909,0.03754317,0.04097252,-1.25119,0.5236953,0.1101105,0.4425131,1.493868,0.2059314,-0.08376785,1.638733,0.2739961,310.9218,82.30062,168.7991,True
3,2.344445,0.05622261,0.4679041,0.2022037,4.690248,-4.696693,-1.663744,0.1319633,1.412078,0.3682377,-1.2438,0.3005939,13.02387,32.95479,-0.07169925,0.04485264,-0.07905088,-0.1830199,-1.331673,-2.546903,0.2760519,1.504829,0.3054554,0.03301191,0.02265572,0.04598477,-1.250623,0.5234408,0.1087704,0.4420447,1.493886,0.2058444,-0.08514852,1.638358,0.2744207,310.7376,81.77202,169.418,True
3,2.355556,0.05379685,0.5531339,0.2061991,4.680943,-4.695077,-1.664241,0.1315514,1.411362,0.3672707,-1.240612,0.2858398,12.41379,31.04778,-0.04823755,-0.04558528,-0.1039341,-0.1790134,-1.320981,-2.557743,0.2757189,1.504774,0.305408,0.03276074,0.004567328,0.02040355,-1.251319,0.522918,0.108567,0.4416778,1.493932,0.2057312,-0.08637747,1.63807,0.2749344,310.7706,81.05495,170.3118,True
3,2.366668,0.03130027,0.5882095,0.2008298,4.672807,-4.693265,-1.663695,0.1310846,1.410837,0.366843,-1.236619,0.3592955,11.83024,29.20506,-0.05672097,-0.06051819,-0.1039024,-0.1775119,-1.319916,-2.557734,0.2751723,1.504795,0.3052962,0.01025723,-0.01355072,0.006769473,-1.251867,0.5221789,0.1096096,0.4411947,1.494002,0.2056596,-0.08744458,1.637527,0.2754032,310.8944,80.32841,171.2686,True
3,2.377779,0.02074881,0.5583448,0.2009375,4.667446,-4.691499,-1.6635,0.1306086,1.410198,0.3661239,-1.23054,0.5492791,11.35279,27.29805,-0.06181021,-0.04888088,-0.07081216,-0.1777724,-1.317941,-2.558782,0.2747083,1.504582,0.3050969,-0.03882067,-0.03915405,-0.002333898,-1.25239,0.5207241,0.1122155,0.4407626,1.493938,0.2056088,-0.08851364,1.636541,0.2756778,311.029,79.5744,172.1814,True
3,2.38889,0.01338243,0.5359779,0.2042498,4.661741,-4.689159,-1.663458,0.1302081,1.409796,0.3660448,-1.224436,0.5497788,10.90185,25.06964,-0.08759855,0.03840406,-0.07042861,-0.1790337,-1.335882,-2.539259,0.2742366,1.504231,0.3048863,-0.02930157,-0.02742015,-0.007749766,-1.252613,0.5209374,0.1121473,0.4402803,1.493894,0.2055571,-0.0898982,1.635497,0.2758986,310.891,78.88213,172.7847,True
3,2.400001,0.01772983,0.5072042,0.1968815,4.656827,-4.687602,-1.663759,0.129943,1.409105,0.3653843,-1.219712,0.4239735,10.71618,23.67688,-0.0727066,0.05973674,-0.06623936,-0.1793074,-1.343823,-2.531107,0.2737875,1.504133,0.3047402,0.03353539,0.02056314,-0.006231005,-1.252414,0.5228868,0.1088951,0.439737,1.493942,0.2054975,-0.09159929,1.634539,0.2762217,310.5648,78.28193,173.2799,True
3,2.411112,-0.03987512,0.5325971,0.1947654,4.649158,-4.685937,-1.661115,0.1296885,1.408568,0.3652866,-1.214862,0.4365654,10.71618,22.75552,-0.04180191,0.03639425,-0.0718674,-0.1782448,-1.345143,-2.530374,0.2733184,1.504065,0.304651,0.07174277,0.06748005,-0.01617327,-1.252612,0.5254492,0.1060215,0.4392575,1.493983,0.2054317,-0.0934357,1.633541,0.2765939,310.1997,77.76813,173.8133,True
3,2.422223,-0.04202987,0.5389813,0.1947493,4.642562,-4.684271,-1.660375,0.1293286,1.407887,0.364732,-1.209954,0.4413135,10.8488,22.11271,-0.04836454,0.02258237,-0.09741166,-0.1764568,-1.350323,-2.52451,0.2728506,1.503883,0.3045654,0.05997607,0.08025292,-0.02029991,-1.252822,0.5267619,0.1053568,0.4388078,1.494026,0.2053478,-0.09527831,1.632477,0.2770177,309.8257,77.19697,174.4213,True
3,2.433334,-0.009920387,0.4782284,0.150157,4.639307,-4.684372,-1.66132,0.1290291,1.407409,0.3643007,-1.201771,0.7408342,11.00796,21.96272,-0.03986136,-0.008267775,-0.109266,-0.1744221,-1.35083,-2.523738,0.2724437,1.503644,0.3045268,0.007063365,0.0173337,0.00896212,-1.251932,0.5246018,0.1078652,0.438395,1.494085,0.2052314,-0.09702285,1.631248,0.2774368,309.4955,76.62136,175.0521,True
3,2.444445,0.01052071,0.4238824,0.1236464,4.636566,-4.684509,-1.662773,0.1290626,1.407189,0.3638945,-1.198079,0.3275042,11.24668,22.30555,-0.03878976,-0.005076632,-0.1071348,-0.1736424,-1.354293,-2.51988,0.2720532,1.503448,0.3044031,-0.00651926,-0.009328297,0.03251928,-1.250914,0.5234444,0.1086703,0.4379796,1.494095,0.205127,-0.09871054,1.6302,0.2779953,309.0853,75.9175,175.7108,True
3,2.455556,0.04932455,0.2758135,0.08464785,4.638779,-4.684774,-1.664746,0.1287607,1.407149,0.363873,-1.194573,0.3146254,11.48541,22.73409,-0.03233422,0.0002467185,-0.09758823,-0.1731257,-1.357733,-2.516344,0.2716248,1.50333,0.3042722,-0.0008967221,-0.006152342,0.06122811,-1.249216,0.5232343,0.1085614,0.4375334,1.494071,0.2049901,-0.1002191,1.62926,0.2786441,308.8517,75.3119,176.4485,True
3,2.466667,0.04975123,0.1297687,0.04464172,4.641773,-4.685018,-1.665002,0.1284251,1.406749,0.3642442,-1.189821,0.4279937,11.75066,23.63402,-0.03315808,-0.003018796,-0.06775783,-0.1732093,-1.355851,-2.517718,0.2711402,1.503221,0.3041201,-0.001107758,0.007710884,0.04206622,-1.249389,0.5239611,0.1082839,0.437114,1.49411,0.2049022,-0.1015717,1.628257,0.2792349,308.7365,75.02008,176.9945,True
3,2.477778,0.03930238,0.06148688,0.02356491,4.643574,-4.68535,-1.665089,0.1281551,1.406718,0.3643687,-1.184877,0.4447007,11.90981,24.76966,-0.03939403,0.02034677,-0.0410263,-0.1742027,-1.359032,-2.513919,0.2707355,1.503102,0.303956,-0.006653778,0.01944189,0.02189202,-1.249778,0.5246555,0.1083366,0.4366775,1.494105,0.2048199,-0.1028617,1.627138,0.2796481,308.6246,74.87893,177.3777,True
3,2.488889,0.04077633,-0.08144902,-0.03881982,4.648941,-4.687056,-1.66565,0.1276305,1.407102,0.3649237,-1.177755,0.6437114,11.93634,25.36962,0.002217345,0.05130395,-0.02319222,-0.1753787,-1.365917,-2.508479,0.2704121,1.503163,0.3038425,-0.004720892,0.03224008,0.003767945,-1.250275,0.5254712,0.1080695,0.436332,1.494108,0.2047877,-0.1042399,1.625791,0.2797037,308.5421,75.02523,177.3986,True
3,2.5,0.05691803,-0.1432962,-0.07698391,4.652299,-4.688599,-1.667042,0.1271498,1.407171,0.3652101,-1.172074,0.5103855,12.06897,26.63381,0.02153485,0.04173378,-0.008449771,-0.1757468,-1.364833,-2.510404,0.270036,1.50311,0.3036747,-0.0005819947,0.05888383,-0.005842553,-1.250527,0.5271158,0.1074202,0.4359946,1.494072,0.2046862,-0.1058012,1.624225,0.2793869,308.2976,75.19236,177.1995,True
3,2.511111,0.08704911,-0.2552328,-0.134195,4.659308,-4.691409,-1.669216,0.1267608,1.407622,0.3656914,-1.167369,0.4227659,12.36074,28.69081,0.03438832,0.04706748,0.002108011,-0.176379,-1.366259,-2.509685,0.2696829,1.503098,0.3035522,0.001383984,0.079137,-0.01969156,-1.250945,0.5287848,0.1068814,0.4356204,1.494118,0.2044837,-0.1076663,1.622756,0.2787878,307.8439,75.35182,176.924,True
3,2.522222,0.1022919,-0.3639477,-0.167943,4.666883,-4.693244,-1.671012,0.1263784,1.407955,0.3662302,-1.163317,0.3637285,12.7321,30.44783,0.06970574,0.04392812,0.02098295,-0.1772062,-1.366258,-2.511534,0.269107,1.503199,0.3033652,-0.004081385,0.07487985,-0.03349102,-1.251773,0.5295474,0.1068681,0.4352027,1.494156,0.2043245,-0.1098084,1.621445,0.2780064,307.3097,75.78839,176.3504,True
3,2.533333,0.07907387,-0.4343796,-0.1815389,4.674298,-4.695035,-1.671214,0.1260404,1.408289,0.3667004,-1.159227,0.3676811,13.18302,31.71202,0.09116458,0.05139656,0.04213088,-0.1785927,-1.365982,-2.513557,0.2685319,1.503324,0.3031478,-0.03615478,0.04716823,-0.04596065,-1.252657,0.529161,0.1085358,0.4346641,1.494203,0.2040272,-0.1120367,1.620096,0.2771907,306.8046,76.23959,175.7541,True
3,2.544444,0.05884811,-0.4344365,-0.1772348,4.67894,-4.695976,-1.671307,0.1256474,1.40837,0.3670583,-1.154139,0.4587422,13.71353,32.65481,0.08472639,0.07161745,0.04222161,-0.1797474,-1.371102,-2.509202,0.2679176,1.503294,0.3029866,-0.0573502,0.03862217,-0.03615726,-1.25262,0.5293952,0.1097007,0.4340025,1.494237,0.2038777,-0.1142721,1.618582,0.2763804,306.3144,76.89245,175.0369,True
3,2.555555,0.03420971,-0.3843702,-0.1517932,4.68156,-4.696534,-1.67082,0.1252592,1.408417,0.3672154,-1.147813,0.5713458,14.24403,33.46904,0.05245711,0.1259085,0.021287,-0.1813229,-1.38724,-2.492799,0.2673804,1.503232,0.3028398,-0.07276572,0.01299806,0.01618375,-1.250804,0.5283958,0.1113803,0.4334003,1.49434,0.2036841,-0.1164423,1.616842,0.2755755,305.8095,77.51865,174.3662,True
3,2.566666,0.0297741,-0.3235781,-0.1263956,4.682859,-4.69671,-1.671079,0.1248775,1.408589,0.3671644,-1.143069,0.4259692,14.74801,34.00471,0.02468546,0.1460828,0.01836357,-0.1828175,-1.396316,-2.483289,0.2670306,1.503225,0.3027465,-0.05173188,-0.01155514,0.09052198,-1.247486,0.5270131,0.1116352,0.4327633,1.494399,0.2035801,-0.1185356,1.615062,0.2747903,305.2291,78.0066,173.8137,True
3,2.577777,0.04035341,-0.3000925,-0.1222225,4.685464,-4.69766,-1.67193,0.1245302,1.408828,0.3672371,-1.13817,0.4416486,15.14589,34.02614,0.0238064,0.07895895,0.02037096,-0.1823019,-1.389028,-2.490693,0.2667583,1.503232,0.302669,-0.02688123,-0.02008522,0.1232825,-1.245058,0.526189,0.1113428,0.432195,1.494483,0.2033885,-0.1204901,1.61341,0.2741102,304.6613,78.23568,173.4726,True
3,2.588888,0.03598754,-0.2617044,-0.1042099,4.687314,-4.697771,-1.672364,0.1241474,1.409028,0.3671436,-1.134619,0.3181746,15.30504,33.08335,0.04975907,0.006537303,0.04450919,-0.1818758,-1.375272,-2.505639,0.2665356,1.503438,0.3026617,-0.002383944,-0.03071841,0.1219519,-1.244027,0.5253918,0.110812,0.4317788,1.494567,0.2032993,-0.1222837,1.61208,0.2735989,304.1418,78.24432,173.3822,True
3,2.599999,0.006052444,-0.23297,-0.08831469,4.688854,-4.6986,-1.670964,0.1241537,1.409387,0.3677204,-1.131025,0.3231401,15.51724,31.84058,0.07655974,-0.02856156,0.05486993,-0.181895,-1.367539,-2.514853,0.266151,1.5035,0.3024223,-0.01151001,-0.0370677,0.063447,-1.24538,0.5249053,0.1114195,0.4312857,1.494602,0.2031307,-0.123875,1.611116,0.2732579,303.7637,78.23421,173.3991,True
3,2.61111,-0.05382408,-0.1596022,-0.06822483,4.688083,-4.698751,-1.668304,0.1236624,1.409495,0.3677073,-1.126428,0.4146527,15.91512,31.43347,0.05637035,-0.01798011,0.06464309,-0.1827994,-1.364439,-2.5179,0.2656958,1.503518,0.3021851,-0.02919472,-0.03170199,0.002909383,-1.247356,0.5250289,0.1124253,0.4308195,1.494661,0.2028778,-0.1252397,1.610371,0.2730459,303.5616,78.38674,173.3145,True
3,2.622221,-0.09767348,-0.1000261,-0.04597745,4.687248,-4.698579,-1.665741,0.1229564,1.409923,0.3676744,-1.120349,0.5494337,16.25995,31.5406,0.02119759,0.03410878,0.07888366,-0.1851739,-1.370397,-2.511074,0.2652339,1.503571,0.301888,-0.03153718,-0.02955601,-0.01730565,-1.248167,0.5248672,0.1128927,0.4303408,1.494686,0.2027354,-0.1264019,1.609749,0.2729287,303.4075,78.50376,173.1976,True
3,2.633332,-0.09986695,-0.08085495,-0.04496992,4.687523,-4.698996,-1.664522,0.1225278,1.410294,0.3676281,-1.114913,0.4897468,16.49867,31.81916,-0.001150699,0.0659841,0.09191359,-0.1874423,-1.373706,-2.507039,0.2647925,1.503611,0.3016646,-0.009401543,-0.02419383,-0.03883547,-1.24919,0.5248827,0.1122871,0.4299095,1.494707,0.2025726,-0.1273963,1.609333,0.2730041,303.1974,78.59784,173.0153,True
3,2.644443,-0.088146,-0.08296943,-0.0545392,4.688734,-4.699545,-1.664352,0.1219231,1.410549,0.3674545,-1.111062,0.345616,16.7374,31.81916,-0.007693531,0.07026252,0.07493047,-0.1881097,-1.376392,-2.504162,0.2644295,1.503834,0.3014686,0.01400194,-0.009259384,-0.04119782,-1.24963,0.5253482,0.1111824,0.4293839,1.494882,0.2024736,-0.1283845,1.609357,0.273292,303.0797,78.45004,173.1585,True
3,2.655554,-0.06577928,-0.08827461,-0.07159758,4.690041,-4.700783,-1.664416,0.1216173,1.411048,0.367434,-1.108596,0.2201304,16.97613,31.69059,0.01917327,0.007458501,0.08417623,-0.1878503,-1.363547,-2.517868,0.2640501,1.504125,0.3012695,0.01501231,0.01737659,-0.04438196,-1.250092,0.526557,0.1105894,0.4288864,1.494993,0.2022619,-0.1293723,1.609824,0.2737097,303.0591,78.24752,173.4896,True
3,2.666665,-0.05513649,-0.09259717,-0.09606463,4.691615,-4.701962,-1.664336,0.1210784,1.41148,0.3667676,-1.105723,0.257953,17.18833,31.45489,0.0460423,-0.01169851,0.107354,-0.1890083,-1.353787,-2.528861,0.2636876,1.504273,0.3010499,0.0107891,0.02802064,-0.04006294,-1.25024,0.5271979,0.1104408,0.4283186,1.495071,0.2019539,-0.130187,1.61033,0.2741232,303.1877,78.23985,173.7262,True
3,2.677776,-0.0615313,-0.09262533,-0.09818645,4.692753,-4.703029,-1.663464,0.1206746,1.411862,0.3668492,-1.101722,0.3604994,17.37401,31.00492,0.06509765,0.01073974,0.09978858,-0.1902179,-1.355564,-2.528341,0.2632489,1.504514,0.3007879,-0.004988284,0.01201286,-0.02180136,-1.249869,0.526718,0.1112312,0.4278049,1.495169,0.2016449,-0.1309174,1.610598,0.274398,303.3997,78.36246,173.8026,True
3,2.688887,-0.09666121,-0.103424,-0.1076667,4.694215,-4.703943,-1.661191,0.1202504,1.412279,0.367063,-1.0971,0.416339,17.21485,30.12642,0.06403064,0.0181897,0.1019431,-0.1914504,-1.353914,-2.530637,0.2628253,1.504763,0.3005204,-0.02302499,-0.02209683,-0.01738728,-1.250178,0.5251893,0.1125526,0.4272376,1.495309,0.2014265,-0.131751,1.610568,0.2744844,303.5182,78.50679,173.8104,True
3,2.699998,-0.09769161,-0.119447,-0.1193277,4.696239,-4.70537,-1.66008,0.1198929,1.412757,0.367193,-1.09173,0.4842935,16.8435,28.90508,0.05440713,0.03307843,0.1020512,-0.1928459,-1.353752,-2.531069,0.2624445,1.505005,0.3002355,-0.03779665,-0.04235806,-0.00553371,-1.250045,0.5240728,0.1137007,0.4267041,1.4955,0.201087,-0.1328732,1.610255,0.2743037,303.5029,78.6447,173.78,True
3,2.711109,-0.08479515,-0.1620923,-0.1415668,4.699708,-4.707164,-1.659709,0.1196363,1.413342,0.3671327,-1.085715,0.5427628,16.44562,27.59803,0.04361401,0.07460612,0.09796184,-0.1948885,-1.360359,-2.524673,0.2621018,1.505196,0.299974,-0.03858501,-0.04238132,0.02110831,-1.249011,0.5234339,0.1143841,0.4262008,1.495632,0.2007442,-0.1342829,1.609682,0.273969,303.2483,78.80707,173.5185,True
3,2.72222,-0.07196087,-0.1833777,-0.1510989,4.70243,-4.708834,-1.65933,0.1194006,1.413905,0.3672583,-1.082211,0.312883,16.1008,26.16242,0.05008991,0.07247944,0.1074934,-0.1965684,-1.35892,-2.526914,0.2618042,1.505342,0.2996874,-0.02670917,-0.04451779,0.03589603,-1.248216,0.5227086,0.1144736,0.4257686,1.495701,0.2004037,-0.1359237,1.609028,0.273609,302.7851,78.99602,173.1863,True
3,2.733331,-0.04412134,-0.2377019,-0.1786638,4.70715,-4.711366,-1.659851,0.1191539,1.41454,0.3675225,-1.07861,0.3238029,15.80902,24.6411,0.081053,0.04486111,0.1071862,-0.1972816,-1.353534,-2.534123,0.2615993,1.505586,0.2994981,-0.0192205,-0.04771013,0.03901048,-1.247809,0.5220077,0.1146957,0.4252907,1.495867,0.2000847,-0.1376229,1.608333,0.2732992,302.2966,79.28519,172.8697,True
3,2.744442,-0.04302291,-0.2537097,-0.1871288,4.71066,1.569954,-1.659348,0.1189217,1.415028,0.3677375,-1.074197,0.3976274,15.67639,23.18406,0.1012415,0.02257164,0.09313829,-0.1976204,-1.349702,-2.53968,0.2612854,1.505805,0.2992802,-0.007547049,-0.05622442,0.03355253,-1.247799,0.5209871,0.1146858,0.424913,1.496063,0.199863,-0.1392573,1.607575,0.27303,301.8618,79.66603,172.5518,True
3,2.755553,-0.0558252,-0.2505775,-0.1935115,-1.569665,1.567861,-1.658298,0.1186763,1.415624,0.3679807,-1.070597,0.3227361,15.51724,21.59846,0.1118084,0.008780569,0.07810982,-0.1976587,-1.346982,-2.54396,0.2610014,1.506089,0.2990382,-0.008786086,-0.06047218,0.01651612,-1.248276,0.5201983,0.1150557,0.4244937,1.496234,0.1995277,-0.1407958,1.606794,0.2728377,301.4838,80.06198,172.1933,True
3,2.766664,-0.0600629,-0.2569835,-0.192443,-1.566472,1.565791,-1.657637,0.1187064,1.416473,0.3681793,-1.065222,0.4857761,15.33157,19.94857,0.1224647,0.01839299,0.08124131,-0.1989365,-1.346729,-2.545864,0.2606378,1.506385,0.2987552,-0.01521206,-0.06793966,0.01230282,-1.24855,0.5190633,0.1157711,0.4241183,1.496423,0.1991715,-0.1422482,1.605955,0.27274,301.1956,80.59689,171.6959,True
3,2.777775,-0.05885134,-0.267668,-0.1988183,-1.562649,1.563942,-1.656999,0.1185555,1.417058,0.3683972,-1.060207,0.4514439,15.11936,18.49153,0.1258314,0.02581047,0.1046665,-0.2008897,-1.343351,-2.550756,0.2603039,1.506706,0.2984517,-0.01950191,-0.07326698,0.009146872,-1.248683,0.5180197,0.1164672,0.423691,1.496554,0.1988232,-0.1436664,1.605141,0.272766,300.8909,80.98038,171.3276,True
3,2.788886,-0.0578617,-0.2495233,-0.1914313,-1.560412,1.561977,-1.656388,0.1181243,1.417477,0.3686748,-1.056294,0.3512816,14.88063,17.27019,0.1033856,0.0513237,0.1038284,-0.2025771,-1.346466,-2.547991,0.2599069,1.506958,0.2981427,-0.03118296,-0.074343,0.01246023,-1.24856,0.5171569,0.1174084,0.4231005,1.496675,0.1984146,-0.1450755,1.604517,0.2729378,300.5065,81.2609,171.099,True
3,2.799997,-0.05156261,-0.2324336,-0.1893635,-1.558488,1.560014,-1.655614,0.1182185,1.417794,0.3688188,-1.052286,0.3608538,14.64191,16.26312,0.09366119,0.0673005,0.09222461,-0.2038048,-1.3499,-2.545366,0.2596684,1.507262,0.2978625,-0.03222084,-0.08073743,0.01459636,-1.24846,0.5159484,0.1181985,0.4226618,1.49683,0.1980495,-0.1463432,1.604086,0.2732226,300.1391,81.60035,170.9037,True
3,2.811108,-0.04750655,-0.2057695,-0.1894481,-1.557196,1.557512,-1.655266,0.1178575,1.41813,0.3689408,-1.04838,0.3515944,14.42971,15.57746,0.09811158,0.07046051,0.1166926,-0.2060232,-1.347937,-2.548521,0.2595009,1.507589,0.2976432,-0.02271352,-0.08604547,0.005965764,-1.248881,0.5147925,0.118406,0.4221636,1.497088,0.1976879,-0.1474404,1.603769,0.2735576,299.9565,81.99887,170.6584,True
3,2.822219,-0.04965853,-0.1929864,-0.1873428,-1.555286,1.555869,-1.654527,0.1175196,1.418747,0.3690989,-1.044414,0.3571641,14.2175,15.17034,0.1110004,0.06088865,0.12722,-0.2077234,-1.344738,-2.553296,0.2592789,1.507835,0.2973869,-0.016354,-0.08710319,0.002702146,-1.249087,0.5137388,0.1187125,0.421836,1.497188,0.1973016,-0.1484199,1.603508,0.2739549,299.886,82.25968,170.483,True
3,2.83333,-0.05182327,-0.1834088,-0.188435,-1.553374,1.553871,-1.653857,0.1173821,1.419302,0.3692901,-1.041129,0.294958,14.08488,15.04178,0.1163461,0.03641152,0.1218,-0.2084451,-1.33985,-2.559586,0.2591716,1.508217,0.2971168,-0.02475192,-0.1116161,0.01235491,-1.248907,0.5116393,0.1198609,0.4214593,1.497278,0.1969697,-0.1492355,1.6032,0.2744137,299.8111,82.46606,170.373,True
3,2.844441,-0.05611756,-0.1674399,-0.1884777,-1.551873,1.551996,-1.653051,0.117103,1.420007,0.3696468,-1.037166,0.357449,14.00531,15.32033,0.1270604,0.02897304,0.1270256,-0.2098683,-1.336347,-2.564728,0.2589174,1.508623,0.2968981,-0.03003456,-0.1212101,0.0155944,-1.248853,0.5099071,0.1208761,0.4211126,1.497489,0.196573,-0.1501415,1.602981,0.2749384,299.7629,82.68575,170.2625,True
3,2.855552,-0.06676807,-0.1717632,-0.1969713,-1.549624,1.549691,-1.651885,0.1169394,1.420585,0.3698878,-1.0338,0.302585,13.97878,15.51318,0.1322265,0.01731637,0.1035226,-0.2100648,-1.334503,-2.56824,0.2586198,1.509018,0.2965934,-0.04710054,-0.1212223,0.01364117,-1.248906,0.5084344,0.1224199,0.4207319,1.497642,0.1961851,-0.1511675,1.602866,0.2754741,299.6308,82.87738,170.2121,True
3,2.866663,-0.07849149,-0.1771789,-0.2107759,-1.547117,1.547229,-1.650441,0.116729,1.421189,0.3701997,-1.030488,0.2983864,13.8992,15.53461,0.1117859,0.04074088,0.08562399,-0.2110486,-1.338899,-2.564558,0.2582344,1.509434,0.2962029,-0.06945026,-0.1233668,0.01600483,-1.24883,0.5070449,0.1243696,0.42039,1.497855,0.1958241,-0.1522114,1.602791,0.2759964,299.4362,83.12704,170.0881,True
3,2.877774,-0.06988686,-0.1974253,-0.2193063,-1.54374,1.54397,-1.650122,0.1169733,1.422242,0.3703592,-1.027372,0.2808186,13.7931,15.42747,0.09357294,0.0854307,0.08692996,-0.2132595,-1.345393,-2.558719,0.2580285,1.509706,0.2958367,-0.07801148,-0.1159141,0.01290407,-1.248929,0.5059256,0.12589,0.4200201,1.498012,0.1954467,-0.1532555,1.602803,0.2765273,299.2287,83.39766,169.9111,True
3,2.888885,-0.04745194,-0.2176368,-0.2320969,-1.540269,1.540714,-1.650434,0.1169347,1.42314,0.3706224,-1.024733,0.2376208,13.63395,15.17034,0.0914572,0.1173643,0.09872961,-0.2158316,-1.350824,-2.554404,0.2577836,1.510062,0.2955554,-0.07900725,-0.103139,0.02039191,-1.248392,0.5050679,0.1269867,0.4196514,1.498154,0.1950433,-0.1541854,1.602847,0.2770621,299.0513,83.76057,169.6689,True
3,2.899997,-0.03145594,-0.2261314,-0.2384753,-1.537202,1.538239,-1.650432,0.1168559,1.423856,0.3709207,-1.023855,0.0772079,13.3687,14.7418,0.1194874,0.1184165,0.1400526,-0.2190887,-1.34831,-2.559159,0.2576257,1.510534,0.2952545,-0.0706288,-0.09246898,0.007525161,-1.248848,0.5043842,0.127713,0.4193146,1.4983,0.1946776,-0.1549664,1.602992,0.2775937,298.8452,84.18268,169.3895,True
3,2.911108,-0.02715361,-0.2335641,-0.2331675,-1.533992,1.53559,-1.650424,0.1168172,1.424435,0.3711982,-1.022833,0.09187447,13.07692,14.44182,0.1504462,0.09079936,0.1397344,-0.220237,-1.34468,-2.565433,0.2574201,1.51095,0.2951107,-0.06757877,-0.08819436,-0.006354496,-1.249554,0.503544,0.1285961,0.4188734,1.498448,0.1942518,-0.1555316,1.603271,0.2781071,298.6599,84.76447,168.9829,True
3,2.922219,-0.04739324,-0.233637,-0.2363282,-1.53128,1.533128,-1.649026,0.1165675,1.424638,0.3715258,-1.020951,0.1702893,12.81167,14.24898,0.1778415,0.08563179,0.1000837,-0.2203926,-1.348698,-2.564416,0.2572245,1.511281,0.2947812,-0.07515538,-0.0924505,-0.01799948,-1.250324,0.5023732,0.1301146,0.4184891,1.498715,0.1937592,-0.1559461,1.60363,0.2786193,298.649,85.34995,168.524,True
3,2.93333,-0.05488817,-0.2208505,-0.2278349,-1.529153,1.531047,-1.648091,0.1165219,1.425157,0.3717391,-1.019506,0.129841,12.65252,14.22755,0.1777863,0.08351639,0.09262256,-0.2214983,-1.350124,-2.564989,0.257067,1.511595,0.2945106,-0.07170547,-0.1190991,0.004314657,-1.249819,0.4999925,0.1315404,0.4181046,1.498917,0.193347,-0.156261,1.60397,0.2791246,298.7366,85.77418,168.1953,True
3,2.944441,-0.0549075,-0.2134153,-0.2300171,-1.526574,1.528312,-1.647403,0.1166363,1.425842,0.3718874,-1.016951,0.2318924,12.62599,14.52753,0.1586245,0.07495667,0.09168722,-0.2226552,-1.350401,-2.565781,0.2568327,1.511922,0.2941089,-0.06950037,-0.1265606,0.01068057,-1.249639,0.4982212,0.1327524,0.4177637,1.499058,0.1929331,-0.1565352,1.604188,0.2796086,298.8803,86.19552,167.8718,True
3,2.955552,-0.04634752,-0.2272558,-0.2363773,-1.523406,1.525723,-1.64706,0.1166373,1.426576,0.3721564,-1.016328,0.0545195,12.75862,15.32033,0.1470704,0.07169166,0.1109504,-0.2245663,-1.348467,-2.568847,0.2567289,1.512326,0.2937434,-0.06925148,-0.1521422,0.03303774,-1.248904,0.4957033,0.1342521,0.417325,1.499154,0.1924615,-0.1568663,1.604321,0.2800753,298.9348,86.5437,167.6026,True
3,2.966663,-0.02399499,-0.2602586,-0.2544067,-1.519324,1.522507,-1.647336,0.1166511,1.427427,0.3724294,-1.015897,0.03862472,13.02387,16.62738,0.1759676,0.08237912,0.1309737,-0.2270254,-1.348364,-2.571859,0.2566493,1.512705,0.2933848,-0.07138323,-0.1532093,0.03305494,-1.248683,0.4936801,0.1358782,0.4168801,1.499303,0.1919527,-0.1572487,1.604495,0.2805109,298.8242,86.85343,167.4003,True
3,2.977774,0.0007840805,-0.3039427,-0.2798575,-1.513987,1.51948,-1.647844,0.1164778,1.428091,0.3728065,-1.015587,0.02762779,13.3687,18.42726,0.1951781,0.09519503,0.1393667,-0.2292982,-1.349766,-2.573257,0.2564911,1.513186,0.2929339,-0.07147026,-0.1414847,0.02560825,-1.248832,0.492494,0.1370465,0.4165335,1.499443,0.1914644,-0.1576257,1.604763,0.2809115,298.6653,87.31643,167.0706,True
3,2.988885,0.02001717,-0.3177453,-0.2820179,-1.509463,1.516012,-1.648637,0.116696,1.42905,0.373019,-1.015633,-0.004809259,13.76658,20.65567,0.1962621,0.1111602,0.1468468,-0.2317701,-1.351697,-2.573503,0.2562748,1.513619,0.2925963,-0.07054872,-0.1127085,0.01389979,-1.249172,0.4924677,0.13776,0.4162782,1.499573,0.1909111,-0.1579828,1.605138,0.2812839,298.5806,87.90119,166.6036,True
3,2.999996,0.03380451,-0.2984992,-0.2746387,-1.50664,1.513453,-1.649313,0.1166812,1.429743,0.3732059,-1.015314,0.02877101,14.11141,23.01264,0.1866597,0.1271076,0.1501545,-0.2342959,-1.354608,-2.572358,0.2560147,1.51419,0.2921422,-0.09102069,-0.1148357,-0.008263454,-1.250196,0.4912709,0.1398066,0.4158518,1.499842,0.1903515,-0.1583212,1.605532,0.281639,298.6312,88.61735,165.9999,True
3,3.011107,0.03160002,-0.2729148,-0.2715637,-1.504384,1.510106,-1.648847,0.1172148,1.430453,0.3733628,-1.015063,0.02233298,14.32361,25.79816,0.1642368,0.1440986,0.149299,-0.2367827,-1.358933,-2.569261,0.2556835,1.51461,0.2916915,-0.1154557,-0.1404257,-0.00376831,-1.250399,0.4886433,0.1427452,0.4155081,1.499984,0.1898336,-0.1586652,1.60581,0.2819695,298.7192,89.34178,165.3786,True
3,3.022218,0.02306962,-0.2601508,-0.268387,-1.501727,1.507594,-1.648767,0.1167176,1.430946,0.3736238,-1.014387,0.0612733,14.48276,28.45511,0.150218,0.1494284,0.1302481,-0.2383982,-1.363531,-2.565937,0.2555249,1.515037,0.2912388,-0.1535115,-0.1660414,0.02217847,-1.249578,0.4857293,0.1465245,0.4150697,1.5002,0.1893551,-0.1590283,1.605979,0.2822999,298.6942,89.96227,164.8425,True
3,3.033329,0.01533354,-0.2420427,-0.2609928,-1.499865,1.504641,-1.648474,0.1167982,1.431544,0.3736653,-1.012836,0.1410115,14.64191,30.72638,0.1765975,0.1644627,0.1034285,-0.2397969,-1.371104,-2.561452,0.2554025,1.515676,0.2908354,-0.153263,-0.1447569,0.04776219,-1.248302,0.4845333,0.1486467,0.4146235,1.500414,0.1887956,-0.1594001,1.60605,0.2826738,298.5763,90.36535,164.5002,True
3,3.04444,0.03237108,-0.2281268,-0.2600113,-1.497422,1.501745,-1.648595,0.1174081,1.432244,0.3736856,-1.012731,0.008280094,14.80106,32.39768,0.1797013,0.1698153,0.09383047,-0.2416446,-1.376276,-2.558583,0.2552563,1.516408,0.2903047,-0.1200653,-0.1159825,0.06554468,-1.247228,0.4840634,0.1488246,0.4141861,1.500777,0.1882069,-0.1597428,1.606125,0.2831362,298.4246,90.81278,164.1422,True
3,3.055551,0.06536575,-0.2098833,-0.252654,-1.495462,1.499365,-1.650274,0.1175635,1.432958,0.3736241,-1.012352,0.03455241,14.93369,33.27619,0.1636218,0.1719285,0.08224674,-0.243136,-1.382099,-2.554194,0.2551609,1.517153,0.2897475,-0.1041204,-0.1212978,0.06111437,-1.246893,0.4822729,0.1499671,0.4138957,1.501064,0.1876166,-0.160245,1.60635,0.283673,298.4069,91.20769,163.8704,True
3,3.066662,0.1058407,-0.2001242,-0.2410127,-1.493328,1.497293,-1.652715,0.1170057,1.433575,0.3737037,-1.01254,-0.01764525,15.03979,33.31905,0.1669979,0.1665737,0.1024514,-0.2457112,-1.383689,-2.554668,0.2550401,1.517791,0.2891233,-0.1094862,-0.1223615,0.05690118,-1.24676,0.4807195,0.151859,0.4135941,1.501367,0.186944,-0.1606605,1.606593,0.2842637,298.2802,91.5363,163.7159,True
3,3.077773,0.1207015,-0.180888,-0.2378952,-1.491733,1.494869,-1.654407,0.1170449,1.434231,0.373636,-1.013862,-0.1208527,15.11936,32.89051,0.1692595,0.1559004,0.1151954,-0.2479201,-1.384491,-2.555888,0.2548755,1.518511,0.2885063,-0.122213,-0.1213127,0.06236138,-1.246085,0.479182,0.154143,0.4132455,1.501633,0.1862938,-0.1608072,1.606808,0.2848582,298.1062,91.92291,163.553,True
3,3.088884,0.1174155,-0.1510333,-0.2273095,-1.490926,1.493026,-1.655276,0.1167127,1.434784,0.373565,-1.014423,-0.05047911,15.19894,32.07628,0.1362875,0.1558062,0.1218498,-0.2501411,-1.38664,-2.55426,0.2545488,1.519359,0.2878873,-0.1413092,-0.1266648,0.07000956,-1.245342,0.477304,0.1569673,0.4129458,1.501989,0.1855302,-0.1609351,1.607114,0.2853968,298.1613,92.241,163.4369,True
3,3.099995,0.1098969,-0.1318604,-0.2177601,-1.489829,1.491206,-1.655893,0.1166615,1.435349,0.3735025,-1.013131,0.1177602,15.25199,30.87637,0.09769036,0.1877075,0.101988,-0.2522695,-1.396039,-2.544934,0.2542625,1.520126,0.2872338,-0.1795419,-0.1586644,0.07890178,-1.244659,0.4741616,0.1611822,0.412733,1.502365,0.1848509,-0.1613171,1.607427,0.285852,298.3804,92.43945,163.3681,True
3,3.111106,0.1067283,-0.1360966,-0.2070776,-1.488147,1.489589,-1.656787,0.1166255,1.436029,0.3733828,-1.011364,0.1598284,15.19894,29.84787,0.0688844,0.2334239,0.1108358,-0.2558201,-1.406323,-2.534788,0.2539388,1.520785,0.2865601,-0.2188614,-0.1810698,0.08567316,-1.244076,0.4712083,0.1656103,0.4123994,1.502769,0.1840646,-0.1619096,1.607563,0.2862369,298.4553,92.62067,163.2787,True
3,3.122217,0.1099958,-0.1659445,-0.2165657,-1.485179,1.487267,-1.657742,0.1167133,1.436805,0.3732858,-1.009991,0.1233272,15.11936,28.81937,0.07414381,0.2483595,0.1076276,-0.2585903,-1.41413,-2.528277,0.253628,1.521445,0.2859273,-0.2261834,-0.1736283,0.09960351,-1.242856,0.4692703,0.1689651,0.4120126,1.503145,0.1833992,-0.1627539,1.607552,0.286569,298.3564,92.77587,163.1995,True
3,3.133328,0.1271997,-0.2224119,-0.2366523,-1.480672,1.484389,-1.659425,0.1166359,1.437642,0.3732884,-1.008981,0.09035797,15.01326,27.83372,0.06762761,0.2505063,0.09276317,-0.2605344,-1.422038,-2.521236,0.2533028,1.522106,0.285362,-0.2213809,-0.1523617,0.152836,-1.239619,0.4678052,0.1715515,0.4116116,1.503458,0.1827514,-0.1636751,1.607361,0.286845,298.0954,93.00982,163.0695,True
3,3.144439,0.1369004,-0.2628877,-0.2450543,-1.476394,1.481931,-1.660925,0.1167497,1.438555,0.3732877,-1.007644,0.1202494,14.96021,27.12664,0.0560253,0.2355375,0.1024116,-0.2628471,-1.424917,-2.518658,0.2530473,1.522909,0.2847624,-0.2084973,-0.1353195,0.163371,-1.237645,0.46644,0.1737619,0.4113037,1.503787,0.1821179,-0.164591,1.607042,0.2870311,297.7849,93.38497,162.8324,True
3,3.15555,0.1593674,-0.3161291,-0.2566584,-1.470934,1.479076,-1.663193,0.1166878,1.439446,0.3733072,-1.006699,0.0841046,14.96021,26.52667,0.06559396,0.2089513,0.09162673,-0.2641829,-1.427895,-2.516831,0.2527484,1.523762,0.2840378,-0.18004,-0.1171715,0.1343094,-1.237585,0.4654399,0.1749404,0.4110681,1.504176,0.1814241,-0.1654731,1.606636,0.2871169,297.5252,94.0183,162.3322,True
3,3.166661,0.1745262,-0.3640385,-0.271395,-1.46509,1.47647,-1.665268,0.1166453,1.44029,0.3733563,-1.004476,0.200912,14.96021,25.84101,0.06685154,0.2025196,0.1129126,-0.2669872,-1.429918,-2.515729,0.2523612,1.52462,0.2831748,-0.1718349,-0.09902897,0.1044004,-1.237639,0.4648679,0.17668,0.4107668,1.504658,0.1807225,-0.1663742,1.60615,0.2871341,297.3536,94.81163,161.6153,True
3,3.177772,0.1809988,-0.3949498,-0.2819586,-1.459314,1.473511,-1.667216,0.1166303,1.441053,0.3734033,-1.002852,0.1448447,14.98674,24.8768,0.05722068,0.2195396,0.1130254,-0.2698176,-1.436329,-2.509876,0.2519958,1.525297,0.282382,-0.1712371,-0.06384209,0.06180698,-1.238349,0.4654316,0.1783607,0.4105671,1.505001,0.1800375,-0.1673088,1.605581,0.2871232,297.1739,95.56275,160.9084,True
3,3.188883,0.1832504,-0.4300814,-0.2765188,-1.453313,1.471258,-1.669069,0.1165393,1.441718,0.3734009,-1.000053,0.2527052,15.03979,23.59117,0.03054864,0.2631351,0.1218517,-0.2736904,-1.446384,-2.49961,0.2515271,1.52578,0.2815082,-0.1725209,-0.04571228,0.04266505,-1.238321,0.4655349,0.1804079,0.4103011,1.505199,0.1794415,-0.1683431,1.604878,0.2871039,297.047,96.38379,160.1526,True
3,3.199994,0.1726679,-0.4503274,-0.2668462,-1.447504,1.469192,-1.670348,0.1164225,1.442354,0.3733642,-0.9970566,0.2696522,15.09284,22.13413,0.01892516,0.2747908,0.1379542,-0.2774891,-1.451691,-2.494307,0.2511116,1.526273,0.2807655,-0.1670861,-0.04039132,0.05326959,-1.237404,0.4650226,0.1822273,0.4099739,1.505533,0.1787097,-0.1694957,1.603969,0.2870888,296.8887,97.24066,159.3661,True
3,3.211105,0.1567082,-0.450334,-0.2519106,-1.44228,1.467384,-1.671315,0.1162827,1.442813,0.3733737,-0.993848,0.28895,15.06631,20.86994,0.001659691,0.2705433,0.1093174,-0.279356,-1.459235,-2.48654,0.2507371,1.526638,0.2801578,-0.1538726,-0.06385425,0.09360585,-1.235215,0.4629676,0.1843057,0.4095832,1.505805,0.1780221,-0.1707698,1.602834,0.2871036,296.6662,98.12167,158.5618,True
3,3.222216,0.1385801,-0.4396655,-0.2263406,-1.437635,1.466249,-1.671943,0.1161019,1.443258,0.3732276,-0.9901004,0.337973,14.93369,19.88429,0.00669612,0.249339,0.06661624,-0.2799653,-1.466976,-2.479374,0.2504229,1.527124,0.2795453,-0.1450493,-0.08304568,0.1211955,-1.233314,0.4609099,0.1863243,0.4092735,1.506109,0.1773055,-0.1721629,1.601491,0.2871228,296.3726,98.96893,157.8206,True
3,3.233327,0.1684091,-0.432045,-0.2061646,-1.432986,1.465095,-1.674578,0.1159868,1.443625,0.3730164,-0.9864924,0.3247977,14.74801,19.00578,0.03210604,0.1642786,0.02042355,-0.2782668,-1.467244,-2.480311,0.2501215,1.527617,0.2789876,-0.1382652,-0.09905016,0.1584018,-1.230674,0.4586588,0.1884658,0.4089672,1.506399,0.1765356,-0.1736565,1.600014,0.2871097,296.0049,99.81669,157.081,True
3,3.244438,0.1971217,-0.41917,-0.2073044,-1.428557,1.46319,-1.677376,0.1158768,1.444021,0.3727965,-0.9827794,0.3345372,14.53581,18.19156,0.04468846,0.143073,-0.01061343,-0.2782769,-1.472462,-2.476088,0.2496707,1.527904,0.278337,-0.1456877,-0.09053636,0.1627439,-1.228953,0.4575916,0.1907399,0.4086269,1.506659,0.1758044,-0.1751579,1.598645,0.2869987,295.6807,100.7503,156.2444,True
3,3.255549,0.2204546,-0.3839037,-0.1967949,-1.425299,1.461728,-1.680423,0.1158457,1.444193,0.3724718,-0.9814963,0.1123777,14.35013,17.37733,0.03492885,0.149479,-0.02969708,-0.2786956,-1.479881,-2.469033,0.2493623,1.528176,0.2776942,-0.1528405,-0.07245983,0.1937322,-1.225946,0.4569004,0.1930422,0.4083692,1.506838,0.1750908,-0.1758695,1.598022,0.2865607,295.5874,102.6301,154.7024,True
3,3.26666,0.238485,-0.3517953,-0.1692167,-1.42242,1.461154,-1.683326,0.1157421,1.444364,0.3720932,-0.9786627,0.2559609,14.16445,16.82023,0.01387355,0.1536258,0.002445087,-0.2808538,-1.483015,-2.465449,0.2489818,1.528421,0.2769773,-0.1230189,-0.08521853,0.1923519,-1.224058,0.4550139,0.1941362,0.4081654,1.507001,0.1742501,-0.1758832,1.597752,0.2861256,295.9705,104.0017,153.5541,True
3,3.277771,0.2373508,-0.322972,-0.1490663,-1.419716,1.460481,-1.685828,0.1155239,1.44439,0.3717692,-0.975484,0.286087,13.92573,16.28455,0.003390513,0.1482329,0.02169535,-0.282481,-1.485088,-2.463143,0.2486157,1.528631,0.2763114,-0.1040212,-0.08306105,0.1751091,-1.222932,0.4537955,0.1950619,0.4079187,1.507162,0.1735356,-0.1755854,1.597706,0.2858398,296.4594,104.6722,152.9926,True
3,3.288882,0.2083759,-0.2376587,-0.0896299,-1.419858,1.461581,-1.687166,0.115322,1.444015,0.3712499,-0.9718482,0.3276753,13.687,15.62031,-0.02141444,0.1695373,-0.008956708,-0.2831478,-1.494988,-2.452624,0.2483291,1.528741,0.2756586,-0.1033609,-0.08089356,0.1367608,-1.22271,0.4529432,0.1966276,0.4077932,1.507322,0.1727989,-0.1751774,1.597725,0.2856857,296.9832,104.9038,152.8599,True
3,3.299993,0.2050606,-0.1949925,-0.0673813,-1.418988,1.461752,-1.689238,0.1151561,1.443787,0.3707814,-0.9681187,0.3360353,13.4748,14.59181,-0.0450386,0.1908139,-0.02576385,-0.2843324,-1.504224,-2.442574,0.2480011,1.5288,0.2750628,-0.1153148,-0.09047313,0.1134339,-1.222535,0.4514544,0.1988364,0.4075665,1.50744,0.1721692,-0.1748064,1.597766,0.2855763,297.4716,105.1397,152.7958,True
3,3.311104,0.2155395,-0.1287825,-0.02925383,-1.419697,1.462509,-1.692033,0.11506,1.443406,0.3702495,-0.9635775,0.4104528,13.18302,13.49904,-0.0515596,0.1940235,-0.04061899,-0.2850626,-1.512649,-2.433683,0.2476244,1.528888,0.2744207,-0.1229248,-0.08939725,0.1007437,-1.221769,0.450318,0.2011552,0.4072862,1.507517,0.1717129,-0.1744521,1.597805,0.2854414,297.9417,105.4026,152.7067,True
3,3.322215,0.2229924,-0.1148796,-0.01337294,-1.418225,1.462287,-1.695014,0.115429,1.443656,0.3694906,-0.9614587,0.1884944,12.83819,12.57767,-0.06009297,0.2184904,-0.03410776,-0.2870952,-1.521805,-2.423931,0.247227,1.528901,0.2738397,-0.1142438,-0.06490501,0.1177198,-1.219904,0.4499922,0.2022391,0.4069818,1.50759,0.171164,-0.1741602,1.597814,0.2853014,298.3714,105.8236,152.5416,True
3,3.333326,0.2304431,-0.1073538,0.0004422124,-1.41735,1.462887,-1.697913,0.1152769,1.443377,0.3689296,-0.9597223,0.1559319,12.44032,11.8063,-0.06770709,0.2110591,-0.05537035,-0.2875452,-1.530459,-2.414598,0.246748,1.528858,0.273273,-0.09604135,-0.04466006,0.130352,-1.217676,0.449766,0.2030285,0.4066845,1.507662,0.1704609,-0.1738987,1.597814,0.285153,298.7725,106.2666,152.3489,True
3,3.344437,0.2357528,-0.09239875,0.01634109,-1.416353,1.463309,-1.700906,0.1149087,1.443026,0.368243,-0.9579263,0.16161,12.01592,11.20634,-0.07864693,0.1791648,-0.1022303,-0.2860283,-1.539032,-2.405158,0.2464891,1.528895,0.2727468,-0.07149968,-0.0105577,0.1375887,-1.215647,0.4504288,0.2028666,0.4062635,1.507741,0.1698189,-0.1736619,1.597786,0.2849974,299.1673,106.7127,152.136,True
3,3.355548,0.2357232,-0.07743278,0.03441152,-1.416068,1.464455,-1.703627,0.1145662,1.442766,0.3676276,-0.9558122,0.1907907,11.59151,10.73495,-0.06163973,0.160054,-0.1119788,-0.2857359,-1.545684,-2.398691,0.2460493,1.528903,0.2721248,-0.0566189,0.002239831,0.1363873,-1.214011,0.4505489,0.2031531,0.4059709,1.507721,0.1692839,-0.1734967,1.597749,0.2848116,299.492,107.2694,151.8184,True
3,3.366659,0.2282563,-0.06889568,0.04505061,-1.415716,1.465433,-1.706151,0.1139257,1.441912,0.3671196,-0.9542261,0.1424721,11.16711,10.5421,-0.05626631,0.1536744,-0.1088365,-0.2861178,-1.552325,-2.391939,0.2456331,1.528875,0.2714334,-0.04389643,0.002257988,0.1330801,-1.212377,0.4502071,0.2037217,0.4055797,1.507807,0.1684785,-0.173254,1.597727,0.2845908,299.9169,107.8898,151.4873,True
3,3.37777,0.2122423,-0.05613062,0.0578233,-1.415587,1.466639,-1.70806,0.113719,1.441483,0.3665211,-0.9524226,0.1629227,10.82228,10.62781,-0.06364115,0.1589567,-0.09704593,-0.2869119,-1.558962,-2.384607,0.2452086,1.528747,0.2707784,-0.05027837,-0.009467082,0.1331345,-1.211066,0.449318,0.2048056,0.4052458,1.507802,0.1678309,-0.1729331,1.597709,0.2843678,300.3654,108.4364,151.3362,True
3,3.388881,0.2015916,-0.05508742,0.06209558,-1.415122,1.467569,-1.710112,0.113468,1.441089,0.3659244,-0.951001,0.1279045,10.55703,10.94922,-0.07314242,0.1823349,-0.07881469,-0.2886584,-1.56715,-2.375582,0.2447592,1.528585,0.2701793,-0.05982184,-0.01586564,0.1385638,-1.209278,0.4485449,0.2063465,0.4048485,1.507755,0.1671467,-0.1726154,1.597659,0.2841199,300.829,109.0264,151.076,True
3,3.399992,0.1845763,-0.06473905,0.06001797,-1.41415,1.468341,-1.711696,0.1132055,1.440692,0.3653357,-0.9493477,0.1495958,10.45093,11.20634,-0.07837355,0.1950712,-0.062763,-0.2904246,-1.574082,-2.367881,0.2443383,1.528389,0.2695179,-0.05444229,-0.02438881,0.1427646,-1.207646,0.4475589,0.2070781,0.4044092,1.507716,0.1665502,-0.1721925,1.597603,0.2838413,301.39,109.5401,150.8517,True
3,3.411103,0.1739634,-0.07648666,0.06114928,-1.413051,1.469392,-1.713467,0.1124372,1.439798,0.3649189,-0.9486622,0.06098408,10.39788,11.35633,-0.08995198,0.1886205,-0.04776435,-0.2916774,-1.578753,-2.362062,0.2439652,1.528149,0.2689013,-0.04690139,-0.01906008,0.1522826,-1.20564,0.4471482,0.2076083,0.4040527,1.507768,0.1658766,-0.175381,1.594278,0.2830544,300.4803,100.2133,158.7103,True
3,3.422215,0.1718519,-0.08609921,0.05693329,-1.411808,1.470243,-1.715378,0.1121562,1.43927,0.3643925,-0.9475921,0.09705136,10.3183,11.37776,-0.09953868,0.1875292,-0.04768489,-0.2927602,-1.58491,-2.354699,0.2436062,1.527973,0.2683113,-0.0265381,-0.01160335,0.1637988,-1.203399,0.4466941,0.2072696,0.4037102,1.507675,0.1653118,-0.1727733,1.596628,0.2804461,300.9486,105.0165,154.3117,True
