loc,t,aDotS,bDotS,gDotS,aS,bS,gS,xS,yS,zS,qE,qDotE,emgA,emgB,aDotSH,bDotSH,gDotSH,aSH,bSH,gSH,xSH,ySH,zSH,aDotUB,bDotUB,gDotUB,aUB,bUB,gUB,xUB,yUB,zUB,xHand,yHand,zHand,aHand,bHand,gHand,enable
4,0,1.003924,-0.2131161,0.6338089,-1.505798,-4.55668,-2.598697,0.338798,1.248925,0.536963,-0.968083,-0.2592615,18.19629,13.04907,-0.4566447,0.6353009,-0.5278472,-0.5642583,-3.30327,-0.7457208,0.3680689,1.440411,0.4750655,-0.0822345,0.6066609,0.5932015,-0.9544705,0.4302434,-0.08156943,0.5251305,1.503745,0.330595,0.04784813,1.126657,0.4159797,296.5393,273.3569,336.4413,True
4,0.01111111,0.964524,-0.242222,0.5785764,-1.507618,-4.55113,-2.608566,0.3388212,1.248095,0.5356653,-0.969935,-0.1651688,18.03714,13.00621,-0.4477232,0.6490552,-0.4724969,-0.571908,-3.297415,-0.7460771,0.3665085,1.439796,0.4741271,-0.1150436,0.5895628,0.6137713,-0.9473562,0.438504,-0.08395482,0.5239983,1.5041,0.3304193,0.04881327,1.124141,0.412406,295.8283,267.055,342.2635,True
4,0.02222222,0.90488,-0.289691,0.481939,-1.507266,-4.54549,-2.617321,0.338657,1.247775,0.5345969,-0.97346,-0.3195018,17.79841,13.02764,-0.3978568,0.6233832,-0.3674639,-0.5762932,-3.290066,-0.7496002,0.3651679,1.439481,0.4731374,-0.08458132,0.6013502,0.574046,-0.9429992,0.4478417,-0.08948833,0.5229984,1.504473,0.3302264,0.05044933,1.121,0.4082078,296.3737,265.397,343.1035,True
4,0.03333334,0.8644056,-0.3188006,0.4267177,-1.507626,-4.540123,-2.625959,0.3385295,1.24706,0.5334747,-0.9750621,-0.1424275,17.58621,13.02764,-0.3684835,0.589233,-0.3017119,-0.5807875,-3.284597,-0.7512817,0.3638923,1.43908,0.4722524,-0.0435462,0.5939758,0.5246118,-0.9394919,0.4562018,-0.09540695,0.522001,1.504796,0.3300536,0.05271824,1.117309,0.4037326,297.1939,265.075,342.4255,True
4,0.04444445,0.7652881,-0.3364409,0.3598248,-1.506935,-4.535479,-2.631463,0.3383273,1.246724,0.5325191,-0.9757279,-0.05870547,17.32096,13.02764,-0.3195902,0.4794531,-0.2128052,-0.5816344,-3.281469,-0.7519262,0.3629684,1.439028,0.4712138,-0.01567465,0.5493488,0.4358568,-0.9382002,0.4619735,-0.09958838,0.5211155,1.505029,0.3297927,0.05427161,1.114673,0.4005899,296.8819,262.8434,344.5222,True
4,0.05555556,0.6586917,-0.3359332,0.3184745,-1.507362,-4.530698,-2.635991,0.3379115,1.246284,0.531584,-0.97719,-0.1321913,17.00265,13.04907,-0.286243,0.4293976,-0.1854642,-0.5846539,-3.278842,-0.7519379,0.3618835,1.43869,0.4703288,-0.02498209,0.499353,0.3570644,-0.9371504,0.4668495,-0.1016736,0.5204014,1.505238,0.3293214,0.055303,1.113928,0.3990604,296.1967,260.0621,347.679,True
4,0.06666667,0.554181,-0.3204509,0.284496,-1.507675,-4.526977,-2.63904,0.3374915,1.245993,0.5307341,-0.9756948,0.1387336,16.65783,13.04907,-0.2466366,0.3783539,-0.1805091,-0.5875141,-3.277405,-0.7520567,0.3609751,1.438692,0.4696033,-0.04248926,0.4354771,0.3070987,-0.9356292,0.4705301,-0.1027213,0.5197587,1.505469,0.3288689,0.0559398,1.113526,0.3986688,295.7801,260.4193,347.7383,True
4,0.07777778,0.4592691,-0.3081712,0.2430395,-1.507415,-4.523608,-2.641747,0.3370382,1.245917,0.5298395,-0.9759985,-0.02797136,16.23342,13.02764,-0.2041048,0.3571788,-0.1968533,-0.5917549,-3.276485,-0.7519001,0.3602758,1.438666,0.468791,-0.04468209,0.3843458,0.2974749,-0.9329287,0.4738877,-0.1041232,0.5190927,1.505622,0.3284442,0.05627337,1.113239,0.3986321,295.5678,261.5183,347.0136,True
4,0.08888889,0.3995741,-0.3095532,0.2154341,-1.506967,-4.519805,-2.644695,0.3364778,1.245685,0.5287578,-0.9761369,-0.01124596,15.72944,13.00621,-0.1898736,0.3209215,-0.158678,-0.5938284,-3.273742,-0.7525135,0.3596652,1.438663,0.4679837,-0.05240038,0.320456,0.2665918,-0.9311599,0.4758114,-0.1044878,0.5185846,1.505763,0.3280237,0.05643695,1.113041,0.3984489,295.5137,262.0793,346.7569,True
4,0.1,0.3174865,-0.3164211,0.1719196,-1.505428,-4.515963,-2.645798,0.335722,1.245875,0.5279281,-0.977272,-0.1026397,15.19894,12.96336,-0.1710782,0.2728701,-0.08328364,-0.5937688,-3.269917,-0.7542546,0.3590393,1.438611,0.4672709,-0.05929685,0.2555256,0.2133302,-0.9305218,0.476758,-0.1040761,0.5181366,1.505846,0.3274817,0.05650946,1.112954,0.3980014,295.5399,261.8371,347.2544,True
4,0.1111111,0.2641574,-0.3092346,0.1485439,-1.504757,-4.512722,-2.64727,0.3350419,1.245911,0.5271668,-0.9789295,-0.1497278,14.88063,12.9205,-0.1397771,0.2366404,-0.04204703,-0.5941752,-3.266861,-0.7562746,0.3584799,1.43854,0.466372,-0.04562971,0.2278668,0.1929178,-0.9291289,0.4792737,-0.1055746,0.5175327,1.506141,0.3270521,0.05655627,1.112934,0.397343,295.5999,261.1028,348.2439,True
4,0.1222222,0.1564237,-0.2873676,0.1167115,-1.503925,-4.510093,-2.645524,0.3342544,1.246106,0.5265298,-0.9784491,0.04595125,14.66844,12.89908,-0.1051448,0.1737622,0.009754859,-0.5927488,-3.264987,-0.7577918,0.358036,1.438615,0.4656518,-0.02347088,0.2044745,0.1702905,-0.9282224,0.4811621,-0.1072082,0.5170938,1.506261,0.3265412,0.0566225,1.112913,0.3965717,295.655,260.0211,349.5747,True
4,0.1333333,0.1062812,-0.2790785,0.1039805,-1.503196,-4.506992,-2.64528,0.3336655,1.246146,0.5256515,-0.9799064,-0.132921,15.51724,12.94193,-0.0867615,0.1311488,0.03189793,-0.5920963,-3.263725,-0.7584611,0.35756,1.438799,0.464983,-0.02035286,0.1980917,0.162792,-0.9268259,0.4839474,-0.1086761,0.5166429,1.506313,0.3260648,0.05657534,1.112969,0.3958115,295.8089,258.7514,351.0163,True
4,0.1444445,0.03906744,-0.2623636,0.07739319,-1.502027,-4.504976,-2.643599,0.3330063,1.246378,0.5248909,-0.9780123,0.1751436,17.71883,13.00621,-0.07286961,0.08432269,0.02317805,-0.591568,-3.264716,-0.7572927,0.3572205,1.438899,0.4642327,-0.02681483,0.1906367,0.1553934,-0.9255561,0.4864429,-0.1096381,0.5163386,1.506354,0.3254726,0.05645421,1.11302,0.395174,296.0182,257.7646,352.1418,True
4,0.1555556,-0.02495451,-0.2467223,0.04867474,-1.500525,-4.502979,-2.641569,0.3322671,1.246806,0.5240402,-0.9803532,-0.2148795,21.19363,13.13477,-0.07402974,0.07902152,0.009328154,-0.5925145,-3.264161,-0.7567859,0.3568126,1.439052,0.4634705,-0.03642631,0.1480284,0.1490486,-0.9241568,0.4870177,-0.1092335,0.5159874,1.506466,0.3248549,0.05615186,1.113134,0.3946201,296.3865,257.0928,352.9451,True
4,0.1666667,-0.07409347,-0.2182084,0.02628005,-1.499459,-4.501799,-2.639393,0.3316235,1.247171,0.5233002,-0.9803053,0.007129804,25.80902,13.26334,-0.086863,0.1002974,0.009469685,-0.5937278,-3.261552,-0.7575407,0.3565386,1.439211,0.4626853,-0.04732736,0.09478949,0.1203385,-0.9237318,0.4862654,-0.1078937,0.5158125,1.506485,0.3241751,0.0558823,1.113229,0.3940415,296.7353,256.5944,353.6328,True
4,0.1777778,-0.1254185,-0.1758563,0.003844213,-1.498572,-4.501412,-2.636406,0.330936,1.24752,0.5225739,-0.9808571,-0.05001589,30.92838,13.43475,-0.1069317,0.1151005,0.03734921,-0.5939275,-3.257753,-0.7587383,0.3563665,1.439391,0.4618425,-0.05080011,0.05008233,0.09049806,-0.9235656,0.4853142,-0.1065419,0.5157142,1.506504,0.3235257,0.05547474,1.11337,0.3932915,297.0624,256.2778,354.0291,True
4,0.1888889,-0.159643,-0.1429937,-0.009000622,-1.497891,-4.501126,-2.63363,0.3303258,1.247977,0.5219452,-0.981711,-0.07697689,35.99469,13.60617,-0.1267882,0.1255936,0.09185062,-0.5931265,-3.252237,-0.761152,0.3562723,1.439796,0.4611425,-0.05309688,0.02666322,0.07237624,-0.9233893,0.4848941,-0.1056247,0.5155969,1.506576,0.3229177,0.05497492,1.113553,0.3924601,297.4642,255.6948,354.6312,True
4,0.2,-0.2247787,-0.1028119,-0.02605729,-1.497376,-4.501086,-2.629178,0.3294762,1.248505,0.5213201,-0.9818494,-0.01147555,40.90186,13.77759,-0.117841,0.1020813,0.1396744,-0.5911829,-3.247817,-0.7637565,0.3562766,1.440126,0.4604089,-0.05450034,0.009652711,0.03828187,-0.9241233,0.4841269,-0.1044902,0.5155606,1.5066,0.3223116,0.05441345,1.113738,0.3916491,297.8918,255.2153,355.0946,True
4,0.2111111,-0.2610985,-0.08169387,-0.04312328,-1.496287,-4.501364,-2.625132,0.3288422,1.249032,0.5206027,-0.9828129,-0.0875207,45.25199,13.92758,-0.1048245,0.07437073,0.1618875,-0.5894438,-3.245039,-0.7653006,0.3562294,1.440512,0.4597461,-0.05273967,-0.002030995,0.002028043,-0.925188,0.4834769,-0.1035019,0.515646,1.50656,0.321744,0.053776,1.113929,0.3909055,298.3498,254.9503,355.3134,True
4,0.2222222,-0.3155915,-0.05111928,-0.07936867,-1.494621,-4.502804,-2.619748,0.3283134,1.250025,0.5200772,-0.9819672,0.07858696,48.06366,14.05614,-0.06527944,0.02013598,0.1614743,-0.5870577,-3.244844,-0.7660841,0.3563861,1.440964,0.459218,-0.04475879,-0.01368587,-0.05133452,-0.927473,0.4825061,-0.1026923,0.5156702,1.506545,0.3211274,0.05308263,1.114109,0.3901799,298.8107,254.8902,355.3174,True
4,0.2333333,-0.3369914,-0.03421627,-0.09857049,-1.493223,-4.503631,-2.615373,0.3277556,1.250692,0.5195625,-0.9832258,-0.1149951,49.25729,14.14185,-0.03328755,-0.04154713,0.1472551,-0.5845809,-3.246806,-0.7649952,0.3565006,1.441433,0.4586873,-0.03650757,-0.02962587,-0.0780652,-0.9289591,0.481315,-0.1017117,0.5157067,1.506572,0.3204815,0.05222227,1.114321,0.3893507,299.342,254.8871,355.2355,True
4,0.2444444,-0.3861507,-0.005752346,-0.1358811,-1.49128,-4.505797,-2.6093,0.3271723,1.251613,0.5192058,-0.9832636,-0.001419606,48.88594,14.20613,0.03925449,-0.1084712,0.1391043,-0.5812898,-3.249828,-0.7653086,0.3569226,1.441879,0.4582343,-0.03138659,-0.05836051,-0.1005207,-0.930688,0.4790205,-0.1001804,0.5158181,1.506502,0.3197873,0.05120781,1.114537,0.3881401,299.792,255.4456,354.51,True
4,0.2555556,-0.4406646,0.03117736,-0.1827793,-1.489325,-4.508513,-2.602738,0.3264979,1.252395,0.5189788,-0.9856082,-0.2131625,47.26791,14.22755,0.06273207,-0.1307811,0.1378125,-0.5788391,-3.250559,-0.7660074,0.3571878,1.442277,0.4576826,-0.04357944,-0.1041259,-0.1505185,-0.9337538,0.475365,-0.0970685,0.5159378,1.506392,0.3190565,0.04932243,1.114912,0.385252,299.3652,259.2891,349.4477,True
4,0.2666667,-0.5027028,0.07762372,-0.2425086,-1.486546,-4.512776,-2.595,0.3258102,1.253467,0.5186515,-0.985898,-0.02321254,45.14589,14.22755,0.08095863,-0.1690935,0.140792,-0.5754718,-3.252543,-0.7657821,0.3576311,1.442761,0.4571443,-0.03839587,-0.1531058,-0.1687341,-0.9359365,0.4708318,-0.09413422,0.5161012,1.506314,0.3182981,0.04772183,1.115883,0.380532,299.1465,261.4549,345.3504,True
4,0.2777778,-0.5550334,0.09965275,-0.2872371,-1.483759,-4.516543,-2.587006,0.3250839,1.254481,0.5184996,-0.9874319,-0.1384816,42.73209,14.22755,0.08457664,-0.2043229,0.1843772,-0.5706398,-3.252529,-0.7668,0.3579477,1.44347,0.456579,-0.02681863,-0.2223218,-0.1881021,-0.9381326,0.4644874,-0.09043962,0.5162912,1.506204,0.3174405,0.04670462,1.117737,0.3757541,299.0236,260.1734,344.7036,True
4,0.2888889,-0.6362295,0.140707,-0.3479817,-1.480322,-4.522149,-2.576777,0.3242364,1.255781,0.5185959,-0.9888844,-0.129614,40.23873,14.22755,0.09022734,-0.2086532,0.2248093,-0.5661603,-3.250818,-0.7694243,0.3583446,1.444019,0.4560604,-0.02903399,-0.2585343,-0.1998414,-0.9404927,0.4591492,-0.08700468,0.5164685,1.506093,0.3166158,0.0457498,1.120572,0.3718068,298.7643,258.7569,344.4561,True
4,0.3,-0.7153139,0.1902952,-0.4066204,-1.476923,-4.528539,-2.566027,0.3234705,1.257375,0.5186954,-0.9914688,-0.2328717,37.77188,14.27041,0.1268216,-0.2214373,0.2692475,-0.5609843,-3.248614,-0.7738802,0.3590212,1.444819,0.455667,-0.0418126,-0.2436356,-0.1975626,-0.9423308,0.4563496,-0.0842981,0.5168173,1.506022,0.3158133,0.0444139,1.1244,0.3692988,298.3046,257.7617,344.2975,True
4,0.3111111,-0.7676494,0.2155699,-0.4385898,-1.473736,-4.534534,-2.555193,0.3226308,1.258881,0.5188575,-0.992786,-0.1158832,35.49072,14.31326,0.1417964,-0.217162,0.2787237,-0.5570284,-3.247446,-0.7768958,0.35948,1.445553,0.4552746,-0.03227451,-0.2425571,-0.2029918,-0.9445327,0.4528759,-0.08231884,0.5171387,1.505884,0.3150647,0.04243626,1.129115,0.3685172,297.5686,257.1263,344.3883,True
4,0.3222222,-0.8210628,0.2386737,-0.4801389,-1.47007,-4.54108,-2.543602,0.3218355,1.260729,0.5192237,-0.9960606,-0.2954481,33.4748,14.39897,0.1890539,-0.2416352,0.3209275,-0.551057,-3.245282,-0.7824311,0.3602792,1.446477,0.4549351,-0.02197039,-0.2712723,-0.2393505,-0.9480443,0.4476522,-0.07937099,0.5174123,1.505798,0.3143032,0.03960602,1.134645,0.369529,296.7209,256.8274,344.7363,True
4,0.3333333,-0.8531259,0.2500933,-0.5323172,-1.46555,-4.547755,-2.532644,0.3210207,1.262733,0.5195706,-1.000272,-0.3792585,31.69761,14.46325,0.2074699,-0.2768028,0.349484,-0.5445424,-3.244457,-0.7860027,0.3609827,1.447395,0.4545083,-0.02313361,-0.3032162,-0.2510829,-0.9507293,0.4419002,-0.0755909,0.5177362,1.505751,0.3135221,0.03608569,1.140968,0.3721737,295.7298,256.8651,345.3711,True
4,0.3444445,-0.8958805,0.2646461,-0.594092,-1.460413,-4.555617,-2.520365,0.3200776,1.264791,0.520169,-1.004366,-0.3675774,30.1061,14.46325,0.2495636,-0.3875628,0.3851642,-0.5349444,-3.247738,-0.7873859,0.3617607,1.448333,0.4541142,-0.03295282,-0.3383529,-0.2765869,-0.9543113,0.4353949,-0.0711285,0.5180584,1.505602,0.3128021,0.03219277,1.147953,0.3760323,294.5544,257.1956,346.2056,True
4,0.3555556,-0.9503874,0.2866193,-0.6548101,-1.455228,-4.564198,-2.506992,0.3192247,1.266851,0.520879,-1.010099,-0.5173081,28.75332,14.44182,0.2624851,-0.4344162,0.3881692,-0.5273656,-3.25032,-0.7884887,0.3624937,1.449205,0.4537647,-0.0589233,-0.3500449,-0.3157431,-0.9587992,0.4300751,-0.06655985,0.5184582,1.505328,0.3119619,0.02824069,1.155468,0.3805963,293.3073,257.5942,347.2032,True
4,0.3666667,-0.998448,0.2969055,-0.7123022,-1.449571,-4.573031,-2.493284,0.3181387,1.269005,0.5216331,-1.014438,-0.388478,27.69231,14.31326,0.2757247,-0.4366338,0.4477198,-0.5191108,-3.247163,-0.7944396,0.3632004,1.450191,0.453577,-0.0666005,-0.3436368,-0.3369686,-0.963096,0.4253722,-0.06294541,0.5188052,1.505219,0.3113418,0.02442404,1.163315,0.3853644,291.9761,257.7752,348.3919,True
4,0.3777778,-1.041134,0.2976602,-0.7601782,-1.44372,-4.58173,-2.479406,0.3171081,1.271261,0.5224869,-1.019069,-0.4161608,26.7374,14.20613,0.3110179,-0.4025165,0.4762796,-0.5122846,-3.242677,-0.802959,0.3639545,1.45111,0.4533355,-0.05095968,-0.3393258,-0.3690806,-0.9677959,0.4206093,-0.06015468,0.5191193,1.505043,0.310746,0.02072624,1.171313,0.3899919,290.6598,257.683,349.6145,True
4,0.3888889,-1.066779,0.3102769,-0.7825552,-1.438696,-4.590708,-2.465493,0.3160724,1.273499,0.5233219,-1.024735,-0.5101745,25.88859,14.05614,0.3280568,-0.4046177,0.4697468,-0.5054073,-3.242211,-0.8082308,0.3646452,1.452081,0.4532249,-0.03948042,-0.3488722,-0.3937184,-0.9728953,0.4152246,-0.05722121,0.5194589,1.504921,0.310154,0.01714857,1.179385,0.3942776,289.4202,257.3477,350.8414,True
4,0.4,-1.095719,0.3569622,-0.8060986,-1.434753,-4.600888,-2.451163,0.3150066,1.275836,0.5242629,-1.030818,-0.5475003,25.19894,13.84187,0.354848,-0.4333397,0.4812008,-0.4972431,-3.241863,-0.813462,0.3654213,1.452997,0.4530988,-0.03239372,-0.3754596,-0.4310968,-0.9784582,0.4086179,-0.05318785,0.5197548,1.504776,0.3096116,0.01365519,1.187507,0.3981086,288.2584,256.663,352.2161,True
4,0.4111111,-1.119431,0.423905,-0.8329248,-1.431372,-4.612919,-2.436333,0.314246,1.27784,0.5250804,-1.03724,-0.5781109,24.64191,13.60617,0.3698874,-0.4716855,0.48208,-0.4884488,-3.242892,-0.8175207,0.366358,1.453893,0.4529815,-0.03566182,-0.3818477,-0.4385273,-0.9832769,0.4029726,-0.04947994,0.5201315,1.504582,0.3090143,0.01037548,1.195691,0.4014732,287.1502,255.673,353.7258,True
4,0.4222222,-1.147454,0.5004064,-0.86191,-1.428513,-4.626067,-2.420802,0.3134893,1.280013,0.5259819,-1.043398,-0.5537729,24.29708,13.41333,0.3742422,-0.5004447,0.4851838,-0.4799671,-3.243814,-0.8210081,0.3670466,1.454768,0.4528508,-0.03565368,-0.3786529,-0.4374586,-0.9879172,0.3977707,-0.04621916,0.5204311,1.504371,0.3084798,0.007326267,1.20395,0.4044231,286.0699,254.566,355.1902,True
4,0.4333333,-1.161486,0.5461108,-0.8780251,-1.425825,-4.638807,-2.405548,0.3126169,1.282068,0.5269394,-1.049505,-0.5493624,24.00531,13.1562,0.373462,-0.5335189,0.5096346,-0.4704181,-3.24368,-0.8255094,0.3677572,1.455729,0.452565,-0.03764501,-0.3733455,-0.42358,-0.9919236,0.3927445,-0.04294401,0.5207486,1.504267,0.3080316,0.004466806,1.212309,0.4071341,284.9807,253.3263,356.6409,True
4,0.4444444,-1.164921,0.6099836,-0.8878261,-1.424328,-4.652604,-2.390375,0.3117703,1.283971,0.5279794,-1.055303,-0.5212421,23.76658,12.8348,0.366103,-0.5293017,0.5235539,-0.4618465,-3.241935,-0.8309438,0.3683861,1.45646,0.4524443,-0.04178941,-0.3659061,-0.4118127,-0.9960196,0.3879027,-0.03972504,0.5210346,1.504084,0.3075511,0.001816161,1.220756,0.4098788,283.8484,251.8159,358.2917,True
4,0.4555556,-1.149115,0.6579876,-0.8880138,-1.422849,-4.665727,-2.376372,0.3112369,1.285817,0.5289006,-1.061697,-0.5760876,23.50132,12.44911,0.3627695,-0.5207392,0.5086817,-0.4545696,-3.241387,-0.8353559,0.3690058,1.457374,0.452246,-0.05018932,-0.3520866,-0.3989191,-0.9997826,0.3834899,-0.03649596,0.5212696,1.503859,0.3071218,-0.0007522078,1.229326,0.4129156,282.7362,250.0075,0.2650119,True
4,0.4666667,-1.119341,0.6740748,-0.8870475,-1.421374,-4.678497,-2.363014,0.3104771,1.287617,0.5299966,-1.068017,-0.5689372,23.12997,11.95629,0.349604,-0.5164094,0.4608549,-0.4481008,-3.244243,-0.8362136,0.3695047,1.458068,0.4521635,-0.06501961,-0.3339984,-0.389159,-1.003667,0.379667,-0.0332461,0.5214812,1.503625,0.3068008,-0.003295169,1.237999,0.4163975,281.5789,247.8908,2.681433,True
4,0.4777778,-1.073614,0.6912998,-0.8818632,-1.41998,-4.691567,-2.350308,0.3099096,1.289469,0.5309982,-1.07497,-0.62703,22.67904,11.50632,0.3398141,-0.5227704,0.4332259,-0.4408671,-3.246841,-0.8373144,0.3699521,1.458843,0.4521687,-0.08532512,-0.3137734,-0.3931801,-1.007995,0.3760991,-0.02970516,0.5216937,1.50347,0.30653,-0.00571949,1.246703,0.4204227,280.3659,245.6813,5.390913,True
4,0.4888889,-1.039561,0.7020717,-0.8819516,-1.418937,-4.704488,-2.337892,0.3092729,1.291211,0.5320928,-1.081184,-0.5593997,22.17506,11.12063,0.3204103,-0.5110457,0.4078214,-0.4344436,-3.2487,-0.8385237,0.3703414,1.459577,0.4522812,-0.09074089,-0.3009867,-0.400569,-1.012651,0.3724966,-0.02663081,0.5219016,1.503222,0.3061962,-0.00780649,1.255275,0.424933,279.1144,242.9948,8.80154,True
4,0.5,-0.9874429,0.7267466,-0.8842506,-1.418302,1.565235,-2.326596,0.3088278,1.292924,0.5331211,-1.087124,-0.5350709,21.67109,10.79923,0.3127773,-0.4535346,0.4037414,-0.4290129,-3.246033,-0.8441288,0.3708131,1.460356,0.4522986,-0.09837833,-0.2764743,-0.4164488,-1.017825,0.369646,-0.02391492,0.5221543,1.503028,0.3060803,-0.009660217,1.263552,0.4297822,277.9165,239.546,13.08923,True
4,0.5111111,-0.9684586,0.7822141,-0.8823404,-1.419282,1.55082,-2.31427,0.3085312,1.294369,0.534234,-1.092381,-0.4730743,21.16711,10.5421,0.3245497,-0.4205281,0.4218243,-0.4226788,-3.242417,-0.8513684,0.3714077,1.461133,0.452359,-0.08989906,-0.2498314,-0.4175683,-1.022311,0.367302,-0.02192767,0.5224232,1.502902,0.3059754,-0.01128931,1.271406,0.4348243,276.8536,235.2269,18.29251,True
4,0.5222223,-0.9398953,0.8409995,-0.8634499,-1.421126,1.535643,-2.302277,0.3084354,1.295882,0.5354433,-1.098296,-0.5337076,20.79576,10.41354,0.3202852,-0.4088265,0.4250767,-0.4164129,-3.240194,-0.8568012,0.3718515,1.461803,0.4523704,-0.0728465,-0.231708,-0.415598,-1.026809,0.3648821,-0.02047944,0.5225764,1.502747,0.3059049,-0.01278138,1.278773,0.4399292,275.9583,230.1306,24.25926,True
4,0.5333334,-0.9090587,0.8667191,-0.8518701,-1.422772,1.521865,-2.291142,0.3079957,1.2971,0.5365751,-1.102044,-0.3351784,20.45093,10.43497,0.3086668,-0.3833278,0.4465134,-0.4102301,-3.235515,-0.8640064,0.3722945,1.462291,0.4524636,-0.07389936,-0.2295786,-0.4134504,-1.031207,0.3618663,-0.01794731,0.5227035,1.502573,0.3057902,-0.0140809,1.285607,0.4450309,275.2129,224.142,31.05894,True
4,0.5444446,-0.838863,0.9063966,-0.8436121,-1.425345,1.507295,-2.282122,0.3077307,1.298095,0.5377684,-1.106662,-0.4166733,20.07957,10.58496,0.3076167,-0.375882,0.4507979,-0.4038929,-3.231964,-0.8706486,0.3727099,1.462901,0.4525855,-0.08336824,-0.2242738,-0.4016294,-1.035327,0.3590856,-0.01528521,0.5227937,1.502334,0.3057599,-0.0152367,1.291974,0.4501508,274.6248,218.2855,37.63143,True
4,0.5555557,-0.7686049,0.9226736,-0.83203,-1.427583,1.493307,-2.273785,0.3074405,1.29899,0.5388632,-1.111421,-0.4288576,19.76127,10.82066,0.3321089,-0.438637,0.431302,-0.3958789,-3.235913,-0.8715144,0.3729271,1.463388,0.45277,-0.08541694,-0.2168293,-0.3930727,-1.039334,0.3564697,-0.0129419,0.5229119,1.50211,0.305692,-0.01628169,1.298019,0.4553384,274.1526,211.9876,44.6306,True
4,0.5666668,-0.6897711,0.9326148,-0.8087471,-1.430444,1.479894,-2.266752,0.3072324,1.299767,0.5399771,-1.117501,-0.5499134,19.38992,11.03493,0.3575119,-0.5002849,0.3915657,-0.388087,-3.242792,-0.8699588,0.3729377,1.463899,0.4530034,-0.08951601,-0.1838258,-0.374889,-1.042959,0.355301,-0.01128887,0.5229432,1.501844,0.3056207,-0.01730378,1.303801,0.4605369,273.7286,203.5518,53.82292,True
4,0.577778,-0.5939157,0.9490054,-0.7855194,-1.433616,1.466572,-2.26117,0.3071917,1.300413,0.5409589,-1.121818,-0.3877181,18.96552,11.2492,0.3549122,-0.4959089,0.331936,-0.3828709,-3.248578,-0.868505,0.3727787,1.464309,0.4533236,-0.1044299,-0.1380365,-0.3704198,-1.046882,0.3552018,-0.009602027,0.5228835,1.501631,0.305712,-0.01815271,1.309222,0.4657498,273.3721,191.815,66.31292,True
4,0.5888891,-0.5310619,0.9599637,-0.7600846,-1.437252,1.453636,-2.255661,0.3071469,1.301053,0.5419242,-1.126308,-0.405318,18.54111,11.46347,0.311515,-0.4234124,0.2525155,-0.3809082,-3.251809,-0.8675625,0.3726215,1.464661,0.4536233,-0.1246723,-0.1274011,-0.3702052,-1.05105,0.3539346,-0.007011304,0.522791,1.501416,0.3057804,-0.01883193,1.314179,0.4709436,273.1827,178.4285,80.46449,True
4,0.6000003,-0.4607814,0.9923185,-0.716631,-1.442375,1.440825,-2.251195,0.3073322,1.301404,0.5425837,-1.130876,-0.4121602,18.06366,11.69916,0.2562853,-0.3583651,0.1561265,-0.3803782,-3.257785,-0.8631172,0.3724306,1.464937,0.4540005,-0.1584394,-0.1285343,-0.3389511,-1.053615,0.352107,-0.003184342,0.5225902,1.501276,0.3060052,-0.01930759,1.318592,0.4760729,273.1381,165.6965,93.96152,True
4,0.6111114,-0.432041,1.021319,-0.6773573,-1.4479,1.428143,-2.245674,0.3075753,1.301704,0.5431147,-1.13388,-0.269347,17.63926,11.93486,0.2193175,-0.3082168,0.07553957,-0.3800001,-3.264482,-0.8581648,0.3724005,1.465189,0.4543772,-0.1516303,-0.1307036,-0.2985336,-1.055534,0.3502608,-0.0008271778,0.5223915,1.501184,0.3062778,-0.01958654,1.322399,0.4810982,273.1881,154.9213,105.4934,True
4,0.6222225,-0.4170536,1.016167,-0.6411419,-1.452937,1.416442,-2.240149,0.3077806,1.302036,0.5436888,-1.137625,-0.338391,17.32096,12.1277,0.2180354,-0.3049692,0.04785999,-0.3775265,-3.270858,-0.8547714,0.3723958,1.465663,0.4546812,-0.1077175,-0.1040574,-0.274466,-1.05792,0.3498696,-0.0009675264,0.5221143,1.501084,0.3065376,-0.01978312,1.325658,0.48599,273.2192,146.8271,114.3344,True
4,0.6333337,-0.397698,0.9865093,-0.6123118,-1.456974,1.405538,-2.235197,0.3079118,1.302432,0.5441957,-1.139364,-0.154194,17.00265,12.34197,0.2149577,-0.3582414,0.04671684,-0.3725176,-3.279972,-0.8487614,0.3722309,1.466014,0.4549534,-0.07779869,-0.07314574,-0.2630216,-1.060511,0.3500938,-0.00113717,0.5219594,1.501016,0.3068533,-0.01984823,1.328422,0.490702,273.1908,139.4854,122.4369,True
4,0.6444448,-0.3759905,0.8973095,-0.5502527,-1.45999,1.398125,-2.23101,0.3079184,1.302705,0.5446494,-1.141877,-0.2266472,16.76393,12.51339,0.1950957,-0.369035,0.0926572,-0.367464,-3.282797,-0.8475923,0.3719944,1.4664,0.4552443,-0.08002415,-0.04756925,-0.2704327,-1.063787,0.3504187,-0.0003539341,0.5216635,1.500931,0.3071506,-0.01989574,1.330877,0.4951916,273.1093,133.6461,129.0215,True
4,0.655556,-0.4002813,0.8548369,-0.4915452,-1.464255,1.38959,-2.224242,0.3083478,1.303945,0.5463989,-1.14518,-0.297963,16.57825,12.64195,0.1613277,-0.3234217,0.1494687,-0.3636381,-3.278495,-0.8521016,0.3716727,1.466673,0.4556592,-0.08867419,-0.04009814,-0.2820501,-1.067253,0.3502459,0.00102798,0.5214829,1.500876,0.3073297,-0.01996889,1.333247,0.4994018,273.049,129.1933,134.177,True
4,0.6666671,-0.3816596,0.7637321,-0.3612926,-1.468804,1.387162,-2.220544,0.3077973,1.304307,0.5468507,-1.148333,-0.2840712,16.44562,12.70623,0.1515182,-0.2680258,0.1379372,-0.3622315,-3.277815,-0.8540108,0.3714257,1.466872,0.4560153,-0.09283167,-0.05502531,-0.2735016,-1.070026,0.3489929,0.002774481,0.5211318,1.500744,0.3076153,-0.02001147,1.335658,0.5032428,273.097,124.8332,139.218,True
4,0.6777782,-0.3842812,0.6522148,-0.2639502,-1.471863,1.385461,-2.216513,0.3069224,1.304528,0.5474515,-1.148589,-0.0192264,16.33952,12.70623,0.1455877,-0.1890978,0.08380545,-0.3637702,-3.27925,-0.8541988,0.3711396,1.467065,0.4564888,-0.08934838,-0.07208969,-0.2469116,-1.071646,0.3474922,0.004400341,0.5208171,1.500509,0.3080051,-0.01993348,1.338153,0.5065752,273.1846,121.2164,143.2917,True
4,0.6888894,-0.3976611,0.5458802,-0.1932554,-1.473962,1.384356,-2.211607,0.3058874,1.305165,0.5477729,-1.153375,-0.4357923,16.18037,12.62053,0.128372,-0.1965458,0.06047912,-0.3621345,-3.284195,-0.850281,0.3708493,1.467308,0.4570532,-0.0676804,-0.09021313,-0.2141321,-1.072831,0.3456742,0.005205148,0.5204025,1.500469,0.308404,-0.01986575,1.341079,0.5095738,273.1783,117.7518,146.9908,True
4,0.7000005,-0.369523,0.4236538,-0.1449002,-1.47526,1.383376,-2.207917,0.304518,1.305691,0.5488498,-1.155783,-0.2143684,15.94164,12.42768,0.07739927,-0.2211916,0.07360099,-0.3586341,-3.287965,-0.8458833,0.3704982,1.467472,0.4576588,-0.06235752,-0.1019208,-0.2152615,-1.075314,0.3440667,0.006503173,0.5199371,1.500314,0.3087893,-0.01987582,1.344359,0.5119059,273.5662,109.1696,156.0971,True
4,0.7111117,-0.3202487,0.3546518,-0.1234332,-1.476112,1.38201,-2.205976,0.3031144,1.306233,0.5492549,-1.157232,-0.1294198,15.64987,12.10628,0.0562105,-0.2329834,0.0854563,-0.3556204,-3.29059,-0.8433475,0.370209,1.467753,0.4582512,-0.05910748,-0.1072461,-0.2110433,-1.077584,0.3425778,0.007702394,0.5195201,1.500181,0.3091741,-0.02011982,1.347743,0.5132865,274.2683,103.1996,162.5397,True
4,0.7222228,-0.3012115,0.3813228,-0.1449081,-1.478939,1.375836,-2.202473,0.3019589,1.307828,0.5515268,-1.160476,-0.2943136,15.33157,11.72059,0.08750531,-0.3054096,0.1148981,-0.3499186,-3.296749,-0.8395517,0.3697912,1.468039,0.458744,-0.04100524,-0.09871057,-0.2112119,-1.079789,0.3416946,0.007957526,0.5190506,1.500057,0.3096077,-0.02073336,1.351126,0.5136633,274.9588,101.5851,164.2328,True
4,0.7333339,-0.3343764,0.4441699,-0.1141744,-1.484723,1.371252,-2.19733,0.3001952,1.307883,0.5517333,-1.164157,-0.3330477,14.96021,11.29205,0.09989491,-0.3939145,0.1753513,-0.3419195,-3.302428,-0.8357093,0.3690341,1.468253,0.4590306,-0.0325686,-0.08484399,-0.2176761,-1.082426,0.3412515,0.008323709,0.5185417,1.499968,0.3100677,-0.02168425,1.35433,0.5133277,275.6379,102.06,163.3696,True
4,0.7444451,-0.3996947,0.5612702,-0.07399544,-1.493364,1.365754,-2.190228,0.2983642,1.308014,0.5521407,-1.164624,-0.03923384,14.61538,10.69209,0.06926829,-0.3748948,0.2161079,-0.3367141,-3.301262,-0.8365583,0.3682731,1.46836,0.4594519,-0.03813076,-0.06671842,-0.2389064,-1.085861,0.3411316,0.009011871,0.5180349,1.49993,0.3106124,-0.02288098,1.357174,0.5127325,276.1524,103.7778,160.8466,True
4,0.7555562,-0.4479487,0.6548263,-0.0870395,-1.500976,1.358351,-2.183187,0.2969397,1.3079,0.5523827,-1.163905,0.06658987,14.29708,9.856439,0.006118238,-0.258921,0.212565,-0.3366864,-3.293617,-0.8416444,0.3675103,1.468365,0.4599831,-0.06082927,-0.0304928,-0.2673929,-1.089831,0.3421296,0.01004172,0.5173854,1.49981,0.3112862,-0.02445548,1.35985,0.5128449,276.4266,105.2973,158.3198,True
4,0.7666674,-0.5118324,0.9549846,-0.09969318,-1.517526,1.344752,-2.17439,0.2957262,1.307211,0.5525212,-1.16305,0.07861546,14.05836,8.870793,-0.02400966,-0.2120703,0.188389,-0.3353538,-3.292225,-0.8416209,0.3664509,1.46839,0.4605072,-0.06595904,-0.01347409,-0.2470818,-1.091879,0.3426283,0.01067901,0.5166394,1.499791,0.3119905,-0.02629156,1.362369,0.5139257,276.682,103.0253,160.2922,True
4,0.7777785,-0.5741031,1.43756,-0.06078517,-1.544994,1.326051,-2.164892,0.2953642,1.307345,0.5552928,-1.164289,-0.1130432,13.92573,7.73516,-0.08216603,-0.1556244,0.1239622,-0.3358331,-3.294789,-0.8363642,0.3651757,1.46828,0.4612591,-0.05499077,0.002480004,-0.2152105,-1.092977,0.3432185,0.01061323,0.5156965,1.499673,0.312767,-0.0282377,1.364874,0.5159712,276.8305,99.08538,164.465,True
4,0.7888896,-0.641542,1.861378,-0.04615659,4.709306,1.306745,-2.155418,0.2949162,1.3061,0.5552332,-1.164088,0.02000141,13.8992,6.599526,-0.109562,-0.08415622,0.04761124,-0.3383695,-3.296429,-0.8327438,0.3638477,1.468299,0.4620466,-0.05042505,0.033342,-0.1832678,-1.093963,0.3448017,0.01023959,0.5146067,1.499679,0.3136263,-0.02989626,1.36739,0.5189446,276.9998,95.50506,168.4421,True
4,0.8000008,-0.6259435,1.963508,-0.1030254,4.690574,1.290657,-2.149687,0.2938763,1.305297,0.5550771,-1.164348,-0.02309695,13.8992,5.635309,-0.09829111,-0.08933345,-0.01214467,-0.3390896,-3.303552,-0.8253291,0.3626294,1.468345,0.4628947,-0.05012164,0.05993874,-0.1512824,-1.094537,0.3465548,0.01001828,0.5137361,1.499711,0.3144307,-0.03127649,1.370335,0.5234516,277.0189,89.73053,174.1197,True
4,0.8111119,-0.54536,1.72692,-0.2077857,4.685083,1.280336,-2.147099,0.2926172,1.305451,0.5552931,-1.164972,-0.05556264,13.8992,4.863938,-0.05691525,-0.1477387,-0.05200311,-0.3376558,-3.314965,-0.8152807,0.3614374,1.468374,0.4637315,-0.03783258,0.1014328,-0.09277651,-1.093446,0.3494478,0.008641159,0.5125692,1.499604,0.3151944,-0.03218327,1.374264,0.5305188,277.2197,80.00252,183.7599,True
4,0.8222231,-0.547897,1.499784,-0.2709206,4.680127,1.271107,-2.141003,0.291648,1.305979,0.5561297,-1.16924,-0.3891324,13.87268,4.349687,0.01053739,-0.2392254,-0.03672849,-0.3335023,-3.326661,-0.8065605,0.3603966,1.468479,0.4646153,-0.005959433,0.1174456,-0.1005389,-1.094761,0.3514411,0.006552442,0.5113449,1.499578,0.3161252,-0.03209425,1.378943,0.539844,278.3869,71.193,194.0432,True
4,0.8333342,-0.5575004,1.185472,-0.2719303,4.679192,1.267443,-2.134563,0.2904031,1.306706,0.5569513,-1.173255,-0.3641501,13.687,4.178273,0.0555011,-0.3200809,-0.03404544,-0.3293121,-3.339823,-0.7961685,0.3592723,1.468496,0.4653573,0.02678954,0.1047253,-0.1285913,-1.097376,0.3522415,0.004802478,0.5102001,1.499567,0.317049,-0.03098111,1.383745,0.5501454,280.1526,69.12926,198.9246,True
4,0.8444453,-0.4692749,0.9462411,-0.2222404,4.677475,1.265423,-2.132132,0.288861,1.307789,0.5582082,-1.170316,0.2712156,13.4748,4.456822,0.04680118,-0.2902451,-0.04776719,-0.3283859,-3.347033,-0.7895921,0.3582494,1.468635,0.4660785,0.05119798,0.08771589,-0.139516,-1.099311,0.3527502,0.003163036,0.5090266,1.499545,0.317862,-0.02925779,1.387974,0.5598264,281.8635,71.01244,200.0882,True
4,0.8555565,-0.3685731,0.7655874,-0.1950787,4.674535,1.262792,-2.131445,0.2877733,1.308546,0.5599935,-1.170025,0.02444344,13.28912,5.27105,0.03100328,-0.1817364,0.0100997,-0.3285281,-3.338082,-0.7975845,0.3572302,1.468854,0.4667735,0.05958566,0.06750242,-0.1545336,-1.101419,0.3529458,0.002188586,0.5078623,1.499509,0.3186049,-0.0277475,1.391595,0.567957,283.1375,72.05063,201.4376,True
4,0.8666676,-0.3310383,0.6728892,-0.2374331,4.673492,1.257228,-2.129185,0.2864823,1.309578,0.5611193,-1.174312,-0.3916974,13.10345,6.492391,0.09557047,-0.1838863,0.09375522,-0.3243219,-3.333982,-0.8047061,0.356445,1.469266,0.467463,0.05525159,0.02916011,-0.165183,-1.103614,0.3520193,0.002133458,0.506765,1.499559,0.3193099,-0.02701566,1.39476,0.5737686,283.9448,72.26738,202.8633,True
4,0.8777788,-0.2560618,0.5441221,-0.2722708,4.674028,1.252426,-2.128996,0.285051,1.309963,0.5613198,-1.176426,-0.1899652,12.99735,7.992284,0.1218014,-0.2404348,0.162688,-0.3178349,-3.335536,-0.8055122,0.355713,1.469531,0.4680955,0.04234661,-0.007059358,-0.1799961,-1.106007,0.3505763,0.002788063,0.5056933,1.49955,0.3199902,-0.02727407,1.397466,0.5770218,284.4397,72.46439,203.2595,True
4,0.8888899,-0.2079497,0.4662793,-0.3423739,4.675007,1.245944,-2.128528,0.2836772,1.310473,0.5618751,-1.174624,0.1657915,13.0504,9.835011,0.1621993,-0.3406795,0.2591129,-0.308311,-3.337814,-0.8063943,0.3547794,1.469768,0.4688234,0.01993755,-0.05500868,-0.1883407,-1.108466,0.3480323,0.00444162,0.5045372,1.49952,0.3206413,-0.02833616,1.399471,0.5780946,284.6602,73.11145,202.231,True
4,0.900001,-0.2408098,0.4053575,-0.3687513,4.675564,1.240349,-2.124992,0.2821246,1.31119,0.5632429,-1.176184,-0.1445002,13.02387,11.42061,0.1967876,-0.402478,0.3045298,-0.2999193,-3.341335,-0.8065125,0.3534966,1.470013,0.4693646,-0.003454939,-0.06249146,-0.1849043,-1.11028,0.3470612,0.005632053,0.5032293,1.499499,0.3213201,-0.0301695,1.400818,0.5777234,284.5322,74.39212,200.1774,True
4,0.9111122,-0.3364287,0.3315925,-0.3587524,4.675745,1.236565,-2.118057,0.2808588,1.31149,0.5643528,-1.175713,0.044145,12.91777,12.53482,0.1936708,-0.3822801,0.3216359,-0.2946404,-3.339405,-0.8103213,0.3520959,1.470296,0.4700358,-0.01946713,-0.03906636,-0.1857848,-1.112454,0.3475947,0.006083991,0.5018121,1.499501,0.3221691,-0.03237146,1.401353,0.5764794,284.275,76.08836,197.6069,True
4,0.9222233,-0.391665,0.3145911,-0.2904336,4.673766,1.234115,-2.111953,0.2795366,1.311791,0.5656974,-1.172367,0.3052514,12.70557,13.1562,0.1386324,-0.2055026,0.2851299,-0.2962325,-3.325786,-0.8229061,0.3502402,1.470407,0.470711,-0.03219141,0.02269591,-0.1749408,-1.114149,0.350086,0.005671734,0.500282,1.499542,0.323015,-0.03493935,1.401266,0.5752234,283.7715,77.6272,194.9901,True
4,0.9333345,-0.4085858,0.3104703,-0.2318079,4.67122,1.231824,-2.107378,0.2783244,1.311842,0.5660284,-1.168752,0.3279678,12.30769,13.26334,0.06419859,-0.01060884,0.2253804,-0.3003396,-3.310326,-0.8359436,0.3487494,1.470528,0.4714432,-0.03202508,0.0663482,-0.1546489,-1.115102,0.3524178,0.004996623,0.4987754,1.499525,0.3238728,-0.03777226,1.401012,0.5747551,283.0445,78.28093,193.305,True
4,0.9444456,-0.3657941,0.2884798,-0.1604223,4.66872,1.230995,-2.104819,0.2770061,1.312373,0.5669205,-1.169641,-0.08353772,11.80371,13.30619,0.04030694,0.09697991,0.2002114,-0.3028376,-3.296714,-0.8485638,0.3474261,1.470634,0.4722102,0.007921398,0.1004204,-0.1006939,-1.11437,0.3549916,0.002351039,0.4971641,1.49969,0.3248136,-0.04032607,1.401008,0.5753375,282.2866,77.75281,193.233,True
4,0.9555568,-0.2409144,0.2196651,-0.1561047,4.669401,1.229614,-2.106513,0.2755922,1.313022,0.5672216,-1.171693,-0.1862606,11.24668,13.3919,0.06447116,0.1088344,0.1595688,-0.3034906,-3.292481,-0.8543208,0.3465044,1.470608,0.4729347,0.05951571,0.07805216,-0.0586249,-1.113496,0.3550215,-9.960222E-05,0.4956128,1.499919,0.3256195,-0.04219905,1.401611,0.5769307,281.854,76.40301,194.5677,True
4,0.9666679,-0.1640427,0.1612329,-0.1698941,4.671582,1.227912,-2.107206,0.274043,1.3122,0.5639746,-1.174133,-0.2214786,10.6366,13.43475,0.08165212,-0.02636836,0.1357196,-0.2993297,-3.302206,-0.8465614,0.3455926,1.470759,0.4736285,0.08105285,0.04289581,-0.0397078,-1.113441,0.3541406,-0.001215467,0.4940984,1.499982,0.3264813,-0.04314453,1.402851,0.5791459,281.8998,75.16101,196.3272,True
4,0.977779,-0.09156699,0.1529496,-0.1710479,4.671643,1.225382,-2.108736,0.2723749,1.312715,0.5644279,-1.178414,-0.3897775,9.973473,13.3919,0.09733251,-0.1819736,0.1874863,-0.2913125,-3.308731,-0.84183,0.3445652,1.470935,0.4743779,0.10126,-0.02844989,-0.04957921,-1.114271,0.3510433,-0.001740376,0.4925651,1.499979,0.3271446,-0.04344139,1.404723,0.5816439,282.3449,74.83699,197.4071,True
4,0.9888902,-0.09910743,0.1871067,-0.1551552,4.668708,1.222424,-2.107448,0.2708353,1.313164,0.5653689,-1.17736,0.09916336,9.575595,13.49904,0.1201081,-0.2586776,0.2159216,-0.2853242,-3.311581,-0.8411826,0.343309,1.471305,0.4750245,0.08081856,-0.04549525,-0.0707008,-1.115891,0.3500004,-0.001447428,0.4910237,1.499913,0.3278222,-0.04314971,1.406576,0.5837483,283.3259,76.05332,197.4384,True
4,1.000001,-0.1365245,0.2382045,-0.1286378,4.665154,1.219719,-2.104808,0.2692926,1.313144,0.5660403,-1.177418,-0.006893824,9.28382,13.77759,0.1468574,-0.2991011,0.2188279,-0.2800628,-3.316178,-0.8393514,0.341783,1.471557,0.4755406,0.02084623,-0.0572362,-0.1020548,-1.118085,0.348837,0.0008447547,0.4895163,1.499904,0.328495,-0.04271775,1.407782,0.5846794,284.3923,77.77461,196.9548,True
4,1.011112,-0.1556728,0.2339103,-0.1253889,4.663532,1.217333,-2.102713,0.267744,1.313358,0.5669897,-1.174162,0.297531,9.071617,14.29184,0.1241989,-0.2511663,0.1956605,-0.2784431,-3.315086,-0.8410223,0.3402356,1.471736,0.4760957,-0.01027513,-0.05937232,-0.1241015,-1.12002,0.3481516,0.002263154,0.4880552,1.499976,0.3292036,-0.0433684,1.408707,0.5850562,284.8844,79.01721,195.6907,True
4,1.022224,-0.1565343,0.1721306,-0.126238,4.664087,1.216122,-2.101107,0.2661427,1.313737,0.5680814,-1.172253,0.1718588,8.859415,14.80608,0.06725173,-0.09573518,0.1814995,-0.2805608,-3.301357,-0.8529796,0.338477,1.471822,0.4765663,-0.01052457,-0.03591246,-0.1464491,-1.122388,0.3485251,0.002212288,0.4863866,1.50011,0.3299921,-0.0450825,1.409446,0.585493,284.8922,79.07687,194.975,True
4,1.033335,-0.1509695,0.1018225,-0.1323988,4.665887,1.215309,-2.099891,0.2645375,1.314124,0.5690799,-1.172646,-0.03711991,8.56764,14.93465,0.02753954,0.01390561,0.1767045,-0.2821507,-3.28739,-0.8654301,0.3367986,1.471809,0.4772019,0.02039387,-0.01351354,-0.1414149,-1.123675,0.3492365,0.0006844324,0.4846984,1.500206,0.3307521,-0.04732161,1.41,0.586254,284.6745,78.63918,194.8855,True
4,1.044446,-0.1293391,0.004956834,-0.1310395,4.669271,1.215757,-2.0992,0.2629631,1.31462,0.5701895,-1.17329,-0.05838406,8.435014,14.78466,0.003486216,0.1098284,0.1270108,-0.2858051,-3.278221,-0.8733885,0.3350219,1.471881,0.4778287,0.06653748,0.02803808,-0.1056282,-1.123651,0.3511017,-0.00247168,0.4829137,1.500357,0.3315437,-0.04962609,1.410398,0.5873727,284.3716,78.42635,194.8947,True
4,1.055557,-0.1014554,-0.04927282,-0.1309133,4.67189,1.215416,-2.099083,0.2614194,1.315107,0.5711367,-1.173735,-0.04033073,8.514586,14.4204,0.01484986,0.1046214,0.07897861,-0.2867287,-3.278542,-0.8737442,0.3333536,1.471953,0.4784374,0.07746383,0.04825573,-0.07694878,-1.123415,0.3523403,-0.004110856,0.4811344,1.500496,0.3322752,-0.0517016,1.410654,0.5887104,284.1122,78.51041,194.8781,True
4,1.066668,-0.04462404,-0.1684812,-0.157225,4.677989,1.216116,-2.100608,0.2596155,1.315641,0.5722327,-1.17427,-0.04862806,8.806365,13.99186,0.02947893,0.07172957,0.03192297,-0.287174,-3.28295,-0.8703573,0.331664,1.472128,0.4791086,0.06330652,0.07160138,-0.002201224,-1.121017,0.3540284,-0.005169995,0.4791987,1.500734,0.3330817,-0.05345119,1.410798,0.5900887,283.9426,78.77138,194.8289,True
4,1.077779,-0.02430437,-0.1993605,-0.1731315,4.681993,1.215646,-2.101019,0.2579475,1.316031,0.5732527,-1.174709,-0.03987798,9.257293,13.949,0.06055103,-0.01022257,0.02938958,-0.2848176,-3.289224,-0.8661159,0.3298745,1.472397,0.4796784,0.04549211,0.06196771,0.02567171,-1.119849,0.3544827,-0.005335643,0.4772726,1.50092,0.33375,-0.05495202,1.410893,0.5913441,283.8357,79.16198,194.6663,True
4,1.08889,0.00882872,-0.235516,-0.1879739,4.686302,1.215286,-2.102308,0.2563372,1.316276,0.5742228,-1.176192,-0.1354296,9.840847,13.79901,0.06820941,-0.0336822,0.0484547,-0.2832469,-3.288124,-0.8680813,0.3279949,1.472524,0.4802732,0.03597374,0.05342852,0.03108324,-1.119497,0.3547763,-0.005654423,0.4753962,1.501072,0.3344278,-0.0563845,1.411008,0.5924245,283.7946,79.79578,194.2325,True
4,1.100002,0.05476684,-0.2833663,-0.207057,4.691867,1.215208,-2.104417,0.2546685,1.316486,0.5751994,-1.174891,0.1198561,10.47745,14.35612,0.06177568,-0.01239378,0.04961338,-0.2832304,-3.285284,-0.871295,0.325789,1.472701,0.4807279,0.01159924,0.04699936,0.04305006,-1.11863,0.3550719,-0.005169728,0.4734164,1.501276,0.3350909,-0.05793141,1.411038,0.5932437,283.8149,81.14016,193.0119,True
4,1.111113,0.08467301,-0.3109928,-0.2165957,4.696834,1.215062,-2.106268,0.2530318,1.31657,0.576086,-1.17532,-0.04061792,11.16711,15.83458,0.0295365,0.09833127,0.0479638,-0.2867175,-3.272828,-0.8824317,0.3234635,1.472743,0.4811192,-0.01067411,0.05122191,0.05286668,-1.117834,0.3557993,-0.004698615,0.4714586,1.501471,0.3357537,-0.05965817,1.410939,0.5938796,283.7814,82.24899,191.8545,True
4,1.122224,0.09420994,-0.2928301,-0.210278,4.70019,1.214579,-2.10764,0.2513944,1.316716,0.5769289,-1.17592,-0.05462049,11.80371,18.1487,-0.01451741,0.2431173,0.04433694,-0.2921946,-3.255569,-0.8973609,0.321137,1.472703,0.481523,-0.03705339,0.06395373,0.0787205,-1.116058,0.3570736,-0.003911118,0.4693051,1.501693,0.3364289,-0.06148705,1.410604,0.5943727,283.7072,83.33733,190.6732,True
4,1.133335,0.1058703,-0.2639496,-0.1869467,4.70234,1.214581,-2.109201,0.2497659,1.316686,0.5777173,-1.175395,0.04822129,12.20159,21.14849,-0.05324507,0.3261673,0.02030056,-0.2974437,-3.244005,-0.9066801,0.319004,1.4726,0.4820065,-0.02612997,0.07884697,0.1063284,-1.113915,0.358603,-0.004779043,0.467204,1.501904,0.3371058,-0.06340424,1.409927,0.5947407,283.5858,84.58602,189.3365,True
4,1.144446,0.1261162,-0.2617281,-0.1784603,4.705684,1.214635,-2.111254,0.248039,1.316833,0.5785382,-1.174558,0.07584368,12.44032,24.1697,-0.0780026,0.3506641,-0.005027294,-0.3017745,-3.236887,-0.9117278,0.3169288,1.472593,0.4825668,0.005279526,0.06071348,0.1539198,-1.110775,0.3586222,-0.005970008,0.4650386,1.502116,0.3377681,-0.06543547,1.408917,0.5950543,283.3604,85.49561,188.3031,True
4,1.155557,0.1282566,-0.2617098,-0.1752597,4.709144,1.214677,-2.11283,0.2461604,1.317068,0.5793176,-1.174449,0.009228423,12.49337,26.86951,-0.04906586,0.2484773,-0.01397627,-0.3011875,-3.239544,-0.9096879,0.3148729,1.472514,0.4831159,0.03750248,0.04473324,0.1780742,-1.108013,0.3584776,-0.007385478,0.4629077,1.502306,0.3384547,-0.06759722,1.407731,0.5954338,283.0134,85.7814,187.8689,True
4,1.166668,0.09402713,-0.2192059,-0.175348,4.710986,1.213517,-2.112759,0.2441774,1.317149,0.5800741,-1.174745,-0.02724878,12.41379,29.26934,-0.01578289,0.1398986,-0.01445828,-0.2998767,-3.243921,-0.9064367,0.3126901,1.472665,0.4837134,0.06608185,0.05969254,0.1607434,-1.106963,0.3598298,-0.009829993,0.4607346,1.502537,0.3390794,-0.06980583,1.40648,0.5959106,282.6374,85.72513,187.8366,True
4,1.17778,0.07477491,-0.1936849,-0.1700778,-1.570206,1.212729,-2.112942,0.2422505,1.317177,0.5808985,-1.174114,0.05779832,12.30769,31.32633,0.0186376,0.08985415,0.01287198,-0.2986948,-3.242601,-0.9090312,0.3104829,1.472682,0.484272,0.06589629,0.08633652,0.1448025,-1.105891,0.3619209,-0.01145505,0.4585214,1.502717,0.3396738,-0.07208048,1.405272,0.5964724,282.2688,85.96141,187.5952,True
4,1.188891,0.06294651,-0.1542667,-0.157403,-1.569117,1.211938,-2.113401,0.240153,1.317204,0.5817485,-1.172289,0.1662385,12.28117,32.29055,0.02192076,0.09303585,0.02457029,-0.2994703,-3.237843,-0.9138808,0.3081426,1.472692,0.4847903,0.04026061,0.07886288,0.137599,-1.104561,0.3625786,-0.01126198,0.4563445,1.502913,0.3403034,-0.0744645,1.40422,0.5971277,281.9341,86.36577,187.1896,True
4,1.200002,0.05539475,-0.1158673,-0.1351473,-1.568713,1.211278,-2.113774,0.2380846,1.317112,0.582566,-1.172374,-0.009028094,12.33422,32.52625,0.003768459,0.1249427,0.02903705,-0.3011204,-3.23133,-0.9195226,0.305712,1.472517,0.4853597,0.01135922,0.05222002,0.121889,-1.103718,0.3622348,-0.01027128,0.4541091,1.503005,0.340997,-0.076917,1.403458,0.5979537,281.6357,86.58275,186.9327,True
4,1.211113,0.04145386,-0.07964355,-0.1213993,-1.568338,1.210313,-2.113949,0.2360029,1.316988,0.5833127,-1.172502,-0.01181517,12.44032,32.14056,-0.01479587,0.1612224,-0.01868782,-0.3047296,-3.230182,-0.9198239,0.3030891,1.472304,0.4858718,0.009178877,0.05328307,0.1165841,-1.10258,0.3628978,-0.01075811,0.4517798,1.503123,0.3416555,-0.0792658,1.40299,0.5989349,281.4446,86.81853,186.6838,True
4,1.222224,0.0392537,-0.05726907,-0.118274,-1.56781,1.209228,-2.114312,0.2340565,1.316893,0.584023,-1.17201,0.04461947,12.62599,31.41204,-0.02797952,0.180463,-0.06435676,-0.3081927,-3.230632,-0.9186188,0.3005913,1.472219,0.4864135,0.03251271,0.09166235,0.1099912,-1.101621,0.3655406,-0.01311048,0.4494933,1.503328,0.3423462,-0.08148216,1.402778,0.6000589,281.4067,86.96561,186.5769,True
4,1.233335,0.04561384,-0.05088576,-0.128957,-1.566579,1.207825,-2.115142,0.2320802,1.316816,0.5846002,-1.171016,0.08962062,12.78515,31.02635,-0.03659406,0.1655626,-0.08135841,-0.3099792,-3.231568,-0.9171181,0.2981556,1.472117,0.4869082,0.05606264,0.1321451,0.1236404,-1.099781,0.3686976,-0.01614728,0.4471653,1.50356,0.3429234,-0.08353416,1.402696,0.6012687,281.498,87.02634,186.6196,True
4,1.244446,0.07123958,-0.07642362,-0.147013,-1.564016,1.20688,-2.116772,0.2300448,1.316934,0.585201,-1.170093,0.08273014,12.9443,30.83351,-0.05571063,0.1761485,-0.07053774,-0.3120916,-3.227916,-0.919365,0.295743,1.472079,0.4873428,0.06568485,0.1513228,0.1278161,-1.098363,0.3711765,-0.01837128,0.4448001,1.503807,0.3433793,-0.08546663,1.402635,0.6025148,281.6291,87.16824,186.6238,True
4,1.255558,0.106374,-0.06883946,-0.143893,-1.562734,1.205882,-2.119105,0.228083,1.316971,0.5858424,-1.169208,0.07913835,13.02387,30.7478,-0.04561923,0.1643268,-0.008850515,-0.3121827,-3.219877,-0.9268144,0.2934286,1.472054,0.4876766,0.0573405,0.1374495,0.1438681,-1.096267,0.3724649,-0.01932949,0.442441,1.503987,0.3439565,-0.08731006,1.402481,0.6037474,281.7409,87.44781,186.5122,True
4,1.266669,0.1212294,-0.04211096,-0.1290897,-1.562566,1.204844,-2.121,0.2261318,1.316823,0.5865204,-1.168391,0.07271279,13.02387,30.70495,-0.02184737,0.1419336,0.02713844,-0.3120714,-3.214945,-0.9320861,0.2910994,1.471953,0.4881263,0.05532338,0.1203803,0.1534552,-1.094329,0.3731528,-0.02019022,0.4401739,1.503956,0.3446207,-0.08917909,1.402149,0.6049285,281.8106,87.93465,186.2202,True
4,1.27778,0.1105102,-0.02405044,-0.1333947,-1.561995,1.20328,-2.1219,0.2241284,1.316631,0.5871928,-1.167104,0.1153274,12.89124,30.57638,0.02745729,0.1217424,0.05974222,-0.3115408,-3.20903,-0.9396876,0.288612,1.471812,0.4885328,0.05219433,0.1075883,0.158801,-1.092325,0.3740324,-0.02112446,0.4377632,1.504081,0.3451211,-0.09118618,1.401551,0.6060123,281.8068,88.52148,185.7911,True
4,1.288891,0.09344811,-0.0230732,-0.142961,-1.560811,1.201761,-2.122381,0.2220789,1.316424,0.5878813,-1.16432,0.2516814,12.65252,29.91215,0.02849977,0.1334595,0.06082503,-0.3127792,-3.203705,-0.9449636,0.2860413,1.471616,0.4890134,0.04475479,0.115038,0.1610122,-1.090595,0.3759217,-0.02230397,0.4353677,1.504318,0.345881,-0.09335171,1.400586,0.6070201,281.7416,88.69414,185.6657,True
4,1.300002,0.08490082,-0.01993997,-0.1546736,-1.559563,1.200049,-2.123028,0.2199457,1.316145,0.5885749,-1.160647,0.3317152,12.38727,28.94793,-0.02726471,0.1440697,0.01653022,-0.3151596,-3.203352,-0.9430783,0.283362,1.471369,0.4895096,0.02571569,0.1139437,0.1739905,-1.088231,0.3774111,-0.02267788,0.4329212,1.504443,0.3465497,-0.0957218,1.399228,0.6080286,281.5838,88.43607,185.915,True
4,1.311113,0.1179268,-0.02624317,-0.1621466,-1.55823,1.198723,-2.125322,0.2176982,1.31591,0.5892775,-1.157379,0.2939965,12.20159,27.79087,-0.04993278,0.151545,-0.01950028,-0.3174685,-3.203315,-0.9418312,0.2807598,1.471092,0.4899638,0.02887306,0.1011666,0.1696868,-1.086473,0.3781892,-0.02341984,0.4305158,1.504527,0.3471828,-0.09833606,1.397564,0.6091118,281.2729,88.18697,186.1698,True
4,1.322224,0.1467162,-0.04540807,-0.1876936,-1.555661,1.196852,-2.127918,0.2155744,1.315722,0.589875,-1.154658,0.2442978,12.04244,26.52667,-0.05753492,0.1505013,-0.03861981,-0.3194579,-3.203146,-0.9410689,0.2781649,1.470849,0.4903715,0.04589996,0.09905404,0.1673753,-1.084787,0.3793413,-0.02512985,0.4280692,1.504689,0.3479533,-0.101134,1.395709,0.6102914,280.8461,88.03375,186.3582,True
4,1.333336,0.1562026,-0.02843904,-0.2207837,-1.554008,1.193654,-2.129951,0.21347,1.315558,0.5905373,-1.153161,0.1325519,11.98939,25.43389,-0.02965382,0.1366788,-0.01968907,-0.3199037,-3.199878,-0.945027,0.2754349,1.47052,0.4907377,0.06820619,0.1491407,0.1661335,-1.08304,0.3831733,-0.028364,0.4255903,1.504807,0.3485296,-0.1040323,1.39376,0.6115718,280.3969,87.80679,186.6488,True
4,1.344447,0.1144958,0.03545119,-0.1889679,-1.555762,1.191598,-2.129793,0.2113144,1.315309,0.5911162,-1.15012,0.2743725,12.06897,24.38397,-0.01129915,0.1472997,0.01534424,-0.3206467,-3.192601,-0.9525025,0.2726408,1.47017,0.4911175,0.04986814,0.2205124,0.150413,-1.082111,0.3886613,-0.03090172,0.4230494,1.504884,0.3492291,-0.1069215,1.391693,0.6129007,280.0127,87.60731,186.9638,True
4,1.355558,0.1112907,0.05366533,-0.1538677,-1.556583,1.190543,-2.130894,0.2090655,1.315009,0.5917537,-1.145785,0.3911641,12.14854,23.46261,-0.002799764,0.1994959,0.02817007,-0.3235858,-3.183321,-0.9615402,0.2698359,1.469961,0.4914975,0.02540663,0.2535025,0.1592342,-1.079984,0.3930414,-0.03209908,0.420495,1.504902,0.3499899,-0.1097447,1.389445,0.6142543,279.6251,87.74428,186.9388,True
4,1.366669,0.1582589,0.05834136,-0.07511454,-1.558212,1.191835,-2.134335,0.2068703,1.314635,0.5921879,-1.13959,0.5603922,12.25464,22.75552,0.007073998,0.2367067,0.07717852,-0.3253515,-3.169929,-0.9745726,0.2671018,1.469714,0.4920077,0.02239628,0.2641354,0.1773808,-1.077524,0.3968559,-0.0341601,0.4178249,1.504949,0.3506958,-0.1125658,1.387121,0.6157767,279.1802,87.33258,187.3877,True
4,1.37778,0.2489369,0.04819854,-0.01129494,-1.559529,1.193605,-2.140394,0.2047324,1.314259,0.5922475,-1.136633,0.2629244,12.25464,22.3484,0.007033572,0.2399113,0.07292406,-0.3272721,-3.16338,-0.980864,0.2644609,1.469428,0.4924903,0.0450756,0.244949,0.2080311,-1.074141,0.3992146,-0.03629595,0.4152283,1.505082,0.3515065,-0.1154143,1.384961,0.6175084,278.7059,85.14692,189.6886,True
4,1.388891,0.2648709,0.06854524,0.005654469,-1.560913,1.193143,-2.143678,0.2028257,1.313879,0.5920589,-1.134938,0.1500833,12.12201,21.98414,-0.05524862,0.2377657,0.00841485,-0.330624,-3.165058,-0.9764048,0.2619259,1.469102,0.4929094,0.06810713,0.2108222,0.2684836,-1.069151,0.4008521,-0.03867123,0.4126528,1.505232,0.3522935,-0.1181496,1.382989,0.6192248,278.3608,82.63759,192.4938,True
4,1.400002,0.1857758,0.1503312,0.01189364,-1.564839,1.191002,-2.143116,0.2009664,1.313207,0.5917699,-1.133404,0.1359236,11.93634,21.61988,-0.1354735,0.2280809,-0.03679591,-0.3335551,-3.166451,-0.970691,0.2596924,1.468608,0.4932172,0.09408149,0.1905594,0.3065563,-1.064359,0.4026091,-0.04140709,0.4100763,1.505408,0.3529348,-0.1205998,1.381007,0.6205381,278.2354,79.98779,195.5606,True
4,1.411114,0.05889872,0.2076256,0.06941843,-1.569805,1.190998,-2.139543,0.1986039,1.312439,0.5917573,-1.12639,0.6369582,11.75066,21.2342,-0.1538323,0.2834657,-0.05145799,-0.3383429,-3.160077,-0.9744576,0.2575045,1.468192,0.4935262,0.1494849,0.1618495,0.304888,-1.061233,0.4037697,-0.04551902,0.407689,1.50559,0.3533561,-0.1228219,1.378729,0.621177,278.2421,78.05271,197.85,True
4,1.422225,0.01633265,0.2097329,0.1056937,4.710035,1.191746,-2.138236,0.1961622,1.311857,0.5918891,-1.117909,0.7668963,11.61804,20.89137,-0.08833155,0.2739003,0.01299934,-0.3393847,-3.149695,-0.9855145,0.255505,1.467943,0.4938786,0.1894526,0.1459614,0.2533231,-1.060292,0.4050312,-0.04969086,0.4054765,1.505713,0.3538201,-0.1251144,1.376172,0.6212847,278.0668,76.28381,199.6664,True
4,1.433336,0.02822618,0.176886,0.146271,4.707798,1.193885,-2.139442,0.1932975,1.311362,0.5922296,-1.110607,0.6587122,11.56498,20.65567,-0.05070919,0.2142836,0.03815227,-0.338908,-3.14596,-0.9897894,0.2533038,1.467654,0.4941747,0.2047517,0.1215393,0.186024,-1.060555,0.4056267,-0.05251461,0.4031761,1.505869,0.3541982,-0.127753,1.37371,0.6212554,277.7113,73.18564,202.5439,True
4,1.444447,0.05485783,0.1780447,0.1462265,4.705259,1.194014,-2.141023,0.1909635,1.311143,0.5923915,-1.109013,0.138296,11.69761,20.29141,-0.01813192,-0.006175581,0.05022849,-0.3325084,-3.156324,-0.9806707,0.2510696,1.467646,0.4944487,0.1774306,0.09602102,0.1170276,-1.061476,0.405867,-0.05359399,0.4010372,1.505931,0.3545659,-0.1308804,1.371813,0.6212923,277.3372,68.68762,206.8295,True
4,1.455558,0.05262749,0.2014252,0.131239,4.702154,1.193148,-2.141553,0.1887166,1.31077,0.592406,-1.108164,0.07433683,11.85676,19.75573,-0.0104675,-0.07967154,0.05428098,-0.3292945,-3.160202,-0.9771444,0.2486334,1.467488,0.4947016,0.1343948,0.08430625,0.07484753,-1.062062,0.4064533,-0.05389386,0.3988218,1.506003,0.3549902,-0.1342044,1.370552,0.6212961,277.1235,65.52608,209.884,True
4,1.466669,0.04191739,0.189467,0.06845479,4.701349,1.191237,-2.141495,0.1867339,1.310512,0.5922654,-1.104891,0.2958346,12.06897,19.07007,-0.03663234,-0.02421675,-0.005058499,-0.332093,-3.161906,-0.9741018,0.2459078,1.467302,0.4948831,0.05406336,0.1130359,0.03521629,-1.063207,0.4089923,-0.05293272,0.3966203,1.506166,0.3554502,-0.1374815,1.369673,0.6211491,277.1214,64.3285,210.9675,True
4,1.47778,0.05583159,0.1596087,0.04509528,4.700891,1.190586,-2.142576,0.1845592,1.310235,0.5923181,-1.099923,0.4488458,12.22811,18.25584,-0.08305293,0.068458,-0.05564823,-0.3367434,-3.161061,-0.9723619,0.2433118,1.467157,0.4950135,0.0128257,0.1672896,0.07192467,-1.061169,0.4134737,-0.05368001,0.3943979,1.506263,0.3560116,-0.1404019,1.368868,0.6209001,277.1757,63.83525,211.2345,True
4,1.488891,0.1327346,0.08627417,0.01645922,4.702386,1.190767,-2.14667,0.1825607,1.309985,0.5922434,-1.095428,0.4046843,12.28117,17.33447,-0.1932674,0.1609455,-0.08976969,-0.3420346,-3.158101,-0.9693267,0.2406503,1.467069,0.4949179,0.02923138,0.1896338,0.1143855,-1.058582,0.4169404,-0.05654983,0.3921135,1.506421,0.3565183,-0.1429491,1.368004,0.6207544,277.2153,63.35865,211.4889,True
4,1.500003,0.2319678,-0.001040988,-0.07288589,4.706931,1.189199,-2.152575,0.1804776,1.309861,0.592334,-1.092894,0.2260047,12.09549,16.39169,-0.2305272,0.1885299,-0.0777078,-0.3447643,-3.154193,-0.969234,0.2381529,1.466942,0.4948187,0.0646888,0.2119974,0.1470821,-1.055802,0.4205003,-0.06025322,0.3897439,1.50663,0.3569996,-0.1451901,1.36705,0.6208614,277.1489,63.19886,211.547,True
4,1.511114,0.3014695,-0.1097167,-0.1514637,-1.570259,1.188206,-2.158117,0.1782834,1.309526,0.5925646,-1.092386,0.04222247,11.80371,15.40604,-0.23658,0.223551,-0.02218667,-0.3465476,-3.144325,-0.9758791,0.2357616,1.46683,0.4945757,0.08291459,0.2450174,0.1618358,-1.053998,0.424846,-0.06383491,0.3875112,1.506831,0.3574238,-0.1472681,1.365959,0.621236,277.1117,63.07777,211.745,True
4,1.522225,0.3069279,-0.1566269,-0.1683639,-1.566141,1.188011,-2.161711,0.1762699,1.309226,0.5928421,-1.090653,0.155488,11.43236,14.35612,-0.2072932,0.2064465,0.04040718,-0.3465092,-3.135103,-0.9832798,0.2332207,1.466686,0.4943562,0.06699252,0.2780175,0.1705566,-1.052042,0.42987,-0.06653429,0.3853065,1.506965,0.3577504,-0.1492117,1.36445,0.6216965,277.0946,63.94838,211.1085,True
4,1.533336,0.2419728,-0.1632248,-0.1693072,-1.563921,1.187601,-2.162054,0.1743834,1.30876,0.593215,-1.086496,0.376003,11.06101,13.34904,-0.1610608,0.204303,0.09544358,-0.3464879,-3.12479,-0.9928877,0.2306236,1.466379,0.4942496,0.01335087,0.3099587,0.137049,-1.051987,0.4349184,-0.06734016,0.3831611,1.506987,0.3579814,-0.1512965,1.362245,0.6222622,276.9548,66.16322,209.0964,True
4,1.544447,0.1279434,-0.1336336,-0.1255556,-1.563789,1.187915,-2.159559,0.1724863,1.308124,0.5935566,-1.080726,0.5217631,10.82228,12.49196,-0.1413217,0.2800645,0.05389254,-0.351769,-3.118323,-0.9980255,0.2279967,1.465987,0.4943376,-0.03243685,0.3333501,0.1407346,-1.050754,0.4401859,-0.06816414,0.3808653,1.507113,0.3583295,-0.1536804,1.359184,0.6229597,276.624,67.16548,208.2035,True
4,1.555558,0.084315,-0.1347447,-0.09459476,-1.562535,1.188788,-2.158944,0.1705793,1.307626,0.5937414,-1.073946,0.6133769,10.55703,11.82773,-0.1381775,0.3740554,-0.06204728,-0.3604418,-3.118088,-0.9967248,0.2256508,1.46544,0.494504,-0.04050101,0.3226395,0.1855569,-1.047251,0.4440874,-0.06935031,0.3786611,1.507146,0.3587382,-0.1563605,1.355442,0.62377,276.043,64.07153,211.3561,True
4,1.566669,0.09510651,-0.1665983,-0.07320407,-1.559949,1.190392,-2.160387,0.1686414,1.307372,0.5937393,-1.068012,0.5358459,10.26525,11.42061,-0.1387084,0.3763182,-0.1312931,-0.3657676,-3.121127,-0.9923695,0.223293,1.465037,0.4947243,0.009508252,0.2682645,0.2776703,-1.041006,0.445905,-0.07223398,0.3763962,1.507282,0.3590806,-0.1592595,1.3515,0.6246689,275.3179,56.05996,219.4341,True
4,1.577781,0.1793818,-0.2121859,-0.09341136,-1.555693,1.191187,-2.165554,0.1667376,1.307254,0.5936983,-1.06725,0.06398489,9.94695,11.20634,-0.1600721,0.2666278,-0.172903,-0.3668835,-3.130852,-0.9807176,0.2213878,1.464692,0.4947784,0.08987421,0.2001142,0.3172603,-1.036172,0.4461499,-0.07607985,0.3742963,1.507391,0.3591888,-0.1622096,1.347983,0.6255281,274.7325,43.80061,231.8512,True
4,1.588892,0.2380843,-0.2546432,-0.1189256,-1.551478,1.191463,-2.170177,0.1645031,1.30723,0.5937111,-1.067475,-0.02190016,9.655171,11.12063,-0.1710873,0.1258943,-0.1262335,-0.3638325,-3.134696,-0.974889,0.219414,1.464519,0.4946332,0.138864,0.1660792,0.3124615,-1.033163,0.4474952,-0.07977685,0.3722342,1.507458,0.3593144,-0.1649134,1.34525,0.6260713,274.3959,32.87703,243.0234,True
4,1.600003,0.2317197,-0.2631905,-0.1199541,-1.548028,1.192132,-2.172573,0.1623185,1.307076,0.5939031,-1.069378,-0.1751314,9.257293,11.35633,-0.1380428,0.02454306,-0.01696709,-0.3590772,-3.131619,-0.9773679,0.2175014,1.464399,0.4944615,0.1363911,0.1693074,0.2794642,-1.031299,0.4499741,-0.08253722,0.3703362,1.507421,0.3594143,-0.167224,1.34334,0.626074,274.1602,27.30838,248.7904,True
4,1.611114,0.191267,-0.2579084,-0.0911516,-1.545923,1.193505,-2.173286,0.1602177,1.306841,0.5940452,-1.06715,0.2039165,8.885942,11.61346,-0.08747105,0.02665901,0.04870331,-0.35829,-3.123968,-0.9852708,0.2152838,1.464095,0.4942689,0.106111,0.1725269,0.2361055,-1.030219,0.4526314,-0.0838941,0.3682801,1.507388,0.3595703,-0.169212,1.341973,0.6255584,273.8922,28.95507,247.1272,True
4,1.622225,0.1240136,-0.2090758,-0.07416663,-1.54505,1.193761,-2.172554,0.1581509,1.306383,0.5940948,-1.062944,0.3814438,8.56764,11.78487,-0.0727613,0.03313673,0.02410068,-0.3590868,-3.124397,-0.9845794,0.2130257,1.463738,0.4940858,0.0306375,0.182134,0.1495321,-1.03172,0.4552317,-0.08297931,0.366404,1.507391,0.3597076,-0.171272,1.340885,0.6248097,273.6771,33.85905,241.9779,True
4,1.633336,0.08439759,-0.1516649,-0.07962,-1.545017,1.192466,-2.172287,0.1562749,1.306122,0.5942013,-1.059529,0.3081461,8.249334,11.82773,-0.1264189,0.0948665,-0.00732134,-0.3626757,-3.122854,-0.9825498,0.2105889,1.463245,0.4938774,-0.01895373,0.1896052,0.09357823,-1.032744,0.4578893,-0.08243229,0.3644463,1.507566,0.3600438,-0.1735444,1.339913,0.6240528,273.5376,37.08676,238.4111,True
4,1.644447,0.02349338,-0.1018228,-0.0871486,-1.544668,1.19117,-2.170581,0.1543067,1.305642,0.5942762,-1.056932,0.2344844,8.090186,11.61346,-0.1681987,0.1650929,-0.01537828,-0.3662896,-3.117101,-0.9846804,0.2079901,1.462576,0.4937475,0.002143025,0.1939102,0.07312141,-1.032724,0.4606038,-0.08467521,0.3623908,1.507595,0.3604252,-0.1759643,1.339026,0.6233703,273.4343,37.10184,238.1148,True
4,1.655559,-0.009607019,-0.07851157,-0.09143751,-1.543899,1.190288,-2.169476,0.1521688,1.30528,0.5944057,-1.056616,0.0268381,8.01061,11.16349,-0.1908639,0.215159,-0.03853688,-0.3701879,-3.113637,-0.9851922,0.2055942,1.462039,0.4936593,0.0309598,0.2003265,0.07922776,-1.031649,0.4636242,-0.08763131,0.3602276,1.507576,0.3607974,-0.1784175,1.33829,0.6228635,273.3141,34.77785,240.1963,True
4,1.66667,-0.0468305,-0.09459933,-0.08600514,-1.542154,1.190519,-2.167611,0.1500156,1.30504,0.5946476,-1.054768,0.1686166,7.984083,10.49925,-0.2104329,0.2503486,-0.07879017,-0.3745608,-3.11266,-0.9831837,0.2033377,1.46161,0.4936559,0.08157541,0.2312124,0.1351966,-1.028625,0.4682371,-0.09256509,0.3581757,1.507538,0.3611336,-0.1807179,1.337759,0.6226811,273.1863,32.80502,241.9573,True
4,1.677781,-0.05088357,-0.1456685,-0.06133287,-1.53951,1.192522,-2.166873,0.1477752,1.304979,0.5949373,-1.054866,-0.01065176,8.01061,9.577887,-0.2230109,0.2055494,-0.06600098,-0.3755094,-3.112174,-0.9807256,0.2012749,1.461202,0.4936335,0.1236782,0.2887169,0.1944829,-1.024986,0.4746626,-0.09866639,0.3560891,1.507515,0.3615575,-0.1828654,1.337478,0.6229147,273.1041,32.39355,242.3008,True
4,1.688892,-0.03269667,-0.1776248,-0.08149373,-1.536168,1.192997,-2.167359,0.1455927,1.30496,0.5951104,-1.053912,0.08733304,8.063659,8.442253,-0.2185942,0.1629308,-0.05866034,-0.3758977,-3.112185,-0.9784054,0.1993829,1.460664,0.4935577,0.1365823,0.2972412,0.207139,-1.022861,0.4790713,-0.1027125,0.3542499,1.507411,0.3619325,-0.1849022,1.337448,0.6235105,273.079,34.10941,240.7028,True
4,1.700003,-0.01670123,-0.1936429,-0.1102281,-1.532673,1.192701,-2.167794,0.1434671,1.304968,0.5954177,-1.054703,-0.07322261,8.01061,7.306619,-0.1624931,0.0383144,-0.006082071,-0.3721267,-3.114491,-0.9762171,0.1974621,1.460439,0.4934688,0.1417974,0.2759537,0.1942793,-1.021308,0.482158,-0.1061131,0.352329,1.507328,0.3622522,-0.1868653,1.337636,0.6242642,273.0853,36.41226,238.6736,True
4,1.711114,-0.04982052,-0.1714303,-0.1251651,-1.530739,1.191762,-2.166134,0.1414955,1.304772,0.5957861,-1.055849,-0.1042337,7.984083,6.299549,-0.1245926,-0.007540897,0.05958888,-0.3693453,-3.110148,-0.9800598,0.195342,1.459969,0.4933956,0.1360367,0.256801,0.1506441,-1.021357,0.484387,-0.1084796,0.3504774,1.50737,0.3625658,-0.188784,1.337953,0.6248793,273.0924,39.9988,235.422,True
4,1.722225,-0.1340483,-0.1514637,-0.1251167,-1.529204,1.191028,-2.161869,0.139413,1.30414,0.5955205,-1.055637,0.02009635,8.01061,5.442467,-0.08282433,-0.01601673,0.08588177,-0.3679881,-3.106559,-0.9838076,0.1930487,1.4594,0.4932814,0.1033573,0.2451259,0.07958904,-1.023213,0.4868504,-0.1097886,0.3485954,1.507209,0.3628697,-0.1906885,1.338221,0.6252409,273.0505,45.62303,229.988,True
4,1.733337,-0.1895318,-0.1218077,-0.1229965,-1.528292,1.190172,-2.158093,0.1372805,1.303706,0.5959194,-1.053271,0.2158344,8.116709,4.735374,-0.08957628,0.03729533,0.05621536,-0.3703029,-3.104201,-0.9846047,0.1906802,1.458784,0.4932246,0.04566085,0.2621012,0.06113745,-1.023527,0.4906419,-0.1107294,0.3466682,1.50706,0.3631098,-0.1926326,1.338303,0.6254489,272.984,51.42572,224.134,True
4,1.744448,-0.2289723,-0.1069447,-0.1048787,-1.527712,1.189857,-2.154297,0.13514,1.30328,0.596241,-1.050378,0.2626432,8.328911,4.178273,-0.1190275,0.1353531,-0.001953872,-0.3757134,-3.101498,-0.9846482,0.1882823,1.458018,0.4932494,0.04799367,0.2748796,0.08553283,-1.021802,0.4950173,-0.1134443,0.344787,1.506801,0.3635759,-0.1946373,1.338206,0.6256502,272.9547,54.6072,220.859,True
4,1.755559,-0.2055305,-0.1143683,-0.1197965,-1.525458,1.189302,-2.152826,0.1329066,1.303043,0.5964174,-1.050791,-0.03966256,8.673739,3.685451,-0.1665394,0.155631,-0.07824625,-0.3794515,-3.105477,-0.9775375,0.1860571,1.457115,0.4932785,0.09315822,0.2887266,0.1276978,-1.019455,0.4996907,-0.118353,0.342872,1.506626,0.3639736,-0.1967672,1.33809,0.6258441,272.8922,54.99815,220.4787,True
4,1.76667,-0.1746535,-0.1185924,-0.1411338,-1.522967,1.188179,-2.151893,0.1306407,1.302855,0.5967124,-1.051105,-0.02794844,9.098145,3.25691,-0.2028271,0.1491753,-0.08863482,-0.3811495,-3.106104,-0.9736304,0.1838578,1.456379,0.4933329,0.1434661,0.3004738,0.15062,-1.017688,0.5044542,-0.1243129,0.3409709,1.506539,0.36444,-0.1990414,1.338167,0.6261001,272.786,54.78555,220.6468,True
4,1.777781,-0.1382792,-0.1674996,-0.1495531,-1.518968,1.188363,-2.15169,0.1281048,1.302541,0.5972123,-1.053633,-0.2307596,9.628648,2.892651,-0.2149759,0.1479112,-0.006513343,-0.381035,-3.097949,-0.9783692,0.1817276,1.455678,0.4934065,0.2001009,0.2770612,0.1660107,-1.015517,0.5072396,-0.1298416,0.3391614,1.506185,0.3649166,-0.2013259,1.338519,0.626379,272.7181,55.49861,219.9338,True
4,1.788892,-0.152066,-0.1749244,-0.1249956,-1.517022,1.189253,-2.149564,0.1258047,1.302102,0.5976458,-1.054458,-0.07352043,10.2122,2.571245,-0.1931526,0.139304,0.05828885,-0.3804517,-3.089638,-0.9848157,0.1798046,1.45491,0.4933946,0.1937575,0.2631805,0.1713966,-1.013793,0.5100128,-0.1327908,0.337376,1.505634,0.3653517,-0.2035161,1.339043,0.6266232,272.7084,60.89589,214.5701,True
4,1.800003,-0.1946586,-0.1514159,-0.05682925,-1.517167,1.191119,-2.146106,0.12331,1.301255,0.5981753,-1.05502,-0.05105304,10.68966,2.206983,-0.1438637,0.1531857,0.09948558,-0.3808469,-3.080618,-0.9933319,0.1778384,1.45396,0.4935141,0.1660681,0.2674139,0.1727503,-1.012261,0.5138957,-0.1357517,0.3355677,1.505255,0.3657563,-0.2056641,1.339572,0.6268956,272.8151,69.18143,206.2788,True
4,1.811115,-0.2245236,-0.1204744,-0.007894002,-1.517657,1.19238,-2.142635,0.1210124,1.300294,0.5979252,-1.052949,0.1895745,11.08753,1.649881,-0.1215445,0.0829881,0.07041161,-0.3799063,-3.08344,-0.9900621,0.175749,1.453064,0.4937344,0.1714453,0.271647,0.1769845,-1.010313,0.5175731,-0.139907,0.333666,1.504969,0.3657863,-0.2078447,1.339878,0.6271904,273.0417,76.92501,198.5225,True
4,1.822226,-0.2673349,-0.05344564,0.01219396,-1.519367,1.192168,-2.138227,0.1185722,1.299199,0.5979004,-1.051314,0.1477498,11.35279,0.8785067,-0.1333354,0.02016583,0.04160777,-0.378555,-3.087624,-0.9842505,0.1737776,1.452015,0.4940648,0.1940985,0.2492695,0.2022965,-1.00748,0.5204725,-0.1444107,0.331921,1.504656,0.3662081,-0.2100791,1.339906,0.627453,273.2377,79.36762,196.0739,True
4,1.833337,-0.2673904,-0.03318142,0.01958502,-1.519754,1.192338,-2.135317,0.1162261,1.298486,0.5980096,-1.051329,-0.002379814,11.51194,0,-0.1612629,0.01057841,0.008788757,-0.3789646,-3.089492,-0.9797205,0.1717681,1.451159,0.4943821,0.2194416,0.207747,0.1764498,-1.006098,0.5214321,-0.1482819,0.3300812,1.504474,0.3665779,-0.2124266,1.339752,0.6275802,273.3701,77.83236,197.6977,True
4,1.844448,-0.2204633,-0.03075244,0.06212132,-1.520631,1.19421,-2.13459,0.1138853,1.297788,0.5980489,-1.050719,0.05609826,11.56498,0,-0.2316387,-0.03003021,-0.0120618,-0.3781289,-3.094063,-0.9703885,0.1700144,1.450315,0.4948416,0.223643,0.2013662,0.1700076,-1.004744,0.5241078,-0.1523424,0.3282999,1.504158,0.3670115,-0.2147706,1.339493,0.6273889,273.433,76.0974,199.557,True
4,1.855559,-0.1777765,-0.02935947,0.118522,-1.522185,1.197078,-2.134166,0.111619,1.297292,0.5980864,-1.052336,-0.1481952,11.43236,0,-0.2561325,-0.07799543,-0.02581963,-0.3764181,-3.09951,-0.9616597,0.1682571,1.449406,0.4951036,0.2637515,0.158842,0.1301379,-1.004711,0.5246775,-0.1567867,0.3267421,1.503965,0.3685648,-0.2172354,1.339339,0.6270072,273.4166,75.1529,200.4303,True
4,1.86667,-0.1809287,-0.02712582,0.155795,-1.523341,1.199544,-2.132009,0.1096368,1.29673,0.5980899,-1.054685,-0.2133694,11.22016,0,-0.2388159,-0.1195473,-0.003666058,-0.373634,-3.102287,-0.9571348,0.1667816,1.448554,0.4954374,0.2825995,0.1365676,0.095807,-1.005188,0.5262668,-0.161325,0.3251913,1.503378,0.3693669,-0.2196728,1.339366,0.6265014,273.3943,75.66283,199.7323,True
4,1.877781,-0.2246636,0.004795611,0.1909119,-1.526106,1.201773,-2.128118,0.1077505,1.295827,0.5980897,-1.055043,-0.0311186,10.98143,0,-0.2034815,-0.1173767,0.01950491,-0.3720921,-3.101365,-0.9572522,0.1652332,1.447885,0.4957736,0.2895532,0.1270415,0.04565389,-1.006558,0.5272543,-0.1653266,0.32359,1.50301,0.3701499,-0.22193,1.339468,0.6258265,273.524,76.00277,199.2218,True
4,1.888893,-0.2663073,0.04413223,0.2132183,-1.529108,1.203378,-2.123899,0.1058425,1.294701,0.5981512,-1.053164,0.1716926,10.74271,0,-0.2045549,-0.1141859,0.01951767,-0.3710827,-3.102797,-0.9535997,0.1636351,1.447078,0.4960892,0.2817022,0.1462816,0.007382557,-1.008321,0.5303269,-0.1698977,0.3219411,1.503027,0.3711607,-0.2240193,1.339545,0.6249368,273.7271,75.61547,199.4649,True
4,1.900004,-0.2695422,0.06013443,0.2238253,-1.531609,1.205152,-2.120852,0.1040735,1.293708,0.5982695,-1.051214,0.1767948,10.58355,0,-0.174941,-0.09064062,-0.000897944,-0.3713762,-3.104725,-0.9508878,0.1624337,1.446059,0.4964309,0.291774,0.1942858,-0.04487187,-1.011241,0.5342975,-0.1754762,0.3204701,1.502637,0.3720152,-0.2259672,1.339587,0.6238627,273.879,75.41534,199.4606,True
4,1.911115,-0.2524957,0.05590601,0.2152897,-1.532961,1.206631,-2.118854,0.1021964,1.292786,0.5984502,-1.051135,0.006245196,10.4244,0,-0.1718989,-0.08207637,-0.01795153,-0.3713911,-3.107638,-0.9463729,0.1609377,1.445147,0.4967558,0.318293,0.212493,-0.0558112,-1.012946,0.5384555,-0.1822984,0.319006,1.502114,0.3727453,-0.227846,1.339724,0.6227442,274.0193,74.75107,199.8316,True
4,1.922226,-0.2098362,0.02288526,0.1705901,-1.532393,1.207382,-2.11803,0.100431,1.291941,0.5987754,-1.052988,-0.1686252,10.23872,0,-0.1656981,-0.05539444,-0.03498749,-0.3722465,-3.109589,-0.9430009,0.1594371,1.443928,0.4972575,0.3695027,0.225363,-0.04996336,-1.014054,0.5425075,-0.190632,0.3175548,1.501587,0.373317,-0.229664,1.340064,0.6217266,274.1858,74.49361,199.7698,True
4,1.933337,-0.1799355,-0.01229337,0.1354998,-1.531125,1.208402,-2.11715,0.09869638,1.290998,0.5989008,-1.055009,-0.1825557,10.07958,0,-0.1648167,-0.07237269,-0.06379219,-0.3721336,-3.115086,-0.9359847,0.1579543,1.442842,0.497556,0.3941647,0.2264379,-0.03317629,-1.014403,0.5454801,-0.1972436,0.3161082,1.501175,0.3739965,-0.2313385,1.340594,0.6208782,274.4094,75.40187,198.5955,True
4,1.944448,-0.1436183,-0.06025319,0.08979145,-1.528635,1.209074,-2.11696,0.09720108,1.290146,0.5993457,-1.057162,-0.1947493,9.973473,0,-0.1605979,-0.133035,-0.08845134,-0.3703083,-3.125272,-0.924845,0.156352,1.441866,0.497911,0.388003,0.2253846,-0.01183698,-1.01457,0.5491012,-0.2032895,0.3147428,1.500726,0.3743062,-0.2328998,1.341208,0.6202608,274.7073,77.9352,195.8685,True
4,1.955559,-0.1255658,-0.07104248,0.03013135,-1.526698,1.208249,-2.115959,0.09610134,1.289288,0.5997071,-1.058212,-0.093573,9.814323,0,-0.1393309,-0.1425574,-0.09715468,-0.369536,-3.13137,-0.9184121,0.1548534,1.440896,0.4981802,0.3115269,0.2359401,0.01133697,-1.014287,0.5527022,-0.2062102,0.3134661,1.500268,0.374831,-0.2343063,1.341688,0.6199071,275.0613,81.50647,192.176,True
4,1.966671,-0.1256173,-0.06794588,0.001366083,-1.525797,1.207969,-2.114497,0.09447882,1.288126,0.6001055,-1.060081,-0.1692029,9.787797,0,-0.1086933,-0.1157998,-0.1218411,-0.3706987,-3.136617,-0.9134307,0.1531983,1.439909,0.4985681,0.2870941,0.2444662,0.01690634,-1.014789,0.5567539,-0.2109572,0.3121106,1.499833,0.3753958,-0.2355689,1.341864,0.6197799,275.3872,84.47018,189.1775,True
4,1.977782,-0.09265774,-0.06260825,-0.03065762,-1.524656,1.206948,-2.114496,0.09309807,1.287103,0.6006792,-1.060812,-0.06422379,9.8939,0,-0.113613,-0.02088672,-0.1780674,-0.3753885,-3.139878,-0.9090069,0.1516135,1.438967,0.4988995,0.1989671,0.2816229,0.05088569,-1.013944,0.5620988,-0.2126121,0.3109412,1.499553,0.3759232,-0.2366683,1.341637,0.6198729,275.5771,87.0482,186.5551,True
4,1.988893,-0.02864729,-0.1008471,-0.06045527,-1.521553,1.207018,-2.116516,0.09176174,1.286053,0.6012216,-1.061899,-0.097696,10.1061,0.9427885,-0.1157494,-0.003861457,-0.1726838,-0.3766093,-3.142666,-0.9049232,0.1500862,1.437918,0.49933,0.1885755,0.27946,0.07549357,-1.01304,0.5659284,-0.2166692,0.309648,1.499384,0.3767338,-0.2376754,1.341087,0.620272,275.6283,88.66717,184.9166,True
4,2.000004,0.03740929,-0.1231415,-0.1073534,-1.518121,1.20568,-2.119329,0.09072265,1.28519,0.6017439,-1.065198,-0.2993596,10.50398,1.971287,-0.1391724,-0.009244382,-0.1725143,-0.3774818,-3.147251,-0.8983894,0.1486239,1.436856,0.4995928,0.2040051,0.259188,0.1232552,-1.010507,0.5692082,-0.2212245,0.3084075,1.49903,0.3773954,-0.2388568,1.340409,0.6210231,275.6364,89.11291,184.5526,True
4,2.011115,0.05659006,-0.130601,-0.1254636,-1.515651,1.205042,-2.120477,0.08973476,1.284201,0.6022284,-1.069232,-0.364801,11.03448,2.935504,-0.1648983,0.01309259,-0.1861227,-0.37973,-3.151304,-0.8919062,0.1471141,1.435899,0.4999714,0.2278523,0.257035,0.1635015,-1.007973,0.5730873,-0.2266164,0.3072081,1.498678,0.3781815,-0.2400556,1.33961,0.6220124,275.6328,89.80791,184.0247,True
4,2.022226,0.06722049,-0.1263278,-0.1308215,-1.513633,1.204378,-2.121444,0.08884895,1.283145,0.6026912,-1.072144,-0.2619706,11.67109,3.749732,-0.1786669,0.03113629,-0.1699995,-0.3813514,-3.152456,-0.8882985,0.1458119,1.435022,0.5002866,0.2438878,0.2794087,0.1708128,-1.006888,0.5780432,-0.2324838,0.3061171,1.498246,0.3788955,-0.2410998,1.33854,0.623026,275.656,91.48966,182.5713,True
4,2.033337,0.08102253,-0.1124092,-0.1244945,-1.512424,1.203767,-2.122679,0.08803126,1.282192,0.6032214,-1.072423,-0.02201305,12.36074,4.478251,-0.1388873,0.0524279,-0.1159301,-0.381917,-3.148765,-0.8916023,0.1447455,1.434096,0.5006402,0.2480263,0.2804879,0.1590498,-1.0063,0.58202,-0.2374986,0.3049336,1.497817,0.3795958,-0.2419567,1.337137,0.6240088,275.6264,93.37479,180.8519,True
4,2.044448,0.07991746,-0.09532771,-0.1117634,-1.511645,1.203367,-2.123509,0.08721855,1.281078,0.6037993,-1.074142,-0.1556534,13.07692,5.163915,-0.06438435,-0.03041641,-0.1507675,-0.3813487,-3.160027,-0.8829522,0.1437385,1.433015,0.5009203,0.2550835,0.2645451,0.119537,-1.006962,0.5845587,-0.241843,0.3039103,1.497425,0.3802681,-0.242745,1.335533,0.624948,275.476,94.06752,180.2971,True
4,2.055559,0.04890523,-0.06349818,-0.1192705,-1.511102,1.201924,-2.122927,0.08609888,1.279822,0.6044996,-1.076679,-0.2288683,13.63395,5.571031,-0.03314349,-0.1294418,-0.1373681,-0.3783404,-3.171307,-0.8731978,0.1425878,1.431514,0.501276,0.2406029,0.2464824,0.0568134,-1.008949,0.5865521,-0.2451112,0.3029414,1.497034,0.380928,-0.2435172,1.333926,0.6258027,275.2405,94.16723,180.319,True
4,2.06667,0.01369361,-0.04871305,-0.1224633,-1.510242,1.200684,-2.121842,0.08499697,1.278611,0.605207,-1.078706,-0.1816156,14.03183,5.828155,-0.03873086,-0.0729635,-0.1531929,-0.3807074,-3.173947,-0.8699724,0.1415195,1.43016,0.5017717,0.2241912,0.265681,0.01651128,-1.011093,0.5904611,-0.2491502,0.3019976,1.496661,0.3815691,-0.2442826,1.33248,0.6265566,275.0213,94.15276,180.4085,True
4,2.077781,-0.06521855,-0.02447401,-0.1202954,-1.510029,1.199298,-2.118296,0.08371457,1.27733,0.6060483,-1.079866,-0.1028031,14.32361,5.999572,-0.04009156,-0.01113706,-0.1722285,-0.3842883,-3.174913,-0.8685069,0.140193,1.429064,0.5023324,0.210156,0.2411777,-0.002540193,-1.012189,0.5925069,-0.2518842,0.3011685,1.496214,0.3821459,-0.2450969,1.331301,0.6272367,274.9338,94.54755,180.0321,True
4,2.088892,-0.1046927,0.001010723,-0.1000819,-1.510395,1.198591,-2.115839,0.08271053,1.276212,0.60659,-1.081944,-0.1871624,14.48276,6.128132,-0.05084823,-0.003683716,-0.1827879,-0.3860513,-3.179614,-0.8631412,0.1389277,1.428082,0.5029709,0.2122301,0.1719533,-0.01541695,-1.012551,0.5918472,-0.2541127,0.3002085,1.495552,0.3827631,-0.2461001,1.330509,0.6279672,274.9594,95.55224,178.9916,True
4,2.100003,-0.130241,0.01490894,-0.05428182,-1.511365,1.199161,-2.113583,0.08165845,1.275343,0.6072643,-1.082392,-0.03725758,14.58886,6.363831,-0.1061156,-0.09966826,-0.1964092,-0.3843336,-3.19242,-0.8481162,0.1378496,1.426999,0.503613,0.2188244,0.1112244,-0.001694091,-1.011886,0.5908289,-0.2562017,0.2993663,1.495025,0.3835196,-0.2471909,1.330127,0.6287798,275.0769,96.91134,177.586,True
4,2.111114,-0.1089045,0.004316958,-0.05746968,-1.510698,1.198738,-2.113097,0.08066383,1.274548,0.6079252,-1.086298,-0.3546456,14.58886,6.706661,-0.1155835,-0.1423187,-0.1943028,-0.3833525,-3.202596,-0.8371221,0.1368351,1.426059,0.5043073,0.2168491,0.1293106,0.01432813,-1.011665,0.5935823,-0.260099,0.2985175,1.494669,0.3844423,-0.248294,1.330249,0.6296887,275.1962,97.46445,177.0282,True
4,2.122225,-0.0736389,-0.03396432,-0.07124946,-1.50845,1.198553,-2.113503,0.07962465,1.273767,0.608587,-1.089706,-0.306335,14.53581,7.349473,-0.09198832,-0.1199477,-0.16674,-0.3835218,-3.205094,-0.8346235,0.1359503,1.425196,0.5050235,0.2230051,0.1559688,-0.005951539,-1.013106,0.5964164,-0.2643009,0.2976702,1.49424,0.3851957,-0.249083,1.330842,0.6305187,275.3862,97.22972,177.3547,True
4,2.133336,-0.03732684,-0.06369694,-0.07972874,-1.506382,1.198498,-2.114342,0.07875112,1.273019,0.6092579,-1.094484,-0.4324221,14.45623,8.335117,-0.06847163,-0.1635592,-0.1702184,-0.3828198,-3.214445,-0.8261325,0.135042,1.424611,0.5056627,0.246929,0.1581794,-0.06265998,-1.01627,0.5978274,-0.2687646,0.2969257,1.493728,0.3858724,-0.2495776,1.33187,0.6311541,275.7205,97.05914,177.6521,True
4,2.144447,-0.01492902,-0.07107954,-0.07867372,-1.505056,1.19836,-2.11488,0.07799229,1.272178,0.6098092,-1.098208,-0.3351952,14.40318,9.642169,-0.0983057,-0.2072821,-0.1839339,-0.3818265,-3.226486,-0.8127768,0.1340784,1.424033,0.5062265,0.2254577,0.1454109,-0.08056983,-1.018054,0.598963,-0.2712366,0.296092,1.493209,0.3865831,-0.249822,1.333093,0.6315605,276.2974,98.70187,176.0908,True
4,2.155558,0.03931389,-0.04316605,-0.06924342,-1.505334,1.197795,-2.116998,0.07779875,1.271424,0.6103191,-1.101121,-0.2621498,14.37666,10.82066,-0.07226499,-0.1860568,-0.1159051,-0.3801716,-3.227136,-0.8121222,0.1333619,1.423478,0.5067861,0.1731305,0.1421733,-0.09174097,-1.019698,0.6000741,-0.2716677,0.2954511,1.492744,0.3874016,-0.2499451,1.334187,0.631783,277.0078,100.964,173.8112,True
4,2.166669,0.07339965,-0.04729891,-0.06397419,-1.504268,1.197451,-2.118438,0.07745937,1.270809,0.6107349,-1.103125,-0.179654,14.37666,11.91343,-0.01561339,-0.1742654,-0.08755617,-0.3790626,-3.229794,-0.8114694,0.1326006,1.422736,0.5072684,0.1507951,0.1666588,-0.08722553,-1.021166,0.6030975,-0.2744665,0.2947598,1.492453,0.3881369,-0.2500537,1.334886,0.6319072,277.6464,102.4767,172.1987,True
4,2.17778,0.1053606,-0.05147818,-0.0725294,-1.503096,1.196909,-2.120683,0.07696214,1.270076,0.6113198,-1.106853,-0.3379401,14.35013,12.96336,-0.01075958,-0.1304846,-0.1354482,-0.3814387,-3.236516,-0.8053676,0.1320069,1.421714,0.507633,0.1582283,0.1794506,-0.0883555,-1.022794,0.6055201,-0.2776971,0.2940377,1.492172,0.3887913,-0.2501749,1.335057,0.6320102,278.0201,103.0785,171.4603,True
4,2.188891,0.1000558,-0.06860396,-0.08951658,-1.501002,1.196264,-2.121286,0.07617041,1.269162,0.6119092,-1.108396,-0.1368717,14.35013,14.01328,-0.02163077,-0.1208747,-0.1598517,-0.3825199,-3.243768,-0.7977509,0.1312865,1.420637,0.5082018,0.1688975,0.1634756,-0.08848268,-1.024127,0.6064141,-0.2804484,0.293332,1.491948,0.389637,-0.2501901,1.334636,0.6321633,278.1439,103.2368,171.1832,True
4,2.200002,0.07773807,-0.09110196,-0.1053925,-1.498572,1.195718,-2.121348,0.075349,1.268268,0.6126714,-1.111129,-0.2475134,14.40318,14.93465,-0.02897747,-0.1326328,-0.149166,-0.3821434,-3.249712,-0.791651,0.1303595,1.419681,0.5087707,0.1711516,0.1155321,-0.08109536,-1.024666,0.6057277,-0.2820826,0.292604,1.491721,0.3902712,-0.250348,1.333767,0.6324576,278.0884,103.7862,170.604,True
4,2.211113,0.05225265,-0.1189355,-0.1191165,-1.495614,1.195413,-2.121069,0.07417208,1.267148,0.6135702,-1.111347,-0.01680235,14.40318,15.53461,-0.0461943,-0.1784144,-0.1853588,-0.3818488,-3.262952,-0.7782681,0.1292771,1.418878,0.5095034,0.1567333,0.07499982,-0.03730539,-1.023514,0.6056536,-0.2833571,0.2918114,1.491386,0.3909099,-0.2508029,1.332552,0.6329643,278.0282,104.7066,169.6905,True
4,2.222224,0.04157761,-0.1104417,-0.1159279,-1.494308,1.194976,-2.121238,0.07333666,1.266073,0.6143606,-1.112222,-0.07905643,14.32361,16.11313,-0.07730253,-0.1550127,-0.2042589,-0.3834457,-3.270619,-0.7691393,0.1281254,1.41836,0.5104063,0.1262411,0.06108439,0.0002843775,-1.022268,0.6062768,-0.2839851,0.291023,1.491054,0.3915727,-0.2516731,1.331108,0.633708,277.9075,105.7698,168.6625,True
4,2.233335,0.05967829,-0.09859408,-0.09468567,-1.49356,1.19504,-2.122503,0.0725677,1.265207,0.6150098,-1.113298,-0.09670046,14.16445,16.88451,-0.07939204,-0.2040061,-0.2149981,-0.3827372,-3.28274,-0.7570227,0.127126,1.417638,0.5109432,0.1000679,0.06526949,0.04531475,-1.020476,0.6079534,-0.2850072,0.2902919,1.490738,0.3923602,-0.2528774,1.329561,0.6346498,277.7283,107.0206,167.4547,True
4,2.244446,0.08094423,-0.08679008,-0.09050959,-1.492447,1.194387,-2.124008,0.07194909,1.264477,0.6154931,-1.115052,-0.1587941,13.92573,18.1487,-0.09224963,-0.2018904,-0.2244785,-0.3831682,-3.292093,-0.7470188,0.1261219,1.416669,0.5114093,0.1133005,0.08121277,0.08993251,-1.018536,0.6103382,-0.2880512,0.2894418,1.490413,0.3931417,-0.2542675,1.32799,0.6357085,277.522,108.1572,166.365,True
4,2.255557,0.1075231,-0.07286419,-0.09485333,-1.49157,1.193515,-2.126076,0.07108155,1.263701,0.6160219,-1.117272,-0.2009606,13.63395,19.67002,-0.09654465,-0.1710248,-0.219051,-0.3841578,-3.297916,-0.740334,0.1251866,1.415834,0.512013,0.1816729,0.1057529,0.111625,-1.017254,0.6131499,-0.2936716,0.2885038,1.490084,0.3939364,-0.255482,1.32644,0.6367562,277.2398,108.5226,166.0535,True
4,2.266668,0.1054051,-0.07392351,-0.09057835,-1.490372,1.193362,-2.127105,0.06998926,1.262694,0.6166155,-1.118543,-0.1140538,13.34218,21.04135,-0.0729859,-0.1177713,-0.1860988,-0.3852188,-3.298484,-0.7397777,0.1242609,1.414885,0.5125301,0.2028639,0.108971,0.1007568,-1.016924,0.614651,-0.2972381,0.2877424,1.489754,0.3945959,-0.2563896,1.32498,0.6376829,276.9715,108.515,166.1728,True
4,2.277779,0.09043997,-0.04725435,-0.06294352,-1.490811,1.19334,-2.127582,0.06901875,1.26175,0.6172657,-1.119797,-0.1135489,13.07692,22.15556,-0.05437777,-0.06569728,-0.1051678,-0.3847075,-3.292979,-0.745039,0.1233387,1.414085,0.5131495,0.218642,0.111136,0.08141926,-1.017088,0.6161843,-0.3010001,0.2869368,1.489475,0.39537,-0.2570572,1.323678,0.6384675,276.8132,108.9436,165.8615,True
4,2.28889,0.06064434,-0.04192419,-0.02776004,-1.490941,1.194321,-2.127335,0.06810248,1.260649,0.6178634,-1.119288,0.04777351,12.83819,23.03407,-0.0780329,-0.09018844,-0.141257,-0.3853796,-3.302579,-0.7343805,0.122591,1.413196,0.5137439,0.2090951,0.0983425,0.08363114,-1.016349,0.6173028,-0.3035316,0.2862573,1.48917,0.3960185,-0.2577299,1.322553,0.6391898,276.864,109.4711,165.41,True
4,2.300001,0.03819418,-0.005686061,0.003051169,-1.492309,1.19455,-2.127074,0.06712881,1.259649,0.6184587,-1.119104,0.01663627,12.67905,23.65545,-0.1054292,-0.08927105,-0.1016273,-0.3846244,-3.304454,-0.730532,0.1217024,1.412421,0.5143809,0.1759357,0.0684981,0.06796473,-1.016055,0.6170724,-0.3042273,0.2854515,1.488934,0.3967984,-0.2585719,1.321553,0.639875,276.9902,109.5848,165.3228,True
4,2.311112,0.03920694,0.02208558,0.02640042,-1.493816,1.194884,-2.127719,0.06623673,1.258674,0.6190343,-1.118776,0.03022712,12.57294,23.82687,-0.09913921,-0.04984121,-0.1026626,-0.3860204,-3.304837,-0.7293586,0.1207374,1.411765,0.5150478,0.1502655,0.06634044,0.05757771,-1.015937,0.6177511,-0.3054374,0.2846335,1.488719,0.3976974,-0.2595238,1.320639,0.6405038,277.0557,109.0574,165.843,True
4,2.322223,0.07010291,0.03400092,0.0561455,-1.495232,1.195853,-2.129629,0.0652363,1.257784,0.6194768,-1.119285,-0.04637961,12.51989,23.48404,-0.07056125,-0.01565814,-0.1156013,-0.3882223,-3.306324,-0.7282222,0.1198553,1.411291,0.5159044,0.1161186,0.08229139,0.05368543,-1.01596,0.6195904,-0.3064145,0.2837721,1.488533,0.3985021,-0.2604981,1.319778,0.6409939,277.0612,108.4312,166.4671,True
4,2.333334,0.1170747,0.005405253,0.05830195,-1.494857,1.196979,-2.132543,0.06424507,1.257232,0.619864,-1.120678,-0.1266362,12.49337,22.5841,-0.08287679,-0.06052459,-0.06872455,-0.3860316,-3.309084,-0.7243588,0.1190223,1.410758,0.5165915,0.137495,0.08762643,0.06093182,-1.015326,0.6212453,-0.3096463,0.2828323,1.488404,0.3992965,-0.2614892,1.31903,0.6413773,277.0318,107.7997,167.0423,True
4,2.344445,0.1469726,-0.02117356,0.04342965,-1.493812,1.197539,-2.13518,0.06322566,1.256585,0.6203713,-1.122327,-0.1495008,12.46684,21.27705,-0.1391046,-0.1405699,-0.063132,-0.3835793,-3.318552,-0.7120904,0.1181667,1.410223,0.5172033,0.2006724,0.05889458,0.08900882,-1.013416,0.6214948,-0.3142863,0.2818821,1.488198,0.4001644,-0.2623977,1.318346,0.6416705,277.0504,107.1113,167.6595,True
4,2.355556,0.1758145,-0.06806321,0.005198715,-1.491363,1.197823,-2.13775,0.06247929,1.255843,0.6208591,-1.123588,-0.1140298,12.41379,19.99143,-0.1905253,-0.1640385,-0.1075265,-0.3839927,-3.328738,-0.6987735,0.1171537,1.409668,0.5179071,0.2223172,0.02265982,0.1196566,-1.010708,0.6211621,-0.3171484,0.2809287,1.488005,0.4010735,-0.2632555,1.317631,0.6418561,277.1306,106.4404,168.3125,True
4,2.366668,0.1864623,-0.06696881,0.003058469,-1.490934,1.198294,-2.140104,0.06151623,1.255047,0.6213865,-1.123451,0.01333427,12.33422,18.72723,-0.2032255,-0.1140567,-0.0806949,-0.3843735,-3.327801,-0.6969951,0.1161023,1.40926,0.5186298,0.1873501,0.03753529,0.1392076,-1.009075,0.6232895,-0.3191111,0.2800889,1.487724,0.4018962,-0.2641469,1.316758,0.6419163,277.2355,106.6783,168.0568,True
4,2.377779,0.2077962,-0.0528818,0.05518284,-1.492141,1.200361,-2.143273,0.06082222,1.254009,0.6219351,-1.123318,0.011871,12.25464,17.67731,-0.1402023,0.03828685,-0.01055073,-0.3862068,-3.311579,-0.7127298,0.1152189,1.408814,0.5193415,0.1297045,0.08542577,0.1323941,-1.008624,0.6265238,-0.3203604,0.2791498,1.487441,0.4027882,-0.2651106,1.315603,0.6419231,277.3149,107.7011,166.9288,True
4,2.38889,0.2249122,-0.05267764,0.1031012,-1.493112,1.203101,-2.146549,0.06024337,1.253094,0.6223392,-1.123041,0.02528065,12.20159,16.7988,-0.09824027,0.06517524,-0.08646027,-0.3900903,-3.314675,-0.7103407,0.1144465,1.407947,0.5199208,0.1123808,0.1227079,0.1091758,-1.009003,0.6293995,-0.3226462,0.2782443,1.48724,0.4036465,-0.2660871,1.314085,0.6419593,277.2961,109.0077,165.4477,True
4,2.400001,0.2132272,-0.05801438,0.1137858,-1.493184,1.204866,-2.148656,0.0597896,1.251952,0.622658,-1.123665,-0.05727348,12.14854,16.04885,-0.1284929,0.1016978,-0.2683201,-0.3987114,-3.328312,-0.6948707,0.1137107,1.407234,0.520613,0.1248091,0.1600366,0.07818955,-1.010177,0.6327624,-0.3262079,0.2772878,1.487124,0.404542,-0.2671382,1.312293,0.6421371,277.119,109.0799,165.2009,True
4,2.411112,0.1918754,-0.04531956,0.1084473,-1.493636,1.205707,-2.150204,0.05916366,1.251045,0.6230621,-1.123731,-0.005599943,12.09549,15.53461,-0.05385837,0.1274137,-0.2528642,-0.4018832,-3.326601,-0.6983778,0.1128628,1.406424,0.5214031,0.1727983,0.1930993,0.08625646,-1.009867,0.6368265,-0.3319452,0.2763145,1.487047,0.4052632,-0.2680581,1.310206,0.6423467,276.829,107.7236,166.4955,True
4,2.422223,0.1886112,-0.03797205,0.07860112,-1.493384,1.20574,-2.152218,0.05866858,1.250105,0.6235003,-1.122587,0.10458,12.12201,15.19177,-0.05391055,0.04651422,-0.284993,-0.4035584,-3.338233,-0.6870756,0.1120995,1.405686,0.5221281,0.2123944,0.1750108,0.1018093,-1.008726,0.6389818,-0.3368611,0.2753499,1.486907,0.4060178,-0.2688343,1.307882,0.6424388,276.4916,106.4413,167.827,True
4,2.433334,0.1992886,-0.05614196,0.04775386,-1.49209,1.206075,-2.154982,0.05810127,1.249249,0.6240854,-1.121756,0.0747154,12.17507,15.04178,-0.09071918,-0.04952359,-0.2529486,-0.4023701,-3.348415,-0.6752397,0.11132,1.405139,0.5228691,0.2545304,0.06314131,0.1481447,-1.00457,0.6365693,-0.3398289,0.2743884,1.486733,0.4067326,-0.2695898,1.305467,0.6424096,276.1327,106.2444,168.0129,True
4,2.444445,0.2143237,-0.09768429,0.03189047,-1.490097,1.207452,-2.15799,0.05751422,1.248565,0.6246774,-1.121828,-0.007539685,12.30769,15.06321,-0.07793694,-0.05268484,-0.254128,-0.404498,-3.354063,-0.6696047,0.1104167,1.404546,0.5236757,0.2463874,0.02581603,0.1812143,-1.0014,0.6367985,-0.3424058,0.2734062,1.486627,0.4075096,-0.2704962,1.303216,0.6424166,275.7518,106.7218,167.392,True
4,2.455556,0.2335668,-0.121082,0.02341441,-1.488303,1.208593,-2.161352,0.05703637,1.24779,0.6252346,-1.121966,-0.01312567,12.44032,15.17034,-0.05002765,-0.01860662,-0.2159209,-0.4059563,-3.353859,-0.6702101,0.1095952,1.403986,0.5242963,0.1998547,0.03212766,0.2157973,-0.9981762,0.638939,-0.3440532,0.2723316,1.486383,0.4081969,-0.2714202,1.301169,0.6425679,275.4636,107.8748,166.0462,True
4,2.466667,0.2432282,-0.1380599,0.03410727,-1.486935,1.210398,-2.164546,0.05658552,1.246939,0.6257684,-1.121543,0.03834842,12.57294,15.02035,-0.04399092,0.03047442,-0.2467526,-0.4100901,-3.355633,-0.6682944,0.1088377,1.403246,0.5247495,0.1735419,0.08851945,0.252354,-0.9953921,0.6438423,-0.3478094,0.2714221,1.486214,0.4089496,-0.2722876,1.299279,0.6429089,275.2862,109.2023,164.5924,True
4,2.477778,0.2368436,-0.1434257,0.02880467,-1.485629,1.211488,-2.166977,0.05614373,1.246186,0.6262903,-1.121293,0.02214438,12.65252,14.54896,-0.0504756,0.02835442,-0.259491,-0.4128821,-3.360348,-0.663187,0.1080672,1.402455,0.5253167,0.170372,0.1194046,0.2577449,-0.993301,0.6478077,-0.3517596,0.2704882,1.486043,0.4096825,-0.2730414,1.297466,0.6433572,275.1565,110.1899,163.5959,True
4,2.488889,0.1994668,-0.1244447,0.007494719,-1.484714,1.211308,-2.167965,0.05566525,1.245301,0.6268673,-1.120528,0.06936322,12.65252,13.82044,-0.06829448,0.06655657,-0.2102673,-0.41439,-3.357589,-0.6643748,0.107387,1.401538,0.5260065,0.1978181,0.1141189,0.2329532,-0.9920227,0.6494582,-0.3557496,0.2696402,1.485829,0.4103913,-0.2736258,1.295621,0.6438199,275.0589,110.7197,163.1154,True
4,2.5,0.1663602,-0.1075544,-0.009554836,-1.483993,1.211041,-2.168733,0.05514702,1.244603,0.6275556,-1.119313,0.1102279,12.59947,12.9205,-0.08243614,0.06660105,-0.2495766,-0.4181328,-3.362494,-0.6586487,0.1067485,1.400925,0.5266421,0.246711,0.08115762,0.2185614,-0.9901798,0.6501485,-0.3604615,0.2687383,1.485586,0.411104,-0.2741142,1.293708,0.6442261,274.9356,110.8074,163.0867,True
4,2.511111,0.15776,-0.09797574,-0.01167801,-1.483768,1.211431,-2.169694,0.05504331,1.243583,0.628304,-1.117579,0.1574948,12.44032,11.93486,-0.08990871,0.03251973,-0.2623729,-0.4203001,-3.369226,-0.651226,0.106042,1.40034,0.5272944,0.2477944,0.06836392,0.2196101,-0.9878463,0.6515093,-0.3639188,0.2678758,1.485392,0.4117689,-0.2746665,1.291799,0.6446041,274.761,111.4568,162.4353,True
4,2.522222,0.1588357,-0.1000824,-0.009542434,-1.482923,1.212022,-2.171612,0.05475619,1.242966,0.6289623,-1.117071,0.04502697,12.20159,11.12063,-0.07057386,0.03039936,-0.2433497,-0.4220769,-3.371483,-0.6491855,0.105318,1.399972,0.5279498,0.2308715,0.08005297,0.2325808,-0.9854362,0.6542811,-0.3674465,0.2670327,1.485132,0.412466,-0.2753803,1.290034,0.6450787,274.5285,112.7666,161.0324,True
4,2.533333,0.1844259,-0.09996947,-0.001062687,-1.482065,1.212867,-2.174776,0.05430534,1.242612,0.6293797,-1.117142,-0.006661921,11.90981,10.58496,-0.03386432,0.04739076,-0.1743505,-0.4223416,-3.36856,-0.6528177,0.1047404,1.39961,0.5285408,0.1892968,0.119425,0.2330544,-0.9838825,0.6586289,-0.3704353,0.2662364,1.484939,0.4131343,-0.2761027,1.288496,0.6457019,274.2953,114.151,159.5274,True
4,2.544444,0.2110567,-0.09771565,0.003151253,-1.481551,1.213422,-2.178125,0.05410153,1.242023,0.6299491,-1.118048,-0.08283395,11.59151,10.32783,-0.0292835,0.03454072,-0.1381942,-0.4226879,-3.369397,-0.6519698,0.1041639,1.399315,0.5291657,0.1602709,0.1226214,0.2077858,-0.9831549,0.6609262,-0.3725224,0.2655487,1.484817,0.4138651,-0.2765304,1.287123,0.6464015,274.1271,114.6434,158.9865,True
4,2.555555,0.247275,-0.1093221,-0.004361688,-1.479871,1.213486,-2.181749,0.0543752,1.241891,0.6303678,-1.119233,-0.1077391,11.27321,10.5421,-0.0389031,-0.002735235,-0.1541765,-0.4236264,-3.375206,-0.6459013,0.1036836,1.398742,0.5296483,0.1587273,0.07792372,0.157693,-0.9827394,0.6600938,-0.3738053,0.2648188,1.48472,0.4145133,-0.2768149,1.285964,0.6471273,274.0099,114.6985,159.0306,True
4,2.566666,0.2547119,-0.1147074,-0.03098789,-1.477982,1.21328,-2.184831,0.05417135,1.241288,0.6309235,-1.119326,-0.007728857,11.03448,10.84208,-0.03268641,0.003708534,-0.1765853,-0.4260488,-3.379114,-0.6423076,0.1030171,1.397953,0.5302136,0.1519886,0.04387178,0.1204351,-0.9825179,0.6593132,-0.3749198,0.2641348,1.484599,0.4152036,-0.2770315,1.284936,0.6477722,273.9858,114.5994,159.2804,True
4,2.577777,0.2334,-0.1319664,-0.07564532,-1.474893,1.212514,-2.18662,0.05394211,1.240609,0.6315625,-1.119355,-0.002940404,10.79576,11.12063,-0.02107914,0.01228346,-0.1883755,-0.4282992,-3.381899,-0.6399459,0.10235,1.397195,0.5307655,0.1185577,0.04280169,0.08137182,-0.9828827,0.6593799,-0.375107,0.2634647,1.484522,0.4158154,-0.2770728,1.283851,0.6482798,273.9852,114.7229,159.2107,True
4,2.588888,0.1821219,-0.104521,-0.1002055,-1.473339,1.210441,-2.186358,0.05330706,1.239992,0.6323602,-1.118573,0.07125964,10.5305,11.35633,-0.04037395,0.07294921,-0.1859733,-0.4315919,-3.379077,-0.6415331,0.1016179,1.396664,0.5314114,0.1025484,0.0683528,0.08156072,-0.9825786,0.6617689,-0.3769611,0.2628004,1.484289,0.4165547,-0.2769432,1.282628,0.6486825,273.9774,116.3556,157.5586,True
4,2.599999,0.158633,-0.07788423,-0.07362356,-1.47345,1.210455,-2.187271,0.05296418,1.239273,0.6331406,-1.117072,0.13653,10.2122,11.37776,0.002534837,0.06658499,-0.1500914,-0.4321181,-3.378523,-0.6435715,0.1009667,1.39621,0.5321419,0.1154841,0.09284902,0.09849836,-0.9817269,0.6646579,-0.3802421,0.2621178,1.483941,0.4172654,-0.276979,1.281244,0.6491479,274.0577,118.57,155.2856,True
4,2.61111,0.1575911,-0.0703503,-0.04808091,-1.47321,1.211137,-2.189354,0.05245796,1.238432,0.6339478,-1.114997,0.1886215,9.8939,11.05635,0.01627225,-0.02277182,-0.1940578,-0.4330481,-3.390278,-0.6336715,0.1005546,1.395627,0.5326724,0.1443943,0.07901005,0.110974,-0.9802681,0.6657556,-0.3835628,0.2614454,1.483571,0.4179766,-0.2773867,1.279731,0.6498294,274.0838,121.4926,152.2679,True
4,2.622221,0.1543858,-0.06716198,-0.04702111,-1.472421,1.211139,-2.190939,0.05210692,1.237814,0.6345494,-1.115906,-0.08446538,9.655171,10.49925,-0.009355847,-0.1452489,-0.2420461,-0.4331988,-3.408646,-0.6158997,0.1000119,1.395007,0.5333464,0.1592473,0.07903367,0.1044208,-0.97981,0.6670629,-0.3865741,0.2607391,1.483212,0.4187353,-0.2782435,1.278294,0.6508861,273.8841,123.9031,149.7685,True
4,2.633332,0.1350762,-0.04705573,-0.07365772,-1.471894,1.209834,-2.191301,0.0517354,1.236676,0.6354227,-1.117258,-0.1226195,9.469496,9.792157,0.01338223,-0.1676445,-0.2017829,-0.4322635,-3.414443,-0.6116101,0.09943929,1.39422,0.5339823,0.1526846,0.09927909,0.08960494,-0.9799298,0.66926,-0.3892274,0.2600714,1.482984,0.4194915,-0.2790547,1.276923,0.6521167,273.5972,124.3247,149.4149,True
4,2.644443,0.109437,-0.03227603,-0.08858193,-1.471159,1.208499,-2.191463,0.0512481,1.235981,0.6360822,-1.116987,0.02573618,9.363397,9.020782,0.01449474,-0.1133599,-0.1782433,-0.4335791,-3.41457,-0.611718,0.09882578,1.393478,0.5345793,0.1589268,0.1355206,0.07785274,-0.9806643,0.6725798,-0.393037,0.2593848,1.482631,0.420234,-0.2796724,1.275546,0.653301,273.4024,123.9423,150.0076,True
4,2.655554,0.05071697,0.01337417,-0.0748014,-1.472201,1.207094,-2.189962,0.05027005,1.235278,0.6367235,-1.115876,0.101375,9.336869,8.506535,-0.03265478,-0.01971584,-0.1851399,-0.4371446,-3.410332,-0.6137236,0.09813294,1.392962,0.5351696,0.1886933,0.1334186,0.07222417,-0.9805685,0.6743665,-0.3970504,0.2587687,1.482233,0.42097,-0.2800937,1.274146,0.6543404,273.3165,124.8412,149.2712,True
4,2.666665,0.03577866,0.03257598,-0.04927057,-1.473124,1.206918,-2.190051,0.04962239,1.234644,0.6372669,-1.115669,0.01818743,9.442968,8.635095,-0.04752832,-0.02083101,-0.179698,-0.438352,-3.414022,-0.6093296,0.09743294,1.392445,0.5358658,0.1887533,0.1067794,0.07539913,-0.9796464,0.6750057,-0.3994933,0.2580434,1.48179,0.4217937,-0.2804771,1.272781,0.6553687,273.2867,126.2929,147.8356,True
4,2.677776,0.02930872,0.07316689,-0.007843219,-1.475642,1.206724,-2.190085,0.04899946,1.234003,0.6377747,-1.114208,0.1335936,9.602121,8.892222,-0.02789419,-0.07200688,-0.136274,-0.4368788,-3.418745,-0.6053653,0.09683016,1.392029,0.5365551,0.1652373,0.1110267,0.06818819,-0.9796896,0.6767383,-0.4015179,0.2574103,1.481445,0.4225471,-0.2810568,1.27164,0.6564975,273.1839,127.5122,146.6416,True
4,2.688887,0.03037598,0.07530519,-0.005715337,-1.476257,1.206251,-2.190582,0.04832324,1.233451,0.6382079,-1.115762,-0.1430039,9.787797,9.127917,-0.02089635,-0.2009725,-0.1003627,-0.4327546,-3.43201,-0.5936146,0.09618065,1.391149,0.5370648,0.1437482,0.106764,0.04922607,-0.9802009,0.677911,-0.4031632,0.2566641,1.481059,0.423228,-0.2819602,1.270912,0.6577385,272.9833,127.0716,147.1974,True
4,2.699998,0.03994858,0.07745165,-0.01106252,-1.47685,1.205459,-2.191257,0.04757196,1.232788,0.6387193,-1.116095,-0.02897741,9.94695,9.213628,-0.05091401,-0.1307258,-0.1042488,-0.4344617,-3.431586,-0.5924361,0.0955663,1.390433,0.5376565,0.1315905,0.1195797,0.007815845,-0.9821205,0.6792469,-0.4049195,0.255959,1.480745,0.4239974,-0.2827612,1.270502,0.6588399,272.8525,124.9552,149.4901,True
4,2.711109,0.0388191,0.08170581,-0.01645514,-1.477137,1.203726,-2.19084,0.04754254,1.2329,0.6394999,-1.116706,-0.05563137,9.973473,9.063636,-0.03604429,-0.09235819,-0.09575882,-0.4356921,-3.431187,-0.5927501,0.09484097,1.390157,0.538286,0.1496401,0.1206605,0.002304234,-0.9827496,0.6806809,-0.408,0.2552249,1.480304,0.4247394,-0.2833796,1.270335,0.6596957,272.8466,121.3844,153.2178,True
4,2.72222,0.0344906,0.1083742,-0.0005539283,-1.479188,1.202893,-2.191003,0.04694554,1.232134,0.639991,-1.117026,-0.02881304,9.94695,9.020782,-0.05323105,-0.06148883,-0.1051477,-0.4367754,-3.433097,-0.5900359,0.09404102,1.38938,0.5387046,0.1647509,0.1089372,0.02024729,-0.9823048,0.6819729,-0.4110688,0.2544918,1.47992,0.4255483,-0.2838784,1.270286,0.6602924,273.0405,119.6976,154.9854,True
4,2.733331,0.03024778,0.1041709,0.0133472,-1.480999,1.203044,-2.19095,0.04641792,1.230944,0.640964,-1.116089,0.08592628,9.973473,8.977929,-0.07579046,-0.07534232,-0.1337647,-0.4380064,-3.43906,-0.5829234,0.09321848,1.388707,0.5392218,0.1755405,0.1099914,0.03398284,-0.9819102,0.6836261,-0.4142827,0.2537603,1.479577,0.4263511,-0.2842966,1.270235,0.6607462,273.2321,119.6717,154.8944,True
4,2.744442,0.02286541,0.08602645,0.0112888,-1.481293,1.202928,-2.191233,0.04548076,1.230185,0.6414807,-1.116541,-0.04209292,10.05305,8.763659,-0.0861918,-0.1212183,-0.1167378,-0.4370311,-3.446185,-0.5753109,0.09262484,1.387787,0.5397606,0.1639371,0.1579025,0.04905887,-0.9824396,0.6878367,-0.4180641,0.2529722,1.479285,0.4271698,-0.2845706,1.270226,0.6612659,273.2872,120.4858,153.8604,True
4,2.755553,-0.008943575,0.04009704,0.007219382,-1.480411,1.203484,-2.190173,0.04474798,1.229428,0.6420238,-1.116376,0.01565642,10.18567,8.163701,-0.08527648,-0.02003886,-0.1037558,-0.4391276,-3.441051,-0.579073,0.09204942,1.386813,0.5402739,0.1736524,0.1973062,0.06499211,-0.9825951,0.692335,-0.4227433,0.2521695,1.478968,0.4280047,-0.2848221,1.270177,0.6619556,273.5056,118.2515,156.0007,True
4,2.766664,-0.023753,0.0144997,0.01478336,-1.480141,1.204271,-2.189626,0.04392108,1.228664,0.6424654,-1.116771,-0.03622704,10.37135,7.692307,-0.07930399,0.009894572,-0.1506163,-0.4426121,-3.443117,-0.5767328,0.09134641,1.386222,0.5409443,0.205893,0.2164844,0.09343898,-0.9820992,0.696604,-0.4285657,0.2513961,1.478647,0.4288368,-0.2851475,1.269876,0.6628103,273.5153,112.1067,162.191,True
4,2.777775,-0.03965456,0.007103305,0.05105015,-1.481007,1.205847,-2.188764,0.04323903,1.22787,0.6429305,-1.115496,0.1169253,10.55703,7.370901,-0.08598566,-0.01133646,-0.1953521,-0.4453029,-3.449584,-0.5697524,0.09079713,1.385733,0.5416162,0.2856319,0.2111269,0.1810408,-0.9783798,0.7013684,-0.4371568,0.2507824,1.478255,0.4295959,-0.2857394,1.26917,0.6637067,273.1948,109.7437,164.7855,True
4,2.788886,-0.02054542,0.02442162,0.1021006,-1.483925,1.207202,-2.188185,0.04350424,1.227899,0.6445966,-1.115969,-0.04423435,10.74271,7.199484,-0.1030344,-0.09654978,-0.2241487,-0.4457482,-3.461514,-0.5572409,0.0904474,1.385296,0.5423026,0.2984717,0.1983415,0.1851569,-0.977231,0.7041821,-0.4423513,0.2500988,1.477869,0.4302843,-0.2864628,1.268096,0.6644491,272.6885,110.6868,164.0531,True
4,2.799997,0.01896946,0.01296846,0.1436272,-1.485503,1.209808,-2.189934,0.04318517,1.22727,0.6448553,-1.115801,0.01596247,10.87533,7.070924,-0.08804902,-0.2477064,-0.2650444,-0.4451298,-3.481937,-0.5385647,0.09011808,1.384489,0.5426276,0.2728712,0.1759528,0.1800703,-0.9760799,0.7064361,-0.4458089,0.2495185,1.477666,0.4309061,-0.2872736,1.266791,0.6649404,272.079,111.5834,163.2457,True
4,2.811108,0.02962713,-0.0008932017,0.1276853,-1.485584,1.210819,-2.190421,0.04290214,1.227982,0.6466384,-1.116211,-0.03757241,10.90185,6.72809,-0.0827621,-0.2572555,-0.2736284,-0.4465716,-3.491678,-0.5290684,0.08958277,1.38368,0.5431342,0.2343951,0.1535622,0.166589,-0.9753769,0.7081071,-0.4478241,0.2487878,1.477432,0.4316359,-0.2879571,1.26544,0.6651569,271.4215,105.9881,168.6406,True
4,2.822219,0.01479173,-0.03940568,0.09267436,-1.484019,1.211665,-2.190151,0.04242447,1.227478,0.6470125,-1.118519,-0.2106374,10.76923,6.449537,-0.0949486,-0.09669124,-0.1443039,-0.446267,-3.478632,-0.5394315,0.08912876,1.382736,0.5434678,0.1934651,0.1301367,0.1211761,-0.9759324,0.7086016,-0.4486891,0.2482546,1.47725,0.4321475,-0.2883694,1.264447,0.6653339,271.0457,86.84045,187.4595,True
4,2.83333,0.00858511,-0.08310264,0.09068786,-1.482675,1.213625,-2.190668,0.04130533,1.226575,0.647619,-1.117571,0.08847289,10.50398,6.235267,-0.09310709,0.0141087,-0.146225,-0.4498116,-3.472289,-0.5441938,0.08865008,1.382163,0.543771,0.2191962,0.1013815,0.1347333,-0.9742967,0.7099029,-0.4527968,0.247693,1.47693,0.4327872,-0.2887288,1.263874,0.6654378,270.91,69.35313,204.7892,True
4,2.844441,0.006514736,-0.09263611,0.1098968,-1.482673,1.215973,-2.190878,0.04087529,1.225949,0.6480899,-1.11662,0.08587167,10.15915,6.128132,-0.09939191,0.02364609,-0.1291124,-0.4508332,-3.472113,-0.5430121,0.0882394,1.381644,0.5441606,0.2172319,0.1045603,0.1507417,-0.9728277,0.7126081,-0.4568003,0.2471605,1.476569,0.4334569,-0.2891046,1.2637,0.6657085,271.0268,53.9494,219.989,True
4,2.855552,0.01313628,-0.1264931,0.1771093,-1.483252,1.220927,-2.191913,0.04018113,1.225145,0.6484647,-1.117214,-0.05493388,9.867373,6.170985,-0.07524969,-0.00388632,-0.1868787,-0.4534543,-3.479936,-0.5360988,0.08809534,1.381048,0.5447097,0.185273,0.1428783,0.154307,-0.972424,0.7167049,-0.4601077,0.2466792,1.476416,0.4340119,-0.2895386,1.263642,0.6660536,271.0427,50.94751,223.0529,True
4,2.866663,0.01113243,-0.1488235,0.1931583,-1.482776,1.224366,-2.192659,0.03961077,1.224305,0.6485643,-1.116948,0.02481898,9.575595,6.385256,-0.0486167,-0.04534348,-0.1999397,-0.4546841,-3.486822,-0.5302181,0.08780488,1.380544,0.5452847,0.1638939,0.1567263,0.1481458,-0.9722924,0.7200288,-0.4631328,0.2462264,1.476391,0.4347324,-0.2901439,1.263447,0.6663412,270.9209,48.40789,225.6911,True
4,2.877774,0.0304656,-0.1924146,0.1996615,-1.481357,1.228424,-2.193948,0.03910062,1.223942,0.6488481,-1.117486,-0.04944652,9.363397,6.856653,-0.01832414,-0.03581088,-0.1362323,-0.4539752,-3.4861,-0.5317622,0.08763862,1.380076,0.5457792,0.1638558,0.150339,0.1438781,-0.9716932,0.7223718,-0.4661674,0.2458618,1.476243,0.4352376,-0.2906294,1.262998,0.6663454,270.7687,38.19385,235.9554,True
4,2.888885,0.04435225,-0.2147173,0.1975443,-1.480096,1.231063,-2.194738,0.03928888,1.224949,0.6514134,-1.117358,0.01215388,9.23077,7.585171,-0.04723823,-0.07097166,-0.168026,-0.4553979,-3.492549,-0.5244811,0.08743158,1.379592,0.5460951,0.1821046,0.1258415,0.1553732,-0.9701821,0.7239817,-0.4696991,0.2455119,1.475871,0.4357207,-0.291196,1.262304,0.6658756,270.4719,16.64052,257.5348,True
4,2.899997,0.06248228,-0.2178317,0.2039199,-1.479478,1.234559,-2.19635,0.03895289,1.224722,0.6516986,-1.117761,-0.0370185,9.177716,8.52796,-0.1123425,-0.1168784,-0.1985151,-0.4567337,-3.501593,-0.5129717,0.08723196,1.379247,0.5463905,0.1929914,0.09175876,0.1733178,-0.9681384,0.72535,-0.4731758,0.2452105,1.475668,0.4362917,-0.2919143,1.261402,0.6648811,270.3717,290.8979,343.1208,True
4,2.911108,0.0688524,-0.2028899,0.2059942,-1.479566,1.237445,-2.197823,0.03830579,1.224062,0.6513956,-1.117363,0.03669974,9.177716,9.642169,-0.1314562,-0.1339819,-0.1973394,-0.4575918,-3.50818,-0.5051247,0.08699808,1.378925,0.5466228,0.1831892,0.09497307,0.1531803,-0.9678715,0.7272662,-0.4758722,0.24494,1.475502,0.4367986,-0.2928283,1.260563,0.6636121,270.7781,262.0442,11.29236,True
4,2.922219,0.08055411,-0.1975205,0.2070252,-1.479361,1.240487,-2.199402,0.03797176,1.223791,0.6516004,-1.117976,-0.05651126,9.257293,10.7778,-0.1034893,-0.04242855,-0.132384,-0.4581777,-3.502218,-0.5102718,0.08673075,1.378542,0.5468247,0.1315502,0.1216071,0.1068649,-0.9693065,0.7294816,-0.4767354,0.2447475,1.475418,0.437253,-0.2935038,1.260012,0.6626521,270.9824,291.6866,340.7154,True
4,2.93333,0.08910462,-0.2038976,0.2038275,-1.478467,1.243597,-2.201058,0.0374867,1.222999,0.6511183,-1.117868,0.01030336,9.389919,12.21341,-0.08557098,0.08435518,-0.1173444,-0.4613303,-3.492102,-0.5193441,0.08655235,1.378105,0.5468483,0.1045012,0.1621275,0.06881028,-0.9716495,0.7328996,-0.4789937,0.2446646,1.475449,0.4376893,-0.2940286,1.259518,0.6619374,271.183,289.8704,342.3043,True
4,2.944441,0.07947189,-0.1815255,0.2176074,-1.478892,1.246681,-2.201989,0.03703421,1.221941,0.6499586,-1.11783,0.003330241,9.602121,13.99186,-0.1056626,0.1098161,-0.08944111,-0.4624329,-3.487941,-0.5211968,0.08635041,1.377796,0.5469832,0.1108146,0.1525767,0.05913101,-0.9721507,0.7348179,-0.481829,0.2445049,1.47543,0.4382524,-0.2945475,1.258992,0.6612388,271.4429,267.7582,4.484871,True
4,2.955552,0.07514636,-0.150558,0.2452126,-1.480506,1.250061,-2.203,0.03678149,1.221504,0.6499624,-1.117794,0.003174686,9.8939,15.98457,-0.1489483,0.04359764,-0.06046841,-0.4609543,-3.491955,-0.514335,0.08621433,1.377457,0.5471411,0.09805962,0.08651967,0.05599969,-0.9711627,0.7338302,-0.4819991,0.244382,1.475241,0.4386675,-0.2950193,1.258436,0.6604717,271.811,255.4842,16.74452,True
4,2.966663,0.04631309,-0.1325749,0.2366651,-1.481015,1.252434,-2.20291,0.03651884,1.221077,0.649483,-1.116993,0.0732195,10.18567,18.08442,-0.1533266,-0.01174526,-0.09463031,-0.4618379,-3.498637,-0.506615,0.08629647,1.376786,0.5472329,0.05349756,0.06091901,0.07026419,-0.970311,0.7345371,-0.4816705,0.2442973,1.474937,0.4389181,-0.2955396,1.257762,0.6594841,272.3215,246.2368,26.02244,True
4,2.977774,0.02709602,-0.1262924,0.2228241,-1.481249,1.25477,-2.202801,0.03615123,1.2207,0.6494839,-1.116934,0.004648265,10.45093,20.07714,-0.1416314,0.01384032,-0.08934171,-0.463046,-3.497621,-0.5063287,0.08622733,1.376227,0.5473669,0.05240294,0.1163113,0.07246169,-0.9709422,0.7382486,-0.4842687,0.244235,1.474767,0.439271,-0.2960936,1.256976,0.6581171,272.9805,239.7968,32.34781,True
4,2.988885,0.0004225597,-0.1146946,0.2174902,-1.481572,1.257127,-2.202265,0.03560615,1.219812,0.6483345,-1.115968,0.0884135,10.71618,21.83415,-0.1266657,0.02983454,-0.07768985,-0.4637235,-3.495495,-0.5073963,0.08599958,1.375998,0.5473995,0.07484707,0.1589407,0.08291369,-0.9715717,0.7425306,-0.488383,0.2441855,1.474433,0.4394472,-0.2967944,1.256348,0.6565513,273.3488,238.5549,33.17915,True
4,2.999996,-0.01247219,-0.07419956,0.2354903,-1.483846,1.259466,-2.201885,0.03534815,1.219348,0.6482306,-1.115942,0.001656417,10.95491,23.46261,-0.143669,0.03297503,-0.07116162,-0.4644926,-3.495331,-0.5054107,0.08590063,1.375824,0.5474925,0.09393372,0.157902,0.07419129,-0.9719089,0.7447894,-0.4913889,0.2441601,1.474229,0.4397731,-0.2974612,1.255893,0.6548796,273.7579,235.7138,35.54593,True
4,3.011107,-0.004052415,-0.04109988,0.2492355,-1.486445,1.261853,-2.202268,0.03523049,1.218511,0.6474547,-1.115662,0.02576813,11.11406,24.91965,-0.1509512,0.0190725,-0.05194706,-0.4641964,-3.495627,-0.5030791,0.08579406,1.375849,0.5474451,0.05970408,0.1387213,0.05747084,-0.9724213,0.7456735,-0.4916113,0.2441854,1.474146,0.4399304,-0.2980555,1.255541,0.6532485,274.1956,232.3358,38.53207,True
4,3.022218,0.02145952,-0.02074189,0.2587212,-1.488776,1.264139,-2.203584,0.03532594,1.218292,0.6471257,-1.115937,-0.0252924,11.27321,25.90529,-0.134558,-0.08852017,-0.03311101,-0.4616483,-3.504849,-0.4938755,0.08585367,1.375829,0.5472975,0.02666859,0.1344477,0.05459656,-0.9728682,0.7475523,-0.4920608,0.24433,1.474042,0.4402139,-0.2985521,1.255233,0.6515862,274.7681,228.2395,42.35255,True
4,3.033329,0.02888952,-0.02496078,0.2480273,-1.489846,1.265422,-2.203927,0.03602713,1.220036,0.6498878,-1.116848,-0.08296359,11.37931,26.26955,-0.1291915,-0.05977645,-0.01711467,-0.4615695,-3.503896,-0.4933748,0.08583495,1.375542,0.5470493,0.01561816,0.1419299,0.01744195,-0.9744741,0.748989,-0.4926845,0.2443572,1.473941,0.4403746,-0.2988648,1.25505,0.6500094,275.1339,225.819,44.40341,True
4,3.04444,0.03095304,-0.02402811,0.2043438,-1.490046,1.266075,-2.20442,0.03614715,1.220025,0.6496098,-1.11791,-0.09637373,11.43236,25.991,-0.1251076,-0.00754948,-0.02236554,-0.4627834,-3.500651,-0.4949096,0.08581635,1.375343,0.546926,0.001286082,0.1515816,-0.02929393,-0.9775943,0.7504647,-0.4932997,0.2446245,1.473958,0.440572,-0.2991141,1.255102,0.648551,275.0482,225.5392,44.41975,True
4,3.055551,0.02550498,-0.01238891,0.187264,-1.491024,1.266904,-2.204563,0.03624621,1.221244,0.6518085,-1.117079,0.07663981,11.40584,25.1982,-0.1187857,0.0499732,-0.01271164,-0.4638838,-3.495603,-0.4983267,0.08585724,1.375202,0.5467889,-0.00632705,0.116437,-0.04735895,-0.9786606,0.750008,-0.4927266,0.2448556,1.473896,0.440681,-0.2990976,1.255395,0.6473804,274.9459,224.0495,45.30751,True
4,3.066662,0.01696805,0.007916704,0.1957122,-1.493602,1.26797,-2.204258,0.0362224,1.2219,0.653779,-1.117138,-0.006108022,11.35279,24.14827,-0.125164,0.03078833,-0.01482681,-0.4638092,-3.496595,-0.4955472,0.08592743,1.374941,0.5467179,-0.02223579,0.08767994,-0.04511159,-0.9793498,0.7500202,-0.4922808,0.2450561,1.473699,0.4409521,-0.2987513,1.256083,0.6471404,274.1722,225.5048,43.17335,True
4,3.077773,-0.002269683,0.03347103,0.2116371,-1.496323,1.269574,-2.203691,0.03607026,1.221758,0.653733,-1.116788,0.03215288,11.22016,23.01264,-0.1337374,-0.04054816,-0.04473224,-0.4638337,-3.503881,-0.4872136,0.08594045,1.374838,0.5466583,-0.05308118,0.07379873,-0.04160546,-0.9797525,0.7500888,-0.4906925,0.2452298,1.473544,0.4410644,-0.2983352,1.256936,0.64777,273.5447,225.444,43.18715,True
4,3.088884,-0.02362667,0.05470107,0.2126499,-1.498533,1.270581,-2.2031,0.03526279,1.220382,0.6518426,-1.116064,0.06547955,11.08753,21.85558,-0.1208977,-0.05862489,-0.04273251,-0.4636404,-3.506412,-0.4839765,0.08591798,1.374799,0.5466459,-0.06477014,0.09723904,-0.03719999,-0.9810739,0.75235,-0.491019,0.2453435,1.473567,0.4410853,-0.2980106,1.258018,0.6494469,272.3739,232.8,35.86122,True
4,3.099995,-0.03651582,0.08554786,0.211504,-1.501504,1.271281,-2.202329,0.03511891,1.220243,0.6517005,-1.115303,0.06866871,10.98143,20.6771,-0.1102475,-0.05433925,-0.04174024,-0.4637592,-3.507888,-0.4818244,0.08589098,1.374655,0.5464621,-0.07210249,0.1195903,-0.02325261,-0.9818798,0.7546881,-0.49124,0.2454591,1.473549,0.4412696,-0.2976427,1.25903,0.6519006,271.4131,249.7196,19.48337,True
4,3.111106,-0.04507424,0.09721299,0.2082784,-1.503777,1.272241,-2.201822,0.03459564,1.219024,0.649699,-1.114704,0.05361254,10.87533,19.60574,-0.113414,-0.02667512,-0.02887689,-0.4639632,-3.506512,-0.4816804,0.08588997,1.37447,0.5462503,-0.06245246,0.1270339,-0.01587639,-0.9823043,0.7562522,-0.4917005,0.2455555,1.47323,0.4411349,-0.2973,1.259612,0.6542261,271.1714,247.39,23.11306,True
4,3.122217,-0.05997028,0.09183613,0.2083175,-1.505829,1.273609,-2.200745,0.03438261,1.218912,0.64955,-1.113662,0.09402993,10.82228,18.64153,-0.1378099,0.02540833,0.002303641,-0.4640974,-3.500788,-0.4843643,0.08594748,1.374331,0.5461857,-0.02921006,0.1430239,0.006161716,-0.9825962,0.7590044,-0.4940846,0.2456767,1.473091,0.4412844,-0.2973085,1.259597,0.6555887,271.62,229.5811,42.11258,True
4,3.133328,-0.06101314,0.08862115,0.2104591,-1.507641,1.275216,-2.200312,0.03392103,1.218085,0.6475987,-1.112712,0.08501261,10.76923,17.97729,-0.1526516,0.04132313,0.01843029,-0.4639013,-3.497925,-0.4845425,0.0859805,1.374345,0.5459824,-0.01185314,0.1450345,0.04119423,-0.9805184,0.760517,-0.4946883,0.2458636,1.47283,0.4406941,-0.2975344,1.259147,0.6558127,272.0418,228.2723,43.88692,True
4,3.144439,-0.05889449,0.09074869,0.2072532,-1.509774,1.276329,-2.199799,0.03379878,1.218011,0.6473753,-1.110717,0.1806273,10.71618,17.67731,-0.1740593,0.0200047,-0.001689497,-0.4643498,-3.499812,-0.4801695,0.08614716,1.374323,0.5457649,-0.03226745,0.1290075,0.02543285,-0.9806489,0.7606796,-0.4933647,0.2462468,1.472558,0.4409082,-0.2980894,1.258263,0.6547562,272.7266,227.9301,44.22794,True
4,3.15555,-0.04080214,0.08650522,0.1933745,-1.511348,1.276982,-2.199882,0.03392777,1.217548,0.645849,-1.10964,0.09557452,10.6366,17.65588,-0.1591233,-0.01935571,-0.009343769,-0.4639903,-3.503707,-0.4751886,0.0864093,1.374387,0.5456209,-0.05396639,0.122634,-0.01269993,-0.9824108,0.7611125,-0.4922664,0.2465377,1.472512,0.4408979,-0.2988524,1.257177,0.6527023,273.4622,228.4254,43.22971,True
4,3.166661,-0.02906389,0.07164223,0.1805803,-1.512771,1.277207,-2.19971,0.03465763,1.21906,0.6479013,-1.107816,0.164657,10.55703,17.80587,-0.1335723,-0.03099839,-0.01382591,-0.4639866,-3.505163,-0.4731388,0.08650699,1.374399,0.5454335,-0.0584673,0.1268811,-0.03394543,-0.9836918,0.7618185,-0.4917229,0.2469017,1.472492,0.4411149,-0.2997499,1.25596,0.649795,274.4673,226.4067,44.54841,True
4,3.177772,-0.03214222,0.02896193,0.1626115,-1.512618,1.27879,-2.199389,0.03473446,1.219261,0.6478181,-1.106384,0.1280274,10.4244,17.97729,-0.1143805,-0.05437649,-0.01934655,-0.4636569,-3.508398,-0.4696604,0.08670023,1.374368,0.5452285,-0.062061,0.1258518,-0.07226188,-0.9862101,0.762095,-0.4910813,0.2472398,1.472433,0.4410846,-0.3006704,1.254969,0.6466249,274.7889,229.1916,40.80213,True
4,3.188883,-0.0416899,0.008701254,0.148794,-1.513194,1.279112,-2.198416,0.03515849,1.220672,0.6503065,-1.104001,0.2151284,10.29178,18.08442,-0.1080045,-0.05755253,-0.02046989,-0.4636276,-3.510005,-0.4669408,0.08677825,1.374274,0.5450504,-0.06333534,0.1173349,-0.09249004,-0.9878405,0.7621401,-0.4902701,0.2474703,1.472506,0.4413331,-0.3012095,1.25421,0.6436068,275.2832,227.776,41.0681,True
4,3.199994,-0.0554994,-0.006283335,0.1414054,-1.513498,1.28053,-2.197435,0.03530481,1.220769,0.650275,-1.101405,0.233902,10.2122,18.12728,-0.1113763,-0.04580393,-0.0395965,-0.4645714,-3.511473,-0.4642758,0.08690336,1.374281,0.544749,-0.06361888,0.1248192,-0.1191133,-0.9905473,0.7626346,-0.4898392,0.2477313,1.472434,0.4413164,-0.3013271,1.254004,0.6416609,275.0632,229.4342,38.15298,True
4,3.211105,-0.05871468,-0.008416221,0.1328911,-1.514541,1.281259,-2.196509,0.03576341,1.222366,0.652699,-1.098402,0.2709198,10.15915,18.21299,-0.1091684,-0.03410862,-0.02468041,-0.4644319,-3.511156,-0.4632843,0.08710355,1.374196,0.544486,-0.06890425,0.1311941,-0.1137219,-0.9921377,0.7638018,-0.4894057,0.2480348,1.472547,0.4414172,-0.3012902,1.254233,0.6410081,274.6755,230.9733,35.97787,True
4,3.222216,-0.0597362,-0.02656763,0.121233,-1.514369,1.282558,-2.195874,0.0359734,1.22259,0.6528006,-1.095832,0.2309235,10.23872,18.06299,-0.1048048,-0.01602648,-0.005501751,-0.4640745,-3.509609,-0.4636425,0.0872696,1.374158,0.5441329,-0.06869203,0.1407599,-0.09240714,-0.9932669,0.7656611,-0.4896547,0.2482449,1.472519,0.4413826,-0.3010413,1.254874,0.6418992,273.9418,235.2932,31.50261,True
4,3.233327,-0.05753737,-0.05430408,0.09997701,-1.513355,1.283132,-2.19543,0.03575572,1.222501,0.6530542,-1.093441,0.2149929,10.37135,17.93443,-0.1091353,-0.001114011,-0.008639421,-0.4645533,-3.508924,-0.4627551,0.08750227,1.374086,0.5437958,-0.05769043,0.1428662,-0.05842486,-0.9935583,0.7677001,-0.4904523,0.2485936,1.472504,0.4413111,-0.3006439,1.255726,0.6439063,273.051,245.0056,22.34123,True
4,3.244438,-0.05222284,-0.06715163,0.0723073,-1.512465,1.283608,-2.194838,0.03575066,1.222948,0.6534748,-1.091154,0.2056298,10.55703,17.89158,-0.1036915,0.0191012,0.0137315,-0.4641922,-3.506179,-0.4641733,0.08772835,1.374096,0.5434945,-0.03905201,0.1385683,-0.0074859,-0.9928461,0.7699855,-0.491799,0.2488339,1.47238,0.4410958,-0.3000243,1.256711,0.6467927,272.2771,259.6784,8.40404,True
4,3.255549,-0.05643424,-0.08852033,0.05746898,-1.511171,1.284721,-2.194148,0.03597704,1.223302,0.6536937,-1.088766,0.2147468,10.76923,17.93443,-0.0876112,0.02443734,0.0285334,-0.4636558,-3.504485,-0.4652241,0.08802399,1.374099,0.5432394,-0.02164668,0.1300266,0.02641605,-0.9921409,0.7720298,-0.4932473,0.2490756,1.472324,0.4409168,-0.2993898,1.257471,0.6498061,271.8457,270.3174,358.9653,True
4,3.26666,-0.0553058,-0.09812155,0.05643366,-1.510332,1.28616,-2.194098,0.03550556,1.222326,0.6518478,-1.086051,0.244644,10.98143,18.17013,-0.0833011,0.02443506,0.0348923,-0.4632292,-3.503321,-0.4654867,0.08828661,1.374114,0.5429912,-0.0150889,0.1129711,0.04124741,-0.9917068,0.7732279,-0.4938297,0.2492661,1.472178,0.440671,-0.2990513,1.257826,0.6524271,271.6802,278.2488,352.0794,True
4,3.277771,-0.04250661,-0.09804372,0.06706762,-1.510116,1.287723,-2.194139,0.03577229,1.222609,0.6520312,-1.083384,0.2402169,11.14058,18.72723,-0.04916418,-0.004238088,0.03350599,-0.4624952,-3.505,-0.4644521,0.08856222,1.374309,0.5428183,-0.01819516,0.05224287,0.04441307,-0.9904498,0.7721184,-0.4929234,0.2496131,1.472261,0.4403925,-0.2989438,1.25781,0.6543593,271.7337,294.0385,336.9769,True
4,3.288882,-0.02544495,-0.103329,0.06384426,-1.509223,1.288815,-2.194572,0.03591469,1.222174,0.6506836,-1.081537,0.1651811,11.22016,19.60574,-0.04287709,-0.05742715,0.003521591,-0.4623599,-3.510974,-0.4586858,0.08898643,1.374465,0.5425138,-0.02362955,0.0213498,0.03165008,-0.9902229,0.7711807,-0.4918763,0.2500925,1.472337,0.4401529,-0.29898,1.257388,0.655278,271.8653,292.5754,339.0303,True
4,3.299993,-0.01587213,-0.1054758,0.0489229,-1.508237,1.289621,-2.194767,0.03623432,1.222416,0.6508183,-1.079268,0.2045675,11.24668,20.74137,-0.04938711,-0.04250754,-0.00705188,-0.4627296,-3.5115,-0.4574474,0.08935395,1.374457,0.5422292,-0.03231448,0.006445352,0.01467905,-0.9903721,0.770461,-0.490815,0.2504965,1.47242,0.4398549,-0.2993952,1.256498,0.6547971,272.2278,272.6417,359.2843,True
4,3.311104,-0.01798246,-0.1162277,0.0308447,-1.50635,1.290587,-2.194682,0.03606248,1.221094,0.6475041,-1.077288,0.1776621,11.22016,22.04842,-0.04214145,-0.005173367,-0.02088128,-0.4638427,-3.509382,-0.4588632,0.08960062,1.374441,0.5419922,-0.0335476,0.00645078,-0.0002231458,-0.9908275,0.7702926,-0.4901268,0.2508182,1.472427,0.4395986,-0.2998829,1.255398,0.6531478,272.8133,263.1169,8.415828,True
4,3.322215,-0.01478562,-0.1183612,0.02658567,-1.505325,1.29151,-2.194687,0.03637984,1.221282,0.6475489,-1.074732,0.2306286,11.22016,23.33405,-0.03892113,0.02144341,-0.009134177,-0.4640942,-3.506857,-0.460806,0.08994845,1.374529,0.5417316,-0.01976682,0.007535724,-0.006757168,-0.9911401,0.7702708,-0.4903577,0.2511998,1.472452,0.4393594,-0.3004417,1.254207,0.6506197,273.4985,255.2471,15.55159,True
4,3.333326,-0.0009763939,-0.1055865,0.02119932,-1.504369,1.292377,-2.19537,0.03633881,1.220354,0.6447873,-1.072091,0.237946,11.19363,24.57681,-0.03333513,0.01394258,0.02276386,-0.4629149,-3.505641,-0.4616654,0.09022656,1.374739,0.5414701,-0.008294443,0.01714807,-0.0292346,-0.9920776,0.7701599,-0.4905913,0.2515166,1.472392,0.4391177,-0.3010745,1.253104,0.647706,274.2138,248.0141,22.03715,True
4,3.344437,0.003279063,-0.103438,0.02225138,-1.503649,1.29325,-2.195608,0.03668445,1.220526,0.6447623,-1.069892,0.1976403,11.16711,25.77673,-0.008733816,-0.02753691,0.02356197,-0.4619072,-3.5086,-0.4595378,0.09062412,1.374816,0.5411723,-0.00531234,0.032082,-0.04736315,-0.9934528,0.7703912,-0.4905292,0.2518728,1.472418,0.4389107,-0.3017915,1.252051,0.644383,275.0435,242.0299,27.50219,True
4,3.355548,-0.01173414,-0.08111984,0.01364665,-1.50353,1.29262,-2.194769,0.03748944,1.221397,0.6456892,-1.068349,0.1379043,11.14058,26.95522,0.01458737,-0.02744914,0.00846832,-0.4620728,-3.50967,-0.4595266,0.0910764,1.374816,0.5408912,-0.004392885,0.03422784,-0.06122011,-0.9946954,0.7702192,-0.4903955,0.252248,1.47249,0.438657,-0.302083,1.251542,0.6415975,276.5684,226.6026,42.55766,True
4,3.366659,-0.03096688,-0.06739987,0.0008436218,-1.502741,1.292606,-2.193911,0.03745613,1.220366,0.643034,-1.065749,0.2351259,11.14058,28.048,0.0229954,-0.01568233,-0.002224826,-0.4626188,-3.509195,-0.4603695,0.09144124,1.374843,0.5404954,0.005376847,0.02995129,-0.04320457,-0.9944552,0.7704741,-0.4907891,0.2526632,1.472502,0.4383531,-0.3022227,1.251558,0.6392702,277.4421,221.5932,47.11906,True
4,3.37777,-0.05769982,-0.0408794,-0.005593985,-1.502958,1.29209,-2.192297,0.03786847,1.220489,0.6430078,-1.062427,0.300082,11.11406,29.07649,0.01123365,-0.01782922,-0.008530707,-0.4628435,-3.510182,-0.4592222,0.09180167,1.374851,0.5401902,0.002500606,0.007547249,-0.01443333,-0.9935061,0.7702596,-0.4906089,0.2530349,1.472466,0.4380746,-0.3023428,1.25174,0.6374542,275.9855,230.5692,37.26107,True
4,3.388881,-0.05665536,-0.02918049,-0.003499031,-1.502701,1.292413,-2.192036,0.03785738,1.219763,0.6408184,-1.059943,0.222949,11.08753,30.01929,-0.004568564,0.003377671,0.02146216,-0.4620622,-3.50736,-0.4611285,0.09216133,1.374963,0.5399175,-0.002564466,-0.001015157,0.01118211,-0.9924371,0.7703839,-0.4902669,0.2535214,1.472401,0.4377632,-0.3022522,1.25179,0.6365144,275.5059,233.2788,34.11058,True
4,3.399992,-0.01724856,-0.02691803,-0.004630257,-1.502504,1.292452,-2.193077,0.03814098,1.220008,0.6407411,-1.056881,0.2764833,11.08753,30.91922,-0.004367515,-0.005191291,0.04488083,-0.4607854,-3.506787,-0.4615884,0.09259453,1.375105,0.5396309,-0.01206322,-0.001033153,0.01980346,-0.9919428,0.77066,-0.4899777,0.2539275,1.472386,0.4374883,-0.3023142,1.251656,0.6359837,275.9776,228.506,39.14474,True
4,3.411103,0.01799433,-0.0576997,-0.01633424,-1.500869,1.292405,-2.194498,0.03896508,1.221167,0.641973,-1.055691,0.1048459,11.06101,31.7763,0.004259072,-0.01904038,0.05437565,-0.4595721,-3.507188,-0.4614667,0.09311247,1.375088,0.5393546,-0.02718654,0.01068551,0.0008029584,-0.9927071,0.7708189,-0.4893045,0.2543073,1.472409,0.437247,-0.3023238,1.251621,0.6357641,276.1797,226.3872,41.42374,True
4,3.422215,0.01260771,-0.04389666,-0.02489309,-1.500522,1.291969,-2.194438,0.03948873,1.221355,0.6418395,-1.054577,0.09922449,11.06101,32.54768,-0.003314625,-0.04138542,0.03201742,-0.4593751,-3.509963,-0.4586882,0.09353584,1.375137,0.539077,-0.03268474,0.01708564,-0.01511648,-0.9935194,0.7707759,-0.4887473,0.2547274,1.472375,0.436955,-0.3023551,1.251666,0.6354725,276.4861,223.7577,44.28639,True
