loc,t,aDotS,bDotS,gDotS,aS,bS,gS,xS,yS,zS,qE,qDotE,emgA,emgB,aDotSH,bDotSH,gDotSH,aSH,bSH,gSH,xSH,ySH,zSH,aDotUB,bDotUB,gDotUB,aUB,bUB,gUB,xUB,yUB,zUB,xHand,yHand,zHand,aHand,bHand,gHand,enable
4,0,0.3607437,-0.2389209,0.1503069,-1.55013,-4.508431,-2.606937,0.3327055,1.221425,0.5209591,-1.043158,-0.009689231,13.63395,13.86329,-0.2426097,0.3428117,-0.06880488,-0.5430825,-3.550839,-0.4674399,0.3681185,1.425621,0.4889672,-0.07856223,0.3067489,0.2061123,-1.05908,0.5298786,-0.1419041,0.5391871,1.496374,0.3541222,0.04289987,1.128697,0.3967512,287.6614,266.975,347.6807,True
4,0.01111111,0.3382881,-0.2134595,0.1342772,-1.550184,-4.50661,-2.610016,0.3323699,1.221048,0.5196424,-1.042983,0.01603572,13.4748,13.84187,-0.1986046,0.2853425,-0.0479377,-0.543287,-3.548559,-0.4688498,0.3674371,1.425631,0.4881647,-0.07982269,0.2790737,0.1847877,-1.058064,0.5325471,-0.1422695,0.5386643,1.496533,0.3536456,0.04391101,1.12538,0.3909926,290.0508,275.3404,336.7073,True
4,0.02222222,0.2987666,-0.1806158,0.110831,-1.550476,-4.504943,-2.612196,0.3321473,1.220766,0.5190098,-1.042567,0.03800286,13.31565,13.79901,-0.1611943,0.2449465,-0.04618294,-0.5444583,-3.546447,-0.4700575,0.3668188,1.425594,0.4874036,-0.08100015,0.2450057,0.1719734,-1.056812,0.5348014,-0.1423063,0.5381488,1.496822,0.3531971,0.04632219,1.12027,0.3824864,291.7202,273.6164,335.3981,True
4,0.03333334,0.2571252,-0.1595131,0.07886071,-1.549778,-4.504109,-2.61368,0.3318773,1.220499,0.5179398,-1.042288,0.02536823,13.1565,13.75616,-0.1313584,0.2183994,-0.05392757,-0.5459395,-3.544508,-0.4711579,0.3662519,1.425493,0.4865792,-0.08216821,0.2226475,0.1602447,-1.055654,0.5371099,-0.1424661,0.537734,1.496997,0.3526933,0.04929987,1.114521,0.37293,293.5481,269.7698,336.0245,True
4,0.04444445,0.2186757,-0.144803,0.04799226,-1.548864,-4.50293,-2.614728,0.3317147,1.220529,0.5174518,-1.04159,0.06372502,13.07692,13.73473,-0.1100581,0.2003571,-0.05944799,-0.5474202,-3.542088,-0.4725103,0.3655882,1.425386,0.4857635,-0.0758179,0.2066787,0.1559043,-1.054245,0.5395198,-0.1429193,0.5371919,1.497146,0.352191,0.05071998,1.112197,0.367868,292.7359,257.9354,347.435,True
4,0.05555556,0.1941216,-0.1353451,0.02562314,-1.547897,-4.502145,-2.616109,0.3314102,1.220298,0.5164466,-1.041128,0.04197604,13.02387,13.71331,-0.08123305,0.1791185,-0.05864909,-0.5485259,-3.540481,-0.4739543,0.3650864,1.425241,0.4849124,-0.06519578,0.1779308,0.1504381,-1.052936,0.5409527,-0.1432584,0.5367873,1.497263,0.3516238,0.05109581,1.111697,0.3655473,292.9379,259.8742,344.7569,True
4,0.06666667,0.1652655,-0.1227508,-0.009517476,-1.546408,-4.501699,-2.616801,0.331201,1.220529,0.5162377,-1.040987,0.01281484,13.02387,13.73473,-0.07161868,0.1727545,-0.05766439,-0.5498298,-3.537838,-0.4757143,0.3645225,1.42516,0.4842203,-0.05989444,0.1598284,0.1471738,-1.051525,0.5426036,-0.1435122,0.5363842,1.497334,0.3510747,0.05162495,1.110923,0.3634919,293.9047,266.165,337.3824,True
4,0.07777778,0.1374684,-0.1046622,-0.03715034,-1.547253,-4.502115,-2.61622,0.331253,1.226895,0.5312419,-1.041664,-0.06165795,13.0504,13.73473,-0.04806128,0.1536181,-0.04936252,-0.5505756,-3.536145,-0.4774763,0.3641902,1.425088,0.4835188,-0.05459195,0.1236159,0.1417502,-1.050186,0.543056,-0.1432765,0.5361277,1.497312,0.3503473,0.05167998,1.110783,0.3630077,293.87,265.32,338.2695,True
4,0.08888889,0.1129034,-0.08136146,-0.05845027,-1.546463,-4.501995,-2.616886,0.3309996,1.226897,0.5309107,-1.041382,0.02653942,13.07692,13.75616,-0.04158185,0.1386995,-0.04198603,-0.5512525,-3.534607,-0.4783855,0.363812,1.425117,0.4828117,-0.05676179,0.1076459,0.1364223,-1.049003,0.5441908,-0.1431337,0.5358307,1.497357,0.349668,0.05155156,1.110722,0.3631009,293.9779,265.8321,337.8472,True
4,0.1,0.1000362,-0.06228186,-0.07446732,-1.545207,-4.502294,-2.617391,0.3309962,1.22716,0.5305285,-1.040436,0.0864372,13.07692,13.77759,-0.03186552,0.121657,-0.03036962,-0.5514922,-3.533105,-0.4795772,0.3635396,1.425261,0.4820774,-0.05153062,0.08315688,0.1256944,-1.047908,0.5445321,-0.1428261,0.535532,1.497417,0.3490288,0.05200351,1.111118,0.3641391,294.6917,265.1551,336.6676,True
4,0.1111111,0.09250318,-0.03570384,-0.08626026,-1.544278,-4.503292,-2.61817,0.3309217,1.227247,0.5302272,-1.04193,-0.1371157,13.0504,13.79901,-0.009263597,0.1056838,-0.00607723,-0.5510527,-3.531483,-0.4816404,0.3633271,1.425364,0.4814308,-0.05380594,0.07464898,0.1107933,-1.047272,0.5452586,-0.1425084,0.5352837,1.497498,0.3484178,0.05423823,1.112322,0.3680785,296.3548,263.4622,335.3765,True
4,0.1222222,0.08928087,-0.01979036,-0.09478848,-1.543414,-4.503369,-2.619387,0.3307405,1.22732,0.5298479,-1.042256,-0.02824569,12.97082,13.79901,0.001502961,0.0897096,0.004470594,-0.5508088,-3.53019,-0.4829986,0.3631768,1.4257,0.4806914,-0.05502294,0.05761697,0.09480625,-1.04673,0.5454164,-0.1418735,0.5350654,1.497671,0.3477495,0.05429496,1.11363,0.3732028,296.3439,264.0095,335.9146,True
4,0.1333333,0.08495282,0.003602552,-0.1055099,-1.54249,-4.504826,-2.620167,0.3307526,1.227473,0.5296104,-1.042777,-0.04743315,12.89124,13.79901,0.02190085,0.05671186,0.01383,-0.5502123,-3.530752,-0.483388,0.3630557,1.42585,0.4800725,-0.05204668,0.04166588,0.07131436,-1.046812,0.545325,-0.1414354,0.5349121,1.497684,0.3470304,0.05285002,1.114722,0.3780932,295.6186,265.7489,336.9152,True
4,0.1444445,0.07639807,0.01096992,-0.1193549,-1.541037,-4.505523,-2.620732,0.3307878,1.227628,0.5290368,-1.043397,-0.05618355,12.83819,13.75616,0.03263155,0.04606874,0.0211887,-0.5498091,-3.52995,-0.4846543,0.3628871,1.425977,0.4794879,-0.04890629,0.02782571,0.06487776,-1.046228,0.5452233,-0.1409236,0.5347642,1.497803,0.3463366,0.05090463,1.11537,0.3817463,294.9342,267.3833,337.6218,True
4,0.1555556,0.07102866,0.0204903,-0.137485,-1.539515,-4.507053,-2.621295,0.3308865,1.227885,0.5289917,-1.043166,0.02168003,12.78515,13.71331,0.04329215,0.02905788,0.01680674,-0.5497031,-3.530427,-0.4850719,0.3627194,1.426123,0.4789186,-0.05636287,0.005453758,0.06279651,-1.045514,0.5445215,-0.1397265,0.5346462,1.497859,0.3457561,0.04935523,1.115518,0.3837497,294.6027,268.2297,338.009,True
4,0.1666667,0.06141056,0.02784446,-0.1588001,-1.537546,-4.508555,-2.621846,0.3310808,1.228246,0.5287628,-1.042999,0.01511737,12.7321,13.67045,0.03899146,0.0375779,0.01473456,-0.5499347,-3.528848,-0.4866535,0.3626543,1.426187,0.4783549,-0.06063344,0.0001237616,0.06177209,-1.044768,0.5444782,-0.1388492,0.5345097,1.497905,0.3451235,0.04863835,1.115254,0.3842206,294.6271,268.2782,338.2095,True
4,0.1777778,0.05819117,0.03099091,-0.1726528,-1.535724,-4.510134,-2.622326,0.331173,1.228526,0.5286982,-1.043123,-0.011376,12.75862,13.6276,0.03892736,0.08230452,0.02121315,-0.5507129,-3.524295,-0.4909236,0.3626382,1.426281,0.4778132,-0.05526317,-0.008395121,0.06490061,-1.043947,0.5442201,-0.1383715,0.5343928,1.497934,0.3445253,0.04873805,1.114711,0.3834354,294.8603,267.7358,338.3767,True
4,0.1888889,0.04430439,0.03409996,-0.1875628,-1.533592,-4.511763,-2.622105,0.3315381,1.228863,0.5286288,-1.043237,-0.01031129,12.75862,13.64902,0.05383714,0.1238593,0.03502847,-0.5512685,-3.518729,-0.4967038,0.3626471,1.426338,0.4773788,-0.04785855,-0.01690123,0.05949181,-1.04339,0.5438863,-0.1378953,0.5343381,1.497913,0.3439484,0.04944003,1.114051,0.3818983,295.1967,266.8761,338.442,True
4,0.2,0.03152522,0.04043803,-0.1875326,-1.532357,-4.512719,-2.622223,0.3315471,1.229221,0.5285304,-1.043281,-0.003805498,12.7321,13.71331,0.06773073,0.118559,0.03916718,-0.5513244,-3.516431,-0.4998849,0.362737,1.426501,0.4769642,-0.04585669,-0.04138664,0.0445319,-1.043201,0.5424256,-0.1367315,0.5342473,1.497949,0.3432615,0.05037468,1.113395,0.3800796,295.5327,265.9355,338.4833,True
4,0.2111111,0.006974336,0.06275944,-0.1854442,-1.531352,-4.515014,-2.621374,0.3317351,1.229551,0.5285072,-1.042698,0.05341502,12.67905,13.79901,0.09016,0.07282847,0.03144735,-0.5508243,-3.51783,-0.5005078,0.3629706,1.426673,0.4766462,-0.03968014,-0.06798712,0.02100082,-1.043552,0.540476,-0.1355333,0.5342135,1.497949,0.3425875,0.05123403,1.112835,0.3784204,295.8019,265.0873,338.4977,True
4,0.2222222,-0.0303909,0.09564627,-0.1961606,-1.52997,-4.517955,-2.619909,0.3320171,1.229926,0.5283215,-1.043079,-0.03520447,12.54642,13.949,0.1275995,-0.00270173,0.02675017,-0.5493803,-3.522118,-0.4994836,0.3631824,1.426921,0.4763896,-0.03864549,-0.08609377,0.01671407,-1.04319,0.5387589,-0.1342468,0.534088,1.49795,0.3418565,0.05187058,1.112475,0.3772513,296.0271,264.429,338.5505,True
4,0.2333333,-0.07630071,0.1327825,-0.2100734,-1.528881,-4.521727,-2.617394,0.3322152,1.230398,0.5283258,-1.042365,0.06567851,12.38727,14.09899,0.1661066,-0.06439266,0.0263254,-0.5477643,-3.526749,-0.4987565,0.3634183,1.427214,0.4761689,-0.0280531,-0.1020551,0.009129047,-1.043168,0.5368374,-0.1333682,0.53403,1.49803,0.3412118,0.05209532,1.112375,0.3767029,296.1753,264.0439,338.6212,True
4,0.2444444,-0.1136872,0.1646017,-0.2261136,-1.527578,-4.525691,-2.614676,0.332484,1.230925,0.5282536,-1.041887,0.04329316,12.25464,14.27041,0.1842396,-0.1037363,0.01652056,-0.5467619,-3.530706,-0.4979736,0.3635688,1.427492,0.4759285,-0.02481769,-0.128691,0.0112012,-1.042589,0.5342004,-0.1318243,0.5340028,1.498,0.3405464,0.05194681,1.112597,0.3768764,296.2407,263.9622,338.6649,True
4,0.2555556,-0.1435858,0.1900704,-0.2357458,-1.52654,-4.529716,-2.611956,0.3326148,1.231516,0.5283184,-1.041102,0.0716178,12.12201,14.44182,0.1799459,-0.0941589,0.01550768,-0.5463267,-3.531738,-0.498906,0.3638713,1.427734,0.4756334,-0.03532036,-0.1777113,0.02190849,-1.041576,0.5302294,-0.1291026,0.5339226,1.498024,0.3399286,0.05146499,1.113184,0.3777637,296.2197,264.004,338.8247,True
4,0.2666667,-0.2012018,0.2228844,-0.2570857,-1.525095,-4.53443,-2.607747,0.3327183,1.232328,0.5283396,-1.041161,-0.005661256,12.04244,14.59181,0.1724206,-0.05903265,0.01990464,-0.5462666,-3.530174,-0.5016652,0.3643358,1.428171,0.4752984,-0.0469173,-0.1979719,0.03266326,-1.040424,0.5270885,-0.1265236,0.5337401,1.498068,0.3392529,0.05066202,1.114181,0.3792995,296.1413,264.1891,339.0228,True
4,0.2777778,-0.2534857,0.2514646,-0.2784232,-1.523677,-4.539682,-2.602838,0.3327983,1.233021,0.5283756,-1.041525,-0.03296329,12.04244,14.69895,0.1725715,-0.04629655,0.04336543,-0.5451011,-3.52921,-0.5044307,0.3646498,1.428515,0.4749744,-0.04580556,-0.1969093,0.03690949,-1.039649,0.5247297,-0.1249465,0.5336924,1.498025,0.3385468,0.04964305,1.115604,0.3813287,295.9579,264.5015,339.2682,True
4,0.2888889,-0.3624399,0.3351249,-0.3573941,-1.521311,-4.548891,-2.594585,0.3328288,1.234124,0.5286491,-1.040465,0.09746024,12.06897,14.7418,0.1578921,-0.04639666,0.07544453,-0.5430063,-3.528286,-0.5062683,0.3650722,1.42894,0.4746234,-0.0257524,-0.2064593,0.01751482,-1.039915,0.5217323,-0.1238711,0.5336548,1.498101,0.337887,0.04846003,1.117398,0.3836461,295.6785,264.9217,339.496,True
4,0.3,-0.4595303,0.3762603,-0.4138623,-1.51868,-4.556484,-2.586293,0.3324732,1.235027,0.5288992,-1.040089,0.03377131,12.06897,14.72038,0.1539806,-0.04756115,0.1202146,-0.5402867,-3.526705,-0.5091317,0.3655669,1.429425,0.4744422,-0.004713036,-0.2191987,-0.00934571,-1.040471,0.5182508,-0.1226729,0.5336834,1.498022,0.3372881,0.04709562,1.119529,0.3860516,295.3644,265.3281,339.7501,True
4,0.3111111,-0.5278332,0.406855,-0.4596865,-1.515988,-4.564756,-2.577663,0.3321353,1.236113,0.5292871,-1.037475,0.239176,12.06897,14.63467,0.1703178,-0.09764972,0.1498155,-0.536685,-3.528902,-0.50963,0.3659715,1.429957,0.4743237,-0.005069047,-0.2212914,-0.044501,-1.041857,0.5150835,-0.12101,0.5336994,1.497996,0.3366494,0.04551322,1.121967,0.3884445,295.0146,265.6281,339.9779,True
4,0.3222222,-0.6217707,0.4533178,-0.5215105,-1.512922,-4.574481,-2.567046,0.3316272,1.237352,0.5298514,-1.037801,-0.03128522,11.96286,14.52753,0.1833346,-0.1445213,0.164538,-0.5331643,-3.532238,-0.5091772,0.366428,1.430363,0.4742508,-0.01504956,-0.2265887,-0.08275655,-1.043703,0.5116306,-0.1185732,0.5337437,1.497948,0.3359997,0.0434532,1.124812,0.3909524,294.7374,265.7148,340.2344,True
4,0.3333333,-0.7028927,0.4923625,-0.5811949,-1.509597,-4.584836,-2.555869,0.3307756,1.238766,0.5305834,-1.03835,-0.04914051,11.80371,14.4204,0.2070299,-0.1615696,0.1888361,-0.5292175,-3.53342,-0.5115669,0.3668307,1.430951,0.4742134,-0.01515707,-0.2276426,-0.09341013,-1.044827,0.5084888,-0.1168246,0.5337815,1.497904,0.3353722,0.04094045,1.128149,0.3936355,294.3276,265.7743,340.5553,True
4,0.3444445,-0.7551697,0.5091341,-0.6237935,-1.506008,-4.594131,-2.545626,0.3300742,1.240002,0.5309289,-1.037278,0.09888599,11.61804,14.27041,0.230578,-0.2137068,0.1842771,-0.5257186,-3.538897,-0.5103884,0.3673037,1.431413,0.474154,-0.004473686,-0.2297719,-0.09032069,-1.045193,0.5053598,-0.1155942,0.5338477,1.497881,0.3347483,0.0381891,1.132005,0.3965545,293.7751,265.8965,340.8602,True
4,0.3555556,-0.8287344,0.5108923,-0.6865483,-1.501253,-4.603932,-2.533688,0.3289925,1.241608,0.5318499,-1.037455,-0.0164986,11.43236,14.14185,0.2202482,-0.2276598,0.2184373,-0.5209548,-3.540483,-0.5113869,0.3677118,1.432029,0.4740367,-0.001357064,-0.2489327,-0.09996428,-1.046273,0.5012617,-0.1136927,0.5339199,1.497817,0.3341155,0.03512309,1.136386,0.3997864,293.1703,265.9996,341.1762,True
4,0.3666667,-0.8884536,0.5116595,-0.7386814,-1.496363,-4.614341,-2.520966,0.3276691,1.243357,0.5328851,-1.039156,-0.1547804,11.29973,13.99186,0.2099784,-0.2341737,0.2632449,-0.5158048,-3.541063,-0.5129829,0.3681577,1.432649,0.4738791,-0.01108056,-0.2712975,-0.1147995,-1.047573,0.496652,-0.1108365,0.5339758,1.497725,0.3335233,0.03175177,1.141303,0.4033938,292.4447,266.1442,341.5663,True
4,0.3777778,-0.9482092,0.5252062,-0.7855165,-1.491831,-4.625249,-2.507652,0.3265967,1.245197,0.5338471,-1.038404,0.07057329,11.19363,13.88472,0.214453,-0.2395418,0.28665,-0.5107378,-3.541939,-0.5149819,0.368535,1.433311,0.473706,-0.0293244,-0.2798088,-0.1284736,-1.049121,0.4927371,-0.1079563,0.5340444,1.497605,0.3329096,0.02836764,1.146615,0.4072868,291.51,266.3255,342.0828,True
4,0.3888889,-1.001565,0.5452036,-0.8249331,-1.48745,-4.636994,-2.493746,0.3251858,1.247108,0.5349817,-1.038278,0.01118868,11.14058,13.77759,0.2170008,-0.2577349,0.3324018,-0.5045567,-3.542806,-0.5169595,0.3687589,1.434176,0.4735346,-0.03687038,-0.2766098,-0.1369162,-1.050599,0.4891346,-0.1054881,0.5341184,1.497548,0.332377,0.02483783,1.152198,0.4114164,290.5911,266.2586,342.7646,True
4,0.4,-1.042099,0.5492439,-0.8664367,-1.482696,-4.648532,-2.480077,0.3240061,1.24898,0.5362022,-1.038474,-0.01741451,11.14058,13.71331,0.2132551,-0.2844933,0.3877809,-0.4970945,-3.54394,-0.5183893,0.3690498,1.434914,0.4732857,-0.03270468,-0.2808495,-0.1476185,-1.052251,0.4852541,-0.1035125,0.5342023,1.497504,0.3318901,0.021136,1.158026,0.4158004,289.7254,266.1078,343.5069,True
4,0.4111111,-1.066613,0.5437986,-0.8866315,-1.478066,-4.659747,-2.466331,0.3226025,1.250916,0.5373557,-1.03871,-0.02079892,11.14058,13.67045,0.2155615,-0.29838,0.4069168,-0.4906166,-3.545586,-0.5192858,0.3693548,1.435721,0.4731326,-0.04456583,-0.2776481,-0.1613439,-1.054218,0.4815537,-0.1007729,0.5342283,1.497427,0.331398,0.01741078,1.1641,0.4204408,288.8796,266.0287,344.238,True
4,0.4222222,-1.092195,0.535129,-0.9153384,-1.47309,-4.671182,-2.452347,0.3212244,1.25282,0.5386248,-1.039641,-0.08455068,11.16711,13.64902,0.224297,-0.3016112,0.432414,-0.4839592,-3.545886,-0.5218917,0.3695712,1.436474,0.4730639,-0.06495957,-0.263804,-0.1760403,-1.056486,0.4784087,-0.09790979,0.5342517,1.497377,0.3310874,0.013621,1.170401,0.4253231,288.0018,265.9313,345.0282,True
4,0.4333333,-1.114577,0.5339763,-0.9259634,-1.468729,-4.682453,-2.438216,0.3197051,1.254729,0.5397985,-1.040243,-0.05394523,11.14058,13.6276,0.2212155,-0.3069693,0.4452134,-0.4775847,-3.546767,-0.5234486,0.3696308,1.437188,0.4729609,-0.07770294,-0.2510312,-0.17164,-1.058043,0.4756134,-0.09535102,0.5341704,1.497352,0.3307724,0.009985401,1.176859,0.4304024,287.0419,265.7697,345.9513,True
4,0.4444444,-1.12521,0.5360836,-0.9238237,-1.464854,-4.693382,-2.424613,0.3182149,1.256821,0.5408967,-1.040612,-0.0329829,11.06101,13.6276,0.2033974,-0.3177328,0.4783552,-0.4702035,-3.547194,-0.5247423,0.3695939,1.437931,0.4728768,-0.07880254,-0.2457067,-0.1748134,-1.059741,0.4724305,-0.09295177,0.5339763,1.497404,0.3304312,0.00645449,1.183377,0.4355513,286.0492,265.5514,346.9792,True
4,0.4555556,-1.114573,0.5521436,-0.9057758,-1.462155,-4.704658,-2.411467,0.3166992,1.258792,0.5421224,-1.040959,-0.03126021,10.98143,13.64902,0.1726105,-0.3252857,0.4903003,-0.4632393,-3.547978,-0.5248275,0.3695925,1.438569,0.4727595,-0.07766229,-0.240386,-0.1673649,-1.061171,0.4694183,-0.09075041,0.5338075,1.4974,0.3302047,0.003023603,1.189865,0.4406781,285.0726,265.1984,348.1223,True
4,0.4666667,-1.111374,0.558592,-0.8898194,-1.459565,1.567492,-2.398101,0.3152652,1.260747,0.5433261,-1.041895,-0.08496705,10.92838,13.71331,0.1607779,-0.3221052,0.4797549,-0.4571822,-3.549265,-0.5248393,0.3697756,1.439289,0.4727302,-0.08615801,-0.224422,-0.1629926,-1.062528,0.4669175,-0.08825769,0.5335679,1.497375,0.3300269,-0.0003561829,1.19629,0.4456785,284.183,264.8986,349.2077,True
4,0.4777778,-1.117752,0.5650537,-0.8642657,-1.457716,1.556709,-2.384442,0.3140636,1.262567,0.5445356,-1.042789,-0.08087105,10.90185,13.79901,0.1521133,-0.2752457,0.4777828,-0.4521089,-3.546092,-0.528993,0.3697226,1.440052,0.4728014,-0.1064557,-0.2031294,-0.1670222,-1.064346,0.4649126,-0.08546776,0.5333023,1.497326,0.3298016,-0.003609307,1.202647,0.4504599,283.3695,264.609,350.2353,True
4,0.4888889,-1.122011,0.5800515,-0.8344867,-1.456434,1.545842,-2.370685,0.3127195,1.264635,0.5455511,-1.042843,-0.004173819,10.87533,13.86329,0.1679273,-0.2464199,0.4670679,-0.4470606,-3.543646,-0.5335417,0.3697967,1.440856,0.4728494,-0.1212647,-0.1711963,-0.1540529,-1.065574,0.4638587,-0.08310181,0.5329984,1.49737,0.3297005,-0.006699999,1.208899,0.4550106,282.5635,264.3378,351.138,True
4,0.5,-1.102808,0.5823185,-0.805762,-1.455168,1.535384,-2.357869,0.3113628,1.266613,0.5465481,-1.042691,0.01397157,10.87533,13.92758,0.1871695,-0.2538344,0.4732981,-0.4407489,-3.543336,-0.5365623,0.3697662,1.441654,0.4728789,-0.1136603,-0.1531047,-0.1381318,-1.066485,0.462312,-0.08139446,0.5327262,1.497528,0.3295441,-0.0095537,1.215017,0.4593427,281.7773,263.9458,352.0825,True
4,0.5111111,-1.082528,0.5727931,-0.7983148,-1.45339,1.524913,-2.345256,0.3099543,1.268467,0.5476272,-1.042759,-0.006189106,10.87533,13.99186,0.1872983,-0.2890046,0.478548,-0.4337735,-3.54571,-0.5364733,0.3698024,1.442386,0.4729621,-0.09980305,-0.150964,-0.1372052,-1.067843,0.4603476,-0.07980908,0.5324428,1.497609,0.3294044,-0.01215716,1.221024,0.4634739,281.0634,263.6039,352.9386,True
4,0.5222223,-1.047399,0.5697702,-0.7812861,-1.451843,1.513954,-2.333101,0.3087723,1.270527,0.5486429,-1.0438,-0.09501598,10.87533,14.01328,0.1874464,-0.317784,0.488081,-0.4265015,-3.54783,-0.5366474,0.3698301,1.44318,0.4729698,-0.08605087,-0.172253,-0.1480161,-1.06962,0.4569622,-0.07764845,0.5321693,1.497707,0.3291581,-0.01469584,1.227023,0.467409,280.4349,263.2667,353.7887,True
4,0.5333334,-1.021762,0.5560557,-0.7546553,-1.450841,1.504392,-2.32132,0.307331,1.272218,0.5496831,-1.044183,-0.03420859,10.90185,13.97043,0.1868483,-0.3594263,0.5359384,-0.4172651,-3.549551,-0.5369644,0.3696896,1.443743,0.4730222,-0.07106017,-0.1956856,-0.1428745,-1.070927,0.4533337,-0.07562898,0.5318323,1.497621,0.3289754,-0.01717005,1.233026,0.4711726,279.7436,262.5499,354.9782,True
4,0.5444446,-0.9993162,0.5434378,-0.7194968,-1.450209,1.495288,-2.309668,0.3058698,1.273763,0.5506325,-1.044716,-0.04858536,10.92838,13.90615,0.1890255,-0.3679494,0.5391002,-0.4097332,-3.551131,-0.5377029,0.3694763,1.444329,0.4730899,-0.06879061,-0.2084861,-0.1301303,-1.071734,0.4500862,-0.07333227,0.531478,1.497461,0.3290195,-0.01956325,1.238983,0.4748431,279.0151,261.3548,356.5684,True
4,0.5555557,-0.9822198,0.5339636,-0.694988,-1.449771,1.486353,-2.298256,0.3044453,1.275307,0.551631,-1.044919,-0.01817652,10.92838,13.77759,0.1673038,-0.33702,0.4967123,-0.4050007,-3.55163,-0.5383508,0.3690879,1.444827,0.4732521,-0.07622713,-0.1989088,-0.1279217,-1.073065,0.4478068,-0.07120707,0.5310621,1.497437,0.3290288,-0.02180638,1.244863,0.4785243,278.2852,259.9472,358.3511,True
4,0.5666668,-0.945954,0.5278094,-0.6588343,-1.449668,1.477113,-2.287594,0.3033702,1.27699,0.5527608,-1.044911,0.0007839326,10.90185,13.64902,0.1199586,-0.2848599,0.4545797,-0.4010204,-3.550201,-0.5393868,0.368644,1.445309,0.4734197,-0.09640123,-0.1605857,-0.1180875,-1.074052,0.4472863,-0.06913406,0.5306086,1.497334,0.3292768,-0.02399821,1.250581,0.4822169,277.4933,258.6754,0.07697725,True
4,0.577778,-0.9064417,0.5184493,-0.6183788,-1.450123,1.469227,-2.278005,0.3018387,1.278182,0.55374,-1.045016,-0.009679019,10.87533,13.52046,0.09180766,-0.2209408,0.4176387,-0.3976419,-3.546769,-0.5427282,0.3682552,1.445743,0.4735737,-0.1059852,-0.1083962,-0.1136701,-1.075159,0.4478149,-0.06793457,0.53011,1.497357,0.3293736,-0.02614802,1.256056,0.4858539,276.7252,257.4789,1.792465,True
4,0.5888891,-0.8691545,0.5324706,-0.589702,-1.451387,1.460748,-2.268576,0.3005283,1.279458,0.5545971,-1.045673,-0.0600659,10.8488,13.41333,0.08193848,-0.1921491,0.3911405,-0.3940355,-3.544714,-0.5452188,0.3678507,1.446212,0.4737048,-0.09659156,-0.07002054,-0.1297047,-1.077162,0.4482749,-0.06737558,0.52956,1.49738,0.3296182,-0.02817107,1.261261,0.4894032,276.0877,256.101,3.642349,True
4,0.6000003,-0.8542473,0.5464028,-0.5748559,-1.452519,1.45174,-2.258378,0.2991922,1.280619,0.5553703,-1.046442,-0.07004365,10.82228,13.32762,0.06924778,-0.1655867,0.4115352,-0.3888908,-3.539783,-0.5502264,0.3674657,1.446786,0.4738169,-0.07975563,-0.05400891,-0.1490369,-1.079466,0.4478356,-0.06685067,0.5289667,1.497372,0.3297634,-0.02998347,1.2662,0.4929,275.5194,254.4312,5.729065,True
4,0.6111114,-0.8297402,0.5625485,-0.5387129,-1.45468,1.443831,-2.249163,0.2978415,1.281756,0.5560985,-1.046469,-0.002020423,10.8488,13.26334,0.06217831,-0.1944502,0.4530717,-0.381983,-3.538109,-0.5521092,0.3670126,1.447409,0.4740767,-0.07139803,-0.05185422,-0.1650999,-1.081771,0.4471061,-0.06602109,0.5284263,1.497334,0.3299916,-0.03177811,1.270828,0.4963061,274.897,252.9335,7.683016,True
4,0.6222225,-0.8105438,0.5637196,-0.5163633,-1.456393,1.436164,-2.240062,0.2965994,1.282863,0.5568366,-1.045472,0.09090796,10.8488,13.22048,0.0709278,-0.2498423,0.4635462,-0.3749784,-3.54108,-0.5504929,0.3665268,1.447891,0.474262,-0.07691363,-0.05716679,-0.1842284,-1.084344,0.4459234,-0.06440056,0.5278131,1.497242,0.3302901,-0.03355255,1.275124,0.4996003,274.3401,251.716,9.358521,True
4,0.6333337,-0.7746028,0.5167604,-0.4977528,-1.457322,1.429086,-2.231303,0.2952255,1.28415,0.557605,-1.045966,-0.0461363,10.87533,13.22048,0.09243298,-0.3467155,0.4589157,-0.3672446,-3.551145,-0.542805,0.3658296,1.448454,0.4744394,-0.08771773,-0.05715947,-0.1990334,-1.087004,0.4450239,-0.06262743,0.5272322,1.497185,0.330534,-0.03537616,1.279165,0.5028031,273.9125,250.6278,10.87932,True
4,0.6444448,-0.7293335,0.4574766,-0.4969978,-1.455596,1.42275,-2.224262,0.2942702,1.286271,0.5594497,-1.045882,0.007963368,10.90185,13.11335,0.1201505,-0.3828481,0.4511763,-0.3603869,-3.557135,-0.5393538,0.3648494,1.448967,0.4745727,-0.09658581,-0.0603264,-0.2330359,-1.09066,0.4438753,-0.0607033,0.5264207,1.497153,0.3307621,-0.03715372,1.283029,0.5058833,273.5323,250.1424,11.79334,True
4,0.655556,-0.6651691,0.3510832,-0.4999476,-1.452322,1.417959,-2.218404,0.293205,1.287168,0.5599871,-1.045892,-0.00112447,10.87533,12.89908,0.1239316,-0.328418,0.4086383,-0.3568551,-3.556594,-0.5412329,0.3637885,1.449241,0.4747071,-0.1159696,-0.03368749,-0.2519932,-1.094226,0.4442121,-0.05902923,0.525448,1.49707,0.3311064,-0.03883988,1.286778,0.5088068,273.1919,249.1286,13.21669,True
4,0.6666671,-0.6138681,0.3012725,-0.4529817,-1.451604,1.414037,-2.212698,0.2919673,1.288321,0.5606272,-1.047252,-0.1245984,10.82228,12.57767,0.07507968,-0.2037477,0.3325656,-0.3566138,-3.550503,-0.5462468,0.3626165,1.44956,0.4748518,-0.1243694,-0.002817806,-0.2369547,-1.09636,0.4450976,-0.05773733,0.5244657,1.497177,0.3314552,-0.04043334,1.290516,0.511588,272.9973,246.1743,16.42154,True
4,0.6777782,-0.5433107,0.2248987,-0.3974349,-1.450186,1.411881,-2.208682,0.2908468,1.289172,0.5610211,-1.048036,-0.07092865,10.68966,12.1277,0.003922284,-0.06425332,0.2705438,-0.3573941,-3.540419,-0.5534238,0.3616803,1.449847,0.4750047,-0.1283782,0.0216499,-0.2102508,-1.09785,0.4460614,-0.05667047,0.5235726,1.497224,0.3319833,-0.04168564,1.294241,0.5143349,272.8289,238.5893,24.18677,True
4,0.6888894,-0.556933,0.1547401,-0.3375488,-1.44867,1.410729,-2.201927,0.2897514,1.290359,0.5614684,-1.047701,0.03066896,10.47745,11.74202,-0.01858726,-0.002527446,0.2729739,-0.3558143,-3.530773,-0.5614854,0.3607079,1.450218,0.475215,-0.1161507,0.04823589,-0.1581444,-1.097987,0.4477061,-0.05652426,0.5224548,1.497323,0.3323808,-0.04260881,1.297698,0.5168785,272.4546,227.0518,36.15765,True
4,0.7000005,-0.6374901,0.03557862,-0.2284415,-1.44655,1.413163,-2.192377,0.2883104,1.291627,0.561404,-1.048643,-0.08666708,10.29178,11.42061,-0.004427053,-0.0004483014,0.3144094,-0.3512986,-3.523743,-0.5686342,0.3598122,1.45048,0.4754505,-0.08897462,0.04074293,-0.1051516,-1.097402,0.4479088,-0.05645609,0.5211629,1.49739,0.332768,-0.04349389,1.300812,0.5190464,272.058,216.0674,47.64587,True
4,0.7111117,-0.6595257,-0.07395577,-0.1492502,-1.443527,1.416625,-2.184752,0.2866271,1.293082,0.5615396,-1.04545,0.2923582,10.15915,11.12063,-0.01318667,0.0006539524,0.2846484,-0.349436,-3.520734,-0.5710592,0.3590957,1.450843,0.4757569,-0.07689076,0.009823021,-0.07228828,-1.097267,0.4468796,-0.05557032,0.5199912,1.497349,0.3330429,-0.04433846,1.303399,0.5205874,271.8028,203.9724,60.19781,True
4,0.7222228,-0.6558661,-0.2313187,-0.0518242,-1.438781,1.423272,-2.178579,0.2846402,1.294622,0.5614111,-1.041681,0.3418628,10.13263,10.90636,-0.01348239,0.0198937,0.2538049,-0.3483804,-3.515561,-0.5756534,0.3583437,1.4513,0.4760387,-0.07235999,-0.009373825,-0.0467833,-1.096969,0.4461409,-0.05443315,0.5188774,1.497387,0.3333735,-0.04541956,1.305634,0.5213342,271.7662,200.2715,64.22935,True
4,0.7333339,-0.6419603,-0.209703,0.04077756,-1.439461,1.426766,-2.172313,0.2819771,1.296082,0.5606482,-1.043198,-0.1413199,10.15915,10.60639,0.01330353,-0.03756908,0.2556049,-0.3447414,-3.516906,-0.5753973,0.3579812,1.451686,0.4763031,-0.0699459,-0.03496463,-0.02126935,-1.096316,0.4448366,-0.05316628,0.517898,1.497449,0.3335664,-0.04693787,1.307945,0.5209939,271.8792,204.7701,59.95349,True
4,0.7444451,-0.5928591,-0.1771797,0.1897649,-1.442567,1.433288,-2.168241,0.2787305,1.297339,0.5598395,-1.044545,-0.1215328,10.2122,10.45639,0.02762112,-0.1462379,0.2787132,-0.3385117,-3.523955,-0.5697282,0.3576003,1.452212,0.476444,-0.0497715,-0.08607056,-0.03112083,-1.096928,0.4419138,-0.05181553,0.5170639,1.497479,0.3337042,-0.04873309,1.310584,0.519419,272.0985,204.6534,60.00206,True
4,0.7555562,-0.6085081,0.1402044,0.1749738,-1.452622,1.427847,-2.160122,0.2761992,1.298278,0.5586708,-1.04495,-0.03609854,10.26525,10.49925,0.001975954,-0.2562038,0.3703086,-0.3292322,-3.528388,-0.56458,0.3570328,1.453017,0.4765172,-0.03311113,-0.152059,-0.07397406,-1.098958,0.437619,-0.04996543,0.5161813,1.497426,0.3337975,-0.05075459,1.313593,0.5165594,272.2754,198.3586,65.91564,True
4,0.7666674,-0.6098686,0.7206413,0.1252734,-1.47391,1.413071,-2.151678,0.2735921,1.298608,0.5575657,-1.04662,-0.152794,10.29178,10.67066,-0.01278013,-0.4013429,0.4798634,-0.316717,-3.537889,-0.5549319,0.3564027,1.453776,0.4765856,-0.04194674,-0.1935759,-0.1080199,-1.101064,0.4335717,-0.047404,0.5153285,1.497307,0.333904,-0.05329866,1.317076,0.512729,272.2305,188.8881,74.66702,True
4,0.7777785,-0.6949756,1.156245,0.1560197,-1.497046,1.401152,-2.140099,0.2714072,1.298351,0.5561383,-1.044104,0.2313033,10.29178,10.84208,-0.03538477,-0.5336225,0.5437003,-0.3048765,-3.552022,-0.540496,0.355209,1.454327,0.4765589,-0.06252198,-0.1946228,-0.1408361,-1.103453,0.4311928,-0.04491448,0.5143479,1.497252,0.3340728,-0.05622395,1.320847,0.5083138,272.103,173.9593,88.56184,True
4,0.7888896,-0.8700834,1.837824,0.2148762,-1.535943,1.381651,-2.123401,0.2691584,1.297537,0.5544958,-1.044253,-0.01649649,10.23872,11.44204,-0.07855397,-0.5466382,0.6047354,-0.2939741,-3.555987,-0.5343785,0.3539339,1.454975,0.4766171,-0.1090098,-0.1679582,-0.2053212,-1.107897,0.4298463,-0.04152161,0.5133594,1.497106,0.3343539,-0.05947871,1.325003,0.5045152,271.9702,160.4308,100.5402,True
4,0.8000008,-0.948728,2.243578,0.2329057,-1.569125,1.365156,-2.110092,0.2670095,1.296727,0.5525763,-1.040681,0.3269756,10.15915,11.95629,-0.1079266,-0.5415028,0.6656994,-0.2832032,-3.555572,-0.5324783,0.3520542,1.455276,0.4767568,-0.127523,-0.1508867,-0.2434693,-1.111773,0.4284866,-0.03895113,0.5122004,1.496981,0.3347728,-0.06292335,1.32973,0.5028968,271.6516,135.4705,124.011,True
4,0.8111119,-1.022139,2.663068,0.2082805,4.674916,1.343582,-2.096362,0.2649871,1.295611,0.5510976,-1.03571,0.4526628,10.05305,12.23484,-0.139805,-0.489167,0.5573823,-0.279218,-3.562702,-0.5231242,0.3496888,1.455444,0.4769981,-0.1633537,-0.1029098,-0.3059094,-1.117449,0.4288721,-0.03606692,0.5107458,1.496916,0.335489,-0.06612749,1.335071,0.5041302,271.6751,86.45468,172.4265,True
4,0.8222231,-1.010766,2.798196,0.1450244,4.64589,1.326001,-2.086833,0.2628104,1.295236,0.5495503,-1.038579,-0.265513,10.02653,12.40626,-0.2212541,-0.3590996,0.4016787,-0.2797523,-3.564029,-0.5168266,0.3473966,1.455264,0.4773598,-0.1926532,-0.0006192625,-0.3502454,-1.122863,0.4324312,-0.03452922,0.5091414,1.497083,0.3363793,-0.06914876,1.341505,0.508634,273.0854,45.76749,213.6038,True
4,0.8333342,-0.9860369,2.670227,0.08577025,4.624998,1.313341,-2.078071,0.260941,1.295277,0.548322,-1.038607,0.0004269444,10.07958,12.49196,-0.3046129,-0.09574188,0.1812772,-0.2868097,-3.550929,-0.5234954,0.3453612,1.454949,0.4778366,-0.1667362,0.1580798,-0.30346,-1.124813,0.4400003,-0.0369479,0.5073197,1.497221,0.3373017,-0.07126424,1.348778,0.5158944,275.2719,38.39084,222.5424,True
4,0.8444453,-0.9888676,2.510443,0.0915795,4.604574,1.303401,-2.067979,0.2588165,1.296096,0.5474465,-1.042766,-0.3805239,10.2122,12.74909,-0.3689266,0.05352029,0.04252028,-0.2931587,-3.541577,-0.5262438,0.3434412,1.454759,0.4782355,-0.02119067,0.357208,-0.1182924,-1.120843,0.4516933,-0.04630358,0.5053625,1.497517,0.3382275,-0.07236393,1.356616,0.525488,277.7998,38.60221,224.4595,True
4,0.8555565,-0.9307932,2.297597,0.1199012,4.587086,1.29696,-2.060799,0.2564192,1.297377,0.5472147,-1.04419,-0.1268767,10.4244,13.0705,-0.4325954,0.1451263,-0.03242524,-0.2970607,-3.533586,-0.5271381,0.3419708,1.454826,0.4785714,0.02286617,0.3753071,-0.07930325,-1.120948,0.4562545,-0.04969805,0.5038552,1.497561,0.3387756,-0.07222299,1.364337,0.5362438,280.3271,42.47506,223.3873,True
4,0.8666676,-0.7679216,1.877191,0.1284322,4.580986,1.295712,-2.058226,0.2536904,1.299312,0.5472114,-1.043049,0.1052946,10.74271,13.32762,-0.4168105,0.06935307,0.05465677,-0.2934884,-3.531502,-0.5246624,0.3412858,1.455398,0.4791348,0.1292079,0.3156485,0.001582593,-1.118148,0.4580804,-0.05575594,0.5022792,1.497733,0.3392713,-0.07111335,1.37138,0.5467221,282.6866,46.27032,222.6104,True
4,0.8777788,-0.6446992,1.556762,0.1111803,4.574142,1.293021,-2.055656,0.2514015,1.301146,0.54792,-1.046035,-0.2737933,11.03448,13.28477,-0.2918016,-0.147882,0.1682978,-0.2839548,-3.549223,-0.5088789,0.3401909,1.456223,0.47945,0.1700361,0.1388166,0.02122163,-1.11726,0.4529303,-0.05649204,0.5008006,1.49769,0.339494,-0.07006234,1.377876,0.5559061,284.7893,47.99329,223.5479,True
4,0.8888899,-0.6955402,1.404225,0.06591231,4.564044,1.287007,-2.047023,0.2494724,1.303408,0.5510223,-1.051255,-0.4748999,11.27321,13.43475,-0.02634984,-0.5427927,0.3380141,-0.2658943,-3.596391,-0.472481,0.339595,1.457352,0.4796326,0.1013899,-0.01884012,-0.03684132,-1.11927,0.4465973,-0.05266108,0.4994536,1.497599,0.3395734,-0.06965276,1.383818,0.5629202,286.5003,49.36257,224.2931,True
4,0.900001,-0.7774342,1.349576,0.007515848,4.552918,1.279031,-2.03661,0.2478053,1.304364,0.5514524,-1.050889,0.03684498,11.56498,14.52753,0.1787053,-0.8141527,0.4519767,-0.2508522,-3.642772,-0.4361446,0.338248,1.45841,0.4795237,-0.00579562,-0.06039972,-0.1039714,-1.12263,0.4446813,-0.04796673,0.4979989,1.497444,0.3398492,-0.07016557,1.388839,0.5669678,287.5889,51.51781,223.4164,True
4,0.9111122,-0.8091035,1.185172,-0.09210184,4.547942,1.271731,-2.028091,0.245495,1.30493,0.5522225,-1.043591,0.6659963,11.93634,16.75595,0.2337291,-0.8259054,0.5367495,-0.2387503,-3.663325,-0.4207054,0.3369248,1.459334,0.4795151,-0.1826919,-0.04231586,-0.2118827,-1.128839,0.4445157,-0.03952451,0.4966935,1.497411,0.3398893,-0.071855,1.392815,0.5684396,287.9601,52.53096,222.0163,True
4,0.9222233,-0.7587021,1.004032,-0.1406164,4.545366,1.266767,-2.022269,0.2431506,1.306185,0.5530901,-1.040542,0.2728597,12.38727,19.52003,0.2362308,-0.6886617,0.6286207,-0.2289019,-3.65267,-0.432907,0.3348814,1.459903,0.4794056,-0.2666208,-0.01994067,-0.2919634,-1.134469,0.445053,-0.03429113,0.4951451,1.497481,0.3402343,-0.07467207,1.396222,0.5688518,287.7045,51.46073,221.5013,True
4,0.9333345,-0.613155,0.672919,-0.1770762,4.551101,1.265926,-2.020947,0.2408085,1.307691,0.554301,-1.042495,-0.1801196,12.91777,22.88408,0.1584917,-0.4429414,0.7128137,-0.220791,-3.617484,-0.4660068,0.3327051,1.460398,0.4792969,-0.2488336,-0.0241535,-0.3241095,-1.139215,0.4444141,-0.0318799,0.493506,1.497602,0.3405726,-0.07760358,1.399225,0.5690728,287.4012,50.31005,221.39,True
4,0.9444456,-0.4322574,0.23417,-0.2569013,4.564526,1.266743,-2.022421,0.2389171,1.309339,0.5556843,-1.04593,-0.3123833,13.31565,26.07671,0.09044406,-0.1692708,0.68194,-0.2183627,-3.574088,-0.5068011,0.3305476,1.46069,0.4794793,-0.1783927,-0.03370056,-0.3120436,-1.141904,0.443352,-0.03233157,0.4914944,1.49792,0.3412015,-0.08036457,1.402022,0.5696561,287.117,50.38567,220.6376,True
4,0.9555568,-0.4021808,0.09559651,-0.3065754,4.568997,1.263488,-2.019132,0.2369997,1.310561,0.5566552,-1.051182,-0.477911,13.52785,28.81937,0.003898889,0.002245292,0.5679042,-0.2186647,-3.54964,-0.5281121,0.3285692,1.460991,0.4795983,-0.09920853,-0.005013969,-0.1711293,-1.138852,0.4446526,-0.03448128,0.4894441,1.498072,0.3416922,-0.08272216,1.404674,0.5706853,286.9404,51.18676,219.7082,True
4,0.9666679,-0.3997723,-0.05898754,-0.346595,4.576785,1.261414,-2.015057,0.2350557,1.311742,0.5578697,-1.053977,-0.2523255,13.63395,31.19777,-0.08528395,0.1331697,0.5124035,-0.218408,-3.517509,-0.5554957,0.326544,1.461395,0.4797621,-0.05928358,0.07154917,-0.01058694,-1.133401,0.4486874,-0.03700303,0.4872532,1.49827,0.3422832,-0.0844848,1.406816,0.5717127,286.8055,53.48395,217.7321,True
4,0.977779,-0.4049347,-0.1378627,-0.3538017,4.58193,1.259604,-2.010561,0.2330508,1.312728,0.5590007,-1.04792,0.5548941,13.5809,33.16906,-0.09185649,0.1576723,0.4965351,-0.2148191,-3.49643,-0.5751624,0.3249013,1.461972,0.4799292,-0.06158384,0.1577396,0.08433734,-1.129922,0.4539714,-0.03829093,0.485228,1.498456,0.3427925,-0.08586319,1.408082,0.5724081,286.6367,56.52463,214.9724,True
4,0.9888902,-0.4227702,-0.2507188,-0.3193533,4.589097,1.260379,-2.0051,0.230957,1.313791,0.5605392,-1.046004,0.1701198,13.3687,33.919,-0.02351254,0.1205375,0.505513,-0.2099402,-3.480139,-0.593177,0.3232958,1.462355,0.4802315,-0.06963706,0.1683361,0.1313061,-1.126925,0.4566621,-0.03837083,0.4832315,1.49857,0.3432224,-0.08756555,1.408851,0.5732397,286.4302,57.69283,213.7542,True
4,1.000001,-0.4204559,-0.3284702,-0.3074102,4.596025,1.260446,-2.000566,0.2289629,1.315035,0.5617814,-1.045189,0.07316287,13.07692,33.3619,0.07905804,0.03767154,0.5173278,-0.2034117,-3.473249,-0.6043884,0.3217672,1.462957,0.4805827,-0.05481764,0.1118996,0.1172402,-1.126413,0.455767,-0.03787574,0.4814772,1.498673,0.3435736,-0.08966233,1.409427,0.5743645,286.0179,58.13365,213.2695,True
4,1.011112,-0.3594534,-0.4625635,-0.3070764,4.606049,1.261381,-1.99875,0.2269635,1.316207,0.5629756,-1.044342,0.07689618,12.67905,31.58346,0.1271494,-0.03144869,0.5146806,-0.1972737,-3.46868,-0.6120029,0.3201813,1.463401,0.4809532,-0.05508966,0.07251531,0.08737137,-1.126431,0.4551736,-0.03701687,0.4796539,1.498813,0.3439567,-0.09200792,1.410078,0.5757686,285.5771,58.15606,213.3134,True
4,1.022224,-0.3050221,-0.5146688,-0.3133748,4.614418,1.261229,-1.997422,0.225002,1.317259,0.5640495,-1.044746,-0.03802968,12.25464,28.92651,0.1586129,-0.1462103,0.414055,-0.1935245,-3.488712,-0.5950389,0.3183935,1.463789,0.4810524,-0.06715471,0.03846233,0.05017317,-1.127205,0.4544415,-0.03558116,0.4778051,1.498898,0.3442607,-0.09440406,1.411004,0.5772084,285.1626,58.2761,213.3999,True
4,1.033335,-0.2506327,-0.5497804,-0.3314421,4.622882,1.260466,-1.996721,0.2230633,1.318177,0.565145,-1.04697,-0.2035368,11.98939,26.20527,0.123727,-0.2323192,0.2852489,-0.1917487,-3.516922,-0.5674802,0.3163602,1.464198,0.4811478,-0.0972676,-0.01053149,0.01846704,-1.128079,0.4520986,-0.03235874,0.4760228,1.499081,0.3446264,-0.0966045,1.412251,0.578409,284.8335,59.08982,212.8682,True
4,1.044446,-0.2133519,-0.5583317,-0.3591642,4.631019,1.258728,-1.995766,0.2211362,1.318872,0.5659361,-1.046425,0.05048991,11.88329,23.78402,0.1055122,-0.2333925,0.2704713,-0.1883302,-3.519453,-0.5654604,0.3142587,1.464639,0.4812894,-0.1243698,-0.0286056,-0.02921227,-1.129866,0.4511817,-0.02969398,0.4740318,1.499338,0.3451114,-0.0984708,1.413565,0.5791081,284.665,61.25116,210.9174,True
4,1.055557,-0.133413,-0.58695,-0.3708881,4.639434,1.257655,-1.996933,0.219103,1.319982,0.5673964,-1.045376,0.0939179,11.93634,21.64131,0.04551154,-0.08227196,0.2744411,-0.1882306,-3.488067,-0.5945829,0.311648,1.465104,0.4812245,-0.1440417,-0.007271178,-0.07586022,-1.132177,0.4518205,-0.02772351,0.4719653,1.499615,0.3456833,-0.1001911,1.414748,0.5793672,284.6312,63.78736,208.3488,True
4,1.066668,-0.05450006,-0.6262042,-0.3719245,4.648685,1.25739,-1.999117,0.2169966,1.320352,0.5681927,-1.043178,0.1986764,12.14854,19.7343,0.00474482,0.1072015,0.2985806,-0.1893502,-3.441583,-0.6389592,0.308804,1.465202,0.4811153,-0.1428788,0.0331974,-0.06304496,-1.13255,0.4537385,-0.02700099,0.4697804,1.499805,0.3463335,-0.1019683,1.415603,0.5793735,284.6211,66.37827,205.5713,True
4,1.077779,-0.0503965,-0.5398677,-0.353012,4.652972,1.255826,-1.998503,0.2149028,1.320512,0.5688848,-1.043166,-0.002121779,12.38727,18.1487,-0.02723663,0.1390633,0.3063486,-0.1879537,-3.419992,-0.6587806,0.3063831,1.465454,0.4812081,-0.1222139,0.09814836,-0.01630502,-1.131108,0.4572612,-0.02790886,0.467448,1.50006,0.3471045,-0.1040067,1.416043,0.5793648,284.4709,68.62019,203.0613,True
4,1.08889,-0.06542464,-0.4759275,-0.3350759,4.656985,1.254273,-1.997362,0.2126761,1.320765,0.5696433,-1.04204,0.1012038,12.59947,16.75595,-0.1730908,0.2805402,0.2278852,-0.1928011,-3.387867,-0.683152,0.3036571,1.465053,0.4813077,-0.1026902,0.1492576,0.02190309,-1.129668,0.4610665,-0.02906574,0.4651115,1.500292,0.3478165,-0.1063777,1.415972,0.5795286,284.2368,70.67766,200.7746,True
4,1.100002,-0.08680433,-0.419508,-0.3075456,4.661658,1.253377,-1.995284,0.2103178,1.321152,0.5702817,-1.036547,0.4991342,12.67905,15.7703,-0.208737,0.327419,0.1803114,-0.1957509,-3.367949,-0.6993778,0.3010934,1.465018,0.4816368,-0.05093788,0.219536,0.0885711,-1.1266,0.4663637,-0.03242745,0.4627224,1.500478,0.3484793,-0.1089292,1.415067,0.5797768,284.0428,72.33623,199.0451,True
4,1.111113,-0.1028327,-0.374675,-0.267171,4.664676,1.253121,-1.993665,0.2079284,1.321675,0.5714645,-1.032923,0.3250846,12.57294,15.29891,-0.1970587,0.3231999,0.1738195,-0.1967485,-3.348835,-0.7163344,0.2985081,1.464799,0.4819703,-0.007000521,0.2440439,0.1158487,-1.124471,0.4704426,-0.03571112,0.4603006,1.500673,0.3491838,-0.1118431,1.413543,0.5802822,283.6578,72.36411,198.9432,True
4,1.122224,-0.1113917,-0.3437235,-0.245946,4.667927,1.2523,-1.992323,0.2056705,1.321784,0.5724983,-1.029196,0.3362071,12.33422,15.19177,-0.1642474,0.249883,0.1233444,-0.1969424,-3.349011,-0.7156311,0.2959988,1.464616,0.48227,0.04983155,0.2632199,0.1536452,-1.121679,0.4743551,-0.03992345,0.4578942,1.500849,0.3497975,-0.1151058,1.411736,0.5811034,283.0314,71.59762,199.7365,True
4,1.133335,-0.09441692,-0.3031613,-0.2311724,4.670624,1.251259,-1.991823,0.2033984,1.321828,0.5732086,-1.026742,0.2195328,11.90981,15.14892,-0.114153,0.1744121,0.1025557,-0.1962691,-3.349806,-0.7152132,0.2934864,1.464663,0.4827573,0.08619893,0.2419322,0.1660359,-1.119487,0.4766178,-0.04315093,0.4553814,1.500972,0.3504064,-0.118584,1.409997,0.5821562,282.2513,70.49522,200.9294,True
4,1.144446,-0.06677265,-0.281744,-0.238688,4.673002,1.24942,-1.992468,0.2011578,1.322048,0.5747709,-1.024176,0.2309226,11.32626,15.44889,-0.05652134,0.07764883,0.0848677,-0.194472,-3.356722,-0.7096946,0.2908159,1.464656,0.483057,0.05396108,0.2174329,0.1375763,-1.119021,0.4783424,-0.04319914,0.4529546,1.501112,0.3509564,-0.1220194,1.408576,0.5833864,281.572,69.36163,202.1004,True
4,1.155557,-0.001791494,-0.2826677,-0.2376879,4.676998,1.248445,-1.994674,0.198967,1.322251,0.575408,-1.022091,0.1866368,10.74271,15.92029,-0.02670048,0.04684708,0.07498866,-0.1937673,-3.355848,-0.7109979,0.2882411,1.464595,0.4833479,0.007747665,0.188673,0.09540317,-1.119445,0.4795269,-0.04222122,0.4505424,1.50141,0.3515327,-0.1250781,1.407443,0.5846803,281.1518,68.85214,202.6977,True
4,1.166668,0.03866578,-0.2751477,-0.2452118,4.68083,1.246878,-1.996579,0.1966274,1.322339,0.5761058,-1.020237,0.1658638,10.2122,16.5631,0.0006603145,0.00761252,0.01929778,-0.1942675,-3.36603,-0.7019382,0.2856468,1.464382,0.4836044,-0.009337239,0.1588376,0.0891535,-1.118721,0.480439,-0.04190058,0.4480344,1.501642,0.3520939,-0.1277557,1.406582,0.5860103,280.9346,69.0333,202.5814,True
4,1.17778,0.03112887,-0.2367373,-0.2410313,4.682178,1.245028,-1.996795,0.1942261,1.322345,0.5772581,-1.01874,0.1332518,9.840847,17.42018,-0.01215571,0.01823253,0.01941704,-0.1944949,-3.362748,-0.704412,0.2830565,1.464247,0.4838541,0.002553992,0.1343313,0.1039247,-1.116926,0.4813635,-0.04290299,0.4455191,1.501862,0.3527224,-0.1301832,1.405928,0.5875022,280.8484,69.72911,201.9249,True
4,1.188891,0.003394899,-0.202601,-0.2070164,4.683699,1.244339,-1.995908,0.1917139,1.32214,0.577847,-1.015255,0.3151732,9.681698,18.19156,-0.05137541,0.06386204,0.05923355,-0.1944736,-3.347048,-0.7179065,0.2803423,1.464121,0.4840758,0.05937199,0.1322087,0.1385041,-1.114227,0.4830754,-0.04623274,0.4428716,1.502001,0.3532765,-0.1323791,1.405196,0.5889686,280.8965,70.86856,201.0556,True
4,1.200002,-0.0009179246,-0.1705709,-0.18792,4.684734,1.243357,-1.995809,0.1891904,1.322104,0.5786052,-1.010333,0.4452178,9.655171,18.9415,-0.07145235,0.1042116,0.09356147,-0.1943745,-3.329999,-0.7331374,0.277622,1.463967,0.4844728,0.08826205,0.1481983,0.1520766,-1.112199,0.4856486,-0.04931615,0.4401702,1.502092,0.3538485,-0.1346921,1.404281,0.5903994,280.9289,71.91541,200.2249,True
4,1.211113,3.948621E-05,-0.1151478,-0.1795654,4.684931,1.241447,-1.995959,0.186658,1.321814,0.5790982,-1.006191,0.3731246,9.761274,19.71288,-0.06840524,0.1340672,0.08401047,-0.1956933,-3.31749,-0.7447269,0.2749182,1.46365,0.484762,0.1078867,0.1716043,0.1977105,-1.108629,0.4889508,-0.05266907,0.4374856,1.502274,0.3544903,-0.1373339,1.403243,0.5919021,280.863,71.87895,200.371,True
4,1.222224,-0.01385824,-0.08743927,-0.1711057,4.685502,1.239924,-1.995451,0.1840909,1.321637,0.5796678,-1.004219,0.1755872,9.94695,20.4414,-0.0577241,0.08935514,0.07317089,-0.1950467,-3.320625,-0.7415431,0.2720856,1.463506,0.4852912,0.1091257,0.1790393,0.2147555,-1.105695,0.4915248,-0.05510266,0.4347129,1.502369,0.3550618,-0.1402283,1.402126,0.5933276,280.6796,71.10601,201.3436,True
4,1.233335,-0.01709681,-0.06613742,-0.1690386,4.686415,1.238263,-1.995176,0.1815632,1.32131,0.5801122,-1.002003,0.1997107,10.18567,20.9985,-0.06962207,0.05849662,0.04017721,-0.1951644,-3.324174,-0.7369127,0.269343,1.463083,0.4854336,0.1057884,0.1897053,0.2009503,-1.104203,0.4943862,-0.05751469,0.4320766,1.502548,0.3556039,-0.1432668,1.400994,0.594593,280.4303,70.31046,202.3068,True
4,1.244446,-0.01073613,-0.04478883,-0.1595197,4.6868,1.236778,-1.995312,0.1789345,1.321144,0.5806558,-0.9991552,0.2573502,10.3183,21.36276,-0.09864946,0.09682348,0.01811406,-0.1971645,-3.316964,-0.7418931,0.2665894,1.462714,0.4856825,0.09811024,0.1950484,0.1797273,-1.103084,0.4971481,-0.05954375,0.4294073,1.502663,0.3562691,-0.1463031,1.39984,0.5956895,280.2046,69.64606,203.0636,True
4,1.255558,0.008463473,-0.05433895,-0.1509979,4.688694,1.236065,-1.995966,0.1763092,1.321,0.5807829,-0.9974156,0.1558013,10.39788,21.68417,-0.1114272,0.1276622,0.02892817,-0.1984305,-3.305076,-0.7518727,0.2638451,1.462458,0.4859538,0.101248,0.1875962,0.1732937,-1.10143,0.4992165,-0.06174459,0.4267882,1.502663,0.3568892,-0.1492982,1.398739,0.5966494,279.9744,69.10406,203.6502,True
4,1.266669,0.03835073,-0.07447419,-0.1360592,4.690502,1.235799,-1.997422,0.1736892,1.320857,0.581305,-0.9962284,0.1064026,10.37135,22.09128,-0.1080961,0.1169875,0.04273107,-0.1983352,-3.298117,-0.7576584,0.2611591,1.462239,0.4862301,0.1203757,0.1780297,0.1677618,-1.09985,0.5011752,-0.06462506,0.4241737,1.502737,0.3575761,-0.1521978,1.397737,0.5974946,279.769,68.79987,203.9769,True
4,1.27778,0.05117704,-0.09575622,-0.1306933,4.692911,1.235393,-1.998212,0.1712566,1.320519,0.5814238,-0.9953682,0.07697142,10.3183,22.54125,-0.1047304,0.08501607,0.05542456,-0.1974702,-3.294982,-0.7595751,0.258403,1.461977,0.4864955,0.138208,0.1961863,0.1420333,-1.099244,0.5044485,-0.06823205,0.4215353,1.50283,0.3583817,-0.1550396,1.396897,0.5982642,279.6215,68.5097,204.3309,True
4,1.288891,0.04793848,-0.08729178,-0.1530772,4.694321,1.233459,-1.998696,0.1688977,1.320433,0.5820467,-0.9946704,0.06201365,10.29178,22.94836,-0.0952173,0.04779839,0.03396737,-0.1971485,-3.298975,-0.7549455,0.2556702,1.461764,0.4866521,0.122913,0.2260419,0.1070629,-1.099424,0.5083845,-0.07087444,0.4189383,1.502916,0.3592072,-0.1577827,1.396141,0.5988402,279.5265,68.71731,204.2531,True
4,1.300002,0.05535096,-0.06809969,-0.1627183,4.694771,1.231506,-1.999751,0.1665394,1.320076,0.582751,-0.992403,0.2055342,10.23872,23.1412,-0.1155199,0.06586535,0.03202974,-0.1980081,-3.293005,-0.7588004,0.252973,1.461362,0.4868214,0.1004179,0.2377468,0.09666209,-1.098738,0.511669,-0.07261002,0.4164186,1.502981,0.3599246,-0.1604476,1.39535,0.5992009,279.4916,69.36713,203.6641,True
4,1.311113,0.06493413,-0.07023361,-0.1701817,4.69648,1.229935,-2.00084,0.1641445,1.319744,0.5830903,-0.9902682,0.1921578,10.18567,23.09835,-0.1209287,0.1297487,0.04179092,-0.1998809,-3.277153,-0.7727996,0.2502448,1.461007,0.4869435,0.08649313,0.2515917,0.0904441,-1.097863,0.5153493,-0.07478289,0.4138035,1.503122,0.360518,-0.1630523,1.394424,0.5993662,279.4016,70.07651,202.9037,True
4,1.322224,0.05956205,-0.05533513,-0.1776646,4.697221,1.228063,-2.001321,0.1617117,1.319394,0.5836778,-0.9890661,0.1071906,10.1061,22.92693,-0.1141637,0.1839612,0.1068362,-0.2002612,-3.252351,-0.7960956,0.2475282,1.46078,0.4871418,0.1108021,0.2601535,0.07209441,-1.097942,0.5188798,-0.07839095,0.4113042,1.503177,0.3611681,-0.1657473,1.393467,0.5996503,279.1965,70.56493,202.1527,True
4,1.333336,0.05211738,-0.05103654,-0.1595575,4.698028,1.227211,-2.001635,0.1591742,1.319063,0.5842526,-0.9872589,0.1629782,9.999999,22.8198,-0.105504,0.1541352,0.1152259,-0.1996508,-3.244847,-0.8025646,0.2448801,1.460354,0.4873466,0.1341556,0.2623109,0.06332974,-1.09787,0.5222012,-0.08226664,0.4087822,1.50316,0.3617401,-0.1684439,1.392427,0.6002507,279.0436,70.79629,201.7204,True
4,1.344447,0.01168461,-0.05207533,-0.1222181,4.698558,1.227489,-2.000421,0.1565059,1.318784,0.5846741,-0.9845781,0.2421602,9.840847,22.36983,-0.1261426,0.1052243,0.04817452,-0.2004758,-3.253264,-0.7922952,0.2423985,1.459704,0.4876499,0.141779,0.2654794,0.08031301,-1.096479,0.5255039,-0.08556151,0.4062592,1.50331,0.3621824,-0.171119,1.391234,0.6011546,278.9133,70.93187,201.6094,True
4,1.355558,0.002090936,-0.04674874,-0.1147656,4.699354,1.226635,-2.000153,0.1539878,1.318521,0.5849996,-0.9821925,0.2145357,9.787797,21.7913,-0.1253125,0.0946406,0.01511513,-0.2017568,-3.255021,-0.7891311,0.2398292,1.459444,0.4880695,0.1333338,0.2590466,0.0899847,-1.095302,0.5281575,-0.08754396,0.4037574,1.503187,0.3627014,-0.1738531,1.389933,0.6023683,278.7639,70.50317,202.1698,True
4,1.366669,0.01276323,-0.04882052,-0.1019885,4.700177,1.226233,-2.000634,0.1514991,1.318525,0.5853002,-0.9784635,0.3376147,9.867373,21.14849,-0.1041239,0.07449575,-0.006393133,-0.20242,-3.256325,-0.7874017,0.2372863,1.45935,0.4883387,0.1316615,0.2291707,0.1325838,-1.09255,0.5302077,-0.08986305,0.4012554,1.503179,0.3632424,-0.1766636,1.388578,0.6037511,278.615,69.39182,203.547,True
4,1.37778,-0.02457364,-0.006202605,-0.07223444,4.699027,1.22589,-1.999272,0.1491458,1.318329,0.5854647,-0.9769934,0.1299726,10.1061,20.50568,-0.08902073,0.03828579,0.006198482,-0.2014948,-3.256635,-0.7865886,0.2347343,1.45903,0.4885552,0.1437068,0.2089283,0.1622633,-1.090026,0.5326383,-0.09321064,0.3986953,1.503266,0.3641138,-0.1795679,1.3873,0.6050678,278.4231,67.66305,205.6284,True
4,1.388891,-0.03844061,0.007637324,-0.06373574,4.698694,1.225315,-1.998314,0.1466177,1.318283,0.5855963,-0.9755058,0.1333896,10.50398,20.03428,-0.08976985,-0.06932437,0.01237596,-0.1981051,-3.27104,-0.771488,0.2322841,1.45894,0.488658,0.1480113,0.1822971,0.1643216,-1.088169,0.53405,-0.09573079,0.3962525,1.503284,0.3646684,-0.1824292,1.386145,0.6061498,278.2012,66.31126,207.2612,True
4,1.400002,-0.0128543,-0.006198686,-0.07863813,4.699835,1.224273,-1.999272,0.144133,1.318102,0.5859783,-0.97129,0.3825667,10.92838,19.62717,-0.1057017,-0.075766,0.01674867,-0.1971762,-3.27408,-0.7666489,0.2298215,1.458721,0.4888062,0.1231517,0.1855183,0.1304793,-1.088335,0.5367221,-0.09733108,0.3938579,1.503226,0.3653388,-0.1851753,1.385124,0.6069263,278.0235,65.16396,208.5511,True
4,1.411114,0.01591463,-0.01790707,-0.09461717,4.701138,1.223068,-2.000481,0.1415852,1.317892,0.5863054,-0.9690082,0.2035601,11.37931,19.37004,-0.08530359,-0.03210846,0.05076938,-0.1967213,-3.263709,-0.7765706,0.2273099,1.458469,0.4888368,0.09603335,0.1962126,0.08282132,-1.089289,0.5397543,-0.09899822,0.3915209,1.503221,0.3659461,-0.1878451,1.38433,0.6074218,277.9124,63.6088,210.1506,True
4,1.422225,0.002086677,-0.02324294,-0.08925277,4.701734,1.222571,-2.000079,0.1391451,1.317604,0.5866106,-0.9684101,0.05137063,11.88329,19.34862,-0.08491389,0.06892464,0.1329989,-0.1967751,-3.23305,-0.8058401,0.2246956,1.458037,0.4887476,0.06764767,0.2133073,0.01707811,-1.091529,0.5429082,-0.1002627,0.389183,1.503166,0.3664796,-0.1905396,1.383822,0.6076967,277.8292,63.19616,210.5485,True
4,1.433336,-0.03308738,-0.01694344,-0.09455695,4.702265,1.221477,-1.998457,0.1368371,1.317295,0.5869284,-0.966124,0.2066737,12.41379,19.56289,-0.110682,0.1157581,0.1226373,-0.1981584,-3.22098,-0.8155124,0.2221259,1.457714,0.4888287,0.05907878,0.2143783,0.01290186,-1.091632,0.5456875,-0.1019554,0.3868824,1.50314,0.3670895,-0.1931974,1.383378,0.6078489,277.8164,64.65843,208.9659,True
4,1.444447,-0.07467242,-0.006426822,-0.1126485,4.702638,1.219632,-1.996229,0.1346957,1.317226,0.5871155,-0.9617037,0.4002891,12.78515,19.6486,-0.1399769,0.1126324,0.05361307,-0.2002191,-3.223378,-0.8106279,0.2196143,1.457377,0.4888208,0.08275454,0.2122428,0.03609627,-1.090732,0.5483257,-0.1048074,0.3846202,1.503166,0.3676357,-0.1958507,1.382772,0.608017,277.865,66.23962,207.2241,True
4,1.455558,-0.06187016,-0.02777144,-0.1349691,4.704501,1.218104,-1.996132,0.1324442,1.31704,0.587507,-0.9575379,0.3755475,12.9443,19.69145,-0.1582069,0.1083611,0.0367021,-0.2009387,-3.220828,-0.8108521,0.2172341,1.457211,0.4889686,0.1104768,0.2303741,0.04010263,-1.090406,0.5519704,-0.108612,0.3822541,1.503152,0.3681502,-0.1985206,1.381933,0.6082788,277.8464,66.51875,206.8265,True
4,1.466669,-0.05868785,-0.03636384,-0.1615807,4.706306,1.215926,-1.995637,0.1303198,1.31707,0.5877755,-0.9541659,0.3034997,12.9443,19.71288,-0.1529661,0.03493974,0.002419075,-0.2001925,-3.231006,-0.7993444,0.2149257,1.457006,0.4890342,0.1414759,0.2708669,0.05367932,-1.08988,0.5569953,-0.1135726,0.3800002,1.50315,0.368609,-0.2011947,1.380961,0.6087006,277.6513,65.6968,207.5938,True
4,1.47778,-0.07251555,-0.05451884,-0.1647017,4.708085,1.214823,-1.994147,0.1281737,1.317101,0.5880084,-0.9536088,0.0467439,12.81167,19.75573,-0.117741,-0.01928842,-0.005420987,-0.1990553,-3.239084,-0.791169,0.2126534,1.456813,0.4889777,0.138306,0.2847169,0.05584192,-1.089767,0.5611598,-0.1169831,0.3777539,1.503144,0.3689651,-0.2038073,1.380042,0.6093345,277.3327,64.55402,208.752,True
4,1.488891,-0.06288566,-0.07795749,-0.1699731,4.710516,1.21369,-1.993744,0.1259731,1.317052,0.5882885,-0.9506867,0.2649301,12.65252,19.86287,-0.07801288,-0.02140351,0.03368109,-0.1977413,-3.233485,-0.7970226,0.2103501,1.456518,0.4888957,0.112732,0.2815008,0.05503368,-1.089533,0.5646381,-0.1189874,0.3755141,1.503088,0.3693669,-0.2062803,1.379161,0.6101727,277.0893,64.5155,208.8676,True
4,1.500003,-0.05221414,-0.08861211,-0.1784756,-1.5706,1.212196,-1.993656,0.1239367,1.31688,0.5885303,-0.9468268,0.3485638,12.49337,19.88429,-0.03306532,-0.05008867,0.05031662,-0.1958712,-3.234292,-0.7973952,0.2080612,1.456202,0.4887094,0.07882845,0.2665429,0.07133037,-1.088666,0.5675229,-0.1201008,0.3734208,1.503008,0.3696432,-0.2086243,1.378311,0.6112041,276.9114,64.42241,209.1075,True
4,1.511114,-0.09390556,-0.03231451,-0.2030903,-1.570656,1.208817,-1.991213,0.1218612,1.316672,0.5886769,-0.9449737,0.1645547,12.41379,20.03428,-0.06301285,-0.03203161,0.04100478,-0.1960001,-3.232806,-0.7970314,0.2057354,1.456027,0.4885814,0.0735133,0.2409786,0.06921637,-1.088307,0.56974,-0.1219533,0.3712705,1.503023,0.3700087,-0.2109056,1.377545,0.6123252,276.7752,63.98625,209.7912,True
4,1.522225,-0.1111869,0.07092834,-0.2236051,4.709764,1.204146,-1.989354,0.1198618,1.316607,0.5887637,-0.9425294,0.2202197,12.49337,20.4414,-0.1207071,0.003001593,0.03087392,-0.1967991,-3.228774,-0.7977781,0.2034386,1.45598,0.4884515,0.06610866,0.2217867,0.07353543,-1.087618,0.5718323,-0.1234234,0.369271,1.502886,0.3703308,-0.2131237,1.376804,0.6133997,276.6882,64.25726,209.7874,True
4,1.533336,-0.06751698,0.07419938,-0.2300547,4.710172,1.201392,-1.990264,0.1178875,1.316699,0.5889623,-0.9374455,0.4611216,12.7321,21.19134,-0.1281576,0.04237646,0.04486079,-0.1974223,-3.21923,-0.8054911,0.2011819,1.455938,0.4884086,0.0780402,0.2068655,0.0925746,-1.086184,0.5742345,-0.1258732,0.3671864,1.502865,0.3706152,-0.215283,1.376001,0.6143947,276.6296,64.64607,209.5689,True
4,1.544447,-0.024857,0.04977962,-0.2321652,4.711501,1.199081,-1.991429,0.1159703,1.31692,0.5891171,-0.935209,0.198942,13.12997,22.13413,-0.1194266,0.04873051,0.07356954,-0.1967767,-3.21005,-0.8134346,0.1990719,1.455876,0.4882703,0.09818059,0.1972978,0.08277473,-1.08576,0.5763666,-0.1285207,0.3652431,1.502733,0.3708742,-0.2175607,1.375319,0.6155133,276.4988,63.37628,210.876,True
4,1.555558,-0.05258579,0.06464341,-0.2279126,4.711444,1.196458,-1.989756,0.114242,1.317075,0.5893536,-0.9355573,-0.03484515,13.60743,23.18406,-0.08194587,-0.005535763,0.08168904,-0.1944582,-3.21291,-0.8109549,0.197058,1.455857,0.4880984,0.1045064,0.2100939,0.07739466,-1.08552,0.5796059,-0.1313556,0.3633675,1.502722,0.3710477,-0.2198304,1.374905,0.6168963,276.3744,61.22399,213.0902,True
4,1.566669,-0.08461846,0.09544629,-0.2364863,4.710733,1.192946,-1.987761,0.1123135,1.31707,0.5894945,-0.9335114,0.1855729,14.13793,24.27683,-0.06928697,-0.06615338,0.04630984,-0.1928938,-3.225695,-0.7980844,0.1949907,1.45582,0.4878516,0.09272276,0.2111561,0.07112379,-1.085238,0.5823887,-0.1333221,0.3614743,1.502739,0.3712223,-0.2218605,1.374576,0.6183743,276.3245,60.96206,213.6093,True
4,1.577781,-0.110298,0.1347262,-0.2653268,4.709656,1.188234,-1.985742,0.1104093,1.31694,0.5896955,-0.9281148,0.4898804,14.69496,25.41247,-0.05960571,-0.08106245,0.05366579,-0.1912874,-3.227838,-0.7955317,0.1929669,1.455736,0.4875996,0.05522125,0.2036928,0.04912904,-1.085639,0.584618,-0.1337637,0.3597018,1.502723,0.3712935,-0.2236771,1.374164,0.6197972,276.3234,61.49907,213.3888,True
4,1.588892,-0.1049713,0.1293815,-0.2749046,4.70997,1.184731,-1.984813,0.1084351,1.316858,0.5899689,-0.9251183,0.2682826,15.19894,26.56953,-0.03424522,-0.04581407,0.03862228,-0.1918685,-3.224641,-0.7991592,0.1907795,1.455695,0.4874249,0.02212102,0.2058036,0.04201129,-1.08574,0.5872958,-0.1341266,0.3578929,1.502741,0.3713868,-0.2254723,1.373764,0.621191,276.2948,60.79408,214.3389,True
4,1.600003,-0.07943051,0.1400841,-0.2760276,4.709496,1.18125,-1.984753,0.1068065,1.316853,0.5900321,-0.922903,0.1991488,15.54376,27.29805,-0.06557429,0.04258872,0.01028945,-0.1949018,-3.215286,-0.8066432,0.188572,1.455853,0.4871933,-0.02889291,0.196171,0.05318042,-1.084938,0.5896836,-0.1332518,0.3560198,1.502821,0.3715167,-0.2273849,1.373512,0.6226425,276.2583,59.9441,215.3759,True
4,1.611114,-0.05282618,0.1518559,-0.276095,4.708874,1.17755,-1.984921,0.1052585,1.316885,0.5899687,-0.9218761,0.09083953,15.64987,27.44804,-0.07951032,0.05428554,0.002963063,-0.1957242,-3.212741,-0.8077354,0.1864144,1.456076,0.4870038,-0.0485611,0.1652087,0.1066147,-1.08207,0.5910451,-0.1326995,0.3542627,1.502823,0.3716588,-0.229353,1.373422,0.6242327,276.2328,59.70967,215.7693,True
4,1.622225,-0.01233087,0.1466075,-0.2793256,4.708819,1.173978,-1.986151,0.1037435,1.317011,0.5899475,-0.9206766,0.1074459,15.57029,26.99807,-0.1112158,0.006229401,0.02016166,-0.1937247,-3.215881,-0.8023521,0.1843989,1.456265,0.4866178,-0.02153135,0.1449431,0.1436144,-1.079269,0.5923737,-0.1341123,0.3525054,1.502744,0.3717785,-0.231211,1.373371,0.6258734,276.2496,60.07534,215.6325,True
4,1.633336,0.05483893,0.09870808,-0.3112245,4.711163,1.170151,-1.988841,0.1024044,1.317005,0.5897734,-0.9187245,0.1759833,15.33157,26.03386,-0.1275101,-0.01821558,-0.02770359,-0.1943309,-3.227243,-0.7892209,0.1823903,1.456253,0.4861305,-0.01198213,0.198213,0.1446406,-1.078268,0.5970333,-0.1364705,0.35082,1.502665,0.371907,-0.2327772,1.373208,0.6274284,276.3138,60.07182,215.9273,True
4,1.644447,0.09543218,0.0219802,-0.34941,-1.567782,1.166289,-1.991119,0.1011609,1.317022,0.5897887,-0.9174712,0.1115002,15.01326,24.66253,-0.1307979,0.02225536,-0.02652942,-0.1956529,-3.222552,-0.7922989,0.1803813,1.45628,0.4856288,-0.04199487,0.2770308,0.1333085,-1.077972,0.6034574,-0.1380276,0.3491288,1.502651,0.3720434,-0.2341379,1.372888,0.6288635,276.3637,59.75694,216.554,True
4,1.655559,0.1103976,-0.01424986,-0.3642375,-1.564881,1.162737,-1.992549,0.09982869,1.316961,0.589772,-0.9166244,0.07483265,14.74801,23.46261,-0.1543111,0.07225174,-0.02091246,-0.1973956,-3.213009,-0.7992511,0.1783598,1.456357,0.4852548,-0.05916937,0.31431,0.1239362,-1.077522,0.6086674,-0.1392365,0.3474309,1.502587,0.3721571,-0.2353867,1.372333,0.6301579,276.3618,60.04903,216.5712,True
4,1.66667,0.09224829,-0.0004685819,-0.3738421,-1.563525,1.158489,-1.992904,0.09884965,1.31691,0.5897892,-0.9137577,0.259524,14.45623,22.39126,-0.1984352,0.19256,-0.03949635,-0.2027997,-3.194411,-0.813653,0.1765963,1.456519,0.4847641,-0.05373248,0.3345449,0.1356136,-1.07635,0.6138563,-0.141343,0.3458011,1.502452,0.3722556,-0.2365411,1.371328,0.6312732,276.268,61.8002,215.0912,True
4,1.677781,0.07622564,0.04114456,-0.3387831,-1.564234,1.155432,-1.993154,0.09787646,1.317003,0.5898349,-0.9101667,0.3241163,14.13793,21.42704,-0.191313,0.279962,-0.05429327,-0.20806,-3.179084,-0.8268447,0.1750293,1.45709,0.4844301,-0.01960814,0.3249723,0.138456,-1.075108,0.6175668,-0.1440621,0.3442388,1.502452,0.372303,-0.2377931,1.369806,0.6323149,276.0331,63.3144,213.7457,True
4,1.688892,0.1050704,0.02106154,-0.3046695,-1.562922,1.153625,-1.995299,0.09680709,1.317173,0.5898695,-0.9063494,0.3445533,13.81963,20.82708,-0.1675827,0.2820722,-0.01612249,-0.2096542,-3.16433,-0.8402707,0.1735129,1.457474,0.484071,0.03659642,0.3026761,0.1112256,-1.075232,0.6204581,-0.1478837,0.3427534,1.502478,0.3723245,-0.2392515,1.367881,0.6333988,275.6914,62.23376,214.9223,True
4,1.700003,0.1669797,-0.02135593,-0.2801157,-1.560184,1.152375,-1.999521,0.0958339,1.317336,0.5898149,-0.9035237,0.2537568,13.50132,20.41997,-0.06360228,0.1618633,0.027572,-0.2063098,-3.165268,-0.8423914,0.1721123,1.457793,0.483696,0.04363209,0.3048536,0.06960411,-1.076454,0.6242095,-0.1503269,0.3412679,1.502474,0.3722918,-0.2407771,1.365783,0.6346034,275.2594,57.58186,219.6393,True
4,1.711114,0.2128883,-0.07562399,-0.2896015,-1.556174,1.150208,-2.003418,0.09481427,1.317251,0.5898819,-0.9027568,0.06628876,13.23607,20.29141,-0.01972571,0.07782552,0.02491827,-0.2050352,-3.171152,-0.8378296,0.170487,1.457792,0.4833148,-0.001510575,0.2867525,0.02849017,-1.077993,0.6270174,-0.1501085,0.3398961,1.502468,0.3721426,-0.2422693,1.363814,0.6358979,274.9099,50.49524,226.9117,True
4,1.722225,0.2118865,-0.1193785,-0.3139743,-1.551782,1.147483,-2.005611,0.09384617,1.316975,0.5898962,-0.9021788,0.05034436,13.0504,20.50568,-0.01474336,0.008730836,-0.04131345,-0.2050927,-3.189559,-0.8199409,0.1688729,1.457684,0.482975,-0.0473713,0.2451726,0.02039739,-1.078058,0.6283599,-0.1485772,0.3383742,1.502465,0.3720386,-0.2435982,1.362019,0.6370544,274.6574,45.42683,232.3215,True
4,1.733337,0.1916129,-0.1087969,-0.323567,-1.549468,1.144309,-2.006879,0.09299383,1.316751,0.5898929,-0.8990054,0.2875101,12.91777,20.82708,-0.07717826,0.07794908,-0.1024689,-0.2098145,-3.188918,-0.8174525,0.1673019,1.457564,0.4826446,-0.1036953,0.1705522,0.02727799,-1.077449,0.6275808,-0.1451694,0.3370833,1.502499,0.3719659,-0.2447083,1.360206,0.6378863,274.4427,44.33652,233.7231,True
4,1.744448,0.1350798,-0.05555137,-0.2906289,-1.549938,1.141904,-2.006274,0.09239092,1.316571,0.5897722,-0.8941547,0.4387634,12.7321,20.80565,-0.1130293,0.211119,-0.1487893,-0.2170407,-3.178102,-0.825548,0.1661044,1.457471,0.482502,-0.1014616,0.1076936,0.03252331,-1.076625,0.6265828,-0.1436882,0.3358477,1.502405,0.3718228,-0.2457843,1.35819,0.6384861,274.1936,45.60115,232.5818,True
4,1.755559,0.08711115,-0.003219828,-0.2129623,-1.55187,1.141514,-2.005515,0.09172592,1.316483,0.5897233,-0.8900732,0.367458,12.54642,20.56996,-0.06630266,0.2038228,-0.1694059,-0.2200474,-3.179756,-0.824756,0.1652532,1.457584,0.482374,-0.01723928,0.06088769,0.03480792,-1.07613,0.6257745,-0.146011,0.3346688,1.502393,0.3716874,-0.2469533,1.355948,0.6390449,273.8815,44.90186,233.2469,True
4,1.76667,0.0755024,-0.01263297,-0.1436736,-1.551719,1.142334,-2.005987,0.09110579,1.316647,0.5895934,-0.8852981,0.4318261,12.38727,20.2057,-0.01074302,0.1272672,-0.1731935,-0.220587,-3.190203,-0.8163036,0.164483,1.45773,0.4822712,0.08471429,0.04076403,0.001786485,-1.077156,0.6253399,-0.1501541,0.3335379,1.502378,0.3715768,-0.2481658,1.353642,0.639727,273.6137,38.77959,239.2966,True
4,1.777781,0.09259474,-0.02959598,-0.128731,-1.550319,1.141769,-2.007617,0.09039107,1.316746,0.5894468,-0.8822659,0.271945,12.28117,19.84144,0.08376848,-0.04729937,-0.1316699,-0.215601,-3.211011,-0.8001201,0.1639919,1.457973,0.4822109,0.1099548,0.05146552,-0.02935363,-1.078642,0.6262318,-0.1523664,0.3324887,1.502455,0.3714862,-0.2492793,1.351575,0.6405272,273.5804,27.36119,250.7678,True
4,1.788892,0.109595,-0.01789159,-0.1458296,-1.54955,1.139675,-2.009384,0.08964017,1.316685,0.5892832,-0.8809737,0.1144833,12.25464,19.67002,0.1075841,-0.1697689,-0.12252,-0.2118609,-3.235461,-0.7782843,0.1631536,1.458165,0.481998,0.07563594,0.06850446,-0.05029288,-1.08016,0.6275494,-0.1526873,0.3315557,1.502567,0.3713362,-0.250242,1.350033,0.6412515,273.7818,17.03557,261.3505,True
4,1.800003,0.1062557,0.02459934,-0.1874937,-1.549725,1.135553,-2.010286,0.08906868,1.316508,0.5891128,-0.8798003,0.1047558,12.22811,19.4129,0.07462186,-0.1837013,-0.1190955,-0.2111327,-3.247895,-0.765629,0.1620542,1.458307,0.4816091,0.0008454062,0.04717277,-0.07405946,-1.081666,0.6272286,-0.149929,0.3306133,1.50247,0.3710506,-0.2510223,1.34906,0.6416247,273.8741,12.1507,266.5603,True
4,1.811115,0.08804329,0.06606838,-0.2014404,-1.550582,1.132129,-2.010538,0.08842099,1.316413,0.5889876,-0.877543,0.2037587,12.17507,19.07007,0.038964,-0.04845435,-0.139846,-0.2155653,-3.241064,-0.771558,0.1609511,1.458459,0.4812276,-0.03450591,0.02372972,-0.09503043,-1.083364,0.6262898,-0.1478433,0.3296587,1.502457,0.3708613,-0.2517282,1.348497,0.6416658,273.7477,12.62133,266.2034,True
4,1.822226,0.05701523,0.1288731,-0.1930586,-1.553108,1.129076,-2.009687,0.08793816,1.316413,0.5888119,-0.8742028,0.3019698,12.09549,18.64153,0.02160046,0.03888066,-0.152305,-0.2192543,-3.236677,-0.7755296,0.159909,1.458715,0.4809062,-0.06340426,0.01839865,-0.1085907,-1.08494,0.6260163,-0.1461623,0.3288752,1.502463,0.3707454,-0.2524322,1.348108,0.6416373,273.5869,16.05968,262.6006,True
4,1.833337,0.03777684,0.1822338,-0.1463144,-1.556493,1.127544,-2.009359,0.08743182,1.31642,0.5886614,-0.8710342,0.2855549,12.04244,18.21299,0.03772097,0.08251797,-0.1203772,-0.2207249,-3.230848,-0.7823017,0.1591869,1.458958,0.4806545,-0.05605555,0.03337532,-0.1203761,-1.086957,0.6274773,-0.1468866,0.3279849,1.502231,0.3702927,-0.2531263,1.347722,0.6418884,273.5107,18.81695,259.5804,True
4,1.844448,0.03773629,0.2142446,-0.1261646,-1.559194,1.125495,-2.009796,0.08689412,1.316428,0.5884242,-0.8676068,0.3096247,11.98939,17.8273,0.05727044,0.0356252,-0.08760122,-0.2198695,-3.234215,-0.7803126,0.1585184,1.459264,0.4804523,-0.03931196,0.05792013,-0.1482139,-1.08968,0.6287876,-0.1477125,0.3270843,1.502245,0.3701677,-0.2537919,1.347296,0.6425828,273.575,18.65375,259.6483,True
4,1.855559,0.0344349,0.2632367,-0.1294913,-1.562651,1.122186,-2.010074,0.08646688,1.316331,0.5882654,-0.8658671,0.1551124,11.96286,17.99871,0.05232008,-0.07840234,-0.0760833,-0.2169997,-3.251623,-0.7637227,0.1578723,1.45957,0.4803672,-0.02113532,0.04408389,-0.1430821,-1.090981,0.6285689,-0.1479932,0.3262268,1.502492,0.3702779,-0.254329,1.346901,0.643653,273.8105,15.72588,262.7416,True
4,1.86667,0.03325403,0.30685,-0.1509216,-1.56605,1.117958,-2.010356,0.08600745,1.316326,0.5879967,-0.8646054,0.1127756,11.88329,18.32012,0.03967596,-0.1242485,-0.07288291,-0.2155019,-3.263763,-0.7518748,0.157204,1.459816,0.4801738,-0.01230104,0.006776523,-0.1155119,-1.091169,0.6272241,-0.1475487,0.3253861,1.502567,0.3701434,-0.2547073,1.346592,0.6448707,274.131,13.46569,265.3925,True
4,1.877781,0.03320941,0.3228006,-0.1594877,-1.568684,1.114474,-2.010695,0.08552006,1.31634,0.5878854,-0.8624109,0.1982062,11.75066,18.57724,0.04703402,-0.1039717,-0.07823222,-0.2163035,-3.268155,-0.7482449,0.1564939,1.460005,0.4801195,-0.01531709,-0.004966874,-0.09844783,-1.091614,0.6265956,-0.1468837,0.3246204,1.502712,0.3699877,-0.2549728,1.346325,0.6460683,274.3757,13.07717,266.1835,True
4,1.888893,0.03106598,0.3388247,-0.1424864,4.711052,1.111764,-2.01096,0.08499476,1.316372,0.5877676,-0.8602521,0.1942185,11.51194,18.92007,0.07159176,-0.0932793,-0.06774887,-0.2161432,-3.271502,-0.7466276,0.1558375,1.460186,0.4799316,-0.003279144,0.002466319,-0.06660238,-1.091278,0.626977,-0.147435,0.323908,1.50275,0.3697693,-0.2551908,1.346056,0.6472796,274.5856,13.34615,266.1723,True
4,1.900004,0.02473881,0.3121898,-0.1381447,4.709425,1.109506,-2.011058,0.08442888,1.316367,0.5877857,-0.8581701,0.1873155,11.19363,19.24148,0.1058732,-0.1006971,-0.04565883,-0.2149917,-3.275007,-0.7456446,0.1550201,1.460434,0.4797828,0.0138595,0.009917583,-0.05610909,-1.091535,0.6272892,-0.1482257,0.3232281,1.502746,0.3694592,-0.2554256,1.345771,0.64859,274.7747,13.40992,266.3048,True
4,1.911115,0.01738705,0.2524688,-0.1528786,4.709809,1.107229,-2.011005,0.0839223,1.316301,0.5877109,-0.8559858,0.196744,10.90185,19.54146,0.1004037,-0.0985441,-0.06266142,-0.2152921,-3.282948,-0.738694,0.1542592,1.460513,0.4795876,1.221709E-05,0.008841081,-0.05596885,-1.09215,0.6272528,-0.147733,0.3225309,1.50283,0.3692386,-0.2556979,1.345444,0.6499884,274.9692,13.12919,266.8168,True
4,1.922226,0.00891911,0.2172746,-0.1634198,4.709558,1.104697,-2.010744,0.08355176,1.31632,0.5876894,-0.8537232,0.2038233,10.6366,19.77716,0.06380543,-0.04104991,-0.09208042,-0.2177922,-3.283928,-0.7371249,0.1535569,1.460808,0.479444,-0.03641782,-0.003945932,-0.07691253,-1.093677,0.6264834,-0.1455726,0.3218203,1.503005,0.369005,-0.2560299,1.345069,0.6513716,275.2048,12.70251,267.5499,True
4,1.933337,-0.004870181,0.1799123,-0.1782097,4.710079,1.102191,-2.010191,0.08324751,1.316432,0.587661,-0.8515,0.2001533,10.37135,19.75573,0.03805647,-0.01871002,-0.107815,-0.2194583,-3.287336,-0.7332972,0.1528693,1.461049,0.479234,-0.05677495,-0.03057889,-0.09058429,-1.095018,0.6248565,-0.1435287,0.3212267,1.503257,0.3689001,-0.2564321,1.344598,0.6526036,275.3202,12.42288,268.1599,True
4,1.944448,0.003705476,0.1565317,-0.1674971,4.709626,1.100394,-2.010438,0.08293995,1.316653,0.5878141,-0.8492565,0.2021125,10.13263,19.09149,0.05991452,-0.03689618,-0.04303007,-0.2174918,-3.285079,-0.736853,0.1524712,1.461416,0.4789171,-0.03644651,-0.04442854,-0.08228254,-1.095444,0.6235619,-0.1431228,0.3207231,1.503402,0.3686397,-0.2568503,1.343984,0.6535856,275.3077,11.70263,269.1198,True
4,1.955559,0.02734326,0.0553659,-0.1693614,-1.570287,1.099921,-2.011488,0.08261111,1.316998,0.5880001,-0.8469614,0.2068455,9.973473,18.3844,0.07934102,-0.04543211,-0.01337063,-0.2163232,-3.285518,-0.7379736,0.1519985,1.461541,0.4787014,-0.01095259,-0.03694436,-0.08892671,-1.0966,0.6232479,-0.1438038,0.3202462,1.503541,0.3684046,-0.2572571,1.343279,0.6543639,275.3104,9.9266,270.9919,True
4,1.966671,0.04349011,-0.03841051,-0.1904207,-1.565757,1.098843,-2.012486,0.08228886,1.317609,0.5881186,-0.8457507,0.1075937,9.94695,17.46304,0.0933094,-0.04010604,0.003576447,-0.2156809,-3.284513,-0.7405159,0.1514826,1.461825,0.4784698,-0.003414497,-0.02523709,-0.07939996,-1.097133,0.6232061,-0.1438925,0.3197426,1.503755,0.3681576,-0.2576554,1.342583,0.6550225,275.3344,7.239865,273.697,True
4,1.977782,0.03499459,-0.06084568,-0.20526,-1.563444,1.096829,-2.012491,0.08188781,1.317834,0.5882473,-0.8446056,0.102518,10.05305,16.28455,0.09144787,-0.06360607,0.03123549,-0.2138476,-3.286174,-0.7396672,0.150898,1.462182,0.4783132,-0.006260477,-0.03699817,-0.04528546,-1.096193,0.6223385,-0.1431012,0.3191256,1.503946,0.3678565,-0.2580453,1.341962,0.6556069,275.3606,4.922685,276.0513,True
4,1.988893,-0.001185241,-0.08223529,-0.2083514,-1.56089,1.095336,-2.01116,0.08152786,1.318075,0.588505,-0.8425224,0.1880758,10.29178,14.84894,0.06051821,-0.0530289,0.03043179,-0.2132675,-3.286288,-0.7390925,0.1501055,1.462389,0.4780777,-0.02849246,-0.03170285,-0.03120409,-1.096064,0.6221635,-0.1419585,0.3185929,1.504114,0.3674989,-0.2584285,1.341337,0.6560308,275.1985,3.053186,278.0291,True
4,2.000004,-0.003240192,-0.1077515,-0.1890946,-1.558613,1.095009,-2.011024,0.08116361,1.318284,0.5887339,-0.8394145,0.2810988,10.55703,13.26334,0.05791667,0.0003227107,-0.01311569,-0.2156825,-3.284852,-0.741137,0.1492013,1.462569,0.4779332,-0.05399128,-0.02641,-0.02347883,-1.096097,0.6219655,-0.1403595,0.3180101,1.504388,0.3672175,-0.2588804,1.340678,0.6563471,274.9549,0.8941221,280.2216,True
4,2.011115,0.02561006,-0.1492408,-0.1879423,-1.554947,1.094519,-2.012333,0.08087975,1.318592,0.5888476,-0.8359673,0.3114952,10.76923,11.89201,0.01497916,0.03649199,-0.04252959,-0.217437,-3.284331,-0.7404504,0.1486184,1.462712,0.4777446,-0.07085793,-0.03709147,-0.007344604,-1.095672,0.6212151,-0.1388045,0.3174632,1.504508,0.3669381,-0.2594407,1.340002,0.6567308,274.8342,358.7895,282.2487,True
4,2.022226,0.02459813,-0.1833721,-0.200628,-1.550931,1.093443,-2.012559,0.08071849,1.319122,0.5887904,-0.8350949,0.07595617,10.92838,10.60639,0.00218384,0.05136742,-0.03920284,-0.2184154,-3.281704,-0.7426113,0.1481386,1.46288,0.4775193,-0.07073379,-0.04349855,0.004369043,-1.095093,0.6204541,-0.1376921,0.3170031,1.504532,0.3668065,-0.2600519,1.339387,0.65724,274.8099,355.993,284.9975,True
4,2.033337,0.002251076,-0.1972804,-0.2048206,-1.547518,1.09238,-2.011774,0.08043399,1.319682,0.5888271,-0.8349559,0.0112105,11.08753,9.320763,0.006632794,0.04281735,-0.01687918,-0.2180916,-3.278849,-0.7455817,0.1478562,1.463158,0.477339,-0.02058604,-0.04559734,0.01130879,-1.094768,0.6198804,-0.1388703,0.3165909,1.504566,0.3666463,-0.2605603,1.338841,0.6577453,274.7831,353.5951,287.4751,True
4,2.044448,-0.01365765,-0.2099737,-0.1621515,-1.544942,1.093168,-2.010915,0.079889,1.32038,0.5889454,-0.8324653,0.2266552,11.22016,8.056565,0.04446787,-0.01365861,0.03491232,-0.2152047,-3.278972,-0.7472122,0.1477266,1.463651,0.477169,0.01233736,-0.02958264,0.002465579,-1.095015,0.6199957,-0.1401265,0.316217,1.504777,0.3664527,-0.2608714,1.338272,0.6581227,274.659,351.4621,289.7461,True
4,2.055559,-0.006161876,-0.2194906,-0.1440178,-1.542152,1.093433,-2.011145,0.07937858,1.320921,0.5891676,-0.8299997,0.2226701,11.24668,7.070924,0.05991221,-0.09466773,0.07723362,-0.2112744,-3.284611,-0.7428214,0.1473469,1.464014,0.476963,0.04619466,0.01200514,-0.01701258,-1.096066,0.6214411,-0.1423263,0.3158909,1.504965,0.3662281,-0.2610838,1.337726,0.6584126,274.5551,348.249,293.0521,True
4,2.06667,-0.004071665,-0.1906772,-0.1281239,-1.540667,1.09316,-2.011174,0.07878676,1.321377,0.5893497,-0.8287225,0.1143706,11.27321,6.449537,0.03885366,-0.1235301,0.09971083,-0.2083157,-3.286894,-0.7403324,0.1469493,1.464354,0.4767711,0.04283806,0.02267114,-0.03188207,-1.097008,0.6219907,-0.1429574,0.3155158,1.505137,0.365989,-0.2614092,1.337383,0.6587288,274.5647,344.5751,296.7903,True
4,2.077781,-0.02757935,-0.144859,-0.1058614,-1.540348,1.092672,-2.009987,0.07829568,1.321648,0.5893977,-0.8289446,-0.02164458,11.32626,6.235267,0.02606106,-0.1043928,0.1041123,-0.2072328,-3.283865,-0.7431543,0.1463855,1.464619,0.4765975,-0.008508649,-0.01356381,-0.05590646,-1.098327,0.6200778,-0.1401718,0.3151488,1.505365,0.3657966,-0.2619515,1.337381,0.6590097,274.6217,341.8672,299.5992,True
4,2.088892,-0.1108406,-0.04587729,-0.07621726,-1.542934,1.091664,-2.005955,0.07775286,1.321673,0.5894578,-0.8280945,0.07752178,11.40584,6.278121,0.01932446,-0.01276306,0.08943939,-0.2087886,-3.271863,-0.7548855,0.1457698,1.464738,0.4764307,-0.06803274,-0.05623311,-0.04575258,-1.098108,0.6177999,-0.1363786,0.3148254,1.505511,0.3656526,-0.2626142,1.337651,0.6591744,274.5408,340.7327,300.77,True
4,2.100003,-0.1385856,-0.02141164,-0.07092803,-1.543143,1.090849,-2.003483,0.07734683,1.321869,0.5894835,-0.8261834,0.1736059,11.59151,6.256695,0.01690857,0.03096306,0.06717364,-0.2101863,-3.265287,-0.7614651,0.1452416,1.464836,0.4762859,-0.073249,-0.07116168,-0.03612681,-1.098009,0.6163158,-0.1346481,0.3144928,1.505631,0.3654354,-0.2633145,1.338087,0.6592508,274.4234,341.0819,300.3627,True
4,2.111114,-0.1449916,-0.01824816,-0.07732148,-1.542454,1.089927,-2.001692,0.07681361,1.322127,0.5894723,-0.8227986,0.3078221,11.88329,6.449537,0.00162512,0.02889393,0.01934903,-0.2114816,-3.269088,-0.7572325,0.1448078,1.46498,0.4761286,-0.02839079,-0.05196827,-0.02270894,-1.097777,0.6164378,-0.13585,0.3142001,1.505782,0.3652647,-0.2639716,1.338637,0.6592937,274.3826,342.3301,299.0045,True
4,2.122225,-0.1225404,-0.05226559,-0.06872614,-1.540665,1.090218,-2.001114,0.07629743,1.322612,0.5895422,-0.8238718,-0.100718,12.20159,6.578101,-0.001552688,-0.006257669,0.01078247,-0.2103588,-3.275489,-0.7507805,0.1446044,1.465285,0.4759915,0.00678584,-0.02744208,-0.01878101,-1.097879,0.6169626,-0.1373246,0.3138336,1.505953,0.3650832,-0.2646223,1.339445,0.6594164,274.4891,343.3325,297.9167,True
4,2.133336,-0.08197341,-0.07448379,-0.04100968,-1.539309,1.091375,-2.001657,0.07576218,1.323157,0.5895686,-0.8246159,-0.0669952,12.54642,6.556673,0.01908141,-0.04463508,0.04889379,-0.2078587,-3.274286,-0.7528914,0.1443431,1.465545,0.475888,0.007743299,-0.01251943,-0.0283618,-1.098571,0.617158,-0.1374282,0.3135054,1.506076,0.3649204,-0.2651131,1.340515,0.6595594,274.4127,344.0627,297.1905,True
4,2.144447,-0.05533572,-0.07334527,-0.03465261,-1.538568,1.091566,-2.00195,0.0752649,1.323519,0.5895667,-0.8256534,-0.09449651,12.89124,6.342402,0.04513107,-0.1149615,0.08796234,-0.2037925,-3.27931,-0.7493568,0.1439592,1.465828,0.4756505,-0.01347535,-0.01148065,-0.01962117,-1.098494,0.6170886,-0.1365246,0.3131717,1.506185,0.3647413,-0.2654657,1.341759,0.6597161,274.1851,345.5649,295.7445,True
4,2.155558,-0.02334736,-0.1053203,-0.06335948,-1.535913,1.090918,-2.00263,0.07492766,1.323632,0.5895708,-0.8265339,-0.08002222,13.1565,5.785301,0.02286838,-0.1171715,0.1009152,-0.2018474,-3.279806,-0.7483975,0.1433621,1.466117,0.4753842,-0.03999256,-0.02962157,-0.009779656,-1.098081,0.6160513,-0.1347272,0.3128117,1.50624,0.3644609,-0.2657078,1.343017,0.6598038,273.9245,348.2882,293.1152,True
4,2.166669,0.01716471,-0.1404934,-0.09846048,-1.532443,1.090017,-2.004153,0.07465726,1.323614,0.5894864,-0.8260061,0.04860145,13.3687,4.863938,-0.01922956,-0.02238121,0.06095744,-0.2040099,-3.27217,-0.7543766,0.1426442,1.46616,0.4750831,-0.05384057,-0.02856921,-0.009639356,-1.098232,0.6157041,-0.1335935,0.3124374,1.506371,0.3643575,-0.2659279,1.344096,0.6597378,273.7161,352.3018,289.1941,True
4,2.17778,0.03419854,-0.1394274,-0.1102033,-1.530472,1.089181,-2.005044,0.0743936,1.323709,0.5894485,-0.825964,0.003090529,13.50132,3.621169,-0.04519707,0.06175841,0.03682764,-0.2066842,-3.261732,-0.7633035,0.1420548,1.466189,0.4748445,-0.06345701,0.003380805,-0.009500688,-1.09837,0.6169888,-0.133075,0.3121121,1.506502,0.3642511,-0.266208,1.344822,0.6595526,273.5174,356.1009,285.4008,True
4,2.188891,0.04272463,-0.1436833,-0.1144622,-1.52833,1.088599,-2.005828,0.07430503,1.323575,0.5893452,-0.8264353,-0.04334624,13.5809,2.035569,-0.0755128,0.1139774,-0.008636758,-0.2099306,-3.25624,-0.7668109,0.1414873,1.46612,0.4746802,-0.05494647,0.03429332,-0.008487063,-1.098592,0.6187148,-0.1336121,0.3117018,1.506518,0.3641369,-0.2664855,1.345008,0.6593214,273.2141,358.384,283.0292,True
4,2.200002,0.01289561,-0.1330494,-0.09953606,-1.527171,1.088696,-2.004875,0.07419452,1.323442,0.5892813,-0.825474,0.08797485,13.5809,0.2356955,-0.08455762,0.0832229,-0.08534084,-0.2121,-3.268487,-0.7537217,0.1412309,1.466078,0.474637,-0.02960111,0.05138019,-0.02896967,-1.099718,0.619827,-0.1346484,0.3112686,1.506545,0.364131,-0.2667386,1.344555,0.6591589,272.9535,358.0383,283.2493,True
4,2.211113,0.008664093,-0.1351318,-0.0792799,-1.525692,1.089245,-2.004833,0.07408771,1.323568,0.5892255,-0.8249243,0.04922231,13.5809,0,-0.06562164,0.04181443,-0.129253,-0.213602,-3.280931,-0.7414249,0.140975,1.466165,0.4745564,-0.009409411,0.06737816,-0.03235245,-1.100315,0.6210881,-0.1357517,0.3108837,1.506606,0.3641269,-0.2670156,1.343563,0.659175,272.921,353.7238,287.4894,True
4,2.222224,0.03533856,-0.1488966,-0.06968784,-1.52356,1.08966,-2.006171,0.07393017,1.323795,0.5890725,-0.8229147,0.18323,13.55437,0,-0.001314331,-0.05181145,-0.1097052,-0.2113799,-3.295235,-0.7297,0.1408483,1.466346,0.4744499,0.0354669,0.08337893,-0.01787499,-1.100132,0.6228012,-0.1384221,0.310537,1.506655,0.3640614,-0.2672414,1.342169,0.6593246,273.048,347.2349,294.0129,True
4,2.233335,0.04496045,-0.1616398,-0.06114702,-1.521248,1.090081,-2.006983,0.0738849,1.323995,0.5887802,-0.8235096,-0.05596681,13.5809,0,0.0204879,-0.1242791,-0.07061064,-0.208542,-3.306283,-0.7198641,0.1406082,1.46649,0.4742217,0.06735546,0.09938328,-0.02351957,-1.100906,0.6243768,-0.1408719,0.3103508,1.506669,0.3638556,-0.2675062,1.340705,0.6595582,273.3882,339.6368,301.7374,True
4,2.244446,0.02684668,-0.1574036,-0.05687673,-1.519574,1.090313,-2.006709,0.07382962,1.324011,0.5885947,-0.8248971,-0.1262682,13.5809,0,0.006832495,-0.1147832,-0.04278552,-0.2075103,-3.30882,-0.7170185,0.1403245,1.466537,0.4739373,0.0418373,0.1078793,-0.01792314,-1.101119,0.6260455,-0.1412732,0.3101454,1.506667,0.3637087,-0.2677892,1.33946,0.6597387,273.7523,333.1436,308.4042,True
4,2.255557,0.02150068,-0.137128,-0.0409483,-1.518883,1.090737,-2.00673,0.07370612,1.323997,0.5884116,-0.8245924,0.02914314,13.60743,0,-0.001830794,-0.07324611,-0.04795614,-0.2086448,-3.308397,-0.7171128,0.1399061,1.46651,0.4736357,-0.01461122,0.091846,-0.01736424,-1.101346,0.6263872,-0.1392988,0.3099461,1.506575,0.3636291,-0.2680076,1.338534,0.6597356,273.9608,328.7184,312.9766,True
4,2.266668,0.07268476,-0.1679501,-0.05263745,-1.515881,1.091105,-2.009267,0.07353374,1.323944,0.5882044,-0.8237839,0.07393324,13.55437,0,-0.06379057,0.0001019835,-0.04625449,-0.2105825,-3.301067,-0.7215893,0.1394269,1.466495,0.4732099,-0.05618117,0.0694454,-0.02122453,-1.101733,0.6264037,-0.1373573,0.3098266,1.506621,0.3634934,-0.2681186,1.337952,0.6594945,274.0258,325.9364,315.8111,True
4,2.277779,0.05985967,-0.1573735,-0.07289504,-1.513927,1.090337,-2.009567,0.0734643,1.323848,0.5880024,-0.8245828,-0.07298938,13.50132,0,-0.1021326,0.02235651,-0.03844688,-0.2111626,-3.298931,-0.7214668,0.1390209,1.466536,0.4728885,-0.05720762,0.05878747,-0.01803258,-1.101932,0.626754,-0.1369541,0.3096406,1.506674,0.3634171,-0.2682157,1.337775,0.6590971,274.0179,324.5816,317.1111,True
4,2.28889,0.07689767,-0.1380838,-0.0442097,-1.513274,1.091121,-2.010954,0.07330388,1.323643,0.5876691,-0.8280439,-0.3149146,13.50132,0.1071352,-0.1202176,0.05956449,-0.02331383,-0.2121719,-3.291898,-0.72642,0.1386511,1.466465,0.4725094,-0.04235125,0.06200116,-0.02350775,-1.102477,0.6275608,-0.1373344,0.3095096,1.50668,0.3632886,-0.268326,1.337996,0.6585875,273.8974,324.4184,317.2048,True
4,2.300001,0.0800777,-0.1295431,-0.03891291,-1.512053,1.091438,-2.01193,0.07326069,1.323532,0.5873306,-0.8272614,0.0752141,13.55437,1.371329,-0.1031571,0.07450952,-0.01702165,-0.2130257,-3.286992,-0.7307847,0.1383237,1.466434,0.4721787,-0.03824089,0.08971427,-0.03523751,-1.103515,0.6296577,-0.137976,0.309287,1.506572,0.3631592,-0.2683719,1.338354,0.6579669,273.5103,324.4558,317.071,True
4,2.311112,0.07788742,-0.1007862,-0.03899442,-1.511643,1.091094,-2.012695,0.07320949,1.323353,0.5869517,-0.8293776,-0.1932161,13.63395,2.421253,-0.08834007,0.05647433,-0.03528551,-0.2138273,-3.290272,-0.7271553,0.1381567,1.466328,0.4718554,-0.05205237,0.09822087,-0.03082604,-1.103897,0.6311843,-0.1375978,0.3091289,1.506497,0.3630924,-0.2683986,1.338735,0.6573851,273.211,324.8707,316.5164,True
4,2.322223,0.06077619,-0.06671849,-0.03481064,-1.51189,1.090688,-2.012753,0.07323131,1.323243,0.5865333,-0.8307236,-0.1200122,13.63395,3.085493,-0.07770799,0.03733953,-0.04393644,-0.2143195,-3.294476,-0.7224929,0.137977,1.466288,0.4716089,-0.05299795,0.1035352,-0.01909612,-1.103901,0.6326755,-0.1376532,0.3089666,1.50638,0.3630259,-0.2683749,1.339054,0.656808,273.0184,326.7816,314.5592,True
4,2.333334,0.06073904,-0.04968385,-0.03805057,-1.51166,1.090289,-2.013417,0.07323447,1.323175,0.586195,-0.8323257,-0.1441696,13.52785,3.321191,-0.06610365,0.01824055,-0.06430521,-0.2150258,-3.299551,-0.7171435,0.1380714,1.466171,0.4714885,-0.04020614,0.1195229,-0.01707936,-1.104279,0.6347696,-0.138617,0.3088534,1.506285,0.3629479,-0.268326,1.339259,0.6562229,272.8911,327.5978,313.7324,True
4,2.344445,0.04778237,0.02698318,-0.04251876,-1.513945,1.08842,-2.013257,0.07357281,1.323088,0.5855999,-0.8336318,-0.1166831,13.3687,3.25691,-0.05459562,-0.0146772,-0.1017499,-0.2160207,-3.311068,-0.7056583,0.1381798,1.466136,0.4712479,0.009714156,0.1323635,-0.0314265,-1.105471,0.6367855,-0.1415025,0.3090388,1.506237,0.3629107,-0.2682783,1.339383,0.655689,272.8381,327.5784,313.7132,True
4,2.355556,0.04558749,0.06538305,-0.02557926,-1.515846,1.087892,-2.013598,0.07378095,1.322961,0.5852339,-0.8363631,-0.24712,13.20955,3.214056,-0.03204132,-0.06044574,-0.09242944,-0.2151376,-3.32031,-0.6969386,0.1381778,1.466099,0.4711061,0.04360266,0.09938559,-0.05417952,-1.106726,0.6364659,-0.1429489,0.3092276,1.506121,0.3627725,-0.2682236,1.339525,0.655249,272.8695,327.0144,314.2363,True
4,2.366668,0.04341421,0.09953601,-0.002239246,-1.518237,1.087628,-2.014,0.07379857,1.322855,0.5847659,-0.8380286,-0.1484681,12.89124,3.921146,-0.02427852,-0.1062852,-0.06808222,-0.2132265,-3.330239,-0.6872489,0.1382312,1.466058,0.470829,0.003855832,0.08021418,-0.08788493,-1.108786,0.6364086,-0.141788,0.3093545,1.506033,0.3626261,-0.268084,1.339746,0.6549059,272.905,326.604,314.6103,True
4,2.377779,0.03593479,0.1133861,0.001992367,-1.519747,1.087095,-2.014149,0.07378137,1.322843,0.584414,-0.8408132,-0.2517092,12.54642,4.799656,-0.04456569,-0.07969736,-0.0646596,-0.2137506,-3.329916,-0.6862561,0.1381303,1.465959,0.4705737,-0.04949613,0.08337663,-0.09585787,-1.11017,0.6374786,-0.1398418,0.3094684,1.506034,0.3625374,-0.267729,1.340137,0.6546914,273.0074,327.8376,313.3558,True
4,2.38889,0.01348427,0.1538306,0.005096715,-1.522661,1.085901,-2.013459,0.07368174,1.322802,0.5839126,-0.8434327,-0.2354883,12.17507,5.592456,-0.06711821,-0.0435093,-0.07612672,-0.2151658,-3.331095,-0.6836252,0.1382025,1.466033,0.4702928,-0.08887627,0.06842815,-0.09334058,-1.111153,0.6376647,-0.1375328,0.3096497,1.505973,0.3623652,-0.2672619,1.340755,0.6546048,273.0482,330.9728,310.3101,True
4,2.400001,-0.02283779,0.211329,0.02095642,-1.526879,1.084794,-2.011895,0.07359466,1.322621,0.5834038,-0.8457816,-0.2110549,11.83024,6.385256,-0.08511532,-0.03824299,-0.05998371,-0.2151728,-3.330949,-0.6822478,0.138205,1.466187,0.4699638,-0.07383092,0.03327342,-0.08287652,-1.11153,0.6366762,-0.1368923,0.3098233,1.505798,0.3622067,-0.2668364,1.341599,0.6545768,273.0292,335.5627,305.906,True
4,2.411112,-0.05490707,0.284873,0.05593713,-1.532648,1.084084,-2.010247,0.0736123,1.322755,0.5828555,-0.8476245,-0.1648637,11.56498,7.328047,-0.08570725,-0.0607269,-0.006758951,-0.2128878,-3.330933,-0.6812654,0.1385425,1.466406,0.4696829,-0.04918776,0.01836579,-0.0703598,-1.111832,0.6362692,-0.1370151,0.3099792,1.505707,0.3620698,-0.2665351,1.342638,0.6545597,272.9665,340.2838,301.3474,True
4,2.422223,-0.01761454,0.2935336,0.07717472,-1.536634,1.083961,-2.011292,0.07343119,1.323037,0.5824537,-0.8494648,-0.1649365,11.32626,8.206554,-0.04893298,-0.108673,0.048264,-0.2092036,-3.332961,-0.6800747,0.1388708,1.466478,0.4693034,-0.02895791,0.03116503,-0.07054727,-1.11266,0.6371142,-0.1378117,0.3102241,1.505542,0.361882,-0.2663521,1.343884,0.6545408,272.9797,345.7516,295.9803,True
4,2.433334,-0.01218678,0.2274035,0.04646908,-1.53657,1.08343,-2.011451,0.07347268,1.323247,0.5821543,-0.8522046,-0.2470396,11.03448,8.935076,-0.008991048,-0.1811014,0.09893622,-0.2043992,-3.341276,-0.6732652,0.1390748,1.466541,0.4689105,-0.02170817,0.06421158,-0.08869915,-1.114576,0.6388777,-0.1386194,0.3105435,1.505429,0.361726,-0.2661978,1.345374,0.6544788,273.1399,351.3373,290.4547,True
4,2.444445,-0.0345069,0.1921505,0.02848731,-1.537305,1.082768,-2.010296,0.07339534,1.323405,0.5818148,-0.8577887,-0.5064092,10.68966,9.1922,-0.03586027,-0.1640578,0.06723249,-0.2037276,-3.345996,-0.6673216,0.1391618,1.466494,0.4686677,-0.04545074,0.08765604,-0.1161266,-1.116949,0.6404843,-0.1379414,0.3108203,1.50531,0.3616133,-0.2660112,1.347198,0.6543099,273.376,356.2868,285.5789,True
4,2.455556,-0.06857285,0.1760514,0.01258998,-1.538475,1.081735,-2.008409,0.07348898,1.323585,0.5814829,-0.8600226,-0.1980172,10.34483,8.270836,-0.04999252,-0.1139791,0.04719982,-0.2044381,-3.344487,-0.6676486,0.1392305,1.466823,0.4682333,-0.08400734,0.07380068,-0.1370571,-1.119151,0.6404852,-0.1356992,0.3111753,1.505326,0.3614244,-0.2657521,1.349186,0.6539499,273.3492,3.422287,278.5161,True
4,2.466667,-0.08988661,0.1834835,0.01898476,-1.540706,1.081165,-2.006677,0.07362044,1.323652,0.5811858,-0.8614186,-0.1243214,9.94695,7.285194,-0.05983168,-0.05644874,0.03354666,-0.205408,-3.33948,-0.6715102,0.1394034,1.467038,0.4678996,-0.09257059,0.04397219,-0.1433932,-1.120884,0.6397229,-0.1340214,0.3114458,1.505284,0.3613136,-0.2654089,1.35107,0.653419,273.1105,12.07561,269.8306,True
4,2.477778,-0.1058872,0.2004963,0.02321332,-1.543389,1.080426,-2.005147,0.07371262,1.323651,0.5807142,-0.8633808,-0.1765274,9.575595,6.642383,-0.05974717,-0.06499048,0.04098878,-0.2039603,-3.341703,-0.6688098,0.1396988,1.467204,0.4674721,-0.08832564,0.02906815,-0.1466458,-1.122489,0.6393807,-0.1332113,0.3117265,1.505256,0.3611948,-0.2651119,1.35281,0.6528825,273.0007,19.86139,261.9203,True
4,2.488889,-0.1314701,0.2057581,0.01896635,-1.545713,1.079422,-2.002703,0.07387501,1.324064,0.5804262,-0.8662671,-0.2604485,9.23077,6.513819,-0.03395142,-0.1001185,0.05882455,-0.2015757,-3.346786,-0.6642722,0.1401221,1.467493,0.4671731,-0.07014292,0.03227087,-0.1393708,-1.123841,0.639657,-0.133185,0.3119876,1.505303,0.3610847,-0.2648167,1.354438,0.6524361,273.0314,24.72648,256.9204,True
4,2.5,-0.1153718,0.1386434,0.009559276,-1.544821,1.079655,-2.001911,0.07392839,1.324641,0.5802882,-0.8692324,-0.2670569,8.965518,6.899507,0.002392963,-0.1245554,0.06701402,-0.1992801,-3.35296,-0.6594772,0.1404891,1.467734,0.4669318,-0.05836432,0.05251335,-0.1320064,-1.125118,0.6410114,-0.1335535,0.3123043,1.505347,0.3610425,-0.2644678,1.355997,0.6520972,273.1675,28.17064,253.4288,True
4,2.511111,-0.06296012,0.02364907,-0.005078942,-1.541279,1.080743,-2.002962,0.07392731,1.325222,0.5801139,-0.8707584,-0.1359139,8.859415,8.03514,0.03462829,-0.1831041,0.08261296,-0.1958254,-3.364941,-0.6492987,0.1407485,1.468032,0.466625,-0.05079013,0.08233301,-0.1182026,-1.126199,0.6430754,-0.1341863,0.312615,1.505454,0.3608911,-0.2640785,1.357515,0.6518518,273.3381,30.87719,250.7555,True
4,2.522222,-0.02339348,-0.05406825,-0.01554689,-1.538097,1.081726,-2.004155,0.07383433,1.325576,0.5800569,-0.8743472,-0.3258973,8.965518,9.385041,0.01227315,-0.1767785,0.08706225,-0.1938643,-3.368873,-0.644825,0.1408483,1.468161,0.4662485,-0.06768006,0.0897548,-0.1020376,-1.126876,0.6442512,-0.133243,0.3128998,1.505552,0.3607028,-0.2637306,1.359108,0.651733,273.4189,32.39839,249.2937,True
4,2.533333,-0.03403601,-0.06049841,-0.02190735,-1.53741,1.081597,-2.003372,0.07398155,1.325701,0.5798962,-0.8780053,-0.330724,9.28382,10.7778,-0.05319379,-0.0788756,0.05687603,-0.195729,-3.360674,-0.6500265,0.1408293,1.46838,0.466007,-0.08664516,0.07373989,-0.08268479,-1.127231,0.6444392,-0.1317495,0.31325,1.505567,0.3605008,-0.2633877,1.360702,0.6516058,273.3407,36.7688,245.0553,True
4,2.544444,-0.06496642,-0.03709735,-0.01235172,-1.537807,1.081607,-2.001616,0.07411486,1.325885,0.5796566,-0.879583,-0.1408928,9.787797,12.17056,-0.07038715,0.0009652302,0.06356817,-0.1967064,-3.346491,-0.6625414,0.140953,1.468665,0.4656606,-0.09380069,0.05133317,-0.05493625,-1.126891,0.6442587,-0.1303641,0.3135572,1.505604,0.3603523,-0.2630427,1.362033,0.6513067,273.2412,45.05787,236.8959,True
4,2.555555,-0.1044567,0.007612798,0.003538266,-1.539647,1.081341,-1.999042,0.07441929,1.326081,0.5793569,-0.8786604,0.08588975,10.34483,13.26334,-0.08314502,0.03498699,0.07758196,-0.1964518,-3.336947,-0.6707264,0.1414174,1.468933,0.4654245,-0.08307676,0.03855188,-0.04866554,-1.127247,0.6442764,-0.1298019,0.31393,1.50563,0.3602326,-0.2628013,1.362885,0.6508557,273.2717,52.71788,229.2208,True
4,2.566666,-0.1087201,0.01295217,0.01098482,-1.540165,1.081532,-1.997679,0.07463139,1.326442,0.5790935,-0.8784516,0.01886554,10.87533,14.14185,-0.04895999,0.006302927,0.08045033,-0.1951383,-3.337362,-0.6709006,0.1419986,1.469227,0.4651718,-0.06078637,0.04283933,-0.05634635,-1.128167,0.6448285,-0.1300675,0.3143548,1.505678,0.3601098,-0.2626812,1.36328,0.6503764,273.3232,54.26812,227.5355,True
4,2.577777,-0.09582929,-0.03066602,0.02281532,-1.538682,1.082892,-1.997265,0.07478324,1.326973,0.5788734,-0.8785598,-0.009334106,11.27321,14.52753,-0.01036528,-0.03945307,0.09709783,-0.1924011,-3.341692,-0.6679131,0.1425534,1.469526,0.4649312,-0.0480895,0.04925276,-0.06392656,-1.129261,0.6456153,-0.1302038,0.3148841,1.505737,0.3599429,-0.2626662,1.363448,0.6499493,273.2845,50.54099,231.1344,True
4,2.588888,-0.07338449,-0.05506726,0.04310263,-1.537786,1.084528,-1.997224,0.07485288,1.327405,0.5786364,-0.8806317,-0.1887193,11.59151,14.27041,0.03249578,-0.1277779,0.1008333,-0.1886503,-3.356671,-0.6550223,0.1431588,1.469738,0.4647677,-0.04201567,0.05142155,-0.09488161,-1.131424,0.6460345,-0.1301537,0.3153983,1.505787,0.359767,-0.2626477,1.363679,0.6495872,273.2142,44.26183,237.3427,True
4,2.599999,-0.05847846,-0.04328169,0.05370751,-1.538206,1.085415,-1.99714,0.07511583,1.32764,0.5783608,-0.8824544,-0.1645031,11.77719,13.56331,0.003631517,-0.1437944,0.08291335,-0.1871137,-3.364573,-0.6463553,0.1435607,1.469866,0.4645638,-0.04214197,0.0503759,-0.1076657,-1.133093,0.6464543,-0.1298352,0.3159334,1.505775,0.3595366,-0.2625639,1.364136,0.6492276,273.1255,40.53524,241.0934,True
4,2.61111,-0.05967133,0.02493411,0.06629752,-1.541098,1.085373,-1.996333,0.07530144,1.32769,0.578012,-0.8834664,-0.09095259,11.85676,12.9205,-0.04895829,-0.1023081,0.04718943,-0.1877379,-3.365525,-0.6431388,0.1439171,1.470159,0.4643176,-0.06454679,0.02586153,-0.1127895,-1.134472,0.6456242,-0.127966,0.3164476,1.505744,0.3593578,-0.2624025,1.364807,0.6487437,273.04,41.07352,240.6229,True
4,2.622221,-0.08752432,0.1122803,0.08312014,-1.545479,1.085017,-1.994523,0.07553568,1.327607,0.5775003,-0.8838765,-0.03663999,11.77719,12.5991,-0.06401355,-0.07569336,0.03777469,-0.1876527,-3.365139,-0.6422985,0.144379,1.470333,0.4640012,-0.08569973,-0.01038824,-0.1008844,-1.134771,0.6440473,-0.1256293,0.3169165,1.505636,0.3592391,-0.2621925,1.365599,0.6480786,273.0647,44.27671,237.4149,True
4,2.633332,-0.1302819,0.1921375,0.09891456,-1.550274,1.084536,-1.991635,0.07580519,1.327706,0.5770724,-0.8835101,0.03395543,11.59151,12.44911,-0.05551547,-0.03947496,0.04630061,-0.1873806,-3.359889,-0.6472376,0.145001,1.470488,0.46368,-0.08457873,-0.01998023,-0.09664192,-1.135594,0.6433604,-0.1245608,0.3174358,1.505636,0.3590169,-0.261921,1.366403,0.6472952,273.2101,47.49451,234.0609,True
4,2.644443,-0.155886,0.2198325,0.1159082,-1.55412,1.084838,-1.989048,0.07593641,1.327888,0.5766346,-0.88279,0.06571212,11.29973,12.23484,-0.032809,-0.05015336,0.08551755,-0.1850561,-3.356336,-0.6510713,0.1456376,1.470757,0.4633789,-0.06118516,0.01839068,-0.09790541,-1.136911,0.6448116,-0.125266,0.3180124,1.505606,0.358819,-0.2616613,1.367214,0.6465771,273.459,48.66046,232.7048,True
4,2.655554,-0.1451971,0.2081598,0.1244584,-1.556279,1.085759,-1.987994,0.07612303,1.328163,0.5763514,-0.8820373,0.0685793,10.98143,11.65631,-0.01988038,-0.08210538,0.0938671,-0.1827419,-3.36198,-0.645726,0.1462232,1.47098,0.4632409,-0.04306223,0.04822933,-0.09486202,-1.138032,0.6463527,-0.1261076,0.3186007,1.505539,0.3586667,-0.2613981,1.368085,0.6460236,273.7302,47.69274,233.5307,True
4,2.666665,-0.09613629,0.1837766,0.130865,-1.558089,1.086803,-1.98857,0.07628956,1.328295,0.5759447,-0.8826909,-0.05994551,10.68966,11.20634,-0.01116058,-0.1279136,0.1043571,-0.1796867,-3.37037,-0.6376697,0.1467739,1.471154,0.4629879,-0.05810686,0.03544844,-0.1085715,-1.139664,0.6461399,-0.1249467,0.3191461,1.505472,0.3584223,-0.2611455,1.369164,0.6456845,273.9588,45.78779,235.3933,True
4,2.677776,-0.06205586,0.1848957,0.1276289,-1.560447,1.087182,-1.989037,0.07658258,1.328295,0.5755711,-0.884668,-0.1799067,10.4244,10.82066,-0.01548238,-0.1342942,0.09371722,-0.1782938,-3.376291,-0.6315633,0.147238,1.47121,0.462774,-0.09230626,0.015196,-0.121032,-1.141388,0.6452714,-0.1224061,0.3197438,1.505402,0.3581965,-0.2608576,1.370501,0.645453,274.1549,45.50118,235.756,True
4,2.688887,-0.1101572,0.2604118,0.1200067,-1.56599,1.085879,-1.986076,0.07704636,1.328025,0.5750034,-0.8866782,-0.1821487,10.23872,10.45639,-0.02551635,-0.1022636,0.04698521,-0.1791194,-3.379921,-0.6273769,0.1475536,1.471173,0.4624045,-0.1370032,-0.01147517,-0.118473,-1.142457,0.6439623,-0.1188047,0.3202384,1.505331,0.3579662,-0.2604322,1.371949,0.6451577,274.3579,48.13542,233.2336,True
4,2.699998,-0.1410632,0.2624507,0.1115103,-1.56908,1.085503,-1.983298,0.07754532,1.327926,0.5744321,-0.8867634,-0.00642796,10.07958,10.07071,-0.02585625,-0.05639653,0.0183188,-0.1803168,-3.378237,-0.6287295,0.1479549,1.471212,0.4620991,-0.1433579,-0.01254901,-0.1152155,-1.143569,0.6436902,-0.1170366,0.3207934,1.505254,0.3576334,-0.2598501,1.373226,0.6446952,274.6556,52.46811,228.9643,True
4,2.711109,-0.1154671,0.2336573,0.08493636,-1.570488,1.084992,-1.98298,0.07796869,1.327908,0.5740633,-0.8833535,0.3116502,9.94695,9.427898,-0.0197926,0.001187276,-0.003979371,-0.1819834,-3.371995,-0.6347905,0.1484287,1.471297,0.4617984,-0.09516991,0.005576935,-0.09012266,-1.143835,0.6444994,-0.1180633,0.3213753,1.505135,0.3574247,-0.2591987,1.374133,0.6441523,275.011,55.37976,225.9803,True
4,2.72222,-0.0567835,0.1783289,0.06692044,4.712489,1.085032,-1.984308,0.07838297,1.328144,0.573611,-0.8833598,-0.003122876,9.840847,8.656524,-0.008955878,0.001165443,0.01937276,-0.1812468,-3.368426,-0.6385608,0.1491146,1.471468,0.4615207,-0.06847699,0.009852828,-0.08399871,-1.144584,0.644687,-0.1182726,0.3218763,1.505082,0.3571706,-0.2585861,1.374792,0.6437383,275.2984,54.47514,226.7746,True
4,2.733331,-0.01087454,0.1251226,0.05637403,-1.570585,1.08552,-1.985661,0.07890296,1.328413,0.5732367,-0.8861018,-0.2502126,9.761274,7.970859,-0.007270634,-0.07352145,0.0746016,-0.176999,-3.375281,-0.6318025,0.1498456,1.471666,0.4612567,-0.04160821,-0.0008027907,-0.06190919,-1.144487,0.6442629,-0.1184486,0.3222845,1.505023,0.356998,-0.2579994,1.375369,0.6434479,275.3854,53.13956,228.1139,True
4,2.744442,0.006230571,0.0931863,0.05218632,4.712444,1.085944,-1.986308,0.07943827,1.32872,0.5727687,-0.8880673,-0.1775235,9.734747,7.413754,-0.0303897,-0.1268932,0.09811018,-0.1736509,-3.384027,-0.6220979,0.1505385,1.471899,0.4608548,-0.03171448,-0.002957651,-0.03218274,-1.143861,0.6441919,-0.1184127,0.3227826,1.504968,0.3566988,-0.2574102,1.375862,0.6432363,275.3937,53.34329,227.9809,True
4,2.755553,0.009426948,0.08461386,0.03516074,4.711828,1.085483,-1.986403,0.08006486,1.328711,0.5721912,-0.8880897,-0.0008821415,9.70822,7.006642,-0.0345594,-0.1354499,0.1077092,-0.1715891,-3.38745,-0.6181117,0.1510713,1.472018,0.4604752,-0.02616696,0.005534325,-0.009858405,-1.143306,0.6445289,-0.1183618,0.3233551,1.504946,0.3562996,-0.2567845,1.37615,0.6430044,275.4266,54.26766,227.1565,True
4,2.766664,-0.01193299,0.0919283,0.001074132,4.711116,1.083917,-1.985577,0.08066329,1.328813,0.5718157,-0.8871362,0.08688601,9.681698,6.792371,-0.02197509,-0.07574825,0.101342,-0.1715816,-3.378674,-0.6269486,0.1515335,1.472228,0.4600258,-0.0314341,0.02682791,-0.002324253,-1.143191,0.6457077,-0.1183202,0.3240014,1.504931,0.3559389,-0.2561619,1.376154,0.6426937,275.4679,54.49909,227.0052,True
4,2.777775,-0.03432944,0.09397396,-0.01063085,4.710328,1.082945,-1.984295,0.08127803,1.328908,0.5712628,-0.886332,0.0726325,9.628648,6.599526,-0.0005950034,-0.04590961,0.1204112,-0.1703645,-3.36902,-0.6372428,0.1519244,1.472331,0.4595835,-0.04544255,0.03002671,-0.01708975,-1.143998,0.6460403,-0.117362,0.3246127,1.504893,0.3555884,-0.2556019,1.375916,0.6422895,275.4678,53.58703,227.9675,True
4,2.788886,-0.03636766,0.05031426,-0.004108768,4.710947,1.083479,-1.98376,0.08166027,1.329024,0.5712607,-0.8852955,0.09420099,9.469496,6.406684,0.03239353,-0.0319779,0.120181,-0.1693616,-3.363238,-0.6445566,0.1522572,1.4724,0.4592323,-0.09517442,0.004498444,-0.09011809,-1.147449,0.644677,-0.1140182,0.32522,1.504929,0.3551879,-0.2551059,1.375522,0.6418561,275.407,52.07098,229.4469,True
4,2.799997,-0.01928472,0.03331256,-0.0008825478,4.711122,1.083675,-1.984142,0.08206579,1.32914,0.5710502,-0.8847996,0.04463567,9.28382,6.213842,0.02434502,-0.01162846,0.05103034,-0.1709654,-3.369516,-0.6384175,0.1526567,1.472576,0.4590538,-0.1189057,-0.005069956,-0.1197233,-1.149839,0.6440074,-0.1116584,0.3258354,1.504929,0.3547928,-0.2547041,1.375169,0.6415702,275.2838,49.75964,231.663,True
4,2.811108,0.02765483,0.00252383,0.002349485,4.71214,1.084299,-1.986249,0.08241841,1.329182,0.570874,-0.8856134,-0.07461415,9.071617,6.085279,0.02319953,-0.006286994,0.04252776,-0.170902,-3.368363,-0.6397693,0.1531196,1.472772,0.4587481,-0.1400387,-0.0157574,-0.1035385,-1.150384,0.6433455,-0.1090493,0.3263667,1.504945,0.3544397,-0.2543118,1.375013,0.6414352,275.1787,47.51321,233.8838,True
4,2.822219,0.05213503,0.02609202,0.02995302,4.710493,1.084989,-1.987583,0.08310947,1.32893,0.5704823,-0.8866659,-0.09551632,8.832892,5.721019,-0.006493282,-0.01598971,0.05659321,-0.1695113,-3.36758,-0.6394132,0.1539327,1.473105,0.4583972,-0.1022738,-0.02536261,-0.05813369,-1.149323,0.6428921,-0.1092463,0.3268906,1.504936,0.3541498,-0.2539598,1.375107,0.6413982,275.1229,46.86909,234.5717,True
4,2.83333,0.04141287,0.06125214,0.03518747,4.708407,1.08461,-1.987509,0.08397511,1.329015,0.5699861,-0.8883959,-0.1574829,8.620689,5.721019,-0.01177537,-0.04050033,0.05445316,-0.1682649,-3.371501,-0.6352308,0.1546162,1.473184,0.4579802,-0.06027224,-0.02963446,-0.01382082,-1.147995,0.6426276,-0.1098679,0.3273379,1.505026,0.3539329,-0.2535395,1.37534,0.6413206,275.1533,47.76625,233.7669,True
4,2.844441,0.01152174,0.09208491,0.03513165,4.706336,1.084113,-1.986579,0.08479419,1.328951,0.5692921,-0.8875927,0.07455233,8.461537,6.299549,-0.01510019,0.01807826,0.05673148,-0.1689483,-3.359554,-0.6467066,0.155288,1.473248,0.4576631,-0.06118276,-0.01899959,0.002180232,-1.147459,0.6428294,-0.1092559,0.3278558,1.505059,0.3536468,-0.2529511,1.375459,0.6410738,275.2681,49.95193,231.646,True
4,2.855552,-0.008812598,0.130354,0.0211945,4.703935,1.082794,-1.985779,0.0855296,1.329069,0.5686002,-0.8859016,0.1537033,8.328911,7.413754,-0.009882861,0.04154215,0.05034769,-0.1693632,-3.352086,-0.6541688,0.1559377,1.473338,0.4573927,-0.04728035,-0.007275362,0.008440644,-1.14737,0.6432368,-0.1092184,0.3284425,1.505086,0.3533399,-0.2521423,1.375325,0.6406223,275.4621,50.24063,231.3454,True
4,2.866663,-0.004597834,0.1495202,0.01261228,4.70189,1.081693,-1.985924,0.08613238,1.329323,0.5682123,-0.8848555,0.09436636,8.302388,9.235053,0.01659743,0.01503407,0.02238607,-0.1695113,-3.357856,-0.6495926,0.156702,1.473416,0.4572105,-0.006905776,-0.01255736,-0.002631207,-1.147713,0.6428376,-0.1103915,0.3290641,1.505091,0.3530204,-0.251267,1.37509,0.6400971,275.55,48.38196,233.1713,True
4,2.877774,0.02099622,0.1410814,0.02326455,4.700557,1.081866,-1.987077,0.08659747,1.329496,0.5678205,-0.8849839,-0.01233703,8.249334,11.20634,0.02084718,-0.04244252,0.00305967,-0.168544,-3.371847,-0.6361855,0.1574246,1.473541,0.4570231,0.01000048,-0.02104807,-0.01666347,-1.148373,0.6421629,-0.1107649,0.3296952,1.505097,0.3526599,-0.2504276,1.374953,0.6395916,275.5622,45.90291,235.6451,True
4,2.888885,0.03276968,0.1241132,0.04141068,4.699397,1.082569,-1.98787,0.0870367,1.329669,0.5675023,-0.8860486,-0.09708758,8.143235,13.19906,0.01242225,-0.1116879,-0.006605826,-0.1666345,-3.391928,-0.6162273,0.1581629,1.473773,0.4568076,-0.001898833,-0.02529924,-0.03465745,-1.149381,0.6415344,-0.1101097,0.330433,1.505174,0.3523161,-0.2497165,1.375106,0.6392349,275.5646,43.80539,237.7184,True
4,2.899997,0.01783533,0.1358103,0.04458947,4.697375,1.082351,-1.987526,0.08756813,1.329794,0.5671294,-0.8871794,-0.1025252,7.984083,15.2132,0.004949644,-0.1031807,-0.005459104,-0.1660577,-3.396746,-0.6111987,0.158822,1.474095,0.4565048,-0.01263225,-0.03275403,-0.04307488,-1.149964,0.6408599,-0.1092567,0.3310619,1.505116,0.3519449,-0.2491125,1.375562,0.6390748,275.6229,43.3671,238.1475,True
4,2.911108,-0.04615065,0.1847662,0.07221876,4.693157,1.08242,-1.984628,0.08808023,1.329713,0.5667925,-0.8868427,0.03147059,7.718831,17.09878,0.02643564,-0.04888343,0.03496801,-0.1653503,-3.382746,-0.6259561,0.1595455,1.474278,0.4561598,-0.0521365,-0.04236328,-0.05226969,-1.1508,0.6398338,-0.1068633,0.3317533,1.505043,0.3515735,-0.2485207,1.376127,0.6389686,275.7769,44.69728,236.8978,True
4,2.922219,-0.05261844,0.2381013,0.1008343,4.688308,1.082556,-1.983804,0.08863869,1.32971,0.5663474,-0.8855703,0.11596,7.427056,18.02014,0.03074389,0.01711742,0.06277566,-0.1654531,-3.363589,-0.6452972,0.1602747,1.474441,0.4558129,-0.06383663,-0.04875907,-0.0510927,-1.151232,0.6390529,-0.1054716,0.3324688,1.50489,0.3511927,-0.2479442,1.376642,0.638801,275.968,46.0894,235.5969,True
4,2.93333,-0.03988769,0.2626273,0.09861392,4.684444,1.081913,-1.983783,0.08919629,1.329618,0.565964,-0.8829753,0.2363162,7.24138,18.02014,0.03632866,-0.01700802,0.08502844,-0.163354,-3.365179,-0.6442708,0.1610371,1.474476,0.4555225,-0.05108784,-0.06152808,-0.05550145,-1.151875,0.6377808,-0.1049006,0.3332481,1.504863,0.3508582,-0.2473889,1.377084,0.6385834,276.1562,46.24499,235.4468,True
4,2.944441,-0.03668891,0.24872,0.07627937,4.682269,1.081084,-1.983503,0.08979473,1.329649,0.565546,-0.8849977,-0.1866694,7.161804,17.14163,0.02549154,-0.06702158,0.04559233,-0.1625247,-3.379726,-0.6298637,0.1617163,1.474514,0.455312,-0.0395954,-0.06575564,-0.07799588,-1.153383,0.6366308,-0.1043986,0.3339714,1.504834,0.3505063,-0.2468712,1.377633,0.638375,276.3831,44.41996,237.2324,True
4,2.955552,-0.03766162,0.1921805,0.04980671,4.682545,1.080579,-1.983283,0.09054533,1.329803,0.5650523,-0.8861945,-0.1074878,7.214853,15.62031,0.02103391,-0.07869074,0.01683912,-0.1624251,-3.388904,-0.6208859,0.1623762,1.47456,0.4551048,-0.04717686,-0.06681152,-0.09070867,-1.154782,0.6356873,-0.1032814,0.3346825,1.504876,0.3502617,-0.2462528,1.378335,0.6381205,276.6315,43.40417,238.2352,True
4,2.966663,-0.03975442,0.1579992,0.02007796,4.682371,1.079668,-1.982789,0.09132603,1.330117,0.5644181,-0.8860534,0.01365479,7.506632,13.92758,-0.002848838,-0.0637271,-0.03514357,-0.1640555,-3.397814,-0.6112943,0.1630969,1.474602,0.4548159,-0.0629679,-0.07003993,-0.07243981,-1.154898,0.6347288,-0.1016316,0.3353696,1.50475,0.3499701,-0.2455117,1.379075,0.637848,276.8331,44.17573,237.4514,True
4,2.977774,-0.03446525,0.1707522,0.005108103,4.680255,1.078144,-1.98271,0.09210017,1.330299,0.5638659,-0.8860822,-0.00284814,7.984083,12.042,-0.05194275,-0.0404049,-0.038971,-0.1648305,-3.397466,-0.6093853,0.1639829,1.47479,0.4544363,-0.06149983,-0.08818819,-0.03412191,-1.153765,0.6331472,-0.1002696,0.3360605,1.504681,0.3496401,-0.2446611,1.379744,0.6375839,276.9392,45.69541,235.9458,True
4,2.988885,-0.04197339,0.1995185,0.01142468,4.67711,1.077115,-1.982019,0.09293351,1.330589,0.5634022,-0.885803,0.02555774,8.514586,10.62781,-0.04721337,-0.04051812,0.02065022,-0.1626813,-3.391598,-0.6147886,0.1649019,1.474987,0.4540544,-0.0403844,-0.06897733,-0.05136261,-1.154839,0.6328305,-0.100386,0.3368052,1.504523,0.3493247,-0.243699,1.380263,0.6372926,276.9462,47.04433,234.6558,True
4,2.999996,-0.07603098,0.1866871,0.01789005,4.675288,1.076832,-1.979985,0.09363633,1.331023,0.5630486,-0.8861695,-0.03372046,8.992041,9.920717,-0.007103622,-0.041662,0.1087535,-0.1588245,-3.377434,-0.6301247,0.1659355,1.47532,0.4536114,-0.03125966,-0.03056923,-0.09404045,-1.157657,0.6336091,-0.1007596,0.3375859,1.504459,0.3489923,-0.242722,1.380691,0.6370291,276.9579,47.25676,234.4885,True
4,3.011107,-0.116431,0.1396939,0.004224692,4.675522,1.076526,-1.97735,0.09430629,1.331406,0.5628378,-0.8856236,0.05026196,9.28382,10.11356,0.007954739,-0.04591209,0.1256608,-0.1572533,-3.374382,-0.6337509,0.1668163,1.475607,0.453254,-0.03674832,-0.01777391,-0.1088856,-1.159386,0.6336939,-0.1002134,0.3384035,1.504348,0.3486681,-0.2417729,1.381093,0.6368958,277.0669,46.55223,235.1913,True
4,3.022218,-0.1398074,0.1076753,8.299295E-05,4.675485,1.076343,-1.974975,0.09483865,1.33203,0.5627484,-0.8843095,0.1197348,9.336869,11.09921,0.03789589,-0.07461081,0.1306927,-0.1548719,-3.377551,-0.6320616,0.1679085,1.475784,0.4528985,-0.04954483,-0.04228554,-0.1119774,-1.160505,0.6320083,-0.09844295,0.3392731,1.504215,0.3481953,-0.2408821,1.381565,0.6369238,277.222,45.25208,236.5356,True
4,3.033329,-0.1386778,0.07570739,-0.004087473,4.675724,1.076235,-1.973677,0.09546211,1.332601,0.5626621,-0.8837509,0.05022899,9.336869,12.9205,0.05722457,-0.0959053,0.1432693,-0.1523754,-3.380835,-0.6300195,0.1689904,1.476142,0.4527826,-0.04746671,-0.05932318,-0.1184048,-1.161765,0.6304395,-0.09738541,0.3401645,1.504047,0.3477483,-0.2401183,1.382235,0.6370513,277.2852,44.35481,237.5674,True
4,3.04444,-0.151444,0.06394698,-0.009369222,4.675581,1.075765,-1.971597,0.0960767,1.333189,0.5625427,-0.8842137,-0.0424701,9.28382,15.57746,0.06923345,-0.1385362,0.1665234,-0.1485676,-3.386217,-0.6258721,0.170031,1.476455,0.4524376,-0.05490745,-0.06572208,-0.1172703,-1.162939,0.6293059,-0.0961023,0.3411132,1.503927,0.3472624,-0.239462,1.383179,0.6371924,277.2399,44.32619,237.7184,True
4,3.055551,-0.1951829,0.08513771,-0.02002364,4.674032,1.074725,-1.967946,0.09700796,1.334031,0.5631003,-0.8855469,-0.1213139,9.204244,19.02721,0.07140611,-0.1427953,0.1696904,-0.1460621,-3.387605,-0.6253582,0.1710305,1.476843,0.4520969,-0.07827477,-0.0721397,-0.1106466,-1.163827,0.6281763,-0.09395233,0.342104,1.503835,0.3468258,-0.2388611,1.38445,0.6373067,277.2193,44.85292,237.2459,True
4,3.066662,-0.2463465,0.09245384,-0.03277123,4.673152,1.073513,-1.963573,0.09782711,1.334673,0.5630085,-0.8850121,0.05000304,9.177716,23.03407,0.08638915,-0.1204198,0.1855993,-0.1436397,-3.380147,-0.6341721,0.1720809,1.477293,0.4517081,-0.1144367,-0.1020005,-0.1071133,-1.164667,0.6257367,-0.09046678,0.3430545,1.50375,0.3463604,-0.2381527,1.385914,0.6373123,277.2709,46.40872,235.6973,True
4,3.077773,-0.2654919,0.06999496,-0.04866568,4.673574,1.072562,-1.96017,0.09871978,1.335472,0.5628994,-0.8834978,0.1380096,9.416446,26.84808,0.08846898,-0.09910707,0.1856358,-0.1417537,-3.372802,-0.6425302,0.1732554,1.477725,0.4511614,-0.1432704,-0.1116125,-0.1142831,-1.165984,0.6237705,-0.08713783,0.3440812,1.503623,0.3458471,-0.2373675,1.387521,0.637297,277.3351,47.85144,234.1316,True
4,3.088884,-0.2707742,0.04225554,-0.05923185,4.674378,1.0718,-1.95698,0.09955803,1.336328,0.562784,-0.8828864,0.05497684,9.70822,30.06214,0.08740042,-0.07781728,0.1920806,-0.1397712,-3.363383,-0.6527916,0.1744371,1.478128,0.4507136,-0.1434467,-0.1073341,-0.1313235,-1.167929,0.6224466,-0.08506989,0.3450917,1.503581,0.3453844,-0.2364979,1.389374,0.6374835,277.3927,48.53026,233.2533,True
4,3.099995,-0.2845644,0.003830824,-0.07508822,4.676062,1.070974,-1.95343,0.1004939,1.337364,0.5626841,-0.8841407,-0.114792,9.94695,32.59053,0.06394516,-0.05338837,0.1976446,-0.1379454,-3.351202,-0.66479,0.1759227,1.478617,0.4503231,-0.1243801,-0.09664934,-0.141095,-1.169756,0.621599,-0.08396601,0.3461342,1.50357,0.3449392,-0.2354106,1.391479,0.6378181,277.4703,49.64667,232.1612,True
4,3.111106,-0.305852,-0.01115743,-0.08567373,4.677175,1.06999,-1.949299,0.1013431,1.338474,0.5625868,-0.8847607,-0.05548854,10.07958,34.45468,0.05325623,-0.06192853,0.1902487,-0.1358415,-3.349819,-0.6664299,0.1773597,1.479167,0.4500256,-0.1072504,-0.09984137,-0.1327518,-1.170817,0.6201421,-0.0827042,0.347218,1.503473,0.3444276,-0.2340771,1.393773,0.6381828,277.5658,51.89719,230.0946,True
4,3.122217,-0.3122808,0.0101345,-0.08466765,4.676808,1.068808,-1.945713,0.1023801,1.33986,0.562633,-0.8843857,0.0344215,9.999999,35.56889,0.07288113,-0.1311973,0.2251061,-0.1306994,-3.355123,-0.6625809,0.1790137,1.479965,0.4496038,-0.06980947,-0.1062194,-0.1182263,-1.171502,0.6185404,-0.08258808,0.3483595,1.503494,0.3438783,-0.2326175,1.39616,0.6385038,277.7122,54.77109,227.4401,True
4,3.133328,-0.318726,0.05280793,-0.05921744,4.67482,1.068278,-1.942133,0.1033505,1.341139,0.5627091,-0.883469,0.08310735,9.814323,35.71887,0.1687697,-0.2643214,0.3188958,-0.1209001,-3.368761,-0.6541137,0.1805124,1.480739,0.4491105,-0.05072264,-0.08594917,-0.1258537,-1.173098,0.6181781,-0.08254547,0.3495403,1.503579,0.3432405,-0.2311729,1.398571,0.6387587,277.847,57.51624,224.8666,True
4,3.144439,-0.3122744,0.02084969,-0.06339242,4.675772,1.067805,-1.938848,0.104132,1.342414,0.5629389,-0.883444,0.001089228,9.575595,34.86179,0.2298304,-0.3132288,0.3460125,-0.1139599,-3.378953,-0.648591,0.1817925,1.481469,0.4485562,-0.08729167,-0.06889771,-0.1584875,-1.175874,0.6177272,-0.08028898,0.350768,1.503733,0.3425596,-0.2298682,1.40103,0.6389989,277.9539,59.30146,223.1497,True
4,3.15555,-0.3004979,-0.02394164,-0.08777534,4.678177,1.066811,-1.935847,0.1049829,1.343548,0.563081,-0.8826951,0.06769463,9.28382,33.06192,0.2265432,-0.2812746,0.3450398,-0.1101004,-3.37179,-0.6578327,0.1828628,1.482208,0.4479702,-0.1758497,-0.09452209,-0.1735934,-1.178174,0.6154794,-0.07463003,0.3520336,1.5039,0.3418725,-0.2286465,1.403549,0.6392754,278.0778,60.15197,222.2695,True
4,3.166661,-0.2759274,-0.07725938,-0.1228018,4.681604,1.065391,-1.933675,0.1058208,1.344582,0.5632071,-0.8818232,0.07811595,8.885942,30.61924,0.176013,-0.1705622,0.3222304,-0.1090602,-3.342349,-0.6873278,0.1837143,1.482887,0.4473951,-0.217285,-0.13611,-0.1657575,-1.179547,0.6122754,-0.06964006,0.353191,1.504031,0.3411913,-0.2274982,1.406084,0.6396025,278.2752,61.05748,221.3696,True
4,3.177772,-0.2588696,-0.08683656,-0.1291924,4.683339,1.064255,-1.931356,0.1068809,1.345478,0.5631316,-0.8806573,0.1047844,8.673739,28.41226,0.09956339,-0.0683455,0.2516593,-0.1104754,-3.32248,-0.705551,0.1846161,1.483422,0.4468513,-0.2383017,-0.183025,-0.1410892,-1.179943,0.6083053,-0.06494864,0.3544039,1.504193,0.3404813,-0.2264572,1.40848,0.6399296,278.4162,63.3508,219.1541,True
4,3.188883,-0.2620841,-0.07939538,-0.1324064,4.684508,1.062999,-1.928356,0.1078948,1.346371,0.5629795,-0.8796405,0.0905165,8.647213,26.29098,0.05968071,-0.008704394,0.2116146,-0.1110267,-3.303221,-0.7239692,0.1855689,1.483991,0.4463098,-0.2251562,-0.1979676,-0.1071484,-1.179862,0.6054375,-0.06193554,0.3555346,1.504431,0.339793,-0.2254528,1.410517,0.640201,278.4954,66.39891,216.1708,True
4,3.199994,-0.2684945,-0.07408801,-0.1345384,4.685457,1.061854,-1.925033,0.1090267,1.347279,0.5627131,-0.8773667,0.2054314,8.726789,24.21256,0.01657221,0.0605091,0.1705535,-0.1124003,-3.282025,-0.7438672,0.1869331,1.484697,0.4457974,-0.2142366,-0.194796,-0.08062123,-1.17976,0.6032526,-0.05908782,0.3566474,1.504616,0.3391256,-0.2244388,1.412007,0.6404293,278.5401,69.00848,213.5763,True
4,3.211105,-0.2567883,-0.06338695,-0.1260575,4.68619,1.060968,-1.922622,0.1101358,1.348474,0.5624042,-0.8741747,0.2881634,8.859415,22.24127,0.03275641,0.02855533,0.1863358,-0.1097292,-3.27213,-0.7547625,0.1883141,1.485458,0.4452682,-0.1817611,-0.1745879,-0.02873141,-1.178296,0.6020319,-0.05774053,0.3577854,1.504749,0.3384366,-0.2233821,1.412904,0.6406326,278.5407,69.83804,212.7635,True
4,3.222216,-0.2268676,-0.09092795,-0.09298579,4.687883,1.061662,-1.921091,0.1110913,1.34966,0.5622554,-0.8709991,0.2858049,8.965518,20.65567,0.09203601,-0.08964863,0.2356935,-0.1032454,-3.278852,-0.7511089,0.1897195,1.486134,0.4446881,-0.1526236,-0.1458371,0.01041908,-1.176839,0.6015343,-0.05685236,0.3589383,1.504835,0.3376763,-0.222396,1.413358,0.6408659,278.4146,69.19243,213.4836,True
4,3.233327,-0.1776913,-0.1696146,-0.07575995,4.692166,1.063001,-1.920453,0.1119398,1.350744,0.5621669,-0.8688164,0.1948983,9.071617,19.77716,0.1415781,-0.1599247,0.2820318,-0.0970392,-3.276437,-0.7566493,0.1909051,1.486825,0.4440591,-0.13888,-0.1149165,0.002853923,-1.177181,0.6012552,-0.05553224,0.3602124,1.50493,0.3369308,-0.2214864,1.413584,0.6411047,278.1585,67.52705,215.2688,True
4,3.244438,-0.09878288,-0.2195891,-0.09807272,4.69657,1.062739,-1.921833,0.1128432,1.351493,0.561939,-0.8664349,0.2136419,9.124667,19.69145,0.1105835,-0.1429448,0.2748557,-0.09419015,-3.264037,-0.7692647,0.1917967,1.487398,0.4433184,-0.1582442,-0.08082446,-0.01289078,-1.177839,0.6014448,-0.05323686,0.3614098,1.505021,0.3362205,-0.2206763,1.41379,0.6413059,277.8804,65.63424,217.3062,True
4,3.255549,-0.08598465,-0.2377079,-0.1140066,4.69979,1.062038,-1.921159,0.1140338,1.351987,0.5618386,-0.8636829,0.2471016,9.177716,20.14142,0.04735151,-0.06847544,0.2510121,-0.0942759,-3.23414,-0.7972319,0.192592,1.487958,0.4426675,-0.1776104,-0.07868969,-0.03187252,-1.178867,0.6004081,-0.05025252,0.3625998,1.505203,0.3355892,-0.2199966,1.414007,0.6413329,277.6731,64.82371,218.2849,True
4,3.26666,-0.1298601,-0.134435,-0.1046719,4.698174,1.06048,-1.918217,0.1152338,1.352195,0.5613265,-0.8616546,0.1803779,9.177716,20.7628,-0.0397098,0.09013493,0.2040873,-0.09850447,-3.183409,-0.8442663,0.1933045,1.488233,0.4419482,-0.2150496,-0.1021371,-0.04856142,-1.179917,0.5982955,-0.04574884,0.3637845,1.505178,0.3349154,-0.2194512,1.414079,0.6410345,277.49,65.90646,217.3103,True
4,3.277771,-0.1394969,-0.09817705,-0.08346567,4.698032,1.06024,-1.916199,0.1164137,1.352741,0.5607569,-0.8554622,0.5616475,9.23077,21.7913,-0.08241366,0.2308678,0.101385,-0.1053578,-3.153144,-0.8722042,0.1944613,1.488503,0.4411893,-0.2362303,-0.1458341,-0.03987315,-1.179908,0.5949871,-0.04124677,0.3649456,1.505148,0.3342485,-0.218928,1.413705,0.6404474,277.339,68.1162,214.9753,True
4,3.288882,-0.1821436,-0.07158107,-0.06645136,4.698009,1.060116,-1.912649,0.1177535,1.353243,0.5600913,-0.8485993,0.6195385,9.336869,23.11978,-0.06983787,0.223503,0.07250682,-0.1072545,-3.140872,-0.8840395,0.195707,1.488984,0.4406114,-0.2329283,-0.1564951,-0.03033054,-1.179826,0.5926902,-0.03788666,0.366114,1.505115,0.3335536,-0.2183915,1.412834,0.6398349,277.1329,68.27503,214.4906,True
4,3.299993,-0.1244942,-0.1128852,-0.02378113,4.700292,1.062106,-1.912991,0.1188112,1.354198,0.5592647,-0.845037,0.3177154,9.496022,24.76966,0.008615024,0.01060374,0.09062199,-0.1003634,-3.173458,-0.8546947,0.197445,1.489521,0.4399745,-0.1774948,-0.1181071,-0.02339898,-1.17982,0.592693,-0.0377828,0.3674649,1.505178,0.3326955,-0.2178366,1.411762,0.6394426,276.8741,64.7312,217.8004,True
4,3.311104,-0.08177766,-0.1607393,-0.02155681,4.703663,1.063057,-1.913509,0.120053,1.355332,0.5588794,-0.8393751,0.5123133,9.70822,26.56953,0.06482027,-0.1140261,0.1527737,-0.09415446,-3.179041,-0.8516099,0.1988794,1.490108,0.439307,-0.1521482,-0.09569113,-0.04388025,-1.181042,0.5922858,-0.03673618,0.368817,1.505246,0.3318608,-0.2171754,1.410735,0.6391959,276.5638,60.34891,222.2087,True
4,3.322215,-0.02197932,-0.2330709,-0.02567249,4.708576,1.06439,-1.915268,0.1210476,1.356346,0.5583653,-0.838737,0.0509054,9.973473,28.19799,0.05131416,-0.1503476,0.1847643,-0.08993176,-3.17443,-0.8563735,0.2001426,1.490632,0.4384933,-0.1661029,-0.1127336,-0.05547564,-1.18198,0.5903214,-0.03369618,0.370091,1.505259,0.3310244,-0.2163739,1.409995,0.6389354,276.2646,55.87384,226.9018,True
4,3.333326,-0.009158356,-0.2597107,-0.03732562,4.712201,1.064833,-1.915363,0.122095,1.357249,0.5579755,-0.8346693,0.3684564,10.26525,29.44075,0.01311632,-0.0866065,0.2256697,-0.08885211,-3.131657,-0.8975362,0.200998,1.491125,0.4375596,-0.2109543,-0.1596279,-0.06998651,-1.183114,0.5865385,-0.02837864,0.3713064,1.505285,0.3301597,-0.2154951,1.409558,0.6383992,276.0366,53.93737,229.1046,True
4,3.344437,-0.04434287,-0.2555767,-0.05647434,-1.56796,1.064602,-1.913767,0.1230964,1.357895,0.5575299,-0.8311156,0.3183161,10.61008,30.51211,-0.01691679,0.04857457,0.2432331,-0.09078077,-3.068608,-0.9591503,0.2017923,1.491441,0.4365811,-0.2395084,-0.1884338,-0.05161598,-1.18302,0.5832415,-0.02349361,0.3724973,1.5052,0.3292241,-0.2146714,1.409291,0.6376014,275.8019,54.30349,228.7955,True
4,3.355548,-0.08168462,-0.237592,-0.07245839,-1.565662,1.064148,-1.911516,0.1240558,1.358571,0.5569775,-0.8248023,0.5713467,10.95491,31.49775,-0.05031822,0.1348264,0.2234335,-0.09352223,-3.026561,-0.9993719,0.2026657,1.491776,0.4356272,-0.2500992,-0.1873817,-0.04511909,-1.183291,0.581129,-0.01964294,0.3735974,1.5052,0.3282814,-0.2139971,1.40896,0.6366042,275.5927,56.38232,226.6093,True
4,3.366659,-0.1381987,-0.2153567,-0.07991782,-1.563739,1.06358,-1.908002,0.1250054,1.359208,0.5566187,-0.81835,0.58203,11.32626,32.39768,-0.05808862,0.203024,0.2055261,-0.09673453,-2.985412,-1.039345,0.2035483,1.492067,0.4347994,-0.2617716,-0.1756786,-0.03966002,-1.183529,0.5794258,-0.01568016,0.3746912,1.505096,0.3274009,-0.2135351,1.408461,0.6356122,275.3756,57.36204,225.3749,True
4,3.37777,-0.1658485,-0.2335062,-0.07238131,-1.560401,1.064159,-1.905374,0.1258737,1.359802,0.5562549,-0.8132101,0.4623403,11.67109,33.29762,-0.02175925,0.1509151,0.2030024,-0.09517978,-2.967885,-1.057847,0.204681,1.492228,0.4340887,-0.2638751,-0.1639625,-0.03643511,-1.183914,0.5779723,-0.01219248,0.3757209,1.50487,0.3265171,-0.213236,1.407836,0.6347905,275.0965,56.27254,226.2155,True
4,3.388881,-0.1615103,-0.2750439,-0.07332653,-1.556007,1.064867,-1.903754,0.126698,1.360603,0.555902,-0.8078028,0.4879213,11.96286,33.8333,0.02003786,0.03491186,0.1971059,-0.09103324,-2.967826,-1.059569,0.2057666,1.492557,0.4333522,-0.2255047,-0.1511472,-0.03360853,-1.184097,0.5766141,-0.01046249,0.3767174,1.504763,0.3257465,-0.2129864,1.407222,0.6342111,274.775,53.39385,228.9292,True
4,3.399992,-0.1486681,-0.3134183,-0.09027361,-1.551033,1.064963,-1.902528,0.1274876,1.361368,0.555572,-0.8045862,0.2874365,12.20159,33.96186,0.05657238,-0.03747208,0.213713,-0.08711519,-2.954844,-1.074379,0.2066616,1.492815,0.4325349,-0.1839097,-0.1180987,-0.02653892,-1.184179,0.5763513,-0.009705625,0.3776099,1.50473,0.3249547,-0.2126871,1.406791,0.6338914,274.4632,49.79175,232.4747,True
4,3.411103,-0.1401326,-0.3283597,-0.1051589,-1.546639,1.064655,-1.901212,0.1283517,1.362191,0.5551836,-0.8017084,0.2581036,12.38727,33.76902,0.05232561,-0.03003371,0.2180224,-0.08617616,-2.92727,-1.10215,0.2074613,1.493133,0.431597,-0.1708441,-0.09042384,0.003191516,-1.183152,0.5762295,-0.008077634,0.3785211,1.504782,0.3240855,-0.212228,1.406574,0.6336679,274.1922,47.82089,234.5438,True
