loc,t,aDotS,bDotS,gDotS,aS,bS,gS,xS,yS,zS,qE,qDotE,emgA,emgB,aDotSH,bDotSH,gDotSH,aSH,bSH,gSH,xSH,ySH,zSH,aDotUB,bDotUB,gDotUB,aUB,bUB,gUB,xUB,yUB,zUB,xHand,yHand,zHand,aHand,bHand,gHand,enable
6,0,0.01644597,-0.1483732,0.09393898,-1.567201,-4.516086,-2.579792,0.3158953,1.241726,0.5263269,-0.8624812,-0.01535994,9.602121,14.35612,-0.1196208,0.1179453,0.07687867,-0.4497983,-3.612234,-0.4711649,0.3584868,1.44319,0.488385,-0.130669,0.06938715,-0.01616757,-1.073234,0.4015935,-0.1097095,0.5155574,1.495647,0.3382351,0.03733521,1.111333,0.4170634,297.7612,252.6142,8.234298,True
6,0.01111111,0.004677338,-0.1249575,0.09601977,-1.567841,-4.514937,-2.579445,0.3156034,1.241828,0.5255368,-0.8627177,-0.02143822,9.522545,14.22755,-0.1088186,0.1083523,0.09169836,-0.4487048,-3.6089,-0.4733343,0.3583819,1.44353,0.4878812,-0.1274731,0.06086525,-0.01620589,-1.073377,0.4020154,-0.1085552,0.5155721,1.495655,0.3378372,0.03714541,1.111485,0.4163285,298.1159,251.5985,9.421192,True
6,0.02222222,-0.008137666,-0.1069036,0.09388032,-1.568435,-4.513382,-2.579153,0.3153632,1.241829,0.5245442,-0.8621702,0.0502513,9.177716,14.12042,-0.0883617,0.07641648,0.1074589,-0.4470276,-3.60748,-0.4742629,0.3583095,1.443852,0.4874563,-0.131721,0.03742613,-0.0161901,-1.073512,0.4015874,-0.1067347,0.5156323,1.495667,0.3374493,0.03682212,1.111652,0.4153013,298.1367,251.2623,9.742062,True
6,0.03333334,-0.02309726,-0.09419579,0.07788286,-1.568367,-4.512722,-2.578361,0.3151348,1.241961,0.5238073,-0.8621153,0.004620923,8.169763,14.05614,-0.07327337,0.04235156,0.1168596,-0.4452645,-3.607201,-0.4742283,0.3582072,1.444117,0.48701,-0.1254835,0.01401105,-0.0322617,-1.074326,0.4007388,-0.1051312,0.5156735,1.495606,0.336998,0.03673364,1.111691,0.4144541,298.4343,250.124,11.08495,True
6,0.04444445,-0.02095119,-0.1091663,0.05877082,-1.567651,-4.510802,-2.578258,0.3148924,1.242193,0.5233288,-0.8622746,-0.01449237,7.108754,14.09899,-0.05068821,0.01149242,0.132596,-0.4431165,-3.606921,-0.474607,0.3580544,1.444362,0.4866974,-0.1256502,0.004439682,-0.04824903,-1.075348,0.4003587,-0.1034742,0.5156665,1.495564,0.3366094,0.0366154,1.111813,0.4137286,298.7173,249.4677,12.02217,True
6,0.05555556,-0.01133811,-0.1283651,0.04176681,-1.566453,-4.509142,-2.578449,0.3146722,1.242361,0.5226529,-0.8619022,0.03428444,6.074269,14.24898,-0.03477311,0.009423204,0.1239391,-0.4421859,-3.605703,-0.475884,0.3580067,1.444599,0.4863126,-0.1320698,-0.0051478,-0.0513892,-1.075973,0.3997839,-0.1015192,0.5157373,1.49546,0.3361895,0.03651177,1.111916,0.4130906,298.9565,249.0018,12.77073,True
6,0.06666667,-0.007064331,-0.1358335,0.03540963,-1.565904,-4.507309,-2.578525,0.3143927,1.242887,0.5225799,-0.8626447,-0.06812696,5.013261,14.39897,-0.02965269,0.009483926,0.0983254,-0.4421204,-3.605178,-0.4761591,0.3579324,1.444821,0.4857981,-0.1267662,-0.009406917,-0.05357891,-1.076551,0.3994413,-0.1000643,0.5157686,1.495377,0.3357275,0.03639787,1.112026,0.4125875,299.192,248.5085,13.43758,True
6,0.07777778,0.0004131339,-0.1443362,0.03648983,-1.565237,-4.505414,-2.578814,0.314171,1.243039,0.5219352,-0.8630799,-0.03912088,4.031829,14.61324,-0.02977417,0.01163988,0.08447819,-0.4418008,-3.604338,-0.4765346,0.3579241,1.445066,0.4853287,-0.1055224,-0.01471809,-0.0602028,-1.077481,0.3989204,-0.09940621,0.5158716,1.495265,0.3352597,0.03630767,1.112134,0.4122008,299.3792,248.1246,13.95171,True
6,0.08888889,0.0004118957,-0.1443316,0.0375632,-1.564934,-4.503765,-2.578755,0.3140161,1.243529,0.5219948,-0.8630106,0.006620472,3.421749,14.84894,-0.03078415,0.01375109,0.09195533,-0.4406402,-3.602388,-0.4779138,0.3578936,1.445366,0.4848621,-0.09599881,-0.01150964,-0.06561755,-1.078307,0.3988425,-0.09854575,0.5158888,1.49523,0.3348591,0.03624122,1.112228,0.4118785,299.5336,247.7716,14.40236,True
6,0.1,-0.01028921,-0.1294633,0.03114937,-1.564546,-4.502783,-2.578166,0.3138489,1.243875,0.5216901,-0.8631982,-0.01730261,3.103447,15.08464,-0.02633319,0.01371876,0.1153532,-0.4388559,-3.599862,-0.4800185,0.3579516,1.445609,0.4843976,-0.08425428,-0.007245455,-0.06361173,-1.079038,0.3988483,-0.09808476,0.5159782,1.495138,0.3343706,0.03594693,1.112376,0.4112878,299.4177,247.9025,14.13603,True
6,0.1111111,-0.01885052,-0.1135115,0.02791982,-1.564334,-4.502088,-2.577676,0.3137075,1.244051,0.5210919,-0.8628674,0.03043105,3.183024,15.32033,-0.02300677,0.02114674,0.1334519,-0.4372143,-3.596681,-0.4828085,0.3580157,1.44584,0.4839389,-0.0745775,-0.01150872,-0.05519146,-1.07929,0.3985326,-0.09745518,0.5160935,1.495083,0.3339674,0.03589635,1.112368,0.410842,299.6033,247.2566,14.84729,True
6,0.1222222,-0.03060603,-0.09651961,0.02045609,-1.564297,-4.501346,-2.577039,0.3135223,1.244144,0.5206206,-0.862323,0.04951481,3.740051,15.51318,-0.02185254,0.02006466,0.1440919,-0.4356021,-3.59419,-0.4848399,0.3580284,1.446142,0.4835627,-0.07663327,-0.01897188,-0.04771554,-1.079457,0.3980449,-0.09618805,0.5162053,1.495159,0.3335578,0.03583849,1.112484,0.4105226,299.7734,246.7907,15.37043,True
6,0.1333333,-0.03489224,-0.09016575,0.009790488,-1.563688,-4.500859,-2.5765,0.3134322,1.244339,0.5200987,-0.862429,-0.01006485,4.64191,15.66317,-0.02185845,0.01900009,0.1430348,-0.4341885,-3.592021,-0.4865569,0.3580845,1.446462,0.4831243,-0.09040822,-0.0317701,-0.04119468,-1.079598,0.3971601,-0.09434408,0.5162911,1.495083,0.3331521,0.03570463,1.112614,0.4102706,299.9449,246.7312,15.5504,True
6,0.1444445,-0.03274678,-0.09869464,0.005549811,-1.562876,-4.499757,-2.576224,0.3133774,1.244552,0.5195837,-0.8621297,0.02720968,5.729441,15.81315,-0.01778204,0.02543132,0.1227758,-0.4337671,-3.590475,-0.4878829,0.3582097,1.446702,0.4827335,-0.1074905,-0.04561898,-0.04529396,-1.080185,0.3960939,-0.09203112,0.51639,1.49502,0.3327074,0.03556225,1.112686,0.4099937,300.1103,246.7562,15.68777,True
6,0.1555556,-0.02847662,-0.1082146,0.006747074,-1.563941,-4.497748,-2.575464,0.3136869,1.248694,0.5291138,-0.8618005,0.02938359,6.790449,15.87744,-0.007245474,0.023359,0.107771,-0.4332771,-3.589308,-0.4892107,0.3583563,1.446983,0.4824126,-0.1032816,-0.05200245,-0.05067173,-1.080876,0.3951227,-0.09055973,0.516497,1.494956,0.332303,0.03545725,1.112724,0.4096758,300.2729,246.5947,15.9887,True
6,0.1666667,-0.02953307,-0.1071482,0.01209142,-1.56378,-4.496293,-2.575172,0.3136617,1.249015,0.5288379,-0.8614255,0.03345864,7.771884,15.85601,-0.0008651223,0.01911949,0.1045182,-0.4322545,-3.587962,-0.4906754,0.3585072,1.447212,0.482049,-0.09279145,-0.05730654,-0.06676412,-1.082053,0.3940896,-0.08951443,0.516701,1.494869,0.3319759,0.03540945,1.11277,0.4093421,300.4088,246.3051,16.40384,True
6,0.1777778,-0.02847623,-0.1028819,0.01314436,-1.563424,-4.495352,-2.574894,0.3136418,1.249304,0.5286183,-0.8601238,0.1180278,8.726789,15.74888,0.005594354,-0.01387746,0.1012098,-0.430794,-3.589471,-0.4895921,0.3587546,1.44744,0.4816871,-0.08758229,-0.06261933,-0.07854924,-1.083292,0.3929558,-0.08818205,0.5169085,1.494716,0.3315506,0.03562963,1.113104,0.4097677,300.4412,244.6609,17.25223,True
6,0.1888889,-0.04128679,-0.09762602,-0.002836723,-1.562435,-4.49489,-2.573983,0.3135964,1.249557,0.5284445,-0.859539,0.05161887,9.522545,15.57746,0.007813822,-0.02027644,0.1097047,-0.4292121,-3.588539,-0.4906094,0.3589215,1.447603,0.4813237,-0.08877695,-0.07005993,-0.09133057,-1.084682,0.3916539,-0.08651944,0.5171141,1.494649,0.3311632,0.03536801,1.113996,0.4119183,299.6345,246.7274,13.62098,True
6,0.2,-0.05944117,-0.08284737,-0.02946643,-1.561212,-4.49468,-2.57294,0.3136392,1.249879,0.528204,-0.8584561,0.09775723,10.05305,15.36319,0.02271466,-0.02236232,0.1074445,-0.4281276,-3.588034,-0.4918283,0.3591256,1.447727,0.4809346,-0.08236627,-0.05727713,-0.08925666,-1.085657,0.3912921,-0.08567949,0.5172483,1.494534,0.3307703,0.03464388,1.114041,0.4134691,299.0809,252.1881,7.969789,True
6,0.2111111,-0.06910902,-0.05628447,-0.04337133,-1.560501,-4.495187,-2.571765,0.3135979,1.250148,0.5279953,-0.8565557,0.1719649,10.39788,15.12749,0.02789803,-0.01805616,0.09143005,-0.4276792,-3.587548,-0.4927588,0.3592498,1.447887,0.4806564,-0.07482731,-0.04663265,-0.08079839,-1.086198,0.3911358,-0.08502755,0.5174699,1.494422,0.3303299,0.03437573,1.113487,0.4134588,298.811,254.4547,5.802696,True
6,0.2222222,-0.07659236,-0.04781032,-0.05189972,-1.5597,-4.495184,-2.570709,0.3136028,1.25038,0.5277829,-0.8548933,0.1493681,10.61008,14.89179,0.02993052,-0.01802992,0.07969107,-0.4271955,-3.587535,-0.4931253,0.359377,1.448046,0.4803939,-0.0843769,-0.06688378,-0.07859027,-1.08688,0.3893436,-0.08298543,0.5175891,1.494352,0.3299046,0.03459861,1.11314,0.4125936,298.8398,252.6438,7.680642,True
6,0.2333333,-0.08195845,-0.03506973,-0.06364676,-1.558782,-4.495848,-2.569606,0.3135116,1.250688,0.5277803,-0.8532443,0.1484764,10.68966,14.67752,0.03319165,-0.04358709,0.07855539,-0.4257393,-3.589545,-0.4917932,0.3594854,1.448176,0.4802175,-0.119512,-0.1009921,-0.07826359,-1.087547,0.386669,-0.07919309,0.517633,1.494151,0.3295116,0.03479508,1.113209,0.4116059,298.9954,250.4228,9.924747,True
6,0.2444444,-0.09155709,-0.03942125,-0.08705072,-1.557079,-4.496094,-2.568307,0.3135599,1.250895,0.5277214,-0.8517796,0.1315726,10.90185,14.50611,0.03629978,-0.04249156,0.06788188,-0.4251337,-3.589799,-0.4920968,0.3595653,1.448344,0.4799705,-0.1440626,-0.1137824,-0.08335894,-1.088672,0.384742,-0.0758431,0.5177856,1.494021,0.3291769,0.03464882,1.113444,0.4106944,298.931,249.9584,10.22471,True
6,0.2555556,-0.1011853,-0.03204787,-0.1115584,-1.555389,-4.49706,-2.566859,0.3135372,1.251283,0.527981,-0.85013,0.1486371,11.11406,14.4204,0.040358,-0.02327037,0.04977383,-0.4253968,-3.589134,-0.4932896,0.3596343,1.448452,0.4797344,-0.1237207,-0.09780422,-0.07289878,-1.089042,0.3840829,-0.07482684,0.5178449,1.493955,0.3288338,0.03440788,1.113549,0.4101046,298.8399,250.1649,9.802279,True
6,0.2666667,-0.1140165,-0.02147195,-0.1296853,-1.553752,-4.498287,-2.565048,0.3136201,1.251619,0.5280018,-0.848253,0.1691531,11.35279,14.37754,0.0391479,0.00444432,0.04131694,-0.4257185,-3.586419,-0.496185,0.359733,1.448616,0.4794729,-0.09058897,-0.07755704,-0.06150682,-1.089397,0.3840186,-0.07509875,0.5178764,1.493913,0.328558,0.03413807,1.113574,0.4097505,298.7213,250.6519,9.030138,True
6,0.2777778,-0.1247272,-0.003434058,-0.1478331,-1.552196,-4.500041,-2.563292,0.3136665,1.252025,0.5281487,-0.8463899,0.1677315,11.59151,14.44182,0.05289768,0.03325024,0.03912803,-0.4260717,-3.583025,-0.5003009,0.3598855,1.448803,0.4792974,-0.08715759,-0.08184281,-0.03917596,-1.089019,0.3828156,-0.07359672,0.5178575,1.493937,0.3283038,0.03392014,1.11356,0.4095021,298.5552,251.1282,8.226448,True
6,0.2888889,-0.1397043,0.01882404,-0.1712899,-1.550699,-4.501859,-2.561342,0.3136315,1.252369,0.5282788,-0.8443068,0.1879226,11.80371,14.52753,0.05618354,0.0215278,0.04547142,-0.4253484,-3.582618,-0.5014631,0.3600898,1.449046,0.4791512,-0.09261961,-0.08289503,-0.05190156,-1.089884,0.3816885,-0.07180601,0.5177447,1.493902,0.3280675,0.03369796,1.113561,0.4093336,298.3942,251.6111,7.377713,True
6,0.3,-0.1578897,0.04429925,-0.1905161,-1.549133,-4.504521,-2.558897,0.313675,1.252903,0.5285246,-0.8426082,0.1525278,11.90981,14.65609,0.06692209,0.006632172,0.05068112,-0.4244781,-3.582776,-0.502413,0.3603288,1.449304,0.4790487,-0.0862918,-0.08821085,-0.05836546,-1.090683,0.3803018,-0.07042223,0.5177195,1.49388,0.3277755,0.03344787,1.113579,0.4091713,298.2629,252.2141,6.446092,True
6,0.3111111,-0.1845701,0.06226925,-0.2118348,-1.547246,-4.506795,-2.556178,0.3135799,1.253555,0.5285122,-0.840932,0.1511287,11.96286,14.76323,0.1021098,-0.01562877,0.04609191,-0.4237111,-3.584336,-0.5034019,0.3606703,1.449645,0.4790134,-0.0745931,-0.1031169,-0.06062884,-1.091265,0.3783743,-0.06908772,0.5177132,1.493896,0.3274462,0.03315802,1.113604,0.4090152,298.1806,252.8041,5.521385,True
6,0.3222222,-0.2027443,0.08346982,-0.2331785,-1.545295,-4.509804,-2.55342,0.3136899,1.254271,0.5287361,-0.8391759,0.1586305,11.96286,14.84894,0.1276203,-0.03044778,0.03413437,-0.4234138,-3.586094,-0.5040179,0.360999,1.449989,0.4788835,-0.08079642,-0.1340312,-0.04462532,-1.091084,0.375537,-0.06676944,0.5176588,1.493784,0.3270531,0.03282045,1.113647,0.4088726,298.1546,253.3394,4.62953,True
6,0.3333333,-0.2369065,0.09498368,-0.2811147,-1.542104,-4.513702,-2.549473,0.3135921,1.255139,0.5291305,-0.8378118,0.1228436,11.96286,14.89179,0.1436536,-0.07406317,0.0253992,-0.4223385,-3.5911,-0.5016975,0.3613816,1.450486,0.4788985,-0.09240781,-0.1745303,-0.03602786,-1.090981,0.3718159,-0.06354595,0.5176859,1.49375,0.3267467,0.03240565,1.113746,0.4087682,298.2001,253.9605,3.646832,True
6,0.3444445,-0.2817154,0.09791115,-0.3386081,-1.537931,-4.517613,-2.544734,0.3134466,1.255975,0.5293226,-0.8369213,0.07995547,11.98939,14.89179,0.1353461,-0.08903842,0.04674505,-0.4205701,-3.592664,-0.5013462,0.3616607,1.450897,0.4788945,-0.1041792,-0.1958323,-0.04232274,-1.091556,0.3686323,-0.06055735,0.5176432,1.493659,0.3265293,0.03192068,1.113886,0.4086526,298.3192,254.6535,2.615201,True
6,0.3555556,-0.3318314,0.09445316,-0.3950114,-1.533308,-4.521903,-2.539249,0.3131926,1.257094,0.5298929,-0.8350959,0.1659017,11.98939,14.89179,0.1409772,-0.05822177,0.09469508,-0.4184231,-3.588944,-0.5064459,0.3621029,1.45144,0.4788983,-0.1078117,-0.207504,-0.08491237,-1.093738,0.365404,-0.05774878,0.517663,1.493578,0.3263113,0.03141696,1.114044,0.4086167,298.4566,255.2736,1.585645,True
6,0.3666667,-0.3712845,0.09745024,-0.4322659,-1.528883,-4.526061,-2.533877,0.3130242,1.258227,0.5302777,-0.8337201,0.1240953,11.96286,14.82751,0.1453197,-0.04545286,0.1085327,-0.4169599,-3.587167,-0.5099202,0.3624703,1.451882,0.4788296,-0.1017143,-0.2032104,-0.1126642,-1.095681,0.3629484,-0.05567764,0.5177253,1.493556,0.3260682,0.03077427,1.114232,0.4087247,298.7045,255.8285,0.4974784,True
6,0.3777778,-0.4395146,0.09930192,-0.4801431,-1.523742,-4.531109,-2.526319,0.3126924,1.259583,0.5309575,-0.8326453,0.09720104,11.88329,14.7418,0.1551436,-0.05506063,0.1340024,-0.4143522,-3.586183,-0.5129355,0.3630815,1.452409,0.4788067,-0.07751566,-0.1978382,-0.1416743,-1.098168,0.3605092,-0.05450265,0.5178128,1.493495,0.3258052,0.0299851,1.114454,0.4089416,299.0711,256.4049,359.3208,True
6,0.3888889,-0.5514684,0.1180807,-0.5344206,-1.518453,-4.537119,-2.516361,0.3123094,1.261104,0.5315895,-0.8325537,0.00756675,11.77719,14.61324,0.1629102,-0.09130928,0.1594398,-0.4110152,-3.588322,-0.512998,0.3637779,1.452992,0.478828,-0.05334389,-0.2116369,-0.1738961,-1.10083,0.3571853,-0.05318972,0.5178977,1.493356,0.3254535,0.02906074,1.114734,0.4092666,299.5444,257.0909,357.9971,True
6,0.4,-0.5813374,0.1254099,-0.5525172,-1.513931,-4.542487,-2.50851,0.3119782,1.262409,0.5322156,-0.8304242,0.194722,11.59151,14.48468,0.1643793,-0.1201398,0.1987925,-0.4068399,-3.58889,-0.5143546,0.3644667,1.453572,0.4788268,-0.04921582,-0.2329249,-0.1878128,-1.103249,0.3532822,-0.05102776,0.5179729,1.493259,0.3251331,0.02807128,1.114991,0.409531,300.079,257.9093,356.5984,True
6,0.4111111,-0.692212,0.1431459,-0.6067888,-1.508439,-4.549414,-2.496773,0.3114219,1.264061,0.5331254,-0.8280599,0.2146355,11.40584,14.4204,0.1905338,-0.1830164,0.2485338,-0.4008729,-3.592439,-0.5140172,0.365411,1.45425,0.478955,-0.04834089,-0.2659245,-0.2080957,-1.105924,0.3484973,-0.04834357,0.5179932,1.493245,0.3248246,0.02683647,1.115302,0.4093476,300.6877,259.5143,354.0406,True
6,0.4222222,-0.748702,0.145081,-0.6312332,-1.503341,-4.555326,-2.486394,0.3109627,1.265691,0.5339386,-0.8302623,-0.2027546,11.27321,14.44182,0.2110567,-0.2277273,0.2674594,-0.3960717,-3.596369,-0.51334,0.3661702,1.455002,0.4790685,-0.04411855,-0.2978696,-0.2134961,-1.108127,0.3436404,-0.04580504,0.5181299,1.493154,0.3245587,0.02519298,1.11561,0.4072623,301.3319,264.0119,347.408,True
6,0.4333333,-0.8158607,0.1480238,-0.670592,-1.497401,-4.562164,-2.474419,0.3101714,1.267673,0.5348902,-0.8271571,0.2861187,11.16711,14.50611,0.2317089,-0.2927037,0.2948677,-0.3897803,-3.603386,-0.5101267,0.367116,1.455712,0.4791684,-0.03765941,-0.3213087,-0.208263,-1.110056,0.3386502,-0.04338263,0.518241,1.493104,0.3242326,0.02367201,1.116447,0.4036152,301.7663,265.4116,343.5227,True
6,0.4444444,-0.8616331,0.1105529,-0.701335,-1.490584,-4.567616,-2.462864,0.3096273,1.269798,0.535979,-0.8285616,-0.1307929,11.19363,14.61324,0.2383757,-0.3225514,0.3181945,-0.3839597,-3.608069,-0.508562,0.3680366,1.456364,0.4791958,-0.02806538,-0.3298224,-0.208373,-1.112214,0.3342451,-0.0414774,0.5183806,1.49311,0.3239512,0.02221889,1.118447,0.4003085,302.1035,263.7198,342.998,True
6,0.4555556,-0.9223511,0.09435192,-0.7331907,-1.483659,-4.573934,-2.449902,0.3087794,1.271924,0.5370531,-0.8277605,0.07501181,11.32626,14.78466,0.2524968,-0.3417365,0.3446764,-0.3775627,-3.612412,-0.5078611,0.3690529,1.457024,0.4792686,-0.01970804,-0.3329957,-0.2244439,-1.115111,0.329843,-0.03960041,0.5185118,1.493008,0.323626,0.02049459,1.121901,0.3983172,302.0289,262.1434,342.9422,True
6,0.4666667,-0.9713898,0.102724,-0.7480781,-1.477815,-4.580773,-2.436756,0.3080367,1.273963,0.5380783,-0.828486,-0.06678432,11.51194,14.99893,0.2825327,-0.3629863,0.3625059,-0.3713235,-3.617161,-0.5075895,0.3700779,1.457681,0.4793093,-0.0113453,-0.3425581,-0.240527,-1.11822,0.3251501,-0.03769412,0.5187727,1.492936,0.323348,0.01814575,1.126821,0.3982132,301.538,261.076,343.087,True
6,0.4777778,-1.065216,0.1280334,-0.762958,-1.472669,-4.58846,-2.421093,0.3073654,1.276255,0.5391943,-0.8277605,0.06726029,11.75066,15.27748,0.277392,-0.3651716,0.3849131,-0.3649511,-3.620507,-0.5073551,0.3710239,1.458362,0.4793808,-0.005091786,-0.354257,-0.2544549,-1.121408,0.3201628,-0.03567784,0.5188935,1.492828,0.3230815,0.0152091,1.133035,0.4001727,300.5475,260.3725,343.6639,True
6,0.4888889,-1.130241,0.1427793,-0.771455,-1.467417,-4.595997,-2.405607,0.3065131,1.278498,0.5402775,-0.82807,-0.02849913,11.98939,15.59888,0.2795653,-0.3438811,0.3977243,-0.3591331,-3.621246,-0.5097762,0.3718913,1.45903,0.4794102,-0.004002988,-0.3372095,-0.2512397,-1.123785,0.3166079,-0.0341071,0.5190556,1.492742,0.3227901,0.01152278,1.140186,0.4040054,299.2243,260.1305,344.5182,True
6,0.5,-1.170754,0.1565332,-0.7735823,-1.462491,-4.603483,-2.390625,0.3057562,1.280723,0.5413043,-0.8262729,0.1650425,12.12201,15.87744,0.2996768,-0.2958875,0.3976558,-0.3544231,-3.619221,-0.515764,0.3729469,1.459784,0.4793236,-0.002909601,-0.3063183,-0.2480233,-1.126383,0.3139128,-0.03307513,0.5191423,1.49265,0.3225381,0.007360203,1.147943,0.409299,297.7209,260.3871,345.4756,True
6,0.5111111,-1.211286,0.1745255,-0.7831771,-1.457767,-4.611538,-2.375048,0.3049439,1.283111,0.5423124,-0.8269019,-0.05848354,12.20159,16.15599,0.2955754,-0.2938069,0.4179345,-0.3483351,-3.619704,-0.5184637,0.3739277,1.460542,0.4792557,0.01320383,-0.292473,-0.2343253,-1.128446,0.3108074,-0.03236832,0.5193302,1.49258,0.3223152,0.002941484,1.15607,0.4154772,296.2937,260.9238,346.5121,True
6,0.5222223,-1.24226,0.1957392,-0.7863932,-1.453227,-4.619701,-2.359486,0.3043778,1.285657,0.5431674,-0.8281429,-0.1123865,12.22811,16.34883,0.2809201,-0.3013638,0.4468023,-0.3414828,-3.620704,-0.5201087,0.374954,1.46132,0.479207,0.03236327,-0.3020436,-0.2366705,-1.131054,0.3066404,-0.0316048,0.5196297,1.49249,0.322042,-0.001487093,1.164351,0.421902,294.8813,261.4059,347.7243,True
6,0.5333334,-1.276421,0.2211934,-0.8002743,-1.449024,-4.628623,-2.343357,0.3035073,1.288103,0.5441656,-0.8282921,-0.01239008,12.17507,16.45597,0.2664314,-0.3281183,0.4894845,-0.3333639,-3.62223,-0.521072,0.3759394,1.462048,0.4790902,0.02580118,-0.3148112,-0.2536625,-1.134294,0.3022291,-0.02982767,0.5197929,1.492394,0.3217244,-0.005604039,1.172564,0.428008,293.4984,261.8048,348.9027,True
6,0.5444446,-1.29991,0.2381552,-0.8098801,-1.444867,-4.637532,-2.327203,0.3027926,1.290572,0.5451317,-0.8288103,-0.04701534,12.06897,16.47739,0.2708873,-0.3313487,0.5118142,-0.3259922,-3.622667,-0.5238851,0.3770183,1.462758,0.4789877,0.01510575,-0.3212062,-0.2578238,-1.137268,0.2979742,-0.0277259,0.5199539,1.492319,0.321456,-0.009298637,1.180553,0.4333847,292.2849,262.057,349.936,True
6,0.5555557,-1.332957,0.2498073,-0.8066816,-1.44123,-4.646211,-2.310279,0.3018775,1.293123,0.5461349,-0.8288391,-0.001927874,11.98939,16.41311,0.2636452,-0.3026747,0.5481484,-0.3184757,-3.617423,-0.5315059,0.3780647,1.463474,0.4788857,0.001224518,-0.3425147,-0.261965,-1.140188,0.2929241,-0.02511547,0.5201173,1.492175,0.3210905,-0.01252825,1.188259,0.4378104,291.2482,262.0217,350.8673,True
6,0.5666668,-1.355324,0.2561741,-0.7960306,-1.437741,-4.654432,-2.293813,0.3010748,1.29583,0.5469797,-0.8292295,-0.03542929,11.90981,16.30598,0.2681757,-0.3037811,0.5800668,-0.3105608,-3.614426,-0.5375026,0.379155,1.464221,0.4787536,0.005452394,-0.3478284,-0.2652076,-1.143016,0.2885832,-0.02353968,0.5204011,1.492193,0.3207738,-0.01555551,1.195671,0.4412963,290.358,261.6693,351.6809,True
6,0.577778,-1.362805,0.2721664,-0.7843471,-1.434979,-4.663157,-2.277236,0.3002126,1.298369,0.5479112,-0.8288769,0.03278013,11.88329,16.15599,0.281102,-0.3122911,0.5948523,-0.302745,-3.613291,-0.5421098,0.3802298,1.464903,0.4786973,0.0119544,-0.3627483,-0.2557063,-1.145438,0.2836125,-0.0218784,0.5205517,1.492047,0.3204188,-0.01840755,1.202868,0.4440224,289.5782,261.0465,352.4532,True
6,0.5888891,-1.367086,0.2924402,-0.768423,-1.432737,-4.671894,-2.260901,0.2994039,1.301007,0.548697,-0.8296141,-0.06745558,11.88329,15.96315,0.2885457,-0.3505925,0.5798051,-0.2950308,-3.617611,-0.5414694,0.3812378,1.465623,0.4786274,0.008929729,-0.3734248,-0.2396991,-1.147401,0.2785842,-0.01979501,0.520743,1.491889,0.3201351,-0.02121778,1.210001,0.4462108,288.9213,260.3071,353.192,True
6,0.6000003,-1.375622,0.3041697,-0.7577966,-1.430467,-4.680544,-2.244409,0.2987215,1.303552,0.5494585,-0.8299912,-0.03364005,11.90981,15.74888,0.2874752,-0.3835937,0.5680258,-0.2875053,-3.622983,-0.5393609,0.3822287,1.466306,0.4785509,0.006889045,-0.3691754,-0.231152,-1.149611,0.2742647,-0.01804585,0.5208949,1.491822,0.3199015,-0.02391554,1.217232,0.4480855,288.2664,259.451,354.0038,True
6,0.6111114,-1.400184,0.3371773,-0.7429442,-1.429496,-4.689744,-2.226825,0.2979382,1.306077,0.5502117,-0.8305377,-0.04952142,11.98939,15.62031,0.2757766,-0.3996007,0.5648959,-0.2796511,-3.627166,-0.5380262,0.3831398,1.466941,0.4784541,0.0004584193,-0.3393458,-0.2331763,-1.152137,0.2712038,-0.01657259,0.5210302,1.491659,0.3196554,-0.0265422,1.224646,0.4498993,287.5335,258.5999,354.7953,True
6,0.6222225,-1.418373,0.3787332,-0.7281244,-1.429272,-4.699356,-2.209227,0.2973409,1.308444,0.5509961,-0.8306415,-0.008979952,12.09549,15.44889,0.2468877,-0.3794259,0.5577129,-0.2727588,-3.626593,-0.5402563,0.3840286,1.467528,0.4782736,-0.0007014871,-0.3254865,-0.2416662,-1.154999,0.2676767,-0.01512862,0.5211555,1.491565,0.319391,-0.02904637,1.232287,0.4518526,286.7058,257.7664,355.6528,True
6,0.6333337,-1.426936,0.4043248,-0.7111382,-1.429225,-4.70866,-2.191677,0.2965561,1.3109,0.551784,-0.8298415,0.07331285,12.20159,15.25605,0.2338022,-0.3282929,0.5387391,-0.2670724,-3.622684,-0.5461749,0.3849255,1.468085,0.4781079,0.000123471,-0.3116115,-0.2640315,-1.158668,0.2643442,-0.01384657,0.5213351,1.491435,0.3191655,-0.03142163,1.240139,0.4540769,285.7939,256.9141,356.6371,True
6,0.6444448,-1.429075,0.4118799,-0.7059037,-1.428415,1.564438,-2.174031,0.2961212,1.313931,0.5531633,-0.8300408,-0.01860068,12.30769,15.02035,0.2272457,-0.296335,0.5303396,-0.2610015,-3.618563,-0.5524911,0.3859051,1.468712,0.4778852,0.007468909,-0.3073338,-0.2747595,-1.162006,0.2606733,-0.0127403,0.5215819,1.491361,0.3189485,-0.03378704,1.248225,0.4566504,284.8571,256.282,357.5149,True
6,0.655556,-1.418446,0.4257723,-0.6984924,-1.428482,1.555162,-2.157257,0.2954457,1.316373,0.5539076,-0.8303182,-0.02500625,12.41379,14.72038,0.2208299,-0.2878309,0.5304079,-0.2544959,-3.61597,-0.5572435,0.3867692,1.469344,0.47774,0.01063016,-0.3051977,-0.277986,-1.165169,0.2569961,-0.01150805,0.5217285,1.491228,0.3187225,-0.03608482,1.25654,0.4596067,283.8592,255.7685,358.4003,True
6,0.6666671,-1.402466,0.4375793,-0.6793665,-1.429067,1.546423,-2.141019,0.2946554,1.318715,0.5547607,-0.8305745,-0.02309294,12.51989,14.39897,0.2081263,-0.3113045,0.5336667,-0.2470087,-3.617829,-0.5572801,0.387777,1.469992,0.4775889,0.01061431,-0.3020064,-0.2790467,-1.168247,0.2533143,-0.0101011,0.5219091,1.49105,0.3184788,-0.03830036,1.265072,0.4629203,282.8846,255.1051,359.4837,True
6,0.6777782,-1.375739,0.4317116,-0.647269,-1.429672,1.538234,-2.125201,0.2940562,1.321115,0.5555172,-0.8315129,-0.08553404,12.65252,14.03471,0.2081796,-0.320898,0.5368445,-0.2397346,-3.618238,-0.559217,0.3886807,1.470643,0.4774611,2.363324E-05,-0.2924311,-0.27253,-1.170998,0.2500718,-0.008459531,0.5221595,1.490983,0.3182578,-0.04029257,1.273831,0.4666327,281.9199,254.0805,0.9684932,True
6,0.6888894,-1.348045,0.4282872,-0.6176286,-1.430537,1.530772,-2.110017,0.2936203,1.323452,0.5561373,-0.8321478,-0.05722135,12.81167,13.67045,0.22771,-0.3070815,0.5846548,-0.2311943,-3.610173,-0.5703498,0.3896882,1.471289,0.4772937,-0.006226897,-0.2860586,-0.2586081,-1.173425,0.2467853,-0.006900783,0.522263,1.490876,0.3180459,-0.04217022,1.282677,0.4705706,280.7447,253.1414,2.602236,True
6,0.7000005,-1.321344,0.4103093,-0.590984,-1.430979,1.523548,-2.095061,0.2931967,1.325897,0.5567071,-0.8325361,-0.03508636,12.9443,13.28477,0.2424905,-0.3059544,0.5696206,-0.2244597,-3.608724,-0.5748441,0.3906129,1.471873,0.4770584,-0.00396809,-0.2828763,-0.2469189,-1.17591,0.2434261,-0.005729791,0.5225034,1.490793,0.317831,-0.04390683,1.291399,0.474498,279.4799,252.2693,4.272213,True
6,0.7111117,-1.301061,0.4008202,-0.569675,-1.431803,1.516603,-2.080453,0.2927291,1.328275,0.5573471,-0.8330293,-0.0449056,13.12997,13.04907,0.2327529,-0.3112706,0.5494488,-0.2179457,-3.609195,-0.5766881,0.3914883,1.472509,0.476908,0.002480596,-0.2860748,-0.241663,-1.178378,0.2398966,-0.004621916,0.5225862,1.490713,0.3176465,-0.0453452,1.299808,0.4781681,278.2947,251.2107,6.122677,True
6,0.7222228,-1.278658,0.3977478,-0.5420003,-1.433016,1.509868,-2.066065,0.2924387,1.330473,0.5577557,-0.8331556,-0.01126986,13.2626,12.9205,0.2210436,-0.3049179,0.5538201,-0.2110193,-3.605649,-0.5821068,0.3923283,1.47299,0.4766676,0.003599644,-0.2839494,-0.2374044,-1.180786,0.236567,-0.003537477,0.5226665,1.490584,0.3174002,-0.04643932,1.307783,0.4813733,277.2587,249.7685,8.251119,True
6,0.7333339,-1.262696,0.4127361,-0.5260782,-1.434978,1.502816,-2.051809,0.2921252,1.332711,0.5583017,-0.8333218,-0.0152707,13.28912,12.8348,0.2167256,-0.2878834,0.5528217,-0.2045345,-3.600007,-0.5898747,0.3932976,1.473552,0.4764695,0.02055359,-0.2817995,-0.2461012,-1.183786,0.233276,-0.003086337,0.522746,1.490483,0.3171976,-0.04733242,1.315313,0.4840191,276.4124,247.6063,10.89178,True
6,0.7444451,-1.248872,0.4470235,-0.5028684,-1.438197,1.494406,-2.037146,0.2923747,1.336119,0.5607512,-0.8333649,-0.003939334,13.23607,12.77051,0.220006,-0.2772456,0.5677328,-0.1974031,-3.592063,-0.6001394,0.394264,1.474096,0.4762995,0.03120443,-0.2913838,-0.247275,-1.186387,0.2294682,-0.002378735,0.5227319,1.4904,0.3169937,-0.04812644,1.322437,0.4861353,275.6903,244.881,13.89285,True
6,0.7555562,-1.236116,0.4652724,-0.4772862,-1.441468,1.487725,-2.023028,0.2922764,1.338361,0.5612657,-0.8333644,-2.181513E-05,13.07692,12.72766,0.238457,-0.2996282,0.6016313,-0.1887084,-3.586323,-0.6089946,0.3952663,1.474648,0.4760971,0.03222236,-0.3062914,-0.2526293,-1.189333,0.2252916,-0.001203216,0.5228128,1.490294,0.3168042,-0.04881684,1.329213,0.4878049,275.0591,241.7571,17.14857,True
6,0.7666674,-1.224349,0.4578467,-0.4645425,-1.443599,1.48139,-2.009028,0.2919089,1.340187,0.5615113,-0.8329649,0.03640931,12.81167,12.72766,0.2408883,-0.3241757,0.6324708,-0.1793863,-3.580751,-0.6171088,0.3962577,1.475127,0.4759436,0.02050251,-0.3062972,-0.2535811,-1.192322,0.2215545,0.0002886867,0.5229058,1.490101,0.316623,-0.04941517,1.335812,0.4893056,274.6903,238.5969,20.04007,True
6,0.7777785,-1.204013,0.4260009,-0.4367852,-1.445343,1.476212,-1.995475,0.291819,1.342353,0.5620158,-0.8330746,-0.01043226,12.54642,12.77051,0.2399755,-0.341247,0.6452307,-0.1704412,-3.575693,-0.6247627,0.3973023,1.475597,0.4758189,0.02907866,-0.3041679,-0.2483411,-1.194942,0.2179555,0.0009813749,0.5229822,1.489951,0.3163891,-0.04984018,1.342594,0.4912172,274.4706,236.0099,22.17944,True
6,0.7888896,-1.189041,0.4069773,-0.4176545,-1.447345,1.470002,-1.981481,0.2921864,1.345745,0.5648983,-0.8330197,0.00505697,12.28117,12.77051,0.2362911,-0.3326306,0.5888169,-0.1647953,-3.5761,-0.6268213,0.3984643,1.476144,0.4756856,0.04071319,-0.3126776,-0.2570017,-1.198232,0.2138493,0.001547829,0.5231417,1.489767,0.3162262,-0.05020937,1.349599,0.4935149,273.8438,231.5991,26.8239,True
6,0.8000008,-1.15907,0.3740312,-0.3772872,-1.446989,1.465915,-1.968933,0.2922213,1.345026,0.5589678,-0.8331657,-0.01350033,12.06897,12.66338,0.2454598,-0.3346355,0.5365316,-0.159298,-3.580006,-0.6260423,0.3995472,1.476635,0.4755383,0.0417586,-0.3307918,-0.260235,-1.201393,0.2090283,0.0027601,0.5232737,1.489677,0.3160639,-0.05052493,1.356671,0.4959391,273.0352,222.4117,36.62688,True
6,0.8111119,-1.116355,0.3379787,-0.3474032,-1.448298,1.462236,-1.957364,0.2923184,1.346962,0.5592399,-0.8327342,0.0394417,11.96286,12.5991,0.279501,-0.3345291,0.5309301,-0.1523845,-3.577749,-0.6325287,0.4006255,1.477108,0.4754443,0.04283431,-0.329727,-0.2591796,-1.204294,0.2050839,0.003659716,0.5233922,1.489588,0.3158388,-0.05057787,1.363725,0.4983566,272.5534,209.8193,49.49963,True
6,0.8222231,-1.083254,0.3178677,-0.3260862,-1.449865,1.458336,-1.945978,0.2921299,1.348369,0.5594275,-0.8337271,-0.09123337,11.93634,12.53482,0.31593,-0.3238352,0.5615485,-0.1444403,-3.565393,-0.6493871,0.4017402,1.477531,0.4752204,0.05567864,-0.315879,-0.2529065,-1.206921,0.2018334,0.003747334,0.5235628,1.489549,0.3154953,-0.05026745,1.370789,0.5008078,272.0747,189.6508,70.41384,True
6,0.8333342,-1.008626,0.3031959,-0.2941488,-1.451731,1.455206,-1.936834,0.2922778,1.350073,0.5595779,-0.8345596,-0.075495,11.93634,12.51339,0.3256834,-0.3366211,0.5774253,-0.1363112,-3.558682,-0.6600434,0.4028148,1.477931,0.474956,0.07490197,-0.3243951,-0.2488547,-1.209602,0.1976687,0.003729757,0.5237088,1.489469,0.3151703,-0.04946433,1.377186,0.5019889,272.0441,147.742,114.0648,True
6,0.8444453,-0.9734469,0.2926216,-0.2930852,-1.453314,1.451124,-1.92663,0.2923519,1.351833,0.5598073,-0.834559,0.0005010463,11.96286,12.49196,0.3077686,-0.34842,0.5967328,-0.1279079,-3.550138,-0.6712468,0.4039089,1.478455,0.4746735,0.07598436,-0.343574,-0.2478279,-1.212439,0.1927652,0.004648548,0.5238788,1.489346,0.3148286,-0.0487253,1.382971,0.5019743,272.6983,130.0907,131.9911,True
6,0.8555565,-0.9393206,0.274578,-0.2962622,-1.454444,1.447079,-1.916863,0.2924629,1.353487,0.5600517,-0.8363172,-0.1611184,11.98939,12.42768,0.2823362,-0.3559752,0.6107751,-0.1194577,-3.540129,-0.6834356,0.404817,1.478766,0.4744155,0.05380586,-0.3691732,-0.2305806,-1.214447,0.1873555,0.006772419,0.5240128,1.489202,0.3145125,-0.04829617,1.388223,0.5012556,273.2878,124.8024,136.6695,True
6,0.8666676,-0.9264976,0.2575616,-0.3027157,-1.454936,1.442104,-1.905808,0.2930408,1.355203,0.5603435,-0.8351237,0.1102343,11.93634,12.42768,0.2808935,-0.2707259,0.5949621,-0.1147748,-3.507368,-0.7190104,0.4057435,1.479024,0.4741104,0.03364921,-0.360674,-0.221848,-1.216773,0.1833989,0.008533834,0.524206,1.489062,0.3142419,-0.04800851,1.392991,0.5003579,273.7555,123.2081,137.4787,True
6,0.8777788,-0.9168622,0.237355,-0.2973457,-1.45568,1.438614,-1.895764,0.2933213,1.356787,0.5604999,-0.8349708,0.01252989,11.90981,12.49196,0.2874587,-0.1502067,0.5280119,-0.1136951,-3.472073,-0.7574038,0.4067759,1.479427,0.4739192,0.03250515,-0.3393664,-0.2282091,-1.219639,0.1802341,0.009253952,0.5243345,1.48898,0.3140202,-0.04790731,1.397427,0.4997327,274.1219,123.2206,136.8477,True
6,0.8888899,-0.8848295,0.2151277,-0.2642809,-1.456688,1.436583,-1.88696,0.2939154,1.35819,0.5605948,-0.8334607,0.1377812,11.88329,12.57767,0.2774362,-0.1032922,0.4908933,-0.1111348,-3.443252,-0.788722,0.407784,1.479832,0.4737012,0.04099837,-0.3276409,-0.2304149,-1.222249,0.1768904,0.009636648,0.5244654,1.488876,0.3137774,-0.04777323,1.40163,0.4996572,274.4458,123.5002,136.2152,True
6,0.900001,-0.8389298,0.1897615,-0.2269558,-1.457667,1.435091,-1.879316,0.2946146,1.359666,0.5606477,-0.8338821,-0.03985785,11.90981,12.70623,0.2709241,-0.08412501,0.483528,-0.10705,-3.412584,-0.8218569,0.4090953,1.480341,0.4733779,0.0684312,-0.3222748,-0.2552054,-1.226042,0.1732665,0.009181248,0.5246255,1.488743,0.3135197,-0.04741956,1.405771,0.5002758,274.6842,123.7743,135.8701,True
6,0.9111122,-0.782413,0.1675397,-0.2162884,-1.45809,1.432863,-1.87239,0.2953206,1.361143,0.5606277,-0.83477,-0.08089672,12.04244,12.85623,0.3087327,-0.1629201,0.5203618,-0.09917878,-3.391485,-0.8474905,0.4105048,1.480734,0.4730248,0.09818085,-0.3233147,-0.2629738,-1.229231,0.1695077,0.008319449,0.5248238,1.488658,0.3132126,-0.04682095,1.409992,0.5014804,274.9266,121.9996,137.9092,True
6,0.9222233,-0.7557429,0.1494952,-0.2185198,-1.457686,1.429164,-1.864108,0.2965945,1.36323,0.5605421,-0.8356179,-0.07709385,12.17507,12.98479,0.3608485,-0.2896979,0.5985364,-0.08770855,-3.369865,-0.8746819,0.4119653,1.480989,0.4726634,0.1068276,-0.3371754,-0.2513617,-1.231582,0.165049,0.008470982,0.5250834,1.488551,0.3128664,-0.04579204,1.414228,0.5029629,275.2267,118.3384,142.077,True
6,0.9333345,-0.7343816,0.1186051,-0.2355023,-1.456963,1.42605,-1.856473,0.2972941,1.364611,0.5606372,-0.8360664,-0.04074938,12.28117,13.11335,0.3827937,-0.376017,0.6472036,-0.07674218,-3.340157,-0.9093022,0.4132646,1.48117,0.4722862,0.1038341,-0.3616996,-0.2332474,-1.23361,0.1599885,0.009086706,0.5253334,1.488426,0.3124418,-0.04445343,1.418429,0.5044134,275.6382,114.5597,146.4188,True
6,0.9444456,-0.7343681,0.1057686,-0.2567763,-1.456631,1.422385,-1.847973,0.2978844,1.366067,0.5607953,-0.8344781,0.1451651,12.38727,13.22048,0.3612439,-0.3653742,0.620752,-0.07084008,-3.306094,-0.9463548,0.4143348,1.481424,0.4719932,0.09116295,-0.3819695,-0.2235555,-1.235913,0.1547115,0.01031522,0.5255914,1.488286,0.3120861,-0.04298148,1.422544,0.5056598,276.085,112.2899,149.1258,True
6,0.9555568,-0.7267748,0.03971234,-0.2662054,-1.453892,1.419754,-1.83985,0.2984321,1.367485,0.5610836,-0.8345159,-0.004985604,12.41379,13.26334,0.3340553,-0.3025101,0.5742148,-0.06713296,-3.25895,-0.9960989,0.4154053,1.481685,0.4718068,0.05725595,-0.4075742,-0.2072511,-1.237681,0.149027,0.0127608,0.5258011,1.488015,0.3117256,-0.04148242,1.426667,0.5066966,276.4839,111.9796,149.6883,True
6,0.9666679,-0.7149749,0.008845791,-0.2618359,-1.452618,1.417801,-1.832219,0.2985044,1.368347,0.5615668,-0.8334602,0.09646711,12.36074,13.32762,0.3335497,-0.2672704,0.5263518,-0.06351905,-3.217221,-1.0413,0.4164083,1.481835,0.4715917,0.03377295,-0.4065191,-0.212328,-1.24026,0.1443843,0.01457015,0.5260118,1.487794,0.3114731,-0.0401962,1.430803,0.5075812,277.0463,111.5739,150.2103,True
6,0.977779,-0.6808335,-0.01236526,-0.2532841,-1.451128,1.41563,-1.825667,0.2991393,1.369687,0.561795,-0.8333899,0.005455557,12.25464,13.37047,0.3360593,-0.2596518,0.4443148,-0.0603451,-3.210638,-1.051664,0.4173865,1.481974,0.4714382,0.03583366,-0.3809446,-0.2176473,-1.242902,0.1409257,0.01521863,0.5262893,1.487593,0.3111625,-0.03919018,1.434925,0.5083752,277.6237,111.1622,150.6924,True
6,0.9888902,-0.6413927,-0.02614707,-0.2607334,-1.449595,1.412807,-1.819586,0.2998236,1.370963,0.5620081,-0.8336269,-0.02178073,12.09549,13.3919,0.3225012,-0.242478,0.3549663,-0.05805212,-3.217021,-1.048435,0.4184185,1.482104,0.4712038,0.06013119,-0.338303,-0.2348983,-1.24617,0.1386695,0.01431609,0.5266533,1.487495,0.3108912,-0.03835153,1.438888,0.5090532,278.2754,111.2056,150.7309,True
6,1.000001,-0.6094348,-0.03037614,-0.2756586,-1.44829,1.40946,-1.813505,0.300558,1.372195,0.5622022,-0.8345399,-0.08343255,11.93634,13.41333,0.3096423,-0.2126851,0.3551185,-0.05477164,-3.164107,-1.104298,0.4194916,1.482281,0.4708622,0.08545315,-0.3180323,-0.2575149,-1.249873,0.135489,0.01349743,0.5270311,1.487363,0.310565,-0.03763466,1.442557,0.5096123,278.8672,110.7581,151.2333,True
6,1.011112,-0.587063,-0.03354789,-0.285254,-1.447042,1.406143,-1.807348,0.3012509,1.373436,0.5624015,-0.8348946,-0.03191824,11.80371,13.43475,0.3025635,-0.1872423,0.4106207,-0.0511002,-3.062317,-1.209038,0.4206163,1.482408,0.4705715,0.09504087,-0.319092,-0.2576159,-1.252775,0.1317887,0.01326307,0.5273726,1.487145,0.3102596,-0.03677212,1.44583,0.5100363,279.2657,110.7452,151.3012,True
6,1.022224,-0.5678813,-0.03885133,-0.2927108,-1.445686,1.402813,-1.801228,0.3019564,1.374631,0.5626194,-0.8346517,0.02214847,11.67109,13.47761,0.2900402,-0.2097188,0.4373169,-0.04614459,-2.972608,-1.301389,0.4220601,1.482584,0.4701443,0.07616109,-0.3319257,-0.2297339,-1.254431,0.1273119,0.01454459,0.5277131,1.486893,0.3098989,-0.03578074,1.448734,0.5104077,279.5775,111.3001,150.7543,True
6,1.033335,-0.5561392,-0.05054943,-0.2948202,-1.444033,1.399755,-1.795054,0.3026616,1.375763,0.5628495,-0.8342219,0.03884804,11.59151,13.52046,0.2773197,-0.2353195,0.4363068,-0.04170191,-2.883806,-1.392747,0.4232319,1.482709,0.4698837,0.07107821,-0.3308899,-0.2062421,-1.255978,0.1234635,0.01512169,0.5280907,1.486675,0.3095291,-0.03476601,1.451387,0.5108532,279.8327,112.0153,150.0142,True
6,1.044446,-0.5518778,-0.05372646,-0.2895013,-1.442636,1.396895,-1.788414,0.3041322,1.377027,0.5631924,-0.833938,0.02541137,11.56498,13.58474,0.2739011,-0.2757428,0.3968399,-0.03689224,-2.827553,-1.451796,0.4244535,1.482858,0.4695969,0.07534024,-0.3330271,-0.2062855,-1.258342,0.1194456,0.01535366,0.5284552,1.486507,0.3091316,-0.03382482,1.45393,0.5114609,280.0476,112.6566,149.3849,True
6,1.055557,-0.5252479,-0.05153022,-0.2863286,-1.441469,1.393952,-1.783156,0.3049986,1.377911,0.5634344,-0.8335875,0.03172082,11.56498,13.6276,0.2661628,-0.3140242,0.3488906,-0.03186738,-2.776504,-1.505503,0.4256103,1.482944,0.4693789,0.07107928,-0.3330295,-0.2062411,-1.260712,0.1156113,0.01588096,0.5289182,1.48634,0.3087575,-0.03294341,1.456443,0.5122533,280.2596,113.1873,148.9481,True
6,1.066668,-0.5050403,-0.05148873,-0.2873733,-1.440536,1.391126,-1.777428,0.3059905,1.378847,0.5640283,-0.8328797,0.06432936,11.56498,13.67045,0.294979,-0.2937189,0.3625419,-0.02960157,-2.626551,-1.659628,0.4267539,1.483033,0.4691317,0.07641403,-0.3309022,-0.205222,-1.262962,0.1118047,0.01603756,0.5293517,1.486155,0.3084188,-0.03193698,1.458931,0.5131846,280.4276,113.6739,148.6138,True
6,1.077779,-0.4794555,-0.05888472,-0.2852423,-1.439001,1.388274,-1.772578,0.3069409,1.379631,0.564332,-0.8340291,-0.1057308,11.56498,13.71331,0.3352193,-0.2477722,0.3484529,-0.02905882,-2.50299,-1.788324,0.427853,1.483064,0.4689448,0.0783882,-0.3287537,-0.2201551,-1.265979,0.1080813,0.01621812,0.5297574,1.485919,0.3080974,-0.03056494,1.46144,0.5141965,280.5713,114.1121,148.3643,True
6,1.08889,-0.4464123,-0.06734102,-0.2873757,-1.437291,1.385249,-1.768268,0.3079084,1.380383,0.5646198,-0.833489,0.0501662,11.56498,13.75616,0.3262506,-0.2540916,0.2931126,-0.02640418,-2.430129,-1.864329,0.4291064,1.483125,0.4686248,0.08463268,-0.3053021,-0.2329857,-1.269213,0.1053713,0.0158277,0.5302506,1.485668,0.3077922,-0.02908842,1.464037,0.5152677,280.9178,114.0802,148.5842,True
6,1.100002,-0.4048586,-0.07368906,-0.3022936,-1.43545,1.381776,-1.764598,0.3090365,1.38096,0.5648761,-0.8340754,-0.05427215,11.56498,13.77759,0.3077346,-0.2359495,0.2506817,-0.02491014,-2.351051,-1.945993,0.4303326,1.483093,0.4683359,0.09329014,-0.2776111,-0.2191998,-1.271207,0.1031593,0.01507882,0.5307047,1.485346,0.3074429,-0.02758948,1.466685,0.5164011,281.3333,113.8038,149.0222,True
6,1.111113,-0.3654689,-0.06296054,-0.3066091,-1.434384,1.37828,-1.761318,0.3101495,1.381517,0.5651453,-0.8344653,-0.03533654,11.59151,13.77759,0.315311,-0.2231811,0.2698205,-0.02465768,-2.18327,-2.117469,0.431442,1.483013,0.4680722,0.08800106,-0.2648354,-0.214869,-1.273495,0.1005666,0.01505192,0.5311694,1.485096,0.30707,-0.02609686,1.46926,0.5175304,281.8129,113.5323,149.5211,True
6,1.122224,-0.3346093,-0.04693013,-0.3109308,-1.433689,1.374767,-1.758104,0.3112116,1.382121,0.565346,-0.834901,-0.03978324,11.56498,13.75616,0.3450338,-0.2071048,0.262153,-0.02478764,-2.048947,-2.256569,0.432503,1.482879,0.4677906,0.08795074,-0.2552417,-0.2191176,-1.276109,0.09795892,0.01483461,0.5315855,1.484869,0.306663,-0.02461169,1.471605,0.518609,282.2927,113.429,149.8543,True
6,1.133335,-0.29215,0.01703572,-0.3292289,-1.435107,1.370056,-1.755637,0.3123396,1.382338,0.5655534,-0.8349937,-0.00837893,11.56498,13.73473,0.324527,-0.2070991,0.2292934,-0.02409522,-1.941877,-2.36662,0.4334992,1.482816,0.4675086,0.087984,-0.2552454,-0.2159219,-1.278521,0.09500121,0.01472169,0.532001,1.48463,0.3062353,-0.02310924,1.473575,0.5196407,282.7186,113.4907,149.9692,True
6,1.144446,-0.2826116,0.03620833,-0.3377951,-1.435444,1.365931,-1.752225,0.3134379,1.382835,0.5657597,-0.8347119,0.0255155,11.56498,13.69188,0.3085192,-0.2135201,0.2240802,-0.02419162,-1.794128,-2.517167,0.4345423,1.482894,0.4673753,0.09149608,-0.2573996,-0.1861307,-1.27965,0.0919724,0.0143824,0.5323263,1.48433,0.3058512,-0.02170881,1.475175,0.5206747,283.008,113.5673,150.0233,True
6,1.155557,-0.2636095,0.1118597,-0.3486487,-1.438542,1.36095,-1.749287,0.3144436,1.383007,0.5659857,-0.8352238,-0.04728308,11.64456,13.64902,0.2997712,-0.1847471,0.206094,-0.0249911,-1.7174,-2.596942,0.4354712,1.482813,0.4671576,0.08441024,-0.2670313,-0.1509112,-1.280132,0.08846102,0.01469159,0.5327181,1.484043,0.3054676,-0.02048913,1.476469,0.5217609,283.1628,113.6885,150.0133,True
6,1.166668,-0.2562433,0.1491296,-0.3615296,-1.440364,1.356168,-1.745826,0.3154503,1.383313,0.5662453,-0.8339183,0.1196085,11.75066,13.60617,0.2974436,-0.1623662,0.1912443,-0.0259328,-1.646936,-2.67054,0.4364905,1.482954,0.4669635,0.05983087,-0.2542426,-0.1581023,-1.282243,0.08608628,0.01546604,0.5332034,1.483996,0.3052795,-0.01940027,1.477473,0.5230217,283.2422,113.7011,150.0911,True
6,1.17778,-0.2541452,0.162975,-0.3647612,-1.441904,1.351613,-1.74247,0.3164315,1.383684,0.5665221,-0.8340557,-0.01391201,11.85676,13.58474,0.2867387,-0.163451,0.1849336,-0.0268207,-1.549828,-2.770476,0.4374411,1.482961,0.4667218,0.05755852,-0.2350528,-0.1708416,-1.284614,0.08400489,0.01540292,0.5336381,1.483645,0.3048728,-0.01848435,1.478347,0.5244958,283.1882,113.8541,150.0844,True
6,1.188891,-0.2424351,0.1619273,-0.3637068,-1.442712,1.347379,-1.739443,0.3176047,1.384207,0.5665696,-0.833302,0.06900881,11.96286,13.56331,0.2750815,-0.1698851,0.1903423,-0.02832325,-1.451298,-2.871647,0.4383692,1.482979,0.466547,0.06174584,-0.2222594,-0.1772626,-1.286842,0.08191657,0.01515845,0.5340474,1.483392,0.3045642,-0.01767029,1.479212,0.5262507,283.0999,113.7178,150.4045,True
6,1.200002,-0.2381807,0.1608856,-0.3690004,-1.444228,1.342954,-1.736446,0.3186293,1.385131,0.5682611,-0.8330996,0.01775034,12.04244,13.54189,0.2795942,-0.1997385,0.2115553,-0.03064819,-1.327674,-2.998502,0.439262,1.482846,0.4663982,0.07116626,-0.2264675,-0.1944223,-1.2897,0.07948018,0.01458294,0.5345111,1.483049,0.3042722,-0.01687255,1.480158,0.5282528,283.0045,113.6439,150.7721,True
6,1.211113,-0.2488212,0.1544653,-0.3711073,-1.44506,1.338514,-1.732746,0.3194524,1.385681,0.5686498,-0.8332205,-0.0112811,12.14854,13.54189,0.2828712,-0.2167823,0.2157583,-0.03294863,-1.226331,-3.103096,0.440089,1.482707,0.4662821,0.07102486,-0.2307126,-0.2082753,-1.292557,0.07666615,0.01456243,0.5348629,1.482703,0.3040383,-0.01597129,1.481251,0.5303839,282.9228,113.5727,151.2575,True
6,1.222224,-0.279719,0.1490475,-0.3806543,-1.445855,1.333753,-1.727947,0.320133,1.386391,0.5691283,-0.8331412,0.00729313,12.14854,13.49904,0.2612073,-0.225269,0.1690482,-0.03331029,-1.14541,3.097052,0.4407496,1.482643,0.4661942,0.05495219,-0.2253575,-0.2166281,-1.295281,0.07462577,0.01508494,0.5351616,1.48241,0.3037856,-0.01490121,1.482549,0.5325339,282.8912,113.7696,151.3678,True
6,1.233335,-0.2988827,0.1426058,-0.3838202,-1.446533,1.329215,-1.72343,0.3206865,1.387094,0.5696251,-0.8323066,0.07614256,12.12201,13.47761,0.2281609,-0.2168381,0.1693304,-0.03528475,-1.086878,3.037085,0.441192,1.482588,0.4662867,0.02523616,-0.2062134,-0.204578,-1.297192,0.07296755,0.01623596,0.535468,1.482004,0.303628,-0.01382758,1.484215,0.5348853,282.9768,113.8416,151.4135,True
6,1.244446,-0.3339905,0.1148242,-0.3879735,-1.446393,1.324842,-1.717935,0.3211132,1.387998,0.5704012,-0.8311231,0.107544,12.04244,13.45618,0.1983867,-0.207349,0.1802396,-0.03797242,-1.043028,2.992095,0.441671,1.482397,0.4663005,0.01370339,-0.2030247,-0.1874091,-1.298674,0.07099069,0.0168674,0.53588,1.481705,0.3034544,-0.01275706,1.486191,0.5373215,283.1868,113.4108,152.226,True
6,1.255558,-0.3648037,0.08281784,-0.3772201,-1.445675,1.321073,-1.712438,0.3214816,1.389052,0.5711036,-0.8313137,-0.0182559,11.98939,13.45618,0.1704406,-0.1573311,0.1667089,-0.03933276,-1.047959,2.996137,0.4420201,1.482512,0.4664686,-0.005622178,-0.1902363,-0.201043,-1.301434,0.06930903,0.01805224,0.5361693,1.481458,0.3034332,-0.01176674,1.48849,0.5397116,283.4427,112.9796,153.1418,True
6,1.266669,-0.3849805,0.0668885,-0.338815,-1.44554,1.318559,-1.707187,0.3216669,1.390136,0.5717728,-0.830469,0.07758751,11.96286,13.45618,0.1725886,-0.1530634,0.1698882,-0.04138872,-1.020378,2.966453,0.442492,1.48258,0.466656,-0.01746586,-0.1593087,-0.211549,-1.304347,0.06893486,0.01861044,0.5364984,1.481364,0.3034461,-0.01083484,1.491036,0.5419392,283.7738,112.6634,153.8853,True
6,1.27778,-0.4073592,0.07541675,-0.3153747,-1.44639,1.315717,-1.70164,0.3220253,1.391317,0.572417,-0.8304562,0.0005637791,11.96286,13.52046,0.1823672,-0.2063078,0.1761083,-0.04447213,-0.9382338,2.882053,0.4428276,1.482671,0.4667654,-0.02516942,-0.1166307,-0.2327322,-1.307616,0.06965924,0.01887915,0.536827,1.481338,0.3034482,-0.009989921,1.493806,0.5439546,284.1135,112.6022,154.2619,True
6,1.288891,-0.4393141,0.07213977,-0.319604,-1.446618,1.311954,-1.695286,0.3220956,1.392655,0.5730844,-0.8307379,-0.02559991,12.01592,13.67045,0.1720374,-0.2394288,0.2059581,-0.0487204,-0.877266,2.819662,0.4431981,1.482882,0.4668272,-0.03162824,-0.09638743,-0.237967,-1.310457,0.06934139,0.01953722,0.5370376,1.48129,0.3034651,-0.009183574,1.496756,0.5456843,284.4593,112.5689,154.5598,True
6,1.300002,-0.4648569,0.05928665,-0.32807,-1.446533,1.307934,-1.688917,0.3222829,1.393829,0.5738413,-0.8306815,0.005528751,12.06897,13.88472,0.1510562,-0.225718,0.2508965,-0.05350291,-0.8684624,2.809947,0.4434442,1.483251,0.466958,-0.05280894,-0.1102228,-0.2271114,-1.312529,0.06799876,0.02110156,0.5370911,1.48125,0.3035455,-0.008384824,1.499826,0.5470559,284.8038,112.2886,155.038,True
6,1.311113,-0.5031635,0.0378855,-0.3322499,-1.445798,1.304098,-1.681507,0.3221382,1.395452,0.5745656,-0.8301589,0.04785869,12.17507,14.1847,0.1258329,-0.2386402,0.2883697,-0.0588255,-0.8455683,2.786454,0.4435188,1.483762,0.4670196,-0.1005544,-0.132645,-0.2095985,-1.314323,0.06567995,0.0244907,0.5370964,1.481139,0.3036616,-0.007589841,1.503004,0.5481064,285.1501,112.0784,155.3309,True
6,1.322224,-0.5265645,0.02508579,-0.3226028,-1.445559,1.300917,-1.674593,0.3220831,1.396975,0.5753796,-0.8303204,-0.0150369,12.20159,14.44182,0.1009678,-0.2473921,0.3737848,-0.06636597,-0.8366443,2.777292,0.4434356,1.484165,0.4670672,-0.1461988,-0.137989,-0.1952942,-1.316168,0.06437086,0.0277299,0.5370978,1.481015,0.3037515,-0.006898605,1.506346,0.5489879,285.5569,112.2764,155.1078,True
6,1.333336,-0.5542237,0.01012914,-0.315088,-1.444826,1.297708,-1.666987,0.3217355,1.398777,0.5761082,-0.8295236,0.07317803,12.20159,14.69895,0.09402192,-0.2336904,0.4420475,-0.07390698,-0.8440945,2.783878,0.4432373,1.484546,0.4671648,-0.1153902,-0.1102637,-0.2019703,-1.318653,0.06409603,0.02813097,0.537061,1.480962,0.3039811,-0.006242809,1.509802,0.5498655,286.0149,112.6276,154.6826,True
6,1.344447,-0.580834,0.00155513,-0.3107761,-1.444356,1.294499,-1.659334,0.3213412,1.400453,0.5768588,-0.8301105,-0.05412263,12.22811,14.95607,0.06858718,-0.2337756,0.461403,-0.07957312,-0.8401845,2.780279,0.4427704,1.484633,0.4673803,-0.09204672,-0.08681189,-0.2096313,-1.32118,0.06387472,0.02825561,0.536768,1.48065,0.3042805,-0.005740825,1.513496,0.5508475,286.4166,112.9518,154.34,True
6,1.355558,-0.608478,-0.008128896,-0.307591,-1.44362,1.291305,-1.651234,0.3207567,1.40211,0.5774732,-0.8297648,0.03234953,12.25464,15.19177,0.02281731,-0.2222001,0.4703153,-0.08559613,-0.8401431,2.781587,0.4422842,1.485071,0.4675457,-0.08248273,-0.001589831,-0.2074911,-1.323343,0.06671219,0.02809475,0.5366495,1.480402,0.3048179,-0.005255709,1.517368,0.5519432,286.8239,113.0452,154.3139,True
6,1.366669,-0.6255565,-0.004911199,-0.3000662,-1.44354,1.288188,-1.643363,0.3201596,1.403739,0.5781193,-0.8299331,-0.01551786,12.30769,15.34176,-0.01994023,-0.2095173,0.4589521,-0.09031419,-0.8367796,2.780147,0.4421167,1.485661,0.4677649,-0.09000666,0.02609971,-0.2116348,-1.325702,0.06790062,0.02919863,0.5365648,1.480207,0.3051071,-0.004860237,1.521459,0.5531247,287.2496,113.0778,154.4432,True
6,1.37778,-0.6394321,0.01537132,-0.2660057,-1.444299,1.286537,-1.63557,0.3193673,1.405299,0.5786176,-0.8297787,0.01444986,12.36074,15.49175,-0.07542577,-0.1979381,0.4519627,-0.09533371,-0.8367493,2.78301,0.4415185,1.486139,0.4679453,-0.1158131,0.09535219,-0.2304569,-1.328839,0.07177352,0.03048467,0.5364742,1.479986,0.3055429,-0.004471888,1.525682,0.5543408,287.7462,113.0339,154.6914,True
6,1.388891,-0.6426938,0.05913419,-0.2298873,-1.446486,1.285123,-1.628333,0.3184957,1.406788,0.5789921,-0.8302351,-0.04166712,12.33422,15.64174,-0.09690294,-0.1671019,0.4426086,-0.09999797,-0.842723,2.790785,0.4413336,1.486746,0.4680564,-0.1377666,0.1231019,-0.2909196,-1.334123,0.07402842,0.03229962,0.5363828,1.479965,0.305927,-0.004095587,1.529978,0.5555289,288.2778,112.9333,155.0126,True
6,1.400002,-0.6448814,0.09330451,-0.2022875,-1.448534,1.283364,-1.62091,0.3176389,1.408273,0.5791278,-0.8304088,-0.01534165,12.28117,15.83458,-0.09059818,-0.1404571,0.4415509,-0.1048939,-0.8527122,2.801439,0.4408495,1.487342,0.4680843,-0.1534015,0.1135809,-0.3600124,-1.340341,0.07493416,0.03442562,0.5362778,1.479985,0.3062856,-0.003702775,1.534278,0.5566427,288.8098,112.6588,155.4869,True
6,1.411114,-0.6449192,0.1167857,-0.1842354,-1.450553,1.281809,-1.613593,0.3165991,1.409913,0.5793965,-0.8311278,-0.06553122,12.25464,16.11313,-0.08513653,-0.168154,0.4489126,-0.1107763,-0.8441624,2.793669,0.4403792,1.487891,0.4682326,-0.1598093,0.08588317,-0.3631763,-1.344531,0.0750845,0.03639183,0.5359608,1.479967,0.30671,-0.003339056,1.538549,0.5575801,289.3053,112.0543,156.2986,True
6,1.422225,-0.6470667,0.124277,-0.1746591,-1.452273,1.280006,-1.606089,0.315644,1.411733,0.5799088,-0.8311917,-0.005154989,12.14854,16.39169,-0.07831457,-0.2576711,0.4763668,-0.1185879,-0.8131132,2.763763,0.4394125,1.488484,0.4683473,-0.1655663,0.08365212,-0.3013253,-1.345569,0.07579929,0.03831383,0.5354686,1.479958,0.3072333,-0.003032519,1.54274,0.5582655,289.7869,111.3271,157.2112,True
6,1.433336,-0.648095,0.1093737,-0.169295,-1.452935,1.278303,-1.598679,0.3143789,1.413611,0.5801983,-0.8313643,-0.0157621,12.09549,16.58453,-0.1056107,-0.3078773,0.5095166,-0.1268815,-0.7936721,2.746487,0.4384487,1.489206,0.4684083,-0.1679698,0.1080564,-0.2234994,-1.345412,0.07783874,0.03978576,0.5349524,1.480024,0.3076603,-0.002831703,1.546836,0.558675,290.2459,110.8299,157.8307,True
6,1.444447,-0.6512664,0.09873907,-0.1638879,-1.454081,1.277086,-1.591378,0.3131572,1.415865,0.5810106,-0.8313089,0.005244214,12.06897,16.69166,-0.123678,-0.3004934,0.5192473,-0.1333115,-0.7907812,2.745778,0.4376853,1.489888,0.4685307,-0.1749692,0.1388738,-0.1775732,-1.345808,0.08035956,0.04135889,0.5344626,1.480101,0.3081396,-0.002824197,1.550915,0.5588825,290.6677,110.5971,158.0363,True
6,1.455558,-0.6426827,0.07642351,-0.1489257,-1.454064,1.276013,-1.584473,0.3116658,1.417837,0.5814147,-0.8314607,-0.01388243,12.06897,16.67023,-0.1812985,-0.2143933,0.5369174,-0.1390926,-0.8127725,2.771722,0.4363628,1.490816,0.4686248,-0.1946901,0.1590398,-0.1262069,-1.345299,0.08289222,0.04357624,0.5338848,1.480229,0.3086486,-0.002992502,1.55503,0.5590151,291.0591,110.5536,157.9709,True
6,1.466669,-0.6255755,0.05843478,-0.1126561,-1.454171,1.27621,-1.578128,0.3101301,1.419736,0.5817235,-0.8315971,-0.0123263,12.20159,16.49882,-0.2058446,-0.161218,0.5499957,-0.1450688,-0.8294282,2.79129,0.4353187,1.491663,0.4687173,-0.222223,0.1579215,-0.1099425,-1.34609,0.08434577,0.0467201,0.5334954,1.480361,0.3091564,-0.003360068,1.559238,0.5591465,291.4405,110.6092,157.8063,True
6,1.47778,-0.6170351,0.04887462,-0.1062388,-1.454401,1.275326,-1.571349,0.3087981,1.421581,0.5820427,-0.8320301,-0.03941995,12.36074,16.22027,-0.2356339,-0.09317267,0.5780616,-0.1515903,-0.8550324,2.820365,0.4340407,1.492388,0.4687347,-0.2552915,0.1792109,-0.1127695,-1.347282,0.08720135,0.05013108,0.5328874,1.480447,0.3097262,-0.003859256,1.56357,0.5593693,291.8135,110.5969,157.713,True
6,1.488891,-0.6010216,0.03613866,-0.1019603,-1.454366,1.274296,-1.565219,0.3073972,1.423429,0.582149,-0.8324839,-0.0411956,12.51989,15.81315,-0.2302496,-0.0186592,0.6122392,-0.1583175,-0.8834451,2.85081,0.4330607,1.492885,0.4687147,-0.2522216,0.2143697,-0.1223478,-1.348915,0.09084415,0.05198916,0.532395,1.480383,0.3102832,-0.004366568,1.567852,0.5596077,292.2768,110.4404,157.9287,True
6,1.500003,-0.5999565,0.03294246,-0.097673,-1.454627,1.273548,-1.558332,0.3059508,1.425376,0.5823042,-0.8321883,0.02732247,12.65252,15.25605,-0.2646235,-0.04742914,0.5677208,-0.1633775,-0.8818738,2.85331,0.4320766,1.493513,0.4685881,-0.2160155,0.2207828,-0.1237846,-1.350225,0.09358241,0.05246134,0.5318266,1.480386,0.3108895,-0.004811811,1.571916,0.5597283,292.7523,110.1532,158.3321,True
6,1.511114,-0.5977797,0.02021776,-0.08059015,-1.454518,1.273306,-1.551794,0.3044229,1.427261,0.5823965,-0.8327636,-0.05289717,12.70557,14.63467,-0.3061368,-0.1487089,0.5412265,-0.1698063,-0.8601371,2.836869,0.4308757,1.494407,0.4684124,-0.2003653,0.2261468,-0.1548362,-1.352821,0.09631775,0.0535852,0.5311647,1.48046,0.3115056,-0.005198332,1.57573,0.5597095,293.1638,110.019,158.5316,True
6,1.522225,-0.5807036,0.007467821,-0.07949653,-1.454187,1.27257,-1.545876,0.3027069,1.429294,0.5825651,-0.8319902,0.071123,12.59947,14.05614,-0.3066992,-0.1861098,0.5933664,-0.1791817,-0.8564547,2.836695,0.4297642,1.495185,0.4684563,-0.2315947,0.2389415,-0.1853931,-1.355741,0.09950648,0.05672826,0.5304258,1.480505,0.312047,-0.00561562,1.579364,0.5595773,293.532,110.0074,158.5578,True
6,1.533336,-0.5604298,-0.007401407,-0.07947689,-1.45361,1.271644,-1.540209,0.3008434,1.431347,0.5828543,-0.8321579,-0.01599259,12.49337,13.56331,-0.2832435,-0.2062792,0.5888791,-0.1861992,-0.8513814,2.834075,0.4283111,1.496212,0.4685674,-0.2678667,0.2730125,-0.1881715,-1.35772,0.1038553,0.06000954,0.5297264,1.480539,0.3126512,-0.006158903,1.582968,0.559368,293.8196,109.9869,158.5567,True
6,1.544447,-0.5465342,-0.02012613,-0.06879523,-1.453051,1.271309,-1.534696,0.2989576,1.43336,0.5831769,-0.832828,-0.06107209,12.36074,13.19906,-0.2705947,-0.2019571,0.5738646,-0.1922238,-0.8508056,2.836115,0.4268222,1.497109,0.4687097,-0.2848732,0.2964289,-0.1826398,-1.359222,0.1080643,0.06283356,0.5289575,1.480595,0.3132331,-0.00684148,1.586608,0.5590634,294.1162,109.9746,158.5553,True
6,1.555558,-0.5412448,0.005515158,-0.04008999,-1.453861,1.271992,-1.528888,0.2968103,1.435227,0.5833831,-0.8330858,-0.02311569,12.25464,12.94193,-0.2965442,-0.1572203,0.5411322,-0.1970036,-0.8567246,2.846081,0.4251526,1.497933,0.468801,-0.3146527,0.3283618,-0.1759,-1.360648,0.1130835,0.06626957,0.5281678,1.48069,0.3138747,-0.007730638,1.590326,0.558709,294.4818,110.0603,158.4157,True
6,1.566669,-0.5477524,0.05878522,-0.03488878,-1.456423,1.271831,-1.522567,0.2949095,1.437046,0.5834527,-0.833065,0.001935821,12.20159,12.74909,-0.3234239,-0.1316822,0.5158319,-0.2017664,-0.8610721,2.854676,0.4235848,1.49879,0.4687924,-0.3368597,0.3272546,-0.1596995,-1.361748,0.1165873,0.06999,0.5274981,1.480858,0.3145666,-0.008797948,1.594053,0.5583795,294.8875,110.1687,158.2012,True
6,1.577781,-0.5724511,0.1407329,-0.04465333,-1.46091,1.271202,-1.515258,0.2927897,1.438836,0.5835104,-0.8325313,0.04863768,12.20159,12.66338,-0.3808639,-0.07437371,0.5440993,-0.2081947,-0.8747315,2.873948,0.4217716,1.49946,0.4687748,-0.3718604,0.3048386,-0.1465778,-1.362663,0.1191369,0.07463562,0.5265655,1.480969,0.3153379,-0.009972702,1.597694,0.558103,295.2675,110.1113,158.1597,True
6,1.588892,-0.5896089,0.1843188,-0.06711288,-1.46452,1.269883,-1.508051,0.2906981,1.440696,0.5835609,-0.8319913,0.04894162,12.28117,12.70623,-0.4095847,-0.06594272,0.5507536,-0.2145858,-0.880526,2.884955,0.420203,1.500235,0.4687304,-0.3717918,0.3229312,-0.1380312,-1.363591,0.1234074,0.07793235,0.5257168,1.481198,0.315949,-0.01123457,1.601252,0.5578614,295.5462,109.7865,158.4166,True
6,1.600003,-0.5875269,0.2013387,-0.07780784,-1.467151,1.268893,-1.501632,0.2886833,1.442492,0.5836215,-0.8310139,0.08897436,12.38727,12.85623,-0.4211059,-0.08200003,0.5699924,-0.2216688,-0.8810592,2.890374,0.418534,1.500835,0.4686773,-0.3436578,0.3708262,-0.0935175,-1.362618,0.1291874,0.07947086,0.5247387,1.481382,0.3167298,-0.01248954,1.604805,0.557702,295.7111,109.4158,158.6985,True
6,1.611114,-0.6184438,0.2183566,-0.06077855,-1.470118,1.268972,-1.493845,0.2865447,1.444201,0.5836852,-0.8311694,-0.01488131,12.51989,13.0705,-0.4093653,-0.07132785,0.5763108,-0.2282175,-0.8866206,2.899929,0.4169221,1.501382,0.4686894,-0.3058038,0.3868319,-0.03954288,-1.360688,0.1349199,0.08013452,0.5241105,1.481807,0.3173835,-0.0137379,1.60858,0.5577469,295.8443,109.0474,158.9711,True
6,1.622225,-0.655785,0.2513343,-0.04376925,-1.473895,1.269554,-1.485497,0.2844591,1.445936,0.5837185,-0.8320274,-0.07824077,12.59947,13.28477,-0.403115,-0.1106811,0.5442135,-0.2334128,-0.880407,2.897962,0.415176,1.502189,0.4686842,-0.2874523,0.3751481,-0.01843774,-1.360018,0.1391852,0.08172655,0.5231477,1.481956,0.3180754,-0.01482501,1.612586,0.5580305,296.0757,108.7988,159.2189,True
6,1.633336,-0.7261683,0.288489,-0.0331471,-1.4784,1.270015,-1.475166,0.2825152,1.447423,0.5837297,-0.8307097,0.1212177,12.62599,13.45618,-0.3785994,-0.1670422,0.5268615,-0.2393266,-0.8696369,2.890787,0.4135425,1.502942,0.4687541,-0.3064429,0.3261147,-0.003386099,-1.359291,0.1410941,0.08520731,0.5220964,1.482141,0.3186719,-0.01563369,1.616676,0.5584838,296.4708,108.4763,159.6575,True
6,1.644447,-0.7739034,0.1956764,-0.03818648,-1.477463,1.269518,-1.465107,0.2805005,1.449185,0.5836005,-0.8300791,0.05666035,12.62599,13.56331,-0.293246,-0.2179379,0.5249794,-0.2455829,-0.8601808,2.881905,0.4114055,1.503616,0.468807,-0.3427988,0.3282865,-0.0168654,-1.359814,0.1455126,0.08932269,0.5209171,1.482129,0.319339,-0.01624423,1.620875,0.5589767,296.8869,107.8823,160.434,True
6,1.655559,-0.7511452,0.03065632,-0.01755985,-1.472079,1.269542,-1.457405,0.2783665,1.451124,0.5834317,-0.8283288,0.1598178,12.62599,13.60617,-0.2662391,-0.2155655,0.4395407,-0.248311,-0.8527578,2.876714,0.4094672,1.50398,0.4688754,-0.383737,0.3592094,-0.059017,-1.361394,0.1508722,0.09392969,0.519843,1.482216,0.3199666,-0.0166628,1.625214,0.5593676,297.2953,107.1695,161.3235,True
6,1.66667,-0.638566,-0.2661446,0.05020329,-1.458226,1.271343,-1.454586,0.2761441,1.453469,0.582926,-0.8288801,-0.05143553,12.65252,13.6276,-0.2753842,-0.1590181,0.3800727,-0.2504245,-0.8560883,2.883508,0.4078104,1.504356,0.4686522,-0.389604,0.3603491,-0.111151,-1.363964,0.1555186,0.0974677,0.5186229,1.482314,0.3206432,-0.01684255,1.629729,0.5595353,297.7319,106.6298,162.065,True
6,1.677781,-0.5239328,-0.5481702,0.06252383,-1.442973,1.270828,-1.452545,0.2739571,1.455939,0.582242,-0.8315907,-0.2470144,12.65252,13.60617,-0.3259932,-0.08130486,0.3390843,-0.2521028,-0.8659002,2.898505,0.4061303,1.504581,0.4686525,-0.3558866,0.3550853,-0.1477264,-1.366518,0.1595445,0.09937905,0.5175064,1.482431,0.3214343,-0.01684163,1.634361,0.5592346,298.377,106.7106,162.3294,True
6,1.688892,-0.5425763,-0.8050687,0.01416799,-1.425538,1.267218,-1.445549,0.2720002,1.458951,0.5813603,-0.8365639,-0.4526414,12.65252,13.67045,-0.3916915,-0.1177824,0.3683357,-0.2583208,-0.8601712,2.899392,0.4052317,1.505195,0.468236,-0.2469995,0.3455395,-0.1264897,-1.366699,0.1632089,0.09761205,0.516288,1.482379,0.3222339,-0.01678991,1.638776,0.5581123,299.3036,107.1775,162.319,True
6,1.700003,-0.5547642,-1.056468,0.03399038,-1.406128,1.265979,-1.438597,0.2702234,1.462125,0.5804024,-0.8376728,-0.09814186,12.67905,13.84187,-0.4014501,-0.2457815,0.4352859,-0.2670266,-0.8406204,2.885024,0.4042342,1.505771,0.4677749,-0.151396,0.3626539,-0.151958,-1.368697,0.1678882,0.09520881,0.5152836,1.482435,0.323004,-0.01704806,1.642386,0.5556855,300.4883,108.0364,161.9096,True
6,1.711114,-0.640886,-1.067992,0.1917601,-1.392747,1.271351,-1.42971,0.268293,1.464576,0.5792766,-0.8327204,0.4531611,12.7321,14.14185,-0.3397201,-0.3150633,0.5369235,-0.2776111,-0.8282545,2.874825,0.4032927,1.506099,0.4670734,-0.1199412,0.410668,-0.1980345,-1.371808,0.1744737,0.09412251,0.514434,1.482461,0.3235009,-0.01819859,1.644989,0.551932,301.5146,109.415,160.5463,True
6,1.722225,-0.831005,-0.7889296,0.3393285,-1.393064,1.279971,-1.415568,0.2659734,1.466297,0.5781767,-0.8316929,0.08998287,12.78515,14.57039,-0.2984107,-0.3000734,0.5205763,-0.2828719,-0.8222159,2.871418,0.4021167,1.506525,0.466279,-0.1345839,0.4373691,-0.2734931,-1.376652,0.1805463,0.09512305,0.5136476,1.482592,0.3237681,-0.02046047,1.64692,0.5471405,301.8833,111.496,158.01,True
6,1.733337,-1.053927,-0.1071236,0.5477152,-1.412884,1.296613,-1.398461,0.262871,1.46692,0.5765619,-0.8286799,0.2746905,12.86472,14.99893,-0.3158161,-0.2672905,0.6198558,-0.2927661,-0.8249152,2.878248,0.4006292,1.507086,0.4655488,-0.1598567,0.410805,-0.3499572,-1.382347,0.1847343,0.09682988,0.5127522,1.482742,0.3238499,-0.02333064,1.648334,0.5415,301.7581,113.5613,155.1854,True
6,1.744448,-1.199961,0.8950661,0.5858746,-1.454253,1.311079,-1.382157,0.2596582,1.46693,0.5747752,-0.8229695,0.5193887,12.9443,15.51318,-0.3207563,-0.2354618,0.6764289,-0.3023796,-0.8280417,2.884899,0.3989771,1.507392,0.465064,-0.1716129,0.36606,-0.3552194,-1.386147,0.1877735,0.09866399,0.5117441,1.482805,0.323976,-0.02628923,1.649657,0.5351424,301.2233,114.5388,153.1092,True
6,1.755559,-1.267368,1.483944,0.5525301,-1.490031,1.322843,-1.366425,0.256193,1.466977,0.5732353,-0.8191835,0.3419718,12.99735,16.11313,-0.3211453,-0.2438799,0.6252797,-0.3081181,-0.8225871,2.883271,0.3971421,1.50801,0.4645181,-0.2058413,0.2796325,-0.2708017,-1.386088,0.1879262,0.1019463,0.5105196,1.482901,0.3240795,-0.02892862,1.651981,0.5284843,300.2898,113.9401,152.1322,True
6,1.76667,-1.249075,2.239777,0.3248018,-1.538243,1.328155,-1.353244,0.252739,1.465935,0.5715311,-0.8218558,-0.2463401,13.07692,16.73452,-0.3267909,-0.2480276,0.5784765,-0.313486,-0.8181841,2.882521,0.3951748,1.508447,0.4641919,-0.2315277,0.2539395,-0.1821467,-1.384826,0.1897381,0.1049091,0.5093189,1.483132,0.3240743,-0.03063585,1.656531,0.5221871,299.1978,111.1981,152.8164,True
6,1.777781,-1.168879,2.503755,0.1663755,4.71084,1.332305,-1.342796,0.2498076,1.465999,0.5701754,-0.8247373,-0.2625488,13.12997,17.31305,-0.3725815,-0.3021806,0.4306574,-0.3145827,-0.8012485,2.872169,0.39307,1.50882,0.4639165,-0.2834454,0.2633123,-0.05056007,-1.380672,0.1926015,0.1093422,0.5081707,1.483213,0.3242438,-0.03070573,1.663932,0.5175526,298.901,107.1733,154.6548,True
6,1.788892,-0.893099,2.512584,0.03508765,4.681265,1.334398,-1.341237,0.2473248,1.465896,0.5692811,-0.82936,-0.4191782,13.18302,17.95586,-0.395503,-0.3489494,0.3465903,-0.3171526,-0.785147,2.862154,0.3909888,1.509286,0.4636753,-0.2879535,0.3377775,0.03267618,-1.376739,0.1985594,0.1117252,0.50674,1.483367,0.324456,-0.0286728,1.673522,0.5155784,300.0176,103.3986,156.8803,True
6,1.800003,-0.734901,2.28497,0.03124538,4.664512,1.339347,-1.3377,0.2452484,1.466869,0.5683725,-0.8331119,-0.3407339,13.23607,18.72723,-0.3840705,-0.4063394,0.2920626,-0.3209322,-0.7676167,2.849314,0.3892544,1.509586,0.4631009,-0.2624636,0.38039,0.02820015,-1.376351,0.203953,0.1127319,0.5055565,1.483439,0.3247652,-0.02453422,1.684186,0.5173182,302.3354,99.6512,159.7967,True
6,1.811115,-0.5656266,1.866762,0.06411934,4.657936,1.342933,-1.336525,0.2434752,1.467774,0.5676365,-0.8422348,-0.8305586,13.31565,19.67002,-0.3750465,-0.3497508,0.2409672,-0.3224726,-0.7616596,2.847596,0.3874024,1.50986,0.4626245,-0.2107624,0.431611,-0.01701876,-1.377263,0.2107892,0.1120658,0.5042128,1.483431,0.3250766,-0.01878341,1.694426,0.5226262,305.3177,96.51648,163.4668,True
6,1.822226,-0.4979318,1.653872,0.06462917,4.64666,1.346678,-1.332867,0.2417409,1.468003,0.5660527,-0.8404915,0.1657765,13.3687,20.86994,-0.3367062,-0.2463949,0.2738879,-0.326397,-0.767722,2.855903,0.386052,1.510198,0.4618092,-0.193267,0.4636343,-0.0736237,-1.379346,0.2170918,0.112612,0.5030051,1.48342,0.3253167,-0.0124099,1.702635,0.5305753,308.6679,94.03121,167.7836,True
6,1.833337,-0.410208,1.46973,0.033016,4.635365,1.348106,-1.330824,0.2406507,1.468268,0.5659392,-0.8414183,-0.08718925,13.39523,22.027,-0.2940017,-0.2101094,0.297054,-0.3307055,-0.7671883,2.857313,0.3848389,1.510343,0.4610684,-0.1843686,0.5041996,-0.1375878,-1.38243,0.2247045,0.1129513,0.5018541,1.483327,0.325547,-0.006929041,1.708372,0.5393834,311.4521,92.04977,172.6746,True
6,1.844448,-0.3663369,1.34924,-0.05301842,4.623853,1.347518,-1.328188,0.2397994,1.468118,0.565171,-0.8380734,0.3059584,13.2626,22.92693,-0.2479162,-0.1802512,0.3414907,-0.3360691,-0.7682219,2.859636,0.3837296,1.510583,0.4602394,-0.1389039,0.4765539,-0.1721815,-1.384716,0.2292316,0.1122903,0.5007997,1.483292,0.3255506,-0.003442241,1.711471,0.5471085,313.3584,90.75272,177.0941,True
6,1.855559,-0.3277177,1.219227,-0.1038444,4.613803,1.347512,-1.325758,0.2381833,1.468069,0.5644357,-0.8382896,-0.02338764,12.9443,23.48404,-0.1441096,-0.2141596,0.3874554,-0.3427579,-0.7634644,2.853171,0.3827159,1.510694,0.4595249,-0.1221249,0.4297137,-0.1990455,-1.387274,0.2327099,0.1127055,0.4997596,1.483259,0.325496,-0.002527479,1.712515,0.5526719,313.9656,89.39473,180.4875,True
6,1.86667,-0.2440015,0.9081559,-0.1819973,4.612738,1.342958,-1.326111,0.236938,1.468408,0.5644419,-0.8368819,0.1285073,12.46684,23.69831,-0.0653981,-0.2479918,0.3611771,-0.3468746,-0.7542157,2.842643,0.381506,1.510608,0.4590471,-0.1310878,0.3573251,-0.2459163,-1.391365,0.2347648,0.1140896,0.4987554,1.483191,0.3253226,-0.003916231,1.712033,0.5559857,313.4254,88.26876,182.1932,True
6,1.877781,-0.1828548,0.7100924,-0.1975404,4.610605,1.341107,-1.326259,0.2354424,1.468659,0.5643916,-0.8363322,0.04858255,11.80371,23.44118,-0.02441159,-0.2051587,0.3044654,-0.3483777,-0.7532003,2.840606,0.380022,1.510771,0.4586613,-0.1665041,0.3115109,-0.2733023,-1.394889,0.2372072,0.1167588,0.4975845,1.483138,0.3250229,-0.007001966,1.710654,0.5574042,312.1891,87.40155,182.8535,True
6,1.888893,-0.1396216,0.4375016,-0.1852013,4.614741,1.338392,-1.326529,0.2344023,1.468489,0.5646369,-0.8380179,-0.1547572,11.11406,23.39833,0.01465115,-0.1546692,0.1476225,-0.3446562,-0.7491152,2.835512,0.3784151,1.510689,0.4584091,-0.1800793,0.2656657,-0.2497789,-1.396789,0.2389986,0.1189048,0.4964262,1.483106,0.3247349,-0.01121668,1.709102,0.5573996,310.7575,86.87936,182.8625,True
6,1.900004,-0.2064999,0.3329465,-0.1827668,4.613304,1.336752,-1.32172,0.2336075,1.468189,0.5646386,-0.8375838,0.04032955,10.47745,23.74116,0.007528424,-0.05869181,0.0892895,-0.3435355,-0.7546692,2.8411,0.377054,1.510513,0.4581523,-0.1579727,0.20167,-0.1765755,-1.396426,0.2394071,0.1198867,0.495121,1.483199,0.3245053,-0.01585734,1.707547,0.5563804,309.3622,87.11078,182.0323,True
6,1.911115,-0.1966849,0.2317714,-0.1793302,4.613302,1.33486,-1.319963,0.2329398,1.467982,0.5646429,-0.8368728,0.06414827,9.867373,24.53396,0.02114175,-0.01281759,0.07542711,-0.3435163,-0.7587854,2.844315,0.3758489,1.510354,0.4578202,-0.1295731,0.1589978,-0.1119358,-1.395559,0.239724,0.1203693,0.4939095,1.483267,0.324261,-0.02026157,1.706041,0.5547684,308.1686,87.3772,181.0596,True
6,1.922226,-0.1143199,0.0731733,-0.2013915,4.616801,1.330931,-1.32173,0.2322837,1.468046,0.5646751,-0.831376,0.5016523,9.442968,25.92672,0.07519744,-0.01153225,0.04091328,-0.3433406,-0.7580233,2.840931,0.3750696,1.510139,0.4572742,-0.07634694,0.1312073,-0.01557553,-1.392699,0.2398833,0.1194071,0.4927213,1.483427,0.3240333,-0.02384759,1.704433,0.5528266,307.1959,87.81354,179.9471,True
6,1.933337,-0.06296474,-0.04076798,-0.2331092,4.619442,1.326666,-1.323073,0.2318257,1.468076,0.5647016,-0.8336179,-0.2092779,9.336869,27.29805,0.1275064,-0.07636007,0.03183471,-0.3442466,-0.7490963,2.829421,0.3744857,1.510039,0.4567783,-0.0448898,0.1311621,0.03843034,-1.390265,0.2410627,0.1186079,0.4915567,1.483509,0.3237371,-0.02632777,1.703367,0.5510823,306.2584,87.94627,179.1005,True
6,1.944448,0.02484401,-0.2708431,-0.3029462,4.628384,1.31848,-1.326941,0.2314356,1.468366,0.5648227,-0.8367796,-0.2873423,9.442968,28.34797,0.1608785,-0.1285274,0.05809367,-0.3467979,-0.7416502,2.819684,0.3735287,1.510162,0.4561181,-0.04457668,0.1364444,0.06826407,-1.388534,0.2425925,0.1188539,0.4905281,1.483599,0.3233578,-0.02752161,1.70305,0.5498543,305.8334,88.3339,178.303,True
6,1.955559,0.06119277,-0.3336604,-0.319872,4.63251,1.313471,-1.328987,0.2308484,1.46842,0.5647511,-0.8356999,0.1000592,9.655171,29.11935,0.1707281,-0.1849917,0.0717466,-0.3493742,-0.7316923,2.808146,0.3723193,1.51021,0.4555266,-0.06279916,0.1311142,0.05673579,-1.388132,0.2437831,0.1199352,0.4894828,1.483646,0.3229926,-0.02767008,1.703249,0.5492663,306.1053,89.18764,177.4059,True
6,1.966671,0.07292867,-0.3325154,-0.2975141,4.635542,1.310071,-1.330482,0.2300602,1.468446,0.5647635,-0.8363572,-0.06242094,9.94695,29.3979,0.1361643,-0.04231204,0.06166928,-0.348293,-0.7438859,2.819387,0.3708849,1.510212,0.454962,-0.09542491,0.1109366,-0.0090132,-1.39049,0.2446777,0.1218679,0.4884366,1.48369,0.3224354,-0.02721494,1.703688,0.5493872,306.79,90.14583,176.6647,True
6,1.977782,0.05473053,-0.28671,-0.2816275,4.636239,1.307341,-1.330576,0.2292555,1.468371,0.5647836,-0.8332632,0.2819426,10.13263,28.58367,0.09845629,0.08011841,0.05051058,-0.3468117,-0.7586957,2.83351,0.3695425,1.510421,0.4543989,-0.1087947,0.1035336,-0.06640931,-1.393041,0.2458204,0.1232447,0.4873503,1.483765,0.3220973,-0.02672429,1.703958,0.5501094,307.6584,91.35645,175.9526,True
6,1.988893,0.03007477,-0.2132295,-0.2689973,4.635432,1.30491,-1.330241,0.2283,1.468206,0.5647588,-0.8307044,0.229991,10.3183,27.06235,0.04623153,0.1491814,0.0713129,-0.3469422,-0.771574,2.846959,0.3681684,1.510657,0.453902,-0.1018441,0.1163829,-0.1122679,-1.39556,0.2480394,0.1239752,0.4862707,1.483728,0.3219135,-0.02667507,1.703947,0.5513458,308.3173,91.8586,175.9192,True
6,2.000004,0.01930842,-0.1674735,-0.2808135,4.634984,1.301318,-1.330374,0.2273853,1.468019,0.5646682,-0.8272998,0.3079729,10.50398,24.98393,0.05055328,0.09911019,0.06370983,-0.3476469,-0.7681822,2.843072,0.3672287,1.51062,0.4532609,-0.06553183,0.1483568,-0.1019458,-1.395693,0.2509294,0.1228362,0.485038,1.483983,0.3214982,-0.02733237,1.703623,0.5528898,308.6114,91.86909,176.3853,True
6,2.011115,0.02566703,-0.1600453,-0.2989471,4.635505,1.297103,-1.33121,0.2265722,1.468073,0.5646057,-0.8245999,0.242647,10.66313,22.69123,0.06794543,0.07777394,0.09974647,-0.3497476,-0.7705859,2.844028,0.366182,1.51071,0.4526725,-0.03729421,0.1536363,-0.05002476,-1.394176,0.2526372,0.1219698,0.4839368,1.484109,0.3210971,-0.02870347,1.70302,0.5545527,308.5016,91.69374,176.9998,True
6,2.022226,0.05557388,-0.198335,-0.3073977,4.637986,1.292727,-1.333238,0.2259313,1.468535,0.5648947,-0.8226121,0.1780637,10.76923,20.95564,0.1140968,0.06500447,0.1408874,-0.3523969,-0.7732709,2.843991,0.3652168,1.510852,0.452163,-0.04337529,0.135487,-0.02121653,-1.393361,0.2534257,0.1225856,0.4827742,1.484255,0.3205009,-0.03062117,1.702185,0.5561945,308.1361,91.52483,177.5522,True
6,2.033337,0.08015081,-0.2312905,-0.3020102,4.640888,1.288923,-1.335144,0.2250969,1.46888,0.5648522,-0.8207442,0.1673994,10.98143,20.07714,0.1338533,0.02899353,0.06821127,-0.35119,-0.7698038,2.838629,0.363973,1.510971,0.4517388,-0.05286579,0.1226866,-0.01261022,-1.3931,0.2543558,0.1233235,0.4816151,1.484388,0.3200259,-0.0328594,1.701129,0.5577222,307.6404,91.53573,177.8837,True
6,2.044448,0.1025347,-0.2311969,-0.2871116,4.642674,1.285789,-1.337332,0.2242687,1.469199,0.5648828,-0.8191414,0.1429891,11.14058,20.14142,0.1342122,-0.01445615,-0.03523287,-0.3477556,-0.7618633,2.829709,0.3625807,1.511035,0.4513972,-0.05802888,0.1034894,0.002338798,-1.392518,0.2547769,0.1241635,0.4804533,1.484598,0.3195312,-0.03526301,1.699959,0.5591003,307.0606,91.72473,177.9744,True
6,2.055559,0.09066421,-0.1641159,-0.2893903,4.641404,1.282677,-1.338128,0.2233749,1.469477,0.5646622,-0.816073,0.2770407,11.24668,21.12706,0.1361513,-0.009077199,-0.05760892,-0.3463153,-0.7606769,2.827015,0.3611802,1.511363,0.4509931,-0.08995008,0.0736326,0.003706539,-1.39239,0.2543897,0.1263212,0.4792268,1.484959,0.3190038,-0.03773291,1.698753,0.5602992,306.5048,92.03325,177.9204,True
6,2.06667,0.05328677,-0.124779,-0.2883819,4.640684,1.279588,-1.337681,0.2224413,1.46982,0.5646341,-0.8130764,0.2692033,11.24668,22.84122,0.1150118,-0.008127585,-0.03507539,-0.3468485,-0.760863,2.826782,0.3598784,1.511712,0.4502382,-0.09718837,0.07040852,0.02508314,-1.39133,0.2550216,0.1276032,0.4779562,1.485151,0.3185387,-0.04021083,1.697518,0.5612305,306.0287,92.26262,177.9358,True
6,2.077781,0.01494616,-0.1291159,-0.2840734,4.641578,1.276274,-1.336802,0.2214666,1.470234,0.5647213,-0.8083125,0.4309441,11.11406,24.94107,0.05472518,0.03310473,0.03367678,-0.3490962,-0.7685571,2.835628,0.3583992,1.512015,0.4495196,-0.09670421,0.06076391,0.07088029,-1.388752,0.2550872,0.1285487,0.4766032,1.485439,0.3181031,-0.04267915,1.696331,0.561917,305.5947,92.33235,177.9833,True
6,2.088892,-0.008420259,-0.1632703,-0.2914231,4.643621,1.272273,-1.336272,0.2204641,1.470866,0.5648646,-0.8035322,0.4310811,10.87533,27.06235,0.003970921,0.1126945,0.1088238,-0.3514797,-0.7826753,2.850652,0.3569242,1.512212,0.4487429,-0.1079725,0.07135722,0.1157562,-1.385765,0.2559288,0.1301428,0.4752364,1.485673,0.3176937,-0.04511386,1.695377,0.5625193,305.1314,92.26315,178.0381,True
6,2.100003,-0.0487645,-0.23266,-0.313594,4.64749,1.266983,-1.334807,0.2194366,1.471702,0.5650427,-0.7996301,0.3509468,10.61008,28.96936,-0.02437051,0.1614609,0.1815976,-0.3547533,-0.7957302,2.864341,0.3555823,1.512482,0.4480913,-0.1055289,0.1149919,0.1488212,-1.382622,0.2583446,0.1308235,0.4739285,1.485924,0.3173401,-0.04741177,1.694777,0.5631626,304.6843,92.31897,177.9657,True
6,2.111114,-0.07421771,-0.2881432,-0.326223,4.651546,1.261825,-1.333381,0.2184976,1.472569,0.565202,-0.7965685,0.274697,10.3183,30.55496,-0.04336754,0.114522,0.188039,-0.3570985,-0.7966969,2.866369,0.3542798,1.512767,0.4475534,-0.09596773,0.137371,0.1476837,-1.380742,0.2604706,0.1311498,0.4726904,1.486132,0.3169582,-0.04947567,1.694546,0.5638744,304.3461,92.60453,177.7623,True
6,2.122225,-0.07514305,-0.3531494,-0.3335235,4.656614,1.256607,-1.332865,0.2176178,1.47375,0.5653207,-0.7922334,0.3917946,10.05305,31.51918,-0.04013501,0.08363354,0.1826135,-0.3586729,-0.7964404,2.866391,0.3528699,1.51302,0.447027,-0.06334068,0.1587429,0.1111467,-1.380633,0.262946,0.1302358,0.4714715,1.486269,0.3165438,-0.05131263,1.694655,0.5646636,304.1734,93.11753,177.4346,True
6,2.133336,-0.0431044,-0.3786068,-0.3164466,4.660812,1.252712,-1.333878,0.2168335,1.474859,0.5654466,-0.7887905,0.3091047,9.920423,31.84058,0.02493232,0.0518519,0.1820254,-0.3607571,-0.7965523,2.863914,0.3516508,1.513348,0.4466233,-0.0461239,0.1482099,0.02466533,-1.383135,0.2645907,0.1298539,0.4703358,1.486465,0.3161733,-0.05296386,1.695048,0.5655232,304.0846,93.80392,177.001,True
6,2.144447,-0.06125392,-0.3701349,-0.3217823,4.663487,1.248006,-1.332768,0.2159828,1.475867,0.5651438,-0.7862589,0.2265062,9.867373,32.03343,0.05231032,-0.05868964,0.1037912,-0.3603704,-0.783404,2.849975,0.350124,1.513818,0.4460337,-0.06058392,0.1237791,-0.03486998,-1.385377,0.2655102,0.1309575,0.4692585,1.486732,0.3157973,-0.05441894,1.69562,0.5664136,304.0373,94.47218,176.6142,True
6,2.155558,-0.1145564,-0.3639283,-0.3483766,4.665992,1.242537,-1.329938,0.2151648,1.476831,0.5653498,-0.7843382,0.1712211,9.867373,32.2477,0.06680149,-0.07373406,0.1792821,-0.3651332,-0.7832738,2.848727,0.3486453,1.514402,0.4455609,-0.1012917,0.1195165,-0.05682021,-1.386436,0.266822,0.1331772,0.4680168,1.486996,0.3154614,-0.0557395,1.696262,0.5672613,304.0247,95.09446,176.2968,True
6,2.166669,-0.1774015,-0.3672776,-0.3578939,4.668814,1.237409,-1.326267,0.2141406,1.477996,0.5660703,-0.7785879,0.5216411,9.867373,32.61195,0.06048715,-0.03118628,0.2039324,-0.3679162,-0.789746,2.854404,0.3471822,1.514874,0.4450359,-0.1298909,0.1375874,-0.03945488,-1.38589,0.2690161,0.1352191,0.4667166,1.487187,0.3151689,-0.05700266,1.696757,0.5679948,304.0917,95.54898,176.127,True
6,2.17778,-0.1965328,-0.3843626,-0.3535708,4.672684,1.232699,-1.323747,0.2131541,1.479195,0.5663669,-0.7728973,0.5132428,9.840847,33.46904,0.008563772,0.06546838,0.271672,-0.3718449,-0.8051007,2.870508,0.3456665,1.515439,0.4444323,-0.146251,0.1534686,0.02679533,-1.382813,0.270876,0.1369421,0.4652752,1.487566,0.3148699,-0.058391,1.697166,0.5686626,304.061,95.97477,175.9156,True
6,2.188891,-0.1942729,-0.4429589,-0.357695,4.678396,1.227074,-1.321864,0.212337,1.480622,0.5666275,-0.7683651,0.4078004,9.787797,35.07606,-0.02414204,0.1398091,0.3370839,-0.3765135,-0.8203045,2.886114,0.3443875,1.515947,0.4436688,-0.1446611,0.1448912,0.07683957,-1.380076,0.2718876,0.1382788,0.4639558,1.48781,0.3145864,-0.05996646,1.697695,0.569466,303.8785,96.57497,175.36,True
6,2.200002,-0.2389521,-0.476169,-0.3724596,4.684279,1.22138,-1.31797,0.2115273,1.48189,0.5661819,-0.7659885,0.2116064,9.734747,36.74738,-0.002310261,0.1471742,0.4051101,-0.3825855,-0.8292516,2.893535,0.3432679,1.516608,0.4430065,-0.1198723,0.1459396,0.1042776,-1.377996,0.2732527,0.1384732,0.4627643,1.488058,0.3142254,-0.06166954,1.698509,0.5705547,303.6284,97.1822,174.7988,True
6,2.211113,-0.2560152,-0.4655398,-0.3660767,4.687974,1.216419,-1.314641,0.2108645,1.483181,0.566205,-0.763042,0.265013,9.681698,38.29012,0.01924968,0.09074378,0.4175984,-0.3877573,-0.8300847,2.893312,0.3421333,1.517176,0.4423931,-0.1029004,0.1534155,0.09771837,-1.376862,0.2751198,0.1386543,0.461588,1.488268,0.3138804,-0.06329408,1.69942,0.5717824,303.444,97.77626,174.4916,True
6,2.222224,-0.2272172,-0.4536521,-0.323526,4.69164,1.213288,-1.313278,0.2102289,1.484629,0.5667996,-0.7572219,0.5270507,9.628648,39.53289,0.04393253,0.01304914,0.4129745,-0.3926187,-0.8257022,2.887833,0.341123,1.517618,0.4419115,-0.107639,0.158797,0.05197161,-1.377619,0.2772709,0.1396096,0.4605808,1.488507,0.3136573,-0.06478719,1.700248,0.572943,303.3354,98.47205,174.3012,True
6,2.233335,-0.1674863,-0.4768909,-0.2990134,4.696905,1.209453,-1.313414,0.2092303,1.485748,0.5669427,-0.7536149,0.3224408,9.681698,40.02571,0.06027952,-0.06442247,0.298684,-0.3931635,-0.8172517,2.878703,0.3398184,1.518106,0.4415479,-0.1390228,0.1385891,0.003270393,-1.379098,0.2782325,0.142016,0.4595577,1.488756,0.3133478,-0.06613915,1.700994,0.5738216,303.157,99.11623,174.163,True
6,2.244446,-0.1376596,-0.4800404,-0.3086215,4.701255,1.204433,-1.31292,0.2082552,1.486789,0.5670693,-0.7515584,0.1826783,9.761274,39.79001,0.03721091,-0.08877153,0.2018711,-0.3927396,-0.8124777,2.87457,0.3383654,1.518608,0.4409902,-0.1830899,0.1205038,-0.0346379,-1.38048,0.2792914,0.145407,0.4585688,1.488988,0.313133,-0.06735592,1.701818,0.5744686,302.9541,99.65848,173.8028,True
6,2.255557,-0.1324366,-0.4427581,-0.3172297,4.703727,1.199897,-1.311541,0.2073718,1.487669,0.5670748,-0.7486972,0.2567199,9.867373,38.89008,-0.04429957,-0.06329058,0.1418516,-0.3922906,-0.8126817,2.877966,0.3367796,1.518849,0.4404221,-0.2185664,0.1311686,-0.06408663,-1.381811,0.2813852,0.1486063,0.4574752,1.48923,0.3128169,-0.06851115,1.702675,0.5749802,302.9557,100.1567,173.3497,True
6,2.266668,-0.1975839,-0.3790317,-0.3343644,4.704657,1.195176,-1.3073,0.2065325,1.488527,0.5671906,-0.7432744,0.4899854,9.999999,37.30448,-0.115872,0.0504807,0.155459,-0.3934469,-0.825483,2.893418,0.3352801,1.519207,0.4396291,-0.1830032,0.1492528,-0.02395199,-1.380509,0.2835438,0.1491485,0.4563982,1.489439,0.3125982,-0.06981844,1.703273,0.5753637,303.1976,100.8147,172.8392,True
6,2.277779,-0.2401851,-0.3898238,-0.355616,4.707877,1.189298,-1.303289,0.2056134,1.489712,0.5675945,-0.7372035,0.5472804,10.07958,35.09749,-0.09859124,0.1420048,0.2162483,-0.396819,-0.8401128,2.907301,0.3339395,1.519698,0.439043,-0.1517311,0.1620122,0.01302535,-1.37875,0.2855383,0.1493091,0.4551972,1.489669,0.3123605,-0.07147531,1.703513,0.5757703,303.3248,101.4903,172.2502,True
6,2.28889,-0.2677557,-0.4624316,-0.3990948,-1.569582,1.181559,-1.299324,0.2046758,1.491196,0.5679617,-0.7290233,0.7396626,10.18567,33.06192,-0.07573124,0.149385,0.2800053,-0.4017213,-0.8480946,2.914499,0.3325551,1.520304,0.4382837,-0.1409239,0.2120654,0.03108643,-1.377152,0.2894888,0.1496436,0.4541499,1.4899,0.3122115,-0.07347252,1.703428,0.5763763,303.1434,101.9619,171.7595,True
6,2.300001,-0.240962,-0.5326772,-0.3968128,-1.562656,1.175393,-1.297675,0.2037371,1.492832,0.5681446,-0.7236853,0.478184,10.29178,31.47632,-0.07630279,0.06834314,0.3139255,-0.4065592,-0.8449427,2.912478,0.3313024,1.521079,0.4377935,-0.1828559,0.2813303,-0.00142014,-1.377539,0.295205,0.1521088,0.4530968,1.490082,0.3119597,-0.0757282,1.703346,0.5773649,302.6172,102.3908,171.3143,True
6,2.311112,-0.1716767,-0.5431215,-0.3766114,-1.557518,1.170472,-1.298012,0.2029591,1.494229,0.568346,-0.7184079,0.4748401,10.34483,30.38354,-0.06556129,-0.04023365,0.2880345,-0.4097779,-0.836211,2.904848,0.3301836,1.521595,0.4373088,-0.1994069,0.3229301,-0.05339788,-1.37915,0.3006569,0.1538689,0.4520571,1.490242,0.311789,-0.07809649,1.70351,0.5787913,302.0372,103.1882,170.697,True
6,2.322223,-0.1515943,-0.4770224,-0.3757221,-1.555703,1.165689,-1.296922,0.2023051,1.495408,0.5682733,-0.71512,0.2925606,10.37135,29.76216,-0.04222478,-0.08377763,0.2600555,-0.4121316,-0.8320802,2.9007,0.32893,1.522264,0.4366949,-0.2095897,0.3102129,-0.1108304,-1.381833,0.3039756,0.1558679,0.4511896,1.490347,0.3117626,-0.08039241,1.703943,0.5805588,301.5503,104.2421,170.0662,True
6,2.333334,-0.186849,-0.4452252,-0.4066479,-1.553419,1.159417,-1.29347,0.2016576,1.496621,0.5683281,-0.7113266,0.3400884,10.4244,29.61217,-0.05102158,-0.1742074,0.1949411,-0.4133072,-0.8201039,2.89052,0.3274976,1.523072,0.4359155,-0.1927551,0.2793566,-0.1334064,-1.38354,0.3061967,0.1568943,0.4501593,1.490556,0.3116901,-0.08243082,1.704381,0.5823837,301.2664,105.0753,169.779,True
6,2.344445,-0.2402136,-0.4295244,-0.4705572,-1.551313,1.150983,-1.288764,0.2010663,1.497882,0.5683303,-0.7037446,0.6857812,10.55703,29.3979,-0.08125857,-0.09646076,0.1708475,-0.4138068,-0.8246382,2.896734,0.3260667,1.523716,0.4348814,-0.1811155,0.2964272,-0.1398905,-1.38451,0.3104861,0.1576796,0.4492334,1.490786,0.3114982,-0.08419459,1.704519,0.5840821,301.1352,105.4862,169.8234,True
6,2.355556,-0.2188755,-0.4540628,-0.5035377,-1.547361,1.143044,-1.286963,0.2002367,1.499518,0.5685136,-0.6948193,0.8057296,10.8488,28.96936,-0.07671651,0.0674102,0.2617303,-0.4183102,-0.8435187,2.914675,0.3245536,1.524451,0.4338892,-0.1896427,0.3582008,-0.1365263,-1.384948,0.3167384,0.158885,0.4483162,1.491004,0.3113062,-0.08584698,1.704424,0.5856861,300.9275,105.7092,169.9149,True
6,2.366668,-0.184613,-0.5392635,-0.5268062,-1.540831,1.134359,-1.285883,0.1994185,1.501225,0.5686865,-0.6870615,0.698193,11.22016,28.34797,-0.0879096,0.1183294,0.3450277,-0.4240546,-0.8543056,2.925792,0.3229926,1.525194,0.4329224,-0.191611,0.3890721,-0.1183595,-1.3848,0.3222481,0.1601476,0.4473974,1.491247,0.3111656,-0.08753348,1.704412,0.5873435,300.563,106.2748,169.6012,True
6,2.377779,-0.1931167,-0.5617613,-0.565075,-1.536101,1.125478,-1.283104,0.1986551,1.502943,0.5688515,-0.6835706,0.3092114,11.64456,27.38376,-0.1357467,0.1639558,0.3732056,-0.4281149,-0.8638391,2.937595,0.3215399,1.525892,0.4321141,-0.2213974,0.4156789,-0.1126854,-1.384926,0.327814,0.1624699,0.4466366,1.491574,0.3109243,-0.08921741,1.704777,0.5892236,300.1258,107.1836,168.9575,True
6,2.38889,0.1470914,-0.7346753,-0.5905539,-1.525483,1.114659,-1.295493,0.1977035,1.505463,0.5689347,-0.6781665,0.4870048,12.14854,25.81958,-0.1647003,0.2033166,0.3628694,-0.431039,-0.8744175,2.950145,0.3200411,1.526827,0.4312871,-0.2352159,0.4209919,-0.1093382,-1.385232,0.332872,0.1646036,0.4458044,1.491891,0.3106847,-0.09087613,1.705469,0.5913442,299.9255,108.2199,168.329,True
6,2.400001,0.300529,-0.7899942,-0.7034663,-1.518121,1.101111,-1.303389,0.1971442,1.507623,0.5691738,-0.6699038,0.746452,12.65252,23.97686,-0.1651565,0.07783104,0.2624589,-0.4312052,-0.8656379,2.943745,0.3185678,1.527898,0.4302959,-0.233239,0.4210125,-0.1242635,-1.386183,0.3378226,0.1660963,0.4450331,1.492209,0.3104558,-0.09254285,1.706178,0.5936048,299.8996,109.2974,167.7828,True
6,2.411112,0.2821595,-0.6867967,-0.7377652,-1.516839,1.091475,-1.304783,0.1966025,1.509374,0.5689011,-0.6779822,-0.7494776,13.12997,21.94129,-0.2151127,0.02763144,0.2595529,-0.4342119,-0.8636836,2.945999,0.3171167,1.528856,0.4291894,-0.2306948,0.4262564,-0.166949,-1.388107,0.3429098,0.1676063,0.4441676,1.492565,0.3101976,-0.09430084,1.70689,0.5959714,299.7549,110.3651,167.3051,True
6,2.422223,0.3301135,-0.7166562,-0.7973941,-1.510874,1.078898,-1.30915,0.1962834,1.511135,0.569061,-0.6677061,0.9407663,13.5809,19.86287,-0.2371259,0.02747045,0.3044749,-0.4391036,-0.867126,2.952444,0.3154539,1.529676,0.4279909,-0.233868,0.4359981,-0.1838883,-1.390149,0.3487539,0.1691669,0.4433322,1.492941,0.3099723,-0.09637319,1.706766,0.5984668,300.1389,112.0267,166.2644,True
6,2.433334,0.3705055,-0.6707484,-0.7879437,-1.506944,1.069466,-1.313974,0.1957238,1.512836,0.5690503,-0.6528846,1.341259,13.8992,18.23441,-0.2724803,0.07958981,0.2974141,-0.4415958,-0.8744937,2.963244,0.3138235,1.530281,0.426863,-0.2348409,0.469005,-0.1731852,-1.390554,0.3552614,0.1705763,0.4424105,1.49337,0.3097177,-0.09905674,1.705455,0.6015315,300.0752,113.3477,165.2484,True
6,2.444445,0.3554807,-0.599262,-0.7273804,-1.504432,1.062634,-1.317054,0.1951916,1.514044,0.5690384,-0.6482288,0.410127,14.11141,17.27019,-0.2813215,0.1818513,0.2923789,-0.4434275,-0.8884633,2.979322,0.3124236,1.530931,0.4258533,-0.2229581,0.4839125,-0.1562281,-1.390499,0.3613274,0.1715662,0.441493,1.493727,0.3095202,-0.1021958,1.703388,0.6052866,299.0365,114.0729,164.8511,True
6,2.455556,0.316078,-0.5215827,-0.6752909,-1.500613,1.055549,-1.318066,0.1946575,1.51544,0.5691929,-0.6422016,0.5435348,14.24403,16.77737,-0.2429373,0.1893919,0.2995526,-0.4467591,-0.8947433,2.986391,0.3112996,1.531669,0.4248211,-0.1663093,0.5020361,-0.1376118,-1.390292,0.367527,0.1703917,0.4406838,1.494193,0.3092418,-0.105417,1.700764,0.6095995,297.7116,115.3358,164.2108,True
6,2.466667,0.3160801,-0.5183572,-0.6635807,-1.497004,1.047496,-1.320974,0.1942094,1.516612,0.5690777,-0.6338744,0.7524236,14.29708,16.62738,-0.2163883,0.1288106,0.2683131,-0.4487203,-0.8939928,2.987159,0.3102067,1.532355,0.4238949,-0.1076066,0.4999358,-0.1275809,-1.390531,0.3732118,0.1685917,0.4398591,1.494645,0.3089786,-0.1085165,1.697835,0.6141905,296.3333,116.2255,164.1289,True
6,2.477778,0.2778036,-0.5270041,-0.6464556,-1.491076,1.039001,-1.3218,0.1936845,1.517499,0.5687072,-0.6256277,0.7437933,14.35013,16.73452,-0.1631363,-0.05519752,0.2046292,-0.4499198,-0.8782634,2.973184,0.3091073,1.533034,0.4229143,-0.02540864,0.4669541,-0.1146293,-1.390725,0.3774514,0.165389,0.4390678,1.495023,0.3086517,-0.111344,1.694868,0.6186423,294.9706,116.6189,164.6028,True
6,2.488889,0.2425497,-0.4887447,-0.6465238,-1.48894,1.031042,-1.322534,0.1932309,1.517939,0.5685186,-0.6218178,0.3386241,14.45623,16.86308,-0.1184767,-0.138084,0.1657383,-0.451246,-0.868386,2.964046,0.3080752,1.533455,0.4221742,0.01525947,0.4339372,-0.09911601,-1.390729,0.3812376,0.163088,0.4383128,1.49543,0.3082337,-0.1138838,1.692311,0.6226323,293.6949,117.2618,164.7968,True
6,2.5,0.2179004,-0.4194919,-0.613647,-1.487941,1.024915,-1.32379,0.1927249,1.518515,0.5683661,-0.6147407,0.6410774,14.40318,16.71309,-0.08281329,-0.09419233,0.1112205,-0.4506558,-0.8699096,2.9654,0.3068902,1.53393,0.4213157,-0.005803682,0.4072579,-0.07762456,-1.390306,0.3849626,0.1634038,0.4375451,1.495861,0.3078969,-0.1159378,1.690201,0.6259469,292.8358,118.31,164.4707,True
6,2.511111,0.08539788,-0.2245825,-0.495788,-1.492728,1.024969,-1.320036,0.1922871,1.517951,0.5680029,-0.6094788,0.4722946,14.16445,16.2417,-0.05739167,-0.03127767,0.1143533,-0.451687,-0.8746369,2.969405,0.3057686,1.534429,0.4205344,-0.0544598,0.3581835,-0.04734731,-1.389405,0.3870957,0.1653972,0.4368568,1.496229,0.3074384,-0.1174897,1.688537,0.6285173,292.3257,119.5624,163.7601,True
6,2.522222,-0.03120158,-0.02348879,-0.4578768,-1.49966,1.022498,-1.315343,0.1919678,1.517572,0.5675719,-0.605279,0.3775002,13.74005,15.38461,-0.08204502,0.003805477,0.1114307,-0.4528173,-0.8774945,2.974222,0.3046656,1.534802,0.4194353,-0.0697673,0.2835313,0.01237931,-1.387183,0.3874821,0.1666076,0.4362165,1.496565,0.3069918,-0.1185708,1.687402,0.6305227,292.0524,120.3651,163.1924,True
6,2.533333,-0.09228364,0.1256039,-0.4081375,-1.506168,1.02131,-1.31229,0.1915437,1.517247,0.5671077,-0.5956128,0.8779717,13.1565,13.99186,-0.1559592,0.004781291,0.06088678,-0.4518394,-0.8770365,2.97814,0.3037039,1.534899,0.4186518,-0.03763697,0.2270723,0.02475226,-1.386474,0.3880186,0.1657589,0.4356269,1.496801,0.306627,-0.1192115,1.686713,0.6320839,291.9608,120.2992,163.3708,True
6,2.544444,-0.03899655,0.1333314,-0.3581364,-1.508465,1.019404,-1.313495,0.191129,1.517389,0.566556,-0.590728,0.4371131,12.51989,12.74909,-0.1953772,0.1305891,-0.03013503,-0.4476976,-0.8884801,2.991903,0.3028861,1.534632,0.4180498,-0.03561325,0.2004586,0.01298244,-1.386508,0.3895149,0.1658172,0.4350234,1.496992,0.30633,-0.1193701,1.686469,0.6330674,291.7711,119.0264,164.7436,True
6,2.555555,0.02937311,0.07288021,-0.3228747,-1.50752,1.016689,-1.316141,0.1906557,1.517725,0.5661106,-0.5891184,0.1417959,11.88329,11.50632,-0.1393225,0.2043066,-0.05598262,-0.4455447,-0.8991644,3.001065,0.3021854,1.534888,0.4173703,-0.0217367,0.2207073,0.01605261,-1.385758,0.3928053,0.1649621,0.4344675,1.497186,0.3059437,-0.1191679,1.686982,0.6335984,291.6619,117.9584,165.8753,True
6,2.566666,0.1042702,-0.04296654,-0.2928092,-1.503551,1.013317,-1.319634,0.190564,1.518091,0.565573,-0.5908026,-0.1566107,11.27321,10.15642,-0.01650864,0.008389744,0.04912486,-0.4506154,-0.8867732,2.985783,0.3019584,1.535541,0.4167144,0.06331517,0.2548714,0.001356527,-1.385492,0.3969556,0.1607023,0.4341617,1.497128,0.3056769,-0.1186218,1.688177,0.6337602,291.8836,117.3143,166.5951,True
6,2.577777,0.08608632,-0.02391469,-0.3226644,-1.505382,1.009065,-1.319471,0.1902758,1.517924,0.5652213,-0.5899909,0.07384877,10.74271,8.82794,-0.02353711,-0.1939973,0.03380781,-0.4517643,-0.8667353,2.968553,0.3011612,1.536086,0.415952,0.08418025,0.2592081,-0.04041209,-1.386841,0.4003296,0.158645,0.4336855,1.49725,0.3053718,-0.1179437,1.689607,0.6336352,292.5861,117.3468,166.7195,True
6,2.588888,0.02931543,0.07807723,-0.3708253,-1.510947,1.004559,-1.317619,0.1898842,1.517138,0.5648475,-0.5883152,0.1506166,10.45093,7.778013,-0.03450093,-0.2759036,-0.03340434,-0.450299,-0.8517604,2.955815,0.300073,1.536408,0.4151411,0.02728749,0.2891767,-0.1814721,-1.39275,0.4056132,0.1592331,0.4332802,1.49728,0.3050694,-0.1174421,1.69069,0.6333628,293.4716,117.858,166.3691,True
6,2.599999,0.009895198,0.1642772,-0.3838204,-1.516762,1.001326,-1.316866,0.189494,1.516648,0.5646555,-0.5823992,0.538132,10.3183,7.049495,-0.06617507,-0.2001878,-0.1054298,-0.4463969,-0.8529929,2.958777,0.2990111,1.536361,0.4144094,-0.03744428,0.3105409,-0.257475,-1.397286,0.4107267,0.161089,0.4329279,1.497393,0.3047738,-0.1173104,1.690946,0.6331118,294.1714,118.5246,165.7329,True
6,2.61111,0.02364812,0.2112825,-0.3477354,-1.521449,0.9998472,-1.317518,0.1889638,1.516531,0.5644922,-0.5784604,0.3546435,10.29178,6.706661,-0.08634621,0.120448,-0.120532,-0.4422839,-0.8818541,2.986577,0.2980784,1.536126,0.4139609,-0.08624904,0.3168758,-0.2377806,-1.39873,0.4149102,0.1631687,0.4325832,1.497326,0.3044062,-0.1176789,1.69052,0.6333451,294.3248,118.6186,165.4021,True
6,2.622221,0.05142612,0.1998245,-0.2816793,-1.523186,0.9995393,-1.319193,0.188647,1.516605,0.5644195,-0.5779187,0.04615519,10.3183,6.556673,-0.005328819,0.1749399,-0.09548793,-0.4416618,-0.8904609,2.991442,0.2978113,1.536513,0.4133413,-0.0114197,0.2666991,-0.1150515,-1.395414,0.4154971,0.1603258,0.4322273,1.497363,0.3040605,-0.1182903,1.689671,0.6343453,293.9724,118.2515,165.5217,True
6,2.633332,0.03882361,0.1369944,-0.2580552,-1.523023,0.9975526,-1.318962,0.1886041,1.516391,0.5640466,-0.578184,-0.02503579,10.26525,6.299549,0.02774723,-0.009444299,-0.01838997,-0.4452859,-0.8755025,2.97644,0.2975921,1.53668,0.4127626,0.03514501,0.2293567,-0.04527143,-1.393255,0.4163551,0.1580932,0.43185,1.497329,0.3036778,-0.1189378,1.688717,0.636114,293.363,117.6841,166.1432,True
6,2.644443,0.0336362,0.08263439,-0.2653652,-1.522945,0.9941324,-1.318914,0.1885429,1.515954,0.5634527,-0.578168,0.001009773,10.2122,6.170985,-0.0252915,-0.1927428,-0.05246116,-0.4449705,-0.8561213,2.961105,0.2973428,1.537005,0.4121058,0.02153905,0.1930988,-0.02387243,-1.392869,0.4173079,0.1581585,0.4316004,1.497258,0.3032453,-0.1195052,1.687795,0.6383113,292.7587,117.0061,167.2716,True
6,2.655554,0.05710047,0.06771472,-0.2845104,-1.52408,0.9906609,-1.320217,0.1885091,1.515495,0.5628631,-0.575409,0.2515519,10.15915,6.192414,-0.05535553,-0.2449145,-0.09921991,-0.4429252,-0.8460117,2.953611,0.296736,1.536846,0.4113975,-0.03628617,0.1643344,-0.05419769,-1.394432,0.4184883,0.1603803,0.431289,1.497244,0.3028708,-0.1198668,1.686776,0.6403964,292.3206,116.5349,168.4258,True
6,2.666665,0.1157088,0.06470501,-0.2738965,-1.525236,0.9881182,-1.323335,0.1884529,1.515112,0.5622628,-0.5746095,0.07039379,10.07958,6.428113,-0.04948386,-0.09359508,-0.1127793,-0.4406168,-0.8538156,2.961037,0.2962135,1.53653,0.4109082,-0.1270155,0.1408685,-0.0724558,-1.395833,0.4195637,0.1646784,0.4311442,1.49712,0.302552,-0.1199624,1.685635,0.6419911,291.9783,116.4915,169.1188,True
6,2.677776,0.1242217,0.0765323,-0.2430481,-1.526937,0.9867876,-1.3248,0.1881475,1.514787,0.5620151,-0.5752854,-0.06255011,9.999999,6.792371,-0.03887551,-0.05204097,-0.1042584,-0.4395952,-0.8551157,2.962231,0.2956952,1.536412,0.4104309,-0.1076505,0.1472475,-0.05347897,-1.395451,0.421478,0.1647367,0.4309401,1.496959,0.3022106,-0.1198406,1.684528,0.6430429,291.7485,116.6734,169.3415,True
6,2.688887,0.08591367,0.08086984,-0.1759149,-1.527857,0.9873626,-1.324537,0.1876922,1.514607,0.5618539,-0.5764641,-0.1076166,9.973473,7.178059,-0.01840487,-0.04034131,-0.07136967,-0.439886,-0.8552784,2.961883,0.2954849,1.536404,0.4101136,-0.04248434,0.1344866,-0.03713035,-1.395133,0.4225635,0.1628872,0.4306998,1.496765,0.3019502,-0.1195907,1.683571,0.6436921,291.6577,116.719,169.454,True
6,2.699998,0.04538454,0.110688,-0.1397364,-1.530103,0.9876051,-1.32366,0.1872178,1.514294,0.5616853,-0.574185,0.2087609,9.8939,7.392329,-0.008358434,-0.1926647,-0.06648289,-0.4404384,-0.8381588,2.946106,0.2952716,1.536316,0.4097571,-0.009408592,0.1153319,-0.03324127,-1.395358,0.4233049,0.1618424,0.4304053,1.49658,0.301641,-0.119403,1.682753,0.6441011,291.7403,116.5934,169.6377,True
6,2.711109,0.0005362295,0.1553604,-0.1206451,-1.533506,0.987822,-1.322049,0.1868266,1.514154,0.5613275,-0.5715905,0.2349228,9.840847,7.799442,-0.02843174,-0.2417328,-0.06217189,-0.4407606,-0.8277781,2.937724,0.295024,1.53622,0.4093945,-0.0020825,0.09404823,-0.04719378,-1.396292,0.4237336,0.1615018,0.430215,1.496378,0.3014858,-0.1195553,1.682165,0.6444246,291.806,116.2626,170.0054,True
6,2.72222,-0.02608363,0.1499746,-0.1174025,-1.535259,0.9870135,-1.320878,0.1865945,1.513925,0.5609419,-0.57048,0.09951882,9.814323,8.52796,0.01118927,-0.2321027,-0.03372045,-0.4414509,-0.8236923,2.932501,0.2947127,1.536181,0.4090312,-0.004676277,0.1186026,-0.0897617,-1.398479,0.4263702,0.1613929,0.4300748,1.496167,0.3012519,-0.1200882,1.681855,0.6445696,291.743,115.8675,170.4607,True
6,2.733331,-0.05157337,0.1222321,-0.1087857,-1.535884,0.9861965,-1.319393,0.1863202,1.513595,0.5605919,-0.569582,0.08139283,9.70822,9.577887,-0.005196091,-0.1607137,-0.06006293,-0.4398157,-0.8239413,2.933335,0.294156,1.536063,0.4088311,-9.58927E-05,0.1570422,-0.1590044,-1.401934,0.4300888,0.1605662,0.4299828,1.496033,0.301096,-0.1208044,1.681811,0.6444571,291.5924,115.4793,170.8062,True
6,2.744442,-0.06646077,0.1136777,-0.1076839,-1.537274,0.9853209,-1.318192,0.1860569,1.513501,0.5602911,-0.5699793,-0.03691106,9.575595,10.86351,-0.0109003,-0.061622,-0.07364618,-0.4379131,-0.8297225,2.938954,0.2938501,1.536382,0.4083412,-0.02391769,0.1655986,-0.1949688,-1.40492,0.43283,0.1612155,0.4299328,1.496051,0.3009014,-0.1214213,1.682039,0.6440802,291.425,115.1897,170.9451,True
6,2.755553,-0.05461084,0.06686285,-0.09584709,-1.536668,0.9844924,-1.317871,0.1858829,1.513432,0.5599484,-0.5697412,0.02212018,9.522545,12.19199,-0.007629402,-0.09144874,-0.07588729,-0.4372666,-0.8235804,2.933193,0.2937354,1.536618,0.4080317,-0.04167961,0.1314506,-0.163936,-1.405652,0.4331317,0.1621255,0.4299213,1.49605,0.3007779,-0.1217009,1.682408,0.6434837,291.4521,115.3251,170.6425,True
6,2.766664,-0.02038069,0.01475736,-0.09786709,-1.535623,0.9829349,-1.318696,0.1857611,1.513464,0.559634,-0.5700102,-0.0247858,9.496022,13.47761,-0.0124063,-0.182099,-0.03770097,-0.4390578,-0.8126636,2.923556,0.2934373,1.536917,0.407541,-0.04769224,0.130336,-0.1276525,-1.405736,0.4345813,0.1626403,0.4297889,1.496114,0.3006063,-0.1216713,1.68289,0.6428092,291.6414,115.5612,170.2618,True
6,2.777775,-0.003248653,-0.02143647,-0.1063008,-1.534749,0.9812598,-1.319049,0.185641,1.513487,0.5593705,-0.5709008,-0.0812121,9.549072,14.78466,-0.0388492,-0.1758408,-0.01190247,-0.4401955,-0.8091568,2.921659,0.2931632,1.537051,0.4070945,-0.04858648,0.1409722,-0.1105854,-1.406176,0.4367804,0.1627647,0.4296628,1.496153,0.3004794,-0.1214448,1.683519,0.6422219,291.8976,115.6732,170.0539,True
6,2.788886,0.004280358,-0.05020189,-0.1147515,-1.533629,0.9793347,-1.3193,0.1854288,1.513621,0.5590954,-0.5720497,-0.1044506,9.787797,16.22027,-0.05049288,-0.1003161,0.02351569,-0.4413199,-0.8133289,2.926428,0.2928343,1.537152,0.4067881,-0.0535656,0.1547749,-0.07642478,-1.405546,0.4389296,0.1631711,0.4295348,1.496199,0.3003416,-0.1210898,1.684133,0.6417435,292.2178,115.9115,169.8395,True
6,2.799997,-0.009448257,-0.08748266,-0.09972672,-1.531797,0.9782561,-1.318682,0.1851098,1.513922,0.5590229,-0.5715042,0.05055048,9.973473,17.22734,-0.07952556,-0.08435886,-0.003917913,-0.4404144,-0.8117456,2.926831,0.2925235,1.537175,0.4065931,-0.05340508,0.1504961,-0.06151788,-1.405584,0.4404823,0.1634728,0.4294657,1.49616,0.3002565,-0.1207468,1.684588,0.6414541,292.5573,116.254,169.5622,True
6,2.811108,-0.00619925,-0.1034214,-0.08796775,-1.530284,0.9772601,-1.318672,0.1848284,1.51435,0.5587952,-0.5711447,0.03223782,10.2122,18.19156,-0.0968055,-0.09711213,-0.03790018,-0.4391648,-0.807476,2.924655,0.2923201,1.537245,0.4063749,-0.03212118,0.131339,-0.0649603,-1.406284,0.4414136,0.1629114,0.4294176,1.496145,0.3001995,-0.1205483,1.684834,0.6414418,292.7816,116.5093,169.3862,True
6,2.822219,0.03008521,-0.1203112,-0.06770013,-1.528425,0.9768846,-1.320265,0.184531,1.51502,0.5585487,-0.5700933,0.09578259,10.58355,19.24148,-0.05898751,-0.2004129,-0.005408421,-0.4414861,-0.7945948,2.912405,0.2921446,1.537579,0.4061065,-0.004464395,0.1228448,-0.06952297,-1.407118,0.4426895,0.161823,0.4293988,1.496037,0.300231,-0.1206001,1.684909,0.6417319,292.8436,116.7315,169.2988,True
6,2.83333,0.03550088,-0.1511863,-0.06655072,-1.526016,0.9755897,-1.320839,0.1842145,1.515388,0.5583062,-0.5705248,-0.04030633,10.98143,20.48425,-0.05948783,-0.2953206,0.03380175,-0.4448917,-0.7807368,2.900495,0.291637,1.537904,0.4057808,0.0005650502,0.152711,-0.09724017,-1.408649,0.4457468,0.1610129,0.4293717,1.49606,0.3003054,-0.1209387,1.684911,0.6422206,292.7045,116.8878,169.3461,True
6,2.844441,-0.001829221,-0.1396188,-0.08573016,-1.525402,0.973715,-1.319406,0.1838114,1.51545,0.5580604,-0.5720635,-0.1402891,11.43236,22.04842,-0.1226442,-0.2357927,0.01738021,-0.4444278,-0.7790647,2.902724,0.2908419,1.538199,0.4055674,-0.03815487,0.1814894,-0.1298204,-1.410627,0.4491715,0.1623274,0.4293724,1.496116,0.3003278,-0.1214556,1.684881,0.6427004,292.4426,116.9903,169.4824,True
6,2.855552,-0.04465906,-0.06411769,-0.09228955,-1.527764,0.9730363,-1.317201,0.1834818,1.515264,0.5578568,-0.5710787,0.09106486,11.77719,23.48404,-0.1157034,-0.08979966,0.002743282,-0.4429721,-0.788224,2.912071,0.2902564,1.538505,0.4053099,-0.114368,0.2113249,-0.1833214,-1.413968,0.4531036,0.1656795,0.4293705,1.496258,0.3004332,-0.1220797,1.68477,0.6429986,292.2498,117.1815,169.5029,True
6,2.866663,-0.06715625,-0.01299014,-0.07323793,-1.529541,0.9733742,-1.315724,0.1831892,1.515213,0.5576878,-0.5688763,0.2004233,12.04244,24.66253,-0.07674278,0.04242972,-0.008988172,-0.4412373,-0.7999403,2.922002,0.2897633,1.538821,0.4049633,-0.1292958,0.190018,-0.1853196,-1.415768,0.4548402,0.1674337,0.4292394,1.49639,0.3005459,-0.122763,1.684522,0.6430768,292.1402,117.5471,169.2309,True
6,2.877774,-0.08410244,-0.04283994,-0.06248152,-1.527877,0.9727438,-1.314374,0.1829797,1.515245,0.5574465,-0.5679116,0.08663218,12.20159,25.60531,-0.07979269,0.03279906,0.006993914,-0.441983,-0.7993566,2.922614,0.2895858,1.53908,0.4046285,-0.07777682,0.1910734,-0.1496402,-1.41587,0.4569733,0.1659607,0.4290272,1.496461,0.3006458,-0.1234228,1.684281,0.6430436,291.9747,117.7243,168.9616,True
6,2.888885,-0.09258375,-0.05670371,-0.05924141,-1.526936,0.9719046,-1.313023,0.1826636,1.51557,0.5570126,-0.5687143,-0.07379205,12.36074,26.3124,-0.09860919,-0.07167324,0.01649485,-0.4434366,-0.7897713,2.915641,0.2895971,1.539136,0.4044831,-0.01649435,0.2315247,-0.0937667,-1.414445,0.4607033,0.163509,0.428835,1.496551,0.3007767,-0.1238771,1.684234,0.6429716,291.7505,117.4436,169.0665,True
6,2.899997,-0.06915311,-0.04589001,-0.0241331,-1.526654,0.9727964,-1.313104,0.1823602,1.516095,0.5566711,-0.5691537,-0.03930179,12.38727,26.52667,-0.1198872,-0.1175151,0.004844427,-0.4437476,-0.7830567,2.911691,0.2896076,1.539151,0.4043291,0.02109345,0.2560156,-0.06322996,-1.413603,0.4643458,0.1616089,0.4287598,1.496647,0.3008442,-0.1240561,1.684451,0.6428167,291.6494,117.2315,169.2484,True
6,2.911108,0.0001132931,-0.03485084,0.04609511,-1.525841,0.9757511,-1.315766,0.1818648,1.516554,0.5563085,-0.5693151,-0.01440614,12.36074,26.2267,-0.09176162,-0.2144274,0.02570821,-0.4458963,-0.77148,2.901365,0.2896704,1.539325,0.4042766,0.07364362,0.2602688,-0.02968251,-1.412259,0.467256,0.1584573,0.4287723,1.496709,0.3009419,-0.1240307,1.684902,0.6424986,291.7158,117.5037,169.1177,True
6,2.922219,0.01705832,0.01325591,0.09069838,-1.526941,0.9787005,-1.316679,0.1813409,1.516629,0.5558903,-0.5707319,-0.1293823,12.22811,25.36962,-0.1009931,-0.2911966,0.04477569,-0.4483293,-0.7594193,2.891913,0.2892992,1.539591,0.4040167,0.08414069,0.2294023,-0.04688157,-1.413326,0.4688429,0.1570639,0.4288013,1.496717,0.30094,-0.1239547,1.68568,0.6420345,291.8331,117.6996,169.0459,True
6,2.93333,-0.0247383,0.09723961,0.07026505,-1.530671,0.9798359,-1.314951,0.180743,1.516293,0.5554452,-0.5730057,-0.207243,12.06897,24.1697,-0.1523006,-0.3274774,0.01100804,-0.4485663,-0.7476995,2.884923,0.2885686,1.539836,0.4038134,0.012197,0.1772196,-0.1047952,-1.416427,0.4695153,0.1591462,0.4288357,1.496812,0.3010123,-0.1238997,1.686673,0.6413675,292.0608,117.5096,169.303,True
6,2.944441,-0.07490597,0.1247236,0.04358795,-1.533016,0.9798346,-1.312336,0.1801322,1.515896,0.5551934,-0.5707708,0.2052914,11.96286,23.09835,-0.1740998,-0.2198767,-0.01308541,-0.4470462,-0.7506857,2.890396,0.287846,1.539929,0.4035714,-0.05853909,0.147404,-0.1467069,-1.41927,0.4707479,0.1621239,0.4288077,1.49684,0.3010693,-0.1240082,1.687497,0.6403762,292.5031,117.0798,169.7706,True
6,2.955552,-0.1559998,0.1606189,0.008397065,-1.536238,0.9795035,-1.307593,0.1795301,1.515372,0.5548911,-0.5670083,0.3410796,11.90981,22.15556,-0.15988,-0.04293725,-0.03942445,-0.4441801,-0.7636092,2.903312,0.2870966,1.539977,0.4033749,-0.1258595,0.1207585,-0.1684152,-1.421648,0.4718105,0.1654049,0.4286327,1.496873,0.3012278,-0.1244427,1.68793,0.6391373,292.8924,116.5625,170.14,True
6,2.966663,-0.1698082,0.1510563,0.02760406,-1.537506,0.9808012,-1.305264,0.1791564,1.515484,0.5546401,-0.56484,0.194449,11.88329,21.34133,-0.1565445,-0.02487421,-0.01491762,-0.4446126,-0.7646713,2.905895,0.2868924,1.539974,0.4031529,-0.07310125,0.1462916,-0.1135356,-1.420751,0.4740906,0.1642989,0.4284143,1.496829,0.3013091,-0.1252067,1.688046,0.6379504,293.0327,116.2363,170.0855,True
6,2.977774,-0.128184,0.1256508,0.04256086,-1.537745,0.9819776,-1.305369,0.1787889,1.515751,0.5542541,-0.561576,0.2961321,11.88329,20.59138,-0.1498079,-0.09522285,0.005111046,-0.44626,-0.7564003,2.899966,0.2869278,1.540072,0.4028015,-0.04098091,0.1580058,-0.09787697,-1.420976,0.4762582,0.1632414,0.4282906,1.49683,0.3013949,-0.1261397,1.687969,0.6370807,292.9705,116.2613,169.631,True
6,2.988885,-0.05561451,0.0789714,0.03837552,-1.536984,0.9820983,-1.307214,0.1786086,1.515985,0.5537059,-0.5625017,-0.0880322,11.85676,19.77716,-0.1531095,-0.2573093,0.07081785,-0.4512359,-0.7395108,2.886518,0.2870477,1.54005,0.4023321,0.07135736,0.2230072,-0.04783306,-1.419061,0.4809306,0.1578586,0.4280943,1.496775,0.3014793,-0.1270036,1.687934,0.6366352,292.6572,116.1666,169.4264,True
6,2.999996,-0.02253116,0.04810116,0.01073131,-1.536911,0.9810278,-1.307835,0.1784414,1.516101,0.5533412,-0.5636399,-0.1043381,11.77719,18.9415,-0.1738763,-0.3746156,0.09947111,-0.4550399,-0.7234583,2.874801,0.2868547,1.540064,0.4018373,0.1107747,0.260314,-0.04500725,-1.419028,0.4850239,0.1550415,0.4280402,1.496659,0.3015935,-0.1276166,1.688053,0.6364428,292.3449,115.9777,169.6035,True
6,3.011107,0.003058353,0.02672382,-0.04142807,-1.537006,0.9786252,-1.308738,0.1783486,1.515793,0.5528746,-0.5636171,0.00127367,11.77719,18.23441,-0.2282417,-0.4460717,0.07097299,-0.456844,-0.7076847,2.864887,0.2862622,1.540179,0.4012098,0.1128844,0.275231,-0.04607624,-1.41903,0.4887309,0.1531041,0.4279802,1.496536,0.3016195,-0.1279589,1.688168,0.6362867,292.2699,115.8488,169.9292,True
6,3.022218,0.001851376,0.062787,-0.1011829,-1.540036,0.9761536,-1.308553,0.1781963,1.515274,0.5525725,-0.5602055,0.3099393,11.90981,17.67731,-0.2403701,-0.3799848,0.04138631,-0.4567364,-0.703226,2.863907,0.2856396,1.54038,0.4006796,0.0488941,0.2613474,-0.0539518,-1.419559,0.4911546,0.1544293,0.4280268,1.496526,0.3015811,-0.1281275,1.688027,0.6361037,292.4172,115.9295,170.0238,True
6,3.033329,-0.01320725,0.09557182,-0.171565,-1.5432,0.97274,-1.307737,0.1780305,1.514657,0.5523336,-0.5578438,0.2113347,12.14854,17.24877,-0.1771933,-0.1975777,0.0104106,-0.4547752,-0.7118081,2.871413,0.2847752,1.540713,0.400085,-0.06979473,0.2559948,-0.09639318,-1.421499,0.4941716,0.158596,0.4279767,1.496491,0.301542,-0.1282984,1.687584,0.6360749,292.5568,116.0892,169.8905,True
6,3.04444,-0.02073549,0.1049804,-0.2291151,-1.545722,0.9687935,-1.307112,0.1778702,1.514091,0.5520489,-0.5542166,0.328177,12.49337,16.94879,-0.1450235,-0.1184739,-0.07062908,-0.4511129,-0.7124222,2.872373,0.2841778,1.540933,0.3994915,-0.1496758,0.262333,-0.09342478,-1.422012,0.4975476,0.1623559,0.4278958,1.496427,0.3014452,-0.1284732,1.686754,0.6363721,292.6182,116.2261,169.6971,True
6,3.055551,0.05488993,0.1051536,-0.2440834,-1.547703,0.9662259,-1.310118,0.177858,1.513958,0.5517459,-0.5509409,0.2950216,12.91777,16.58453,-0.1291487,-0.1450247,-0.09318253,-0.4503448,-0.7048271,2.866623,0.2838792,1.540994,0.3989885,-0.1311638,0.2537768,-0.05528159,-1.420955,0.4999825,0.1625106,0.4276891,1.496422,0.3014743,-0.1286957,1.685687,0.6372324,292.4887,116.013,169.8462,True
6,3.066662,0.1253145,0.05948979,-0.2642497,-1.547756,0.9624871,-1.313796,0.1777606,1.513658,0.5514052,-0.5485366,0.2156546,13.31565,16.07028,-0.112796,-0.2525999,-0.08290227,-0.4515773,-0.690339,2.85428,0.2834679,1.541106,0.3983595,-0.04190048,0.2654528,0.02583349,-1.417356,0.5028217,0.1594192,0.4275305,1.496269,0.301352,-0.1289005,1.684511,0.6387231,292.2046,115.7503,170.2189,True
6,3.077773,0.2138705,-0.006484628,-0.3291144,-1.546916,0.9562625,-1.318842,0.1777876,1.513172,0.5511377,-0.5494666,-0.08870091,13.7931,15.47032,-0.1720256,-0.3859446,-0.07420472,-0.453865,-0.6705925,2.840461,0.2830453,1.541243,0.3975356,-0.00639841,0.3069814,0.06172819,-1.415007,0.5073976,0.1577587,0.4273908,1.496154,0.3013549,-0.1289796,1.683313,0.6407122,291.8091,115.4692,170.8503,True
6,3.088884,0.2852486,-0.02026594,-0.3781324,-1.547604,0.9504094,-1.324287,0.1779679,1.512489,0.5505631,-0.5475875,0.1705669,14.27056,14.87037,-0.2384481,-0.33705,-0.1044623,-0.4524285,-0.6642672,2.839694,0.2824453,1.541578,0.3966866,-0.06195563,0.320812,0.04741032,-1.414246,0.5114155,0.1595937,0.4273274,1.496106,0.3012476,-0.1289019,1.681985,0.6429181,291.541,115.1526,171.7268,True
6,3.099995,0.3106804,0.01591748,-0.4165986,-1.550533,0.9452409,-1.328185,0.1782141,1.511714,0.5499914,-0.5459661,0.144458,14.64191,14.03471,-0.2633425,-0.2209698,-0.114665,-0.4501957,-0.6674028,2.846073,0.2818319,1.541768,0.3957834,-0.104782,0.3027102,0.02546564,-1.414302,0.5142488,0.1617551,0.4272228,1.49597,0.3010454,-0.1288059,1.68031,0.6451496,291.4336,115.1913,172.3108,True
6,3.111106,0.3008825,0.08723807,-0.4263765,-1.555249,0.9411289,-1.331166,0.1787185,1.510865,0.5494537,-0.5433685,0.234228,14.93369,13.0705,-0.2692811,0.009106815,-0.113025,-0.4468134,-0.6847081,2.864881,0.2815658,1.541759,0.3949721,-0.1315314,0.2622284,0.01184556,-1.414403,0.5158501,0.1638885,0.4271332,1.495867,0.3008943,-0.128753,1.678077,0.6474094,291.3422,115.5496,172.4423,True
6,3.122217,0.236916,0.1159532,-0.3784657,-1.557977,0.9394751,-1.331385,0.179188,1.510304,0.5490797,-0.538799,0.4138272,15.09284,11.97771,-0.2202533,0.09758645,-0.08018716,-0.4459825,-0.6938693,2.873743,0.2816426,1.541459,0.3942597,-0.117539,0.2494413,0.02446262,-1.413272,0.5180934,0.1641333,0.4270692,1.495756,0.3006847,-0.1287364,1.675215,0.6497284,291.0428,115.4919,172.8627,True
6,3.133328,0.248831,0.0618118,-0.3218592,-1.557307,0.9376656,-1.334497,0.1794746,1.510148,0.5488107,-0.5351159,0.3318173,15.17241,10.84208,-0.1684871,-0.02806766,-0.04359498,-0.4480295,-0.6837248,2.864758,0.2821939,1.541124,0.3937652,-0.02885881,0.2515984,0.04910865,-1.411379,0.5207786,0.1607806,0.4271291,1.495598,0.3004074,-0.1287723,1.67198,0.6521467,290.3893,114.7968,173.8573,True
6,3.144439,0.2542872,0.02032986,-0.3068372,-1.556879,0.9344685,-1.337608,0.1797219,1.509772,0.5487165,-0.5302194,0.4440153,15.25199,9.835011,-0.08935046,-0.3124638,0.03183652,-0.4544652,-0.6571375,2.83929,0.2825761,1.541084,0.3933663,0.1081914,0.2079387,0.1126136,-1.407863,0.5212756,0.1549225,0.4274501,1.495443,0.3000677,-0.1287544,1.668723,0.654557,289.5043,113.6673,175.3268,True
6,3.15555,0.2200785,0.0574626,-0.3260877,-1.559767,0.9307161,-1.338854,0.1798201,1.509069,0.5485258,-0.5312554,-0.09920257,15.17241,8.806512,-0.05786374,-0.4786054,0.05038039,-0.4589362,-0.6344771,2.818652,0.2823936,1.541091,0.3929944,0.1230649,0.1877119,0.1071095,-1.406633,0.5225406,0.1529296,0.4275714,1.495346,0.2997959,-0.128751,1.665969,0.6566954,288.5406,112.5884,176.9194,True
6,3.166661,0.1331744,0.2745667,-0.3117181,-1.57056,0.9299836,-1.337319,0.1796775,1.507856,0.5484152,-0.530237,0.09347095,15.01326,8.270836,-0.03188409,-0.3077063,-0.1092381,-0.4521802,-0.6344967,2.818218,0.2818124,1.540902,0.3926094,0.01713204,0.1429668,0.06021938,-1.407579,0.522976,0.1564751,0.4277296,1.495224,0.2994525,-0.1288301,1.663896,0.6582906,287.9499,112.4247,177.6037,True
6,3.177772,0.1180722,0.3502702,-0.2724879,4.706339,0.9299638,-1.338307,0.1796744,1.507096,0.5481482,-0.5271589,0.2797986,14.82759,8.313689,-0.01172841,-0.129513,-0.1973898,-0.4461215,-0.6423404,2.824472,0.2815711,1.540707,0.3919792,-0.0694498,0.08755565,0.02909376,-1.408401,0.5222095,0.1602938,0.4276903,1.495013,0.299161,-0.1289457,1.662382,0.6593701,287.7605,112.692,177.5231,True
6,3.188883,0.1553626,0.3665487,-0.203316,4.701786,0.9311021,-1.341265,0.1797053,1.506553,0.5478244,-0.5232584,0.3538666,14.61538,8.935076,-0.008368134,-0.06430501,-0.2888829,-0.4395654,-0.6415832,2.823735,0.2819236,1.54067,0.3917239,-0.08844881,-0.02965119,0.03873686,-1.40844,0.5176898,0.1629636,0.427757,1.494874,0.2988577,-0.1289752,1.661393,0.6602007,287.7471,112.1571,177.8655,True
6,3.199994,0.1810425,0.3434015,-0.1265675,4.699411,0.9326599,-1.344138,0.1799449,1.50606,0.5472407,-0.5249186,-0.1546943,14.40318,10.02785,0.02247952,-0.2092949,-0.2106346,-0.4424213,-0.6244804,2.807109,0.2826876,1.540575,0.3916488,-0.03709531,-0.06053338,0.05734105,-1.407319,0.5160787,0.1615766,0.4278067,1.494865,0.2986467,-0.1287308,1.661036,0.6609736,287.7598,110.1801,179.5647,True
6,3.211105,0.159718,0.3594237,-0.08931115,4.695071,0.9339572,-1.345166,0.1799814,1.505493,0.546593,-0.5266374,-0.1558043,14.08488,11.16349,0.04868662,-0.452428,-0.07823858,-0.4502287,-0.59923,2.783024,0.2830827,1.540478,0.3914881,0.03345837,-0.06584266,0.08003633,-1.405804,0.5148363,0.1589462,0.4279034,1.49483,0.2985446,-0.1281079,1.661092,0.6615061,287.9515,108.8135,180.9958,True
6,3.222216,0.1564175,0.3999867,-0.05639986,4.689428,0.9355273,-1.346501,0.17993,1.504705,0.5459671,-0.5261021,0.0496775,13.71353,12.23484,0.03400502,-0.5100208,-0.06973447,-0.4522969,-0.5826353,2.768197,0.283284,1.540439,0.3912904,0.07696405,-0.02638265,0.06577884,-1.405447,0.5159499,0.1566591,0.4281788,1.494788,0.2984715,-0.1272315,1.661201,0.6615911,288.3614,108.1837,181.905,True
6,3.233327,0.1541964,0.4351708,-0.04264191,4.683649,0.9368479,-1.348235,0.1796951,1.503752,0.5453773,-0.5236099,0.2269186,13.31565,13.24191,0.03150818,-0.3928387,-0.07476446,-0.4513472,-0.5809969,2.76655,0.2831339,1.540466,0.3910756,0.07979678,0.002422949,0.03275859,-1.406072,0.5171283,0.1554503,0.4282542,1.494767,0.298382,-0.1263684,1.661094,0.6611407,288.8185,107.8148,182.5138,True
6,3.244438,0.1058437,0.5885504,-0.005758166,4.672338,0.9404572,-1.347767,0.1792092,1.502657,0.5450082,-0.5232563,0.03007164,13.02387,14.20613,-0.0192805,-0.1958419,-0.09734754,-0.4477775,-0.5894755,2.776039,0.283084,1.540428,0.3909681,0.05500388,0.009897077,0.005328398,-1.406958,0.5175996,0.1557768,0.4283019,1.494737,0.2983775,-0.1258412,1.660848,0.6603659,289.1331,107.1444,183.1721,True
6,3.255549,0.04481804,0.707926,0.07810718,4.661882,0.9466345,-1.345938,0.1787148,1.501729,0.5446243,-0.5233543,-0.009205252,12.7321,14.61324,-0.06673738,-0.1276825,-0.1468794,-0.4447095,-0.5874951,2.776587,0.2833672,1.540128,0.3909459,0.06141058,-0.01992819,0.005226268,-1.406982,0.5162545,0.1551323,0.4282408,1.494817,0.2982762,-0.1256993,1.660449,0.6594599,289.3624,106.3146,183.7768,True
6,3.26666,0.005384572,0.730372,0.1451856,4.653982,0.9523684,-1.344419,0.1781964,1.50107,0.544153,-0.5210379,0.2117158,12.38727,14.4204,-0.03494664,-0.1094505,-0.1620029,-0.4427132,-0.5842993,2.773134,0.2837771,1.53971,0.3910642,0.1391114,-0.0102835,-0.0008988604,-1.407199,0.5163637,0.1510606,0.4281347,1.494823,0.2983661,-0.1259522,1.659876,0.6586472,289.5316,105.2308,184.5024,True
6,3.277771,0.008724712,0.6814489,0.1676894,4.649044,0.955936,-1.344529,0.1778419,1.500603,0.5438359,-0.5195353,0.135554,11.98939,13.58474,0.006880537,-0.1743616,-0.1486357,-0.4433615,-0.5737119,2.762036,0.2843158,1.539332,0.3911974,0.1681237,0.01314053,0.02439549,-1.40601,0.5171527,0.148304,0.4280759,1.494756,0.298368,-0.1265253,1.65932,0.6580918,289.5516,103.0069,186.3142,True
6,3.288882,0.02070621,0.5963202,0.1892275,4.646094,0.9595436,-1.344937,0.1773044,1.500391,0.5433385,-0.5198656,-0.03086104,11.53846,12.32055,0.03751886,-0.3554735,-0.1088161,-0.4472896,-0.5520737,2.741011,0.2848035,1.539122,0.3914218,0.2113142,0.05996922,0.08259723,-1.402906,0.5189607,0.1442432,0.4280844,1.494727,0.2984326,-0.127222,1.658921,0.6575521,289.4496,100.4797,188.6422,True
6,3.299993,0.02401149,0.5654998,0.2116884,4.641625,0.9636803,-1.345214,0.1767201,1.500111,0.5429819,-0.5215482,-0.153326,11.14058,11.03493,0.02961591,-0.4206147,-0.05244145,-0.4512205,-0.5390772,2.729487,0.2849588,1.538898,0.3916721,0.2189336,0.06421772,0.09850574,-1.401257,0.519474,0.1416511,0.4280267,1.494686,0.2984838,-0.1279179,1.658776,0.6567668,289.3416,98.80958,190.253,True
6,3.311104,0.01866897,0.5740427,0.2244516,4.635842,0.9680077,-1.344932,0.1761064,1.499721,0.5425131,-0.5220163,-0.04159582,10.6366,9.899292,0.01875167,-0.4078082,-0.07469782,-0.4514298,-0.5291631,2.720718,0.284995,1.53868,0.3918166,0.1932226,0.04823998,0.08383916,-1.400806,0.5194353,0.140404,0.4279946,1.494599,0.2985609,-0.1285261,1.65883,0.6557002,289.3569,98.24682,190.6939,True
6,3.322215,-0.005813137,0.5708109,0.2383339,4.630231,0.9725953,-1.343743,0.1755309,1.499449,0.5421407,-0.5218629,0.01418346,10.05305,9.020782,-0.02670614,-0.3076593,-0.1295028,-0.4479991,-0.5265088,2.720268,0.2848557,1.538519,0.3918312,0.1321959,-0.003957648,0.05138649,-1.40164,0.5176666,0.1412525,0.4279297,1.494539,0.2986243,-0.1291065,1.659033,0.6544198,289.5121,97.96283,190.7714,True
6,3.333326,-0.04407562,0.5408878,0.2448415,4.626131,0.9766104,-1.341711,0.1751796,1.499043,0.5417221,-0.5212253,0.05803873,9.363397,8.313689,-0.03648178,-0.1298736,-0.09172264,-0.4463767,-0.5365765,2.730111,0.284866,1.538281,0.3917651,0.09988122,-0.01778398,0.01654953,-1.402759,0.5171259,0.1413595,0.4278956,1.494466,0.2987332,-0.1297071,1.65934,0.653046,289.7665,97.29915,191.1147,True
6,3.344437,-0.111039,0.4928232,0.2663178,4.623131,0.9809969,-1.337895,0.1748388,1.49887,0.5415251,-0.5202736,0.08646876,8.541114,7.799442,-0.05617866,-0.0811196,-0.006237124,-0.4485967,-0.5406181,2.734906,0.2850927,1.537904,0.3917465,0.1004612,-0.008138413,-0.02925931,-1.404569,0.5178087,0.1400508,0.4278447,1.494449,0.2989793,-0.1303204,1.65971,0.6516633,290.0161,96.30763,191.7541,True
6,3.355548,-0.1352711,0.4022411,0.2772475,4.622148,0.9848727,-1.33545,0.1745027,1.498943,0.541306,-0.5193947,0.07975615,7.665781,7.563743,-0.04181135,-0.1280783,0.04361372,-0.4519683,-0.535581,2.73039,0.2855074,1.537571,0.3917773,0.1473807,-0.003845457,-0.02441735,-1.404549,0.5179986,0.136757,0.4277539,1.494419,0.2991817,-0.1308993,1.660144,0.6503062,290.1822,95.38644,192.3555,True
6,3.366659,-0.1083631,0.3021005,0.2487513,4.622429,0.9867517,-1.334944,0.1740333,1.499165,0.5410783,-0.5177904,0.1462583,6.949602,7.778013,-0.02370386,-0.2975598,0.1144706,-0.4590858,-0.5205971,2.715987,0.2858514,1.537335,0.391789,0.1814693,0.01215484,-0.02368768,-1.404625,0.5186921,0.1334662,0.4275355,1.494337,0.2993848,-0.1313296,1.660626,0.6489468,290.2699,94.7866,192.681,True
6,3.37777,-0.09434303,0.2392433,0.2308068,4.621994,0.9888266,-1.334258,0.1735595,1.499256,0.5409818,-0.5192519,-0.1345756,6.419097,8.420825,-0.03237906,-0.3283955,0.08143662,-0.4604398,-0.5112621,2.707982,0.2858498,1.537247,0.3920968,0.1608318,0.04840573,-0.05858552,-1.406226,0.5206615,0.1322512,0.4273055,1.49432,0.2995474,-0.1316502,1.661366,0.6476308,290.281,94.3191,192.9287,True
6,3.388881,-0.06545638,0.1913143,0.2042916,4.621829,0.9902799,-1.334353,0.1730424,1.499375,0.5407634,-0.5213931,-0.1943409,6.100796,9.406469,-0.04699346,-0.2356033,0.01678095,-0.4584355,-0.5102336,2.708095,0.2854375,1.537286,0.3921671,0.1128391,0.1027072,-0.06014944,-1.406611,0.5236964,0.1320393,0.4271265,1.494408,0.2997208,-0.1318774,1.662407,0.6463253,290.3779,94.36594,192.751,True
6,3.399992,-0.06324284,0.1614471,0.186264,4.621053,0.9920868,-1.33356,0.1724325,1.499291,0.5405486,-0.5214725,-0.005632463,6.100796,10.5421,-0.07958914,-0.1248011,-0.02531838,-0.455931,-0.5137086,2.713094,0.2849335,1.537447,0.3921356,0.08876687,0.1164921,-0.01832882,-1.405075,0.5251904,0.1314749,0.4268666,1.494393,0.2999327,-0.1320836,1.663589,0.6451081,290.6558,94.94704,192.0238,True
6,3.411103,-0.06521521,0.1028008,0.1693937,4.622023,0.9933891,-1.332519,0.1719387,1.499441,0.5401742,-0.5221053,-0.05806318,6.366048,11.35633,-0.1019025,-0.07485044,-0.0005240567,-0.4562996,-0.5162977,2.717339,0.2845646,1.537423,0.3921616,0.08205783,0.09296472,0.05202587,-1.402047,0.5250631,0.1308129,0.4266354,1.494484,0.300142,-0.1322985,1.664696,0.6440676,291.0246,95.38736,191.3881,True
6,3.422215,-0.06190116,0.06339064,0.1684411,4.623065,0.9951183,-1.33186,0.1713814,1.499414,0.5399313,-0.5212339,0.0800787,6.657823,11.87058,-0.1207967,-0.08244109,0.03369222,-0.458403,-0.5147211,2.718017,0.2843038,1.537434,0.392247,0.06623541,0.05777665,0.06492964,-1.401153,0.524231,0.1305942,0.4263001,1.494382,0.3003798,-0.1325668,1.665527,0.6432395,291.3828,95.66817,190.9724,True
