ref,t,emg1,emg2,emg1raw,emg2raw,aDotS,bDotS,gDotS,aS,bS,gS,aDotSH,bDotSH,gDotSH,aSH,bSH,gSH
0,0,94,206,498,497,0.196194,-0.3445409,0.3824209,-1.398959,-3.078789,-1.622055,0.09065249,0.1154953,-0.1770302,-0.8281014,-2.429798,1.065582
0,0.01111111,100,348,497,494,0.1887646,-0.3552434,0.3845827,-1.40341,-3.074656,-1.624393,0.07682903,0.1399772,-0.1642143,-0.8306836,-2.427898,1.063236
0,0.02222222,100,348,497,494,0.1727845,-0.3563769,0.3888235,-1.408054,-3.070864,-1.626502,0.07073486,0.1560407,-0.1109398,-0.8316285,-2.425262,1.060821
0,0.03333334,100,348,497,494,0.1587837,-0.3329457,0.4025442,-1.413079,-3.06808,-1.628372,0.06265621,0.1540107,-0.05443173,-0.8320562,-2.422656,1.057978
0,0.04444445,100,348,497,494,0.1640575,-0.3264742,0.4131749,-1.418157,-3.064867,-1.630827,0.04805966,0.1487129,-0.01064305,-0.8319001,-2.420244,1.05629
0,0.05555556,100,348,497,494,0.1799685,-0.3199373,0.4270085,-1.423357,-3.061724,-1.633685,0.03660864,0.1306128,0.01397807,-0.8317787,-2.418476,1.054655
0,0.06666667,95,333,498,495,0.1822132,-0.3370262,0.415371,-1.427919,-3.057795,-1.636339,-0.002083708,0.1346161,-0.03264896,-0.8340552,-2.417776,1.055257
0,0.07777778,95,333,498,495,0.1857631,-0.3956954,0.3922322,-1.432159,-3.052196,-1.639182,-0.04068663,0.1322456,-0.07071644,-0.8361724,-2.417212,1.056373
0,0.08888889,95,333,498,495,0.1851958,-0.475729,0.3606619,-1.435948,-3.045426,-1.642193,-0.04843298,0.1577333,-0.09840015,-0.8387647,-2.415323,1.055756
0,0.1,95,333,498,495,0.1857491,-0.5685291,0.3355375,-1.43967,-3.036993,-1.645418,-0.04428889,0.1758448,-0.1059238,-0.841136,-2.413419,1.054732
0,0.1111111,96,261,499,499,0.1796517,-0.6144673,0.3155115,-1.443407,-3.029477,-1.648279,-0.03246566,0.1780595,-0.08574471,-0.842131,-2.411242,1.053654
0,0.1222222,96,261,499,499,0.1808162,-0.633616,0.3198657,-1.447644,-3.022109,-1.651249,-0.00785787,0.1664601,-0.07736616,-0.8434652,-2.409816,1.052161
0,0.1333333,96,261,499,499,0.17204,-0.594147,0.3430865,-1.452457,-3.016924,-1.653626,-0.001450095,0.1569014,-0.08164905,-0.8451888,-2.408614,1.051169
0,0.1444445,96,261,499,499,0.1654215,-0.5568371,0.3556822,-1.457158,-3.012105,-1.655825,-0.007646233,0.1430672,-0.06133765,-0.84591,-2.407286,1.050528
0,0.1555556,96,261,499,499,0.1351624,-0.4812939,0.3659504,-1.461845,-3.009278,-1.656829,-0.02005577,0.09725462,-0.03452177,-0.8454407,-2.407212,1.051053
0,0.1666667,89,299,499,497,0.1060817,-0.4249747,0.3698929,-1.466263,-3.006412,-1.657514,-0.01984146,0.0674535,-0.02061746,-0.8453757,-2.407205,1.051292
0,0.1777778,89,299,499,497,0.09313066,-0.3941803,0.3686386,-1.470492,-3.002955,-1.658648,-0.01122147,0.05685285,-0.01318747,-0.8454791,-2.406564,1.050704
0,0.1888889,89,299,499,497,0.07379133,-0.3644606,0.3684608,-1.474789,-3.000065,-1.659227,0.0004323181,0.0643495,-0.01754433,-0.8462695,-2.405647,1.049805
0,0.2,89,299,499,497,0.06303912,-0.3537484,0.3928974,-1.480166,-2.99681,-1.659989,-0.009360023,0.08557995,-0.03561795,-0.8476986,-2.40432,1.049209
0,0.2111111,89,299,499,497,0.06829615,-0.3398774,0.3896427,-1.484617,-2.993834,-1.661198,-0.008353515,0.09730862,-0.03777767,-0.848824,-2.402868,1.048255
0,0.2222222,89,253,500,502,0.08509521,-0.296093,0.3926564,-1.489182,-2.992064,-1.662747,-0.003112022,0.1090381,-0.04316342,-0.8501726,-2.401533,1.047249
0,0.2333333,89,253,500,502,0.1060458,-0.2331251,0.3945323,-1.49383,-2.991395,-1.664498,0.001190823,0.1197475,-0.03149355,-0.8510509,-2.399458,1.045653
0,0.2444444,89,253,500,502,0.1391471,-0.03511228,0.3275926,-1.495298,-2.996201,-1.666632,-0.003121473,0.1463775,-0.02300068,-0.8523165,-2.396821,1.044076
0,0.2555556,89,253,500,502,0.1011706,0.1018563,0.274691,-1.49669,-3.000801,-1.666124,-0.006364115,0.1538302,-0.02512151,-0.8536241,-2.394661,1.0428
0,0.2666667,89,323,499,498,0.06200957,0.2737993,0.1864512,-1.495727,-3.008214,-1.665154,-0.01491005,0.1228585,-0.04630953,-0.8548316,-2.394867,1.04343
0,0.2777778,89,323,499,498,-0.03967609,0.3763501,0.1399884,-1.49559,-3.014777,-1.661975,-0.026304,0.03758512,-0.05031796,-0.854382,-2.397504,1.045779
0,0.2888889,89,323,499,498,-0.1269543,0.3756572,0.09510593,-1.495427,-3.018642,-1.658093,-0.0270035,-0.06575204,-0.05862867,-0.8534707,-2.401586,1.048798
0,0.3,89,323,499,498,-0.1030068,0.2925275,0.05928873,-1.495213,-3.020941,-1.656822,-0.02353871,-0.1445869,-0.06701845,-0.8524454,-2.406547,1.052253
0,0.3111111,89,323,499,498,-0.05994101,0.2149293,0.04698285,-1.495497,-3.020363,-1.658069,-0.01929854,-0.1573714,-0.07873058,-0.8524176,-2.409225,1.053993
0,0.3222222,90,259,499,498,0.02286721,0.07790329,0.03498521,-1.4958,-3.017602,-1.660717,-0.02058434,-0.1233097,-0.09050738,-0.8534063,-2.410604,1.055155
0,0.3333333,90,259,499,498,0.04989913,0.004481487,0.02260045,-1.495948,-3.015925,-1.661584,-0.03468578,-0.03491135,-0.07459529,-0.8546755,-2.408247,1.054353
0,0.3444445,90,259,499,498,0.05583993,-0.09998529,0.001789856,-1.49564,-3.012107,-1.662611,-0.05071538,0.05993462,-0.02566793,-0.8553637,-2.404012,1.052413
0,0.3555556,90,259,499,498,0.05697236,-0.1127849,-0.00347598,-1.495581,-3.010708,-1.663177,-0.04417565,0.104799,0.02320457,-0.8551879,-2.400245,1.050271
0,0.3666667,88,274,499,498,0.06649162,-0.1010045,-0.001389371,-1.495658,-3.00995,-1.664233,-0.03985131,0.1187053,0.03913822,-0.8552561,-2.397927,1.048884
0,0.3777778,88,274,499,498,0.06738248,-0.07220481,0.002738328,-1.495826,-3.010146,-1.664861,-0.03781591,0.1101544,0.01996521,-0.855973,-2.396868,1.048556
0,0.3888889,88,274,499,498,0.06706425,-0.01571896,0.007789687,-1.495854,-3.01162,-1.665521,-0.037876,0.09307724,0.001893518,-0.856626,-2.39642,1.048791
0,0.4,88,274,499,498,0.05399532,0.0374308,0.001120142,-1.495483,-3.013275,-1.665584,-0.02501394,0.04409148,-0.01620936,-0.8568087,-2.397781,1.049631
0,0.4111111,88,274,499,498,0.03781518,0.07671405,-0.003368985,-1.494962,-3.014688,-1.66561,-0.00349942,-0.01655915,-0.02156293,-0.8561829,-2.399944,1.050612
0,0.4222222,83,219,499,508,0.02485478,0.1096518,-0.006741574,-1.494592,-3.016764,-1.665394,0.007247303,-0.04635163,-0.02583935,-0.8558787,-2.401719,1.051415
0,0.4333333,83,219,499,508,0.01840462,0.1213362,-0.004692155,-1.494267,-3.01821,-1.6655,0.01895556,-0.07190428,-0.04398562,-0.8561376,-2.403938,1.052258
0,0.4444444,83,219,499,508,0.0076771,0.1351209,-0.005839869,-1.493967,-3.020096,-1.66513,0.02098049,-0.07619166,-0.06210078,-0.8567171,-2.405743,1.053175
0,0.4555556,83,219,499,508,-0.0008456083,0.1382433,-0.007992915,-1.493747,-3.021431,-1.664996,0.01137065,-0.07089455,-0.06204705,-0.8570489,-2.406728,1.05397
0,0.4666667,84,270,499,499,-0.01147467,0.1328532,-0.006907115,-1.49373,-3.022623,-1.664481,0.003980268,-0.05383705,-0.04178695,-0.8568699,-2.406702,1.054114
0,0.4777778,84,270,499,499,-0.01140116,0.1190147,-0.004711911,-1.493639,-3.023593,-1.664286,-0.007707948,-0.004816186,-0.007711874,-0.8567426,-2.404749,1.053234
0,0.4888889,84,270,499,499,-0.01557859,0.103035,-0.0003853594,-1.493638,-3.024378,-1.663998,-0.01192838,0.003703551,0.002951532,-0.8566132,-2.40452,1.053249
0,0.5,84,270,499,499,-0.01749212,0.0625482,0.000868733,-1.493716,-3.024058,-1.663769,-0.01408369,0.007953884,0.001892627,-0.8567293,-2.404269,1.053293
0,0.5111111,84,270,499,499,-0.01738926,0.04443738,0.0009502056,-1.493648,-3.024153,-1.663607,-0.01196624,-0.003769757,-0.007679419,-0.8567922,-2.404885,1.053682
0,0.5222223,86,228,499,501,-0.02475838,0.028417,0.001013659,-1.493671,-3.024041,-1.663157,-0.01306038,-0.03151132,-0.02786018,-0.8569834,-2.406659,1.055099
0,0.5333334,86,228,499,501,-0.02579314,0.02200062,-0.002146183,-1.493647,-3.024114,-1.662719,-0.00983594,-0.04321071,-0.03105218,-0.8570047,-2.407583,1.055691
0,0.5444446,86,228,499,501,-0.03006067,0.02409271,-0.005359037,-1.493474,-3.024398,-1.662237,-0.01502089,-0.05279485,-0.01715318,-0.8564758,-2.408453,1.056437
0,0.5555557,86,228,499,501,-0.0343022,0.01979609,-0.00852702,-1.493483,-3.024536,-1.661618,-0.01493748,-0.04955968,-0.00331472,-0.8561141,-2.408607,1.05667
0,0.5666668,86,228,499,501,-0.04175462,0.01975269,-0.009608461,-1.493275,-3.024776,-1.660952,-0.01806056,-0.04101069,0.0116011,-0.8557493,-2.408401,1.056705
0,0.577778,92,217,499,502,-0.051292,0.007988064,-0.007436469,-1.493292,-3.024477,-1.66002,-0.00947913,-0.04309221,0.01900411,-0.8551202,-2.408733,1.056828
0,0.5888891,92,217,499,502,-0.04382299,0.00591193,-0.005290067,-1.49321,-3.024537,-1.65981,-0.009454574,-0.05481627,0.01583151,-0.8545823,-2.409726,1.057601
0,0.6000003,92,217,499,502,-0.04383791,0.006995647,-0.001027159,-1.493364,-3.024662,-1.659267,-0.005263146,-0.06334107,-0.0001731943,-0.8547516,-2.410997,1.058307
0,0.6111114,92,217,499,502,-0.0395972,0.009126857,-0.005286052,-1.493247,-3.024768,-1.658702,-0.009613816,-0.05697929,-0.00974147,-0.8548278,-2.411631,1.058916
0,0.6222225,96,218,500,498,-0.03424592,0.004888189,-0.006322386,-1.493228,-3.024707,-1.658513,-0.02132206,-0.04422633,-0.0001026262,-0.8545524,-2.411714,1.059545
0,0.6333337,96,218,500,498,-0.03100394,-0.0004545742,-0.01481774,-1.492688,-3.024583,-1.658162,-0.03086031,-0.02719686,0.0180436,-0.8539314,-2.411342,1.059931
0,0.6444448,96,218,500,498,-0.02987774,-0.01004987,-0.01797053,-1.492465,-3.02425,-1.657992,-0.03514487,-0.01655373,0.02231225,-0.8536693,-2.411079,1.060354
0,0.655556,96,218,500,498,-0.02451326,-0.01537164,-0.02326142,-1.492132,-3.023954,-1.657869,-0.03838432,-0.0005868301,0.02550555,-0.8534414,-2.410422,1.060413
0,0.6666671,96,218,500,498,-0.02234046,-0.02175121,-0.02429919,-1.491818,-3.023616,-1.657767,-0.03842478,0.006865233,0.02335741,-0.8534371,-2.410073,1.060525
0,0.6777782,98,241,499,490,-0.02443448,-0.02602347,-0.02426592,-1.491802,-3.023251,-1.657631,-0.03734219,0.004733313,0.02442766,-0.8530115,-2.409949,1.060774
0,0.6888894,98,241,499,490,-0.02336362,-0.02599904,-0.02212587,-1.491731,-3.023092,-1.657525,-0.03411578,-0.003775645,0.0244213,-0.8526472,-2.41009,1.06122
0,0.7000005,98,241,499,490,-0.01910795,-0.02596046,-0.01892292,-1.491633,-3.022778,-1.657466,-0.03089217,-0.01761942,0.02016444,-0.852268,-2.410677,1.06186
0,0.7111117,98,241,499,490,-0.01699434,-0.02379094,-0.01467057,-1.491561,-3.022652,-1.657337,-0.03198725,-0.01762271,0.01590968,-0.8522184,-2.410667,1.062258
0,0.7222228,94,224,499,491,-0.01593509,-0.02271977,-0.01467372,-1.491412,-3.022405,-1.657198,-0.03624268,-0.01017299,0.02125106,-0.8519287,-2.410352,1.062589
0,0.7333339,94,224,499,491,-0.01694058,-0.03020079,-0.01676907,-1.491255,-3.021726,-1.657241,-0.03728451,-0.00803075,0.02443438,-0.8518574,-2.41012,1.062706
0,0.7444451,94,224,499,491,-0.01583582,-0.03763292,-0.01353956,-1.491206,-3.02116,-1.657194,-0.03731785,-0.001641039,0.02335725,-0.8517061,-2.409813,1.062925
0,0.7555562,94,224,499,491,-0.01265094,-0.03655806,-0.01673967,-1.49091,-3.020833,-1.657029,-0.03632266,0.001536291,0.01482969,-0.8516662,-2.409814,1.063288
0,0.7666674,94,224,499,491,-0.01267174,-0.03334491,-0.01356261,-1.490822,-3.020561,-1.656941,-0.03525547,0.0004755408,0.0148249,-0.8514909,-2.409755,1.063647
0,0.7777785,89,201,499,501,-0.01163478,-0.02904952,-0.009312564,-1.490961,-3.020468,-1.656884,-0.03412503,0.005824167,0.02651953,-0.8511021,-2.409264,1.063595
0,0.7888896,89,201,499,501,-0.009540193,-0.02263314,-0.00720982,-1.490931,-3.020425,-1.656871,-0.03300083,-0.001626581,0.0318592,-0.8504336,-2.409272,1.064038
0,0.8000008,89,201,499,501,-0.01166938,-0.02265519,-0.008270664,-1.490945,-3.020085,-1.65666,-0.02985412,-0.003760237,0.02331931,-0.8503404,-2.409373,1.064351
0,0.8111119,89,201,499,501,-0.01378771,-0.02692978,-0.007183638,-1.490994,-3.01957,-1.656369,-0.02992817,-0.008042436,0.009480965,-0.8505146,-2.409696,1.064865
0,0.8222231,83,229,498,500,-0.01484149,-0.02905324,-0.005047288,-1.490999,-3.01924,-1.656247,-0.02678435,-0.01124339,-0.000122223,-0.8506626,-2.410134,1.065361
0,0.8333342,83,229,498,500,-0.01377717,-0.03011325,-0.003973076,-1.491042,-3.018796,-1.656097,-0.01408863,-0.01867488,-0.01617933,-0.851036,-2.410953,1.065825
0,0.8444453,83,229,498,500,-0.008491215,-0.0236772,-0.0007987872,-1.491136,-3.0187,-1.656169,-0.006602712,-0.0293014,-0.01834073,-0.8509657,-2.41184,1.066266
0,0.8555565,83,229,498,500,-0.006432804,-0.01086019,-0.0008638736,-1.490977,-3.019222,-1.656098,0.005126905,-0.04204562,-0.02479502,-0.8510509,-2.413086,1.066671
0,0.8666676,83,229,498,500,-0.003376492,0.01578262,-0.003119399,-1.490758,-3.020163,-1.656114,0.01159008,-0.05159453,-0.01736845,-0.8508384,-2.414124,1.067164
0,0.8777788,77,216,500,498,-0.002408457,0.03071755,0.001082556,-1.490965,-3.020864,-1.655954,0.006279577,-0.04734486,-0.01413726,-0.8504863,-2.414467,1.06748
0,0.8888899,77,216,500,498,0.0007039187,0.04461636,0.007409117,-1.491104,-3.021784,-1.655991,0.0008665286,-0.0356501,-0.01945288,-0.8509141,-2.414696,1.067815
0,0.900001,77,216,500,498,0.003864834,0.0489063,0.008461692,-1.491184,-3.022519,-1.655948,0.0008331705,-0.01859552,-0.01415808,-0.8510509,-2.41444,1.067646
0,0.9111122,77,216,500,498,0.01134795,0.04574577,0.009566906,-1.491461,-3.022776,-1.656368,0.006183196,-0.01643498,-0.01100384,-0.8510264,-2.414631,1.067375
0,0.9222233,77,216,500,498,0.01670358,0.04044881,0.009600861,-1.491557,-3.023084,-1.656668,0.006152802,-0.008977976,-0.01101761,-0.8511569,-2.414582,1.067267
0,0.9333345,74,249,499,495,0.02314093,0.03299786,0.009643507,-1.491662,-3.022851,-1.657182,0.01356298,-0.01962525,-0.02382789,-0.8513929,-2.415545,1.067617
0,0.9444456,74,249,499,495,0.02741061,0.03090073,0.01179076,-1.491842,-3.02317,-1.657562,0.009109285,-0.02183127,-0.05468959,-0.8525152,-2.416881,1.068383
0,0.9555568,74,249,499,495,0.03271578,0.03305478,0.01177204,-1.491703,-3.023535,-1.657921,0.0004951321,-0.01122304,-0.06209672,-0.8532363,-2.417023,1.068682
0,0.9666679,74,249,499,495,0.03591533,0.03411235,0.004318615,-1.491527,-3.024059,-1.658321,-0.004877109,0.005808698,-0.05677065,-0.8539623,-2.416725,1.068867
0,0.977779,72,228,498,500,0.03804158,0.03414448,0.008582469,-1.491675,-3.024457,-1.658756,0.003769273,0.003730509,-0.04084282,-0.8538249,-2.416932,1.068578
0,0.9888902,72,228,498,500,0.04014937,0.03843317,0.01281819,-1.491798,-3.024959,-1.659319,0.005928816,-0.002658017,-0.04085459,-0.8542143,-2.417656,1.068903
0,1.000001,72,228,498,500,0.04109116,0.05871876,0.02124448,-1.492115,-3.026195,-1.659693,0.01660034,-0.01967328,-0.04835238,-0.8545285,-2.418879,1.06923
0,1.011112,72,228,498,500,0.0399293,0.07577509,0.02329875,-1.492377,-3.027561,-1.660069,0.0209051,-0.03777066,-0.05260686,-0.8547202,-2.420245,1.069826
0,1.022224,72,228,498,500,0.03658353,0.1013491,0.02849928,-1.492656,-3.029399,-1.660247,0.02311443,-0.06547242,-0.05896489,-0.8547857,-2.422478,1.070824
0,1.033335,71,236,498,490,0.032236,0.1162753,0.03588124,-1.493107,-3.031113,-1.660463,0.01990855,-0.06441867,-0.06000325,-0.8550068,-2.423523,1.071359
0,1.044446,71,236,498,490,0.02470125,0.1300877,0.03686867,-1.493374,-3.033009,-1.660397,0.0135592,-0.05696597,-0.0482563,-0.8550148,-2.424128,1.071915
0,1.055557,71,236,498,490,0.01612969,0.14066,0.0346645,-1.493406,-3.03451,-1.660338,0.01141692,-0.04630927,-0.04292577,-0.8550904,-2.424473,1.072113
0,1.066668,71,236,498,490,0.009720052,0.1438403,0.03782857,-1.493677,-3.036285,-1.660208,0.01139812,-0.03565117,-0.03975138,-0.8553866,-2.424875,1.072202
0,1.077779,72,257,497,504,0.008662306,0.139554,0.03464448,-1.493751,-3.037705,-1.659902,0.01462233,-0.03562291,-0.03550654,-0.8554361,-2.425366,1.072255
0,1.08889,72,257,497,504,0.0001560077,0.1373669,0.03037357,-1.493757,-3.039304,-1.659517,0.02000536,-0.04198558,-0.03127219,-0.8553546,-2.426309,1.07247
0,1.100002,72,257,497,504,-0.003989585,0.116043,0.03153276,-1.49409,-3.040071,-1.659328,0.01468766,-0.05053758,-0.03547062,-0.8552763,-2.427466,1.073178
0,1.111113,72,257,497,504,-0.0049964,0.105358,0.02731888,-1.494194,-3.040925,-1.65912,0.01038865,-0.05163176,-0.04289646,-0.8556129,-2.428527,1.073761
0,1.122224,72,257,497,504,-0.007018873,0.08826172,0.01887381,-1.494144,-3.041453,-1.65895,0.00826101,-0.05057314,-0.04181868,-0.8557503,-2.429447,1.074323
0,1.133335,77,257,497,496,-0.004855765,0.08294582,0.01889166,-1.494166,-3.042269,-1.658921,0.009396974,-0.04414794,-0.02799419,-0.8556129,-2.429738,1.074339
0,1.144446,77,257,497,496,-0.008010171,0.07652172,0.01572004,-1.494173,-3.042927,-1.658652,0.00623098,-0.0409518,-0.02052375,-0.855476,-2.430213,1.074752
0,1.155557,77,257,497,496,-0.015483,0.07861358,0.01675857,-1.494258,-3.043905,-1.65819,0.007349465,-0.0441315,-0.01519185,-0.8551634,-2.430809,1.074981
0,1.166668,77,257,497,496,-0.01442001,0.07968853,0.01675989,-1.49442,-3.044895,-1.658065,0.008427657,-0.04945686,-0.01625852,-0.8550941,-2.43181,1.075525
0,1.17778,79,326,498,499,-0.01223578,0.07115785,0.01254299,-1.494403,-3.045458,-1.657919,0.008452863,-0.06437984,-0.0204962,-0.8548779,-2.433373,1.076523
0,1.188891,79,326,498,499,-0.0153661,0.06153622,0.009394073,-1.49448,-3.045874,-1.65772,0.00841837,-0.0633169,-0.02475802,-0.8549194,-2.43426,1.077043
0,1.200002,79,326,498,499,-0.01737816,0.04231454,0.002024035,-1.494302,-3.045795,-1.657473,0.008344691,-0.05587175,-0.03116325,-0.8551783,-2.435078,1.077497
0,1.211113,79,326,498,499,-0.01734474,0.03696817,-0.001146249,-1.49422,-3.046061,-1.65726,0.009412237,-0.05053641,-0.02905859,-0.8553019,-2.435784,1.077676
0,1.222224,79,326,498,499,-0.01309157,0.03911229,-0.003280096,-1.494078,-3.046548,-1.657171,0.002987485,-0.03350787,-0.02371992,-0.8554627,-2.435747,1.077806
0,1.233335,77,295,497,484,-0.00882952,0.03914678,-0.001148269,-1.494026,-3.047015,-1.657205,-0.005549092,-0.01542567,-0.01623267,-0.8554665,-2.43544,1.077759
0,1.244446,77,295,497,484,-0.008834542,0.03916197,0.00204731,-1.494088,-3.047477,-1.657064,-0.007632734,-0.01115739,-0.006635929,-0.8552672,-2.435428,1.077868
0,1.255558,77,295,497,484,-0.005607838,0.03492016,0.003144205,-1.494178,-3.047765,-1.65719,-0.008634455,-0.0143438,0.0008340045,-0.8549727,-2.435555,1.07807
0,1.266669,77,295,497,484,-0.005585298,0.03067597,0.006354512,-1.494229,-3.048029,-1.657155,-0.01076883,-0.02074791,-0.004468806,-0.8550494,-2.436081,1.078488
0,1.27778,79,245,498,499,-0.001190539,0.0104409,0.003256778,-1.494173,-3.047778,-1.657459,0.00195588,-0.02071345,-0.01308591,-0.8553631,-2.437008,1.078742
0,1.288891,79,245,498,499,-0.001190539,0.0104409,0.003256778,-1.494173,-3.047778,-1.657459,0.00195588,-0.02071345,-0.01308591,-0.8553631,-2.437008,1.078742
0,1.300002,79,245,498,499,0.01162306,0.005180189,0.003305414,-1.494287,-3.047735,-1.658051,-0.001297351,0.001653306,-0.008855331,-0.8557839,-2.437007,1.078832
0,1.311113,79,245,498,499,0.01162306,0.005180189,0.003305414,-1.494287,-3.047735,-1.658051,-0.001297351,0.001653306,-0.008855331,-0.8557839,-2.437007,1.078832
0,1.322224,78,226,498,503,0.01904356,0.01159851,-0.002032081,-1.494143,-3.048242,-1.658449,-0.013075,0.03466331,0.002876129,-0.8563826,-2.434692,1.077851
0,1.333336,78,226,498,503,0.01904356,0.01159851,-0.002032081,-1.494143,-3.048242,-1.658449,-0.013075,0.03466331,0.002876129,-0.8563826,-2.434692,1.077851
0,1.344447,78,226,498,503,0.02117484,0.01478361,-0.008441974,-1.493734,-3.04866,-1.659036,-0.005614031,0.02829515,-0.001438375,-0.8568859,-2.434365,1.077523
0,1.355558,78,226,498,503,0.02117484,0.01478361,-0.008441974,-1.493734,-3.04866,-1.659036,-0.005614031,0.02829515,-0.001438375,-0.8568859,-2.434365,1.077523
0,1.366669,78,226,498,503,0.02222195,0.01799788,-0.00420066,-1.49369,-3.048833,-1.659377,-0.001347102,0.0197929,-0.00464959,-0.8570851,-2.434317,1.077515
0,1.37778,78,226,498,487,0.02538356,0.02333693,-0.004226113,-1.493472,-3.049371,-1.659888,-0.000262375,-0.0004635034,-0.01527572,-0.8574085,-2.435273,1.078017
0,1.388891,78,226,498,487,0.02538356,0.02333693,-0.004226113,-1.493472,-3.049371,-1.659888,-0.000262375,-0.0004635034,-0.01527572,-0.8574085,-2.435273,1.078017
0,1.400002,78,226,498,487,0.02216421,0.02758037,-0.004251557,-1.49338,-3.049778,-1.660013,-0.002444205,0.002708688,-0.02165015,-0.857687,-2.435343,1.078085
0,1.411114,78,226,498,487,0.01784212,0.03927316,-0.006446467,-1.493025,-3.051001,-1.660243,-0.005635865,0.0240275,-0.008882682,-0.8581078,-2.434158,1.077456
0,1.422225,78,226,498,487,0.01784212,0.03927316,-0.006446467,-1.493025,-3.051001,-1.660243,-0.005635865,0.0240275,-0.008882682,-0.8581078,-2.434158,1.077456
0,1.433336,77,226,497,498,0.02102848,0.03927723,-0.008581072,-1.492711,-3.051349,-1.660384,-0.006682259,0.02936704,-0.001424294,-0.8581136,-2.433392,1.077188
0,1.444447,77,226,497,498,0.01465659,0.03499101,-0.006440729,-1.492677,-3.051626,-1.660358,-0.004515531,0.0400499,0.01026009,-0.858063,-2.432188,1.076404
0,1.455558,77,226,497,498,0.01577547,0.0264689,-0.007464706,-1.492554,-3.051673,-1.660637,0.0008505918,0.03154588,0.01130135,-0.8579836,-2.432183,1.076275
0,1.466669,77,226,497,498,0.01580759,0.01903722,-0.004229563,-1.49261,-3.051848,-1.660765,0.003029171,0.01450122,0.008120447,-0.8578564,-2.432577,1.076446
0,1.47778,77,226,497,498,0.01370418,0.01475423,-0.006343531,-1.492476,-3.051888,-1.660855,0.007295888,0.005988374,0.003845769,-0.8578516,-2.432829,1.076418
0,1.488891,76,239,498,499,0.01481357,0.007305988,-0.006312294,-1.492335,-3.051811,-1.661097,0.009438622,0.0006689951,0.002776581,-0.8577829,-2.432964,1.076395
0,1.500003,76,239,498,499,0.006306177,0.001926099,-0.005233528,-1.492342,-3.051558,-1.660786,0.009415756,0.004938241,0.002773293,-0.8578228,-2.432543,1.07611
0,1.511114,76,239,498,499,0.004220416,-0.004500984,-0.007333245,-1.492234,-3.051166,-1.660962,0.008289298,0.01131759,-0.003618639,-0.858144,-2.432082,1.075564
0,1.522225,76,239,498,499,0.00211813,-0.01091736,-0.008372365,-1.492138,-3.050766,-1.66086,0.009426638,0.009201687,0.005964803,-0.8578271,-2.431937,1.075361
0,1.533336,77,240,498,479,0.003167557,-0.007720703,-0.009451028,-1.491974,-3.050783,-1.660928,0.008391866,0.009201517,0.01236183,-0.8575778,-2.431792,1.075374
0,1.544447,77,240,498,479,-0.003212118,-0.00671417,-0.0137364,-1.491577,-3.050699,-1.660863,0.00625553,0.007058451,0.01024958,-0.8575315,-2.431733,1.075319
0,1.555558,77,240,498,479,-0.003212118,-0.00671417,-0.0137364,-1.491577,-3.050699,-1.660863,0.00625553,0.007058451,0.01024958,-0.8575315,-2.431733,1.075319
0,1.566669,77,240,498,479,-0.001123043,0.001783883,-0.0169717,-1.491292,-3.050635,-1.660924,0.001998039,0.001717282,0.009238729,-0.8572231,-2.431594,1.075484
0,1.577781,77,240,498,479,-0.002215401,0.006049228,-0.01486311,-1.491183,-3.050809,-1.660873,-0.002264514,-0.001499666,0.007142835,-0.8571544,-2.431688,1.075686
0,1.588892,76,216,498,507,-0.001190467,0.01350864,-0.01596584,-1.490684,-3.051281,-1.660841,-0.003329792,-0.0142968,0.001844812,-0.8569126,-2.432445,1.076471
0,1.600003,76,216,498,507,-0.001175489,0.01244284,-0.01595748,-1.490531,-3.051363,-1.660931,-0.002282235,-0.01430754,-0.001361337,-0.8569189,-2.432825,1.076657
0,1.611114,76,216,498,507,-0.003332705,0.01565222,-0.01064965,-1.490538,-3.051636,-1.660827,-0.00766182,-0.004745345,-0.0034729,-0.8570814,-2.432658,1.076784
0,1.622225,76,216,498,507,-0.003310718,0.01350979,-0.0127769,-1.490237,-3.051692,-1.660884,-0.008701432,0.003781407,0.005049444,-0.856805,-2.432173,1.076554
0,1.633336,76,216,498,507,-0.003310718,0.01350979,-0.0127769,-1.490237,-3.051692,-1.660884,-0.008701432,0.003781407,0.005049444,-0.856805,-2.432173,1.076554
0,1.644447,75,245,498,496,-0.01608191,0.01343312,-0.01385769,-1.48995,-3.051987,-1.660423,-7.088296E-05,-0.003622619,0.01672639,-0.8561338,-2.43208,1.076425
0,1.655559,75,245,498,496,-0.01608191,0.01343312,-0.01385769,-1.48995,-3.051987,-1.660423,-7.088296E-05,-0.003622619,0.01672639,-0.8561338,-2.43208,1.076425
0,1.66667,75,245,498,496,-0.0224476,0.009159404,-0.01065186,-1.489719,-3.052179,-1.659901,0.004157551,-0.04840318,-0.01412077,-0.8561024,-2.434979,1.078145
0,1.677781,75,237,498,493,-0.02139409,0.01129607,-0.01067203,-1.489346,-3.052361,-1.659594,0.00202214,-0.06015412,-0.02154627,-0.8560215,-2.436519,1.079256
0,1.688892,75,237,498,493,-0.0214105,0.0134355,-0.008550678,-1.489383,-3.052563,-1.65943,0.001956031,-0.0420423,-0.02051334,-0.8561786,-2.436708,1.079358
0,1.700003,75,237,498,493,-0.01716929,0.01667249,-0.004307841,-1.48928,-3.052805,-1.659371,-0.001300056,-0.02180896,-0.017332,-0.8564225,-2.436468,1.079299
0,1.711114,75,237,498,493,-0.01505422,0.01673044,0.005282713,-1.489548,-3.05303,-1.659208,-0.00976274,-0.01328439,-0.003440914,-0.8562329,-2.435856,1.079218
0,1.722225,75,237,498,493,-0.01076269,0.00930139,0.008524444,-1.489854,-3.052832,-1.659253,-0.01399986,-0.0004996285,0.007219233,-0.8559986,-2.435338,1.079096
0,1.733337,75,237,498,493,-0.01076269,0.00930139,0.008524444,-1.489854,-3.052832,-1.659253,-0.01399986,-0.0004996285,0.007219233,-0.8559986,-2.435338,1.079096
0,1.744448,76,199,498,505,-0.008525998,-0.01198838,0.01075052,-1.489966,-3.052076,-1.658941,-0.01727548,0.01438436,0.004024571,-0.8560438,-2.434799,1.079103
0,1.755559,76,199,498,505,-0.004216785,-0.01943242,0.009735556,-1.490172,-3.051628,-1.659268,-0.02056814,0.02928083,-0.001316493,-0.8567134,-2.434061,1.078948
0,1.76667,76,199,498,505,-0.004216785,-0.01943242,0.009735556,-1.490172,-3.051628,-1.659268,-0.02056814,0.02928083,-0.001316493,-0.8567134,-2.434061,1.078948
0,1.777781,76,184,498,491,0.002236592,-0.02366586,0.005515036,-1.490417,-3.051193,-1.659774,-0.01629703,0.02289008,-0.006654908,-0.8570468,-2.433838,1.078752
0,1.788892,76,184,498,491,0.008610966,-0.02043482,0.005510156,-1.4905,-3.051038,-1.660058,-0.01842907,0.01968179,-0.008765321,-0.8572524,-2.433796,1.078978
0,1.800003,76,184,498,491,0.008610966,-0.02043482,0.005510156,-1.4905,-3.051038,-1.660058,-0.01842907,0.01968179,-0.008765321,-0.8572524,-2.433796,1.078978
0,1.811115,76,184,498,491,0.0149859,-0.01613795,0.004433105,-1.490556,-3.050787,-1.660665,-0.01195588,0.004800033,-0.006660454,-0.857451,-2.434065,1.079198
0,1.822226,76,184,498,491,0.0149943,-0.01718882,0.006566308,-1.490678,-3.050629,-1.660907,-0.00976483,0.002689151,0.0007775759,-0.8573434,-2.434056,1.079223
0,1.833337,78,170,497,500,0.01820426,-0.02035686,0.008717247,-1.490839,-3.050328,-1.661224,-0.0140329,0.01333443,0.006113917,-0.8573701,-2.433387,1.079082
0,1.844448,78,170,497,500,0.01501026,-0.01930557,0.009771832,-1.49096,-3.050142,-1.661447,-0.01616144,0.0271835,0.0157001,-0.8571783,-2.43237,1.078778
0,1.855559,78,170,497,500,0.01716124,-0.02038577,0.005518036,-1.490931,-3.049787,-1.661817,-0.01405329,0.0389143,0.01992743,-0.8572044,-2.431401,1.078266
0,1.86667,78,170,497,500,0.01928353,-0.01825363,0.003380971,-1.490934,-3.04963,-1.662083,-0.01302402,0.04424119,0.01778021,-0.8573871,-2.430567,1.077842
0,1.877781,78,170,497,500,0.01605195,-0.01402896,0.0001566423,-1.490829,-3.049529,-1.661953,-0.01093621,0.04104082,0.009245588,-0.8577184,-2.430232,1.077667
0,1.888893,78,170,497,500,0.01605195,-0.01402896,0.0001566423,-1.490829,-3.049529,-1.661953,-0.01093621,0.04104082,0.009245588,-0.8577184,-2.430232,1.077667
0,1.900004,80,170,500,497,0.01276277,-0.0002050489,0.001154769,-1.490904,-3.049665,-1.661988,-0.008774391,0.02186987,0.003942388,-0.8577706,-2.430007,1.077815
0,1.911115,80,170,500,497,0.00953069,0.008269244,-0.005282633,-1.490638,-3.049947,-1.661979,-0.007697827,0.01014643,-0.001370409,-0.8578218,-2.430345,1.078084
0,1.922226,80,170,500,497,0.007430304,0.001890643,-0.002065107,-1.490637,-3.049881,-1.662015,-0.007717964,0.01227744,-0.003500362,-0.8579927,-2.430012,1.077909
0,1.933337,139,183,496,484,0.007439772,0.0008151364,-0.004190649,-1.490506,-3.049874,-1.662081,-0.002440661,0.01548518,-0.008868515,-0.8583448,-2.429878,1.0777
0,1.944448,139,183,496,484,0.004221698,0.00400589,-0.002075736,-1.490605,-3.050058,-1.662015,-0.003484242,0.01121541,-0.007783988,-0.8582942,-2.429975,1.077867
0,1.955559,139,183,496,484,-0.001120236,0.005067185,0.002172706,-1.490743,-3.050224,-1.661819,-0.0002058791,0.003786455,0.0007361486,-0.8579192,-2.429939,1.077842
0,1.966671,139,183,496,484,-0.001156867,0.01041363,0.006408673,-1.490906,-3.050495,-1.6618,0.005150596,-0.003649076,0.0007132213,-0.8578036,-2.430203,1.077805
0,1.977782,139,183,496,484,-0.001156867,0.01041363,0.006408673,-1.490906,-3.050495,-1.6618,0.005150596,-0.003649076,0.0007132213,-0.8578036,-2.430203,1.077805
0,1.988893,121,192,497,497,-0.0001325868,0.01683391,0.01063747,-1.491096,-3.051023,-1.661789,-0.002319017,-0.003684783,-0.002433921,-0.8578804,-2.430476,1.078056
0,2.000004,121,192,497,497,-0.002234149,0.01361221,0.009580217,-1.491126,-3.050954,-1.661841,-0.002304706,-0.009013129,-0.003489776,-0.8578255,-2.430788,1.078285
0,2.011115,121,192,497,497,-0.004368881,0.0146606,0.008506447,-1.491183,-3.051121,-1.661729,0.003010071,-0.01111577,-0.005653633,-0.8579426,-2.430888,1.078246
0,2.022226,121,192,497,497,-0.00327591,0.01146152,0.007463398,-1.491316,-3.051118,-1.661843,-0.0002009789,-0.007925982,-0.005626496,-0.8578846,-2.430717,1.078248
0,2.033337,104,240,498,495,-0.001144878,0.01145297,0.005342173,-1.491368,-3.051157,-1.661832,-0.004494939,0.003778825,-0.003487714,-0.8580385,-2.430239,1.078104
0,2.044448,104,240,498,495,-0.001144878,0.01145297,0.005342173,-1.491368,-3.051157,-1.661832,-0.004494939,0.003778825,-0.003487714,-0.8580385,-2.430239,1.078104
0,2.055559,104,240,498,495,-9.55076E-05,0.01464959,0.004263567,-1.491364,-3.051405,-1.661846,-0.01091687,0.01654477,-0.0002660975,-0.8581659,-2.429471,1.07791
0,2.06667,104,240,498,495,0.00109183,-0.005617351,-0.002022982,-1.491337,-3.050843,-1.661941,-0.008751946,0.01016597,-0.001340443,-0.8583533,-2.429328,1.077757
0,2.077781,104,240,498,495,3.947981E-05,-0.009870367,0.001195174,-1.491476,-3.050656,-1.661854,-0.00981929,0.00376298,-0.005587334,-0.8584796,-2.429615,1.078053
0,2.088892,93,260,498,497,-0.0009657466,-0.01948384,-0.003022292,-1.491371,-3.050161,-1.661852,-0.01087886,0.0005609198,-0.006639728,-0.8585334,-2.42976,1.078277
0,2.100003,93,260,498,497,0.0001212549,-0.02269367,-0.008338658,-1.491054,-3.049881,-1.66184,-0.008673856,-0.002605736,0.001867929,-0.8583896,-2.429668,1.078194
0,2.111114,93,260,498,497,0.00332461,-0.02374638,-0.00939348,-1.490951,-3.049575,-1.662007,-0.008662185,0.001663056,0.006121485,-0.8582963,-2.429404,1.078122
0,2.122225,93,260,498,497,0.0001012012,-0.02055283,-0.006217445,-1.49101,-3.049493,-1.661849,-0.01076619,-0.0004692767,0.00826501,-0.8582436,-2.429383,1.078236
0,2.133336,82,215,498,494,-0.0009590834,-0.01952363,-0.01261608,-1.490706,-3.049286,-1.661843,-0.01184005,0.001657011,0.008268477,-0.8582116,-2.429183,1.078263
0,2.144447,82,215,498,494,-0.002073571,-0.00995714,-0.01584847,-1.490573,-3.049425,-1.661765,-0.0108111,0.009116761,0.006111998,-0.8584322,-2.428823,1.078013
0,2.155558,82,215,498,494,-0.003144777,-0.008897815,-0.01585524,-1.490403,-3.049357,-1.661707,-0.01187334,0.01018077,0.007185543,-0.8583778,-2.428547,1.077999
0,2.166669,82,215,498,494,-0.002131078,-0.0003559197,-0.0137678,-1.490253,-3.049651,-1.661685,-0.01509453,0.01655206,0.007197026,-0.8584279,-2.428205,1.078018
0,2.17778,82,215,498,494,-0.00318852,-0.002478369,-0.01163851,-1.490046,-3.049571,-1.661622,-0.01186136,0.01124185,0.008248963,-0.8583256,-2.428153,1.077895
0,2.188891,76,222,498,492,-0.002074489,-0.01099972,-0.0126616,-1.489913,-3.049202,-1.661669,-0.01182835,0.004852038,0.009325478,-0.8581291,-2.428228,1.078074
0,2.200002,76,222,498,492,-0.003111957,-0.01739147,-0.01049569,-1.489987,-3.0488,-1.661594,-0.007569019,0.002739858,0.00717215,-0.8581173,-2.428154,1.077939
0,2.211113,76,222,498,492,-0.003082691,-0.02271786,-0.01047035,-1.489908,-3.048367,-1.661577,-0.006494674,0.0006105071,0.007173813,-0.8579693,-2.428145,1.07799
0,2.222224,76,222,498,492,-0.004162669,-0.02273924,-0.01046457,-1.489928,-3.04793,-1.661346,-0.006514459,0.008067014,0.007165811,-0.857972,-2.427714,1.077639
0,2.233335,76,222,498,492,-0.004176046,-0.02165386,-0.006208191,-1.489997,-3.047732,-1.661307,-0.009680158,0.005934382,0.01038853,-0.8577924,-2.427483,1.077696
0,2.244446,73,195,499,499,-0.004232406,-0.0131169,-0.001981647,-1.49017,-3.047764,-1.66124,-0.006523863,0.008067364,0.007180298,-0.8576598,-2.427275,1.077671
0,2.255557,73,195,499,499,-0.004234225,-0.01311185,-0.0009163301,-1.490204,-3.047612,-1.661199,-0.005486188,0.002730527,0.0007899493,-0.8577418,-2.427545,1.077973
0,2.266668,73,195,499,499,-0.004279715,-0.007763213,0.003320277,-1.490356,-3.047728,-1.661005,-0.00332696,-0.002585441,0.001850116,-0.8576295,-2.4277,1.078056
0,2.277779,73,195,499,499,-0.005382282,-0.001387248,0.004355595,-1.490479,-3.047651,-1.660945,-0.002262348,-0.003654561,0.0007713053,-0.8576774,-2.427948,1.078192
0,2.28889,71,199,498,496,-0.004328772,0.0007492928,0.004347281,-1.490506,-3.047707,-1.660911,-0.006501927,-0.008998124,0.0008095619,-0.8575571,-2.428216,1.078554
0,2.300001,71,199,498,496,-0.00114863,0.002900338,0.003282523,-1.490549,-3.047895,-1.660897,-0.008681132,-0.003685027,-0.002380128,-0.8577088,-2.428115,1.078716
0,2.311112,71,199,498,496,-9.741052E-05,0.006094275,0.003265679,-1.490545,-3.047938,-1.66098,-0.01084894,0.003761522,-0.003444007,-0.8578766,-2.427891,1.078742
0,2.322223,71,199,498,496,0.005218576,0.008261442,0.004330144,-1.490616,-3.048123,-1.661198,-0.01190718,0.00269081,-0.003429335,-0.8578202,-2.427892,1.078854
0,2.333334,71,199,498,496,0.0009546711,0.008242137,0.004326747,-1.490708,-3.048269,-1.661014,-0.008713122,-0.000498123,-0.00557675,-0.8578612,-2.4281,1.079001
0,2.344445,71,205,499,492,-0.0001185044,0.01035676,0.001113945,-1.490532,-3.048473,-1.66093,-0.00872088,-0.002627018,-0.007710498,-0.8580604,-2.428247,1.07921
0,2.355556,71,205,499,492,0.0009661921,0.007159054,-0.0009972262,-1.490502,-3.048481,-1.660963,-0.007694584,-0.00370084,-0.01410834,-0.8583267,-2.428564,1.079458
0,2.366668,71,205,499,492,0.002028268,0.008236143,6.887963E-05,-1.490584,-3.048641,-1.661059,-0.01196378,-0.0005188747,-0.01195385,-0.8584018,-2.428544,1.079819
0,2.377779,71,205,499,492,0.004154068,0.01145253,5.366548E-05,-1.490501,-3.04898,-1.661302,-0.01084491,0.0005584331,-0.00450737,-0.858251,-2.4285,1.079775
0,2.38889,70,193,499,495,-0.001199414,0.01569421,0.002155231,-1.490569,-3.049273,-1.661105,-0.00868415,-0.001557903,-0.001322277,-0.8581701,-2.428518,1.079832
0,2.400001,70,193,499,495,-0.001163644,0.009298061,0.002185001,-1.490565,-3.049093,-1.661125,-0.01080681,-0.00157248,-0.0002411574,-0.8580663,-2.428659,1.080082
0,2.411112,70,193,499,495,-0.002196797,0.002906728,0.003280089,-1.490676,-3.048994,-1.661068,-0.009724995,-0.005826181,-0.0002464931,-0.8580652,-2.428869,1.080319
0,2.422223,70,193,499,495,-0.004312812,-0.002422053,0.005425042,-1.490679,-3.048819,-1.660832,-0.005510343,-0.01115903,-0.01091244,-0.858185,-2.429435,1.080591
0,2.433334,70,193,499,495,-0.005387994,-0.001370122,0.006487178,-1.490848,-3.048701,-1.660733,-0.008716421,-0.006902451,-0.008767387,-0.858266,-2.429349,1.080833
0,2.444445,70,188,498,497,-0.005372644,-0.003510646,0.004366703,-1.490801,-3.048611,-1.660671,-0.006601691,-0.00476521,-0.009850822,-0.8584007,-2.429443,1.080919
0,2.455556,70,188,498,497,-0.005389551,0.000747976,0.004345563,-1.490828,-3.048721,-1.660678,-0.009785406,-0.0005225907,-0.005576379,-0.8583176,-2.42951,1.081156
0,2.466667,70,188,498,497,-0.005395436,0.00181324,0.004340522,-1.490892,-3.048788,-1.660617,-0.01084619,0.003739933,-0.002380769,-0.8583277,-2.429318,1.081178
0,2.477778,70,188,498,497,-0.007543992,0.003942887,0.006454601,-1.490982,-3.048897,-1.660446,-0.009760139,0.001626043,-0.0002452161,-0.85821,-2.429135,1.081163
0,2.488889,70,212,499,499,-0.00538181,-0.0003169504,0.005418964,-1.491094,-3.048736,-1.660534,-0.01400108,0.009083251,0.007227522,-0.858128,-2.428613,1.08112
0,2.5,70,212,499,499,-0.007515305,-0.0003308641,0.005418184,-1.491181,-3.048705,-1.660354,-0.01290008,0.001636365,0.008303084,-0.8579267,-2.428627,1.081257
0,2.511111,70,212,499,499,-0.005346268,-0.008845465,0.004390913,-1.491167,-3.048375,-1.660258,-0.01181495,-0.003683256,0.008295209,-0.8579059,-2.428857,1.081538
0,2.522222,70,212,499,499,-0.003166743,-0.01736296,0.002303567,-1.491135,-3.048013,-1.66026,-0.01182445,-0.005820436,0.006166838,-0.8578404,-2.429015,1.081845
0,2.533333,70,212,499,499,-0.006341557,-0.02164128,0.001249076,-1.491086,-3.047749,-1.660091,-0.008614266,-0.01327104,0.00402126,-0.8577584,-2.429504,1.082194
0,2.544444,71,183,498,504,-0.006321494,-0.02379693,-0.004066633,-1.490899,-3.047402,-1.660015,-0.004409772,-0.00794192,-0.0002729064,-0.8577775,-2.42959,1.08226
0,2.555555,71,183,498,504,-0.006321494,-0.02379693,-0.004066633,-1.490899,-3.047402,-1.660015,-0.004409772,-0.00794192,-0.0002729064,-0.8577775,-2.42959,1.08226
0,2.566666,71,183,498,504,-0.009545776,-0.01533001,-0.01156413,-1.490592,-3.047164,-1.659835,-0.005549139,0.006975445,-0.002424062,-0.8582239,-2.428795,1.08198
0,2.577777,71,183,498,504,-0.01072046,0.004920511,-0.009534783,-1.490514,-3.047804,-1.659745,-0.0002008169,0.003811701,-0.0003304026,-0.858266,-2.428792,1.081904
0,2.588888,71,183,498,504,-0.01078113,0.01557826,-0.008519944,-1.490384,-3.048255,-1.65959,-0.002304952,0.0006154906,0.001809296,-0.8583251,-2.42889,1.082066
0,2.599999,73,192,498,505,-0.006593225,0.0294618,-0.008582216,-1.490181,-3.049051,-1.659674,-0.0001279573,-0.007902972,0.002871712,-0.8581163,-2.429371,1.082265
0,2.61111,73,192,498,505,-0.006593225,0.0294618,-0.008582216,-1.490181,-3.049051,-1.659674,-0.0001279573,-0.007902972,0.002871712,-0.8581163,-2.429371,1.082265
0,2.622221,73,192,498,505,-0.01292922,0.02091612,-0.006428976,-1.489997,-3.049361,-1.659404,-9.292457E-05,-0.01856101,0.001827156,-0.8577131,-2.430291,1.082852
0,2.633332,73,192,498,505,-0.01284967,0.008145117,-0.005300485,-1.489845,-3.049249,-1.659219,-0.002236616,-0.01537322,0.001834505,-0.8576982,-2.430349,1.082975
0,2.644443,74,209,498,505,-0.01388822,0.002817182,-0.004210991,-1.48994,-3.049153,-1.659123,0.00203703,0.0006342293,0.01136585,-0.8574963,-2.429688,1.082226
0,2.655554,74,209,498,505,-0.01490922,-0.004640856,-0.006312033,-1.489794,-3.049089,-1.658974,0.0009795809,0.002770333,0.01350286,-0.8573642,-2.429363,1.082014
0,2.666665,74,209,498,505,-0.01700352,-0.01314743,-0.0009455328,-1.489998,-3.04876,-1.658732,0.0009563556,-0.0004349053,0.008182045,-0.8573893,-2.429491,1.082088
0,2.677776,74,209,498,505,-0.01165013,-0.01738426,-0.001981801,-1.489993,-3.048457,-1.658811,0.006245138,-0.007883434,-0.001431191,-0.8575485,-2.429999,1.08224
0,2.688887,74,209,498,505,-0.01167615,-0.01311765,-0.000936036,-1.489968,-3.048425,-1.658631,0.006238312,-0.02068053,-0.009940174,-0.8576944,-2.430938,1.08279
0,2.699998,75,250,498,494,-0.00850547,-0.008821812,0.00118703,-1.490164,-3.048575,-1.658663,0.005172906,-0.02175801,-0.01098754,-0.8575432,-2.431362,1.082998
0,2.711109,75,250,498,494,-0.007478354,-0.002418821,0.002225916,-1.490189,-3.048711,-1.658573,-0.003374038,-0.01219874,-0.008824498,-0.8577866,-2.431292,1.083223
0,2.72222,75,250,498,494,-0.003260992,0.005078012,0.00539501,-1.490311,-3.048972,-1.65865,-0.004501513,0.001644155,-0.009902463,-0.8580471,-2.430875,1.083014
0,2.733331,75,250,498,494,-0.001139504,0.006156181,0.005395937,-1.490556,-3.049104,-1.658814,-0.01088569,0.01867402,0.0007755347,-0.8578798,-2.42994,1.082657
0,2.744442,76,212,498,503,0.002051865,0.007256443,0.007524514,-1.490398,-3.049295,-1.658715,-0.01411278,0.02825068,0.001845819,-0.8580939,-2.429219,1.082434
0,2.755553,76,212,498,503,0.004231614,-0.001244213,0.008634999,-1.490507,-3.049124,-1.658867,-0.01622658,0.02611623,0.002929956,-0.8581594,-2.428926,1.082449
0,2.766664,76,212,498,503,0.001068829,-0.006598798,0.006524254,-1.490694,-3.048919,-1.658935,-0.01195454,0.01440575,-0.002404971,-0.8582617,-2.429232,1.082657
0,2.777775,76,212,498,503,0.004300183,-0.01296911,0.006558455,-1.490782,-3.048677,-1.659117,-0.008725916,0.00163441,-0.005605134,-0.8583277,-2.429708,1.082914
0,2.788886,76,212,498,503,0.006457625,-0.01722847,0.004451798,-1.490784,-3.048356,-1.659257,-0.004462461,-0.002608375,-0.007758162,-0.8584433,-2.429803,1.082929
0,2.799997,73,235,498,497,0.00222645,-0.02151898,0.003402938,-1.490881,-3.048036,-1.659229,-0.005517525,-0.002618821,-0.006683764,-0.8583933,-2.429983,1.083095
0,2.811108,73,235,498,497,0.003260792,-0.01618172,0.004444528,-1.490965,-3.048021,-1.659311,-0.005562066,-0.0004990494,-0.01201435,-0.8586788,-2.430129,1.083258
0,2.822219,73,235,498,497,4.405621E-06,-0.003427869,0.004376272,-1.490945,-3.048161,-1.659321,-0.009878112,0.01546771,-0.008812573,-0.8589195,-2.429361,1.083153
0,2.83333,73,235,498,497,0.002109426,0.001898176,0.002225148,-1.490925,-3.04828,-1.659406,-0.009846893,0.02188296,-0.0003034254,-0.8589723,-2.428565,1.082756
0,2.844441,73,235,498,497,-1.21491E-05,-0.0002216913,0.005426069,-1.491062,-3.048312,-1.659385,-0.01089504,0.02188298,0.0007710839,-0.8590223,-2.4282,1.082536
0,2.855552,70,219,498,495,0.002148978,-0.004487047,0.003315464,-1.49104,-3.048037,-1.659551,-0.01194877,0.01335474,-0.002401704,-0.8591049,-2.428294,1.082771
0,2.866663,70,219,498,495,6.299594E-05,-0.01303552,0.001224349,-1.491071,-3.047602,-1.659439,-0.008751908,0.005903026,-0.006671543,-0.8592221,-2.428569,1.08295
0,2.877774,70,219,498,495,0.001181336,-0.02049267,0.0001926644,-1.491032,-3.047179,-1.659636,-0.003428909,0.005932408,-0.007769855,-0.8594026,-2.428335,1.082627
0,2.888885,70,219,498,495,-0.0009087784,-0.02796131,0.0002251085,-1.491062,-3.046674,-1.659591,-0.007673006,0.01232509,-0.001363101,-0.8594862,-2.427788,1.082481
0,2.899997,71,255,498,488,0.0001563805,-0.02901815,0.002369288,-1.491271,-3.046266,-1.659612,-0.007673291,0.01659488,0.000765014,-0.8595464,-2.427268,1.082199
0,2.911108,71,255,498,488,0.0001761036,-0.03222173,0.001314598,-1.491275,-3.045783,-1.659674,-0.006574948,0.02087565,0.008205105,-0.8594889,-2.42663,1.081814
0,2.922219,71,255,498,488,0.002306115,-0.0311409,0.0002455332,-1.491223,-3.045572,-1.659799,-0.006611274,0.01979612,0.001814286,-0.8597153,-2.426577,1.081808
0,2.93333,71,255,498,488,0.001218219,-0.02793859,0.00236411,-1.4914,-3.045402,-1.659775,-0.005590118,0.01446506,-0.007768849,-0.8600466,-2.42663,1.081879
0,2.944441,71,255,498,488,0.003322583,-0.02154807,-0.0008623204,-1.491243,-3.045351,-1.659908,-0.004573718,0.01765585,-0.01310793,-0.8604391,-2.426511,1.081796
0,2.955552,73,190,499,500,0.007558807,-0.01725094,0.001248025,-1.491226,-3.045299,-1.660135,-0.003527954,0.02086131,-0.01205288,-0.8606516,-2.426103,1.081744
0,2.966663,73,190,499,500,0.00646783,-0.01194054,-0.0009096517,-1.491173,-3.045303,-1.660175,-0.008852351,0.02937167,-0.006705125,-0.8608604,-2.425411,1.081548
0,2.977774,73,190,499,500,0.007530106,-0.01404892,0.001239479,-1.491351,-3.045194,-1.660155,-0.01097305,0.03790731,0.0007450618,-0.8611171,-2.42445,1.081177
0,2.988885,73,190,499,500,0.007530106,-0.01404892,0.001239479,-1.491351,-3.045194,-1.660155,-0.01097305,0.03790731,0.0007450618,-0.8611171,-2.42445,1.081177
0,2.999996,75,180,497,498,0.008576123,-0.0118909,0.005490584,-1.491591,-3.045049,-1.660401,-0.01309886,0.03362959,-0.001364208,-0.8614932,-2.423846,1.081074
0,3.011107,75,180,497,498,0.01071648,-0.01400467,0.006569647,-1.491696,-3.044847,-1.660579,-0.01094467,0.02937897,-0.0003104466,-0.861629,-2.42362,1.080978
0,3.022218,75,180,497,498,0.009713785,-0.02677912,0.007687646,-1.491763,-3.044317,-1.660602,-0.006665869,0.02087026,-0.00351013,-0.8616381,-2.423588,1.08082
0,3.033329,75,180,497,498,0.00972547,-0.02996631,0.006646894,-1.491926,-3.044077,-1.660622,-0.006688964,0.02299679,-0.005645141,-0.8619182,-2.423318,1.080723
0,3.04444,75,180,497,498,0.00972547,-0.02996631,0.006646894,-1.491926,-3.044077,-1.660622,-0.006688964,0.02299679,-0.005645141,-0.8619182,-2.423318,1.080723
0,3.055551,77,193,498,496,0.005498321,-0.03852084,0.00455998,-1.49222,-3.043048,-1.66049,-0.009850118,0.0240556,0.002906911,-0.861824,-2.422462,1.080769
0,3.066662,77,193,498,496,0.00332167,-0.03002603,0.001316065,-1.492099,-3.042902,-1.66043,-0.008759253,0.01766813,0.002910671,-0.8618026,-2.422413,1.080811
0,3.077773,77,193,498,496,3.189268E-05,-0.0129743,0.003356698,-1.492123,-3.043381,-1.660372,-0.006607031,0.008078563,0.001853055,-0.8615955,-2.422713,1.08115
0,3.088884,77,193,498,496,0.001028756,-0.001240341,0.005433637,-1.492198,-3.043677,-1.660368,-0.00447335,0.001693199,-0.001351499,-0.8617324,-2.422913,1.081298
0,3.099995,77,165,498,497,-0.003331616,0.01366828,0.007491929,-1.492364,-3.044305,-1.660002,-0.006623314,-0.004715773,-0.00557781,-0.8616557,-2.42318,1.081838
0,3.111106,77,165,498,497,-0.005499698,0.02110335,0.005322435,-1.492314,-3.044743,-1.659845,-0.006593382,-0.006837212,-0.002382323,-0.8616221,-2.423243,1.081959
0,3.122217,77,165,498,497,-0.006577957,0.02322015,0.003176365,-1.492235,-3.045036,-1.659651,-0.004445003,-0.008960933,-0.001332724,-0.8615736,-2.423487,1.082085
0,3.133328,77,165,498,497,-0.008704985,0.02319552,-2.037082E-05,-1.492164,-3.045305,-1.65945,-0.005523163,-0.01323254,-0.005584354,-0.8616753,-2.423908,1.082464
0,3.144439,77,165,498,497,-0.01400368,0.01676915,-2.680579E-06,-1.492116,-3.045272,-1.65908,-0.004489394,-0.01537022,-0.01090689,-0.861694,-2.424291,1.082801
0,3.15555,76,164,499,497,-0.01188283,0.01678226,0.001063077,-1.49211,-3.045411,-1.658883,-0.00445584,-0.01430037,-0.006653889,-0.8616551,-2.424506,1.082846
0,3.166661,76,164,499,497,-0.01186134,0.012526,0.00214875,-1.492163,-3.045448,-1.658751,-0.003368948,-0.01429056,-0.003465293,-0.861539,-2.424662,1.08295
0,3.177772,76,164,499,497,-0.01186284,0.01252703,0.003205959,-1.492069,-3.045542,-1.658583,-0.00655214,-0.01322392,-0.0002483563,-0.8614495,-2.424586,1.083136
0,3.188883,76,164,499,497,-0.01185675,0.01041131,0.00641212,-1.492231,-3.045628,-1.658455,-0.006614816,-0.006839802,-0.005589357,-0.8617302,-2.424618,1.08323
0,3.199994,76,164,499,497,-0.01185675,0.01041131,0.00641212,-1.492231,-3.045628,-1.658455,-0.006614816,-0.006839802,-0.005589357,-0.8617302,-2.424618,1.08323
0,3.211105,76,156,498,503,-0.01391788,-0.0002558,0.004340885,-1.492401,-3.045542,-1.658217,-0.007639724,-0.008970418,-0.001320187,-0.8615928,-2.424947,1.08358
0,3.222216,76,156,498,503,-0.01069208,-0.006643133,0.003310633,-1.492478,-3.045201,-1.658162,-0.009759744,-0.01110965,-0.0002255426,-0.861327,-2.425045,1.083896
0,3.233327,76,156,498,503,-0.009607813,-0.008775055,0.001186827,-1.49237,-3.04511,-1.658131,-0.00978717,-0.00791095,-0.001303037,-0.8615038,-2.425086,1.084138
0,3.244438,76,156,498,503,-0.01174202,-0.008776701,0.003315963,-1.492497,-3.045031,-1.657963,-0.01196815,-0.007932488,-0.008745504,-0.8617238,-2.425403,1.084533
0,3.255549,73,152,498,501,-0.008571928,-0.004490104,0.003303106,-1.492473,-3.045199,-1.657861,-0.01086531,-0.008990368,-0.003423394,-0.8615118,-2.42557,1.084776
0,3.26666,73,152,498,501,-0.01179929,0.001873561,0.001136748,-1.492432,-3.045381,-1.657652,-0.009764012,-0.00897686,0.001895748,-0.8613244,-2.425581,1.084875
0,3.277771,73,152,498,501,-0.01179929,0.001873561,0.001136748,-1.492432,-3.045381,-1.657652,-0.009764012,-0.00897686,0.001895748,-0.8613244,-2.425581,1.084875
0,3.288882,73,152,498,501,-0.01183475,0.01039146,0.002164823,-1.492547,-3.045663,-1.657606,-0.009820977,-0.002600215,-0.004509941,-0.8615566,-2.425815,1.085083
0,3.299993,73,152,498,501,-0.01183475,0.01039146,0.002164823,-1.492547,-3.045663,-1.657606,-0.009820977,-0.002600215,-0.004509941,-0.8615566,-2.425815,1.085083
0,3.311104,73,136,498,500,-0.01394305,0.007167547,0.001107172,-1.492486,-3.045535,-1.657262,-0.01083049,-0.01645068,-0.005548969,-0.8614538,-2.426693,1.085775
0,3.322215,73,136,498,500,-0.01284424,0.0007611234,-0.000995606,-1.492387,-3.045246,-1.657139,-0.01081221,-0.01964815,-0.003408488,-0.861205,-2.427061,1.086269
0,3.333326,73,136,498,500,-0.009593104,-0.007737438,0.0001177884,-1.492555,-3.045003,-1.657339,-0.01192941,-0.01220074,-0.006604252,-0.8613244,-2.426982,1.086407
0,3.344437,73,136,498,500,-0.0106216,-0.01308872,-0.004120013,-1.492378,-3.04472,-1.657195,-0.01942009,0.001623757,-0.003381592,-0.8614756,-2.426512,1.086505
0,3.355548,72,197,499,498,-0.01159969,-0.02695754,-0.007260027,-1.492208,-3.044086,-1.65718,-0.01730559,0.0101525,-0.000219838,-0.861547,-2.426277,1.086537
0,3.366659,72,197,499,498,-0.00947367,-0.02589023,-0.009390002,-1.491987,-3.043823,-1.657075,-0.009857565,0.006980859,-0.003460695,-0.8616583,-2.426363,1.086521
0,3.37777,72,197,499,498,-0.007350147,-0.02479835,-0.007269138,-1.491888,-3.043669,-1.6571,-0.006670094,-0.004743549,-0.010918,-0.861686,-2.427145,1.087074
0,3.388881,72,197,499,498,-0.006389078,-0.00771808,-0.0009571222,-1.492083,-3.044085,-1.657061,-0.006643023,-0.007932193,-0.008781674,-0.8616535,-2.427284,1.087274
0,3.399992,72,197,499,498,-0.00535656,-0.003447577,0.003293737,-1.49236,-3.043958,-1.657024,-0.005477845,-0.01430428,-0.0002560541,-0.861295,-2.42747,1.087194
0,3.411103,75,192,498,486,-0.005372532,-0.0002566625,0.002213433,-1.492325,-3.044039,-1.656949,-0.007555061,-0.01323251,0.008278359,-0.8609499,-2.427399,1.087313
0,3.422215,75,192,498,486,-0.01173958,-0.003495187,0.001143205,-1.492197,-3.043832,-1.656701,-0.007536931,-0.01216597,0.01041073,-0.8606932,-2.427388,1.087294
0,3.433326,75,192,498,486,-0.009550661,-0.01307594,0.001191227,-1.492221,-3.043337,-1.656761,-0.00540769,-0.003616429,0.01570117,-0.860665,-2.426912,1.087026
0,3.444437,75,192,498,486,-0.01162272,-0.02269023,-0.00196284,-1.492141,-3.042816,-1.656593,-0.005410638,-0.004683554,0.01463771,-0.8605046,-2.426932,1.087095
0,3.455548,75,192,498,486,-0.01162272,-0.02269023,-0.00196284,-1.492141,-3.042816,-1.656593,-0.005410638,-0.004683554,0.01463771,-0.8605046,-2.426932,1.087095
0,3.466659,76,189,498,497,-0.008425906,-0.0226681,0.0001699293,-1.492223,-3.042234,-1.656586,-0.005439259,-0.008959449,0.006120695,-0.8604503,-2.427292,1.087267
0,3.47777,76,189,498,497,-0.008434026,-0.02159162,0.001227169,-1.492186,-3.042105,-1.656455,-0.001195129,-0.01000603,0.002903852,-0.8603811,-2.427307,1.087174
0,3.488881,76,189,498,497,-0.002067993,-0.01624013,-0.0009181165,-1.492119,-3.042071,-1.656619,-0.004389736,-0.01215085,0.001862956,-0.8603262,-2.427503,1.087427
0,3.499992,76,189,498,497,-0.004217204,-0.01305182,-0.001997084,-1.492142,-3.042123,-1.656448,-0.007638508,-0.00471417,-0.002387929,-0.8604881,-2.427407,1.087464
0,3.511103,79,220,498,498,-0.001070565,-0.003456764,-0.004167886,-1.492044,-3.042346,-1.656537,-0.008719126,0.002742708,-0.0002627175,-0.8605627,-2.427076,1.08738
0,3.522214,79,220,498,498,-0.003258254,0.006144977,3.63643E-05,-1.492018,-3.042745,-1.656428,-0.01404806,0.008051381,0.001895102,-0.8605866,-2.42678,1.087411
0,3.533325,79,220,498,498,-0.001129213,0.00827147,-0.003163294,-1.491915,-3.042829,-1.656559,-0.01404257,0.009116489,0.004015132,-0.8606468,-2.426727,1.087591
0,3.544436,79,220,498,498,-0.001142484,0.01040699,-0.0021084,-1.491869,-3.043004,-1.656498,-0.01300218,0.002716137,-0.003438114,-0.860796,-2.427008,1.087901
0,3.555547,79,220,498,498,0.0009859883,0.01150319,0.001086747,-1.491992,-3.043236,-1.656722,-0.01091595,0.002722785,-0.009852572,-0.8612333,-2.427057,1.088027
0,3.566658,79,178,498,499,0.003107276,0.01259033,0.003215613,-1.492053,-3.043434,-1.656775,-0.01515441,-0.004753041,-0.01087634,-0.8612578,-2.427453,1.088575
0,3.577769,79,178,498,499,0.003134759,0.007270681,0.004307749,-1.492162,-3.043402,-1.65682,-0.01831579,0.0005741864,-0.004479617,-0.861302,-2.427207,1.088498
0,3.58888,79,178,498,499,0.001055555,-0.002323439,0.005414729,-1.492231,-3.043118,-1.656769,-0.01724907,0.003778845,-0.002362327,-0.8613473,-2.427003,1.08853
0,3.599991,79,178,498,499,-0.002119964,-0.005522008,0.007556677,-1.492397,-3.043059,-1.656743,-0.01404281,0.002722723,-0.002383993,-0.8613552,-2.427139,1.088585
0,3.611102,78,239,497,493,0.001099412,-0.009765411,0.007582227,-1.492503,-3.042838,-1.656857,-0.01621966,0.006965371,-0.006640226,-0.8616487,-2.427118,1.088817
0,3.622213,78,239,497,493,0.00428943,-0.008695458,0.00545,-1.492513,-3.042762,-1.656959,-0.01834918,0.01015575,-0.0055677,-0.8618059,-2.426897,1.088864
0,3.633324,78,239,497,493,0.003185792,-0.004416206,0.009684796,-1.492635,-3.04289,-1.656813,-0.01835017,0.01228845,-0.004508819,-0.8619481,-2.426715,1.088943
0,3.644435,78,239,497,493,-0.001048279,-0.00871085,0.007567395,-1.492673,-3.042673,-1.656684,-0.01834556,0.01121796,-0.00557204,-0.8620434,-2.426707,1.089026
0,3.655546,78,239,497,493,-0.002118139,-0.007669428,0.004359954,-1.492617,-3.042591,-1.656602,-0.01619086,0.0005716179,-0.008758973,-0.8620343,-2.427038,1.089316
0,3.666657,78,204,497,498,-0.006403957,-0.004477649,0.008598588,-1.492869,-3.04265,-1.65647,-0.01084915,-0.006867837,-0.01091293,-0.8620508,-2.427484,1.089559
0,3.677768,78,204,497,498,-0.003209106,-0.00443934,0.01073708,-1.492964,-3.042747,-1.656462,-0.009779297,-0.008990787,-0.01091836,-0.8621473,-2.427681,1.089842
0,3.688879,78,204,497,498,-0.006421896,-0.002312567,0.01391716,-1.493275,-3.042809,-1.656371,-0.009766197,-0.006854706,-0.007726154,-0.8621526,-2.427718,1.089982
0,3.69999,78,204,497,498,-0.006419105,-0.001260759,0.01177286,-1.493251,-3.042775,-1.6564,-0.01189401,-0.003663291,-0.006653477,-0.8622447,-2.427664,1.090032
0,3.711101,82,210,497,498,-0.005336648,-0.002349222,0.006450234,-1.493021,-3.042629,-1.656303,-0.01404746,-0.001544877,-0.008773217,-0.862412,-2.427718,1.090286
0,3.722212,82,210,497,498,-0.002132067,-0.003415179,0.003266129,-1.493188,-3.042545,-1.656489,-0.01616758,0.005917069,-0.00237884,-0.8624051,-2.427299,1.090291
0,3.733323,82,210,497,498,-0.004250417,-0.004505236,6.778524E-05,-1.492957,-3.042489,-1.656304,-0.01721404,0.01337709,0.003999764,-0.8624423,-2.426931,1.090155
0,3.744434,82,210,497,498,-0.003164672,-0.008749946,0.002226363,-1.493283,-3.042317,-1.656404,-0.01186653,0.01020467,0.005039793,-0.8623193,-2.426782,1.090059
0,3.755545,82,210,497,498,-0.004201483,-0.01408772,0.0001217064,-1.493208,-3.042104,-1.656249,-0.008670239,0.004886136,0.001825184,-0.8624243,-2.426974,1.090183
0,3.766656,81,195,499,503,-0.002069939,-0.01408085,-0.0009392467,-1.493112,-3.041939,-1.656261,-0.006545946,-0.002571561,-0.003502952,-0.8624673,-2.427343,1.09045
0,3.777767,81,195,499,503,0.001133251,-0.01406877,-0.003066573,-1.493213,-3.041865,-1.656521,-0.004405564,-0.000422121,-0.001393506,-0.86255,-2.427146,1.090271
0,3.788878,81,195,499,503,0.003227521,-0.007665276,-0.003092385,-1.493152,-3.041944,-1.656581,-0.006521229,-0.0004269686,0.0007580506,-0.8623939,-2.427052,1.090332
0,3.799989,81,195,499,503,0.002155514,-0.006597854,-0.004157744,-1.493184,-3.042084,-1.656533,-0.01188355,0.008073675,0.0007931149,-0.8623619,-2.426577,1.090323
0,3.8111,83,195,498,488,-0.002126292,-0.001300934,-0.006306129,-1.493087,-3.042283,-1.656366,-0.008697173,0.01235055,0.001834381,-0.8623768,-2.426182,1.090083
0,3.822211,83,195,498,488,1.622923E-05,-0.003418782,-0.006289347,-1.493183,-3.042182,-1.656526,-0.01401737,0.01233823,0.004002012,-0.8623614,-2.425892,1.090311
0,3.833322,83,195,498,488,1.739431E-05,-0.00445721,-0.0009588019,-1.493208,-3.042154,-1.656501,-0.009720372,0.01023636,0.008225839,-0.8623688,-2.425716,1.090199
0,3.844433,83,195,498,488,-0.002091277,-0.007674822,-0.003078337,-1.493208,-3.041972,-1.656517,-0.005470648,-0.0004070741,-0.0003105317,-0.86251,-2.426073,1.09031
0,3.855544,83,195,498,488,7.430592E-05,-0.01297681,-0.001979818,-1.493292,-3.041775,-1.656698,-0.00441917,-0.005731866,-0.005631449,-0.862599,-2.426265,1.090454
0,3.866655,81,175,498,505,7.981586E-05,-0.01509238,0.001226865,-1.493338,-3.041534,-1.656669,-0.003366653,-0.002531766,-0.005644063,-0.8626953,-2.426225,1.090432
0,3.877766,81,175,498,505,0.005414083,-0.01507774,-0.003022641,-1.493177,-3.041447,-1.656854,-0.005467499,0.001737519,0.001833806,-0.8624168,-2.42572,1.090271
0,3.888877,81,175,498,505,0.002211395,-0.01297428,-0.005169776,-1.493176,-3.041353,-1.656862,-0.004380622,0.001747246,0.005022407,-0.8622969,-2.425621,1.090224
0,3.899988,81,175,498,505,0.002132563,-0.0001708651,-0.0009666046,-1.493255,-3.041704,-1.656852,-0.004397534,0.003876742,0.003967969,-0.8621622,-2.425371,1.090122
0,3.911099,81,175,498,505,-0.002161642,0.006188997,-0.003134347,-1.492979,-3.041968,-1.656512,-0.002286105,0.0006905724,-0.000299333,-0.8622543,-2.425397,1.090162
0,3.92221,79,254,498,489,-0.0001183078,0.02114473,0.002127026,-1.493214,-3.042708,-1.656703,-0.001216968,-0.005702401,-0.003491558,-0.8622501,-2.42576,1.090388
0,3.933321,79,254,498,489,-0.002257944,0.02327642,0.003182058,-1.493258,-3.043111,-1.65662,-0.003314069,-0.007829322,-0.0002748936,-0.8621249,-2.425716,1.090413
0,3.944432,79,254,498,489,-0.00222724,0.01794492,0.00214248,-1.493248,-3.043186,-1.656625,0.0009830194,-0.00780325,0.00502261,-0.8619577,-2.425704,1.090275
0,3.955544,79,254,498,489,-0.002184896,0.01049211,0.002174424,-1.493129,-3.043154,-1.656502,-3.783545E-05,-0.009924959,0.01036236,-0.8616551,-2.425661,1.090285
0,3.966655,80,209,497,504,-0.002127736,0.001945765,-0.002041783,-1.49321,-3.042874,-1.656694,-0.004303138,-0.008876608,0.01038942,-0.8615156,-2.425683,1.090461
0,3.977766,80,209,497,504,-0.005286901,-0.004459296,-0.0009493722,-1.493353,-3.042685,-1.65666,-0.001114543,-0.01527121,0.006117685,-0.8613616,-2.426267,1.090809
0,3.988877,80,209,497,504,-0.00423691,-0.002319394,-0.002017371,-1.493338,-3.042836,-1.656556,-0.003275183,-0.01315458,0.002932699,-0.861376,-2.426402,1.090992
0,3.999988,80,209,497,504,-0.003191328,-0.001267462,-0.003082903,-1.493184,-3.042666,-1.656227,-0.003264681,-0.008892201,0.007181626,-0.8612189,-2.426397,1.091038
0.2,4.011099,80,209,497,504,-0.004295318,0.004067205,-0.0009711438,-1.493446,-3.042897,-1.656175,-0.003267484,-0.004624814,0.01036692,-0.8611182,-2.42625,1.091076
0.4,4.02221,80,229,498,498,-0.006406079,0.0008548917,-0.002025132,-1.493316,-3.042825,-1.65596,-0.006492093,-0.004644822,0.006127468,-0.8611438,-2.42632,1.091279
0.6,4.033321,80,229,498,498,-0.009607467,0.001901692,-0.002041319,-1.4932,-3.042847,-1.65577,-0.005420318,-0.004648517,0.006116841,-0.8610495,-2.426501,1.091318
0.8,4.044433,80,229,498,498,-0.006396695,0.0008288074,-0.007357321,-1.492966,-3.042785,-1.655787,-0.007530956,-0.007851912,0.007200953,-0.8608854,-2.426654,1.091567
1,4.055544,80,229,498,498,-0.0116802,-0.007717434,-0.007323858,-1.492948,-3.042506,-1.655472,-0.009670917,-0.007867207,0.007215522,-0.8607315,-2.426807,1.091972
1.2,4.066655,78,200,498,509,-0.00740211,-0.01089093,-0.007293232,-1.493028,-3.042314,-1.655565,-0.01071683,-0.003600726,0.01254476,-0.860478,-2.426511,1.091919
1.4,4.077766,78,200,498,509,-0.006341245,-0.0108822,-0.007296154,-1.492865,-3.042216,-1.655443,-0.008584291,-0.006794988,0.0114663,-0.8603246,-2.426742,1.092171
1.6,4.088878,78,200,498,509,-0.007421381,-0.008753366,-0.007305303,-1.492836,-3.042236,-1.655299,-0.006457956,-0.01318352,0.007195646,-0.8602942,-2.427142,1.092465
1.8,4.099989,78,200,498,509,-0.0159507,-0.007717583,-0.004132366,-1.49285,-3.042214,-1.65495,-0.008594955,-0.01639012,0.002961884,-0.8601786,-2.427355,1.092627
2,4.1111,78,200,498,509,-0.02875756,-0.003529171,-0.005235949,-1.492791,-3.042318,-1.654238,-0.009666542,-0.01319428,0.00402357,-0.8601627,-2.427373,1.092797
2.2,4.122211,76,200,498,497,-0.03305586,0.0006984287,-0.005262522,-1.492758,-3.042309,-1.653554,-0.009643315,-0.003593961,0.01359889,-0.8598282,-2.426828,1.092617
2.4,4.133323,76,200,498,497,-0.0245517,0.002903177,-0.001000535,-1.492804,-3.042478,-1.653557,-0.009590646,-0.004644392,0.0189199,-0.8596077,-2.426707,1.092457
2.6,4.144434,76,200,498,497,-0.01285041,0.004063513,0.005405795,-1.49303,-3.042583,-1.653752,-0.008559724,-0.001449771,0.01571149,-0.8595885,-2.426552,1.092422
2.8,4.155545,76,200,498,497,-0.007498777,-0.002288099,0.007576564,-1.493195,-3.042392,-1.653713,-0.003334167,-0.01212689,-0.004549338,-0.8599118,-2.427669,1.093134
3,4.166656,76,200,498,497,-0.009566911,-0.01296251,0.005492965,-1.493221,-3.041959,-1.653583,-0.004415502,-0.01533428,-0.008797828,-0.8599907,-2.428095,1.09349
3.200001,4.177768,74,255,498,486,-0.01163486,-0.02257647,0.004471203,-1.493331,-3.041321,-1.653548,-0.005473875,-0.006814615,-0.003486231,-0.8599688,-2.427993,1.093451
3.400001,4.188879,74,255,498,486,-0.01162719,-0.02364674,0.003410999,-1.49335,-3.041019,-1.653441,-0.008730308,0.002756786,-0.006682036,-0.8603352,-2.427712,1.093465
3.600001,4.19999,74,255,498,486,-0.008466784,-0.01936855,0.004464807,-1.493456,-3.040884,-1.653323,-0.002380352,0.0006371895,-0.01417689,-0.8606069,-2.42806,1.093545
3.800001,4.211102,74,255,498,486,-0.00640611,-0.006574886,0.004411048,-1.493514,-3.041165,-1.653303,-0.005504015,-0.003621317,-0.005625665,-0.8603683,-2.428128,1.093762
4,4.222213,76,245,498,492,-0.008682669,0.01792477,0.007486735,-1.493606,-3.041989,-1.653021,-0.003304875,-0.01213717,-0.001368539,-0.8601009,-2.4287,1.094039
4.2,4.233324,76,245,498,492,-0.01195914,0.03069416,0.008490108,-1.493731,-3.042605,-1.652642,0.004346174,-0.03658412,0.01246683,-0.8592284,-2.42964,1.094341
4.4,4.244435,76,245,498,492,-0.02481578,0.04131646,0.01694025,-1.494081,-3.043387,-1.651945,0.01948449,-0.05672891,0.03370543,-0.857802,-2.430444,1.094221
4.6,4.255547,76,245,498,492,-0.03336305,0.04552718,0.01584211,-1.494181,-3.044002,-1.651264,0.009966279,-0.04822623,0.04973382,-0.8568017,-2.430344,1.094398
4.8,4.266658,76,245,498,492,-0.02903821,0.03698351,0.006301903,-1.493949,-3.044139,-1.651035,-0.01252186,-0.01528595,0.05195536,-0.8566276,-2.429179,1.094371
5,4.277769,75,247,498,501,-0.0193299,0.01677,0.00321796,-1.493939,-3.043585,-1.65121,-0.02543143,0.01768289,0.05198334,-0.8566377,-2.427673,1.093928
5.199999,4.28888,75,247,498,501,-0.02443821,-0.01848098,-0.01047681,-1.493488,-3.042342,-1.650886,-0.0446158,0.06345838,0.077604,-0.8561195,-2.424441,1.092813
5.399999,4.299992,75,247,498,501,-0.03599293,-0.04416725,-0.02209023,-1.493054,-3.041119,-1.65025,-0.05004803,0.07940868,0.07121592,-0.8562233,-2.422673,1.092296
5.599999,4.311103,75,247,498,501,-0.07096882,-0.06898567,-0.04972868,-1.491874,-3.039758,-1.648566,-0.05341389,0.08361679,0.04779669,-0.8567549,-2.421561,1.092161
5.799999,4.322214,75,232,499,490,-0.09445363,-0.05744284,-0.05941092,-1.490967,-3.039338,-1.646939,-0.05556329,0.04308207,0.02124722,-0.8568817,-2.422502,1.093468
5.999999,4.333325,75,232,499,490,-0.1168787,-0.04375668,-0.0659058,-1.490138,-3.039065,-1.645319,-0.05025728,0.01110631,-0.001109934,-0.857092,-2.423689,1.094604
6.199998,4.344437,75,232,499,490,-0.1467886,-0.02586283,-0.0766944,-1.488963,-3.039216,-1.642858,-0.05133161,-0.0336872,-0.0287247,-0.8573179,-2.426296,1.096902
6.399998,4.355548,75,232,499,490,-0.1787549,-0.02390335,-0.07569349,-1.488188,-3.038915,-1.640148,-0.05429356,-0.0688321,-0.01478892,-0.8562292,-2.428005,1.098705
6.599998,4.366659,75,232,499,490,-0.2287608,-0.03379343,-0.08105871,-1.487167,-3.038172,-1.636198,-0.06568544,-0.07838595,0.02791863,-0.854463,-2.428313,1.099931
6.799998,4.37777,75,143,498,499,-0.2679731,-0.06709486,-0.09056725,-1.485886,-3.036193,-1.632409,-0.07718469,-0.07411149,0.0620831,-0.8527271,-2.428034,1.100841
6.999998,4.388882,75,143,498,499,-0.2837157,-0.1066511,-0.1021184,-1.484685,-3.033872,-1.629047,-0.09617542,-0.06241214,0.09628354,-0.8507532,-2.427226,1.101935
7.199997,4.399993,75,143,498,499,-0.3005719,-0.1387332,-0.1083921,-1.483414,-3.03148,-1.625549,-0.1119405,-0.06348027,0.1283557,-0.8483979,-2.426639,1.103285
7.399997,4.411104,75,143,498,499,-0.3216441,-0.1783324,-0.123155,-1.481851,-3.02852,-1.621592,-0.1332871,-0.06250912,0.1231725,-0.8470488,-2.426745,1.105391
7.599997,4.422215,75,143,498,499,-0.3343308,-0.1923071,-0.134829,-1.480156,-3.025893,-1.617761,-0.146097,-0.07216382,0.1136877,-0.8456751,-2.427415,1.107822
7.799997,4.433327,74,141,498,502,-0.3534454,-0.1978195,-0.1518845,-1.4781,-3.023513,-1.613568,-0.1514504,-0.07537821,0.1094726,-0.8442295,-2.427651,1.109918
7.999997,4.444438,74,141,498,502,-0.3704847,-0.196879,-0.15831,-1.476251,-3.021273,-1.609225,-0.1643499,-0.05519767,0.104199,-0.8432527,-2.427109,1.111694
8.199997,4.455549,74,141,498,502,-0.3822524,-0.1863205,-0.1626441,-1.474387,-3.019317,-1.604924,-0.1739779,-0.04672024,0.1042491,-0.8420255,-2.426899,1.113819
8.399997,4.46666,74,141,498,502,-0.3897505,-0.1768093,-0.1680396,-1.472318,-3.017395,-1.600646,-0.1771964,-0.03181036,0.1095749,-0.840777,-2.426029,1.11527
8.599997,4.477772,74,254,498,496,-0.3716317,-0.1777835,-0.1701326,-1.470466,-3.015322,-1.597223,-0.1867518,-0.03930131,0.1107192,-0.8393165,-2.426038,1.117652
8.799996,4.488883,74,254,498,496,-0.3450394,-0.1733772,-0.1690372,-1.468716,-3.013377,-1.594195,-0.1900325,-0.0414668,0.09689763,-0.83846,-2.426241,1.119993
8.999996,4.499994,74,254,498,496,-0.3258444,-0.1817143,-0.1508497,-1.467718,-3.010991,-1.591455,-0.1816105,-0.03611718,0.08618508,-0.8377362,-2.425979,1.12167
9.199996,4.511106,74,254,498,496,-0.3365193,-0.1806673,-0.1434073,-1.46642,-3.009057,-1.587543,-0.1784203,-0.03290324,0.08722585,-0.8366981,-2.425642,1.123339
9.399996,4.522217,74,254,498,496,-0.3482745,-0.1764612,-0.1413189,-1.464871,-3.007207,-1.58341,-0.1815348,-0.03396633,0.09683669,-0.8352962,-2.425367,1.12509
9.599996,4.533328,80,205,499,498,-0.3579685,-0.1583905,-0.1392921,-1.46337,-3.006002,-1.579277,-0.1792624,-0.02539317,0.1223825,-0.8332791,-2.42414,1.126153
9.799995,4.544439,80,205,499,498,-0.3601939,-0.1434644,-0.1329744,-1.462057,-3.004711,-1.57535,-0.1834832,-0.02646621,0.1277395,-0.8317094,-2.423598,1.127958
9.999995,4.555551,80,205,499,498,-0.3506149,-0.1433783,-0.1244292,-1.46098,-3.003021,-1.572025,-0.1899971,-0.01478913,0.1171111,-0.8309004,-2.422827,1.129764
10.2,4.566662,80,205,499,498,-0.3410097,-0.1465208,-0.124398,-1.459608,-3.001297,-1.568687,-0.1837891,0.0001271665,0.09892379,-0.8306522,-2.421901,1.13104
10.39999,4.577773,87,153,498,498,-0.3292791,-0.1527941,-0.111565,-1.458697,-2.999333,-1.565543,-0.1827467,0.00546208,0.09891064,-0.8296887,-2.420957,1.132413
10.59999,4.588884,87,153,498,498,-0.3303025,-0.1613114,-0.110457,-1.45754,-2.997372,-1.561973,-0.1893213,0.02032664,0.08081043,-0.8297009,-2.419913,1.133994
10.79999,4.599996,87,153,498,498,-0.3312996,-0.1751772,-0.1114694,-1.456102,-2.994992,-1.558368,-0.1947436,0.03201964,0.07337593,-0.8294224,-2.418563,1.135403
10.99999,4.611107,87,153,498,498,-0.335511,-0.1847818,-0.1103604,-1.454915,-2.992711,-1.554764,-0.2010081,0.06508565,0.1106468,-0.8281233,-2.415166,1.135441
11.19999,4.622218,87,153,498,498,-0.3301662,-0.1879336,-0.1092791,-1.453601,-2.990663,-1.551505,-0.1986841,0.0694086,0.1415225,-0.826275,-2.412665,1.135906
11.39999,4.633329,90,157,497,497,-0.3270067,-0.1825692,-0.1039677,-1.452616,-2.988759,-1.548214,-0.1985868,0.06303501,0.1521859,-0.8247043,-2.410882,1.136896
11.59999,4.644441,90,157,497,497,-0.3133216,-0.1579531,-0.09554446,-1.451692,-2.987648,-1.54508,-0.1965266,0.0587554,0.1383247,-0.8239852,-2.409776,1.138176
11.79999,4.655552,90,157,497,497,-0.3113227,-0.1366042,-0.09031572,-1.450805,-2.98685,-1.541744,-0.1913506,0.05767232,0.1159266,-0.8235671,-2.408624,1.139437
11.99999,4.666663,90,157,497,497,-0.3148763,-0.07373643,-0.08208281,-1.450261,-2.987737,-1.538104,-0.1787018,0.05662888,0.09559484,-0.8234025,-2.407536,1.140383
12.19999,4.677774,85,187,499,516,-0.3310051,-0.04718292,-0.08225207,-1.449145,-2.987961,-1.533979,-0.1744713,0.04597712,0.08599646,-0.8228086,-2.406804,1.141821
12.39999,4.688886,85,187,499,516,-0.3555648,-0.03667006,-0.08341271,-1.448134,-2.987803,-1.529421,-0.1786778,0.03744352,0.08923209,-0.8219181,-2.405959,1.143374
12.59999,4.699997,85,187,499,516,-0.3651323,-0.04205981,-0.08446077,-1.447222,-2.98715,-1.525095,-0.1775786,0.04064867,0.09667595,-0.8209125,-2.404667,1.144491
12.79999,4.711108,85,187,499,516,-0.3768404,-0.0410958,-0.08769016,-1.446071,-2.986505,-1.520853,-0.1711539,0.0449627,0.1040837,-0.820031,-2.402869,1.145011
12.99999,4.722219,85,187,499,516,-0.3821097,-0.05178211,-0.08871746,-1.445,-2.985739,-1.51654,-0.165776,0.04286394,0.1104429,-0.818921,-2.401561,1.14582
13.19999,4.733331,84,251,498,500,-0.3820459,-0.06139571,-0.09291942,-1.443954,-2.984791,-1.512482,-0.1593038,0.02583128,0.108328,-0.8178563,-2.400856,1.14691
13.39999,4.744442,84,251,498,500,-0.3820459,-0.06139571,-0.09291942,-1.443954,-2.984791,-1.512482,-0.1593038,0.02583128,0.108328,-0.8178563,-2.400856,1.14691
13.59999,4.755553,84,251,498,500,-0.3819204,-0.07740547,-0.1013584,-1.441556,-2.982963,-1.504526,-0.1591677,-0.01144241,0.1115523,-0.8150642,-2.400941,1.150635
13.79999,4.766665,84,251,498,500,-0.3766361,-0.06992217,-0.1024491,-1.440365,-2.982449,-1.500475,-0.1645665,-0.006146446,0.1041179,-0.8143004,-2.400295,1.152162
13.99999,4.777776,97,235,498,497,-0.3745396,-0.05721626,-0.1068305,-1.439232,-2.982038,-1.496385,-0.1741908,0.0129967,0.1105375,-0.8133283,-2.398839,1.153417
14.19999,4.788887,97,235,498,497,-0.3745396,-0.05721626,-0.1068305,-1.439232,-2.982038,-1.496385,-0.1741908,0.0129967,0.1105375,-0.8133283,-2.398839,1.153417
14.39999,4.799998,97,235,498,497,-0.3843526,-0.02310388,-0.1026736,-1.437053,-2.982531,-1.487677,-0.1869925,0.08866164,0.1530988,-0.810931,-2.392084,1.153262
14.59999,4.81111,97,235,498,497,-0.4098849,-0.0275349,-0.1080145,-1.435725,-2.982243,-1.482429,-0.1837692,0.1153471,0.1743465,-0.8094001,-2.388191,1.152677
14.79999,4.822221,97,235,498,497,-0.4225184,-0.0553171,-0.1100318,-1.434356,-2.980955,-1.477516,-0.1784111,0.1036462,0.1721997,-0.8080611,-2.386013,1.152997
14.99999,4.833332,109,166,497,497,-0.4298407,-0.07670312,-0.1152648,-1.43286,-2.979507,-1.472871,-0.1752283,0.08445644,0.1583664,-0.8069277,-2.384822,1.153981
15.19999,4.844443,109,166,497,497,-0.4328693,-0.1055151,-0.1225893,-1.431129,-2.977766,-1.468169,-0.1751112,0.04929656,0.1552294,-0.805277,-2.384455,1.155684
15.39999,4.855555,109,166,497,497,-0.4338565,-0.1193726,-0.1235868,-1.429617,-2.976254,-1.463541,-0.154619,0.01744723,0.1753937,-0.802624,-2.383823,1.156581
15.59999,4.866666,109,166,497,497,-0.432823,-0.111907,-0.1268161,-1.428082,-2.975645,-1.458907,-0.1202578,0.01764828,0.2156443,-0.7995726,-2.381639,1.155536
15.79999,4.877777,109,166,497,497,-0.4349893,-0.1055041,-0.1225937,-1.42667,-2.974824,-1.454236,-0.1073942,0.02198318,0.2304745,-0.7969499,-2.379394,1.154914
15.99999,4.888888,124,226,495,497,-0.4435909,-0.09064182,-0.1237458,-1.425154,-2.974348,-1.449186,-0.09339159,0.02207965,0.253807,-0.7940587,-2.3772,1.154091
16.19999,4.9,124,226,495,497,-0.4575699,-0.06834025,-0.1206816,-1.423838,-2.974374,-1.443703,-0.08061606,0.03278702,0.2590356,-0.7914931,-2.374737,1.152983
16.39999,4.911111,124,226,495,497,-0.469391,-0.04923598,-0.1229155,-1.422511,-2.974523,-1.438166,-0.07971209,0.01355653,0.2239064,-0.7898957,-2.374236,1.153456
16.59999,4.922222,124,226,495,497,-0.481227,-0.03007363,-0.1251164,-1.421533,-2.975515,-1.4322,-0.09359329,-0.01529245,0.2016744,-0.7881375,-2.374417,1.15497
16.79999,4.933333,147,159,497,497,-0.4897396,-0.02804305,-0.1304748,-1.419807,-2.975155,-1.426753,-0.09573094,-0.02063152,0.1963736,-0.786064,-2.373506,1.155347
16.99999,4.944445,147,159,497,497,-0.5035237,-0.04096837,-0.142148,-1.417886,-2.974493,-1.420566,-0.1075189,-0.04308811,0.173054,-0.7844506,-2.374195,1.157334
17.19999,4.955556,147,159,497,497,-0.5087932,-0.05271994,-0.1484736,-1.416183,-2.974199,-1.414617,-0.1342024,-0.03786318,0.1689636,-0.7827499,-2.373372,1.158955
17.39999,4.966667,147,159,497,497,-0.5140024,-0.07195508,-0.1537169,-1.414157,-2.973157,-1.40898,-0.15112,-0.01763365,0.1999306,-0.7802109,-2.371241,1.159554
17.59999,4.977778,147,159,497,497,-0.5086176,-0.08573721,-0.1515076,-1.412431,-2.972417,-1.40343,-0.1563824,0.001549512,0.2201708,-0.7777059,-2.368988,1.159734
17.8,4.98889,144,157,494,495,-0.4841014,-0.08877784,-0.1418609,-1.410926,-2.971304,-1.398999,-0.1616982,0.03885496,0.243578,-0.7752733,-2.365185,1.158967
18,5.000001,144,157,494,495,-0.479919,-0.07702126,-0.1408378,-1.409381,-2.971171,-1.393658,-0.1660834,0.08786038,0.2531167,-0.773391,-2.360452,1.157488
18.2,5.011112,144,157,494,495,-0.4789655,-0.05781971,-0.1355979,-1.40805,-2.971233,-1.388383,-0.1757525,0.1176634,0.2584561,-0.7715412,-2.355947,1.156482
18.4,5.022223,144,157,494,495,-0.4844423,-0.03121565,-0.1399951,-1.406465,-2.972092,-1.382542,-0.1810799,0.1464322,0.2765492,-0.76922,-2.350946,1.155159
18.6,5.033335,188,165,489,494,-0.4792143,-0.0130886,-0.1411478,-1.404834,-2.972637,-1.377238,-0.1789901,0.1389537,0.2669539,-0.7673089,-2.347888,1.154928
18.8,5.044446,188,165,489,494,-0.4740067,0.006149514,-0.1380316,-1.40358,-2.973677,-1.371835,-0.1746193,0.1144735,0.2690931,-0.7648364,-2.345306,1.154909
19,5.055557,188,165,489,494,-0.4687557,0.01792248,-0.134878,-1.402378,-2.974515,-1.366567,-0.1735091,0.1048906,0.270168,-0.7624502,-2.342291,1.154629
19.2,5.066669,188,165,489,494,-0.4549415,0.02334295,-0.130617,-1.401151,-2.975138,-1.361789,-0.1691713,0.07080233,0.2616737,-0.7599591,-2.34076,1.155318
19.4,5.07778,188,165,489,494,-0.4517884,0.02871396,-0.127427,-1.400102,-2.975997,-1.3566,-0.158513,0.05696729,0.2552367,-0.7575202,-2.339031,1.155615
19.6,5.088891,202,135,497,497,-0.4401379,0.04368252,-0.1285493,-1.398825,-2.977094,-1.351973,-0.1585129,0.03350702,0.2414301,-0.7552426,-2.33797,1.156584
19.8,5.100002,202,135,497,497,-0.4391201,0.05222552,-0.1275187,-1.397675,-2.978308,-1.346935,-0.1639728,0.03665605,0.2222922,-0.7535793,-2.335942,1.157013
20,5.111114,202,135,497,497,-0.4380845,0.05858199,-0.1328847,-1.39614,-2.979319,-1.34186,-0.1714934,0.0419431,0.2159433,-0.7517821,-2.333781,1.157549
20.2,5.122225,202,135,497,497,-0.4337982,0.05434177,-0.13498,-1.394826,-2.980249,-1.336974,-0.1794041,0.09085825,0.1786287,-0.7517731,-2.329926,1.157066
20.40001,5.133336,193,129,510,497,-0.4295375,0.0532782,-0.1339101,-1.393428,-2.980871,-1.332169,-0.1847249,0.1025729,0.1861062,-0.7501837,-2.326643,1.156827
20.60001,5.144447,193,129,510,497,-0.4177378,0.03949638,-0.1348832,-1.392036,-2.981411,-1.327776,-0.1825011,0.1079375,0.2031251,-0.7482662,-2.323247,1.156326
20.80001,5.155559,193,129,510,497,-0.4177378,0.03949638,-0.1348832,-1.392036,-2.981411,-1.327776,-0.1825011,0.1079375,0.2031251,-0.7482662,-2.323247,1.156326
21.00001,5.16667,193,129,510,497,-0.406999,0.02360343,-0.1326595,-1.389314,-2.982513,-1.318735,-0.1803914,0.1121929,0.2009733,-0.745234,-2.317344,1.155801
21.20001,5.177781,193,129,510,497,-0.4005449,0.01405119,-0.13473,-1.387821,-2.982885,-1.314494,-0.1772035,0.1036586,0.195628,-0.7437676,-2.315384,1.156275
21.40001,5.188892,399,111,501,502,-0.3940921,0.002382483,-0.1346595,-1.386378,-2.983079,-1.310238,-0.1761451,0.09193638,0.1881721,-0.7424994,-2.313384,1.156767
21.60001,5.200004,399,111,501,502,-0.3875753,-0.01994482,-0.1334844,-1.384688,-2.982603,-1.306228,-0.1750869,0.06528693,0.1722399,-0.7410416,-2.312369,1.158023
21.80001,5.211115,399,111,501,502,-0.3779173,-0.03056779,-0.13343,-1.38293,-2.982165,-1.302491,-0.175216,0.04499963,0.1413741,-0.7404621,-2.312116,1.159799
22.00001,5.222226,399,111,501,502,-0.3757688,-0.03374739,-0.1344747,-1.381402,-2.982212,-1.298404,-0.1795658,0.04069036,0.1254293,-0.7397708,-2.311122,1.161143
22.20001,5.233337,399,111,501,502,-0.377903,-0.03269244,-0.1323627,-1.379847,-2.982212,-1.294172,-0.1731638,0.04285508,0.1285665,-0.7387406,-2.309511,1.161732
22.40001,5.244449,355,147,496,491,-0.3939558,-0.02103969,-0.128184,-1.378656,-2.982696,-1.289229,-0.1752102,0.03967211,0.1403001,-0.7370895,-2.307853,1.162576
22.60001,5.25556,355,147,496,491,-0.4078604,-0.01258488,-0.1261159,-1.37738,-2.98318,-1.284159,-0.1698251,0.04290694,0.1509118,-0.7354825,-2.305873,1.162835
22.80001,5.266671,355,147,496,491,-0.4196736,0.003349574,-0.1219498,-1.376348,-2.984056,-1.278959,-0.1528101,0.04830182,0.1507859,-0.7342654,-2.303865,1.162557
23.00002,5.277782,355,147,496,491,-0.4197432,0.01400541,-0.1177444,-1.375256,-2.984712,-1.274141,-0.1688027,0.04716623,0.1487727,-0.7329051,-2.302292,1.163836
23.20002,5.288894,355,147,496,491,-0.4133974,0.02046056,-0.1145539,-1.374446,-2.985579,-1.269531,-0.1815765,0.04818541,0.1509848,-0.7315544,-2.300487,1.164883
23.40002,5.300005,320,185,506,489,-0.4144405,0.01830657,-0.1209366,-1.373023,-2.986284,-1.264764,-0.1783283,0.0524686,0.1616131,-0.7297892,-2.298344,1.165155
23.60002,5.311116,320,185,506,489,-0.4186475,0.00868888,-0.12197,-1.37158,-2.98652,-1.259888,-0.174053,0.05248883,0.1637148,-0.7282978,-2.296403,1.165511
23.80002,5.322227,320,185,506,489,-0.4249834,-0.001986982,-0.1219294,-1.37023,-2.986744,-1.254932,-0.1718827,0.05143681,0.1690321,-0.7266163,-2.294502,1.165933
24.00002,5.333339,320,185,506,489,-0.4238653,-0.01052874,-0.1229593,-1.36867,-2.986629,-1.250348,-0.1653678,0.03443614,0.1775368,-0.7245631,-2.293341,1.166724
24.20002,5.34445,325,176,486,500,-0.41748,-0.01362033,-0.1122739,-1.367857,-2.98688,-1.245797,-0.1674234,0.008855015,0.1765229,-0.7225337,-2.293206,1.168758
24.40002,5.355561,325,176,486,500,-0.4111404,-0.005074644,-0.1112392,-1.366738,-2.987362,-1.2413,-0.1674234,0.008854926,0.1765229,-0.7207728,-2.291927,1.169669
24.60002,5.366673,325,176,486,500,-0.4080359,0.009893645,-0.1049132,-1.366054,-2.988376,-1.236717,-0.1717508,0.01946718,0.1722725,-0.7193485,-2.290306,1.170407
24.80002,5.377784,325,176,486,500,-0.4122582,0.001365107,-0.1006178,-1.365014,-2.988381,-1.23198,-0.1749635,0.03652799,0.1807878,-0.7176846,-2.287503,1.170491
25.00002,5.388895,325,176,486,500,-0.4143347,-0.008255584,-0.102713,-1.363606,-2.988307,-1.227277,-0.1696054,0.04615852,0.1913853,-0.7158279,-2.284925,1.170285
25.20002,5.400006,346,255,478,496,-0.4122195,-0.007159065,-0.1016382,-1.362728,-2.988769,-1.222573,-0.1663073,0.04406744,0.2052104,-0.7136323,-2.282767,1.170384
25.40002,5.411118,346,255,478,496,-0.4112378,0.005627838,-0.1006328,-1.361808,-2.989496,-1.217701,-0.1630474,0.03450087,0.2094591,-0.7114949,-2.281208,1.170936
25.60003,5.422229,346,255,478,496,-0.4156103,0.01725166,-0.09752675,-1.360464,-2.989441,-1.212339,-0.1673751,0.03019908,0.1956583,-0.7098528,-2.279803,1.171792
25.80003,5.43334,346,255,478,496,-0.4198885,0.01937357,-0.09434799,-1.359668,-2.990047,-1.207419,-0.1706921,0.02376375,0.1743714,-0.7088493,-2.278988,1.173214
26.00003,5.444451,353,172,492,498,-0.4294694,0.01505984,-0.09112547,-1.358953,-2.990249,-1.202148,-0.1643329,0.02058321,0.1658197,-0.7074096,-2.277692,1.173733
26.20003,5.455563,353,172,492,498,-0.4390104,0.005433352,-0.08895578,-1.358059,-2.990441,-1.196928,-0.1631281,0.0003617704,0.173304,-0.7052003,-2.277202,1.17501
26.40003,5.466674,353,172,492,498,-0.4400033,-0.007358713,-0.08676863,-1.356992,-2.990211,-1.192126,-0.1555487,-0.01237968,0.1839305,-0.7027518,-2.276613,1.176066
26.60003,5.477785,353,172,492,498,-0.4356844,-0.01796705,-0.08670666,-1.355973,-2.990349,-1.187317,-0.1502207,-0.01768741,0.1817769,-0.7007453,-2.275901,1.177133
26.80003,5.488896,353,172,492,498,-0.4324069,-0.03283254,-0.08023898,-1.35506,-2.989863,-1.182872,-0.1523477,-0.01556048,0.1839116,-0.698888,-2.274877,1.178128
27.00003,5.500008,358,152,491,494,-0.4313004,-0.04132174,-0.07805731,-1.354174,-2.989702,-1.178117,-0.1533681,-0.001699835,0.1977412,-0.6965935,-2.272913,1.178282
27.20003,5.511119,358,152,491,494,-0.4290585,-0.06051602,-0.07902806,-1.352778,-2.988659,-1.173664,-0.1522379,0.007918507,0.213688,-0.6942483,-2.270764,1.178308
27.40003,5.52223,358,152,491,494,-0.4279299,-0.07117696,-0.08322924,-1.351478,-2.988131,-1.169035,-0.1543784,0.01111525,0.2147638,-0.6921151,-2.268892,1.17871
27.60003,5.533341,358,152,491,494,-0.4225363,-0.08496767,-0.07889231,-1.350312,-2.987269,-1.164615,-0.1682143,0.02385667,0.2244187,-0.6898205,-2.266411,1.179118
27.80003,5.544453,333,123,498,498,-0.4204297,-0.08387587,-0.07889427,-1.3492,-2.986981,-1.159836,-0.1606965,0.0345661,0.2360721,-0.6873885,-2.263448,1.178083
28.00003,5.555564,333,123,498,498,-0.415178,-0.07208714,-0.0736002,-1.348607,-2.986958,-1.155395,-0.1585983,0.02710891,0.2264828,-0.6854396,-2.261914,1.178551
28.20004,5.566675,333,123,498,498,-0.4099602,-0.05182066,-0.07155022,-1.347992,-2.987098,-1.151038,-0.1586831,0.02282465,0.2115716,-0.6837778,-2.260545,1.17928
28.40004,5.577786,333,123,498,498,-0.4058625,-0.02511056,-0.06102093,-1.347834,-2.987755,-1.146539,-0.1576935,0.0228194,0.2009139,-0.6821272,-2.258843,1.179731
28.60004,5.588898,333,123,498,498,-0.4048905,-0.01016061,-0.05364291,-1.347458,-2.988163,-1.141993,-0.1566679,0.02494642,0.1966368,-0.6803918,-2.257105,1.180121
28.80004,5.600009,345,124,501,498,-0.402808,-0.001609752,-0.05367301,-1.34711,-2.988791,-1.137442,-0.1523964,0.0239138,0.1955536,-0.67855,-2.25508,1.17996
29.00004,5.61112,345,124,501,498,-0.4092207,0.0004734807,-0.05155789,-1.346644,-2.988812,-1.132623,-0.1449159,0.01648203,0.1955254,-0.6763545,-2.253779,1.180431
29.20004,5.622231,345,124,501,498,-0.4071639,0.01015677,-0.03668382,-1.346913,-2.989313,-1.128117,-0.1502297,0.01326537,0.1955665,-0.6743571,-2.252375,1.181171
29.40004,5.633343,345,124,501,498,-0.410356,0.00801339,-0.03242458,-1.346565,-2.989298,-1.123441,-0.1630391,0.01855278,0.1945845,-0.6725526,-2.250236,1.181724
29.60004,5.644454,310,120,504,497,-0.4081946,0.002715904,-0.03133723,-1.346214,-2.989453,-1.118979,-0.1555346,0.02285945,0.2041147,-0.6703421,-2.24812,1.181584
29.80004,5.655565,310,120,504,497,-0.3922072,-0.001428798,-0.02810062,-1.345966,-2.989571,-1.115004,-0.1320654,0.02508196,0.2103391,-0.6682068,-2.246335,1.180971
30.00004,5.666677,310,120,504,497,-0.3794205,-0.004526952,-0.02380153,-1.345823,-2.989547,-1.111066,-0.1182436,0.02192736,0.2049282,-0.6662787,-2.244832,1.180755
30.20004,5.677788,310,120,504,497,-0.3730862,0.004079159,-0.01742867,-1.346108,-2.989962,-1.106985,-0.09487778,0.05399171,0.2111107,-0.6644853,-2.241009,1.178087
30.40004,5.688899,310,120,504,497,-0.3806039,0.01577648,-0.01321097,-1.346503,-2.990342,-1.102639,-0.091732,0.05399054,0.2036304,-0.6628288,-2.238863,1.177356
30.60004,5.70001,314,111,493,499,-0.3955969,0.02850263,-0.007969029,-1.346863,-2.990948,-1.097694,-0.09603237,0.04649855,0.1908938,-0.6612634,-2.237272,1.177111
30.80005,5.711122,314,111,493,499,-0.4083906,0.03270667,-0.009079471,-1.346958,-2.991627,-1.092829,-0.115138,0.03684308,0.1963675,-0.659102,-2.235658,1.177711
31.00005,5.722233,314,111,493,499,-0.4073237,0.0348285,-0.009084754,-1.347035,-2.991892,-1.088484,-0.1172324,0.0368576,0.2027825,-0.6569507,-2.233173,1.177192
31.20005,5.733344,314,111,493,499,-0.3934761,0.037019,-0.0144094,-1.346931,-2.992558,-1.084334,-0.1214219,0.0262039,0.2070797,-0.6549224,-2.231585,1.177329
31.40005,5.744455,328,113,504,497,-0.3849899,0.03919541,-0.01335355,-1.346889,-2.993058,-1.07986,-0.1246311,0.02725902,0.2070873,-0.6531008,-2.229692,1.177381
31.60005,5.755567,328,113,504,497,-0.3775523,0.04349933,-0.01442869,-1.34705,-2.993718,-1.07574,-0.124675,0.03471574,0.2038769,-0.6513757,-2.227357,1.176839
31.80005,5.766678,328,113,504,497,-0.381887,0.05732706,-0.01129927,-1.347483,-2.994485,-1.071319,-0.1291104,0.0442591,0.1847025,-0.6504111,-2.225281,1.176866
32.00005,5.777789,328,113,504,497,-0.3925617,0.0615268,-0.01133479,-1.34775,-2.995236,-1.066552,-0.128132,0.04637358,0.1729738,-0.6492009,-2.223391,1.17675
32.20005,5.7889,328,113,504,497,-0.4032269,0.06253055,-0.00815995,-1.348035,-2.995712,-1.061685,-0.1301825,0.03465837,0.1793975,-0.6471801,-2.221883,1.17711
32.40005,5.800012,334,130,497,498,-0.3967567,0.04873244,-0.008073553,-1.348153,-2.996016,-1.05741,-0.1353518,0.02401191,0.1954329,-0.644796,-2.220246,1.177336
32.60005,5.811123,334,130,497,498,-0.3818164,0.04452389,-0.01122043,-1.348138,-2.996286,-1.053507,-0.1289496,0.02191302,0.1964539,-0.6429398,-2.218457,1.177215
32.80005,5.822234,334,130,497,498,-0.3743035,0.03280869,-0.0154178,-1.347811,-2.996309,-1.049321,-0.1225737,0.01020882,0.1868485,-0.6411715,-2.217486,1.17759
33.00005,5.833345,334,130,497,498,-0.3732083,0.0295852,-0.02497847,-1.347638,-2.99689,-1.045021,-0.1301416,0.001625732,0.1656003,-0.6400124,-2.21697,1.178825
33.20005,5.844457,334,130,497,498,-0.3721604,0.03483477,-0.03778069,-1.347201,-2.997548,-1.040673,-0.1334763,0.007975459,0.1485664,-0.639026,-2.215804,1.179458
33.40005,5.855568,345,118,497,496,-0.3892419,0.04009755,-0.03356147,-1.347457,-2.998282,-1.035718,-0.1304451,0.00901714,0.1251129,-0.6383331,-2.214927,1.180158
33.60006,5.866679,345,118,497,496,-0.3978117,0.0475076,-0.03253782,-1.347619,-2.999001,-1.030836,-0.1272618,0.004765108,0.1218998,-0.6371655,-2.214182,1.180955
33.80006,5.87779,345,118,497,496,-0.3881668,0.03901793,-0.03886857,-1.347308,-2.999555,-1.026667,-0.138868,-0.001662299,0.1347705,-0.6353295,-2.213569,1.1823
34.00006,5.888902,345,118,497,496,-0.3764742,0.04228964,-0.03673299,-1.347339,-3.000228,-1.0226,-0.1430127,0.00581643,0.1571531,-0.6333429,-2.211699,1.182521
34.20006,5.900013,351,122,488,496,-0.3658284,0.04234053,-0.03564212,-1.347272,-3.000671,-1.018641,-0.1440366,0.009021968,0.1656658,-0.6316821,-2.210271,1.182995
34.40006,5.911124,351,122,488,496,-0.3605621,0.05513199,-0.0410233,-1.347287,-3.001873,-1.014527,-0.1450064,0.01010901,0.1805849,-0.6294754,-2.208477,1.183219
34.60006,5.922235,351,122,488,496,-0.3648433,0.05935931,-0.04530007,-1.34732,-3.002929,-1.010085,-0.1374803,0.01122555,0.1911725,-0.6275195,-2.206808,1.183129
34.80006,5.933347,351,122,488,496,-0.3733764,0.06252576,-0.04320697,-1.34734,-3.003937,-1.005622,-0.1428307,0.004799247,0.1837616,-0.6257874,-2.20589,1.184114
35.00006,5.944458,351,122,488,496,-0.3754762,0.05504899,-0.04531556,-1.347001,-3.004654,-1.001026,-0.1534859,-0.005903959,0.1785178,-0.6240085,-2.205293,1.185688
35.20006,5.955569,480,116,501,497,-0.3648095,0.05297468,-0.04634017,-1.34696,-3.005401,-0.9971141,-0.1577088,-0.01657903,0.1774985,-0.6220244,-2.204868,1.187144
35.40006,5.966681,480,116,501,497,-0.3562822,0.05087025,-0.04844536,-1.346702,-3.006058,-0.9930816,-0.1566564,-0.002714247,0.18492,-0.6200867,-2.202933,1.187374
35.60006,5.977792,480,116,501,497,-0.3445975,0.05838713,-0.05271567,-1.346736,-3.007283,-0.9893111,-0.148107,0.006919801,0.194437,-0.6179349,-2.200962,1.187173
35.80006,5.988903,480,116,501,497,-0.3457153,0.06796977,-0.05062982,-1.346868,-3.008329,-0.985262,-0.1332908,0.02294764,0.188984,-0.6163694,-2.19857,1.186304
36.00006,6.000014,457,141,493,496,-0.3553818,0.08177314,-0.05176818,-1.347199,-3.009832,-0.9807091,-0.1344434,0.02079064,0.1751545,-0.6148685,-2.19728,1.186873
36.20007,6.011126,457,141,493,496,-0.3671836,0.09558845,-0.04757659,-1.34783,-3.011294,-0.9760011,-0.1345578,0.01862824,0.1559876,-0.6137404,-2.196078,1.187355
36.40007,6.022237,457,141,493,496,-0.362945,0.09882331,-0.04438996,-1.348162,-3.012532,-0.971804,-0.1302413,0.00372991,0.1559821,-0.6120083,-2.195519,1.188256
36.60007,6.033348,457,141,493,496,-0.3470863,0.1212796,-0.04660022,-1.348841,-3.014483,-0.9679424,-0.1268105,-0.03779212,0.1656176,-0.6095012,-2.196641,1.190358
36.80007,6.044459,457,141,493,496,-0.3343357,0.1266863,-0.04554124,-1.349352,-3.016069,-0.9641511,-0.1245214,-0.05906281,0.1784155,-0.6070436,-2.197008,1.192138
37.00007,6.055571,389,124,497,499,-0.3310828,0.1171164,-0.04654393,-1.349635,-3.017228,-0.9603742,-0.1223806,-0.05692163,0.1805327,-0.6049014,-2.196505,1.19296
37.20007,6.066682,389,124,497,499,-0.338496,0.1095601,-0.05396694,-1.349513,-3.01833,-0.9560567,-0.128798,-0.04521982,0.1848149,-0.6028236,-2.195431,1.193795
37.40007,6.077793,389,124,497,499,-0.3480203,0.09885286,-0.05711812,-1.349579,-3.019529,-0.9516854,-0.1385204,-0.02503805,0.1752594,-0.6013098,-2.193953,1.194294
37.60007,6.088904,389,124,497,499,-0.3458721,0.09353507,-0.05815183,-1.3496,-3.02073,-0.9474536,-0.1322579,-0.009053916,0.1656058,-0.5998483,-2.192538,1.194448
37.80007,6.100016,407,126,496,498,-0.3362194,0.08080078,-0.05594477,-1.34937,-3.021379,-0.9437641,-0.1333711,-0.005871385,0.1602811,-0.5983286,-2.191424,1.195042
38.00007,6.111127,407,126,496,498,-0.3191135,0.06918695,-0.05586689,-1.349194,-3.022253,-0.9404399,-0.1365336,-0.01120418,0.1635088,-0.5964469,-2.190685,1.196156
38.20007,6.122238,407,126,496,498,-0.3105559,0.06284261,-0.05582368,-1.349005,-3.023054,-0.9370423,-0.1311733,-0.005851418,0.17305,-0.5943995,-2.189405,1.196487
38.40007,6.133349,407,126,496,498,-0.3126834,0.06067579,-0.06008739,-1.34865,-3.024117,-0.9330502,-0.1343367,0.005867064,0.1826337,-0.5924692,-2.187444,1.196273
38.60007,6.144461,407,126,496,498,-0.316965,0.06490634,-0.05691947,-1.348562,-3.024925,-0.929334,-0.1268616,0.01763219,0.193203,-0.5905986,-2.18524,1.19576
38.80008,6.155572,407,124,463,497,-0.3222261,0.05317137,-0.05685724,-1.348428,-3.02559,-0.9254527,-0.1161781,0.01662081,0.1963375,-0.5885122,-2.183283,1.195087
39.00008,6.166683,407,124,463,497,-0.3147109,0.04256842,-0.05466733,-1.348076,-3.026118,-0.9220737,-0.1076645,0.00385575,0.1888377,-0.5866869,-2.182657,1.195657
39.20008,6.177794,407,124,463,497,-0.305075,0.03410975,-0.05354168,-1.347798,-3.026624,-0.918838,-0.1098046,0.003834069,0.1856545,-0.5848653,-2.181437,1.195787
39.40008,6.188906,407,124,463,497,-0.2986557,0.02881069,-0.05030397,-1.347448,-3.026803,-0.9156885,-0.1035226,0.003829673,0.1696334,-0.5835614,-2.180437,1.195933
39.60008,6.200017,407,124,463,497,-0.2943641,0.02457488,-0.05240092,-1.347169,-3.027416,-0.9124224,-0.1014021,0.00596641,0.1653556,-0.5820312,-2.178985,1.195469
39.80008,6.211128,398,117,481,498,-0.2912577,0.04270539,-0.04823453,-1.347199,-3.02837,-0.9092655,-0.0928412,-0.01318595,0.1610641,-0.5802863,-2.179113,1.196463
40.00008,6.222239,398,117,481,498,-0.2945431,0.05653609,-0.04723874,-1.347376,-3.029386,-0.9055493,-0.08854241,-0.0355649,0.1546808,-0.5784099,-2.179977,1.198122
40.20008,6.233351,398,117,481,498,-0.3063726,0.07566409,-0.04627226,-1.347981,-3.030835,-0.9014853,-0.09379391,-0.03982724,0.1611202,-0.5763975,-2.179331,1.198578
40.40008,6.244462,398,117,481,498,-0.3095826,0.07671449,-0.04524018,-1.347882,-3.031963,-0.8976211,-0.09694955,-0.04089341,0.1675252,-0.5744539,-2.178847,1.199417
40.60008,6.255573,402,144,488,498,-0.3085197,0.07779946,-0.04523946,-1.348155,-3.033114,-0.8940253,-0.09693285,-0.03341588,0.1739102,-0.5724316,-2.17748,1.199299
40.80008,6.266685,402,144,488,498,-0.3021466,0.08209643,-0.0442022,-1.348266,-3.034287,-0.8906708,-0.09794109,-0.02061445,0.1909345,-0.5701008,-2.175747,1.199021
41.00008,6.277796,402,144,488,498,-0.3074803,0.08313727,-0.04314975,-1.348511,-3.035334,-0.886879,-0.09795719,-0.008893475,0.1951781,-0.5680081,-2.173928,1.198572
41.20008,6.288907,402,144,488,498,-0.3149213,0.08200447,-0.04848773,-1.348494,-3.036507,-0.8829652,-0.1012,-0.007858291,0.1888131,-0.5661092,-2.172815,1.198868
41.40009,6.300018,402,144,488,498,-0.3223589,0.0787621,-0.04954828,-1.348554,-3.037511,-0.8789608,-0.1022446,-0.01854903,0.1824575,-0.5640234,-2.171891,1.199305
41.60009,6.31113,352,123,496,499,-0.3191481,0.07559029,-0.05059603,-1.348651,-3.038637,-0.8752053,-0.1001458,-0.02811484,0.1760617,-0.5622364,-2.172087,1.20055
41.80009,6.322241,352,123,496,499,-0.3148665,0.07136317,-0.04843868,-1.348723,-3.039469,-0.8716595,-0.09803696,-0.03556925,0.1675433,-0.5605432,-2.171833,1.201281
42.00009,6.333352,352,123,496,499,-0.313839,0.07989008,-0.05167611,-1.349016,-3.040971,-0.867937,-0.09060076,-0.03447798,0.164299,-0.558761,-2.171139,1.201423
42.20009,6.344463,352,123,496,499,-0.3235705,0.08934329,-0.05387104,-1.348806,-3.041815,-0.8626671,-0.09280669,-0.03131104,0.1557821,-0.5572606,-2.170744,1.202257
42.40009,6.355575,382,127,519,499,-0.3353624,0.1031635,-0.04863109,-1.349578,-3.043392,-0.8584796,-0.09389181,-0.03559302,0.1483416,-0.5556915,-2.170752,1.203159
42.60009,6.366686,382,127,519,499,-0.3386401,0.1041685,-0.04437825,-1.34968,-3.043975,-0.8536278,-0.09064014,-0.05583195,0.146214,-0.5538805,-2.172068,1.205277
42.80009,6.377797,382,127,519,499,-0.3343585,0.1010344,-0.04115693,-1.350273,-3.045245,-0.8498626,-0.09806584,-0.06757599,0.1462896,-0.5518938,-2.172742,1.207316
43.00009,6.388908,382,127,519,499,-0.3322645,0.09675108,-0.03901263,-1.350252,-3.045924,-0.8453267,-0.1023139,-0.05052452,0.1569441,-0.5500024,-2.171383,1.207324
43.20009,6.40002,382,127,519,499,-0.336477,0.09139732,-0.04431116,-1.350552,-3.047211,-0.8413165,-0.1023043,-0.03559732,0.1675607,-0.5481046,-2.170164,1.207443
43.40009,6.411131,429,139,500,496,-0.350264,0.08170464,-0.04749262,-1.350396,-3.048092,-0.8369202,-0.1002038,-0.02173764,0.1696584,-0.5462947,-2.168643,1.207065
43.60009,6.422242,429,139,500,496,-0.3597395,0.06458399,-0.04958943,-1.349753,-3.048862,-0.8326725,-0.1044832,-0.02176403,0.1664967,-0.5444812,-2.167984,1.207768
43.80009,6.433353,429,139,500,496,-0.3617195,0.04008432,-0.05266027,-1.349401,-3.049456,-0.828618,-0.1097839,-0.02070336,0.170796,-0.5425109,-2.166762,1.208061
44.0001,6.444465,429,139,500,496,-0.3595102,0.03156206,-0.05262854,-1.348867,-3.049955,-0.8250105,-0.1161576,-0.02819669,0.1687289,-0.5405093,-2.166544,1.209287
44.2001,6.455576,366,129,504,500,-0.3498092,0.01139254,-0.05463626,-1.348405,-3.050296,-0.8212853,-0.1161463,-0.02926016,0.1697959,-0.5385919,-2.165899,1.210022
44.4001,6.466687,366,129,504,500,-0.343459,0.009238709,-0.05461328,-1.347599,-3.050276,-0.8168996,-0.1150445,-0.03564924,0.1719305,-0.536489,-2.165695,1.211086
44.6001,6.477798,366,129,504,500,-0.345607,0.01351632,-0.05462936,-1.347636,-3.051099,-0.8129065,-0.1171566,-0.04312031,0.1708909,-0.5345087,-2.165756,1.212546
44.8001,6.48891,366,129,504,500,-0.3488861,0.02090952,-0.05573081,-1.347269,-3.051506,-0.8082699,-0.1171842,-0.03352237,0.1730038,-0.5326834,-2.164436,1.212778
45.0001,6.500021,366,129,504,500,-0.3500524,0.03691892,-0.0483535,-1.347622,-3.052354,-0.8041739,-0.1032984,-0.03132664,0.1803686,-0.5304521,-2.163392,1.21267
45.2001,6.511132,464,147,501,493,-0.3544278,0.05286337,-0.04417107,-1.347842,-3.053041,-0.7997366,-0.1002128,-0.02281511,0.1696785,-0.5289288,-2.162357,1.212848
45.4001,6.522243,464,147,501,493,-0.3534839,0.06780359,-0.03892652,-1.348321,-3.054075,-0.7952902,-0.1108509,-0.0334941,0.1697456,-0.5272452,-2.162183,1.214538
45.6001,6.533355,464,147,501,493,-0.3535628,0.08273824,-0.0400566,-1.349093,-3.055552,-0.7910979,-0.1128704,-0.03454302,0.1857394,-0.5248148,-2.161274,1.215033
45.8001,6.544466,464,147,501,493,-0.3537002,0.09870647,-0.03908829,-1.349606,-3.056941,-0.7862658,-0.1096404,-0.03664806,0.1921002,-0.5226624,-2.160591,1.215729
46.0001,6.555577,464,147,501,493,-0.353795,0.1168168,-0.04343489,-1.350613,-3.058832,-0.7819297,-0.1042744,-0.03342162,0.1995155,-0.5203023,-2.159531,1.2158
46.2001,6.566689,420,134,515,497,-0.3527209,0.1157468,-0.04129268,-1.35111,-3.059731,-0.7779616,-0.09583578,-0.02594365,0.1919686,-0.5187779,-2.158477,1.215764
46.4001,6.5778,420,134,515,497,-0.3580019,0.101904,-0.03375532,-1.351728,-3.060292,-0.7734385,-0.1033459,-0.0355725,0.1781974,-0.516984,-2.158194,1.216856
46.60011,6.588911,420,134,515,497,-0.366416,0.08167371,-0.02831941,-1.35232,-3.060851,-0.7690538,-0.1000597,-0.05044562,0.1867025,-0.514813,-2.158197,1.218164
46.80011,6.600022,420,134,515,497,-0.3684351,0.06247638,-0.03035883,-1.352203,-3.061287,-0.764797,-0.1011462,-0.05684766,0.1813865,-0.5128806,-2.15836,1.219591
47.00011,6.611134,401,124,498,495,-0.3565397,0.04124687,-0.03343977,-1.351967,-3.061829,-0.7617807,-0.09356541,-0.07597484,0.1877743,-0.5101743,-2.159082,1.220981
47.20011,6.622245,401,124,498,495,-0.3511353,0.02847264,-0.03763034,-1.35157,-3.062194,-0.7579394,-0.09044997,-0.06106973,0.1834921,-0.5078627,-2.158341,1.221237
47.40011,6.633356,401,124,498,495,-0.3509385,-0.004561278,-0.0417042,-1.350843,-3.061929,-0.7541603,-0.09586814,-0.04938075,0.1760592,-0.5060251,-2.157361,1.221578
47.60011,6.644467,401,124,498,495,-0.3530186,-0.01844551,-0.04163388,-1.350047,-3.06169,-0.7498354,-0.09585527,-0.04939274,0.1760806,-0.5036379,-2.157214,1.222363
47.80011,6.655579,401,124,498,495,-0.3518323,-0.03655876,-0.04579876,-1.349157,-3.061581,-0.74619,-0.1107284,-0.04943593,0.1815064,-0.5014258,-2.156635,1.223449
48.00011,6.66669,365,129,490,495,-0.3464212,-0.04933336,-0.05104598,-1.348182,-3.061518,-0.7425634,-0.1170952,-0.04306076,0.1900498,-0.4991925,-2.155876,1.224314
48.20011,6.677801,365,129,490,495,-0.3442636,-0.05463716,-0.04888627,-1.347313,-3.061374,-0.7388014,-0.1032018,-0.03233285,0.2027273,-0.496671,-2.154174,1.223586
48.40011,6.688912,365,129,490,495,-0.3443559,-0.03966503,-0.04362825,-1.347337,-3.061851,-0.7348519,-0.1053261,-0.02382319,0.2069989,-0.4942465,-2.152774,1.223454
48.60011,6.700024,365,129,490,495,-0.3444261,-0.02688709,-0.04475674,-1.346992,-3.062272,-0.7309301,-0.1138259,-0.02598298,0.2091897,-0.4918853,-2.151761,1.224064
48.80011,6.711135,382,127,480,492,-0.342359,-0.0140964,-0.04587645,-1.346778,-3.062742,-0.7271623,-0.111592,-0.02062756,0.2272758,-0.4889936,-2.150053,1.223675
49.00011,6.722246,382,127,480,492,-0.3424048,-0.0066231,-0.0427143,-1.346633,-3.063099,-0.7232954,-0.10309,-0.009936184,0.2303971,-0.4865675,-2.147757,1.222551
49.20012,6.733357,382,127,480,492,-0.3435089,0.001919219,-0.04274784,-1.346757,-3.063788,-0.7194301,-0.09670742,-0.01418161,0.2271665,-0.4841946,-2.146731,1.222576
49.40012,6.744469,382,127,480,492,-0.3425123,0.01792286,-0.04077324,-1.346559,-3.06436,-0.7156681,-0.1030931,-0.01847151,0.2261444,-0.4818047,-2.145632,1.222976
49.60012,6.75558,382,127,480,492,-0.3393663,0.02642409,-0.04393645,-1.346754,-3.065168,-0.7118821,-0.1019692,-0.02377421,0.2325434,-0.4790372,-2.144131,1.222813
49.80012,6.766691,415,143,509,500,-0.343711,0.04240284,-0.0418924,-1.347255,-3.06619,-0.7078512,-0.1009176,-0.0237862,0.2325373,-0.4764241,-2.1431,1.223138
50.00012,6.777802,415,143,509,500,-0.3490805,0.05195688,-0.04194937,-1.347502,-3.067098,-0.7037808,-0.09782687,-0.01846926,0.219724,-0.4744049,-2.141639,1.222838
50.20012,6.788914,415,143,509,500,-0.3650878,0.0551208,-0.03557647,-1.348241,-3.067775,-0.6991043,-0.0978875,-0.01742129,0.2112021,-0.472318,-2.140441,1.22287
50.40012,6.800025,415,143,509,500,-0.3714533,0.05508254,-0.03666415,-1.348346,-3.068636,-0.6949428,-0.1053692,-0.02811414,0.203816,-0.4701065,-2.140157,1.224213
50.60012,6.811136,415,143,509,500,-0.3597514,0.05944014,-0.03452828,-1.348915,-3.069489,-0.6912123,-0.111736,-0.04519364,0.198554,-0.4679147,-2.140614,1.22608
50.80012,6.822248,388,132,457,499,-0.3449675,0.08508938,-0.03571896,-1.349778,-3.071024,-0.6875856,-0.1148696,-0.05585341,0.2017888,-0.4654098,-2.140811,1.227612
51.00012,6.833359,388,132,457,499,-0.3419245,0.1149143,-0.04224968,-1.351064,-3.072957,-0.6834348,-0.1201548,-0.05906472,0.2071537,-0.4628329,-2.140641,1.229006
51.20012,6.84447,388,132,457,499,-0.3507764,0.1777263,-0.04152514,-1.353421,-3.075779,-0.6789559,-0.1192213,-0.01325144,0.213457,-0.4607839,-2.136764,1.226788
51.40012,6.855581,388,132,457,499,-0.3743236,0.2010865,-0.03207317,-1.355544,-3.077531,-0.6742693,-0.1171922,0.003785133,0.2080833,-0.4589399,-2.134386,1.225899
51.60012,6.866693,386,126,508,501,-0.4052474,0.2052028,-0.02680863,-1.357345,-3.079208,-0.6685498,-0.1128975,0.008080304,0.215505,-0.4565665,-2.131944,1.224826
51.80013,6.877804,386,126,508,501,-0.4072852,0.1924105,-0.02886011,-1.358679,-3.080552,-0.6640512,-0.1128488,0.0006242096,0.2187145,-0.4541004,-2.130656,1.224945
52.00013,6.888915,386,126,508,501,-0.4018032,0.1657766,-0.03511257,-1.359177,-3.081666,-0.6594903,-0.1158401,-0.03558275,0.2273291,-0.4509765,-2.131188,1.226724
52.20013,6.900026,386,126,508,501,-0.3941867,0.1412795,-0.04456985,-1.359498,-3.082941,-0.6552069,-0.1049299,-0.05893448,0.2528616,-0.4472981,-2.131178,1.227597
52.40013,6.911138,386,126,508,501,-0.3917561,0.09220241,-0.06455168,-1.358622,-3.083783,-0.6507839,-0.09524009,-0.09405982,0.2475327,-0.444145,-2.133329,1.230318
52.60013,6.922249,449,125,496,499,-0.3957763,0.05273202,-0.07397022,-1.357666,-3.084663,-0.6462458,-0.09537227,-0.1090145,0.219858,-0.4421151,-2.135325,1.233286
52.80013,6.93336,449,125,496,499,-0.3978042,0.03356203,-0.07279981,-1.3573,-3.085249,-0.6416631,-0.09651664,-0.0898502,0.2187657,-0.4396591,-2.134517,1.233651
53.00013,6.944471,449,125,496,499,-0.3966191,0.01332831,-0.07376706,-1.356519,-3.085783,-0.6372519,-0.09022348,-0.05785705,0.2229253,-0.4373454,-2.131793,1.232062
53.20013,6.955583,449,125,496,499,-0.392295,0.001654352,-0.07262978,-1.356035,-3.086278,-0.6329652,-0.0912816,-0.05359358,0.2261215,-0.4347531,-2.130994,1.232335
53.40013,6.966694,401,144,488,498,-0.3890738,-0.0005067028,-0.07901709,-1.355159,-3.087081,-0.628637,-0.1049974,-0.06000529,0.2432677,-0.4315471,-2.13033,1.233341
53.60013,6.977805,401,144,488,498,-0.3816721,0.01017586,-0.08435281,-1.355162,-3.088115,-0.6243712,-0.1113061,-0.06106824,0.2560984,-0.4283007,-2.129199,1.233755
53.80013,6.988916,401,144,488,498,-0.3870679,0.02716941,-0.0887367,-1.355048,-3.089604,-0.6197773,-0.1091098,-0.04718061,0.2741709,-0.4249148,-2.126715,1.232633
54.00013,7.000028,401,144,488,498,-0.3904251,0.05487116,-0.0856884,-1.355631,-3.091264,-0.6148956,-0.1006332,-0.009835064,0.2889687,-0.4217504,-2.12156,1.228816
54.20013,7.011139,401,144,488,498,-0.3936839,0.06659999,-0.08255602,-1.355995,-3.092689,-0.6102762,-0.09638971,-0.009834737,0.2868114,-0.4187805,-2.119637,1.228033
54.40014,7.02225,425,125,496,499,-0.4000809,0.06872877,-0.07727607,-1.356136,-3.094015,-0.6055373,-0.08681741,-0.04817951,0.2644406,-0.4160507,-2.121436,1.23058
54.60014,7.033361,425,125,496,499,-0.4053732,0.06656463,-0.08046746,-1.356149,-3.095336,-0.6008549,-0.08574384,-0.06736451,0.2538213,-0.4131575,-2.121881,1.231894
54.80014,7.044473,425,125,496,499,-0.3968423,0.06445657,-0.08257428,-1.355986,-3.096454,-0.5963947,-0.07603499,-0.09395446,0.2569971,-0.4097832,-2.12364,1.234122
55.00014,7.055584,425,125,496,499,-0.3924838,0.06432724,-0.08920688,-1.35362,-3.098693,-0.5926583,-0.06748241,-0.1045835,0.2558894,-0.4066945,-2.124753,1.235687
55.20014,7.066695,375,106,515,502,-0.392494,0.06751699,-0.09347714,-1.353806,-3.100207,-0.5879604,-0.06543392,-0.1035281,0.2452276,-0.4039227,-2.125395,1.237078
55.40014,7.077806,375,106,515,502,-0.3934967,0.06423663,-0.09172864,-1.350913,-3.103862,-0.5829281,-0.06547357,-0.1035339,0.2388384,-0.4012063,-2.125836,1.238214
55.60014,7.088918,375,106,515,502,-0.3956478,0.06198317,-0.08663849,-1.348423,-3.10595,-0.5775065,-0.06232283,-0.08966942,0.2398527,-0.3985713,-2.125027,1.238052
55.80014,7.100029,375,106,515,502,-0.3944977,0.05138892,-0.0865459,-1.348655,-3.106994,-0.5733402,-0.06764776,-0.08436729,0.2441399,-0.3955353,-2.124951,1.238948
56.00014,7.11114,375,106,515,502,-0.3881043,0.05777604,-0.08445832,-1.348056,-3.108143,-0.5695916,-0.0739674,-0.08117586,0.2569698,-0.3921105,-2.124267,1.239307
56.20014,7.122252,384,136,500,496,-0.3806793,0.0705954,-0.08978313,-1.348815,-3.109493,-0.5656953,-0.064262,-0.07577899,0.2771417,-0.3884678,-2.122957,1.238515
56.40014,7.133363,384,136,500,496,-0.3775546,0.07380797,-0.08988815,-1.348365,-3.111931,-0.5601192,-0.05995429,-0.0672237,0.2888213,-0.384928,-2.121289,1.2375
56.60014,7.144474,384,136,500,496,-0.3764073,0.06532387,-0.08661061,-1.348676,-3.112582,-0.5564286,-0.0556187,-0.0714595,0.2983888,-0.3812001,-2.120725,1.237539
56.80014,7.155585,384,136,500,496,-0.3752528,0.04715151,-0.08554305,-1.346894,-3.113806,-0.551782,-0.05238926,-0.07037297,0.3047565,-0.3776554,-2.119612,1.237048
57.00014,7.166697,384,136,500,496,-0.3751077,0.03120407,-0.08650328,-1.346806,-3.114609,-0.5482213,-0.05458379,-0.07786207,0.2909311,-0.3746141,-2.119804,1.237904
57.20015,7.177808,352,126,510,499,-0.3622202,0.01095682,-0.08979512,-1.34415,-3.11694,-0.5435011,-0.05356674,-0.08747846,0.2781559,-0.371577,-2.120924,1.239503
57.40015,7.188919,352,126,510,499,-0.3546662,0.00142473,-0.09608994,-1.343849,-3.117827,-0.5400763,-0.04939565,-0.08215433,0.2685327,-0.3687285,-2.120523,1.239644
57.60015,7.20003,352,126,510,499,-0.3504263,0.003542334,-0.09614483,-1.342499,-3.119234,-0.5357859,-0.04412468,-0.08320713,0.259975,-0.3659327,-2.120368,1.239883
57.80015,7.211142,352,126,510,499,-0.3461845,0.007816363,-0.09828825,-1.342077,-3.120351,-0.5318045,-0.04204354,-0.07575999,0.2556883,-0.3630634,-2.119906,1.23982
58.00015,7.222253,433,146,499,497,-0.3407799,0.007872209,-0.09074084,-1.341898,-3.120274,-0.529592,-0.04743634,-0.06833246,0.2503837,-0.3604019,-2.119063,1.239704
58.20015,7.233364,433,146,499,497,-0.3323061,0.01435027,-0.0822574,-1.341827,-3.121009,-0.5258795,-0.05491699,-0.06623837,0.2472352,-0.3575928,-2.118509,1.239924
58.40015,7.244475,433,146,499,497,-0.329032,0.008036338,-0.08110879,-1.342044,-3.121776,-0.5228733,-0.05275067,-0.07155044,0.2493517,-0.3547688,-2.11839,1.240297
58.60015,7.255587,433,146,499,497,-0.3216192,0.01658652,-0.07897871,-1.341847,-3.122278,-0.5195385,-0.0441477,-0.07469724,0.261026,-0.351304,-2.117951,1.240245
58.80015,7.266698,433,146,499,497,-0.3120847,0.03903469,-0.07903516,-1.342847,-3.123232,-0.5170815,-0.02825433,-0.06612608,0.2534457,-0.348718,-2.116883,1.239204
59.00015,7.277809,374,148,494,499,-0.309,0.05928481,-0.08018196,-1.343531,-3.12444,-0.5134617,-0.0240113,-0.06823863,0.2491668,-0.345918,-2.116235,1.238775
59.20015,7.28892,374,148,494,499,-0.3027352,0.09769703,-0.07927949,-1.345342,-3.126046,-0.5111192,-0.02721446,-0.06717961,0.2491851,-0.3430897,-2.115436,1.238476
59.40015,7.300032,374,148,494,499,-0.2984796,0.1137542,-0.06975903,-1.346636,-3.127238,-0.5090409,-0.02299026,-0.07143303,0.2417078,-0.3404281,-2.115424,1.238684
59.60015,7.311143,374,148,494,499,-0.2920741,0.1084928,-0.06331939,-1.347268,-3.128103,-0.5057535,-0.0272686,-0.08318987,0.2321682,-0.3377666,-2.116849,1.240429
59.80016,7.322254,378,143,493,499,-0.2982395,0.08298165,-0.05682642,-1.34769,-3.129035,-0.5033561,-0.0305417,-0.08428886,0.2194044,-0.3355178,-2.117611,1.241556
60.00016,7.333365,378,143,493,499,-0.2948622,0.0531447,-0.06198343,-1.347213,-3.129581,-0.5001246,-0.02194329,-0.08849978,0.2278826,-0.3325106,-2.117743,1.241671
60.20016,7.344477,378,143,493,499,-0.2916053,0.04462821,-0.06619986,-1.347116,-3.130594,-0.4967887,-0.01549415,-0.09806452,0.229995,-0.3294714,-2.119092,1.242876
60.40016,7.355588,378,143,493,499,-0.2872725,0.03186271,-0.06825017,-1.346969,-3.13127,-0.4935045,-0.01353187,-0.09171066,0.2075963,-0.3275592,-2.120281,1.244047
60.60016,7.366699,378,143,493,499,-0.2915026,0.02865274,-0.0660735,-1.347136,-3.131536,-0.4903497,-0.0210785,-0.09069438,0.1948659,-0.3254404,-2.12118,1.245342
60.80016,7.37781,363,129,505,505,-0.2893391,0.02123397,-0.06176351,-1.347065,-3.132003,-0.4870661,-0.02859946,-0.09180601,0.1853278,-0.3233323,-2.122582,1.247254
61.00016,7.388922,363,129,505,505,-0.2765346,0.01492976,-0.05955668,-1.346908,-3.132422,-0.4841483,-0.02852421,-0.09284895,0.1959736,-0.3208193,-2.123252,1.248189
61.20016,7.400033,363,129,505,505,-0.259515,0.01822201,-0.05633267,-1.346819,-3.132898,-0.4815917,-0.02207698,-0.08745744,0.206579,-0.3181561,-2.122231,1.247221
61.40016,7.411144,363,129,505,505,-0.2574574,0.02996153,-0.0553169,-1.347216,-3.133659,-0.4785131,-0.02319461,-0.08640637,0.1980616,-0.316016,-2.122847,1.247988
61.60016,7.422256,359,137,487,497,-0.2553764,0.03205616,-0.05738806,-1.347316,-3.133554,-0.4751937,-0.03283296,-0.07791045,0.1970467,-0.3138098,-2.122303,1.248246
61.80016,7.433367,359,137,487,497,-0.2532807,0.0373938,-0.05633637,-1.347518,-3.134227,-0.4722578,-0.03174758,-0.06830171,0.2044872,-0.3112202,-2.121005,1.24726
62.00016,7.444478,359,137,487,497,-0.2511446,0.03101661,-0.05415612,-1.347426,-3.134626,-0.4690807,-0.02643961,-0.0512214,0.2108224,-0.3087339,-2.118431,1.244929
62.20016,7.455589,359,137,487,497,-0.2458288,0.03000687,-0.04987447,-1.34759,-3.135149,-0.4662955,-0.01906908,-0.04802826,0.1990406,-0.306859,-2.118406,1.244856
62.40017,7.466701,359,137,487,497,-0.2405044,0.02791589,-0.04665473,-1.347586,-3.135607,-0.4635599,-0.01804955,-0.0565671,0.1873213,-0.3050129,-2.119493,1.2461
62.60017,7.477812,329,149,480,495,-0.2395328,0.04286136,-0.0435172,-1.3484,-3.136294,-0.4607365,-0.02240585,-0.07367177,0.1639384,-0.3035034,-2.122591,1.24951
62.80017,7.488923,329,149,480,495,-0.2364267,0.05350753,-0.04460373,-1.348877,-3.136784,-0.4576648,-0.01288109,-0.07791941,0.1521711,-0.3017681,-2.124113,1.250868
63.00017,7.500034,329,149,480,495,-0.2355008,0.07266498,-0.04253578,-1.349716,-3.137183,-0.4546383,-0.01290128,-0.0821937,0.1468507,-0.2999795,-2.125868,1.252715
63.20017,7.511146,329,149,480,495,-0.232369,0.08229284,-0.03830911,-1.350635,-3.13793,-0.4519821,-0.01716526,-0.09607068,0.1394501,-0.2981425,-2.128932,1.256033
63.40017,7.522257,329,149,480,495,-0.2377344,0.08543622,-0.03937262,-1.351398,-3.138405,-0.4487703,-0.0139998,-0.1003243,0.1319714,-0.2966868,-2.13128,1.258306
63.60017,7.533368,363,138,499,497,-0.2430207,0.07795436,-0.03828103,-1.351846,-3.139076,-0.4457919,-0.02683309,-0.08866448,0.1309665,-0.2951289,-2.132414,1.260013
63.80017,7.544479,363,138,499,497,-0.2355405,0.06840529,-0.0360464,-1.352242,-3.139076,-0.4430355,-0.02574283,-0.07372775,0.1426531,-0.2931986,-2.13187,1.259674
64.00017,7.555591,363,138,499,497,-0.2238043,0.06527647,-0.0360052,-1.352665,-3.139727,-0.4407414,-0.02252093,-0.06091619,0.1543323,-0.2911027,-2.130921,1.258927
64.20016,7.566702,363,138,499,497,-0.2185159,0.06849382,-0.03916929,-1.353563,-3.140228,-0.438001,-0.02780635,-0.06946052,0.1554486,-0.2891245,-2.132677,1.261043
64.40016,7.577813,440,131,490,502,-0.2238644,0.07271904,-0.0402674,-1.354189,-3.14107,-0.4351914,-0.02029588,-0.06195875,0.1671063,-0.2868938,-2.132168,1.260508
64.60016,7.588924,440,131,490,502,-0.2419857,0.0757992,-0.04136624,-1.354879,3.14155,-0.4319376,-0.01925731,-0.04916339,0.1702681,-0.2850349,-2.130369,1.258923
64.80016,7.600036,440,131,490,502,-0.2589597,0.0618725,-0.03813224,-1.355052,3.141143,-0.4284984,-0.02668807,-0.06197571,0.1671437,-0.2830487,-2.131916,1.26098
65.00015,7.611147,440,131,490,502,-0.2556651,0.04589552,-0.04230087,-1.354994,3.14054,-0.4256072,-0.04154726,-0.06948358,0.1715102,-0.2808783,-2.13336,1.263328
65.20015,7.622258,440,131,490,502,-0.2544914,0.03094923,-0.0507307,-1.354814,3.139973,-0.4227949,-0.04465269,-0.06626633,0.1853709,-0.2784697,-2.132322,1.262729
65.40015,7.633369,433,145,442,500,-0.2565292,0.01600617,-0.05491593,-1.354399,3.13941,-0.4197467,-0.04252902,-0.05346424,0.1917278,-0.2761922,-2.130494,1.261382
65.60014,7.644481,433,145,442,500,-0.263927,-4.704297E-05,-0.05801749,-1.353753,3.139323,-0.4161024,-0.04472847,-0.05455696,0.1789648,-0.274459,-2.130843,1.262146
65.80014,7.655592,433,145,442,500,-0.2585255,-0.01386091,-0.05793218,-1.35312,3.138976,-0.4132363,-0.04050674,-0.0502743,0.1757476,-0.2724041,-2.129594,1.261326
66.00014,7.666703,433,145,442,500,-0.2596455,-0.01068447,-0.05687708,-1.352762,3.138608,-0.4097918,-0.03726228,-0.06411129,0.1746773,-0.2703545,-2.131207,1.263154
66.20013,7.677814,484,168,482,495,-0.2607826,0.00208622,-0.05906928,-1.352898,3.137819,-0.4066263,-0.03825905,-0.06943133,0.1821464,-0.2679412,-2.132248,1.264612
66.40013,7.688926,484,168,482,495,-0.2683885,0.02333542,-0.05810515,-1.35336,3.137253,-0.4030156,-0.03610732,-0.05554464,0.1927611,-0.2656796,-2.129538,1.262315
66.60013,7.700037,484,168,482,495,-0.2791069,0.03393744,-0.05605015,-1.353761,3.136442,-0.3994177,-0.03293385,-0.05234201,0.1959237,-0.2632498,-2.129189,1.262217
66.80013,7.711148,484,168,482,495,-0.2909542,0.05411471,-0.05510169,-1.354627,3.135572,-0.3955295,-0.03502967,-0.05446494,0.1948744,-0.2612955,-2.12859,1.262099
67.00012,7.72226,484,168,482,495,-0.2952725,0.06049401,-0.05194163,-1.355157,3.134867,-0.3918415,-0.03603919,-0.06616262,0.1970345,-0.2589189,-2.128978,1.262998
67.20012,7.733371,467,159,494,497,-0.2910279,0.06370945,-0.05301415,-1.355675,3.13396,-0.388519,-0.03170105,-0.06718891,0.2076643,-0.2561727,-2.128526,1.26276
67.40012,7.744482,467,159,494,497,-0.3048351,0.05616399,-0.05406948,-1.355779,3.133236,-0.3845748,-0.04025646,-0.06297165,0.2045278,-0.2537689,-2.12828,1.263138
67.60011,7.755593,467,159,494,497,-0.3047626,0.0444366,-0.05614128,-1.355694,3.132523,-0.3810382,-0.05196292,-0.06514339,0.2046105,-0.2513593,-2.12822,1.263939
67.80011,7.766705,467,159,494,497,-0.3078941,0.03377474,-0.05501528,-1.355662,3.132064,-0.3775308,-0.02628516,-0.07889451,0.2129892,-0.2483984,-2.13063,1.265878
68.00011,7.777816,442,134,495,500,-0.3088598,0.0198697,-0.06452538,-1.355122,3.131224,-0.3741065,-0.01880357,-0.08312352,0.2140213,-0.2457011,-2.131351,1.2666
68.2001,7.788927,442,134,495,500,-0.313109,0.01556469,-0.06770445,-1.354963,3.130547,-0.3699749,-0.02299958,-0.0841887,0.2236396,-0.2427967,-2.131927,1.26756
68.4001,7.800038,442,134,495,500,-0.3120752,0.01985223,-0.06559427,-1.35514,3.129733,-0.3663162,-0.02732439,-0.05436626,0.2300019,-0.2403833,-2.127916,1.263998
68.6001,7.81115,442,134,495,500,-0.3152725,0.0187911,-0.06133432,-1.355104,3.129109,-0.362641,-0.0208993,-0.04473637,0.2405965,-0.2374922,-2.125085,1.2613
68.80009,7.822261,442,134,495,500,-0.3174239,0.02091578,-0.06028086,-1.355169,3.128418,-0.3588588,-0.01982352,-0.03833689,0.2458911,-0.2348317,-2.122935,1.259354
69.00009,7.833372,420,138,496,498,-0.3089109,0.01993699,-0.05280115,-1.355224,3.127946,-0.3555267,-0.01662928,-0.05004892,0.2394914,-0.2323118,-2.123091,1.259665
69.20009,7.844483,420,138,496,498,-0.3035436,0.01356409,-0.05488577,-1.354999,3.127349,-0.3521466,-0.01765703,-0.07456885,0.2310167,-0.2296422,-2.126088,1.262808
69.40009,7.855595,420,138,496,498,-0.2992768,0.01147411,-0.05167053,-1.354896,3.126845,-0.3488134,-0.01542785,-0.086261,0.2395496,-0.2264289,-2.12728,1.264125
69.60008,7.866706,420,138,496,498,-0.2917956,0.00724495,-0.05270642,-1.354524,3.126185,-0.3455622,-0.003599577,-0.08938575,0.2533344,-0.2229439,-2.126997,1.26347
69.80008,7.877817,420,138,496,498,-0.29393,0.008292591,-0.05378143,-1.354433,3.125526,-0.3420852,-0.01000825,-0.07450065,0.2576105,-0.2199968,-2.125269,1.261939
70.00008,7.888928,473,169,494,494,-0.2907915,0.01467963,-0.05804554,-1.354634,3.124926,-0.3384031,-0.01537202,-0.05000508,0.2661275,-0.2170034,-2.120222,1.257349
70.20007,7.90004,473,169,494,494,-0.2843769,0.01256509,-0.06120843,-1.354463,3.12431,-0.3353005,-0.01539695,-0.05214609,0.260803,-0.2141922,-2.11942,1.256689
70.40007,7.911151,473,169,494,494,-0.2865147,0.01147374,-0.06332428,-1.354344,3.123721,-0.3316706,-0.02286915,-0.06710561,0.2502261,-0.2113991,-2.120985,1.258673
70.60007,7.922262,473,169,494,494,-0.2843561,0.005095933,-0.06328341,-1.354085,3.123133,-0.3282905,-0.03032789,-0.05754699,0.2555818,-0.2084398,-2.118877,1.257151
70.80006,7.933373,475,154,500,501,-0.2811731,0.006195687,-0.06008648,-1.353974,3.122543,-0.3251123,-0.02287252,-0.04258327,0.2629688,-0.2054128,-2.11364,1.252022
71.00006,7.944485,475,154,500,501,-0.2758596,0.008379549,-0.05687661,-1.354095,3.12209,-0.3221951,-0.009070516,-0.04252888,0.2543488,-0.2029414,-2.111128,1.249184
71.20006,7.955596,475,154,500,501,-0.2758903,0.01370589,-0.05690329,-1.354184,3.121383,-0.3189423,-0.009206265,-0.05109556,0.2287973,-0.2008881,-2.111972,1.250102
71.40005,7.966707,475,154,500,501,-0.2738362,0.02544336,-0.05588069,-1.354616,3.120718,-0.3157034,-0.01451156,-0.06711866,0.2182071,-0.1983474,-2.113669,1.252109
71.60005,7.977818,475,154,500,501,-0.2738678,0.02972079,-0.05375243,-1.355023,3.120265,-0.3124942,-0.01458479,-0.06606013,0.2118233,-0.1959687,-2.113737,1.252276
71.80005,7.98893,433,138,509,499,-0.2653496,0.03082999,-0.05480589,-1.355193,3.119534,-0.3096031,-0.02854043,-0.05654338,0.2012463,-0.1939937,-2.112505,1.251754
72.00005,8.000041,433,138,509,499,-0.2590217,0.04045947,-0.05376913,-1.355697,3.11883,-0.3066316,-0.009272277,-0.06390729,0.2107127,-0.1913279,-2.11249,1.251327
72.20004,8.011152,433,138,509,499,-0.2569219,0.04579809,-0.05379155,-1.35615,3.118031,-0.303651,0.0001963899,-0.06603377,0.1914778,-0.1895409,-2.113848,1.252387
72.40004,8.022264,433,138,509,499,-0.2505213,0.04685395,-0.06442937,-1.356491,3.116949,-0.3007103,-0.006307766,-0.06502154,0.1744777,-0.1879632,-2.114855,1.253619
72.60004,8.033375,395,151,497,500,-0.2472683,0.0362304,-0.06223902,-1.356434,3.116269,-0.2978794,-0.007366709,-0.04902825,0.1851127,-0.1856383,-2.111345,1.250338
72.80003,8.044486,395,151,497,500,-0.2440207,0.02664655,-0.06431824,-1.356161,3.115489,-0.2949675,-0.004167296,-0.05967579,0.1787025,-0.1838146,-2.112836,1.251706
73.00003,8.055597,395,151,497,500,-0.2417774,0.007478761,-0.06528322,-1.355516,3.114879,-0.2922052,6.258488E-06,-0.05647816,0.1669547,-0.1821741,-2.112805,1.251542
73.20003,8.066709,395,151,497,500,-0.2384511,-0.01277411,-0.07262671,-1.354707,3.114134,-0.2894712,0.001057014,-0.04474244,0.1711759,-0.1804356,-2.110232,1.248947
73.40002,8.07782,395,151,497,500,-0.2341452,-0.02126101,-0.070445,-1.354083,3.113561,-0.286815,0.0128015,-0.03830407,0.1764088,-0.1783578,-2.108287,1.246399
73.60002,8.088931,389,158,538,498,-0.2320176,-0.02337918,-0.06936347,-1.353572,3.112957,-0.2839659,0.01492777,-0.0574909,0.1647085,-0.1765777,-2.111798,1.249617
73.80002,8.100042,389,158,538,498,-0.2309828,-0.01699423,-0.07257961,-1.35346,3.112188,-0.2812399,0.0180741,-0.06601597,0.1519158,-0.175097,-2.114166,1.251686
74.00002,8.111154,389,158,538,498,-0.2299359,-0.01379229,-0.07259347,-1.353139,3.111404,-0.2785315,0.01593297,-0.07988912,0.1423656,-0.1734293,-2.118727,1.256065
74.20001,8.122265,389,158,538,498,-0.229969,-0.01059164,-0.0736715,-1.35301,3.110542,-0.2755722,0.008554243,-0.08843285,0.1477471,-0.1714756,-2.122388,1.25966
74.40001,8.133376,466,154,487,495,-0.2311648,0.01387674,-0.07912263,-1.353504,3.109295,-0.2726965,-0.002037808,-0.08419287,0.1605966,-0.1691145,-2.123317,1.26098
74.60001,8.144487,466,154,487,495,-0.233393,0.0287919,-0.07920592,-1.354064,3.108108,-0.2696317,0.003304169,-0.05644583,0.1775573,-0.1668992,-2.118153,1.255602
74.8,8.155599,466,154,487,495,-0.2356993,0.05755888,-0.07616049,-1.355186,3.106949,-0.2666687,0.008616656,-0.04574648,0.1807113,-0.1648087,-2.114062,1.251273
75,8.16671,466,154,487,495,-0.2379299,0.07564547,-0.07838589,-1.356253,3.10566,-0.2636886,0.005384542,-0.05109982,0.1722195,-0.1629423,-2.114657,1.251845
75.2,8.177821,466,154,487,495,-0.2422909,0.09370787,-0.08061916,-1.357307,3.104352,-0.2606276,0.003216684,-0.06178551,0.1616058,-0.1610834,-2.118031,1.255302
75.39999,8.188932,500,178,483,498,-0.2454621,0.08942835,-0.08060426,-1.35792,3.103231,-0.2575751,0.00214684,-0.05858818,0.1626593,-0.1593657,-2.11775,1.255026
75.59999,8.200044,500,178,483,498,-0.248629,0.08300131,-0.08164491,-1.358292,3.102188,-0.2543841,0.004319772,-0.06177758,0.1647825,-0.1572815,-2.118924,1.255869
75.79999,8.211155,500,178,483,498,-0.2517425,0.06912902,-0.08264724,-1.358442,3.101154,-0.2512959,0.008610047,-0.05748585,0.1711399,-0.1551462,-2.117779,1.254511
75.99998,8.222266,500,178,483,498,-0.2516838,0.05953207,-0.08367493,-1.358611,3.100018,-0.248295,0.01821119,-0.06065007,0.1689525,-0.153152,-2.118427,1.254461
76.19998,8.233377,500,178,483,498,-0.255898,0.05098806,-0.0825812,-1.358683,3.098971,-0.2450987,0.007418707,-0.07565632,0.1402882,-0.1519994,-2.124915,1.261151
76.39998,8.244489,485,184,498,503,-0.2590545,0.04352265,-0.081472,-1.358886,3.098161,-0.2419556,0.006438036,-0.07350665,0.1520045,-0.1499764,-2.125516,1.261549
76.59998,8.2556,485,184,498,503,-0.2632602,0.03284422,-0.08035515,-1.358735,3.097383,-0.238697,0.01300488,-0.07558493,0.1775396,-0.1470102,-2.126804,1.262528
76.79997,8.266711,485,184,498,503,-0.2685724,0.02962806,-0.07821938,-1.358788,3.09651,-0.2353851,0.01101591,-0.07022088,0.2009694,-0.1442682,-2.124831,1.260446
76.99997,8.277822,485,184,498,503,-0.2770918,0.02851626,-0.07822728,-1.358932,3.09559,-0.2318798,0.01210807,-0.06381829,0.20948,-0.1416173,-2.123819,1.259352
77.19997,8.288934,545,175,487,494,-0.2792572,0.03489016,-0.07932891,-1.35926,3.094542,-0.2285024,0.01211851,-0.05848511,0.214799,-0.1390511,-2.121646,1.257146
77.39996,8.300045,545,175,487,494,-0.284517,0.02314527,-0.07927645,-1.359128,3.093697,-0.2250323,0.01855578,-0.04671619,0.2264398,-0.1365898,-2.116967,1.251974
77.59996,8.311156,545,175,487,494,-0.2823639,0.01890194,-0.07818549,-1.359041,3.092832,-0.2217795,0.0336591,-0.03169341,0.2646648,-0.1328262,-2.108502,1.242944
77.79996,8.322268,545,175,487,494,-0.2929478,0.005014189,-0.07494001,-1.35866,3.092115,-0.2180863,0.05058848,-0.06684683,0.2273256,-0.1307878,-2.117321,1.250614
77.99995,8.333379,545,175,487,494,-0.3045461,-0.01843851,-0.06738383,-1.357928,3.091722,-0.2143056,0.002295807,-0.05112414,0.1807488,-0.1301087,-2.116113,1.250554
78.19995,8.34449,493,173,523,498,-0.3088288,-0.01841001,-0.05673956,-1.357639,3.091416,-0.2107231,0.008820891,-0.0542644,0.1988209,-0.127338,-2.114673,1.248918
78.39995,8.355601,493,173,523,498,-0.3078209,-0.008824745,-0.05891503,-1.357693,3.090633,-0.2071044,0.02258901,-0.06595738,0.1806401,-0.1255009,-2.117995,1.251522
78.59995,8.366713,493,173,523,498,-0.3057516,0.002889575,-0.06216531,-1.357875,3.089774,-0.2035619,0.01723201,-0.08411337,0.1657929,-0.1236756,-2.125159,1.258574
