ref,t,emg1,emg2,emg1raw,emg2raw,aDotS,bDotS,gDotS,aS,bS,gS,aDotSH,bDotSH,gDotSH,aSH,bSH,gSH
73.00003,0,458,168,475,497,-0.2259737,0.0224629,-0.07720444,-1.30513,3.087614,-0.2932215,-0.003212579,-0.0576267,0.1787378,-0.1813677,-2.104961,1.223961
73.00003,0.01111111,458,168,475,497,-0.2196582,0.03530204,-0.07299692,-1.305613,3.086662,-0.2907117,0.004237376,-0.05440972,0.1797495,-0.1793112,-2.104291,1.223105
73.00003,0.02222222,458,168,475,497,-0.2175934,0.04915216,-0.0751786,-1.306339,3.085738,-0.2881221,0.003152587,-0.04908965,0.1786841,-0.1773415,-2.103094,1.221875
73.00003,0.03333334,458,168,475,497,-0.2240424,0.05977773,-0.07418656,-1.30703,3.084649,-0.2851606,0.0009834617,-0.03951175,0.178688,-0.1753606,-2.100306,1.219272
73.00003,0.04444445,470,165,503,496,-0.2262042,0.06299287,-0.07098022,-1.30786,3.084082,-0.2823499,-0.008517005,-0.04805779,0.1862185,-0.1729361,-2.099844,1.219046
73.00003,0.05555556,470,165,503,496,-0.2314922,0.05231982,-0.07090828,-1.308148,3.083512,-0.2793001,-0.01913395,-0.04596104,0.1916067,-0.1706681,-2.098317,1.217909
73.00003,0.06666667,470,165,503,496,-0.2303614,0.03954211,-0.07083673,-1.308012,3.082698,-0.2765591,-0.006279185,-0.05336727,0.2000586,-0.1680343,-2.097856,1.217282
73.00003,0.07777778,470,165,503,496,-0.2281605,0.0267502,-0.07396208,-1.307686,3.081763,-0.2738198,-0.0019833,-0.0607955,0.2011054,-0.165737,-2.097233,1.216556
73.00003,0.08888889,470,165,503,496,-0.2270843,0.02462516,-0.073948,-1.307671,3.080864,-0.2710795,0.01280298,-0.05544223,0.1839593,-0.1640316,-2.096705,1.21553
73.00003,0.1,489,174,491,497,-0.2282255,0.03529802,-0.07079449,-1.308325,3.080152,-0.2681516,0.02019335,-0.04691445,0.1764418,-0.1622339,-2.09514,1.213478
73.00003,0.1111111,489,174,491,497,-0.2294154,0.0566323,-0.06452021,-1.309306,3.079272,-0.26536,0.0105321,-0.05016116,0.1637248,-0.1605929,-2.095625,1.214097
73.00003,0.1222222,489,174,491,497,-0.2273451,0.06413053,-0.06135297,-1.310228,3.078441,-0.2624812,0.00302092,-0.05872458,0.1499269,-0.1591697,-2.098203,1.216778
73.00003,0.1333333,489,174,491,497,-0.2305734,0.06945193,-0.05925881,-1.310969,3.077592,-0.2596124,0.00199414,-0.06298468,0.1542018,-0.1571308,-2.099025,1.217628
73.00003,0.1444445,489,174,491,497,-0.2379428,0.05445623,-0.06770938,-1.311025,3.076669,-0.2564065,-0.002163015,-0.05550686,0.1744521,-0.1547733,-2.09536,1.214138
73.00003,0.1555556,476,155,499,498,-0.2336545,0.0491518,-0.06767042,-1.311228,3.075814,-0.2537066,0.005406186,-0.05334523,0.1935592,-0.1522673,-2.094552,1.213087
73.00003,0.1666667,476,155,499,498,-0.2335447,0.02889798,-0.07075083,-1.310846,3.075066,-0.2509151,0.003299616,-0.05228394,0.1978297,-0.149953,-2.092801,1.211361
73.00003,0.1777778,476,155,499,498,-0.236677,0.01502039,-0.07174277,-1.310442,3.07437,-0.2478668,0.008572213,-0.05333812,0.1892653,-0.1481453,-2.092356,1.210724
73.00003,0.1888889,476,155,499,498,-0.2366796,0.0150261,-0.07067749,-1.310406,3.073566,-0.2450502,0.004204422,-0.03951211,0.1796899,-0.1465234,-2.088105,1.206589
73.00003,0.2,392,159,478,496,-0.2356464,0.02036328,-0.06964226,-1.310577,3.072626,-0.242092,0.006245516,-0.04165439,0.1626256,-0.1450965,-2.087925,1.206139
73.00003,0.2111111,392,159,478,496,-0.2303899,0.03107761,-0.06329532,-1.311042,3.071961,-0.2395982,0.002927631,-0.05021749,0.1392232,-0.1440174,-2.09059,1.20884
73.00003,0.2222222,392,159,478,496,-0.2272778,0.04282462,-0.05908822,-1.311547,3.071257,-0.2367721,0.004013304,-0.06193422,0.1349784,-0.1422448,-2.092854,1.210899
73.00003,0.2333333,392,159,478,496,-0.2273729,0.0598861,-0.05598414,-1.312503,3.070441,-0.234012,0.005067874,-0.0630025,0.1339085,-0.1405712,-2.094445,1.212482
73.00003,0.2444444,392,159,478,496,-0.2232065,0.0779992,-0.05927072,-1.313594,3.069293,-0.2312135,0.01047982,-0.05871645,0.1487702,-0.1385696,-2.094178,1.211884
73.00003,0.2555556,407,186,476,493,-0.2211357,0.0886711,-0.05613247,-1.314544,3.068486,-0.2286302,0.01266243,-0.04590859,0.164721,-0.1363155,-2.089533,1.207162
73.00003,0.2666667,407,186,476,493,-0.2136968,0.0887496,-0.04865772,-1.315433,3.067918,-0.2263154,-0.003217243,-0.0320987,0.1861077,-0.1339352,-2.083542,1.201628
73.00003,0.2777778,407,186,476,493,-0.206086,0.05577772,-0.04633335,-1.31538,3.067189,-0.2231607,0.03955067,-0.01914942,0.2145767,-0.1301913,-2.07375,1.190083
73.00003,0.2888889,395,178,497,496,-0.1931214,0.0164791,-0.0354174,-1.314785,3.067171,-0.2197689,-0.0003041774,-0.01404078,0.149819,-0.1293306,-2.072502,1.189942
73.00003,0.3,395,178,497,496,-0.1931214,0.0164791,-0.0354174,-1.314785,3.067171,-0.2197689,-0.0003041774,-0.01404078,0.149819,-0.1293306,-2.072502,1.189942
73.00003,0.3111111,395,178,497,496,-0.1685,-0.003647858,-0.03842546,-1.31421,3.066627,-0.216524,0.006921504,-0.03112319,0.1039898,-0.1274642,-2.076201,1.193299
73.00003,0.3222222,395,178,497,496,-0.1536828,0.01770571,-0.0438311,-1.314837,3.065794,-0.2150247,0.009044759,-0.04604039,0.09547584,-0.1263425,-2.080632,1.19757
73.00003,0.3333333,395,178,497,496,-0.1536828,0.01770571,-0.0438311,-1.314837,3.065794,-0.2150247,0.009044759,-0.04604039,0.09547584,-0.1263425,-2.080632,1.19757
73.00003,0.3444445,432,179,497,501,-0.1346245,0.03490786,-0.03217871,-1.315861,3.064845,-0.2121618,0.007986933,-0.01726017,0.1125077,-0.1233811,-2.067775,1.184798
73.00003,0.3555556,432,179,497,501,-0.1122609,0.0308328,-0.01824819,-1.316037,3.065133,-0.211684,0.000459969,-0.02475095,0.09764197,-0.122768,-2.069601,1.186837
73.00003,0.3666667,432,179,497,501,-0.09092917,0.02141757,-0.00641572,-1.316067,3.065542,-0.2114017,0.002458315,-0.01091978,0.08589321,-0.1222764,-2.06643,1.183733
73.00003,0.3777778,432,179,497,501,-0.06431373,0.02053109,0.002169011,-1.316233,3.065646,-0.2113655,0.003265643,-0.01629968,0.04221171,-0.122947,-2.071258,1.188442
73.00003,0.3888889,432,179,497,501,-0.04307623,0.03237625,0.005352613,-1.316953,3.065639,-0.2115035,0.02228699,-0.00665927,0.02183646,-0.1233033,-2.069311,1.185645
73.00003,0.4,426,167,480,501,-0.01972979,0.04743969,0.01065462,-1.317976,3.065714,-0.2119903,0.02434465,-0.02052554,0.003733203,-0.1234455,-2.075022,1.191035
73.00003,0.4111111,426,167,480,501,-0.0005614385,0.04437308,0.01923541,-1.318204,3.066058,-0.2125171,0.01579001,-0.02269793,-0.003666523,-0.123535,-2.078867,1.19487
73.00003,0.4222222,426,167,480,501,0.01759216,0.03490127,0.02252748,-1.318438,3.066356,-0.2132835,0.006175727,-0.03019837,-0.01212398,-0.1236964,-2.08406,1.200159
73.00003,0.4333333,426,167,480,501,0.02617618,0.01901224,0.03115639,-1.318301,3.067019,-0.214001,0.0007691961,-0.01850637,-0.01849663,-0.1241156,-2.084243,1.200498
73.00003,0.4444444,411,191,531,502,0.04654273,-0.006463366,0.02920485,-1.317562,3.067341,-0.2149554,-0.003644608,-0.01215225,-0.0376692,-0.1253071,-2.086863,1.203359
73.00003,0.4555556,411,191,531,502,0.06045948,-0.01812698,0.02610536,-1.317111,3.067692,-0.2160766,-0.001519324,0.001712071,-0.03130924,-0.1256208,-2.084209,1.200698
73.00003,0.4666667,411,191,531,502,0.07113367,-0.02337169,0.03148472,-1.316863,3.068245,-0.2173427,0.0006342344,0.005984252,-0.02600413,-0.1257763,-2.083607,1.199973
73.00003,0.4777778,411,191,531,502,0.08069471,-0.02115719,0.03788785,-1.316828,3.068865,-0.2186519,-0.005813753,0.02833846,-0.02279403,-0.1262498,-2.076966,1.193696
73.00003,0.4888889,411,191,531,502,0.08600172,-0.01687673,0.03789451,-1.31685,3.069586,-0.2199238,-0.004716475,0.03154287,-0.0174831,-0.1264996,-2.074369,1.191012
73.00003,0.5,415,167,494,500,0.08814135,-0.02109815,0.04324895,-1.316634,3.070337,-0.2211595,-0.01009191,0.03365089,-0.02383876,-0.12702,-2.071851,1.188827
73.00003,0.5111111,415,167,494,500,0.09558611,-0.01892867,0.0453895,-1.316452,3.071038,-0.2226594,-0.01226161,0.0240366,-0.03660003,-0.1277881,-2.075016,1.192016
73.00003,0.5222223,415,167,494,500,0.0998174,-0.01146605,0.04216301,-1.316613,3.071391,-0.223966,-0.01134156,0.01867579,-0.06215169,-0.1289391,-2.078856,1.195923
73.00003,0.5333334,415,167,494,500,0.1050859,0.0002736952,0.04104731,-1.317012,3.071761,-0.2253929,0.002547629,0.02086218,-0.05478634,-0.12942,-2.077815,1.194486
73.00003,0.5444446,414,180,510,493,0.1071169,0.01841314,0.04628978,-1.317738,3.072458,-0.2268651,0.007786445,0.01979324,-0.06867803,-0.1306621,-2.080334,1.196792
73.00003,0.5555557,414,180,510,493,0.1091883,0.0269806,0.05264063,-1.318414,3.073081,-0.2283075,0.01093034,0.02512331,-0.07403179,-0.1317444,-2.079838,1.196074
73.00003,0.5666668,414,180,510,493,0.1102641,0.02274263,0.05692841,-1.318616,3.073833,-0.2297301,0.002291627,0.02186742,-0.09315249,-0.1332768,-2.083886,1.200402
73.00003,0.577778,414,180,510,493,0.1145289,0.0195974,0.06228214,-1.318962,3.074653,-0.2313461,0.00440269,0.01334238,-0.1006121,-0.1344811,-2.088197,1.20456
73.00003,0.5888891,414,180,510,493,0.1177465,0.01531261,0.05697354,-1.318949,3.074957,-0.2326154,0.005478822,0.008023813,-0.1016693,-0.1354239,-2.090937,1.207191
73.00003,0.6000003,407,183,530,507,0.1252301,0.01213233,0.05274723,-1.319099,3.075401,-0.2343459,0.009729642,0.0144296,-0.1006391,-0.1365397,-2.091379,1.207377
73.00003,0.6111114,407,183,530,507,0.1336966,0.02390233,0.05376769,-1.31992,3.075834,-0.2362533,0.008690421,0.02509158,-0.09105858,-0.1374377,-2.089381,1.205322
73.00003,0.6222225,407,183,530,507,0.138969,0.03247322,0.05692751,-1.320749,3.076362,-0.2379987,0.00538376,0.02719965,-0.1070301,-0.1392562,-2.090626,1.206599
73.00003,0.6333337,407,183,530,507,0.1378207,0.04529083,0.06431348,-1.321795,3.077093,-0.239684,-0.002186246,0.03034972,-0.1229655,-0.1411119,-2.092431,1.20861
73.00003,0.6444448,407,183,530,507,0.1420488,0.04854596,0.07177266,-1.322576,3.07808,-0.2416393,-4.428625E-05,0.02395929,-0.1229652,-0.1422804,-2.09553,1.211747
73.00003,0.655556,448,211,503,498,0.1388635,0.0474529,0.06964028,-1.323231,3.078688,-0.2432361,-0.005323164,-0.002699062,-0.1292881,-0.143514,-2.104478,1.220805
73.00003,0.6666671,448,211,503,498,0.1399736,0.04315345,0.0611645,-1.323732,3.079344,-0.2450662,-0.01163937,-0.0005882047,-0.1153937,-0.144371,-2.106907,1.223521
73.00003,0.6777782,448,211,503,498,0.1368211,0.03566876,0.0590664,-1.324049,3.079893,-0.2466353,-0.01692783,0.01754106,-0.1015406,-0.1452749,-2.103323,1.220294
73.00003,0.6888894,448,211,503,498,0.1347096,0.03244296,0.05588148,-1.324358,3.080342,-0.2481304,-0.01907765,0.03990948,-0.09090453,-0.1463338,-2.098485,1.215979
73.00003,0.7000005,520,242,498,490,0.08561618,0.04819023,0.06100434,-1.325364,3.080937,-0.2480841,-0.009433141,0.05274848,-0.07713697,-0.1472206,-2.093984,1.211234
73.00003,0.7111117,520,242,498,490,0.08561618,0.04819023,0.06100434,-1.325364,3.080937,-0.2480841,-0.009433141,0.05274848,-0.07713697,-0.1472206,-2.093984,1.211234
73.00003,0.7222228,520,242,498,490,0.08560204,0.04614723,0.07488231,-1.327094,3.082816,-0.250065,-0.007293984,0.009029463,-0.09840865,-0.1494273,-2.106034,1.223271
73.00003,0.7333339,520,242,498,490,0.1207501,0.04950111,0.07068744,-1.327877,3.083333,-0.2524591,-0.01262145,-0.01124277,-0.1090009,-0.1506359,-2.113691,1.231112
73.00003,0.7444451,520,242,498,490,0.1240013,0.04096789,0.06541794,-1.32833,3.083921,-0.2540043,-0.01587279,-0.01446192,-0.1185654,-0.1520191,-2.118119,1.235819
73.00003,0.7555562,418,196,532,496,0.1059204,0.03446788,0.06327296,-1.328601,3.084445,-0.2546818,-0.0126982,-0.00805961,-0.1185942,-0.1532868,-2.120492,1.238221
73.00003,0.7666674,418,196,532,496,0.07920485,0.04816692,0.06316113,-1.329473,3.085005,-0.2552656,-0.01380569,0.02176877,-0.1101046,-0.1545422,-2.116324,1.234258
73.00003,0.7777785,418,196,532,496,0.07920485,0.04816692,0.06316113,-1.329473,3.085005,-0.2552656,-0.01380569,0.02176877,-0.1101046,-0.1545422,-2.116324,1.234258
73.00003,0.7888896,418,196,532,496,0.07281775,0.04921762,0.06418017,-1.330361,3.08552,-0.2557828,-0.01377202,0.02603976,-0.1026532,-0.1555547,-2.1157,1.233797
73.00003,0.8000008,418,196,532,496,0.08668367,0.04294155,0.07063709,-1.331013,3.086329,-0.2573801,-0.01271656,0.02712076,-0.1037091,-0.1565683,-2.115138,1.233329
73.00003,0.8111119,418,180,500,497,0.09204029,0.03658302,0.07174923,-1.331451,3.087081,-0.2587399,-0.0159125,0.02498248,-0.103666,-0.1574759,-2.115443,1.234003
73.00003,0.8222231,418,180,500,497,0.1027802,0.01640323,0.07081427,-1.331943,3.088579,-0.26132,-0.01498073,0.01429885,-0.1313418,-0.1606142,-2.121835,1.240507
73.00003,0.8333342,418,180,500,497,0.1027802,0.01640323,0.07081427,-1.331943,3.088579,-0.26132,-0.01498073,0.01429885,-0.1313418,-0.1606142,-2.121835,1.240507
73.00003,0.8444453,418,180,500,497,0.1156039,0.01006009,0.06768264,-1.332056,3.089252,-0.2631086,-0.01607963,0.01002435,-0.1387864,-0.1623069,-2.125516,1.244357
73.00003,0.8555565,418,180,500,497,0.1230373,0.01437278,0.06874695,-1.332714,3.090008,-0.2648237,-0.007459596,0.01859429,-0.1196827,-0.163272,-2.125042,1.243675
73.00003,0.8666676,367,168,494,499,0.1241377,0.007980943,0.06771833,-1.332801,3.090729,-0.2663992,-0.00093925,0.02717009,-0.09523346,-0.1638307,-2.12275,1.241249
73.00003,0.8777788,367,168,494,499,0.1199595,-0.008018531,0.06672388,-1.332605,3.091491,-0.2677404,-0.00180502,0.04214425,-0.05689892,-0.1638323,-2.115885,1.234464
73.00003,0.8888899,367,168,494,499,0.1211151,-0.02717087,0.07002468,-1.332056,3.092583,-0.269367,-0.001771126,0.04428329,-0.05051005,-0.1643692,-2.113256,1.231879
73.00003,0.900001,367,168,494,499,0.1158917,-0.04850652,0.06905808,-1.331231,3.0936,-0.2706246,-0.008152941,0.04319464,-0.04834339,-0.1651155,-2.112524,1.231528
73.00003,0.9111122,431,180,509,503,0.117008,-0.05704026,0.06591025,-1.330545,3.094481,-0.272166,-0.01140577,0.04210906,-0.05684483,-0.1661131,-2.111809,1.231115
73.00003,0.9222233,431,180,509,503,0.1106161,-0.05286556,0.05522448,-1.330308,3.094958,-0.2732606,-0.009346577,0.03890338,-0.06963765,-0.1672843,-2.11218,1.23155
73.00003,0.9333345,431,180,509,503,0.1051544,-0.02732624,0.05507425,-1.33062,3.096161,-0.2756793,-0.01797298,0.04632654,-0.08131444,-0.1696972,-2.108964,1.228965
73.00003,0.9444456,431,180,509,503,0.09759163,-0.01238972,0.06669325,-1.331082,3.097121,-0.2767509,-0.01474218,0.04634704,-0.07600932,-0.1705217,-2.107207,1.227306
73.00003,0.9555568,431,180,509,503,0.09759163,-0.01238972,0.06669325,-1.331082,3.097121,-0.2767509,-0.01474218,0.04634704,-0.07600932,-0.1705217,-2.107207,1.227306
73.00003,0.9666679,538,216,490,495,0.0879396,-0.001770616,0.06981836,-1.331626,3.098788,-0.2788724,-0.0179287,0.02182859,-0.08660715,-0.1725121,-2.110702,1.231227
73.00003,0.977779,538,216,490,495,0.0889598,0.01097267,0.0612304,-1.33221,3.099098,-0.2799526,-0.01682201,0.01757655,-0.08234738,-0.173278,-2.111845,1.232511
73.00003,0.9888902,538,216,490,495,0.07929768,0.02793843,0.05579097,-1.333053,3.099361,-0.2806519,-0.01349775,0.008025423,-0.0674478,-0.1736488,-2.112697,1.233373
73.00003,1.000001,400,178,515,505,0.06958976,0.05343314,0.051371,-1.334365,3.099468,-0.2812074,-0.01770959,0.004821748,-0.06103017,-0.1742325,-2.114193,1.235205
73.00003,1.011112,400,178,515,505,0.06958976,0.05343314,0.051371,-1.334365,3.099468,-0.2812074,-0.01770959,0.004821748,-0.06103017,-0.1742325,-2.114193,1.235205
73.00003,1.022224,400,178,515,505,0.0492134,0.08101638,0.0469078,-1.337003,3.099633,-0.2818993,-0.02297834,0.02400541,-0.04184359,-0.1749707,-2.109462,1.231198
73.00003,1.033335,400,178,515,505,0.04817782,0.0756789,0.04586847,-1.337827,3.099907,-0.2824682,-0.02514971,0.02185793,-0.04928405,-0.175725,-2.109803,1.231882
73.00003,1.044446,400,178,515,505,0.04817782,0.0756789,0.04586847,-1.337827,3.099907,-0.2824682,-0.02514971,0.02185793,-0.04928405,-0.175725,-2.109803,1.231882
73.00003,1.055557,400,178,515,505,0.05037135,0.0629074,0.045922,-1.338203,3.100077,-0.2830972,-0.02194938,0.009089874,-0.05461222,-0.1764232,-2.111357,1.23361
73.00003,1.066668,454,206,524,500,0.05159584,0.03412222,0.04075167,-1.337871,3.10051,-0.2837705,-0.01664255,-0.001556717,-0.06315481,-0.1772051,-2.114673,1.236912
73.00003,1.077779,454,206,524,500,0.05495279,0.008497467,0.02704579,-1.337605,3.100869,-0.2851265,-0.01344842,0.002728751,-0.06104646,-0.1785223,-2.115921,1.238424
73.00003,1.08889,454,206,524,500,0.05495279,0.008497467,0.02704579,-1.337605,3.100869,-0.2851265,-0.01344842,0.002728751,-0.06104646,-0.1785223,-2.115921,1.238424
73.00003,1.100002,454,206,524,500,0.04101953,0.0233509,0.02693913,-1.338784,3.101238,-0.28573,-0.003749736,0.01557949,-0.03768638,-0.1790278,-2.112615,1.235
73.00003,1.111113,371,176,502,502,0.03460355,0.02758492,0.02796672,-1.339286,3.101455,-0.2859782,-0.004753027,0.01132465,-0.03021709,-0.1791572,-2.112872,1.235334
73.00003,1.122224,371,176,502,502,0.02069892,0.037138,0.0342698,-1.340106,3.101713,-0.2860171,-0.005813752,0.01346377,-0.0270175,-0.1795056,-2.11151,1.234218
73.00003,1.133335,371,176,502,502,0.01747252,0.04456146,0.03102665,-1.340858,3.101745,-0.2861332,-0.008987663,-0.00146643,-0.03123875,-0.1797889,-2.114646,1.237494
73.00003,1.144446,371,176,502,502,0.01745117,0.05304364,0.02352407,-1.341653,3.101598,-0.2863553,-0.006903172,0.002797184,-0.03658536,-0.1803541,-2.114777,1.237606
73.00003,1.155557,363,178,503,497,0.01743737,0.05623377,0.02244171,-1.342388,3.101618,-0.2865492,-0.0101567,-0.002555216,-0.04827593,-0.1810981,-2.117254,1.240238
73.00003,1.166668,363,178,503,497,0.01743737,0.05623377,0.02244171,-1.342388,3.101618,-0.2865492,-0.0101567,-0.002555216,-0.04827593,-0.1810981,-2.117254,1.240238
73.00003,1.17778,363,178,503,497,0.02172086,0.05409914,0.01819772,-1.343498,3.10156,-0.2871026,-0.01538384,0.002774183,-0.02907702,-0.1814912,-2.116998,1.240599
73.00003,1.188891,363,178,503,497,0.02172086,0.05409914,0.01819772,-1.343498,3.10156,-0.2871026,-0.01538384,0.002774183,-0.02907702,-0.1814912,-2.116998,1.240599
73.00003,1.200002,363,178,503,497,0.0142593,0.05407846,0.01925364,-1.345017,3.10173,-0.2872933,-0.01630263,-0.002530327,-0.009896321,-0.181397,-2.117975,1.24186
73.00003,1.211113,377,172,487,494,0.01215838,0.04873557,0.01821191,-1.345433,3.101791,-0.2873796,-0.00672872,-0.004633543,-0.01315106,-0.1815717,-2.118819,1.242505
73.00003,1.222224,377,172,487,494,0.01215838,0.04873557,0.01821191,-1.345433,3.101791,-0.2873796,-0.00672872,-0.004633543,-0.01315106,-0.1815717,-2.118819,1.242505
73.00003,1.233335,377,172,487,494,0.01323566,0.04553737,0.0171603,-1.346417,3.101846,-0.2875942,-0.009003002,-0.01320004,-0.03869527,-0.1828201,-2.125051,1.249027
73.00003,1.244446,377,172,487,494,0.01322572,0.04767195,0.01822243,-1.34704,3.102021,-0.2878179,-0.0004103035,-0.008891832,-0.02490218,-0.1826497,-2.124432,1.248236
73.00003,1.255558,406,161,511,493,0.01112182,0.04338866,0.01610973,-1.34743,3.102029,-0.2878898,-0.0003723502,-0.01208209,-0.02063694,-0.1826902,-2.125809,1.249584
73.00003,1.266669,406,161,511,493,0.01112182,0.04338866,0.01610973,-1.34743,3.102029,-0.2878898,-0.0003723502,-0.01208209,-0.02063694,-0.1826902,-2.125809,1.249584
73.00003,1.27778,406,161,511,493,0.01215747,0.04871371,0.0150162,-1.348088,3.101932,-0.2879527,-0.00362581,-0.002522247,-0.02489898,-0.1832287,-2.126449,1.250344
73.00003,1.288891,406,161,511,493,0.01220828,0.04017453,0.01186587,-1.348269,3.101926,-0.2880789,-0.01214268,-0.0004293127,-0.02377393,-0.183324,-2.127281,1.251438
73.00003,1.300002,406,161,511,493,0.01344615,0.006075118,0.008857691,-1.3478,3.102273,-0.2883628,-0.008830596,-0.003593278,-0.007812671,-0.1831147,-2.127867,1.252097
73.00003,1.311113,403,165,516,498,0.01561666,-0.0003226476,0.005700871,-1.347618,3.102288,-0.2885993,-0.00454194,-0.00570558,-0.004641478,-0.1830396,-2.128285,1.252428
73.00003,1.322224,403,165,516,498,0.01561666,-0.0003226476,0.005700871,-1.347618,3.102288,-0.2885993,-0.00454194,-0.00570558,-0.004641478,-0.1830396,-2.128285,1.252428
73.00003,1.333336,403,165,516,498,0.01777538,-0.006702149,0.006794462,-1.347242,3.102348,-0.2890281,-0.008910637,-0.004679896,-0.0195209,-0.1836313,-2.130571,1.255049
73.00003,1.344447,403,165,516,498,0.01883432,-0.006696313,0.007870431,-1.347183,3.102625,-0.2892683,-0.006738022,-0.01105505,-0.01738277,-0.1834961,-2.131433,1.255803
73.00003,1.355558,403,165,516,498,0.01773063,0.001809046,0.005691916,-1.347428,3.102543,-0.2894217,-0.006748133,-0.005730513,-0.01525852,-0.1836228,-2.13157,1.256101
73.00003,1.366669,452,163,515,504,0.01769046,0.009275186,0.007783584,-1.347731,3.102542,-0.2897296,-0.00565101,0.0006805889,-0.00675875,-0.1836628,-2.130115,1.254723
73.00003,1.37778,452,163,515,504,0.02085873,0.01567177,0.005626274,-1.34806,3.102452,-0.2900172,-0.005595489,0.007093359,0.006023793,-0.1832947,-2.127846,1.252632
73.00003,1.388891,452,163,515,504,0.02513386,0.01250342,0.006718334,-1.348107,3.102575,-0.2904007,-0.0002828501,0.007108097,0.003858959,-0.1833107,-2.127417,1.252072
73.00003,1.400002,452,163,515,504,0.02302548,0.007170647,0.007791845,-1.347959,3.102476,-0.2905093,0.0007250746,0.004955022,-0.006785873,-0.1834556,-2.128722,1.253289
73.00003,1.411114,422,151,501,496,0.02200608,-0.001362611,0.006769644,-1.347731,3.102613,-0.2907543,0.00703836,-0.0003701989,-0.02173388,-0.1840282,-2.130729,1.255007
73.00003,1.422225,422,151,501,496,0.02312784,-0.01201536,0.005762635,-1.347353,3.102745,-0.291059,0.005946783,-0.003585516,-0.02810587,-0.1842694,-2.132424,1.256594
73.00003,1.433336,422,151,501,496,0.02312784,-0.01201536,0.005762635,-1.347353,3.102745,-0.291059,0.005946783,-0.003585516,-0.02810587,-0.1842694,-2.132424,1.256594
73.00003,1.444447,422,151,501,496,0.01892528,-0.02058326,0.001544917,-1.346724,3.103014,-0.2915362,0.007047927,-0.003578663,-0.02278686,-0.1845906,-2.134077,1.258001
73.00003,1.455558,422,151,501,496,0.02425756,-0.02267524,0.00369913,-1.346453,3.103192,-0.2920119,0.01127658,0.002826234,-0.02388516,-0.1848926,-2.133554,1.257291
73.00003,1.466669,373,165,503,501,0.02849269,-0.01944838,0.006882459,-1.346235,3.10336,-0.2924183,0.01233957,-0.0003710091,-0.02602048,-0.1852207,-2.134867,1.258425
73.00003,1.47778,373,165,503,501,0.02843393,-0.009838247,0.01109235,-1.346448,3.103552,-0.2927677,0.01555232,0.003907438,-0.02071784,-0.1853086,-2.134173,1.25754
73.00003,1.488891,373,165,503,501,0.02729916,0.0007950612,0.009980043,-1.346668,3.103739,-0.2927911,0.01023794,0.003894655,-0.01855976,-0.185535,-2.134196,1.257621
73.00003,1.500003,373,165,503,501,0.02725781,0.01036545,0.006733041,-1.347033,3.103606,-0.2930692,0.004955051,-0.0003709765,-0.01425748,-0.1855723,-2.134382,1.257845
73.00003,1.511114,373,165,503,501,0.02725781,0.01036545,0.006733041,-1.347033,3.103606,-0.2930692,0.004955051,-0.0003709765,-0.01425748,-0.1855723,-2.134382,1.257845
73.00003,1.522225,447,170,494,496,0.01971904,0.02737434,0.00662962,-1.348045,3.103509,-0.2933685,-0.0003849561,0.01453288,-0.00997735,-0.1857267,-2.13116,1.254665
73.00003,1.533336,447,170,494,496,0.01549924,0.02201742,0.005569585,-1.347997,3.103365,-0.2935922,0.003907026,0.007090902,-0.008928922,-0.1857379,-2.131981,1.255322
73.00003,1.544447,447,170,494,496,0.01126873,0.01773233,0.004522035,-1.348161,3.103403,-0.2937408,0.003883176,0.0006887689,-0.01637188,-0.185951,-2.133188,1.256429
73.00003,1.555558,447,170,494,496,0.01126873,0.01773233,0.004522035,-1.348161,3.103403,-0.2937408,0.003883176,0.0006887689,-0.01637188,-0.185951,-2.133188,1.256429
73.00003,1.566669,447,170,494,496,0.01444785,0.02199838,0.002376142,-1.348489,3.103275,-0.2939464,0.008145201,-0.002497997,-0.01746083,-0.1861283,-2.13431,1.25738
73.00003,1.577781,428,183,487,493,0.01762971,0.02414808,0.002373938,-1.349105,3.103183,-0.2943544,0.01252939,0.002865531,0.001673346,-0.1857837,-2.133049,1.255538
73.00003,1.588892,428,183,487,493,0.01338421,0.01987599,0.003462155,-1.349348,3.103352,-0.294365,0.008247587,0.004979241,-0.0004325986,-0.1858913,-2.132407,1.254938
73.00003,1.600003,428,183,487,493,0.00595366,0.01345857,0.005605508,-1.349382,3.103476,-0.2942457,0.006099762,-0.003541911,-0.005729098,-0.1860032,-2.133012,1.255673
73.00003,1.611114,428,183,487,493,0.00595366,0.01345857,0.005605508,-1.349382,3.103476,-0.2942457,0.006099762,-0.003541911,-0.005729098,-0.1860032,-2.133012,1.255673
73.00003,1.622225,352,162,503,495,0.001713028,0.01023894,0.004553581,-1.349506,3.103491,-0.2941706,-0.0003608884,0.002818887,-0.01315325,-0.1863803,-2.132573,1.255407
73.00003,1.633336,352,162,503,495,-0.004635963,0.003772577,-0.001806646,-1.349352,3.103534,-0.2938862,0.003904201,-0.001422132,-0.01531402,-0.1868969,-2.133137,1.255746
73.00003,1.644447,352,162,503,495,-0.00462237,0.005847016,-0.01140507,-1.349313,3.103149,-0.2937898,0.006046838,0.003930028,-0.01001299,-0.1870088,-2.131451,1.254014
73.00003,1.655559,352,162,503,495,0.0006940411,0.00589691,-0.007131615,-1.349381,3.10317,-0.2939384,0.007131464,0.01352892,-0.001509995,-0.1869054,-2.129149,1.251727
73.00003,1.66667,348,152,504,498,0.002842969,0.004820174,-0.01137674,-1.349381,3.102994,-0.2940316,0.004033661,0.01354455,0.01341926,-0.1865353,-2.127084,1.249722
73.00003,1.677781,348,152,504,498,0.007050718,0.01338676,-0.007151247,-1.349776,3.102904,-0.2942069,0.006200623,0.01569093,0.02086177,-0.1861656,-2.125234,1.247849
73.00003,1.688892,348,152,504,498,0.00280054,0.01018573,-0.005020075,-1.349858,3.102756,-0.2940556,0.004069946,0.00928304,0.01662172,-0.1861049,-2.125871,1.248445
73.00003,1.700003,348,152,504,498,0.00280054,0.01018573,-0.005020075,-1.349858,3.102756,-0.2940556,0.004069946,0.00928304,0.01662172,-0.1861049,-2.125871,1.248445
73.00003,1.711114,348,152,504,498,-0.004573292,-0.006907509,-0.004940383,-1.349202,3.102924,-0.2938085,-0.0002176361,-0.005669546,0.004957491,-0.1860048,-2.128628,1.251251
73.00003,1.722225,391,149,507,501,-0.007713882,-0.01546071,-0.007029322,-1.34878,3.10296,-0.2937712,-0.001265568,-0.008867052,0.006033507,-0.1858599,-2.129197,1.251862
73.00003,1.733337,391,149,507,501,-0.009812331,-0.02080926,-0.0091364,-1.348387,3.102934,-0.2936247,0.0008579369,-0.006729454,0.006016941,-0.1857688,-2.129107,1.251704
73.00003,1.744448,391,149,507,501,-0.01624433,-0.01231729,-0.01025753,-1.348579,3.102782,-0.2932625,0.00510869,0.00394113,0.01024037,-0.1855829,-2.127017,1.24952
73.00003,1.755559,391,149,507,501,-0.01624433,-0.01231729,-0.01025753,-1.348579,3.102782,-0.2932625,0.00510869,0.00394113,0.01024037,-0.1855829,-2.127017,1.24952
73.00003,1.76667,363,147,517,498,-0.01425444,0.0111634,-0.002922761,-1.348921,3.102916,-0.2928167,-0.002385232,0.001775,0.00388935,-0.1858034,-2.12729,1.250076
73.00003,1.777781,363,147,517,498,-0.005738453,0.01332678,-0.005040351,-1.349328,3.102647,-0.2929882,-0.001300792,0.002848042,0.008144678,-0.1855659,-2.126693,1.249524
73.00003,1.788892,363,147,517,498,0.0006107632,0.01869964,-0.00186132,-1.349615,3.102569,-0.2930298,-0.00236413,0.00178697,0.007074354,-0.1857438,-2.126394,1.249207
73.00003,1.800003,363,147,517,498,0.002717579,0.02192333,0.001322395,-1.349953,3.102569,-0.2931144,0.0008161776,0.007120993,0.008108248,-0.1857374,-2.1254,1.248214
73.00003,1.811115,363,147,517,498,0.0005677249,0.02298656,0.00343073,-1.350132,3.102429,-0.2928551,0.0007448504,-0.0003558509,-0.006795842,-0.1861145,-2.127231,1.249994
73.00003,1.822226,329,142,494,495,0.003798023,0.01766938,0.003468355,-1.350104,3.102511,-0.2931054,-0.003589896,-0.001453101,-0.01848816,-0.186629,-2.128641,1.251577
73.00003,1.833337,329,142,494,495,0.002709873,0.01876892,0.01091716,-1.350447,3.102738,-0.2931469,-0.0003422284,-0.006762748,-0.01317634,-0.1865715,-2.129759,1.252571
73.00003,1.844448,329,142,494,495,0.007017408,0.01449791,0.004552227,-1.350463,3.102528,-0.2934191,-0.0003489703,-0.009963447,-0.01637332,-0.1868128,-2.131268,1.254008
73.00003,1.855559,329,142,494,495,0.007017408,0.01449791,0.004552227,-1.350463,3.102528,-0.2934191,-0.0003489703,-0.009963447,-0.01637332,-0.1868128,-2.131268,1.254008
73.00003,1.86667,368,140,498,500,0.01025706,0.004938145,0.006741344,-1.350431,3.102743,-0.2937573,0.001889563,-0.005668519,0.002786447,-0.1863691,-2.130579,1.253267
73.00003,1.877781,368,140,498,500,0.01348044,-0.001425816,0.008913404,-1.350287,3.102949,-0.2940535,-0.002412408,-0.003561703,-0.001447737,-0.1864522,-2.130877,1.253799
73.00003,1.888893,368,140,498,500,0.01776812,-0.005671858,0.006811685,-1.350199,3.10296,-0.2943592,-0.001433861,-0.002527096,-0.01637518,-0.1870072,-2.132999,1.255711
73.00003,1.900004,368,140,498,500,0.02094716,-0.005618221,0.01321327,-1.350305,3.103314,-0.2947113,0.0006422251,-0.004666064,-0.02490894,-0.1874194,-2.134704,1.257428
73.00003,1.911115,368,140,498,500,0.02626902,-0.006633621,0.01749238,-1.35028,3.103653,-0.2952183,-0.0004361626,-0.01106836,-0.03022014,-0.1877901,-2.136985,1.259702
73.00003,1.922226,384,136,494,497,0.03050281,-0.002339351,0.0185361,-1.350485,3.103695,-0.2956258,0.004934259,-0.01424534,-0.02492432,-0.1877917,-2.138652,1.261154
73.00003,1.933337,384,136,494,497,0.03363065,0.01151976,0.01740424,-1.351059,3.103685,-0.296078,-0.0003433973,-0.022781,-0.02168317,-0.1877763,-2.141467,1.26406
73.00003,1.944448,384,136,494,497,0.03359752,0.01791076,0.01736944,-1.351436,3.103737,-0.2964216,-0.005653782,-0.01000551,-0.01207803,-0.1877092,-2.140278,1.263153
73.00003,1.955559,384,136,494,497,0.03463273,0.02430212,0.01627248,-1.351901,3.10375,-0.2968359,-0.01215795,0.005938672,-0.0205785,-0.1882668,-2.138633,1.261907
73.00003,1.966671,353,135,518,496,0.0293562,0.01363712,0.01845558,-1.351939,3.104169,-0.297123,-0.01114849,0.01339319,-0.02593025,-0.1889108,-2.138043,1.261377
73.00003,1.977782,353,135,518,496,0.0272229,0.01469589,0.01845585,-1.352293,3.104447,-0.2974826,-0.01117929,0.01018831,-0.03231798,-0.1894008,-2.138873,1.262317
73.00003,1.988893,353,135,518,496,0.01448791,0.006097149,0.01634127,-1.352181,3.104639,-0.2973616,-0.01223633,-0.004738132,-0.0386803,-0.1898509,-2.142378,1.265908
73.00003,2.000004,353,135,518,496,0.01344781,-0.0002785679,0.02063396,-1.352144,3.10502,-0.2976242,-0.007850502,-0.01109703,-0.02378456,-0.1896245,-2.143418,1.266801
73.00003,2.011115,353,135,518,496,0.01344781,-0.0002785679,0.02063396,-1.352144,3.10502,-0.2976242,-0.007850502,-0.01109703,-0.02378456,-0.1896245,-2.143418,1.266801
73.00003,2.022226,398,150,487,501,0.02195112,0.007212102,0.01741893,-1.352595,3.105196,-0.2985073,-0.004596189,-0.01001788,-0.01314838,-0.1894903,-2.145009,1.268459
73.00003,2.033337,398,150,487,501,0.01978553,0.01359851,0.01844516,-1.352968,3.105337,-0.2987028,-0.006767902,-0.003642865,-0.01527561,-0.1897587,-2.145135,1.268808
73.00003,2.044448,398,150,487,501,0.01232435,0.01354171,0.01737137,-1.352993,3.105635,-0.2985989,-0.007880374,-0.003656628,-0.02272143,-0.1901119,-2.146042,1.269804
73.00003,2.055559,398,150,487,501,0.008066158,0.01246038,0.01843247,-1.353162,3.105825,-0.2986043,-0.01214358,-0.003675094,-0.02162693,-0.1902445,-2.146932,1.271038
73.00003,2.06667,398,150,487,501,0.01447055,0.008219493,0.01740231,-1.353052,3.105983,-0.2988163,-0.01214916,0.001657712,-0.01951233,-0.1905971,-2.146408,1.270684
73.00003,2.077781,343,149,503,498,0.01453786,0.001821677,0.01423462,-1.353052,3.105958,-0.2993734,-0.01533115,0.001655312,-0.01735559,-0.1906866,-2.146058,1.270591
73.00003,2.088892,343,149,503,498,0.01453786,0.001821677,0.01423462,-1.353052,3.105958,-0.2993734,-0.01533115,0.001655312,-0.01735559,-0.1906866,-2.146058,1.270591
73.00003,2.100003,343,149,503,498,0.01138053,-0.00459816,0.01426921,-1.352813,3.106492,-0.2997984,-0.004649018,0.0112938,-0.00782899,-0.1904703,-2.14267,1.2671
73.00003,2.111114,343,149,503,498,0.01138053,-0.00459816,0.01426921,-1.352813,3.106492,-0.2997984,-0.004649018,0.0112938,-0.00782899,-0.1904703,-2.14267,1.2671
73.00003,2.122225,316,148,500,499,0.008169193,-0.001425077,0.01316541,-1.352827,3.106552,-0.2999396,-0.003521119,-0.00360047,-0.005688872,-0.1904789,-2.143726,1.268239
73.00003,2.133336,316,148,500,499,0.006038181,-0.0003820257,0.01102426,-1.352858,3.106602,-0.299963,-0.00779333,-0.01001308,-0.009911666,-0.1905747,-2.14542,1.270164
73.00003,2.144447,316,148,500,499,0.003905016,0.003832829,0.00459679,-1.352897,3.106333,-0.2999731,-0.007785332,-0.003611574,-0.005660624,-0.1905998,-2.144378,1.269215
73.00003,2.155558,316,148,500,499,0.004973586,0.00170551,0.005673502,-1.352765,3.106488,-0.3000317,-0.000351243,0.007066861,-0.002523042,-0.1905923,-2.142497,1.267283
73.00003,2.166669,316,148,500,499,0.003865432,0.009168313,0.007761782,-1.353093,3.106551,-0.3000562,0.002849428,0.01454476,0.001702036,-0.1906696,-2.140427,1.26511
73.00003,2.17778,279,147,505,496,0.004947329,0.005986921,0.008848891,-1.353164,3.106689,-0.3001963,-0.003548173,0.01239283,-0.000382727,-0.1907297,-2.139954,1.264866
73.00003,2.188891,279,147,505,496,0.003866256,0.008123386,0.01096562,-1.353355,3.106821,-0.3002304,0.002809217,0.01134493,-0.005753527,-0.1910403,-2.139694,1.264474
73.00003,2.200002,279,147,505,496,0.003866991,0.005997742,0.01310345,-1.353332,3.106985,-0.3002389,0.004895836,-0.003580712,-0.01852429,-0.1913098,-2.142688,1.267458
73.00003,2.211113,279,147,505,496,0.004936344,0.008099649,0.006702858,-1.353442,3.106852,-0.3002965,0.004920008,-0.01423409,-0.0206442,-0.1914893,-2.145344,1.269981
73.00003,2.222224,305,144,512,496,0.005986451,0.01125744,0.002416845,-1.353281,3.106642,-0.3002309,0.007150916,-0.004617867,-0.0004398667,-0.1911415,-2.143687,1.268184
73.00003,2.233335,305,144,512,496,0.004947836,0.006979587,0.0003065669,-1.353249,3.106602,-0.300249,0.004021889,-0.002484533,0.01129499,-0.1907787,-2.143184,1.267749
73.00003,2.244446,305,144,512,496,0.003876411,0.009134172,0.00455324,-1.353541,3.106677,-0.3004887,0.002945141,0.006036814,0.01341425,-0.1907984,-2.141711,1.266254
73.00003,2.255557,305,144,512,496,0.004946684,0.009128247,0.002425149,-1.353619,3.1066,-0.3005399,-0.0003128257,0.006009741,0.004913643,-0.1909476,-2.141905,1.266652
73.00003,2.266668,305,144,512,496,0.006010483,0.01020237,0.003485275,-1.353713,3.106603,-0.3007353,0.002857164,-0.006776178,-0.005752312,-0.1912949,-2.144609,1.269177
73.00003,2.277779,348,147,510,496,0.009182591,0.01662049,0.005594454,-1.3541,3.106687,-0.3011407,0.006003833,-0.008895589,-0.01429477,-0.1916789,-2.145061,1.269478
73.00003,2.28889,348,147,510,496,0.00704119,0.01874015,0.005578133,-1.354367,3.106664,-0.3011556,0.008127524,-0.008889975,-0.01537375,-0.1918531,-2.145817,1.270071
73.00003,2.300001,348,147,510,496,0.00704119,0.01874015,0.005578133,-1.354367,3.106664,-0.3011556,0.008127524,-0.008889975,-0.01537375,-0.1918531,-2.145817,1.270071
73.00003,2.311112,348,147,510,496,0.004847337,0.03045058,0.006574567,-1.355237,3.106512,-0.3011854,0.004965898,0.00708835,-0.0004522093,-0.1915622,-2.143403,1.267779
73.00003,2.322223,376,143,482,501,0.002710324,0.03043617,0.005507108,-1.355594,3.106478,-0.3010246,0.003875454,0.003882525,-0.005763642,-0.1917093,-2.143927,1.268285
73.00003,2.333334,376,143,482,501,0.002724523,0.02619214,0.008725732,-1.355852,3.106618,-0.301098,0.0006757681,-0.000380788,-0.009992871,-0.1918893,-2.143891,1.268188
73.00003,2.344445,376,143,482,501,0.004928412,0.01338962,0.003467899,-1.355588,3.106499,-0.3011348,0.001803165,-0.005697995,-0.003603147,-0.1917082,-2.1449,1.269083
73.00003,2.355556,376,143,482,501,0.00180603,-0.001534766,0.004605543,-1.355207,3.106706,-0.3011146,0.006114606,-0.01099656,0.001698735,-0.1915814,-2.145555,1.269552
73.00003,2.366668,376,143,482,501,0.002910159,-0.007937184,0.001440895,-1.354931,3.106623,-0.3011343,0.01035143,-0.007789462,-0.0004633805,-0.1916379,-2.145654,1.269419
73.00003,2.377779,376,143,482,501,0.002910159,-0.007937184,0.001440895,-1.354931,3.106623,-0.3011343,0.01035143,-0.007789462,-0.0004633805,-0.1916379,-2.145654,1.269419
73.00003,2.38889,327,140,502,499,0.003931461,-0.0004603739,0.004604917,-1.355061,3.106842,-0.3013218,0.007065627,0.003913037,-0.007917898,-0.1921513,-2.144819,1.268577
73.00003,2.400001,327,140,502,499,0.003931461,-0.0004603739,0.004604917,-1.355061,3.106842,-0.3013218,0.007065627,0.003913037,-0.007917898,-0.1921513,-2.144819,1.268577
73.00003,2.411112,327,140,502,499,0.004918293,0.01236751,0.009869223,-1.355871,3.106986,-0.3014677,-0.007811903,0.002815095,-0.004625218,-0.1922632,-2.143796,1.267867
73.00003,2.422223,327,140,502,499,0.002784669,0.01129189,0.009839646,-1.355857,3.106678,-0.301244,-0.004564025,-0.005686167,-0.001435368,-0.1920874,-2.144572,1.268528
73.00003,2.433334,294,142,494,498,0.002855113,-0.002556595,0.009913766,-1.355497,3.106904,-0.3013388,-0.006744071,-0.008901265,-0.01100599,-0.1924501,-2.145957,1.270004
73.00003,2.444445,294,142,494,498,0.002889577,-0.007893017,0.007818773,-1.355311,3.107082,-0.3014453,-0.002493208,-0.0003686342,-0.008917131,-0.1925785,-2.145357,1.269277
73.00003,2.455556,294,142,494,498,0.006122472,-0.01322581,0.003593543,-1.354991,3.107092,-0.30162,0.001735091,-0.004623606,-0.01639665,-0.1928874,-2.146613,1.270356
73.00003,2.466667,294,142,494,498,0.008222927,-0.005756164,0.002505352,-1.355316,3.107195,-0.3018533,0.003821731,-0.01208766,-0.02705343,-0.1933561,-2.149187,1.272774
73.00003,2.477778,294,142,494,498,0.008222927,-0.005756164,0.002505352,-1.355316,3.107195,-0.3018533,0.003821731,-0.01208766,-0.02705343,-0.1933561,-2.149187,1.272774
73.00003,2.488889,316,133,496,500,0.01650908,0.03377736,0.01508767,-1.357076,3.107163,-0.3023199,0.005985277,-0.00674383,-0.01962162,-0.1936672,-2.149859,1.273247
73.00003,2.5,316,133,496,500,0.01748594,0.0487197,0.01819918,-1.358047,3.107027,-0.3024195,0.003891699,-0.006736412,-0.01427632,-0.193599,-2.149791,1.273169
73.00003,2.511111,316,133,496,500,0.01535832,0.04764923,0.01926522,-1.358608,3.107121,-0.3025393,0.0007162532,-0.004610755,-0.009997419,-0.1935974,-2.149798,1.273258
73.00003,2.522222,316,133,496,500,0.01542177,0.03697663,0.01505121,-1.358859,3.107114,-0.3026715,-0.008873962,-0.01423508,-0.01525,-0.1937641,-2.151844,1.275561
73.00003,2.533333,372,140,489,495,0.01546644,0.02950631,0.01296397,-1.358861,3.107099,-0.302876,-0.008854767,-0.009976742,-0.0109773,-0.1935149,-2.152184,1.275899
73.00003,2.544444,372,140,489,495,0.01448006,0.01458144,0.01197729,-1.358708,3.107279,-0.3030502,-0.002464865,-0.001426906,-0.006771805,-0.1935873,-2.151057,1.274646
73.00003,2.555555,372,140,489,495,0.0113118,0.008184888,0.01413469,-1.358702,3.107509,-0.3031434,-0.008924707,0.003868863,-0.01525843,-0.1940123,-2.15063,1.274429
73.00003,2.566666,372,140,489,495,0.01347753,0.002875354,0.01418205,-1.358799,3.107853,-0.3035348,-0.007851643,-0.006786149,-0.01951256,-0.1942339,-2.152749,1.27656
73.00003,2.577777,393,132,478,497,0.01242945,-0.0003305497,0.01313865,-1.358832,3.108088,-0.3036755,-0.003555425,-0.01315763,-0.01740041,-0.1942558,-2.154179,1.277886
73.00003,2.588888,393,132,478,497,0.01349973,-0.0003364943,0.01101057,-1.358867,3.108155,-0.3038592,-0.0003627576,-0.01634577,-0.01954737,-0.1944305,-2.156036,1.279642
73.00003,2.599999,393,132,478,497,0.01131943,0.008169788,0.01094789,-1.359071,3.108027,-0.3038198,-0.002509989,-0.01422544,-0.02059891,-0.1946196,-2.156889,1.280624
73.00003,2.61111,393,132,478,497,0.009204319,0.007070853,0.006687535,-1.359096,3.107975,-0.3038539,-0.004624659,-0.0003710738,-0.01101566,-0.1946323,-2.154912,1.278798
73.00003,2.622221,393,132,478,497,0.005977726,0.01556415,0.005569762,-1.359385,3.107952,-0.3040158,-0.005687051,0.008149542,-0.006755485,-0.1946084,-2.153788,1.277723
73.00003,2.633332,334,119,514,497,0.001702821,0.01873249,0.004477485,-1.359671,3.107891,-0.3039136,-0.004604566,0.007090572,-0.004630409,-0.1946137,-2.153504,1.27747
73.00003,2.644443,334,119,514,497,-0.002576165,0.02085772,0.007643915,-1.359939,3.107879,-0.3037729,-0.001392755,0.0007117152,-0.004642886,-0.1946307,-2.15436,1.278296
73.00003,2.655554,334,119,514,497,-0.007924302,0.02509156,0.007608709,-1.36033,3.107839,-0.3035311,-0.001443859,-0.002496807,-0.0142262,-0.195002,-2.155619,1.279541
73.00003,2.666665,334,119,514,497,-0.01113713,0.02826459,0.006511203,-1.360661,3.107644,-0.3032547,0.0006335322,-0.01529653,-0.02807876,-0.1956156,-2.159626,1.283468
73.00003,2.677776,375,144,495,498,-0.009002605,0.02931778,0.004361489,-1.36077,3.107298,-0.3031812,-0.001436006,-0.02062916,-0.02166814,-0.1955373,-2.16194,1.28579
73.00003,2.688887,375,144,495,498,-0.007944819,0.0293403,0.007559795,-1.361132,3.10736,-0.3031215,-0.004553111,-0.01955752,-0.008865667,-0.1952475,-2.162535,1.286496
73.00003,2.699998,375,144,495,498,-0.005770285,0.02293605,0.003315067,-1.361066,3.106933,-0.3030507,-0.01302527,-0.008914952,0.0050244,-0.1948997,-2.160966,1.285356
73.00003,2.711109,375,144,495,498,-0.002566943,0.0229353,0.0001266438,-1.361277,3.106766,-0.3030896,-0.0119472,0.001751326,0.0124606,-0.1946547,-2.158935,1.283468
73.00003,2.72222,375,144,495,498,-0.006779375,0.01437556,-0.003039324,-1.361176,3.106603,-0.3028126,-0.004492103,0.002850791,0.01347655,-0.1945439,-2.158015,1.282443
73.00003,2.733331,320,139,473,496,-0.008901999,0.0132937,-0.004103831,-1.361274,3.106492,-0.302632,-0.006677472,0.002832525,0.004968072,-0.1947319,-2.158113,1.28266
73.00003,2.744442,320,139,473,496,-0.008901999,0.0132937,-0.004103831,-1.361274,3.106492,-0.302632,-0.006677472,0.002832525,0.004968072,-0.1947319,-2.158113,1.28266
73.00003,2.755553,320,139,473,496,-0.01209247,0.009034032,-0.0008883998,-1.361408,3.106584,-0.302174,-0.00567504,-0.002506555,-0.006752839,-0.195125,-2.159876,1.284573
73.00003,2.766664,320,139,473,496,-0.009964413,0.009050623,0.0001818191,-1.36152,3.106588,-0.3021255,-0.00562836,-0.004620297,-0.0003532518,-0.1948512,-2.159443,1.284235
73.00003,2.777775,320,139,473,496,-0.004644487,0.01120863,-0.0008727696,-1.361799,3.10661,-0.3022416,-0.002442743,-0.002485377,-0.001441512,-0.1948837,-2.15975,1.284418
73.00003,2.788886,320,130,498,495,-0.005710202,0.01225705,-0.003011507,-1.36193,3.106462,-0.3021186,0.0007729051,0.002860112,0.0049191,-0.1947591,-2.158657,1.283283
73.00003,2.799997,320,130,498,495,-0.004629422,0.006949564,-0.0008679607,-1.361835,3.106291,-0.301962,0.001874168,0.005010531,0.01130683,-0.194463,-2.156962,1.281554
73.00003,2.811108,320,130,498,495,-0.006736922,-0.0004840065,0.005558767,-1.361696,3.106557,-0.3018981,0.0008115154,0.01460168,0.01662758,-0.1942456,-2.154535,1.279221
73.00003,2.822219,320,130,498,495,-0.005629153,-0.009001525,0.004529791,-1.36143,3.106497,-0.3017995,0.00184986,0.01247279,0.01023267,-0.1943559,-2.153797,1.278345
73.00003,2.83333,369,148,505,497,-0.004536261,-0.01537628,0.006697105,-1.361148,3.10673,-0.301823,-0.00144124,0.003914574,-0.008910585,-0.1948944,-2.155666,1.280276
73.00003,2.844441,369,148,505,497,-0.001320623,-0.01750854,0.003520445,-1.36091,3.106756,-0.3019098,-0.0004028855,-0.001414183,-0.01636944,-0.1952544,-2.156872,1.281386
73.00003,2.855552,369,148,505,497,0.004010543,-0.01749036,0.001416336,-1.360803,3.106973,-0.3021266,0.005994864,0.007136242,-0.01109533,-0.1953125,-2.155171,1.279469
73.00003,2.866663,369,148,505,497,0.001853271,-0.01322878,0.003519113,-1.360803,3.107085,-0.3021165,0.004973871,0.008197414,-0.004703084,-0.1952161,-2.154856,1.279017
73.00003,2.877774,369,148,505,497,0.004979559,0.0006452836,0.004516783,-1.361267,3.107024,-0.3023103,-0.002453312,0.02416267,0.007042131,-0.1950366,-2.151405,1.275784
73.00003,2.888885,360,146,514,502,0.007053742,0.01026069,0.007666114,-1.361677,3.107057,-0.3024557,-0.002436258,0.02523218,0.01023657,-0.1949333,-2.149416,1.273872
73.00003,2.899997,360,146,514,502,0.008108211,0.0124168,0.01086718,-1.362004,3.107397,-0.3027402,-0.003506588,0.02095717,0.005989139,-0.1950121,-2.14945,1.273818
73.00003,2.911108,360,146,514,502,0.01131947,0.01134507,0.006619178,-1.362105,3.107328,-0.3029026,-0.003483846,-0.004622497,-0.003565006,-0.195027,-2.153441,1.277759
73.00003,2.922219,360,146,514,502,0.01030471,0.002809908,0.004541137,-1.361981,3.107477,-0.3030342,-0.005660125,-0.00996458,-0.01312703,-0.1952827,-2.154623,1.279082
73.00003,2.93333,344,138,478,497,0.01143387,-0.006806258,-0.001796653,-1.3616,3.107392,-0.30317,-0.003526612,-0.004626877,-0.009951864,-0.1953333,-2.154138,1.278572
73.00003,2.944441,344,138,478,497,0.01356896,-0.008914988,0.0003514506,-1.361489,3.107538,-0.3033948,0.001811353,0.001795182,-0.004657807,-0.1951293,-2.152074,1.276375
73.00003,2.955552,344,138,478,497,0.01465666,-0.01422082,0.003588481,-1.361279,3.107882,-0.3036984,0.002899442,0.01566157,0.00597003,-0.1949343,-2.148755,1.273048
73.00003,2.966663,344,138,478,497,0.01356466,-0.009953799,0.005693732,-1.361316,3.107993,-0.3038544,-0.002483334,0.02203377,0.0006842911,-0.1950467,-2.146332,1.270882
73.00003,2.977774,344,138,478,497,0.01246483,-0.004607414,0.009923446,-1.361524,3.108161,-0.3040099,-0.002483179,0.01456536,-0.003579752,-0.1953295,-2.147659,1.272173
73.00003,2.988885,359,134,474,492,0.01031005,-0.0003515333,0.01096095,-1.361683,3.108289,-0.3041016,-0.003551061,0.004967179,-0.008886761,-0.1954829,-2.149097,1.27366
73.00003,2.999996,359,134,474,492,0.01135779,0.001777307,0.008799599,-1.361702,3.107961,-0.3040222,-0.001411555,-0.003543939,-0.01209459,-0.1957956,-2.150236,1.274725
73.00003,3.011107,359,134,474,492,0.009258916,-0.002517462,0.004556419,-1.361549,3.107936,-0.3040632,-0.003470577,0.001793822,0.001760761,-0.1954579,-2.148943,1.273567
73.00003,3.022218,359,134,474,492,0.009261051,-0.001449116,0.003504768,-1.361768,3.108199,-0.3043008,-0.003496378,0.008180261,0.001752649,-0.195475,-2.147999,1.272738
73.00003,3.033329,359,134,474,492,0.01032429,-0.002491837,0.006708781,-1.36176,3.108366,-0.3044749,-0.01204577,0.006014559,-0.003516077,-0.1956481,-2.148084,1.273183
73.00003,3.04444,324,137,502,499,0.01245662,-0.002484653,0.005649366,-1.361791,3.108441,-0.3046901,-0.008922097,0.01239801,-0.01099786,-0.1959735,-2.147739,1.272908
73.00003,3.055551,324,137,502,499,0.01033011,-0.004602267,0.007793437,-1.361921,3.108674,-0.3047711,-0.00887376,0.0081439,-0.005665936,-0.1958792,-2.147597,1.272854
73.00003,3.066662,324,137,502,499,0.007129735,-0.005661068,0.01205288,-1.361904,3.108935,-0.3048292,-0.006669292,-0.00355875,0.0007199517,-0.1956949,-2.149213,1.274535
73.00003,3.077773,324,137,502,499,0.006000578,0.007115082,0.01092742,-1.362442,3.109015,-0.304867,-0.001370528,-0.009938061,-0.005700849,-0.1959213,-2.150724,1.276002
73.00003,3.088884,366,152,501,495,0.008106462,0.01244661,0.00983849,-1.362728,3.109018,-0.3050097,0.0007086676,-0.01100762,-0.01423538,-0.1962398,-2.15207,1.277269
73.00003,3.099995,366,152,501,495,0.005879503,0.02953239,0.01613542,-1.363801,3.10908,-0.3051098,-0.00257203,-0.007846835,-0.02593641,-0.1967677,-2.153511,1.278793
73.00003,3.111106,366,152,501,495,0.008002594,0.0295604,0.01933618,-1.3642,3.109258,-0.3052931,-0.007906131,0.002794165,-0.0216549,-0.1969935,-2.152267,1.277802
73.00003,3.122217,366,152,501,495,0.004802644,0.03165757,0.01611736,-1.364562,3.109177,-0.3052233,-0.008946659,0.004922959,-0.01738171,-0.1969365,-2.151928,1.277532
73.00003,3.133328,366,152,501,495,-0.0004857089,0.02417345,0.01614508,-1.36468,3.109327,-0.3051051,-0.01092361,0.01240967,0.01031942,-0.1961546,-2.148589,1.274458
73.00003,3.144439,286,135,495,497,0.002758867,0.01352674,0.01409804,-1.364688,3.109741,-0.3051631,-0.01405949,0.01028425,0.01993079,-0.1957232,-2.14765,1.273891
73.00003,3.15555,286,135,495,497,0.002813204,0.002874056,0.01415518,-1.36449,3.10997,-0.3052345,-0.01089427,0.007090442,0.01352273,-0.195729,-2.147751,1.27402
73.00003,3.166661,286,135,495,497,0.00391321,-0.00351066,0.01313012,-1.364448,3.110151,-0.3053357,-0.008806629,-0.00143717,0.002870044,-0.1959256,-2.149186,1.275501
73.00003,3.177772,286,135,495,497,0.002883545,-0.01095968,0.01422324,-1.364302,3.110251,-0.3053559,-0.004594994,-0.002502547,-0.005681118,-0.196202,-2.150049,1.276262
73.00003,3.188883,339,143,479,499,0.001829135,-0.01309567,0.01423221,-1.364163,3.110462,-0.3053825,-0.008893169,-0.009986356,-0.01523138,-0.1965184,-2.152017,1.278382
73.00003,3.199994,339,143,479,499,0.002831542,-0.002425185,0.01630399,-1.364473,3.110538,-0.3054193,-0.008866858,-0.01317034,-0.01202323,-0.1963948,-2.152472,1.278998
73.00003,3.211105,339,143,479,499,-0.0003969134,0.003950073,0.01626233,-1.364723,3.110658,-0.3053671,-0.006684781,-0.01421872,-0.004578647,-0.1961951,-2.1531,1.27963
73.00003,3.222216,339,143,479,499,0.002798077,0.007159417,0.0151891,-1.364945,3.110745,-0.3056798,-0.0152109,-0.004658878,-0.0002833535,-0.1962696,-2.152823,1.279738
73.00003,3.233327,339,143,479,499,-0.002507947,0.006032673,0.008790841,-1.364959,3.110668,-0.3054869,-0.01731542,0.01240001,0.01248993,-0.1960518,-2.149175,1.276403
73.00003,3.244438,390,135,507,500,-0.001421486,0.0007368503,0.01309045,-1.364962,3.111089,-0.3056499,-0.01523377,0.02305711,0.01033178,-0.1961514,-2.146288,1.273679
73.00003,3.255549,390,135,507,500,-0.004588166,-0.00354698,0.01097673,-1.364944,3.111195,-0.305577,-0.01100333,0.01772488,0.002850604,-0.1963314,-2.14742,1.274804
73.00003,3.26666,390,135,507,500,-0.000321609,-0.004590448,0.01099228,-1.364885,3.111341,-0.3056824,-0.004643928,-0.007845063,-0.01526687,-0.196733,-2.151924,1.279151
73.00003,3.277771,390,135,507,500,-0.002467649,-0.001413098,0.009896636,-1.364929,3.111292,-0.3055573,-0.002517756,-0.01849805,-0.02271703,-0.1969184,-2.154278,1.281324
73.00003,3.288882,367,129,502,500,-0.000369234,0.003935549,0.01200352,-1.365147,3.111434,-0.3056302,0.001675606,-0.0291581,-0.0387097,-0.1975522,-2.158637,1.285475
73.00003,3.299993,367,129,502,500,0.001686711,0.01886593,0.01193744,-1.365855,3.111473,-0.3057202,-0.0047465,-0.0238624,-0.04187033,-0.1979938,-2.159993,1.286943
73.00003,3.311104,367,129,502,500,0.002654634,0.03699234,0.01397328,-1.366732,3.111406,-0.3057644,-0.01003944,-0.01321291,-0.03119718,-0.198079,-2.159218,1.286443
73.00003,3.322215,367,129,502,500,0.002585243,0.04977101,0.01283245,-1.367528,3.111167,-0.3056366,-0.008866806,-0.01425808,-0.01629143,-0.1977967,-2.160199,1.287359
73.00003,3.333326,367,129,502,500,0.002574369,0.05190155,0.01282102,-1.368183,3.111111,-0.3056531,-0.007741742,-0.01318692,-0.007779833,-0.1976481,-2.161399,1.288467
73.00003,3.344437,333,147,491,496,0.002551418,0.05720361,0.009604757,-1.368854,3.111032,-0.3056153,-0.01308568,-0.007878016,-0.007752492,-0.1977323,-2.161248,1.288584
73.00003,3.355548,333,147,491,496,0.003634639,0.05401006,0.008565046,-1.369393,3.111034,-0.3056771,-0.02054226,-0.003637474,-0.00663976,-0.1977903,-2.160849,1.288494
73.00003,3.366659,333,147,491,496,0.000487227,0.04546016,0.006472839,-1.36966,3.110961,-0.3055732,-0.01409879,-0.0089358,-0.001347584,-0.1976209,-2.161795,1.289425
73.00003,3.37777,333,147,491,496,-0.007979978,0.03370187,0.00758861,-1.36975,3.11117,-0.3052872,-0.01092879,-0.01106077,-0.006685001,-0.1976811,-2.162665,1.290269
73.00003,3.388881,333,147,491,496,-0.02817591,0.0229685,0.01186021,-1.36978,3.111421,-0.3044957,-0.01093841,-0.01852487,-0.01200164,-0.1978175,-2.165026,1.29271
73.00003,3.399992,311,140,494,496,-0.04092709,0.01440483,0.01613836,-1.369872,3.111712,-0.3037378,-0.01200996,-0.02492878,-0.01731719,-0.1980742,-2.167662,1.295382
73.00003,3.411103,311,140,494,496,-0.01851714,0.007057277,0.01410963,-1.369971,3.111926,-0.3041362,-0.008779518,-0.02917517,-0.01413638,-0.1980316,-2.169923,1.297613
73.00003,3.422215,311,140,494,496,-0.000391541,0.005007926,0.01203219,-1.369991,3.112,-0.3046347,-0.005593337,-0.03023648,-0.01628651,-0.1981349,-2.172223,1.299844
73.00003,3.433326,311,140,494,496,0.003886879,0.00288606,0.009927893,-1.369994,3.112142,-0.3047754,-0.01733625,-0.001503347,-0.006664233,-0.1981892,-2.168617,1.296706
73.00003,3.444437,310,135,512,500,-0.001484992,0.01033281,0.01307149,-1.370366,3.112285,-0.3046315,-0.01517908,0.007037311,0.001833123,-0.1980524,-2.166785,1.295018
73.00003,3.455548,310,135,512,500,-0.00364057,0.01351993,0.01518712,-1.370559,3.112558,-0.3045383,-0.01732053,0.004894536,-0.0002777078,-0.1980529,-2.167218,1.295693
73.00003,3.466659,310,135,512,500,-0.01111382,0.01667763,0.01515282,-1.370872,3.112649,-0.304256,-0.01086004,0.0006657578,0.008208922,-0.197761,-2.167225,1.295653
73.00003,3.47777,310,135,512,500,-0.01429089,0.01347105,0.01516766,-1.371077,3.112833,-0.3040963,-0.01397951,-0.005710412,0.01782532,-0.1973354,-2.166757,1.29552
73.00003,3.488881,310,135,512,500,-0.01318852,0.008127363,0.01093755,-1.371015,3.11286,-0.3039849,-0.01506104,-0.01531142,0.01038775,-0.1972838,-2.168839,1.297752
73.00003,3.499992,360,148,484,497,-0.01211359,0.006003262,0.01095593,-1.371097,3.113043,-0.3039029,-0.01086226,-0.01211153,0.001829796,-0.1975794,-2.169255,1.298128
73.00003,3.511103,360,148,484,497,-0.01207557,-0.001453617,0.0109959,-1.370908,3.113226,-0.3038102,-0.01204108,-0.006808362,-0.01308413,-0.1981749,-2.16967,1.298723
73.00003,3.522214,360,148,484,497,-0.01102131,0.0007027844,0.01206574,-1.371292,3.113499,-0.3038065,-0.01097588,-0.005738751,-0.01202496,-0.1982074,-2.169846,1.299034
73.00003,3.533325,360,148,484,497,-0.01210348,0.001780446,0.01525097,-1.371423,3.113693,-0.3036334,-0.01304545,0.004932821,0.003951341,-0.1979022,-2.166986,1.29654
73.00003,3.544436,326,159,509,500,-0.0142612,0.007095897,0.01521752,-1.371678,3.113786,-0.3034448,-0.005515702,-0.004621696,0.01030747,-0.1975437,-2.168102,1.297513
73.00003,3.555547,326,159,509,500,-0.01535147,0.01135206,0.01413095,-1.372042,3.113858,-0.3031918,-0.01083891,-0.01530338,0.005022821,-0.1975922,-2.170886,1.300458
73.00003,3.566658,326,159,509,500,-0.01428571,0.01030363,0.01626966,-1.372211,3.11405,-0.303089,-0.01837513,-0.01001426,-0.004523572,-0.197851,-2.17124,1.3012
73.00003,3.577769,326,159,509,500,-0.01321907,0.01030485,0.01521022,-1.37237,3.114212,-0.3029931,-0.02164379,0.0006211381,-0.009844808,-0.1981637,-2.170135,1.300484
73.00003,3.58888,326,159,509,500,-0.0100114,0.006082894,0.01950151,-1.372421,3.114567,-0.3030257,-0.02163401,0.005953232,-0.005590641,-0.198177,-2.168985,1.299619
73.00003,3.599991,311,151,489,497,-0.00998754,0.002861084,0.01524984,-1.372302,3.114522,-0.3028664,-0.01948659,0.008085681,-0.002409845,-0.1980572,-2.168935,1.29966
73.00003,3.611102,311,151,489,497,-0.008927688,0.003931794,0.01524657,-1.372421,3.114655,-0.3028339,-0.0151979,0.00597341,0.0007613185,-0.1979581,-2.168893,1.299681
73.00003,3.622213,311,151,489,497,-0.004689962,0.007159607,0.01736878,-1.372651,3.114841,-0.3029037,-0.01517626,-0.005750243,-0.002424113,-0.1980231,-2.171136,1.301976
73.00003,3.633324,311,151,489,497,-0.002561633,0.009285101,0.0141642,-1.372827,3.114816,-0.3029378,-0.01833055,-0.01108029,0.0007977956,-0.1978894,-2.172101,1.303174
73.00003,3.644435,328,141,530,499,-0.002558671,0.00822553,0.01523519,-1.372942,3.114973,-0.3029228,-0.02050988,-0.002569236,-0.002395405,-0.1980492,-2.171309,1.302698
73.00003,3.655546,328,141,530,499,-0.004653049,0.001816853,0.0141975,-1.372831,3.115125,-0.3028707,-0.01947333,0.000618713,-0.005608327,-0.1982654,-2.17158,1.303105
73.00003,3.666657,328,141,530,499,-0.002506697,-0.0003141975,0.01208324,-1.372785,3.115185,-0.3029127,-0.01631925,0.007016802,-0.008833,-0.1984747,-2.170506,1.302152
73.00003,3.677768,328,141,530,499,-0.002501276,-0.001386866,0.01101831,-1.372733,3.11521,-0.3028494,-0.01845592,0.005945323,-0.01093867,-0.1985227,-2.17022,1.302077
73.00003,3.688879,328,141,530,499,0.002828087,-0.002419224,0.01210149,-1.37272,3.115385,-0.3030645,-0.009909051,-0.001483539,-0.01098377,-0.1986074,-2.171434,1.303149
73.00003,3.69999,309,122,494,498,0.001745569,0.001818636,0.008875801,-1.372849,3.1153,-0.3029719,-0.009865578,-0.008932448,-0.007774165,-0.1984667,-2.172513,1.304346
73.00003,3.711101,309,122,494,498,0.002808973,0.000775787,0.01207621,-1.372896,3.115481,-0.303056,-0.01312671,-0.005758376,-0.01627996,-0.1988827,-2.173041,1.305084
73.00003,3.722212,309,122,494,498,0.0006626216,0.002906841,0.01419047,-1.37303,3.115658,-0.3030411,-0.01517965,-0.003628461,-0.00349309,-0.1986963,-2.17333,1.305576
73.00003,3.733323,309,122,494,498,0.002799916,0.0007669339,0.01207856,-1.372891,3.115806,-0.3030283,-0.01626005,0.003812066,-0.002434052,-0.19874,-2.173295,1.305701
73.00003,3.744434,309,122,494,498,0.01026725,-0.0002716295,0.009970813,-1.372863,3.115878,-0.3033655,-0.01312056,0.0187353,-0.003539247,-0.1989493,-2.170457,1.302977
73.00003,3.755545,331,147,495,496,0.008109599,0.006118888,0.01099504,-1.373156,3.115914,-0.3035098,-0.01311248,0.0187332,-0.003540959,-0.199058,-2.16987,1.302437
73.00003,3.766656,331,147,495,496,0.004894993,0.009304059,0.01203586,-1.373362,3.116001,-0.3035093,-0.009874936,0.01235626,-0.0003573569,-0.1989642,-2.169832,1.302415
73.00003,3.777767,331,147,495,496,0.004898546,0.01035377,0.0099072,-1.373474,3.116145,-0.3036488,-0.007731193,-0.001494911,-0.00568821,-0.1991922,-2.172403,1.30494
73.00003,3.788878,331,147,495,496,0.004904459,0.008234632,0.01204918,-1.373564,3.116322,-0.3037378,-0.009781598,-0.01534368,-0.000330097,-0.1989328,-2.174882,1.307523
73.00003,3.799989,319,134,495,499,0.0006587859,0.006056618,0.008852944,-1.373441,3.116346,-0.3036057,-0.007666159,-0.01533035,-0.002476136,-0.1990132,-2.174874,1.307573
73.00003,3.8111,319,134,495,499,0.0006944977,0.0007122522,0.00568077,-1.373282,3.11631,-0.3036472,-0.00768158,0.00172275,0.003893323,-0.1989536,-2.17219,1.30501
73.00003,3.822211,319,134,495,499,0.001789872,-0.005668215,0.006782763,-1.37309,3.116495,-0.3037266,-0.007656187,0.009188524,0.01133739,-0.198756,-2.170229,1.303137
73.00003,3.833322,319,134,495,499,-0.0003625371,-0.002504277,0.005695112,-1.372961,3.116553,-0.303562,-0.00766325,0.01131911,0.01133461,-0.1986878,-2.169094,1.302117
73.00003,3.844433,319,134,495,499,-0.004612328,-0.005710451,0.007833011,-1.372849,3.11673,-0.3034443,-0.002337097,0.009209516,0.01023967,-0.1986244,-2.168507,1.301425
73.00003,3.855544,355,139,487,497,-0.0003441763,-0.003566348,0.005703781,-1.372943,3.11676,-0.3037623,0.0008223398,0.000682638,-0.000417224,-0.1987613,-2.16994,1.302706
73.00003,3.866655,355,139,487,497,-0.003542001,-0.004630849,0.008898003,-1.372912,3.116985,-0.3036739,-0.00451726,-0.003601777,-0.004638526,-0.1988854,-2.170963,1.303913
73.00003,3.877766,355,139,487,497,-0.003528943,-0.005718729,0.005703106,-1.372721,3.116948,-0.3036382,-0.007660919,-0.002543043,0.003899556,-0.1986489,-2.171005,1.304084
73.00003,3.888877,355,139,487,497,-0.004573011,-0.008931359,0.003587226,-1.372547,3.116993,-0.3035503,-0.003358787,-0.002520488,0.01026381,-0.1983853,-2.170806,1.303819
73.00003,3.899988,430,139,501,503,-0.003511127,-0.007863043,0.00252492,-1.37254,3.11709,-0.3035519,-0.002313194,0.003885069,0.01025373,-0.1983096,-2.168741,1.301755
73.00003,3.911099,430,139,501,503,-0.002440912,-0.007869,0.0003967992,-1.372432,3.117066,-0.3035434,-0.003389438,0.001742788,0.007068753,-0.1982963,-2.169199,1.302246
73.00003,3.92221,430,139,501,503,-0.002433365,-0.008951938,-0.001754896,-1.372106,3.116686,-0.3034065,-0.0002739001,0.007074066,-0.002551608,-0.1987501,-2.168258,1.301252
73.00003,3.933321,430,139,501,503,-0.002474079,-0.001484604,0.0003404267,-1.372332,3.116783,-0.3034251,0.001878736,0.004950511,-0.0004334231,-0.1987059,-2.16836,1.301247
73.00003,3.944432,430,139,501,503,-0.004628284,0.001717426,0.00351427,-1.37246,3.11687,-0.3033207,0.004085101,0.002838872,0.01020091,-0.1983538,-2.168352,1.301131
73.00003,3.955544,386,143,509,496,-0.004645281,0.004929753,0.006697052,-1.372639,3.117041,-0.3034054,0.000903764,-0.003567591,0.009161012,-0.1983086,-2.169574,1.302409
73.00003,3.966655,386,143,509,496,-0.006776347,0.005972747,0.004555921,-1.372731,3.116981,-0.3032515,-0.004430078,0.002809371,0.01131746,-0.1981983,-2.16818,1.301237
73.00003,3.977766,386,143,509,496,-0.007815569,0.004875318,0.0003013317,-1.372652,3.116913,-0.3032898,-0.01085492,0.007050908,0.009218654,-0.198283,-2.166851,1.300276
73.00003,3.988877,386,143,509,496,-0.005692378,0.004903274,0.003502022,-1.372737,3.117017,-0.303309,-0.006566255,0.004938641,0.01238986,-0.1980614,-2.166511,1.299899
73.00003,3.999988,311,136,498,497,-0.004593811,0.001694392,0.001390077,-1.372558,3.117007,-0.3034688,0.002996928,0.0007009031,0.005947187,-0.1980758,-2.167089,1.300089
73.20003,4.011099,311,136,498,497,-0.009902492,0.0005734586,-0.003942761,-1.372481,3.116807,-0.3031668,0.002978214,-0.00569725,-0.000426823,-0.1980726,-2.168334,1.301296
73.40002,4.02221,311,136,498,497,-0.007729888,-0.005796338,-0.002843319,-1.372308,3.116779,-0.303308,0.004025365,-0.002494413,-0.0004348475,-0.198054,-2.167733,1.300753
73.60002,4.033321,311,136,498,497,-0.00877618,-0.007938104,-0.004951126,-1.372266,3.116896,-0.3032531,0.004014781,0.0007014587,-0.0004390182,-0.1980998,-2.16732,1.300308
73.80002,4.044433,311,136,498,497,-0.005545869,-0.01326526,-0.008111097,-1.371935,3.116824,-0.3032557,-0.000247167,0.004963537,0.002786052,-0.1979528,-2.165575,1.298833
74.00002,4.055544,358,139,491,499,-0.00558467,-0.005795239,-0.006038133,-1.372014,3.116516,-0.303186,0.001924288,0.01244656,0.01449145,-0.1974297,-2.162701,1.296086
74.20001,4.066655,358,139,491,499,-0.005600938,-0.002599436,-0.0060553,-1.372022,3.116438,-0.3031002,0.003016302,0.0188517,0.02193318,-0.1970872,-2.160252,1.293618
74.40001,4.077766,358,139,491,499,-0.004544321,-0.0004658299,-0.007137652,-1.372054,3.116194,-0.3030326,0.001968144,0.01351044,0.02193433,-0.1970004,-2.161113,1.294465
74.60001,4.088878,358,139,491,499,-0.002446295,0.005936649,-0.007167152,-1.372254,3.116058,-0.3030352,-0.0002061706,0.006032236,0.01130503,-0.1971144,-2.161946,1.295338
74.8,4.099989,358,139,491,499,-0.00457876,0.006987991,-0.007166477,-1.372345,3.116127,-0.3029958,0.002942482,-0.0003655951,0.0006544623,-0.1971469,-2.163115,1.296354
75,4.1111,323,161,500,499,-0.006706872,0.006971414,-0.008236596,-1.372384,3.115993,-0.3028664,0.005097579,-0.0003571264,0.00384623,-0.1968854,-2.162896,1.295984
75.2,4.122211,323,161,500,499,-0.004556218,0.004835856,-0.01141486,-1.372357,3.115792,-0.3028808,0.00511121,-0.002493406,0.004907852,-0.1968459,-2.163817,1.296837
75.39999,4.133323,323,161,500,499,-0.002442917,0.003776912,-0.009274347,-1.372125,3.115788,-0.3026374,0.003997842,-0.01317186,-0.007854575,-0.1971187,-2.167173,1.30011
75.59999,4.144434,323,161,500,499,0.001812781,0.004863923,-0.009270334,-1.372176,3.115672,-0.3027359,0.002884425,-0.01105328,-0.01424215,-0.1974223,-2.167861,1.300793
75.79999,4.155545,384,157,493,494,0.001821519,0.00486523,-0.009261776,-1.372259,3.115686,-0.3028978,0.002895792,0.0006691385,-0.00574198,-0.1974031,-2.16662,1.299604
75.99998,4.166656,384,157,493,494,0.00287595,0.007001838,-0.009270299,-1.372354,3.115541,-0.3030049,0.01367526,-0.0003355094,0.01336583,-0.1967613,-2.165892,1.298457
76.19998,4.177768,384,157,493,494,0.001776632,0.01231924,-0.00929042,-1.372586,3.115538,-0.3028062,0.007325089,0.004984889,0.02298898,-0.1963224,-2.164099,1.296838
76.39998,4.188879,384,157,493,494,-0.0003647702,0.01443891,-0.009306716,-1.372747,3.115343,-0.3027013,-0.00641853,0.004956998,0.03905655,-0.1955469,-2.162906,1.29608
76.59998,4.19999,384,157,493,494,-0.00249102,0.01651924,-0.01464557,-1.372735,3.115056,-0.3025979,-0.01279696,0.003869094,0.04016368,-0.1951021,-2.162426,1.295879
76.79997,4.211102,375,157,498,498,-0.004627001,0.01757364,-0.01465615,-1.372902,3.114824,-0.302451,-0.021198,-0.01851829,0.0477071,-0.1941743,-2.165209,1.299047
76.99997,4.222213,375,157,498,498,-0.02155611,0.002474982,-0.03272203,-1.372297,3.114206,-0.3016126,-0.04022871,-0.02600921,0.0659366,-0.1930446,-2.165898,1.300644
77.19997,4.233324,375,157,498,498,-0.06083926,-0.01697706,-0.04548976,-1.371376,3.113679,-0.3000419,-0.04528355,0.002820566,0.123458,-0.190547,-2.156845,1.292426
77.39996,4.244435,375,157,498,498,-0.1086266,-0.04388744,-0.05184794,-1.370098,3.113304,-0.2976541,-0.04416562,0.0241553,0.1425982,-0.1887691,-2.149795,1.285967
77.59996,4.255547,391,152,488,498,-0.1159123,-0.07695243,-0.05275562,-1.368437,3.11319,-0.2963033,-0.0442413,0.03907347,0.1393783,-0.1878003,-2.143497,1.280363
77.79996,4.266658,391,152,488,498,-0.1115133,-0.1035681,-0.05366826,-1.366466,3.113136,-0.2951629,-0.04320788,0.01561802,0.1223576,-0.1868021,-2.144108,1.28144
77.99995,4.277769,391,152,488,498,-0.09956876,-0.1398149,-0.07049109,-1.363822,3.112655,-0.2944593,-0.02508348,-0.01417495,0.1094885,-0.1857523,-2.148758,1.285833
78.19995,4.28888,391,152,488,498,-0.1131893,-0.180417,-0.07989285,-1.360493,3.112471,-0.2928071,-0.01334123,-0.01732925,0.1115479,-0.1844282,-2.14827,1.285184
78.39995,4.299992,391,152,488,498,-0.1354516,-0.1986893,-0.08837655,-1.357593,3.112002,-0.2905056,-0.002615474,-0.02686411,0.1178913,-0.1827632,-2.147619,1.284334
78.59995,4.311103,406,134,496,499,-0.1493219,-0.1944988,-0.08843099,-1.355353,3.111632,-0.2883873,0.003829129,-0.008702613,0.1359424,-0.1809123,-2.141784,1.278439
78.79994,4.322214,406,134,496,499,-0.1493219,-0.1944988,-0.08843099,-1.355353,3.111632,-0.2883873,0.003829129,-0.008702613,0.1359424,-0.1809123,-2.141784,1.278439
78.99994,4.333325,406,134,496,499,-0.1826428,-0.1360706,-0.08881576,-1.353403,3.110141,-0.2832538,-0.002645522,0.008328155,0.1316982,-0.178509,-2.132689,1.269696
79.19994,4.344437,406,134,496,499,-0.1977516,-0.09885515,-0.08905686,-1.353283,3.109037,-0.2803169,-0.003581375,-0.0001724809,0.1487627,-0.1763002,-2.130526,1.267741
79.39993,4.355548,406,134,496,499,-0.2129286,-0.04673878,-0.09043613,-1.354212,3.107641,-0.2771381,-0.0002358854,-0.02251808,0.1604916,-0.1739364,-2.131925,1.269014
79.59993,4.366659,363,150,498,498,-0.2291594,0.005359612,-0.09183619,-1.355235,3.105948,-0.2739285,0.001038,-0.05338746,0.1775608,-0.1712721,-2.136409,1.273393
79.79993,4.37777,363,150,498,498,-0.2442917,0.04683605,-0.09104365,-1.356622,3.104235,-0.27033,-0.01053838,-0.06298202,0.195753,-0.1685451,-2.136518,1.274066
79.99992,4.388882,363,150,498,498,-0.2614135,0.06166936,-0.0900925,-1.357449,3.103045,-0.2666874,-0.005160138,-0.06828378,0.201052,-0.1659703,-2.137589,1.275012
80.19992,4.399993,363,150,498,498,-0.2772914,0.04346441,-0.09216671,-1.356972,3.101971,-0.2629882,-0.007305644,-0.08109645,0.191489,-0.1639495,-2.142956,1.280351
80.39992,4.411104,415,136,490,497,-0.288907,0.0242184,-0.09422138,-1.356375,3.100959,-0.2592167,-0.006278783,-0.07363876,0.1893419,-0.1618541,-2.142898,1.280353
80.59991,4.422215,415,136,490,497,-0.2972228,-0.01526261,-0.09722933,-1.354607,3.100157,-0.2554904,-0.009462491,-0.07257369,0.190432,-0.1595297,-2.142403,1.279974
80.79991,4.433327,415,136,490,497,-0.3076715,-0.05158166,-0.105582,-1.352563,3.099161,-0.2515079,-0.004080936,-0.0725518,0.1978676,-0.1567931,-2.143274,1.280641
80.99991,4.444438,415,136,490,497,-0.3107889,-0.06440631,-0.1108551,-1.351239,3.097903,-0.2477336,0.003438599,-0.06398129,0.2116556,-0.1540468,-2.140586,1.277706
81.19991,4.455549,415,136,490,497,-0.3182777,-0.05803455,-0.1087773,-1.350648,3.096814,-0.243822,0.0003473237,-0.06503456,0.227666,-0.1508233,-2.139229,1.276481
81.3999,4.46666,403,129,499,501,-0.3236849,-0.04313656,-0.1067388,-1.350366,3.095698,-0.2398134,-0.004960537,-0.05545453,0.2351372,-0.1481362,-2.136046,1.273543
81.5999,4.477772,403,129,499,501,-0.3281386,-0.01112686,-0.09307379,-1.351027,3.094851,-0.2359071,-0.01990576,-0.03952107,0.2384095,-0.1455418,-2.129747,1.268015
81.7999,4.488883,403,129,499,501,-0.3336276,0.02080406,-0.09325722,-1.351982,3.093499,-0.2317344,-0.03055809,-0.04914297,0.2342359,-0.1429106,-2.129564,1.268577
81.99989,4.499994,403,129,499,501,-0.3358954,0.04529858,-0.09232467,-1.352911,3.092246,-0.2275218,-0.03679524,-0.06939283,0.2470828,-0.1395262,-2.133082,1.27255
82.19989,4.511106,403,129,499,501,-0.343453,0.06654806,-0.09565168,-1.353937,3.090766,-0.2231905,-0.04315782,-0.0864643,0.2428852,-0.1366287,-2.138159,1.278249
82.39989,4.522217,560,294,486,487,-0.3423405,0.05805067,-0.09347154,-1.354197,3.089686,-0.21933,-0.03353323,-0.08748422,0.2481652,-0.1334318,-2.137788,1.27798
82.59988,4.533328,560,294,486,487,-0.338035,0.04850006,-0.09022202,-1.354198,3.088613,-0.2155115,-0.02933322,-0.08535169,0.2396163,-0.1308091,-2.138632,1.278973
82.79988,4.544439,560,294,486,487,-0.3380374,0.0485058,-0.08915673,-1.354508,3.087538,-0.2115296,-0.02829213,-0.09815356,0.2310966,-0.1282397,-2.145768,1.286479
82.99988,4.555551,560,294,486,487,-0.3390881,0.04532564,-0.08488052,-1.354725,3.086604,-0.2075934,-0.02189142,-0.09814242,0.2331773,-0.1253827,-2.149599,1.290404
83.19987,4.566662,462,241,462,496,-0.3380647,0.0506916,-0.07851495,-1.355292,3.08578,-0.2037228,-0.02191507,-0.1013453,0.2278551,-0.1227557,-2.153816,1.294835
83.39987,4.577773,462,241,462,496,-0.3392884,0.07736227,-0.06696442,-1.356563,3.084807,-0.1997562,-0.02515498,-0.1056445,0.2182927,-0.1203024,-2.160949,1.302228
83.59987,4.588884,462,241,462,496,-0.3383764,0.1050932,-0.06178401,-1.35845,3.083875,-0.1958467,-0.03906259,-0.09610821,0.2141083,-0.1179088,-2.162452,1.30454
83.79987,4.599996,462,241,462,496,-0.3341942,0.1179552,-0.05119187,-1.360015,3.083248,-0.192285,-0.03482457,-0.07371608,0.2204357,-0.1154049,-2.157953,1.30021
83.99986,4.611107,462,241,462,496,-0.3277863,0.1116326,-0.04475297,-1.360983,3.082716,-0.1886983,-0.02841064,-0.05556823,0.2331544,-0.1125207,-2.151157,1.293594
84.19986,4.622218,487,191,481,500,-0.325571,0.09568723,-0.04146687,-1.361593,3.082223,-0.1851829,-0.03146172,-0.07047965,0.245965,-0.1093313,-2.155664,1.298331
84.39986,4.633329,487,191,481,500,-0.3223014,0.08184196,-0.04352578,-1.361935,3.081442,-0.1815019,-0.03357166,-0.07048248,0.2491745,-0.1063587,-2.155545,1.298658
84.59985,4.644441,487,191,481,500,-0.3157917,0.06686404,-0.06154097,-1.361957,3.080183,-0.1779535,-0.03461768,-0.07370351,0.2491748,-0.1035549,-2.159504,1.302899
84.79985,4.655552,487,191,481,500,-0.3039951,0.04357913,-0.0443419,-1.361854,3.080298,-0.1748653,-0.04108331,-0.07588172,0.2364225,-0.1012587,-2.163828,1.307811
84.99985,4.666663,580,179,497,497,-0.3039261,0.02762856,-0.03892995,-1.361652,3.08007,-0.171466,-0.02397984,-0.08540756,0.240586,-0.0982536,-2.16872,1.312409
85.19984,4.677774,580,179,497,497,-0.3060286,0.02015574,-0.0378595,-1.361371,3.079278,-0.1677035,-0.009175263,-0.07687175,0.225568,-0.09599631,-2.170553,1.313586
85.39984,4.688886,580,179,497,497,-0.2985978,0.02341242,-0.0335983,-1.361684,3.078975,-0.1645599,-0.02089111,-0.0897048,0.2192537,-0.09371824,-2.17978,1.323379
85.59984,4.699997,580,179,497,497,-0.291212,0.03414411,-0.02938101,-1.362615,3.078498,-0.1613428,-0.03580245,-0.08124186,0.222529,-0.09108224,-2.182257,1.326632
85.79984,4.711108,580,179,497,497,-0.2912308,0.03734564,-0.02833282,-1.363079,3.078124,-0.1580511,-0.02518505,-0.06734524,0.2235024,-0.08870244,-2.176958,1.321252
85.99983,4.722219,512,184,501,491,-0.2859398,0.04166028,-0.01984615,-1.363318,3.077817,-0.1550375,-0.0220133,-0.06308343,0.2213282,-0.08644781,-2.178421,1.322757
86.19983,4.733331,512,184,501,491,-0.2816969,0.04276258,-0.01559613,-1.363656,3.077495,-0.1519222,-0.0210702,-0.06417963,0.2010756,-0.08479931,-2.183968,1.328426
86.39983,4.744442,512,184,501,491,-0.2774654,0.04811639,-0.0145495,-1.364324,3.077254,-0.148941,-0.01574769,-0.07481405,0.195723,-0.08265706,-2.19036,1.334874
86.59982,4.755553,512,184,501,491,-0.2721981,0.06518262,-0.01782615,-1.36561,3.076714,-0.1462278,-0.0200115,-0.09402537,0.1840664,-0.0804477,-2.205801,1.350503
86.79982,4.766665,441,194,498,495,-0.2712147,0.08222101,-0.02004556,-1.366958,3.076206,-0.1431428,-0.01885088,-0.1089184,0.1925929,-0.07788255,-2.218823,1.363806
86.99982,4.777776,441,194,498,495,-0.2680935,0.09715225,-0.02011821,-1.368417,3.075771,-0.1401813,-0.01775341,-0.102528,0.1989722,-0.07523057,-2.22594,1.370895
87.19981,4.788887,441,194,498,495,-0.2692473,0.112089,-0.01487427,-1.370122,3.075519,-0.1371134,-0.02309074,-0.1089357,0.1947463,-0.07311442,-2.237645,1.383035
87.39981,4.799998,441,194,498,495,-0.2703457,0.1184964,-0.0106555,-1.371523,3.075277,-0.1341482,-0.02519784,-0.1153368,0.1947713,-0.07068828,-2.252762,1.398419
87.59981,4.81111,441,194,498,495,-0.2714081,0.1174314,-0.009586986,-1.372776,3.07503,-0.131052,-0.02517234,-0.1334535,0.1894675,-0.06843685,-2.277395,1.423278
87.7998,4.822221,397,172,508,502,-0.2755816,0.1035258,-0.01484627,-1.373322,3.074652,-0.1278573,-0.02093045,-0.1355731,0.18518,-0.06633402,-2.295646,1.441571
87.9998,4.833332,397,172,508,502,-0.2765343,0.08855507,-0.0232765,-1.373791,3.074308,-0.124971,-0.01458951,-0.1163789,0.1861866,-0.06406447,-2.303249,1.449058
88.1998,4.844443,397,172,508,502,-0.2807361,0.07786928,-0.02535985,-1.374344,3.073889,-0.1216686,-0.01250336,-0.09825133,0.1893412,-0.06189452,-2.306961,1.452932
88.3998,4.855555,397,172,508,502,-0.2807253,0.07572821,-0.02852986,-1.375238,3.073566,-0.1183738,-0.01571307,-0.08867773,0.1914753,-0.0596889,-2.316716,1.462886
88.59979,4.866666,388,173,490,495,-0.2838607,0.06820385,-0.03808483,-1.375681,3.072804,-0.1149964,-0.02311689,-0.07908762,0.2064163,-0.05711681,-2.321336,1.468088
88.79979,4.877777,388,173,490,495,-0.299731,0.04681275,-0.04225042,-1.375703,3.071521,-0.1110826,-0.02738522,-0.07378031,0.2075108,-0.05457456,-2.331491,1.478608
88.99979,4.888888,388,173,490,495,-0.304949,0.02969509,-0.04544574,-1.375189,3.070904,-0.1074708,-0.01345488,-0.0630587,0.2255176,-0.05153856,-2.333589,1.480458
89.19978,4.9,388,173,490,495,-0.3091129,0.01155238,-0.04748915,-1.37478,3.070366,-0.1038324,0.00150536,-0.05872577,0.2371411,-0.04848977,-2.33745,1.484058
89.39978,4.911111,388,173,490,495,-0.3101087,0.004093519,-0.04640534,-1.374536,3.069666,-0.1007298,0.00457751,-0.06300464,0.2158186,-0.04660106,-2.351195,1.497696
89.59978,4.922222,360,179,513,501,-0.3079273,-0.004434846,-0.04955043,-1.374174,3.069045,-0.09724799,0.005608335,-0.06299841,0.211548,-0.04440235,-2.361228,1.507743
89.79977,4.933333,360,179,513,501,-0.3025953,-0.006539161,-0.04846818,-1.373948,3.068453,-0.09386311,0.003344536,-0.06090324,0.191323,-0.04270752,-2.37362,1.520115
89.99977,4.944445,360,179,513,501,-0.2930186,-0.004359679,-0.04845712,-1.373922,3.067887,-0.09069768,0.009728484,-0.0598122,0.1902086,-0.04070589,-2.385348,1.531563
90.19977,4.955556,360,179,513,501,-0.2812842,-0.00749281,-0.04839015,-1.373981,3.067672,-0.0877405,0.02048351,-0.05015731,0.2103767,-0.03763313,-2.388197,1.533868
90.19977,4.966667,405,218,467,500,-0.2845125,-0.002158164,-0.04629619,-1.374066,3.067173,-0.08450796,0.02374219,-0.06292615,0.2135679,-0.03517663,-2.414989,1.560274
90.19977,4.977778,405,218,467,500,-0.2930262,-0.002216674,-0.05164316,-1.374158,3.066387,-0.08071349,0.01430119,-0.08637698,0.2232527,-0.03242878,-2.464334,1.609644
90.19977,4.98889,405,218,467,500,-0.2961744,-0.008658769,-0.05800804,-1.373814,3.065569,-0.07721622,0.005874828,-0.06932862,0.2467283,-0.02903218,-2.476823,1.622327
90.19977,5.000001,405,218,467,500,-0.3014489,-0.01614152,-0.05904484,-1.373415,3.064924,-0.07377861,0.01223041,-0.05971286,0.2477267,-0.02647608,-2.493569,1.638868
90.19977,5.011112,405,218,467,500,-0.2918141,-0.01924139,-0.05910683,-1.373299,3.062762,-0.07083902,0.01638395,-0.06399652,0.228513,-0.02480255,-2.539222,1.684169
90.19977,5.022223,405,218,467,500,-0.2918141,-0.01924139,-0.05910683,-1.373299,3.062762,-0.07083902,0.01638395,-0.06399652,0.228513,-0.02480255,-2.539222,1.684169
90.19977,5.033335,517,213,525,511,-0.2684424,-0.008436091,-0.05698638,-1.373553,3.061346,-0.06498858,0.02148244,-0.05549324,0.1986481,-0.02118864,-2.605414,1.749811
90.19977,5.044446,517,213,525,511,-0.2599734,0.001205536,-0.0548868,-1.373778,3.060763,-0.06221464,0.01283975,-0.05234727,0.1816547,-0.01978622,-2.645432,1.789918
90.19977,5.055557,517,213,525,511,-0.2611273,0.01612121,-0.05602673,-1.37448,3.060129,-0.05889368,0.02137309,-0.04166029,0.1890352,-0.01767327,-2.683576,1.827627
90.19977,5.066669,574,239,496,497,-0.2665225,0.02678119,-0.04970453,-1.375039,3.059715,-0.05569948,0.01712576,-0.04167157,0.1911933,-0.01570519,-2.747169,1.891137
90.19977,5.07778,574,239,496,497,-0.2698336,0.04596302,-0.04769188,-1.376166,3.059039,-0.05230075,0.008653484,-0.05661047,0.1923362,-0.01406735,-2.867752,2.011939
90.19977,5.088891,574,239,496,497,-0.2730545,0.05338288,-0.05413471,-1.377072,3.058125,-0.04896381,-0.001830138,-0.07367935,0.2084062,-0.01239116,-3.066342,2.210689
90.19977,5.100002,574,239,496,497,-0.2730618,0.05441928,-0.06159021,-1.377833,3.057267,-0.04550011,-0.0114218,-0.07157458,0.2095222,-0.01115598,3.05015,2.377791
90.19977,5.111114,574,239,496,497,-0.2729886,0.04265789,-0.07221641,-1.378026,3.055634,-0.04197834,-0.01240613,-0.06410818,0.2265633,-0.009856892,2.790394,2.637721
90.19977,5.122225,505,216,497,498,-0.2739587,0.01921288,-0.07095627,-1.377818,3.054913,-0.03873994,-0.0006324649,-0.05871035,0.2382036,-0.009290171,2.478609,2.949224
90.19977,5.133336,505,216,497,498,-0.2695663,-0.005229641,-0.06771047,-1.376968,3.053993,-0.03566079,0.005583115,-0.05661272,0.2104457,-0.009698167,2.328679,3.09877
90.19977,5.144447,505,216,497,498,-0.2587983,-0.03071398,-0.06222131,-1.375942,3.053472,-0.03295076,0.006434135,-0.03959549,0.1859164,-0.009783921,2.180489,-3.036321
90.19977,5.155559,505,216,497,498,-0.2523739,-0.03704033,-0.05899249,-1.37563,3.052652,-0.03029292,0.002033941,-0.03323763,0.1678232,-0.01018393,2.047172,-2.902878
90.19977,5.16667,505,216,497,498,-0.2480645,-0.04871398,-0.05465805,-1.37473,3.052189,-0.02758396,0.008278184,-0.03857532,0.1422219,-0.01098394,1.986742,-2.842742
90.19977,5.177781,531,239,507,497,-0.239547,-0.05179707,-0.04503991,-1.374342,3.051835,-0.02512266,0.01889277,-0.03214598,0.1400166,-0.01164228,1.857862,-2.714312
90.19977,5.188892,531,239,507,497,-0.231115,-0.03996305,-0.0322981,-1.374277,3.05182,-0.02278068,0.03069804,-0.04274717,0.1484774,-0.0131656,1.748388,-2.605457
90.19977,5.200004,531,239,507,497,-0.2120549,-0.01851221,-0.02385147,-1.374653,3.051636,-0.02102672,0.0222794,-0.06087991,0.1549314,-0.01507775,1.691035,-2.548174
90.19977,5.211115,531,239,507,497,-0.2036691,0.007099787,-0.02291913,-1.375329,3.051157,-0.01883441,0.01379185,-0.0609084,0.159252,-0.0167875,1.620713,-2.477852
90.19977,5.222226,635,218,426,495,-0.195323,0.04231916,-0.01883093,-1.376714,3.05098,-0.01701068,0.008538857,-0.06516706,0.1678147,-0.01866077,1.556474,-2.413586
90.19977,5.233337,635,218,426,495,-0.1933647,0.07323613,-0.01582212,-1.37818,3.050477,-0.01466922,0.01384997,-0.03850368,0.1784096,-0.0201058,1.456838,-2.314333
90.19977,5.244449,635,218,426,495,-0.1839261,0.09889653,-0.007414278,-1.379944,3.050595,-0.01289183,0.02021784,-0.04381725,0.1719832,-0.02183419,1.423036,-2.280927
90.19977,5.25556,635,218,426,495,-0.1807725,0.107431,-0.006376173,-1.381164,3.050686,-0.01100258,0.01376313,-0.05237896,0.1592403,-0.02335166,1.41686,-2.27461
90.19977,5.266671,635,218,426,495,-0.1616415,0.1118443,0.003237195,-1.382614,3.050985,-0.009753561,-0.002247553,-0.07163329,0.1433939,-0.02523611,1.427919,-2.285348
90.19977,5.277782,640,243,465,491,-0.1477793,0.1066162,0.008625947,-1.383673,3.051203,-0.008492288,-0.007689543,-0.04608703,0.1401936,-0.02621403,1.387683,-2.244768
90.19977,5.288894,640,243,465,491,-0.1349572,0.09713542,0.01510795,-1.38456,3.05164,-0.007522897,-0.004679114,-0.03544665,0.1167174,-0.02669393,1.373023,-2.230192
90.19977,5.300005,640,243,465,491,-0.1124955,0.07492261,0.02167536,-1.384952,3.052049,-0.00686989,-0.008006491,-0.02055918,0.1039363,-0.02721804,1.349562,-2.206558
90.19977,5.311116,640,243,465,491,-0.1006965,0.0643142,0.01962611,-1.385378,3.052128,-0.006317018,-0.00810818,-0.0163156,0.09008944,-0.0278801,1.334822,-2.19176
90.19977,5.322227,550,254,486,493,-0.07712001,0.04094383,0.0102218,-1.385229,3.052031,-0.006050702,-0.01777083,-0.02594614,0.07524225,-0.02844735,1.341042,-2.197413
90.19977,5.333339,550,254,486,493,-0.0642726,0.02932923,0.01349502,-1.38562,3.052,-0.005802495,-0.03069961,-0.01748672,0.0561445,-0.02868544,1.333083,-2.188913
90.19977,5.34445,550,254,486,493,-0.04926867,0.01129398,0.01362898,-1.385267,3.052142,-0.005676262,-0.03186209,-0.002585564,0.04867592,-0.02880155,1.316453,-2.171904
90.19977,5.355561,550,254,486,493,-0.03318523,-0.01204727,0.01912345,-1.384409,3.052555,-0.005747102,-0.0202021,0.01556046,0.04858379,-0.02901567,1.287774,-2.14337
90.19977,5.366673,550,254,486,493,-0.02782712,-0.01735854,0.01703456,-1.384082,3.052685,-0.005610748,-0.006432325,0.01558761,0.03571489,-0.02908172,1.280502,-2.136436
90.19977,5.377784,637,231,474,494,-0.01822631,-0.02154135,0.02028066,-1.383998,3.053048,-0.005704491,-0.007536711,-0.0004147664,0.02188566,-0.02915735,1.298967,-2.154717
90.19977,5.388895,637,231,474,494,-0.01501278,-0.02364798,0.01816284,-1.38398,3.053062,-0.005616607,-0.005388462,-0.01639862,0.01550785,-0.02964365,1.315749,-2.171562
90.19977,5.400006,637,231,474,494,-0.009652175,-0.03107277,0.0192812,-1.383445,3.053281,-0.005698632,-0.004326991,-0.02172166,0.01124281,-0.02980237,1.323007,-2.1789
90.19977,5.411118,637,231,474,494,-0.005387571,-0.03209106,0.02250016,-1.38322,3.053713,-0.005916479,-0.01298423,-0.008984681,-0.003635962,-0.02930596,1.324769,-2.180337
90.19977,5.422229,637,231,474,494,-0.002157602,-0.03847258,0.02147703,-1.382627,3.053931,-0.006016081,-0.01412975,0.004853862,-0.008972612,-0.02886121,1.317801,-2.173184
90.19977,5.43334,535,210,511,500,-0.001108568,-0.03527925,0.01931529,-1.38239,3.053827,-0.00592074,-0.006591951,0.02301192,0.01013148,-0.02901567,1.284164,-2.139975
90.19977,5.444451,535,210,511,500,0.002145685,-0.04485268,0.0183124,-1.381667,3.054041,-0.006179066,-0.00231377,0.03049258,0.01755194,-0.02918771,1.261648,-2.117561
90.19977,5.455563,535,210,511,500,0.003298141,-0.05655251,0.01835038,-1.380878,3.05385,-0.006649381,-0.0001869891,0.02836663,0.01434579,-0.02903005,1.253548,-2.109554
90.19977,5.466674,535,210,511,500,0.01500573,-0.05541804,0.02050389,-1.380298,3.054171,-0.007218232,0.004071107,0.02305025,0.01112903,-0.02900342,1.250126,-2.1063
90.19977,5.477785,521,188,491,493,0.02130128,-0.0393663,0.02789361,-1.380306,3.054741,-0.007759386,0.004025476,0.01132289,-0.00270982,-0.02866413,1.261726,-2.118007
90.19977,5.488896,521,188,491,493,0.01590335,-0.02874009,0.02784857,-1.38037,3.055431,-0.007613445,-0.001331189,0.01876128,-0.003742541,-0.0284596,1.248397,-2.104561
90.19977,5.500008,521,188,491,493,0.005126251,-0.005343053,0.02981833,-1.381019,3.055668,-0.007319432,-0.01297386,0.01128154,0.00592132,-0.0286684,1.244541,-2.100088
90.19977,5.511119,521,188,491,493,-0.003491418,0.01589043,0.02434696,-1.381713,3.055659,-0.006993994,-0.0170889,0.01129742,0.02832926,-0.02956109,1.222335,-2.077595
90.19977,5.52223,521,188,491,493,-0.005608814,0.01690523,0.01687908,-1.381943,3.055658,-0.006889065,-0.02976477,0.01128693,0.04543942,-0.03003513,1.20328,-2.057877
90.19977,5.533341,491,189,508,491,-0.0097873,0.01047834,0.009433763,-1.382162,3.055392,-0.007142066,-0.02764782,0.02195761,0.05073054,-0.03025085,1.178593,-2.032776
90.19977,5.544453,491,189,508,491,-0.005431965,-0.004460236,0.001002235,-1.381731,3.055192,-0.007155914,-0.02242599,0.0347462,0.04109213,-0.03014059,1.153968,-2.008036
90.19977,5.555564,491,189,508,491,-0.003216892,-0.02041243,0.00213294,-1.381231,3.054895,-0.00727043,-0.02036985,0.04006889,0.03255173,-0.03003513,1.134419,-1.988318
90.19977,5.566675,491,189,508,491,4.431233E-05,-0.03213186,-0.0009919441,-1.380542,3.05479,-0.0073434,-0.01083303,0.02196822,0.01546852,-0.02984658,1.14607,-2.000117
90.19977,5.577786,557,241,498,496,0.002225231,-0.03854231,-0.004156485,-1.379816,3.054548,-0.00754154,-0.008761162,0.007037299,-0.000508076,-0.02965164,1.164272,-2.018163
90.19977,5.588898,557,241,498,496,0.0171572,-0.04168697,-0.00945804,-1.379379,3.053854,-0.007834488,-0.008762861,-0.006826572,-0.009004677,-0.02969638,1.180858,-2.034759
90.19977,5.600009,557,241,498,496,0.03633964,-0.04160237,-0.01048429,-1.378863,3.053622,-0.008773518,-0.0002169667,-0.001462249,-0.001608601,-0.02982634,1.173325,-2.027346
90.19977,5.61112,557,241,498,496,0.03628422,-0.03306173,-0.008422827,-1.378821,3.053226,-0.008947688,0.01474402,0.03163376,0.02063414,-0.0302631,1.121281,-1.976097
90.19977,5.622231,557,241,498,496,0.01492123,-0.02355565,-0.004265756,-1.378812,3.053296,-0.008568987,-0.002476381,0.04432791,0.001538752,-0.02931235,1.10875,-1.962909
90.19977,5.633343,531,208,475,497,0.01279254,-0.02255722,-0.0117112,-1.378334,3.053313,-0.008470982,-0.01315059,0.03255719,-0.007959154,-0.02908971,1.115222,-1.968971
90.19977,5.644454,531,208,475,497,0.02672478,-0.03321113,-0.02440304,-1.377703,3.052696,-0.009013735,-0.002418457,0.03154199,0.003691126,-0.02928785,1.101356,-1.955372
90.19977,5.655565,531,208,475,497,0.04384876,-0.04702401,-0.0338547,-1.376858,3.052372,-0.009767942,0.002984837,0.03902968,0.01962844,-0.02971981,1.074825,-1.929004
90.19977,5.666677,531,208,475,497,0.06844394,-0.06186407,-0.04223633,-1.375743,3.051646,-0.01109792,0.01590242,0.04442819,0.04297483,-0.03054486,1.043263,-1.897957
90.19977,5.677788,444,203,496,501,0.08228261,-0.06286034,-0.04324958,-1.375206,3.051372,-0.01200233,0.02857304,0.07109016,0.0385913,-0.03030784,0.9966635,-1.852078
90.19977,5.688899,444,203,496,501,0.07907209,-0.05968203,-0.04115335,-1.374422,3.050857,-0.0127363,0.0282678,0.07102607,-0.009340052,-0.02883245,0.9849523,-1.840714
90.19977,5.70001,444,203,496,501,0.08968586,-0.05322113,-0.03796603,-1.373987,3.050529,-0.01395177,0.03340572,0.05928009,-0.0455892,-0.02724414,0.9875798,-1.843929
90.19977,5.711122,444,203,496,501,0.1003285,-0.05210604,-0.03581592,-1.373203,3.050157,-0.01525246,0.03442517,0.04114925,-0.06261227,-0.02632055,0.9994953,-1.856338
90.19977,5.722233,444,203,496,501,0.09711044,-0.05103099,-0.03261605,-1.372761,3.050141,-0.01613822,0.04393239,0.02518869,-0.08288787,-0.0250465,1.013477,-1.871031
90.19977,5.733344,524,188,497,497,0.09385255,-0.04038343,-0.02735503,-1.372303,3.049958,-0.01707086,0.05456475,0.0262811,-0.08400607,-0.02433171,1.010562,-1.868828
90.19977,5.744455,524,188,497,497,0.08203316,-0.02124856,-0.02429147,-1.37257,3.049763,-0.01763758,0.06320164,0.008210048,-0.0755163,-0.02387151,1.031477,-1.890674
90.19977,5.755567,524,188,497,497,0.07662853,-0.00317375,-0.02543441,-1.37284,3.049721,-0.01840191,0.05373931,-0.005664766,-0.06266335,-0.02325419,1.057236,-1.916744
90.19977,5.766678,524,188,497,497,0.07556587,-0.003215253,-0.02865253,-1.372609,3.049206,-0.01910285,0.04427643,-0.01098924,-0.04661354,-0.0234763,1.066868,-1.926619
90.19977,5.777789,524,188,497,497,0.0755868,-0.005368777,-0.03290213,-1.372494,3.048724,-0.01983895,0.0337028,-0.003560476,-0.03270651,-0.02340226,1.066699,-1.926736
90.19977,5.7889,551,200,501,493,0.0757035,-0.02775728,-0.03596635,-1.371567,3.048454,-0.02065761,0.03484011,0.006051023,-0.01674634,-0.02353435,1.049561,-1.910015
90.19977,5.800012,551,200,501,493,0.07045237,-0.04164899,-0.03910037,-1.370719,3.047946,-0.02122646,0.04230678,0.03058301,-0.004038624,-0.02360519,1.011828,-1.873143
90.19977,5.811123,551,200,501,493,0.05339718,-0.04277248,-0.03488583,-1.370237,3.047552,-0.02152367,0.03695077,0.03269187,-0.007203714,-0.02327496,0.9999352,-1.861458
90.19977,5.822234,551,200,501,493,0.03309393,-0.03112922,-0.0307206,-1.37026,3.04751,-0.02115562,0.03478256,0.02521569,-0.01676805,-0.02282968,1.003138,-1.864985
90.19977,5.833345,575,224,500,496,0.02983509,-0.02046995,-0.02652594,-1.3703,3.047306,-0.02138412,0.032632,0.0188068,-0.02207011,-0.02252502,1.009005,-1.871078
90.19977,5.844457,575,224,500,496,0.02974164,-0.002348894,-0.02449324,-1.370754,3.047064,-0.02166961,0.02627366,-0.0121069,-0.03266207,-0.02191355,1.052098,-1.914332
90.19977,5.855568,575,224,500,496,0.02970737,0.008261099,-0.02988294,-1.370854,3.046482,-0.02202328,0.01464717,-0.02065694,-0.02404957,-0.02205151,1.070191,-1.932418
90.19977,5.866679,575,224,500,496,0.02648056,0.01569092,-0.03206161,-1.371217,3.046058,-0.02215484,0.01786683,-0.01317996,-0.01662269,-0.02205151,1.068322,-1.930835
90.19977,5.87779,575,224,500,496,0.02757659,0.01459385,-0.03523525,-1.370999,3.045798,-0.02269919,0.01787275,0.01452809,-0.002807534,-0.02207601,1.028688,-1.891557
90.19977,5.888902,506,200,466,492,0.02331273,0.01880893,-0.03631679,-1.371037,3.045634,-0.02303581,0.01581144,0.04224282,0.02061576,-0.02268853,0.9698532,-1.832942
90.19977,5.900013,506,200,466,492,0.02327387,0.02627155,-0.0352918,-1.371513,3.045253,-0.02322276,0.01690652,0.04545119,0.02805806,-0.02297829,0.9430482,-1.80625
90.19977,5.911124,506,200,466,492,0.02213084,0.04118172,-0.03324241,-1.372155,3.044951,-0.02339214,0.02111551,0.02733588,0.01101177,-0.02270664,0.9541552,-1.817688
90.19977,5.922235,506,200,466,492,0.0199228,0.05398589,-0.03010356,-1.373282,3.044931,-0.02346245,0.01779837,0.01984759,-0.01026712,-0.02194338,0.9605625,-1.824103
90.19977,5.933347,447,193,510,503,0.02304553,0.06468882,-0.02482127,-1.374316,3.044847,-0.02366698,0.0178762,0.004939901,-0.003845207,-0.02235457,0.970049,-1.833578
90.19977,5.944458,447,193,510,503,0.01870143,0.08171232,-0.02492391,-1.375681,3.044538,-0.0237,0.02547488,-0.004601695,0.01316283,-0.0229964,0.9763324,-1.840333
90.19977,5.955569,447,193,510,503,0.01118554,0.09018953,-0.02394817,-1.376642,3.043886,-0.0232691,0.02332752,-0.002485566,0.01210686,-0.02303261,0.9766941,-1.840861
90.19977,5.966681,447,193,510,503,0.002708048,0.07738201,-0.01965678,-1.37706,3.04352,-0.02290478,0.02222061,0.003898639,0.008909979,-0.02299107,0.9667205,-1.831127
90.19977,5.977792,447,193,510,503,-0.005677059,0.04434143,-0.0162963,-1.376881,3.043526,-0.02244725,0.01689411,-0.01105069,0.001488731,-0.02275937,0.9995427,-1.863972
