ref,t,emg1,emg2,emg1raw,emg2raw,aDotS,bDotS,gDotS,aS,bS,gS,aDotSH,bDotSH,gDotSH,aSH,bSH,gSH
0,0,161,386,501,492,0.01395647,-0.1833416,0.2903426,-1.35868,-2.977058,-1.637728,-0.0007050224,0.1304879,-0.164799,-0.7437804,-2.438753,1.185102
0,0.01111111,161,386,501,492,0.02137135,-0.170573,0.2753946,-1.361438,-2.975661,-1.638421,0.01656667,0.1230961,-0.1297413,-0.74472,-2.437424,1.183485
0,0.02222222,161,386,501,492,0.02989472,-0.1663159,0.2647442,-1.364361,-2.973848,-1.639343,0.02633952,0.118887,-0.1020928,-0.7456383,-2.435813,1.181703
0,0.03333334,161,386,501,492,0.03524545,-0.1684359,0.2594379,-1.367249,-2.972073,-1.640231,0.02649519,0.1146331,-0.07653348,-0.7464691,-2.434503,1.180557
0,0.04444445,163,401,504,493,0.04062901,-0.1716914,0.2466518,-1.369598,-2.969859,-1.641406,0.02765778,0.1103847,-0.06162301,-0.747218,-2.433094,1.179235
0,0.05555556,163,401,504,493,0.05132086,-0.1727523,0.2317643,-1.37194,-2.968038,-1.642607,0.02128733,0.1103663,-0.05945724,-0.7483482,-2.431801,1.178119
0,0.06666667,163,401,504,493,0.0641413,-0.1727458,0.2168766,-1.374153,-2.96613,-1.644069,0.0161111,0.1114279,-0.03279395,-0.748524,-2.429876,1.17673
0,0.07777778,163,401,504,493,0.06630489,-0.1759555,0.2105,-1.376465,-2.964208,-1.645225,0.01826714,0.1156961,-0.02641884,-0.749201,-2.428092,1.175158
0,0.08888889,163,401,504,493,0.07485627,-0.1727916,0.1945192,-1.378265,-2.962302,-1.646854,0.01494665,0.1188864,-0.04557139,-0.7507547,-2.42651,1.17396
0,0.1,157,455,502,498,0.07693976,-0.1600532,0.1827362,-1.379849,-2.960906,-1.648059,0.00845951,0.1060837,-0.06896704,-0.7524421,-2.426023,1.173609
0,0.1111111,157,455,502,498,0.0779666,-0.1483809,0.1688457,-1.38141,-2.959674,-1.649188,0.004018255,0.09540351,-0.1040763,-0.7544512,-2.426013,1.173725
0,0.1222222,157,455,502,498,0.08421624,-0.1164585,0.1506182,-1.382499,-2.95926,-1.650486,-0.00130878,0.08152899,-0.1125687,-0.7560166,-2.42626,1.173933
0,0.1333333,157,455,502,498,0.09041183,-0.07917613,0.1398396,-1.383744,-2.959477,-1.65163,0.005227586,0.0698366,-0.09342638,-0.7566743,-2.426001,1.173518
0,0.1444445,160,297,502,502,0.09550645,-0.03551626,0.1301112,-1.385083,-2.960136,-1.652724,0.01501897,0.05921798,-0.06365915,-0.7567793,-2.425496,1.172686
0,0.1555556,160,297,502,502,0.09753969,-0.01740991,0.1257871,-1.386338,-2.960559,-1.65379,0.01192096,0.06134569,-0.04659727,-0.7571719,-2.424578,1.171921
0,0.1666667,160,297,502,502,0.09858196,-0.008927207,0.114043,-1.387343,-2.960639,-1.65491,0.016307,0.05391355,-0.02851822,-0.7573599,-2.423915,1.171174
0,0.1777778,160,297,502,502,0.1029056,-0.01321874,0.09915834,-1.388171,-2.960405,-1.656269,0.01520065,0.04538415,-0.04022585,-0.7581588,-2.424019,1.171044
0,0.1888889,160,297,502,502,0.1019443,-0.02500253,0.08322056,-1.388721,-2.959844,-1.657473,0.01088655,0.04217239,-0.05084514,-0.7590771,-2.423926,1.171
0,0.2,163,503,502,494,0.09669004,-0.03042676,0.06511639,-1.388974,-2.959389,-1.658506,0.004273007,0.04958994,-0.08383667,-0.7610372,-2.424078,1.17137
0,0.2111111,163,503,502,494,0.09131168,-0.01243222,0.04479859,-1.38894,-2.959694,-1.659481,0.009593764,0.05386636,-0.08280428,-0.7621695,-2.423607,1.170768
0,0.2222222,163,503,502,494,0.08158516,0.01941356,0.02653659,-1.388546,-2.960939,-1.660062,0.01505236,0.05389544,-0.06259584,-0.7625147,-2.422831,1.169688
0,0.2333333,163,503,502,494,0.07715782,0.05025353,0.01895527,-1.388405,-2.962403,-1.660526,0.026938,0.05180883,-0.03496617,-0.7623671,-2.42191,1.168362
0,0.2444444,163,503,502,494,0.06843919,0.08745003,0.01028041,-1.388204,-2.964314,-1.660786,0.03233653,0.04437453,-0.02540436,-0.7625493,-2.421437,1.167609
0,0.2555556,158,467,502,508,0.0576639,0.1118531,0.0005717734,-1.387699,-2.966173,-1.660834,0.03773428,0.02415077,-0.0222285,-0.7625973,-2.42186,1.167405
0,0.2666667,158,467,502,508,0.05661425,0.1128845,-0.003692452,-1.387479,-2.967225,-1.661468,0.03993727,0.006052699,-0.0179702,-0.7625264,-2.422359,1.167299
0,0.2777778,158,467,502,508,0.0502999,0.1032297,-0.01219534,-1.387013,-2.968081,-1.661748,0.03785109,-0.01312801,-0.02114378,-0.7625701,-2.423384,1.167523
0,0.2888889,158,467,502,508,0.04409172,0.07861927,-0.03022619,-1.386229,-2.968126,-1.662055,0.03036692,-0.0174096,-0.02748625,-0.7628774,-2.423944,1.167827
0,0.3,151,378,502,511,0.04309895,0.07005665,-0.03978631,-1.38545,-2.968646,-1.662447,0.03145205,-0.001426771,-0.01684692,-0.7629498,-2.423393,1.16702
0,0.3111111,151,378,502,511,0.03784711,0.05934303,-0.04721173,-1.384724,-2.968925,-1.662615,0.02936506,0.01668396,-0.0008624792,-0.7628306,-2.422301,1.165962
0,0.3222222,151,378,502,511,0.03357638,0.06143989,-0.04829377,-1.384114,-2.969586,-1.662749,0.0273103,0.02307658,0.01512707,-0.7624742,-2.421474,1.165096
0,0.3333333,151,378,502,511,0.02817091,0.07209378,-0.03982987,-1.383684,-2.970683,-1.66276,0.02744832,0.02947922,0.04175653,-0.7615677,-2.420119,1.163781
0,0.3444445,151,378,502,511,0.01636408,0.08482348,-0.03456651,-1.38343,-2.971906,-1.66239,0.02429384,0.02202036,0.04604041,-0.7610313,-2.419687,1.16336
0,0.3555556,149,482,501,500,-0.01349126,0.0920772,-0.04211318,-1.382639,-2.973066,-1.661266,0.009289006,-0.00679587,0.01631061,-0.7612997,-2.42122,1.164754
0,0.3666667,149,482,501,500,-0.02521017,0.09411433,-0.04853098,-1.381915,-2.974089,-1.66046,0.01243632,-0.01851418,0.002447018,-0.7614073,-2.422126,1.165156
0,0.3777778,149,482,501,500,-0.0252131,0.09624023,-0.05068009,-1.381054,-2.975204,-1.660072,0.02099894,-0.03979746,0.0002768571,-0.7610041,-2.423521,1.165749
0,0.3888889,149,482,501,500,-0.01244002,0.09739012,-0.04639095,-1.38064,-2.976205,-1.660197,0.02107999,-0.03659762,0.01519961,-0.7601823,-2.423524,1.165452
0,0.4,138,531,501,495,-0.007091755,0.0921105,-0.04209742,-1.380249,-2.977069,-1.6601,0.008243607,-0.0302387,0.009950884,-0.7601082,-2.423636,1.165832
0,0.4111111,138,531,501,495,-0.005988322,0.08361004,-0.03460386,-1.380051,-2.977579,-1.66,-0.00674295,-0.01962949,0.002577036,-0.7602659,-2.423676,1.166323
0,0.4222222,138,531,501,495,-0.01655084,0.06757484,-0.03244626,-1.379574,-2.977849,-1.659455,-0.008867655,-0.01217516,0.005790168,-0.760047,-2.423446,1.166155
0,0.4333333,138,531,501,495,-0.0270737,0.04514512,-0.03131984,-1.379299,-2.977729,-1.658906,-0.001346905,-0.003626535,0.02065726,-0.7595447,-2.422809,1.165517
0,0.4444444,138,531,501,495,-0.03007391,0.01103256,-0.03226864,-1.378963,-2.976924,-1.658534,-0.0001686774,-0.01214359,0.03557749,-0.7584726,-2.422883,1.165475
0,0.4555556,137,526,500,471,-0.01600726,-0.02511794,-0.03637146,-1.378511,-2.975774,-1.65887,-0.005496982,-0.007895797,0.03667353,-0.7580385,-2.422608,1.165435
0,0.4666667,137,526,500,471,-0.004169289,-0.04528856,-0.03627287,-1.378205,-2.974683,-1.65935,-0.01095141,-0.007930843,0.01433781,-0.7583404,-2.423174,1.166087
0,0.4777778,137,526,500,471,-0.006237166,-0.05593845,-0.03517108,-1.377933,-2.974007,-1.659336,-0.004766291,0.001660688,-0.01766545,-0.7595059,-2.423574,1.166175
0,0.4888889,137,526,500,471,-0.007306369,-0.05910189,-0.02450881,-1.377993,-2.973248,-1.659376,-0.004779687,0.01338019,-0.01447412,-0.7597567,-2.423025,1.165834
0,0.5,137,526,500,471,-0.009499827,-0.05164982,-0.01815258,-1.377948,-2.972678,-1.659241,-0.008882469,0.02828568,0.01643794,-0.7589802,-2.421621,1.164735
0,0.5111111,124,459,501,498,-0.01062756,-0.04416829,-0.009659722,-1.378095,-2.972409,-1.659142,-0.01092394,0.03681076,0.03455821,-0.7584395,-2.420289,1.163831
0,0.5222223,124,459,501,498,-0.01275344,-0.04523131,-0.005396378,-1.3782,-2.971842,-1.659168,-0.01519599,0.02933693,0.0303202,-0.7583644,-2.420169,1.164107
0,0.5333334,124,459,501,498,-0.01268858,-0.05694157,-0.003223171,-1.378298,-2.970876,-1.659209,-0.01526355,0.01761188,0.01328024,-0.7585945,-2.420515,1.16453
0,0.5444446,124,459,501,498,-0.01797092,-0.06547143,0.002129556,-1.378615,-2.969995,-1.659109,-0.004667271,0.0005936956,-0.004894767,-0.7590968,-2.421403,1.164887
0,0.5555557,119,416,500,486,-0.0222584,-0.06439368,0.009575631,-1.378932,-2.969511,-1.658793,-0.003607788,0.002727176,-0.004901793,-0.7591905,-2.421333,1.164846
0,0.5666668,119,416,500,486,-0.01914521,-0.05157993,0.01273191,-1.379184,-2.969239,-1.65873,-0.009928221,0.01124021,0.01004201,-0.7588869,-2.420443,1.164377
0,0.577778,119,416,500,486,-0.01813418,-0.04728302,0.02230965,-1.379745,-2.968767,-1.658526,-0.01099038,0.02082991,0.01537441,-0.7587687,-2.419576,1.163915
0,0.5888891,119,416,500,486,-0.01927802,-0.03555598,0.02652611,-1.380161,-2.96872,-1.658299,-0.01532856,0.02400965,0.003680028,-0.7591426,-2.419233,1.163962
0,0.6000003,119,416,500,486,-0.02142969,-0.03130269,0.02436939,-1.380271,-2.968642,-1.658008,-0.01325176,0.009099826,-0.0133653,-0.7595325,-2.419825,1.164395
0,0.6111114,109,315,500,504,-0.02359232,-0.02704268,0.02754526,-1.380689,-2.968507,-1.657705,-0.006877232,0.00165762,-0.01979155,-0.759819,-2.420292,1.164641
0,0.6222225,109,315,500,504,-0.02361142,-0.02276734,0.03071656,-1.380995,-2.968435,-1.657654,-0.006891986,-0.00154227,-0.02404995,-0.7600545,-2.420624,1.164942
0,0.6333337,109,315,500,504,-0.02254438,-0.02381859,0.03285326,-1.381449,-2.968177,-1.657494,-0.01008928,0.00164828,-0.02190304,-0.7602867,-2.420543,1.165154
0,0.6444448,109,315,500,504,-0.02147721,-0.02380856,0.0328559,-1.381812,-2.967988,-1.657344,-0.01001084,0.00484983,-0.006990296,-0.7600641,-2.420192,1.16503
0,0.655556,98,367,499,497,-0.01930021,-0.03125668,0.03182213,-1.382174,-2.967439,-1.657288,-0.01315471,0.009114826,0.003672901,-0.760006,-2.419629,1.164836
0,0.6666671,98,367,499,497,-0.01709898,-0.04189225,0.03186154,-1.382525,-2.966776,-1.657395,-0.017423,0.01869219,0.006890166,-0.7600278,-2.418889,1.164597
0,0.6777782,98,367,499,497,-0.01383151,-0.05147797,0.02764298,-1.382796,-2.965961,-1.657569,-0.02598503,0.02292447,0.00268168,-0.7601849,-2.418532,1.164905
0,0.6888894,98,367,499,497,-0.01163668,-0.06107333,0.02128585,-1.382876,-2.965081,-1.657572,-0.02600943,0.02505385,-0.0005149236,-0.7604001,-2.418171,1.164924
0,0.7000005,98,367,499,497,-0.01052627,-0.06746021,0.01918131,-1.38312,-2.964287,-1.657654,-0.02922714,0.03037028,-0.001558059,-0.7605285,-2.417513,1.164864
0,0.7111117,89,337,499,499,-0.01156402,-0.06856323,0.01065912,-1.383091,-2.963531,-1.657679,-0.03139788,0.03142741,-0.007937678,-0.7609184,-2.417137,1.164986
0,0.7222228,89,337,499,499,-0.01054784,-0.05898009,0.007434229,-1.383136,-2.96309,-1.657688,-0.02073498,0.02293114,-0.01119338,-0.7611149,-2.417297,1.164936
0,0.7333339,89,337,499,499,-0.0128005,-0.03874873,0.008421954,-1.38324,-2.963185,-1.657459,-0.0175384,0.02613618,-0.008015379,-0.7612315,-2.416773,1.164818
0,0.7444451,89,337,499,499,-0.007604562,-0.01953812,0.009424522,-1.383285,-2.963456,-1.657246,-0.0207221,0.02399803,-0.006921793,-0.761238,-2.41644,1.164887
0,0.7555562,84,351,499,498,-0.008780538,-0.0003675179,0.009349341,-1.383274,-2.963929,-1.657033,-0.02174525,0.01440952,-0.00371597,-0.7611544,-2.416589,1.165291
0,0.7666674,84,351,499,498,-0.009860434,0.003887934,0.008267904,-1.38335,-2.964175,-1.656967,-0.02492947,0.01333395,-0.001565364,-0.7611378,-2.416456,1.165614
0,0.7777785,84,351,499,498,-0.009877009,0.007079931,0.007186294,-1.383338,-2.964302,-1.656834,-0.02705314,0.01333154,0.0005706777,-0.7612785,-2.41622,1.16587
0,0.7888896,84,351,499,498,-0.01197829,0.001744752,0.0082662,-1.383454,-2.964196,-1.656652,-0.02494412,0.01440135,-0.002637986,-0.7614675,-2.416048,1.165966
0,0.8000008,84,351,499,498,-0.01083865,-0.008904089,0.005105208,-1.383359,-2.963921,-1.656686,-0.02815837,0.0154553,-0.003676603,-0.761483,-2.415803,1.166324
0,0.8111119,80,384,498,486,-0.0171035,-0.02919357,0.001968238,-1.383356,-2.96304,-1.656469,-0.02600771,0.02185521,0.002700293,-0.7614809,-2.415136,1.166021
0,0.8222231,80,384,498,486,-0.01920978,-0.03347428,-0.0001453662,-1.383435,-2.962618,-1.656209,-0.02063803,0.01867998,0.007996515,-0.7613434,-2.414781,1.165805
0,0.8333342,80,384,498,486,-0.01812602,-0.03771769,0.003067905,-1.383613,-2.962089,-1.65613,-0.01419474,0.01337308,0.01435278,-0.7610718,-2.414548,1.165613
0,0.8444453,80,384,498,486,-0.01706933,-0.03770736,0.00306716,-1.383638,-2.961758,-1.655924,-0.01529353,0.008035259,0.003705903,-0.7612742,-2.414843,1.165826
0,0.8555565,80,384,498,486,-0.01816981,-0.03027191,-0.001222779,-1.383496,-2.961593,-1.655734,-0.01317072,0.00164762,-0.0005653689,-0.761328,-2.415093,1.166091
0,0.8666676,78,425,498,492,-0.01179768,-0.02491826,-0.006559936,-1.383187,-2.961545,-1.655799,-0.01213818,0.0048435,-0.004838156,-0.761598,-2.415083,1.166194
0,0.8777788,78,425,498,492,-0.01397268,-0.01745548,-0.004456831,-1.383239,-2.961691,-1.655617,-0.01640587,0.01336027,-0.0005525316,-0.7616044,-2.414406,1.166143
0,0.8888899,78,425,498,492,-0.01402136,-0.009991024,-0.00235279,-1.383247,-2.961789,-1.655439,-0.01741131,0.01655779,0.01117058,-0.7612811,-2.413797,1.165912
0,0.900001,78,425,498,492,-0.01296977,-0.007862689,-0.002349644,-1.383347,-2.961614,-1.655332,-0.0152697,0.01336241,0.01329893,-0.7609663,-2.413684,1.166074
0,0.9111122,75,360,499,493,-0.01511744,-0.005737248,-0.0002310819,-1.383404,-2.961628,-1.6551,-0.01102688,0.001652373,0.004756089,-0.7609929,-2.414124,1.166399
0,0.9222233,75,360,499,493,-0.01080064,-0.01211439,-0.002329466,-1.383346,-2.961263,-1.655342,-0.008902158,-0.006865807,0.0004897329,-0.7609205,-2.414541,1.166803
0,0.9333345,75,360,499,493,-0.01615225,-0.007884882,-0.002355716,-1.383333,-2.961292,-1.655004,-0.006804719,-0.0153861,-0.009107099,-0.7610915,-2.415283,1.167364
0,0.9444456,75,360,499,493,-0.01190006,-0.007839483,-0.0002251384,-1.383266,-2.961389,-1.654909,-0.004664707,-0.01645336,-0.008067096,-0.7611735,-2.415796,1.167733
0,0.9555568,75,360,499,493,-0.01085822,-0.004629828,0.00189634,-1.383349,-2.961439,-1.654805,-0.001449723,-0.01431257,-0.00382543,-0.7610574,-2.415876,1.16771
0,0.9666679,75,356,499,494,-0.008810751,0.006044628,0.006135276,-1.383668,-2.961762,-1.65456,0.001755597,-0.01110379,-0.0006514308,-0.7610116,-2.415781,1.167551
0,0.977779,75,356,499,494,-0.004611176,0.0146028,0.009310491,-1.383843,-2.96216,-1.654471,-0.005687715,-0.009000095,0.001502774,-0.7611277,-2.416087,1.167949
0,0.9888902,75,356,499,494,-0.003596809,0.02207727,0.01248224,-1.384039,-2.962646,-1.654346,-0.01101745,-0.01008006,0.0004689805,-0.7610995,-2.416297,1.168354
0,1.000001,75,356,499,494,-0.005711867,0.02099587,0.01142331,-1.384195,-2.962829,-1.654284,-0.00892471,-0.01007422,-0.007001976,-0.7613668,-2.416584,1.168509
0,1.011112,76,396,499,499,-0.004614628,0.01672985,0.008244712,-1.384187,-2.96289,-1.654266,-0.003614973,-0.001537198,-0.005970923,-0.7615064,-2.416342,1.168258
0,1.022224,76,396,499,499,-0.001390655,0.01249401,0.008272625,-1.384365,-2.963025,-1.654355,-0.003598377,-0.002600834,-0.002778609,-0.7614793,-2.416425,1.168425
0,1.033335,76,396,499,499,-0.001357281,0.006109872,0.01042574,-1.384534,-2.962937,-1.654344,0.0006570088,-0.0004588268,-0.002804277,-0.7615395,-2.416353,1.168253
0,1.044446,76,396,499,499,-0.004563724,0.007165601,0.01148118,-1.384688,-2.963154,-1.654129,0.004915243,-0.002579176,-0.006024855,-0.7616609,-2.416559,1.168092
0,1.055557,76,396,499,499,-0.004500666,-0.003487115,0.01151882,-1.384835,-2.962818,-1.654152,-0.0003916966,-0.01218146,-0.007055537,-0.761606,-2.417159,1.168684
0,1.066668,73,396,499,498,-0.004419444,-0.01415108,0.009423838,-1.384894,-2.962319,-1.654413,-0.00468258,-0.02284898,-0.01767883,-0.7618015,-2.418151,1.169531
0,1.077779,73,396,499,498,-0.006488289,-0.02270465,0.004123069,-1.384828,-2.961808,-1.654367,-0.004714742,-0.02711293,-0.02513427,-0.7620992,-2.418995,1.170203
0,1.08889,73,396,499,498,-0.002194497,-0.02693965,0.004145154,-1.384861,-2.961439,-1.654658,-0.003679063,-0.02072708,-0.02620584,-0.7623581,-2.419379,1.170555
0,1.100002,73,396,499,498,0.004144237,-0.01625187,0.001995988,-1.384913,-2.961624,-1.65492,-0.001501434,-0.01006295,-0.01557452,-0.7623554,-2.419087,1.170101
0,1.111113,72,386,498,497,0.00833139,-0.004501105,0.004094129,-1.384985,-2.961879,-1.655082,-0.004601353,0.0005895756,0.00574582,-0.7618515,-2.418295,1.169654
0,1.122224,72,386,498,497,0.008270416,0.006151259,0.006182867,-1.385004,-2.962102,-1.655235,-0.005640233,0.006990096,0.01320507,-0.7617407,-2.417663,1.169325
0,1.133335,72,386,498,497,0.007171297,0.01147501,0.00722723,-1.385073,-2.96241,-1.65524,-0.005678074,0.004856672,0.005748892,-0.761867,-2.417724,1.169437
0,1.144446,72,386,498,497,0.006077,0.0157272,0.008280394,-1.385235,-2.962589,-1.655204,-0.005699283,-0.001534848,-0.00276924,-0.7620561,-2.41803,1.169541
0,1.155557,72,386,498,497,0.002917238,0.01037441,0.006161882,-1.385261,-2.962563,-1.655158,-0.001444401,-0.001523903,-0.003859401,-0.7621179,-2.418094,1.169486
0,1.166668,73,323,498,503,-0.0002330937,0.003969774,0.008313316,-1.385489,-2.962432,-1.655266,-0.0003510425,-0.005784096,-0.0006684344,-0.7619506,-2.418367,1.169678
0,1.17778,73,323,498,503,0.003017961,-0.005592955,0.007280006,-1.385439,-2.962281,-1.655368,-0.004619833,-0.007926003,-0.002774796,-0.7619389,-2.418598,1.170032
0,1.188891,73,323,498,503,0.003073017,-0.01412257,0.005179283,-1.385452,-2.961896,-1.655466,-0.001458551,-0.005785363,-0.008119507,-0.7621871,-2.418708,1.170017
0,1.200002,73,323,498,503,0.0009265464,-0.009900428,-0.0001667875,-1.385312,-2.961799,-1.655397,-0.0003309739,-0.006833679,0.002525672,-0.7619336,-2.418506,1.169865
0,1.211113,73,323,498,503,-0.00123787,-0.004583023,0.0008754388,-1.385352,-2.961893,-1.655317,0.002880673,-0.005758683,0.005702466,-0.761785,-2.418482,1.169722
0,1.222224,73,321,498,485,-0.002392455,0.009271145,0.00507909,-1.385402,-2.962343,-1.655219,0.001868067,-0.008945715,0.01102362,-0.7616907,-2.418492,1.169547
0,1.233335,73,321,498,485,-0.004620191,0.02524126,0.006084081,-1.385426,-2.963042,-1.654988,-0.003483738,-0.01109244,0.005729084,-0.7616822,-2.418783,1.169918
0,1.244446,73,321,498,485,-0.007837575,0.02949324,0.007131704,-1.385527,-2.963549,-1.654812,-0.002424125,-0.01216336,0.003591675,-0.761613,-2.419156,1.170141
0,1.255558,73,321,498,485,-0.009970009,0.03053842,0.004992994,-1.385477,-2.963922,-1.6546,-0.00243995,-0.01322984,0.0003962172,-0.7616103,-2.419454,1.170396
0,1.266669,75,340,499,488,-0.01207617,0.02624292,-0.0003278612,-1.38522,-2.964007,-1.654219,-0.005641965,-0.01217564,0.0004204144,-0.7614659,-2.419597,1.170715
0,1.27778,75,340,499,488,-0.01201396,0.01664707,-0.003483134,-1.385227,-2.963973,-1.654079,-0.002416761,-0.0142972,0.004661153,-0.7612678,-2.419815,1.170839
0,1.288891,75,340,499,488,-0.01519336,0.01130264,-0.00241664,-1.385115,-2.963888,-1.653645,0.003966582,-0.01108631,0.004624205,-0.7611687,-2.419861,1.170654
0,1.300002,75,340,499,488,-0.01511587,-0.0004016622,-0.0002544273,-1.385051,-2.96372,-1.653686,0.00503043,-0.01640879,0.001427633,-0.7610739,-2.420258,1.170822
0,1.311113,75,340,499,488,-0.01510767,-0.00252478,0.001883599,-1.385139,-2.963641,-1.65354,0.003983254,-0.01854142,0.003565163,-0.7608986,-2.42057,1.171024
0,1.322224,77,263,498,502,-0.01721869,-0.004678481,-0.0002548879,-1.384927,-2.963517,-1.653369,-0.003483505,-0.008981978,0.006798303,-0.7607895,-2.420452,1.171234
0,1.333336,77,263,498,502,-0.01400729,-0.004685446,-0.007705295,-1.384639,-2.963435,-1.653293,-0.00567626,0.002728619,0.001480178,-0.7610558,-2.420036,1.171078
0,1.344447,77,263,498,502,-0.01512085,0.002771451,-0.006671483,-1.384511,-2.963679,-1.653018,-0.002512673,0.008066655,-0.001741889,-0.7613706,-2.419774,1.170795
0,1.355558,77,263,498,502,-0.01518116,0.01236846,-0.003509423,-1.384535,-2.964028,-1.652821,0.004982121,-0.001500426,0.0003485612,-0.7612273,-2.420143,1.170801
0,1.366669,81,358,498,494,-0.01097074,0.0188196,0.005004433,-1.384848,-2.964504,-1.6528,-0.001329778,-0.01109232,0.008915761,-0.7607224,-2.420289,1.17102
0,1.37778,81,358,498,494,-0.009894488,0.01775135,0.00714259,-1.384987,-2.964414,-1.652842,-0.0002122577,-0.02067474,0.01317572,-0.7602792,-2.420706,1.171277
0,1.388891,81,358,498,494,-0.008812465,0.01456556,0.00822123,-1.385094,-2.964524,-1.652744,0.000829217,-0.02813172,0.005715188,-0.7601913,-2.421464,1.171798
0,1.400002,81,358,498,494,-0.01087795,0.002829326,0.007185308,-1.385044,-2.964216,-1.652503,-0.002390257,-0.02815074,0.003606906,-0.7599937,-2.422007,1.172467
0,1.411114,81,358,498,494,-0.01509409,-0.002544572,0.0008033491,-1.384905,-2.964045,-1.652242,-0.001314735,-0.01323064,0.01211758,-0.7597466,-2.42152,1.172082
0,1.422225,80,347,498,482,-0.01509188,-0.003595979,0.002939016,-1.385019,-2.964126,-1.652073,-0.004523461,-0.004712615,0.01319481,-0.7597082,-2.421158,1.171896
0,1.433336,80,347,498,482,-0.01404148,-0.0014554,0.003999076,-1.385091,-2.964187,-1.651934,-0.008758413,0.01125989,0.02493204,-0.7593881,-2.420106,1.171333
0,1.444447,80,347,498,482,-0.01191828,-0.000382852,0.005064807,-1.385192,-2.964095,-1.651905,-0.009801589,0.01124932,0.02706539,-0.7591053,-2.419981,1.171216
0,1.455558,80,347,498,482,-0.01614963,-0.004676681,0.002940278,-1.38517,-2.963895,-1.65164,-0.01194294,0.00591566,0.0228186,-0.7589481,-2.41997,1.171431
0,1.466669,80,374,497,494,-0.01400126,-0.007858199,0.002957348,-1.385226,-2.96373,-1.651546,-0.007730188,0.001659635,0.01427126,-0.7590067,-2.420271,1.171761
0,1.47778,80,374,497,494,-0.01504959,-0.01107496,0.001892691,-1.385123,-2.96335,-1.651349,-0.004572792,-0.003668009,0.005731237,-0.759059,-2.420711,1.172094
0,1.488891,80,374,497,494,-0.01607466,-0.01747663,0.000847456,-1.385131,-2.962972,-1.651223,-0.007758997,-0.002610358,0.007880069,-0.7588965,-2.420629,1.172197
0,1.500003,80,374,497,494,-0.01815915,-0.02601307,0.001941089,-1.385273,-2.962412,-1.651047,-0.008809243,-0.0004865527,0.01109054,-0.7585652,-2.420451,1.17219
0,1.511114,80,374,497,494,-0.01383629,-0.03452835,-0.003346921,-1.385142,-2.961785,-1.651119,-0.01841586,0.01121212,0.01326798,-0.7586467,-2.419741,1.172136
0,1.522225,80,327,499,503,-0.01487731,-0.03880369,-0.00439816,-1.385122,-2.961193,-1.65099,-0.01737968,0.01546216,0.01220183,-0.7584699,-2.419527,1.172321
0,1.533336,80,327,499,503,-0.01486466,-0.04093423,-0.004390743,-1.38511,-2.960682,-1.650937,-0.0163256,0.01972728,0.01219773,-0.7584118,-2.418995,1.172088
0,1.544447,80,327,499,503,-0.01378974,-0.04306427,-0.004382335,-1.3851,-2.960081,-1.650877,-0.01525505,0.01865702,0.01432364,-0.7582073,-2.418812,1.172232
0,1.555558,80,327,499,503,-0.01275646,-0.03878575,-0.001199101,-1.385211,-2.959786,-1.650807,-0.01302964,0.009080123,0.02497422,-0.757575,-2.418643,1.172091
0,1.566669,80,327,499,503,-0.01278448,-0.0334486,0.0009071205,-1.38522,-2.959631,-1.650819,-0.01623509,0.0080056,0.0228627,-0.7574168,-2.418438,1.172206
0,1.577781,78,297,498,499,-0.01385455,-0.03132281,0.0009033999,-1.385326,-2.959341,-1.650795,-0.01627875,0.01013532,0.01540993,-0.7574643,-2.418126,1.172089
0,1.588892,78,297,498,499,-0.01710921,-0.02069647,-0.001270788,-1.38525,-2.959337,-1.650527,-0.00991379,0.003757639,0.007917919,-0.7575032,-2.418374,1.172222
0,1.600003,78,297,498,499,-0.01608417,-0.01429761,-0.0002161536,-1.385407,-2.959303,-1.650394,-0.006697125,0.001642019,0.01003781,-0.7572512,-2.418134,1.171988
0,1.611114,78,297,498,499,-0.008697148,-0.003589509,0.002958124,-1.385483,-2.959542,-1.650423,-0.01309439,0.003755778,0.01007438,-0.7571841,-2.417942,1.172184
0,1.622225,79,321,497,500,-0.008717379,0.0006774166,0.002939445,-1.385448,-2.959712,-1.650373,-0.01839504,0.003747549,0.01542967,-0.7569519,-2.417651,1.172402
0,1.633336,79,321,497,500,-0.003363147,-0.002501466,-0.001299635,-1.385341,-2.9596,-1.650487,-0.01522973,0.006950364,0.01114826,-0.7570201,-2.417444,1.172281
0,1.644447,79,321,497,500,-0.007629321,-0.002530212,-0.002379838,-1.385203,-2.959551,-1.65018,-0.01203798,0.003762087,0.009000121,-0.756954,-2.417531,1.172411
0,1.655559,79,321,497,500,-0.006515461,-0.00997228,-0.002356008,-1.385133,-2.959364,-1.650253,-0.01095147,0.002688676,0.01005888,-0.7567559,-2.417667,1.172437
0,1.66667,79,321,497,500,-0.008599481,-0.01744554,-0.00339985,-1.385097,-2.958961,-1.650169,-0.0120161,0.004816854,0.01112966,-0.756652,-2.417421,1.172416
0,1.677781,80,343,498,493,-0.007535673,-0.02061406,0.0008666846,-1.385122,-2.958754,-1.649993,-0.01414686,0.01227555,0.0122052,-0.7566616,-2.416798,1.172006
0,1.688892,80,343,498,493,-0.006461526,-0.02062244,-0.003392283,-1.384969,-2.958498,-1.649997,-0.01416616,0.01014342,0.007944827,-0.7567213,-2.416714,1.1721
0,1.700003,80,343,498,493,-0.006499469,-0.01637696,-0.004463807,-1.385048,-2.958257,-1.649773,-0.008812761,0.01015811,0.01218019,-0.7564336,-2.416426,1.171814
0,1.711114,80,343,498,493,-0.007569177,-0.01637593,-0.002335427,-1.385101,-2.95808,-1.649712,-0.01307234,0.004819708,0.01007638,-0.7563383,-2.416524,1.172152
0,1.722225,79,308,497,493,-0.005470091,-0.009980131,-0.005534021,-1.385156,-2.958176,-1.649673,-0.01415445,0.002678333,0.004742585,-0.7565892,-2.416834,1.172431
0,1.733337,79,308,497,493,-0.00658153,-0.001471637,-0.007696291,-1.385012,-2.958396,-1.649534,-0.01094453,0.002689758,0.006860363,-0.7564166,-2.416619,1.172278
0,1.744448,79,308,497,493,-0.00770047,0.006005406,-0.002390274,-1.385218,-2.958796,-1.649363,-0.01093552,0.001624834,0.007925997,-0.7563074,-2.416566,1.172356
0,1.755559,79,308,497,493,-0.00449832,0.004959129,-0.002380009,-1.385178,-2.958809,-1.649417,-0.007720953,-0.0004984401,0.01003218,-0.7562088,-2.416633,1.172393
0,1.76667,79,308,497,493,-0.007671051,0.0006757557,-0.002368059,-1.385201,-2.958642,-1.649263,-0.01308744,0.0005507451,0.003671272,-0.7563607,-2.416671,1.172704
0,1.777781,81,282,497,489,-0.00443779,-0.003581537,-0.004476468,-1.385139,-2.958386,-1.649453,-0.01413644,-0.001586281,0.004724368,-0.7564858,-2.416958,1.173037
0,1.788892,81,282,497,489,-0.008631493,-0.01532121,-0.003379484,-1.385186,-2.957897,-1.649328,-0.01416821,-0.003719074,-0.001666601,-0.7566227,-2.417166,1.173334
0,1.800003,81,282,497,489,-0.005416013,-0.01742724,-0.003365112,-1.385165,-2.957739,-1.649486,-0.01632802,-0.006922232,-0.006985016,-0.7568395,-2.417545,1.173937
0,1.811115,81,282,497,489,-0.007533912,-0.01957045,-0.003362143,-1.385138,-2.957448,-1.649391,-0.01099886,-0.007973637,-0.007015764,-0.7568858,-2.417745,1.174054
0,1.822226,84,290,498,497,-0.007553556,-0.01424465,-0.002313197,-1.385163,-2.957388,-1.649526,-0.009941667,-0.009042935,-0.007014667,-0.7567649,-2.418013,1.174475
0,1.833337,84,290,498,497,-0.006582681,-0.00037044,0.001902614,-1.385252,-2.957851,-1.649353,-0.003517585,-0.004762535,0.0004035559,-0.7565838,-2.417777,1.17416
0,1.844448,84,290,498,497,-0.00241193,0.01244121,0.002917705,-1.385043,-2.958313,-1.649184,-0.006693971,-0.006907558,0.003614804,-0.7564416,-2.418082,1.17463
0,1.855559,84,290,498,497,-0.005686248,0.02415738,0.009270729,-1.385387,-2.958873,-1.648987,-0.009859839,-0.01117763,0.007901471,-0.7560629,-2.418315,1.175097
0,1.86667,84,290,498,497,-0.005706134,0.0284049,0.00499099,-1.385225,-2.959325,-1.648795,-0.008821448,-0.01756927,0.0004404727,-0.7560965,-2.418909,1.175607
0,1.877781,83,356,498,501,-0.007823747,0.02411783,0.003938409,-1.385259,-2.959324,-1.648446,-0.00774982,-0.01755956,0.001501081,-0.7559947,-2.418991,1.175704
0,1.888893,83,356,498,501,-0.007791815,0.01984575,0.0007572635,-1.385178,-2.95945,-1.64835,-0.003514277,-0.01968094,-0.003849483,-0.756081,-2.419473,1.175966
0,1.900004,83,356,498,501,-0.006729831,0.01773464,0.005017525,-1.385186,-2.959589,-1.648189,-0.005677989,-0.01648882,-0.008099105,-0.7562674,-2.419637,1.176206
0,1.911115,83,356,498,501,-0.007776134,0.01453249,0.00502634,-1.385225,-2.959654,-1.648048,-0.0003543673,-0.01540975,-0.008130562,-0.7562983,-2.419872,1.176231
0,1.922226,83,356,498,501,-0.00778668,0.01453484,0.005021967,-1.385189,-2.959855,-1.647778,-0.004589418,-0.01860913,-0.002770403,-0.7559851,-2.420037,1.176729
0,1.933337,84,372,498,498,-0.008853139,0.01452991,0.003958247,-1.385222,-2.960092,-1.647558,-0.005643661,-0.02287306,-0.002762746,-0.7558765,-2.420552,1.17721
0,1.944448,84,372,498,498,-0.007785642,0.01454859,0.005017625,-1.385169,-2.960376,-1.647518,-0.005683417,-0.02500226,-0.008088176,-0.7560033,-2.421063,1.177846
0,1.955559,84,372,498,498,-0.007842912,0.024141,0.006053024,-1.38526,-2.960927,-1.647358,-0.007831804,-0.02713896,-0.01128133,-0.7560976,-2.421588,1.178383
0,1.966671,84,372,498,498,-0.0078575,0.026271,0.006045594,-1.385307,-2.961275,-1.647179,-0.003589354,-0.02607027,-0.01343644,-0.7562408,-2.422327,1.178961
0,1.977782,80,348,498,488,-0.005792535,0.03692386,0.002820944,-1.385253,-2.961941,-1.64691,-0.003568748,-0.02500747,-0.009173529,-0.7560869,-2.422696,1.179295
0,1.988893,80,348,498,488,-0.004749049,0.03802104,0.01027649,-1.385516,-2.962422,-1.646792,-0.0003356123,-0.02499709,-0.002800516,-0.7558616,-2.423005,1.179447
0,2.000004,80,348,498,488,-0.002631262,0.04123547,0.01027224,-1.385593,-2.963042,-1.646769,0.002845136,-0.02073279,-0.003888729,-0.7558957,-2.423301,1.179519
0,2.011115,80,348,498,488,-0.004734002,0.03801239,0.006017708,-1.385517,-2.963374,-1.646608,0.001773854,-0.01860041,-0.003884632,-0.7559239,-2.42345,1.179659
0,2.022226,80,348,498,488,-0.004696553,0.02949461,0.006049194,-1.38557,-2.963552,-1.646321,-0.002478652,-0.01754554,-0.002795699,-0.7558552,-2.423708,1.179919
0,2.033337,80,319,498,495,-0.003567853,0.01990431,0.002899042,-1.385669,-2.963573,-1.646308,-0.002490285,-0.01328057,-0.002796234,-0.7558759,-2.4237,1.179955
0,2.044448,80,319,498,495,-0.005645389,0.008168178,0.002928206,-1.385614,-2.96329,-1.645984,-0.0003599524,-0.01327251,-0.003877784,-0.7559639,-2.423924,1.179989
0,2.055559,80,319,498,495,-0.003451458,-0.001407329,0.002966716,-1.385669,-2.963036,-1.646147,-0.003553032,-0.009016478,-0.002795501,-0.7559761,-2.423837,1.179935
0,2.06667,80,319,498,495,-0.0002342605,-0.00459529,-0.0002114477,-1.3856,-2.962905,-1.646179,-0.000331559,-0.006876007,0.002511578,-0.755819,-2.423746,1.179769
0,2.077781,81,351,497,485,-0.004477916,-0.007808551,0.0008581879,-1.38566,-2.962827,-1.646038,-0.004536257,-0.0058137,0.009986596,-0.7556459,-2.423569,1.179555
0,2.088892,81,351,497,485,-0.005524218,-0.0110107,0.000866991,-1.385697,-2.962627,-1.645999,-0.003480704,-0.006876941,0.007850134,-0.7555649,-2.423708,1.179652
0,2.100003,81,351,497,485,-0.00658428,-0.0110257,-0.001260388,-1.385697,-2.962477,-1.645935,-0.002431448,-0.0143435,0.0003822525,-0.7556544,-2.424562,1.180146
0,2.111114,81,351,497,485,-0.008736237,-0.006784719,-0.001277117,-1.385633,-2.962507,-1.64578,-0.00137644,-0.01753826,-0.001746711,-0.7555287,-2.424935,1.180509
0,2.122225,81,351,497,485,-0.007681826,-0.00465218,-0.002346842,-1.385654,-2.962399,-1.645797,0.003966659,-0.01432743,0.002482331,-0.7553721,-2.424946,1.18033
0,2.133336,81,354,498,494,-0.00879862,0.003866285,-0.001308753,-1.385703,-2.962657,-1.645653,0.007159014,-0.007926238,0.005655454,-0.7553034,-2.424764,1.180146
0,2.144447,81,354,498,494,-0.01208797,0.01664495,0.002898445,-1.385753,-2.963182,-1.645226,0.00721422,-0.01005412,0.01417833,-0.7548869,-2.424751,1.180059
0,2.155558,81,354,498,494,-0.0088908,0.01771678,0.001839274,-1.385777,-2.96328,-1.645291,0.004029445,-0.01750525,0.01420249,-0.7546222,-2.424923,1.180347
0,2.166669,81,354,498,494,-0.008919087,0.02199743,0.005007953,-1.385714,-2.963765,-1.64514,0.004009998,-0.01963718,0.009942017,-0.754513,-2.42527,1.180547
0,2.17778,79,313,498,505,-0.01208181,0.01664947,0.005018415,-1.385748,-2.963757,-1.64493,0.00609507,-0.0164379,0.003536936,-0.754603,-2.425456,1.180558
0,2.188891,79,313,498,505,-0.01521721,0.007025683,-0.0002851172,-1.385552,-2.963574,-1.644596,0.01035491,-0.01536708,0.004578101,-0.7544325,-2.425726,1.18057
0,2.200002,79,313,498,505,-0.01626039,0.004890685,-0.001350968,-1.385416,-2.963663,-1.644481,0.00717318,-0.008987032,0.009920144,-0.7541752,-2.425591,1.180471
0,2.211113,79,313,498,505,-0.01089768,0.0006430601,-0.00665187,-1.385179,-2.96352,-1.644523,0.003953108,-0.006863082,0.006743902,-0.754179,-2.425547,1.180493
0,2.222224,79,313,498,505,-0.01092931,0.004903133,-0.006669171,-1.385081,-2.963682,-1.644255,0.01034019,-0.01324839,0.002439528,-0.7541934,-2.426296,1.18068
0,2.233335,76,350,497,478,-0.01098322,0.01343311,-0.004562378,-1.385147,-2.964073,-1.644076,0.006055448,-0.0175289,-0.003931565,-0.7543127,-2.427023,1.181231
0,2.244446,76,350,497,478,-0.006734423,0.01560556,-0.001364692,-1.385203,-2.964386,-1.644169,0.00500456,-0.02072715,-0.002859088,-0.7542099,-2.427528,1.18156
0,2.255557,76,350,497,478,-0.009940899,0.01771578,-0.0003047399,-1.385332,-2.964578,-1.643996,0.002930212,-0.01754133,0.006735946,-0.7538727,-2.427647,1.181512
0,2.266668,76,350,497,478,-0.009932292,0.0155941,0.0007535922,-1.385152,-2.964751,-1.64383,0.006185525,-0.01646449,0.01736975,-0.7533721,-2.427599,1.181306
0,2.277779,76,350,497,478,-0.008865211,0.01347967,0.002886716,-1.385117,-2.964879,-1.643642,0.01044354,-0.01006506,0.01839981,-0.7532847,-2.427547,1.180949
0,2.28889,75,288,498,493,-0.01307545,0.005986542,-0.0002923359,-1.38506,-2.964754,-1.643404,0.002969897,-0.01328133,0.01418323,-0.7531515,-2.42781,1.181294
0,2.300001,75,288,498,493,-0.009818685,-0.004655207,-0.002381876,-1.385,-2.964441,-1.643345,-0.0002661187,-0.009038568,0.00780023,-0.7533193,-2.42806,1.181465
0,2.311112,75,288,498,493,-0.008731089,-0.007850822,-0.003426902,-1.385055,-2.964258,-1.643316,-0.003501616,0.001605527,0.00568511,-0.7534472,-2.427629,1.181266
0,2.322223,75,288,498,493,-0.006604608,-0.0067709,-0.003422697,-1.385088,-2.964257,-1.643309,0.000753213,-0.001586641,0.004596596,-0.7533177,-2.427899,1.181435
0,2.333334,75,289,498,499,-0.01088488,-0.004654566,-0.0002354971,-1.385268,-2.964281,-1.643067,-0.0003143926,0.001610318,0.00566843,-0.753274,-2.427631,1.181288
0,2.344445,75,289,498,499,-0.007726155,0.0006962601,0.0008157452,-1.385254,-2.964465,-1.642986,-0.0003212856,0.001606812,0.004610368,-0.7531398,-2.427615,1.181291
0,2.355556,75,289,498,499,-0.008820871,0.004955082,0.00292847,-1.385308,-2.964601,-1.642839,-0.00457677,-0.0005412465,0.004632906,-0.7530567,-2.427884,1.181616
0,2.366668,75,289,498,499,-0.01091288,-0.002507264,0.005074639,-1.385364,-2.964392,-1.642689,-0.006701868,-0.002677278,0.004646003,-0.7529763,-2.42797,1.181804
0,2.377779,75,289,498,499,-0.009795303,-0.008888678,0.002965468,-1.385315,-2.964277,-1.642774,-0.007743674,-0.006940676,0.006796653,-0.7526125,-2.428025,1.181946
0,2.38889,77,416,498,499,-0.01185635,-0.02061932,0.003001032,-1.38539,-2.963701,-1.642694,-0.005606126,-0.004803965,0.008914115,-0.7524634,-2.427945,1.181898
0,2.400001,77,416,498,499,-0.008614781,-0.02804579,0.004100509,-1.385518,-2.963331,-1.642814,-0.002425729,-0.0037245,0.006772569,-0.7523904,-2.427749,1.1817
0,2.411112,77,416,498,499,-0.003305153,-0.02482196,0.003035231,-1.385526,-2.963144,-1.642951,0.001836826,0.0005450337,0.008876462,-0.75227,-2.427613,1.181468
0,2.422223,77,416,498,499,-0.001225612,-0.01840119,0.006224506,-1.385824,-2.963228,-1.64288,0.0007798932,0.005872968,0.01314777,-0.7520442,-2.427104,1.181187
0,2.433334,75,337,498,493,-0.002390607,-0.002421711,0.00937072,-1.386075,-2.963589,-1.642763,0.001904031,-0.0004976774,0.01953795,-0.7516969,-2.426774,1.180844
0,2.444445,75,337,498,493,-0.001385381,0.006101013,0.008270826,-1.386018,-2.963836,-1.642545,0.0008165874,-0.001567055,0.01528338,-0.7516139,-2.426805,1.180888
0,2.455556,75,337,498,493,-0.006736156,0.01138795,0.00505038,-1.386017,-2.964103,-1.642294,-0.006710066,0.002669613,0.005741253,-0.7517944,-2.426692,1.181116
0,2.466667,75,337,498,493,-0.006706496,0.007119628,0.002934322,-1.386004,-2.964077,-1.642237,-0.004630079,0.000541403,-0.003858054,-0.7520618,-2.426944,1.181298
0,2.477778,75,337,498,493,-0.005624236,0.002858417,0.001891746,-1.386098,-2.963973,-1.642086,-0.001477896,0.004811573,-0.007076363,-0.7522535,-2.426834,1.181342
0,2.488889,76,312,498,487,-0.00133566,-0.001380985,0.0008496829,-1.386089,-2.963841,-1.642206,-0.001438118,0.01120385,0.002514534,-0.7520218,-2.426345,1.181014
0,2.5,76,312,498,487,-0.00128874,-0.009892341,0.004069447,-1.386182,-2.963507,-1.642293,-0.001427598,0.01120334,0.005708858,-0.7519334,-2.426177,1.181037
0,2.511111,76,312,498,487,-0.001250847,-0.01628397,0.00409121,-1.386257,-2.963162,-1.642361,-0.007797777,0.01226023,0.01000577,-0.7518557,-2.425711,1.180954
0,2.522222,76,312,498,487,0.00200793,-0.02692414,0.0009460873,-1.386349,-2.962688,-1.642454,-0.009930508,0.01119386,0.01001688,-0.7518471,-2.425463,1.181017
0,2.533333,77,263,498,499,0.0020293,-0.0301229,0.0009686698,-1.386558,-2.962266,-1.642586,-0.009961477,0.009069324,0.003629134,-0.7520053,-2.425304,1.180995
0,2.544444,77,263,498,499,-0.001156377,-0.03225928,0.003094245,-1.38659,-2.961925,-1.642564,-0.009968488,0.006938059,0.00149922,-0.752057,-2.4253,1.181102
0,2.555555,77,263,498,499,-0.004354553,-0.03121161,0.003080641,-1.386583,-2.961647,-1.642545,-0.009984081,0.01118879,-0.0006388049,-0.7522301,-2.425227,1.181059
0,2.566666,77,263,498,499,-0.004390247,-0.02482358,0.001993653,-1.386576,-2.961546,-1.642517,-0.009961904,0.01225541,0.003621993,-0.7521433,-2.424909,1.180941
0,2.577777,77,263,498,499,-0.006569841,-0.01735599,0.004087368,-1.386567,-2.961784,-1.642365,-0.008888245,0.009067972,0.003632419,-0.7519537,-2.424647,1.180825
0,2.588888,78,324,498,494,-0.004483507,-0.009886434,0.004066437,-1.386588,-2.961889,-1.64236,-0.007817549,0.006940094,0.003626829,-0.7519292,-2.424597,1.180833
0,2.599999,78,324,498,494,-0.009862816,-0.001390039,0.005102958,-1.386816,-2.962132,-1.642048,-0.008892106,0.0005442575,0.0004340435,-0.7520059,-2.42493,1.181329
0,2.61111,78,324,498,494,-0.009859305,-0.002452018,0.007238121,-1.386973,-2.962003,-1.641982,-0.007854495,-0.005842353,-0.007026786,-0.7521917,-2.425334,1.18167
0,2.622221,78,324,498,494,-0.009870304,-0.001382956,0.008294078,-1.386998,-2.962008,-1.641839,-0.006777091,-0.01436414,-0.008087192,-0.7520266,-2.425851,1.182147
0,2.633332,78,324,498,494,-0.01093191,-0.002450501,0.009365493,-1.387191,-2.961982,-1.641657,-0.01211391,-0.007983535,-0.006996745,-0.7521912,-2.425754,1.182357
0,2.644443,79,257,498,499,-0.01201038,-0.0003221122,0.01042005,-1.387305,-2.962041,-1.641509,-0.008923238,-0.006911035,-0.007015485,-0.752245,-2.425859,1.182475
0,2.655554,79,257,498,499,-0.01197982,-0.005654654,0.01256382,-1.387452,-2.961631,-1.64151,-0.006779371,-0.005842034,-0.002757947,-0.7519798,-2.425886,1.182631
0,2.666665,79,257,498,499,-0.01202211,0.0007441858,0.01467268,-1.387636,-2.961821,-1.641333,-0.009967059,-0.009046048,-0.002738311,-0.7519408,-2.426157,1.183046
0,2.677776,79,257,498,499,-0.01520091,-0.0003463863,0.01253878,-1.387701,-2.961807,-1.641179,-0.008897953,-0.01011027,-0.003818151,-0.7520714,-2.426468,1.183246
0,2.688887,80,273,497,502,-0.01203225,0.004991727,0.01039666,-1.38775,-2.962016,-1.641087,-0.003542075,-0.0143569,-0.0006521475,-0.7519031,-2.426778,1.183364
0,2.699998,80,273,497,502,-0.01630016,0.004981836,0.01358521,-1.387992,-2.962147,-1.64076,-0.004594012,-0.01968078,0.0004322566,-0.7516032,-2.427057,1.183753
0,2.711109,80,273,497,502,-0.01736735,0.00603358,0.01144884,-1.388069,-2.962248,-1.640522,-0.003576508,-0.02074074,-0.008095805,-0.7518274,-2.427451,1.184056
0,2.72222,80,273,497,502,-0.01419509,0.01032423,0.01356627,-1.388183,-2.96252,-1.640513,-0.005708819,-0.0207446,-0.00914893,-0.7518753,-2.427786,1.184349
0,2.733331,80,273,497,502,-0.01094417,0.001813274,0.01147019,-1.388253,-2.96229,-1.64051,-0.007834344,-0.0154186,-0.00593875,-0.7518221,-2.427686,1.184419
0,2.744442,78,262,498,484,-0.01095212,0.002883031,0.01252898,-1.388366,-2.962373,-1.640362,-0.00570053,-0.00582504,-0.001689169,-0.7517273,-2.427345,1.184135
0,2.755553,78,262,498,484,-0.01198173,-0.003510708,0.01256,-1.388692,-2.962244,-1.640195,-0.003545108,-0.005815764,0.002562643,-0.7515408,-2.427288,1.184082
0,2.766664,78,262,498,484,-0.009841284,-0.003509563,0.00829991,-1.388617,-2.962245,-1.640159,-0.007825287,-0.01116144,-0.002744336,-0.7516304,-2.427934,1.184796
0,2.777775,78,262,498,484,-0.009825993,-0.005644298,0.009373536,-1.38878,-2.962032,-1.640164,-0.005719648,-0.01009363,-0.005953881,-0.7517565,-2.42819,1.18504
0,2.788886,78,235,498,503,-0.01091405,-0.001388879,0.008289527,-1.3888,-2.962201,-1.639971,-0.003606956,-0.0079583,-0.008097521,-0.7518951,-2.42832,1.185112
0,2.799997,78,235,498,503,-0.00985951,0.001805996,0.006152174,-1.388834,-2.962309,-1.639941,-0.003571613,-0.009018019,-0.003830402,-0.7517177,-2.428324,1.185071
0,2.811108,78,235,498,503,-0.009817544,-0.00564731,0.007242773,-1.388974,-2.962027,-1.639876,-0.00571891,-0.004760307,-0.004878373,-0.7517496,-2.428185,1.185086
0,2.822219,78,235,498,503,-0.00874697,-0.008827302,0.007265305,-1.389189,-2.962022,-1.639601,-0.002529409,-0.005820369,-0.004898483,-0.7517875,-2.428422,1.18535
0,2.83333,78,235,498,503,-0.004493972,-0.009863321,0.008344067,-1.389326,-2.961902,-1.639486,-0.005742822,-0.003696764,-0.007005024,-0.7518439,-2.428395,1.185475
0,2.844441,77,238,497,497,-0.005558957,-0.008815162,0.005142412,-1.3893,-2.961829,-1.63941,-0.001475463,-0.00263055,-0.007037505,-0.7519494,-2.428676,1.185452
0,2.855552,77,238,497,497,-0.004499672,-0.007743153,0.007277266,-1.389555,-2.961699,-1.639486,-0.0004187482,0.0005688006,-0.007047079,-0.7520996,-2.428613,1.185383
0,2.866663,77,238,497,497,-0.004523173,-0.001359962,0.002999417,-1.389528,-2.961938,-1.639443,-0.003608661,0.002683209,-0.005964872,-0.7521422,-2.428678,1.185501
0,2.877774,77,238,497,497,-0.004529145,-0.002424218,0.006197358,-1.389678,-2.961732,-1.639347,-0.002534481,0.008012946,-0.00383956,-0.7521736,-2.428317,1.185099
0,2.888885,77,238,497,497,-0.002409013,-0.0002846334,0.005129211,-1.389708,-2.96178,-1.639363,-0.000401221,0.006953065,-0.003851695,-0.7522392,-2.428266,1.185004
0,2.899997,76,271,498,510,-0.001327708,-0.003469195,0.006210119,-1.389837,-2.961687,-1.63938,-0.001483598,0.002688671,-0.009163998,-0.7523361,-2.428476,1.185154
0,2.911108,76,271,498,510,0.003995338,-0.002376225,0.005162831,-1.390026,-2.961703,-1.63956,0.002739026,0.0005666921,-0.01664645,-0.7526855,-2.428756,1.185214
0,2.922219,76,271,498,510,0.002914196,-0.0002434513,0.007287595,-1.390198,-2.961799,-1.639544,0.003822691,0.000558598,-0.01346323,-0.7527435,-2.429058,1.185365
0,2.93333,76,271,498,510,0.0007728897,-0.0002723862,0.0051543,-1.390224,-2.961651,-1.639298,0.008122396,0.000567467,-0.007090604,-0.7525342,-2.429049,1.185158
0,2.944441,75,294,498,485,0.001833762,-0.0002588697,0.007287059,-1.390359,-2.961667,-1.639355,0.004904064,0.003751629,-0.009209195,-0.7527925,-2.429049,1.185234
0,2.955552,75,294,498,485,0.00182475,0.001865713,0.004086124,-1.390345,-2.961821,-1.639306,0.00381187,0.004806593,-0.01347353,-0.7531691,-2.429284,1.18539
0,2.966663,75,294,498,485,0.003953851,0.00295608,0.006223092,-1.390545,-2.961961,-1.63954,0.005935391,0.002680746,-0.01561589,-0.7533944,-2.429454,1.185382
0,2.977774,75,294,498,485,0.006084831,0.002980527,0.008354329,-1.390637,-2.962073,-1.639735,0.01126707,0.001629211,-0.01564497,-0.7535138,-2.429541,1.185139
0,2.988885,75,294,498,485,0.009286638,0.0008800168,0.01156685,-1.390891,-2.962055,-1.639917,0.008060401,0.005882261,-0.01562759,-0.7537225,-2.429428,1.185062
0,2.999996,76,305,497,493,0.01247578,0.001969343,0.0115639,-1.390915,-2.962185,-1.640122,0.00594629,0.005882002,-0.01135996,-0.7538418,-2.429307,1.185086
0,3.011107,76,305,497,493,0.01355587,-0.0001584556,0.01050804,-1.390998,-2.962139,-1.640302,0.005976731,0.005888893,-0.006036855,-0.7538844,-2.429121,1.184891
0,3.022218,76,305,497,493,0.01462828,-0.003339306,0.01264496,-1.391108,-2.962046,-1.640401,0.004887516,0.005880661,-0.01029479,-0.7541545,-2.429268,1.184957
0,3.033329,76,305,497,493,0.01679583,-0.01079038,0.01053637,-1.391067,-2.961755,-1.640533,0.002706626,0.005875732,-0.01880623,-0.754645,-2.429372,1.18508
0,3.04444,76,293,497,495,0.01789295,-0.01505595,0.007357119,-1.391085,-2.961481,-1.640797,0.004825955,0.01121273,-0.01775645,-0.7549486,-2.429044,1.184772
0,3.055551,76,293,497,495,0.01900331,-0.02037994,0.008431993,-1.391101,-2.961022,-1.641337,0.001670842,0.02931923,-0.002831206,-0.7549124,-2.427812,1.183915
0,3.066662,76,293,497,495,0.0190011,-0.02037634,0.009497283,-1.391248,-2.960811,-1.641582,0.003788881,0.03677288,-0.00178102,-0.7550594,-2.427151,1.18334
0,3.077773,76,293,497,495,0.0136331,-0.01296315,0.007325187,-1.391178,-2.960778,-1.641563,0.005911355,0.02718912,-0.007123088,-0.7553492,-2.42729,1.183367
0,3.088884,76,293,497,495,0.01789509,-0.0129394,0.006267834,-1.391209,-2.960656,-1.641874,0.006958622,0.008002969,-0.01884423,-0.7557087,-2.428431,1.184052
0,3.099995,77,295,498,491,0.01891873,-0.006544065,0.005176643,-1.391135,-2.960765,-1.642011,0.005876285,-0.00053153,-0.02523321,-0.7560544,-2.429178,1.184565
0,3.111106,77,295,498,491,0.01567911,-0.0001614615,0.008344948,-1.391297,-2.960957,-1.642051,0.010219,-0.005841902,-0.01354202,-0.7559063,-2.429364,1.184495
0,3.122217,77,295,498,491,0.01346766,0.01261388,0.008289007,-1.391223,-2.961471,-1.642006,0.01135207,-0.003706817,-0.001834117,-0.7556714,-2.429241,1.184173
0,3.133328,77,295,498,491,0.01239028,0.01367354,0.01040815,-1.391308,-2.961541,-1.642085,0.01350164,-0.001562,0.002413708,-0.7556054,-2.428967,1.183781
0,3.144439,78,290,498,500,0.01237136,0.01686936,0.01039731,-1.391425,-2.961826,-1.642158,0.007045404,0.002674669,-0.007145285,-0.7560661,-2.429177,1.184001
0,3.15555,78,290,498,500,0.009175546,0.01790812,0.01038502,-1.3915,-2.961965,-1.64227,-0.001515822,0.002648296,-0.01455272,-0.7564,-2.429366,1.184301
0,3.166661,78,290,498,500,0.007068633,0.01574695,0.005061442,-1.39141,-2.962077,-1.642269,-0.007912607,-0.002695426,-0.01770958,-0.7565982,-2.429718,1.184791
0,3.177772,78,290,498,500,0.006061106,0.008266598,0.001879208,-1.391231,-2.961877,-1.642452,-0.005790146,-0.002688809,-0.01985379,-0.7568384,-2.429894,1.18484
0,3.188883,78,290,498,500,-0.0002878931,0.001828336,-0.000242845,-1.391189,-2.961692,-1.642328,-0.005826679,-0.0005599279,-0.02518084,-0.7572305,-2.430065,1.18503
0,3.199994,77,287,498,499,0.0008114192,-0.006673296,0.004052323,-1.391391,-2.961442,-1.64231,-0.00582392,0.004777834,-0.02412035,-0.7576219,-2.429746,1.184693
0,3.211105,77,287,498,499,-0.0012878,-0.009903423,-0.00126931,-1.391224,-2.96119,-1.642315,-0.004717784,0.005848222,-0.01666994,-0.7576358,-2.429622,1.184623
0,3.222216,77,287,498,499,-0.0002348368,-0.009890172,0.000863131,-1.391292,-2.961078,-1.642231,0.0006494347,0.006938003,-0.01031037,-0.757647,-2.429301,1.184156
0,3.233327,77,287,498,499,-0.006581834,-0.01740633,-0.003388274,-1.391157,-2.960567,-1.641949,-0.001438789,0.0005527283,-0.007095071,-0.7575889,-2.42927,1.184112
0,3.244438,77,287,498,499,-0.008710496,-0.01847702,-0.00125845,-1.391227,-2.960333,-1.641842,-0.002469163,-0.005840713,-0.003891059,-0.7574531,-2.429559,1.184386
0,3.255549,76,286,497,494,-0.008750624,-0.01316208,-0.002343656,-1.39114,-2.960203,-1.64162,-0.007793263,-0.007978236,-0.00705299,-0.7576001,-2.429669,1.18446
0,3.26666,76,286,497,494,-0.006639003,-0.009953633,-0.002350134,-1.391111,-2.960176,-1.641611,-0.006749364,-0.006911259,-0.01025538,-0.757778,-2.429834,1.184617
0,3.277771,76,286,497,494,-0.006697144,-0.0003544296,0.0008160188,-1.391217,-2.96046,-1.641554,-0.008877439,-0.0005187737,-0.004912418,-0.7576965,-2.42941,1.184641
0,3.288882,76,286,497,494,-0.005646687,0.001786034,0.001876264,-1.391264,-2.960551,-1.641498,-0.008813553,0.005882366,0.0089316,-0.7574317,-2.428746,1.184265
0,3.299993,75,294,498,490,-0.006727018,0.003901366,0.0008063191,-1.391308,-2.960567,-1.641316,-0.006672079,0.004812602,0.01105334,-0.757174,-2.428824,1.184389
0,3.311104,75,294,498,490,-0.006684023,-0.003554538,0.0008400255,-1.391464,-2.960339,-1.641266,-0.009917527,0.006936177,0.003611126,-0.7574446,-2.428697,1.184501
0,3.322215,75,294,498,490,-0.01088014,-0.0121147,-0.004462293,-1.391327,-2.959997,-1.641151,-0.01103962,0.005862607,-0.005963099,-0.7576821,-2.428804,1.184799
0,3.333326,75,294,498,490,-0.0108423,-0.01745119,-0.006568532,-1.391323,-2.959618,-1.641129,-0.001458582,-0.001568374,-0.01134655,-0.7578989,-2.429218,1.184738
0,3.344437,75,294,498,490,-0.008674579,-0.02275784,-0.006552845,-1.39119,-2.959312,-1.641242,-0.00571476,0.009075446,-0.005999711,-0.7579585,-2.428711,1.18454
0,3.355548,76,292,498,493,-0.008720748,-0.01423713,-0.00551392,-1.391207,-2.959311,-1.641231,-0.01101804,0.01333102,-0.0006416633,-0.757925,-2.428128,1.184368
0,3.366659,76,292,498,493,-0.007659885,-0.01422363,-0.003381154,-1.391228,-2.959147,-1.641205,-0.008907213,0.01866255,-0.001720998,-0.7581167,-2.427637,1.184054
0,3.37777,76,292,498,493,-0.007671737,-0.01314085,0.0008874804,-1.39151,-2.95909,-1.641189,-0.009966616,0.02185021,0.0004135305,-0.7581663,-2.42732,1.18393
0,3.388881,76,292,498,493,-0.004473699,-0.01312552,-0.0001712548,-1.391483,-2.958926,-1.641258,-0.007817206,0.01440459,0.0004040943,-0.7581455,-2.427272,1.183933
0,3.399992,74,255,499,496,-0.004493585,-0.01204916,0.004095571,-1.391776,-2.958793,-1.641139,-0.007817684,0.002686969,-0.003848219,-0.7581348,-2.427697,1.184398
0,3.411103,74,255,499,496,-0.005508057,-0.02056932,0.007314877,-1.39192,-2.958282,-1.641242,-0.004620479,-0.000499027,-0.004932479,-0.7582158,-2.427841,1.184478
0,3.422215,74,255,499,496,-0.005513017,-0.01949395,0.009444717,-1.392114,-2.958151,-1.641294,-0.004626418,0.002692341,-0.00386135,-0.7581391,-2.427727,1.184509
0,3.433326,74,255,499,496,-0.004410532,-0.02162533,0.007327426,-1.39219,-2.957848,-1.641643,-0.002465471,0.001635103,0.001450287,-0.758032,-2.427674,1.184515
0,3.444437,74,255,499,496,-0.003375028,-0.0162955,0.006247011,-1.392251,-2.957797,-1.641628,-0.001436943,0.01122476,-0.0006894176,-0.7582627,-2.427194,1.184156
0,3.455548,73,244,498,497,-0.0001985431,-0.01306425,0.01051082,-1.392596,-2.957809,-1.64182,-0.00358852,0.01654102,-0.001740386,-0.7583516,-2.426865,1.184032
0,3.466659,73,244,498,497,-0.0002574613,-0.0034732,0.01154367,-1.392753,-2.958058,-1.641771,-0.002518888,0.01974028,0.0003829799,-0.7583905,-2.426429,1.183717
0,3.47777,73,244,498,497,0.002916908,-0.000257524,0.01366966,-1.392943,-2.958035,-1.641925,-0.004662235,0.01440467,-0.003877879,-0.7587218,-2.426687,1.184034
0,3.488881,73,244,498,497,0.002939003,-0.002404513,0.009415449,-1.392931,-2.957923,-1.641985,-0.006777301,0.01333825,-0.001730067,-0.7587042,-2.426386,1.183952
0,3.499992,73,221,498,508,0.004071381,-0.01304639,0.008383198,-1.392964,-2.957594,-1.642161,-0.005728105,0.01333128,-0.004937301,-0.7589253,-2.426425,1.183974
0,3.511103,73,221,498,508,0.007316365,-0.02049313,0.005219664,-1.392996,-2.957181,-1.642382,-0.003630526,0.01333146,-0.00920938,-0.7591106,-2.426412,1.184066
0,3.522214,73,221,498,508,0.007353143,-0.02900912,0.008442933,-1.393184,-2.956572,-1.642454,-0.003619748,0.009070285,-0.009208119,-0.7591959,-2.426499,1.184182
0,3.533325,73,221,498,508,0.0105519,-0.03111877,0.009527522,-1.393413,-2.956203,-1.642617,-0.00149781,0.0112013,-0.008159527,-0.7593141,-2.426377,1.184194
0,3.544436,73,221,498,508,0.01050338,-0.0236547,0.01163292,-1.393603,-2.956131,-1.64275,-0.004682023,0.00906297,-0.007074939,-0.7593631,-2.426348,1.184304
0,3.555547,74,234,498,498,0.0115414,-0.01939427,0.01482019,-1.393922,-2.955799,-1.64302,-0.004665241,0.008006254,-0.005998233,-0.7593333,-2.426034,1.184015
0,3.566658,74,234,498,498,0.01142714,-0.0002188728,0.01582329,-1.394114,-2.956229,-1.643111,-0.0036178,0.01013887,-0.008135648,-0.7595404,-2.425893,1.183918
0,3.577769,74,234,498,498,0.01031784,0.005095173,0.01472533,-1.394063,-2.956376,-1.64297,-0.0004082622,0.006958536,-0.008149347,-0.7595847,-2.425777,1.183677
0,3.58888,74,234,498,498,0.01025216,0.01575398,0.01682686,-1.394367,-2.956832,-1.643015,-0.004682303,0.006947847,-0.01025861,-0.7598078,-2.425785,1.183867
0,3.599991,74,234,498,498,0.007047208,0.01679445,0.01574157,-1.394354,-2.957005,-1.64291,-0.002548308,0.004822644,-0.01132641,-0.7598254,-2.425797,1.183787
0,3.611102,73,296,497,489,0.007053927,0.01572997,0.01788314,-1.394738,-2.957072,-1.643057,0.0006716668,0.002700154,-0.008147774,-0.7598057,-2.425856,1.183729
0,3.622213,73,296,497,489,0.007090745,0.00933777,0.01683484,-1.394823,-2.957073,-1.643078,-0.0003995369,0.000562123,-0.01133154,-0.7599139,-2.426086,1.183821
0,3.633324,73,296,497,489,0.007134331,0.002944475,0.01473459,-1.395054,-2.957052,-1.643182,-0.005785503,0.002675565,-0.01982071,-0.7603074,-2.426218,1.184191
0,3.644435,73,296,497,489,0.003980702,-0.003473245,0.01261905,-1.395162,-2.956851,-1.643158,-0.002589681,0.002683626,-0.01983939,-0.7605077,-2.426336,1.184219
0,3.655546,75,288,498,507,0.001865201,-0.006690013,0.01155901,-1.395272,-2.956635,-1.643069,-0.002567346,0.002686454,-0.0155814,-0.7605988,-2.426312,1.184254
0,3.666657,75,288,498,507,-0.000246685,-0.01200674,0.01584048,-1.395665,-2.956523,-1.642978,-0.001462089,0.003762264,-0.008134877,-0.760602,-2.426117,1.184084
0,3.677768,75,288,498,507,-0.002359204,-0.01415262,0.01477869,-1.395834,-2.956341,-1.642974,-0.005716008,0.002688137,-0.008104473,-0.7606372,-2.426094,1.184191
0,3.688879,75,288,498,507,-0.002356646,-0.01521248,0.01691344,-1.396098,-2.956146,-1.642996,-0.004641837,0.003762364,-0.005985233,-0.7608055,-2.425964,1.18413
0,3.69999,75,288,498,507,-0.004488263,-0.01522358,0.01476764,-1.396053,-2.956104,-1.642816,-0.003588908,0.008013258,-0.00491821,-0.7607101,-2.425873,1.184193
0,3.711101,75,276,498,496,-0.00556177,-0.01310143,0.01475631,-1.396204,-2.956002,-1.642826,-0.005708582,0.005880549,-0.003844898,-0.760815,-2.425858,1.184327
0,3.722212,75,276,498,496,-0.009814064,-0.01314101,0.01048642,-1.396234,-2.955858,-1.64264,-0.004676652,0.0005543131,-0.01236813,-0.7610361,-2.426218,1.184573
0,3.733323,75,276,498,496,-0.01302331,-0.01209198,0.01261523,-1.396557,-2.9557,-1.64241,-0.000418582,-0.003696409,-0.01238534,-0.7610217,-2.426425,1.184817
0,3.744434,75,276,498,496,-0.01411601,-0.007833621,0.01366398,-1.396737,-2.955747,-1.642233,0.0007045642,-0.006886943,-0.003868381,-0.7607943,-2.426559,1.18489
0,3.755545,74,282,498,496,-0.01414748,-0.002507096,0.01365193,-1.396971,-2.955878,-1.642059,0.00389402,-0.01539887,-0.007074905,-0.7607378,-2.427052,1.185259
0,3.766656,74,282,498,496,-0.01206104,0.004962428,0.01363116,-1.397111,-2.956156,-1.641924,0.0006643739,-0.01434326,-0.01238293,-0.760945,-2.427377,1.18559
0,3.777767,74,282,498,496,-0.01421984,0.01029427,0.01466532,-1.397149,-2.956603,-1.641706,-0.003596866,-0.01328064,-0.01235862,-0.7610798,-2.427414,1.18575
0,3.788878,74,282,498,496,-0.01739894,0.008138578,0.01360665,-1.397351,-2.956596,-1.641452,-0.004651195,-0.007950864,-0.008095076,-0.7611282,-2.427259,1.185724
0,3.799989,74,282,498,496,-0.01737761,0.00495219,0.01361398,-1.397453,-2.95672,-1.641299,-0.004638945,-0.00369547,-0.003827379,-0.7609525,-2.427206,1.185758
0,3.8111,73,268,499,506,-0.01416582,0.001782927,0.01362573,-1.39751,-2.956782,-1.64116,-0.003562842,-0.005819731,-0.002771002,-0.7609802,-2.427363,1.185904
0,3.822211,73,268,499,506,-0.01625855,-0.004621329,0.01364288,-1.397667,-2.956584,-1.640943,-0.003550713,-0.00689437,-0.001702714,-0.7608678,-2.427688,1.186149
0,3.833322,73,268,499,506,-0.01412757,-0.004624484,0.00937863,-1.397561,-2.956522,-1.640726,-0.003544791,-0.01861286,-0.005962194,-0.7608768,-2.428451,1.186715
0,3.844433,73,268,499,506,-0.01412757,-0.004624483,0.009378631,-1.397665,-2.956468,-1.640565,-0.0003699735,-0.01967521,-0.01024008,-0.7609519,-2.428971,1.186998
0,3.855544,73,268,499,506,-0.01417651,0.002830296,0.009353161,-1.39773,-2.956656,-1.640297,-0.001464188,-0.02180978,-0.01662057,-0.7611123,-2.42951,1.187422
0,3.866655,72,278,498,491,-0.01311152,0.002838001,0.007226726,-1.397764,-2.956815,-1.640076,-0.006763862,-0.01756009,-0.01019891,-0.7610276,-2.429549,1.187672
0,3.877766,72,278,498,491,-0.01312495,0.006027698,0.00508213,-1.397703,-2.956959,-1.639925,-0.008860439,-0.01863852,-0.00486814,-0.7609066,-2.430062,1.188194
0,3.888877,72,278,498,491,-0.009945835,0.009237638,0.007203032,-1.397769,-2.956997,-1.639984,-0.009924978,-0.01437575,-0.002737381,-0.7609738,-2.430079,1.188358
0,3.899988,72,278,498,491,-0.008854993,0.004978952,0.005088964,-1.397778,-2.956985,-1.639857,-0.008920945,-0.007986503,-0.01020846,-0.7613706,-2.430253,1.188588
0,3.911099,73,323,498,492,-0.008845381,0.002853187,0.004036615,-1.397854,-2.957108,-1.639643,-0.01108529,-0.006926574,-0.01552164,-0.7616699,-2.43049,1.188937
0,3.92221,73,323,498,492,-0.009857491,-0.004632448,-0.002328432,-1.397736,-2.956819,-1.639485,-0.007862357,-0.003724646,-0.0102052,-0.7614872,-2.430407,1.18881
0,3.933321,73,323,498,492,-0.008751474,-0.01101955,-0.004439362,-1.397605,-2.9566,-1.639429,-0.008885428,0.005871812,0.0004530407,-0.7613701,-2.42957,1.188301
0,3.944432,73,323,498,492,-0.008764066,-0.008889002,-0.004446517,-1.397567,-2.956546,-1.639342,-0.004643044,-0.001576433,-0.005961508,-0.7614936,-2.429977,1.188565
0,3.955544,73,323,498,492,-0.004508667,-0.008854635,-0.001245285,-1.397611,-2.956456,-1.639437,-0.003561405,-0.01223126,-0.009156574,-0.7614478,-2.430712,1.188966
0,3.966655,71,266,498,506,-0.004536044,-0.004589985,-0.0001942885,-1.397638,-2.956547,-1.639362,-0.01209343,-0.02077646,-0.01443079,-0.7615964,-2.431511,1.189908
0,3.977766,71,266,498,506,-0.00240172,-0.00458622,-0.0001934514,-1.397592,-2.956365,-1.639487,-0.009927446,-0.01970696,-0.006979899,-0.7612811,-2.431629,1.190142
0,3.988877,71,266,498,506,-0.005632952,0.0007141285,-0.000220956,-1.397547,-2.956406,-1.639267,-0.001284759,-0.020742,0.01320969,-0.760602,-2.431557,1.189855
0,3.999988,71,266,498,506,-0.005669124,0.004992991,0.00509122,-1.397741,-2.956589,-1.639179,-0.002326324,-0.0186168,0.01641002,-0.7603282,-2.431707,1.189895
0,4.011099,71,285,497,488,-0.007834317,0.01137907,0.006131147,-1.39782,-2.95692,-1.639057,-0.001298942,-0.003695913,0.01640015,-0.7603325,-2.431018,1.189413
0.2,4.02221,71,285,497,488,-0.006781629,0.01351591,0.006126187,-1.397878,-2.957133,-1.638975,-0.01092565,0.006926512,0.01539381,-0.7602718,-2.430543,1.18956
0.4,4.033321,71,285,497,488,-0.01317849,0.01455289,0.008244593,-1.398065,-2.957384,-1.638706,-0.01090686,0.009063065,0.01751934,-0.7601802,-2.430168,1.189222
0.6,4.044433,71,285,497,488,-0.01530244,0.01452962,0.005044364,-1.398018,-2.957545,-1.638452,-0.009816687,0.001608977,0.0185804,-0.7598994,-2.430275,1.189382
0.8,4.055544,71,285,497,488,-0.01949961,0.004918283,0.002932299,-1.397943,-2.957444,-1.638184,-0.01093551,-0.009046691,0.006867051,-0.7600422,-2.430922,1.190185
1,4.066655,71,328,498,494,-0.02366168,-0.01003853,-0.002352811,-1.3978,-2.956875,-1.637897,-0.01419819,-0.02717019,-0.01228433,-0.7603692,-2.432374,1.191484
1.2,4.077766,71,328,498,494,-0.0268352,-0.01431735,-0.001277548,-1.397868,-2.956594,-1.637552,-0.0141678,-0.03142604,-0.008015672,-0.7600875,-2.432775,1.191994
1.4,4.088878,71,328,498,494,-0.02682217,-0.01750523,0.001931718,-1.398036,-2.956295,-1.637323,-0.01197404,-0.02928677,0.003689352,-0.7596619,-2.432951,1.192207
1.6,4.099989,71,328,498,494,-0.03000328,-0.02177142,0.006196816,-1.39817,-2.955948,-1.636931,-0.01188378,-0.02076015,0.02180179,-0.7589093,-2.432495,1.191912
1.8,4.1111,72,310,499,492,-0.03532739,-0.02075262,0.002990253,-1.398182,-2.955693,-1.636476,-0.01511901,-0.002654972,0.02287928,-0.7588784,-2.431681,1.191585
2,4.122211,72,310,499,492,-0.04063639,-0.02398849,0.0008597979,-1.398173,-2.955339,-1.635859,-0.02689822,0.0122308,0.0197569,-0.758855,-2.43083,1.191663
2.2,4.133323,72,310,499,492,-0.04907898,-0.03470745,-0.005517897,-1.397923,-2.95472,-1.635256,-0.03763442,0.01433814,0.00597926,-0.7590755,-2.430531,1.192055
2.4,4.144434,72,310,499,492,-0.05531084,-0.06032602,-0.009706426,-1.397805,-2.953348,-1.634706,-0.0386828,0.01007462,0.007051938,-0.7589956,-2.430476,1.192475
2.6,4.155545,72,310,499,492,-0.06057115,-0.06995378,-0.01394912,-1.397571,-2.952409,-1.634083,-0.03862601,0.01007713,0.01771555,-0.7584299,-2.429978,1.192621
2.8,4.166656,71,291,499,507,-0.06579656,-0.08597501,-0.01710238,-1.397386,-2.950964,-1.633445,-0.03322489,0.002636172,0.02727395,-0.757836,-2.42991,1.192806
3,4.177768,71,291,499,507,-0.07216918,-0.09026497,-0.01497336,-1.397301,-2.949889,-1.632646,-0.03217637,-0.0005613267,0.02514604,-0.7574861,-2.429917,1.193305
3.200001,4.188879,71,291,499,507,-0.07859521,-0.08391691,-0.01500439,-1.397235,-2.949046,-1.631818,-0.03537044,-0.003765494,0.02410034,-0.7572113,-2.429957,1.193806
3.400001,4.19999,71,291,499,507,-0.08294569,-0.07006548,-0.008668302,-1.39732,-2.948741,-1.630917,-0.03005215,-0.01015716,0.02193324,-0.7569678,-2.430558,1.194597
3.600001,4.211102,71,287,498,502,-0.08516365,-0.05302484,-0.006604363,-1.397242,-2.948613,-1.630197,-0.03860628,-0.008047059,0.01771889,-0.7569321,-2.430554,1.195289
3.800001,4.222213,71,287,498,502,-0.09059097,-0.03706656,-0.00347285,-1.397288,-2.948652,-1.62904,-0.05244324,-0.002753951,0.02205957,-0.756627,-2.430207,1.195992
4,4.233324,71,287,498,502,-0.09373812,-0.04136397,-0.008786976,-1.39716,-2.948017,-1.628224,-0.06200197,-0.0006417185,0.02744561,-0.7562163,-2.429819,1.196544
4.2,4.244435,71,287,498,502,-0.09154436,-0.0509495,-0.01194644,-1.396997,-2.947182,-1.627417,-0.06629866,0.003607586,0.02320827,-0.7561444,-2.429559,1.197193
4.4,4.255547,71,287,498,502,-0.09148771,-0.06053695,-0.01191078,-1.396969,-2.946225,-1.62658,-0.06416897,0.005756177,0.02532166,-0.7559761,-2.429042,1.197565
4.6,4.266658,70,330,499,498,-0.09249093,-0.07332572,-0.01081139,-1.396871,-2.944997,-1.625554,-0.05883004,0.01322802,0.03061488,-0.7556757,-2.428312,1.197548
4.8,4.277769,70,330,499,498,-0.09457662,-0.08186736,-0.01185126,-1.396802,-2.943828,-1.624537,-0.06200247,0.01854453,0.03595229,-0.7553822,-2.427763,1.197842
5,4.28888,70,330,499,498,-0.09453195,-0.09037875,-0.007562598,-1.39689,-2.942543,-1.623759,-0.06519268,0.01854117,0.03703267,-0.7551239,-2.427188,1.198253
5.199999,4.299992,70,330,499,498,-0.09768362,-0.09679913,-0.01074387,-1.396745,-2.941283,-1.622808,-0.06841309,0.01746266,0.03065075,-0.7551505,-2.427026,1.198834
5.399999,4.311103,70,330,499,498,-0.09970912,-0.112809,-0.01708549,-1.396472,-2.939594,-1.62191,-0.07809823,0.009978183,0.01046139,-0.7555995,-2.427383,1.200183
5.599999,4.322214,70,283,499,515,-0.1017398,-0.1277612,-0.02343546,-1.396086,-2.937666,-1.621027,-0.08041278,0.02381438,-0.0150966,-0.7566435,-2.426999,1.200878
5.799999,4.333325,70,283,499,515,-0.1048806,-0.1363114,-0.02660177,-1.395909,-2.935936,-1.620066,-0.07609531,0.03341754,-0.00128313,-0.7565785,-2.42602,1.200902
5.999999,4.344437,70,283,499,515,-0.105962,-0.1341793,-0.0255506,-1.395651,-2.934544,-1.61909,-0.07175187,0.03769615,0.01466446,-0.7563164,-2.425009,1.200858
6.199998,4.355548,70,283,499,515,-0.1060292,-0.1224509,-0.02665809,-1.395339,-2.933692,-1.618062,-0.07802212,0.04407439,0.03706452,-0.755672,-2.423754,1.200906
6.399998,4.366659,73,304,498,497,-0.1104396,-0.09902233,-0.02141881,-1.395265,-2.93324,-1.616786,-0.0844353,0.04512572,0.03390624,-0.7556144,-2.422831,1.201347
6.599998,4.37777,73,304,498,497,-0.1179983,-0.08096115,-0.01936898,-1.395073,-2.932625,-1.615536,-0.08982464,0.05149911,0.02327329,-0.7560331,-2.421957,1.201613
6.799998,4.388882,73,304,498,497,-0.1233551,-0.07460979,-0.02045747,-1.39499,-2.931863,-1.614222,-0.09511618,0.03978048,0.02223236,-0.756039,-2.421427,1.202211
6.999998,4.399993,73,304,498,497,-0.1392742,-0.08217371,-0.02472691,-1.394654,-2.930745,-1.612563,-0.09507105,0.02912842,0.02543103,-0.7557151,-2.42116,1.203074
7.199997,4.411104,73,304,498,497,-0.1530244,-0.09931608,-0.03001925,-1.394335,-2.929179,-1.610636,-0.1003362,0.001424432,0.02440443,-0.7552826,-2.421798,1.204815
7.399997,4.422215,74,322,498,485,-0.1593296,-0.1121549,-0.03531595,-1.393877,-2.927576,-1.608974,-0.09074089,-0.00920561,0.0211555,-0.754987,-2.42224,1.205903
7.599997,4.433327,74,322,498,485,-0.1646458,-0.1121933,-0.03852537,-1.393412,-2.926386,-1.607316,-0.08432847,-0.01451246,0.02003582,-0.7549726,-2.422512,1.206674
7.799997,4.444438,74,322,498,485,-0.1689909,-0.0983664,-0.03751516,-1.393068,-2.925622,-1.605442,-0.08003362,-0.01556442,0.02534141,-0.754424,-2.422497,1.207438
7.999997,4.455549,74,322,498,485,-0.173357,-0.08240008,-0.03332821,-1.392668,-2.925094,-1.60348,-0.07894842,-0.01449123,0.03066408,-0.7538999,-2.422317,1.208304
8.199997,4.46666,72,305,499,509,-0.183108,-0.05475967,-0.03344051,-1.392297,-2.925259,-1.601137,-0.08536666,-0.01131191,0.02750386,-0.753698,-2.422274,1.209395
8.399997,4.477772,72,305,499,509,-0.1896097,-0.03562178,-0.03136013,-1.39238,-2.925265,-1.598985,-0.08423797,-0.01237857,0.03708091,-0.7530802,-2.422341,1.210258
8.599997,4.488883,72,305,499,509,-0.1971154,-0.02714617,-0.03245607,-1.392202,-2.925185,-1.596609,-0.08320245,-0.01557263,0.03068006,-0.7528815,-2.422609,1.211362
8.799996,4.499994,72,305,499,509,-0.2044888,-0.0389277,-0.03990313,-1.391414,-2.924485,-1.594277,-0.09608573,-0.02199009,0.007295381,-0.7536703,-2.423481,1.213103
8.999996,4.511106,72,305,499,509,-0.2086377,-0.05496138,-0.04944449,-1.390651,-2.923424,-1.592008,-0.1046864,-0.0230777,-0.006501798,-0.7539856,-2.424057,1.214948
9.199996,4.522217,72,371,498,493,-0.2137228,-0.09233187,-0.06424645,-1.389563,-2.921333,-1.589714,-0.1175108,-0.01032761,-0.009628516,-0.7542616,-2.423825,1.216298
9.399996,4.533328,72,371,498,493,-0.2189405,-0.106227,-0.07060408,-1.388665,-2.919939,-1.587605,-0.1173791,-0.002859369,0.01486609,-0.7536325,-2.423201,1.217004
9.599996,4.544439,72,371,498,493,-0.222063,-0.1190256,-0.0695025,-1.387963,-2.918225,-1.585373,-0.1140554,-0.001775295,0.03721874,-0.7527121,-2.422595,1.217743
9.799995,4.555551,72,371,498,493,-0.2210449,-0.1158018,-0.06416927,-1.387613,-2.917121,-1.582919,-0.1032405,-0.004933715,0.06165453,-0.7515169,-2.422111,1.218088
9.999995,4.566662,72,371,498,493,-0.2221994,-0.1008942,-0.05889192,-1.387167,-2.916163,-1.580711,-0.09465975,-0.02195463,0.0658818,-0.750409,-2.422534,1.219386
10.2,4.577773,80,317,498,486,-0.2234083,-0.07955146,-0.04831761,-1.386865,-2.915935,-1.578308,-0.09672049,-0.03261063,0.07335411,-0.7492623,-2.422894,1.220769
10.39999,4.588884,80,317,498,486,-0.2287535,-0.07638714,-0.04833924,-1.386324,-2.915152,-1.575726,-0.09884804,-0.04114114,0.07017966,-0.7482747,-2.423465,1.222352
10.59999,4.599996,80,317,498,486,-0.2319497,-0.0732222,-0.0568803,-1.385388,-2.914593,-1.573192,-0.1053177,-0.04222116,0.05315906,-0.7482156,-2.424054,1.22384
10.79999,4.611107,80,317,498,486,-0.2372543,-0.07223506,-0.06647645,-1.384463,-2.913623,-1.57071,-0.1203048,-0.02734974,0.04683604,-0.7480478,-2.423899,1.225444
10.99999,4.622218,93,309,497,484,-0.2329147,-0.08396118,-0.07602784,-1.383203,-2.912311,-1.568345,-0.1246203,-0.01031615,0.04472575,-0.7477544,-2.423186,1.226437
11.19999,4.633329,93,309,497,484,-0.2360623,-0.09144035,-0.07919382,-1.382382,-2.911174,-1.56582,-0.1160837,0.008888796,0.05532301,-0.747152,-2.421703,1.226416
11.39999,4.644441,93,309,497,484,-0.2296801,-0.09033414,-0.07918431,-1.381515,-2.91026,-1.563598,-0.1053328,0.01105826,0.06908711,-0.7464138,-2.420924,1.226353
11.59999,4.655552,93,309,497,484,-0.2255231,-0.07536346,-0.07072027,-1.380773,-2.909906,-1.56131,-0.09460829,0.0004323423,0.07756153,-0.7451349,-2.420772,1.227078
11.79999,4.666663,93,309,497,484,-0.2182541,-0.04758321,-0.05907948,-1.380463,-2.910165,-1.559031,-0.08600537,-0.01019382,0.08389149,-0.7441788,-2.420823,1.227582
11.99999,4.677774,93,326,498,491,-0.2121015,-0.01021841,-0.04960472,-1.380149,-2.911176,-1.556656,-0.0668297,-0.01014142,0.08271429,-0.7433569,-2.420374,1.227386
12.19999,4.688886,93,326,498,491,-0.2079498,0.00686533,-0.04539184,-1.379773,-2.911761,-1.554357,-0.05948524,-0.006938651,0.06456585,-0.7430273,-2.420329,1.227811
12.39999,4.699997,93,326,498,491,-0.2059573,0.03136794,-0.04971543,-1.379296,-2.912787,-1.55188,-0.06176283,0.003702663,0.04219905,-0.7433665,-2.420014,1.228236
12.59999,4.711108,93,326,498,491,-0.2101899,0.02813044,-0.05290566,-1.378664,-2.912938,-1.549437,-0.06490085,0.0005002022,0.05074536,-0.7425484,-2.419713,1.228843
12.79999,4.722219,84,285,499,498,-0.2015564,0.01113435,-0.05604287,-1.377768,-2.912698,-1.547519,-0.06061617,-0.003754146,0.05284321,-0.7418965,-2.419756,1.229413
12.99999,4.733331,84,285,499,498,-0.2194085,-0.02525169,-0.07512879,-1.37647,-2.91154,-1.544913,-0.05851142,-0.005879283,0.04750515,-0.741505,-2.419709,1.229948
13.19999,4.744442,84,285,499,498,-0.2246868,-0.03802928,-0.0633816,-1.376001,-2.910754,-1.542366,-0.04999289,0.0101229,0.05384802,-0.7409191,-2.418505,1.229406
13.39999,4.755553,84,285,499,498,-0.2172254,-0.04010246,-0.05909605,-1.375512,-2.91036,-1.540283,-0.06070793,0.01968344,0.04643874,-0.7409255,-2.417749,1.229742
13.59999,4.766665,84,285,499,498,-0.2225392,-0.04226447,-0.05909982,-1.374838,-2.90984,-1.537771,-0.06924514,0.02072743,0.04435757,-0.7406043,-2.417182,1.230338
13.79999,4.777776,114,334,493,493,-0.2257793,-0.03270091,-0.06021148,-1.374009,-2.909711,-1.535357,-0.08843338,0.03347595,0.04659859,-0.7403231,-2.415721,1.230694
13.99999,4.788887,114,334,493,493,-0.2269113,-0.02099081,-0.0623759,-1.373374,-2.90987,-1.532767,-0.08942958,0.03347515,0.0583301,-0.7394357,-2.414721,1.230963
14.19999,4.799998,114,334,493,493,-0.2344708,-0.005062312,-0.06245732,-1.372521,-2.910145,-1.529804,-0.07111654,0.02287605,0.08591355,-0.7379731,-2.413973,1.230445
14.39999,4.81111,114,334,493,493,-0.2419991,0.007677068,-0.06464496,-1.371785,-2.910637,-1.526873,-0.04123902,0.03040835,0.09745441,-0.7368737,-2.412548,1.229065
14.59999,4.822221,109,229,499,503,-0.2442325,0.02471229,-0.06364088,-1.371135,-2.911413,-1.523955,-0.02547998,0.02617957,0.05580654,-0.7375236,-2.4125,1.228776
14.79999,4.833332,109,229,499,503,-0.2464937,0.04602604,-0.05839475,-1.370594,-2.91256,-1.521045,-0.02463153,0.02084543,0.01638696,-0.7383657,-2.412819,1.229288
14.99999,4.844443,109,229,499,503,-0.2476368,0.05880728,-0.05737519,-1.370023,-2.913616,-1.518046,-0.03018305,0.01655666,-0.02298604,-0.7393969,-2.413377,1.230337
15.19999,4.855555,109,229,499,503,-0.2497779,0.06093636,-0.05633205,-1.369331,-2.914458,-1.515089,-0.03978033,0.004810771,-0.02931234,-0.7396046,-2.413925,1.231463
15.39999,4.866666,109,229,499,503,-0.2518944,0.05668031,-0.05099583,-1.36895,-2.915011,-1.512124,-0.04068462,-0.002642516,-0.004802884,-0.7389356,-2.413931,1.23194
15.59999,4.877777,110,303,498,500,-0.2582124,0.04703761,-0.05416915,-1.368323,-2.915239,-1.509203,-0.05004212,-0.02607845,0.02294732,-0.7377606,-2.414422,1.232925
15.79999,4.888888,110,303,498,500,-0.2559801,0.03319051,-0.06155818,-1.36768,-2.915502,-1.506452,-0.07776792,-0.03467184,0.01459276,-0.7375731,-2.415401,1.235268
15.99999,4.9,110,303,498,500,-0.2516538,0.0246766,-0.06685229,-1.366744,-2.915617,-1.503821,-0.0767196,-0.02933357,0.01243489,-0.7377936,-2.415507,1.23601
16.19999,4.911111,110,303,498,500,-0.2505377,0.01615344,-0.07002065,-1.365851,-2.915719,-1.500967,-0.07875919,-0.01761898,0.03269457,-0.7368519,-2.414836,1.236387
16.39999,4.922222,110,303,498,500,-0.2462627,0.01405001,-0.07001001,-1.365011,-2.915906,-1.498331,-0.07549772,-0.01014106,0.0443787,-0.7363326,-2.414227,1.236461
16.59999,4.933333,101,281,499,499,-0.2451946,0.01300478,-0.06574769,-1.364349,-2.916073,-1.495682,-0.08708662,0.00368394,0.0721484,-0.7348567,-2.412869,1.236738
16.79999,4.944445,101,281,499,499,-0.2483827,0.01297143,-0.06895413,-1.363443,-2.916236,-1.492818,-0.08172942,0.01755744,0.08169219,-0.7341206,-2.411424,1.236325
16.99999,4.955556,101,281,499,499,-0.246306,0.01835036,-0.05725133,-1.363152,-2.916627,-1.490077,-0.07961933,0.03140971,0.08380961,-0.7334154,-2.409955,1.236041
17.19999,4.966667,101,281,499,499,-0.2420496,0.0173052,-0.05511484,-1.362496,-2.916716,-1.487417,-0.07965734,0.04738891,0.08379728,-0.7330058,-2.408182,1.235596
17.39999,4.977778,138,277,497,500,-0.2366991,0.0141371,-0.05722387,-1.36181,-2.91688,-1.484917,-0.0743991,0.03674682,0.06993236,-0.7324838,-2.407815,1.236193
17.59999,4.98889,138,277,497,500,-0.2377124,0.007704419,-0.06358288,-1.361109,-2.916729,-1.482302,-0.06807211,0.01225136,0.04860136,-0.7322345,-2.408637,1.237356
17.8,5.000001,138,277,497,500,-0.2430163,0.004470258,-0.06571517,-1.360339,-2.916771,-1.479453,-0.06607408,-0.01119072,0.01770961,-0.7324476,-2.409961,1.239163
18,5.011112,138,277,497,500,-0.2472502,0.003381001,-0.06996354,-1.35971,-2.917051,-1.476712,-0.06943692,-0.01653437,-0.01315765,-0.7331592,-2.410828,1.240633
18.2,5.022223,138,277,497,500,-0.2504759,0.007627003,-0.06891786,-1.359022,-2.917331,-1.473742,-0.0812876,-0.005924679,-0.03122025,-0.7341238,-2.411211,1.242133
18.4,5.033335,140,293,497,493,-0.2537158,0.01188269,-0.06147651,-1.358641,-2.917514,-1.470746,-0.09304871,0.01215764,-0.03114753,-0.7345025,-2.410443,1.242907
18.6,5.044446,140,293,497,493,-0.2665904,0.01508482,-0.0518736,-1.359073,-2.918565,-1.466468,-0.1067591,0.0558189,0.01154906,-0.7336966,-2.407011,1.241976
18.8,5.055557,140,293,497,493,-0.2803822,-0.001997107,-0.04224205,-1.359019,-2.918263,-1.462727,-0.1181769,0.0717909,0.06807434,-0.7319357,-2.404122,1.241285
19,5.066669,140,293,497,493,-0.2887949,-0.01910368,-0.04647135,-1.358227,-2.91769,-1.459427,-0.140432,0.07600433,0.08951817,-0.7307064,-2.402073,1.241854
19.2,5.07778,124,276,498,498,-0.2908159,-0.03937522,-0.05491475,-1.357472,-2.91698,-1.455899,-0.1414763,0.06640917,0.09166852,-0.7297764,-2.400975,1.242817
19.4,5.088891,124,276,498,498,-0.2822373,-0.04679429,-0.05486778,-1.356861,-2.916179,-1.453363,-0.1298188,0.05791134,0.07775353,-0.7294622,-2.400201,1.243349
19.6,5.100002,124,276,498,498,-0.2833989,-0.03189511,-0.05917895,-1.356147,-2.916362,-1.449914,-0.1161057,0.04728305,0.05106123,-0.7295506,-2.399926,1.244055
19.8,5.111114,124,276,498,498,-0.2930283,-0.02344227,-0.06242928,-1.35528,-2.916441,-1.446402,-0.1205035,0.02915363,0.02020393,-0.7299799,-2.400491,1.245953
20,5.122225,124,276,498,498,-0.3240318,-0.004433813,-0.06467097,-1.354796,-2.917233,-1.441775,-0.1289922,0.01955105,0.02131066,-0.7298478,-2.400329,1.247456
20.2,5.133336,130,206,498,494,-0.358161,0.003866192,-0.07329584,-1.353732,-2.917723,-1.436692,-0.1353512,0.01101546,0.0234824,-0.7294813,-2.400256,1.249067
20.40001,5.144447,130,206,498,494,-0.3741966,0.01334712,-0.07441801,-1.353017,-2.918108,-1.432066,-0.1374077,0.0003555566,0.03200946,-0.7289381,-2.400502,1.250821
20.60001,5.155559,130,206,498,494,-0.3880364,0.01325718,-0.07871439,-1.352007,-2.918486,-1.427313,-0.1500375,-0.004992589,0.05766235,-0.727533,-2.400037,1.252609
20.80001,5.16667,130,206,498,494,-0.3943836,0.00787443,-0.08403525,-1.350953,-2.918585,-1.422805,-0.1467581,-0.01137316,0.06936383,-0.7264438,-2.399907,1.254058
21.00001,5.177781,141,290,497,498,-0.3900804,0.001513508,-0.08507701,-1.349921,-2.918706,-1.41859,-0.1488568,-0.01137643,0.07576548,-0.7255362,-2.39962,1.255599
21.20001,5.188892,141,290,497,498,-0.3867775,-0.013425,-0.09674211,-1.348439,-2.918298,-1.414443,-0.1478455,-0.003921896,0.0693704,-0.7249231,-2.399127,1.256829
21.40001,5.200004,141,290,497,498,-0.3845638,-0.02514638,-0.1030944,-1.34703,-2.918004,-1.4103,-0.1489145,-0.0017941,0.07044251,-0.7241614,-2.398713,1.258266
21.60001,5.211115,141,290,497,498,-0.3920178,-0.02521026,-0.1062976,-1.345818,-2.917859,-1.405744,-0.1574506,-0.0007532984,0.06836604,-0.7234008,-2.398417,1.260009
21.80001,5.222226,141,290,497,498,-0.4100903,-0.02960283,-0.1137714,-1.344359,-2.917671,-1.400698,-0.1649291,0.003480405,0.06521954,-0.722693,-2.398052,1.261654
22.00001,5.233337,123,220,499,503,-0.4228756,-0.02542936,-0.1169891,-1.343175,-2.91772,-1.395927,-0.1605586,0.01094137,0.0875641,-0.7211995,-2.397051,1.262619
22.20001,5.244449,123,220,499,503,-0.4313696,-0.02341554,-0.1287196,-1.341573,-2.917476,-1.391249,-0.1700262,0.002402782,0.1046672,-0.7196074,-2.396514,1.264302
22.40001,5.25556,123,220,499,503,-0.4302792,-0.02446747,-0.1393831,-1.339583,-2.917551,-1.386486,-0.1828199,-0.001892388,0.1015494,-0.7185422,-2.396304,1.266528
22.60001,5.266671,123,220,499,503,-0.4238836,-0.02025627,-0.1511138,-1.337465,-2.917667,-1.381918,-0.1967318,0.01405191,0.09736311,-0.7178178,-2.39518,1.268223
22.80001,5.277782,123,220,499,503,-0.4281158,-0.02351337,-0.1585703,-1.335441,-2.917657,-1.376937,-0.1925195,0.0385612,0.1005377,-0.716858,-2.393023,1.268724
23.00002,5.288894,152,193,501,498,-0.4419445,-0.02361808,-0.1660463,-1.333524,-2.917791,-1.371724,-0.1860673,0.05456078,0.1175391,-0.7155226,-2.390672,1.268844
23.20002,5.300005,152,193,501,498,-0.4483185,-0.02686247,-0.1692366,-1.33158,-2.917814,-1.366451,-0.1699222,0.03647888,0.1398277,-0.7132744,-2.390143,1.270022
23.40002,5.311116,152,193,501,498,-0.4621993,-0.02160539,-0.1703573,-1.329604,-2.918249,-1.360789,-0.1559116,0.02053699,0.1610666,-0.7109053,-2.389323,1.27083
23.60002,5.322227,152,193,501,498,-0.4666218,0.007114946,-0.1683439,-1.327779,-2.919303,-1.355429,-0.1527332,0.003490388,0.1525406,-0.7092083,-2.389178,1.272489
23.80002,5.333339,160,225,496,499,-0.4677038,0.01244139,-0.1705047,-1.32585,-2.920142,-1.350149,-0.1634274,-0.01996902,0.1377012,-0.7077904,-2.389726,1.275152
24.00002,5.34445,160,225,496,499,-0.4720708,0.03264156,-0.176961,-1.324094,-2.921556,-1.344466,-0.1677311,-0.02637854,0.1292148,-0.7062932,-2.389922,1.277413
24.20002,5.355561,160,225,496,499,-0.4742459,0.04327086,-0.1823191,-1.322262,-2.922876,-1.338944,-0.1634615,-0.0135809,0.137719,-0.7045526,-2.388792,1.278415
24.40002,5.366673,160,225,496,499,-0.4785464,0.05175254,-0.1855538,-1.320335,-2.924147,-1.333267,-0.1571083,0.003478885,0.138743,-0.7032029,-2.387433,1.279016
24.60002,5.377784,160,225,496,499,-0.4785734,0.05706849,-0.1898296,-1.318403,-2.925461,-1.327564,-0.1550279,0.010934,0.1344753,-0.7018505,-2.386421,1.280024
24.80002,5.388895,154,218,498,497,-0.4764198,0.05388187,-0.1930097,-1.316384,-2.926569,-1.322016,-0.1614174,0.005587399,0.1345162,-0.7003437,-2.38605,1.281847
25.00002,5.400006,154,218,498,497,-0.4711146,0.05816013,-0.1940884,-1.314342,-2.927798,-1.316644,-0.1635105,0.005583733,0.1409203,-0.698692,-2.385161,1.283009
25.20002,5.411118,154,218,498,497,-0.4679375,0.0624105,-0.1972911,-1.312353,-2.929012,-1.311199,-0.1645648,0.005578071,0.1441282,-0.6969886,-2.384333,1.28435
25.40002,5.422229,154,218,498,497,-0.4615881,0.06884714,-0.1951688,-1.310583,-2.930516,-1.305889,-0.156006,0.0151929,0.1536684,-0.6952336,-2.382683,1.28453
25.60003,5.43334,187,211,499,498,-0.4647915,0.07200947,-0.1983664,-1.308769,-2.931941,-1.300359,-0.1602632,0.006649673,0.1505057,-0.6935553,-2.382368,1.286155
25.80003,5.444451,187,211,499,498,-0.4573306,0.06887271,-0.1972583,-1.307052,-2.933286,-1.294985,-0.1730226,0.007687837,0.1559038,-0.6918738,-2.381339,1.287677
26.00003,5.455563,187,211,499,498,-0.4604412,0.05499488,-0.2014776,-1.304911,-2.934233,-1.289453,-0.1750291,0.007694304,0.1750977,-0.6894871,-2.37995,1.288455
26.20003,5.466674,187,211,499,498,-0.4560842,0.03903122,-0.2035266,-1.302889,-2.934879,-1.284312,-0.1642231,-0.008256286,0.1952811,-0.6866418,-2.379596,1.289721
26.40003,5.477785,187,211,499,498,-0.4528143,0.02838049,-0.2109361,-1.300548,-2.935776,-1.279122,-0.172837,-0.01041403,0.178289,-0.6851653,-2.379288,1.291601
26.60003,5.488896,181,169,501,503,-0.4527602,0.01983778,-0.216242,-1.298023,-2.936551,-1.273784,-0.181435,0.0002127588,0.1708833,-0.6835616,-2.378175,1.293074
26.80003,5.500008,181,169,501,503,-0.445278,0.01561816,-0.2172757,-1.295736,-2.937363,-1.268824,-0.1761883,0.02472708,0.1676514,-0.6820989,-2.375988,1.293223
27.00003,5.511119,181,169,501,503,-0.4398783,0.003932931,-0.2183108,-1.293129,-2.937943,-1.263901,-0.1762305,0.03750962,0.1665826,-0.6805426,-2.374087,1.29378
27.20003,5.52223,181,169,501,503,-0.4324098,-0.0002669059,-0.2129579,-1.290935,-2.93854,-1.259074,-0.1783045,0.04602256,0.1815195,-0.6781841,-2.37205,1.294403
27.40003,5.533341,181,169,501,503,-0.4291837,-0.007712729,-0.2107889,-1.288712,-2.938884,-1.254146,-0.1761479,0.05348617,0.1889626,-0.6761612,-2.369744,1.294509
27.60003,5.544453,175,180,495,497,-0.4249241,-0.007653903,-0.202238,-1.287,-2.939447,-1.249642,-0.170792,0.04924315,0.1910619,-0.6742655,-2.368073,1.294841
27.80003,5.555564,175,180,495,497,-0.4217892,-0.000144247,-0.1958577,-1.285243,-2.940404,-1.244708,-0.1515113,0.03117883,0.2037477,-0.6715059,-2.367182,1.295478
28.00003,5.566675,175,180,495,497,-0.4165124,0.006305134,-0.1905555,-1.2833,-2.941424,-1.239896,-0.1451166,0.02054235,0.2005118,-0.6695262,-2.366249,1.296263
28.20004,5.577786,175,180,495,497,-0.4113398,0.01800859,-0.1831065,-1.281705,-2.941883,-1.234374,-0.1365824,0.01523778,0.2015296,-0.6673264,-2.365154,1.296807
28.40004,5.588898,198,153,512,500,-0.4039635,0.02976234,-0.1788625,-1.28013,-2.942891,-1.229779,-0.1441232,0.008829832,0.1855868,-0.665868,-2.364525,1.298169
28.60004,5.600009,198,153,512,500,-0.3976795,0.04041745,-0.1735562,-1.278516,-2.943671,-1.224815,-0.1558691,0.009873092,0.1803329,-0.6641194,-2.36335,1.299252
28.80004,5.61112,198,153,512,500,-0.3923573,0.04258216,-0.1714354,-1.276814,-2.944804,-1.220407,-0.1547966,0.025846,0.189908,-0.6619974,-2.361359,1.299505
29.00004,5.622231,198,153,512,500,-0.385979,0.04152395,-0.1714236,-1.275025,-2.945596,-1.215819,-0.1515847,0.03224638,0.1952145,-0.6599126,-2.359529,1.29967
29.20004,5.633343,198,153,512,500,-0.3711791,0.05444166,-0.1544043,-1.274086,-2.9469,-1.211625,-0.1387803,0.03761339,0.201538,-0.6576889,-2.357394,1.299253
29.40004,5.644454,216,151,504,498,-0.3648066,0.05667854,-0.1448154,-1.273083,-2.948405,-1.20744,-0.1302549,0.03656495,0.2025567,-0.6555541,-2.355855,1.299345
29.60004,5.655565,216,151,504,498,-0.3520698,0.05892906,-0.1320074,-1.272369,-2.949522,-1.203433,-0.1323318,0.0205816,0.2046996,-0.6532995,-2.355248,1.300341
29.80004,5.666677,216,151,504,498,-0.3435621,0.06221657,-0.1266657,-1.271621,-2.95094,-1.199606,-0.1333363,0.01312396,0.2132287,-0.6507754,-2.354161,1.301095
30.00004,5.677788,216,151,504,498,-0.341455,0.06331988,-0.118139,-1.270891,-2.951993,-1.19556,-0.1227211,-0.007090464,0.1982556,-0.6488664,-2.354347,1.302266
30.20004,5.688899,230,170,496,496,-0.3372405,0.07079301,-0.1170884,-1.27005,-2.95333,-1.191536,-0.1239312,-0.009231403,0.1748309,-0.6474922,-2.354087,1.303622
30.40004,5.70001,230,170,496,496,-0.3309008,0.07619928,-0.1075102,-1.269553,-2.954787,-1.187581,-0.1282122,0.003533512,0.175914,-0.6456738,-2.352801,1.30412
30.60004,5.711122,230,170,496,496,-0.3255814,0.07521012,-0.1000482,-1.268944,-2.956129,-1.183693,-0.1293061,0.02058019,0.1791077,-0.6438826,-2.350715,1.304003
30.80005,5.722233,230,170,496,496,-0.3223439,0.06672213,-0.1032066,-1.268054,-2.957449,-1.179576,-0.1155235,0.03445953,0.1715707,-0.642428,-2.348692,1.303146
31.00005,5.733344,230,170,496,496,-0.3169981,0.06144914,-0.0967866,-1.267435,-2.958329,-1.175927,-0.1090392,0.01103449,0.176848,-0.6404146,-2.348846,1.304236
31.20005,5.744455,216,161,501,505,-0.3116662,0.05829008,-0.09037025,-1.266912,-2.95903,-1.172391,-0.1036689,-0.0145261,0.1757637,-0.6382079,-2.349374,1.305794
31.40005,5.755567,216,161,501,505,-0.3052388,0.05089425,-0.08607136,-1.266274,-2.95983,-1.168948,-0.1026479,-0.0294442,0.1619107,-0.6366345,-2.349921,1.307303
31.60005,5.766678,216,161,501,505,-0.299855,0.04135367,-0.08069179,-1.265789,-2.960279,-1.165758,-0.102705,-0.0294432,0.1544429,-0.635198,-2.349748,1.308489
31.80005,5.777789,216,161,501,505,-0.2976528,0.02753626,-0.0763711,-1.265191,-2.960567,-1.1624,-0.101615,-0.01772283,0.1629581,-0.6332273,-2.3486,1.308606
32.00005,5.7889,233,177,496,498,-0.2965049,0.01371335,-0.07419041,-1.264455,-2.960821,-1.159104,-0.1101832,-0.0006962568,0.1630004,-0.6316523,-2.347175,1.308991
32.20005,5.800012,233,177,496,498,-0.2953984,0.005212264,-0.07096133,-1.263788,-2.961024,-1.155751,-0.1155306,0.0184596,0.1672875,-0.6299356,-2.345283,1.308905
32.40005,5.811123,233,177,496,498,-0.2953608,-0.0001205332,-0.07094385,-1.262971,-2.961151,-1.152514,-0.1144637,0.03444391,0.1768555,-0.6280703,-2.343028,1.308501
32.60005,5.822234,233,177,496,498,-0.3017433,-0.003334547,-0.06774294,-1.262434,-2.961431,-1.148852,-0.1155088,0.0365704,0.1789935,-0.6261976,-2.341422,1.308334
32.80005,5.833345,233,177,496,498,-0.3017371,-0.005461831,-0.06560016,-1.26179,-2.961544,-1.14546,-0.1229992,0.03974843,0.1758374,-0.6245832,-2.339769,1.308671
33.00005,5.844457,249,162,494,497,-0.3027832,-0.008664049,-0.06559138,-1.261062,-2.961682,-1.142041,-0.1294555,0.04612377,0.1694761,-0.6232143,-2.337959,1.308979
33.20005,5.855568,249,162,494,497,-0.3028509,0.0009487839,-0.06031391,-1.260552,-2.962376,-1.138425,-0.1315822,0.04185469,0.1673508,-0.6216638,-2.336656,1.30934
33.40005,5.866679,249,162,494,497,-0.3050032,0.005224742,-0.05819691,-1.260226,-2.96297,-1.13491,-0.1283886,0.0440059,0.1694498,-0.6199881,-2.334901,1.309471
33.60006,5.87779,249,162,494,497,-0.3082544,0.01373985,-0.05609437,-1.259992,-2.963618,-1.131199,-0.127329,0.03866982,0.1673226,-0.618321,-2.333537,1.309745
33.80006,5.888902,249,162,494,497,-0.3114882,0.0179773,-0.05505059,-1.25953,-2.964094,-1.127363,-0.1220116,0.02695531,0.1630437,-0.6164962,-2.332911,1.310629
34.00006,5.900013,227,210,501,496,-0.3168646,0.02436154,-0.04975577,-1.259426,-2.964797,-1.123457,-0.1081364,0.01101647,0.157648,-0.614828,-2.332395,1.310807
34.20006,5.911124,227,210,501,496,-0.3201477,0.03607403,-0.04233095,-1.25958,-2.965432,-1.119595,-0.1102922,-0.0007107556,0.1502098,-0.613252,-2.332311,1.312162
34.40006,5.922235,227,210,501,496,-0.3222957,0.03820021,-0.03915066,-1.259411,-2.966026,-1.115826,-0.1251815,-0.02099282,0.1471067,-0.6115033,-2.333019,1.314612
34.60006,5.933347,227,210,501,496,-0.3212728,0.04353722,-0.03811906,-1.259115,-2.966917,-1.111907,-0.1283887,-0.01887837,0.1460561,-0.6099662,-2.332757,1.31592
34.80006,5.944458,246,188,498,497,-0.3224246,0.05525582,-0.03817122,-1.259034,-2.968103,-1.107698,-0.1305199,-0.00289163,0.1524648,-0.6082053,-2.330874,1.315856
35.00006,5.955569,246,188,498,497,-0.3192845,0.06486002,-0.03924955,-1.259212,-2.969169,-1.103903,-0.1305704,0.02479181,0.155656,-0.6066713,-2.328628,1.315484
35.20006,5.966681,246,188,498,497,-0.3213683,0.06057467,-0.04136671,-1.259001,-2.969854,-1.100314,-0.1444326,0.03754628,0.1599863,-0.6051533,-2.326511,1.315825
35.40006,5.977792,246,188,498,497,-0.3223664,0.04991978,-0.04239284,-1.258798,-2.970405,-1.09655,-0.1326342,0.0184001,0.1641825,-0.6031799,-2.326245,1.316593
35.60006,5.988903,246,188,498,497,-0.3307456,0.02428021,-0.04447029,-1.257855,-2.970238,-1.092494,-0.1231275,0.02374293,0.1534782,-0.6017876,-2.325005,1.31678
35.80006,6.000014,253,179,507,498,-0.3264213,0.01471066,-0.04656238,-1.257287,-2.970448,-1.088961,-0.1306901,0.04823966,0.146072,-0.6005865,-2.321941,1.315952
36.00006,6.011126,253,179,507,498,-0.3252623,-0.001270883,-0.05076602,-1.256507,-2.970433,-1.08524,-0.1349013,0.04822733,0.1556846,-0.5987495,-2.320267,1.316271
36.20007,6.022237,253,179,507,498,-0.3252593,-0.002326012,-0.04968623,-1.256199,-2.970673,-1.081536,-0.1390631,0.0450305,0.1695674,-0.5965534,-2.318399,1.316224
36.40007,6.033348,253,179,507,498,-0.3263431,0.004063755,-0.05288532,-1.255989,-2.971315,-1.077874,-0.129384,0.03227559,0.1801462,-0.5946679,-2.317408,1.316554
36.60007,6.044459,259,150,493,499,-0.3295579,0.008290902,-0.05716237,-1.25548,-2.971829,-1.073925,-0.1315379,0.02268404,0.1737675,-0.5929863,-2.316473,1.317433
36.80007,6.055571,259,150,493,499,-0.3337916,0.005058305,-0.06142667,-1.254756,-2.972246,-1.069997,-0.1337068,0.02587035,0.1673824,-0.5915334,-2.315172,1.31781
37.00007,6.066682,259,150,493,499,-0.3369915,0.00610466,-0.06250235,-1.254184,-2.972731,-1.066028,-0.1315947,0.029074,0.1673618,-0.5899445,-2.313604,1.318047
37.20007,6.077793,259,150,493,499,-0.3391166,0.005035669,-0.06036505,-1.253734,-2.973051,-1.062168,-0.1241801,0.03547409,0.1587894,-0.5886694,-2.312108,1.317669
37.40007,6.088904,259,150,493,499,-0.3370502,0.01463222,-0.06145015,-1.253391,-2.973791,-1.058133,-0.1263207,0.04719551,0.1641206,-0.5870582,-2.30965,1.317288
37.60007,6.100016,300,169,483,498,-0.3382206,0.03167448,-0.06045444,-1.253107,-2.974855,-1.053984,-0.1199016,0.03761762,0.1640861,-0.585317,-2.308597,1.317512
37.80007,6.111127,300,169,483,498,-0.338287,0.04338632,-0.06155992,-1.252841,-2.975863,-1.049929,-0.1220278,0.02803004,0.1630266,-0.5837159,-2.307702,1.318322
38.00007,6.122238,300,169,483,498,-0.3415666,0.0561473,-0.06160327,-1.252758,-2.976993,-1.045608,-0.1198351,0.01737504,0.1694108,-0.5816227,-2.307107,1.319108
38.20007,6.133349,300,169,483,498,-0.348014,0.06675003,-0.06484938,-1.252512,-2.978287,-1.041146,-0.114469,0.008862585,0.1725937,-0.5794373,-2.306224,1.319511
38.40007,6.144461,281,155,497,500,-0.3523071,0.06884815,-0.0605996,-1.252352,-2.979083,-1.036752,-0.1186778,0.003525496,0.1800799,-0.5772253,-2.305439,1.320354
38.60007,6.155572,281,155,497,500,-0.357652,0.07307558,-0.06275882,-1.25217,-2.98038,-1.032298,-0.1197209,0.001392409,0.1790245,-0.5753109,-2.304571,1.320679
38.80008,6.166683,281,155,497,500,-0.3640587,0.07518664,-0.06171833,-1.252068,-2.981725,-1.027686,-0.1197122,-0.006054938,0.1790146,-0.5735096,-2.303924,1.321563
39.00008,6.177794,281,155,497,500,-0.3650932,0.07093014,-0.06169292,-1.252025,-2.982802,-1.02336,-0.1207934,-0.01031782,0.1747493,-0.5718195,-2.303521,1.322575
39.20008,6.188906,281,155,497,500,-0.3650424,0.06344718,-0.06699466,-1.251488,-2.983651,-1.018996,-0.1293434,-0.01673122,0.1673426,-0.5701471,-2.303414,1.324157
39.40008,6.200017,272,167,502,508,-0.3702692,0.04955409,-0.0733442,-1.250864,-2.984454,-1.014578,-0.1313906,-0.0188556,0.1780069,-0.5679654,-2.302668,1.324824
39.60008,6.211128,272,167,502,508,-0.3712785,0.04099335,-0.08077389,-1.250059,-2.985194,-1.010069,-0.1249634,-0.01564318,0.1854264,-0.5657476,-2.301815,1.325335
39.80008,6.222239,272,167,502,508,-0.3712539,0.03674676,-0.07968403,-1.249691,-2.986008,-1.005718,-0.1154393,-0.0006969869,0.1821679,-0.5641187,-2.300031,1.324975
40.00008,6.233351,272,167,502,508,-0.3787082,0.03564667,-0.07649994,-1.249228,-2.986781,-1.001077,-0.1228781,0.005668208,0.1854031,-0.5620815,-2.298885,1.325393
40.20008,6.244462,272,167,502,508,-0.3766222,0.04311627,-0.07652101,-1.248882,-2.987867,-0.9966289,-0.1228647,0.00887233,0.1917883,-0.5600095,-2.297441,1.325735
40.40008,6.255573,300,196,499,507,-0.3787945,0.05056348,-0.07654793,-1.248623,-2.9891,-0.9919758,-0.1420552,0.007772416,0.1876452,-0.5580569,-2.296108,1.326598
40.60008,6.266685,300,196,499,507,-0.3820247,0.05691465,-0.0755145,-1.248213,-2.990041,-0.9874842,-0.1420352,0.01203677,0.1950929,-0.555953,-2.294607,1.327029
40.80008,6.277796,300,196,499,507,-0.3841501,0.05901686,-0.08296906,-1.247857,-2.991337,-0.9827975,-0.1291264,0.01420167,0.2141944,-0.5532078,-2.292829,1.326338
41.00008,6.288907,300,196,499,507,-0.3894802,0.06110336,-0.08405032,-1.247427,-2.992449,-0.9781029,-0.1216445,0.01102093,0.2194794,-0.5507071,-2.291713,1.326726
41.20008,6.300018,343,200,476,498,-0.3895887,0.0792104,-0.08197933,-1.247472,-2.994006,-0.9733433,-0.1163885,0.0131678,0.2087991,-0.5487465,-2.290263,1.326715
41.40009,6.31113,343,200,476,498,-0.3875219,0.08987592,-0.08201127,-1.247444,-2.995667,-0.9685826,-0.125987,0.01527569,0.2077887,-0.5465904,-2.288781,1.327087
41.60009,6.322241,343,200,476,498,-0.3875274,0.09094218,-0.08201447,-1.247235,-2.997068,-0.9638694,-0.1355719,0.01311517,0.2078462,-0.5442931,-2.287729,1.327976
41.80009,6.333352,343,200,476,498,-0.387472,0.08136794,-0.08196413,-1.247127,-2.998251,-0.9591641,-0.1238715,0.020601,0.2077817,-0.5421062,-2.285754,1.327353
42.00009,6.344463,343,200,476,498,-0.3895692,0.0770937,-0.08622192,-1.246709,-2.999708,-0.9542777,-0.1121583,0.01316881,0.2045156,-0.5400108,-2.284872,1.327587
42.20009,6.355575,298,199,478,493,-0.3939362,0.09624137,-0.08841268,-1.246876,-3.001632,-0.949247,-0.1089363,0.004654244,0.2055641,-0.5377167,-2.28412,1.328073
42.40009,6.366686,298,199,478,493,-0.3876376,0.1101118,-0.08844471,-1.246948,-3.003469,-0.9443926,-0.1099706,0.002523601,0.2119575,-0.5352837,-2.282938,1.328447
42.60009,6.377797,298,199,478,493,-0.3876978,0.120748,-0.0895617,-1.246847,-3.005391,-0.9394919,-0.1226782,-0.008150399,0.2205649,-0.5324969,-2.28206,1.329409
42.80009,6.388908,298,199,478,493,-0.3887933,0.1271189,-0.09384635,-1.24686,-3.007473,-0.9344691,-0.1269688,-0.006026447,0.2184579,-0.5301635,-2.280955,1.330119
43.00009,6.40002,276,168,508,501,-0.3899038,0.1335144,-0.08746538,-1.247267,-3.009174,-0.9296525,-0.1216692,0.006775707,0.2173528,-0.5280564,-2.278925,1.329456
43.20009,6.411131,276,168,508,501,-0.3877957,0.1367427,-0.08427165,-1.247603,-3.011193,-0.9248114,-0.1110128,0.007866114,0.2183566,-0.5257016,-2.277527,1.329201
43.40009,6.422242,276,168,508,501,-0.3835486,0.1368022,-0.08001252,-1.247911,-3.013219,-0.9199203,-0.1035757,0.002549469,0.2129861,-0.5235455,-2.276928,1.329628
43.60009,6.433353,276,168,508,501,-0.3792915,0.1378893,-0.0810657,-1.248186,-3.015096,-0.9152433,-0.1047092,0.01322408,0.2065952,-0.5216365,-2.275073,1.329144
43.80009,6.444465,276,168,508,501,-0.3729034,0.1389607,-0.08213557,-1.24809,-3.016806,-0.9107319,-0.09190544,0.01857194,0.2107804,-0.5193793,-2.272805,1.327973
44.0001,6.455576,245,148,502,501,-0.3707893,0.1421885,-0.07891958,-1.248785,-3.018644,-0.9062034,-0.09822924,0.01428856,0.2193357,-0.516829,-2.271701,1.328158
44.2001,6.466687,245,148,502,501,-0.3665264,0.140081,-0.07889888,-1.249048,-3.020377,-0.9015759,-0.09820889,0.008963242,0.2214625,-0.5144578,-2.270584,1.328325
44.4001,6.477798,245,148,502,501,-0.3622093,0.1315949,-0.07672767,-1.249248,-3.02192,-0.8973185,-0.09714346,0.005774021,0.2193353,-0.5120614,-2.269259,1.328166
44.6001,6.48891,245,148,502,501,-0.3642717,0.1198678,-0.07562667,-1.24927,-3.023322,-0.8927965,-0.09817968,0.005774245,0.2257239,-0.5096044,-2.267872,1.328176
44.8001,6.500021,329,150,494,498,-0.3802242,0.1155066,-0.07776253,-1.249448,-3.024898,-0.8876561,-0.0970732,0.005777121,0.2342283,-0.5070355,-2.266484,1.328105
45.0001,6.511132,329,150,494,498,-0.4057799,0.1132349,-0.07566579,-1.249676,-3.026429,-0.8820251,-0.0960093,0.008975729,0.2352869,-0.5044954,-2.264807,1.327692
45.2001,6.522243,329,150,494,498,-0.4026407,0.1207049,-0.075702,-1.249824,-3.028301,-0.8769528,-0.08641366,0.005801961,0.2373675,-0.5018312,-2.263508,1.327401
45.4001,6.533355,329,150,494,498,-0.3707056,0.1251681,-0.07564691,-1.250285,-3.030102,-0.8731536,-0.086445,-0.0005896688,0.2277819,-0.4995605,-2.262679,1.327569
45.6001,6.544466,329,150,494,498,-0.3398913,0.1360121,-0.07032879,-1.250616,-3.032067,-0.8694656,-0.08437613,0.009004056,0.2224438,-0.4973443,-2.260699,1.326847
45.8001,6.555577,271,164,495,504,-0.3377834,0.1392316,-0.06925204,-1.25127,-3.033834,-0.8651183,-0.08331823,0.0079391,0.2203078,-0.4949959,-2.259389,1.326545
46.0001,6.566689,271,164,495,504,-0.339877,0.132813,-0.06712337,-1.251297,-3.035257,-0.8608146,-0.09509306,0.01216732,0.2139839,-0.492835,-2.257905,1.326715
46.2001,6.5778,271,164,495,504,-0.3377474,0.1328267,-0.06711644,-1.251737,-3.036916,-0.8566324,-0.09295216,0.008976042,0.213978,-0.4904712,-2.256608,1.326509
46.4001,6.588911,271,164,495,504,-0.3399044,0.1370692,-0.06608314,-1.252061,-3.038709,-0.8522893,-0.07904749,-0.0005726516,0.2213491,-0.4879465,-2.255752,1.326373
46.60011,6.600022,271,164,495,504,-0.3463163,0.1381174,-0.06503224,-1.252705,-3.040607,-0.847486,-0.07476986,-0.006954908,0.2223827,-0.4856051,-2.255058,1.326539
46.80011,6.611134,267,152,491,496,-0.3633774,0.1401532,-0.06293972,-1.253331,-3.042329,-0.8424548,-0.08757958,-0.001669139,0.2181911,-0.4834223,-2.253863,1.326687
47.00011,6.622245,267,152,491,496,-0.3740901,0.1464665,-0.05762859,-1.254308,-3.043993,-0.8375082,-0.09296091,0.004724786,0.2139521,-0.4812316,-2.252361,1.326635
47.20011,6.633356,267,152,491,496,-0.3687595,0.148684,-0.05443597,-1.255131,-3.045742,-0.8331997,-0.08657207,0.01325163,0.2150002,-0.4788278,-2.249937,1.325238
47.40011,6.644467,267,152,491,496,-0.3538575,0.1488023,-0.04910509,-1.255841,-3.047572,-0.82905,-0.09403401,0.01215766,0.2139856,-0.4764358,-2.248756,1.325439
47.60011,6.655579,291,165,499,500,-0.3432432,0.1552629,-0.04910029,-1.256828,-3.049476,-0.824936,-0.1014634,0.01533972,0.2193646,-0.4738807,-2.246713,1.324921
47.80011,6.66669,291,165,499,500,-0.3400457,0.1563197,-0.05549234,-1.257402,-3.05133,-0.820644,-0.08756019,0.003653467,0.2246211,-0.4711739,-2.245816,1.324762
48.00011,6.677801,291,165,499,500,-0.3485171,0.1467188,-0.05119909,-1.258328,-3.05285,-0.816048,-0.08114505,0.003655463,0.227774,-0.4686913,-2.244732,1.324427
48.20011,6.688912,291,165,499,500,-0.3570128,0.1413517,-0.04909844,-1.258682,-3.054546,-0.8112937,-0.09610913,-0.005970091,0.2161457,-0.4665331,-2.244281,1.325597
48.40011,6.700024,291,165,499,500,-0.3559301,0.1242744,-0.04796633,-1.258698,-3.055306,-0.8061026,-0.09934213,0.003606081,0.2140237,-0.4644302,-2.242502,1.325192
48.60011,6.711135,252,175,499,495,-0.3473881,0.1200752,-0.04474093,-1.259234,-3.056515,-0.8021042,-0.09402248,0.01427212,0.2171872,-0.4621288,-2.240141,1.323974
48.80011,6.722246,252,175,499,495,-0.3260991,0.1212986,-0.03723735,-1.260167,-3.057673,-0.7988546,-0.09401071,0.02279089,0.2225259,-0.4594869,-2.237789,1.322865
49.00011,6.733357,252,175,499,495,-0.3272884,0.1308574,-0.03514175,-1.260963,-3.059016,-0.7939608,-0.09303798,0.0281114,0.2086757,-0.4576163,-2.23584,1.322154
49.20012,6.744469,252,175,499,495,-0.3455702,0.1456542,-0.02772437,-1.262445,-3.060077,-0.7884581,-0.09414577,0.01958969,0.1990851,-0.4558623,-2.23477,1.322351
49.40012,6.75558,271,185,501,501,-0.3871137,0.1496703,-0.02780642,-1.263646,-3.061498,-0.7831403,-0.1014811,-0.01238514,0.2065952,-0.4531827,-2.235356,1.324168
49.60012,6.766691,271,185,501,501,-0.4095308,0.1559408,-0.02360618,-1.264893,-3.063013,-0.7775344,-0.1046462,-0.01772518,0.2108792,-0.4505941,-2.234845,1.325025
49.80012,6.777802,271,185,501,501,-0.3978269,0.1613345,-0.02680289,-1.265987,-3.064803,-0.7731236,-0.1056806,-0.02839513,0.2119512,-0.4482026,-2.2352,1.326523
50.00012,6.788914,271,185,501,501,-0.378686,0.1667804,-0.02572196,-1.26726,-3.066463,-0.7689425,-0.1003582,-0.02412121,0.2129854,-0.4458371,-2.234147,1.326538
50.20012,6.800025,271,185,501,501,-0.3488709,0.1691218,-0.02246594,-1.26881,-3.068091,-0.7655006,-0.1024944,-0.02199329,0.2087325,-0.443729,-2.233242,1.326613
50.40012,6.811136,300,200,492,498,-0.3520646,0.1616094,-0.02350923,-1.26955,-3.069173,-0.7606356,-0.1078514,-0.01454946,0.2055787,-0.4414584,-2.231876,1.326697
50.60012,6.822248,300,200,492,498,-0.3573516,0.1498117,-0.02773528,-1.270033,-3.07021,-0.7556539,-0.1132095,-0.01242232,0.2002877,-0.4394035,-2.230628,1.326925
50.80012,6.833359,300,200,492,498,-0.3700773,0.1412333,-0.02664008,-1.271156,-3.07137,-0.7509965,-0.1142141,-0.0102931,0.2130777,-0.4367227,-2.229141,1.326957
51.00012,6.84447,300,200,492,498,-0.3870665,0.1283282,-0.02450515,-1.271576,-3.072173,-0.7457922,-0.1067381,-0.0102745,0.2162326,-0.4342721,-2.227932,1.326865
51.20012,6.855581,251,165,490,501,-0.3902047,0.1187447,-0.021268,-1.272426,-3.073103,-0.7411551,-0.1141866,-0.02627279,0.2109512,-0.4319456,-2.22833,1.328683
51.40012,6.866693,251,165,490,501,-0.3774048,0.1198679,-0.02447285,-1.272961,-3.074394,-0.737148,-0.1141967,-0.0252074,0.2109554,-0.4295317,-2.227535,1.32934
51.60012,6.877804,251,165,490,501,-0.3635978,0.1274448,-0.02125357,-1.274432,-3.07571,-0.7331954,-0.109948,-0.03158361,0.2066747,-0.4272211,-2.227265,1.330268
51.80013,6.888915,251,165,490,501,-0.3657233,0.1316881,-0.0234231,-1.275253,-3.077191,-0.7289855,-0.1132095,-0.03265643,0.1939033,-0.4254917,-2.227171,1.331457
52.00013,6.900026,251,165,490,501,-0.371007,0.1241907,-0.02448273,-1.275751,-3.078349,-0.7242722,-0.1110547,-0.03264007,0.197091,-0.4231843,-2.226313,1.331788
52.20013,6.911138,319,201,495,496,-0.3688728,0.1242222,-0.02339088,-1.276971,-3.079417,-0.7200293,-0.09935635,-0.0240874,0.1959507,-0.4211768,-2.224993,1.331286
52.40013,6.922249,319,201,495,496,-0.3646176,0.1210156,-0.02657963,-1.277376,-3.080474,-0.7153085,-0.1014878,-0.01770751,0.1959646,-0.4190266,-2.223969,1.331366
52.60013,6.93336,319,201,495,496,-0.3635653,0.1231525,-0.02658511,-1.278268,-3.081696,-0.7109287,-0.1014821,-0.007053703,0.2012894,-0.4167474,-2.222032,1.330733
52.80013,6.944471,319,201,495,496,-0.3593071,0.1188675,-0.03186288,-1.278796,-3.08245,-0.7063934,-0.1056757,-0.008128762,0.2087709,-0.4143005,-2.22084,1.330669
53.00013,6.955583,319,201,495,496,-0.3538417,0.09762214,-0.0296402,-1.279338,-3.083136,-0.7026079,-0.1035073,-0.00810799,0.2140952,-0.411771,-2.219036,1.330039
53.20013,6.966694,325,211,497,494,-0.3569863,0.08693497,-0.03175487,-1.279467,-3.083991,-0.6980385,-0.0981711,-0.01235861,0.2194076,-0.4088799,-2.218242,1.330676
53.40013,6.977805,325,211,497,494,-0.354795,0.07737939,-0.03169819,-1.280038,-3.084716,-0.6939388,-0.08974442,-0.0006326735,0.2076355,-0.4070008,-2.216661,1.330023
53.60013,6.988916,325,211,497,494,-0.3590239,0.07411624,-0.03916641,-1.27996,-3.085686,-0.6895941,-0.1003256,-0.03262219,0.2066441,-0.4044202,-2.218245,1.332825
53.80013,7.000028,325,211,497,494,-0.3600504,0.07305653,-0.04235196,-1.280485,-3.086771,-0.6856511,-0.1109824,-0.03584324,0.2045766,-0.4020974,-2.218158,1.334278
54.00013,7.011139,325,211,497,494,-0.3610709,0.06769841,-0.04979265,-1.280481,-3.0878,-0.6813437,-0.1067864,-0.02833441,0.2066686,-0.4000441,-2.215862,1.33394
54.20013,7.02225,325,211,497,494,-0.3610377,0.06344584,-0.05083122,-1.280717,-3.088684,-0.6771561,-0.1015062,-0.01768968,0.2013035,-0.3980712,-2.214951,1.333967
54.40014,7.033361,325,211,497,494,-0.3557578,0.06560541,-0.0486925,-1.281042,-3.089427,-0.6727598,-0.09941779,-0.01236089,0.1980959,-0.3960115,-2.213555,1.333883
54.60014,7.044473,325,211,497,494,-0.3568297,0.06665832,-0.04656275,-1.281268,-3.090161,-0.6686132,-0.08990593,0.002585098,0.1959092,-0.3940583,-2.21085,1.332479
54.80014,7.055584,325,211,497,494,-0.3505554,0.0880136,-0.04979903,-1.282434,-3.091661,-0.6645823,-0.08137301,-0.008058101,0.1926649,-0.3919784,-2.210852,1.333066
55.00014,7.066695,333,170,480,498,-0.3485145,0.09972642,-0.05090174,-1.283023,-3.092939,-0.660106,-0.08345072,-0.01659092,0.1969498,-0.3894846,-2.210631,1.333774
55.20014,7.077806,333,170,480,498,-0.3496116,0.1071809,-0.05518503,-1.28384,-3.09453,-0.6558311,-0.0823476,-0.01871175,0.2022807,-0.3869456,-2.209493,1.333565
55.40014,7.088918,333,170,480,498,-0.352811,0.1060636,-0.05838649,-1.284093,-3.095671,-0.6513293,-0.0791533,-0.01976593,0.2022761,-0.3845865,-2.208366,1.333372
55.60014,7.100029,333,170,480,498,-0.3517264,0.1028743,-0.05837389,-1.284548,-3.096888,-0.6470864,-0.07805702,-0.03041616,0.203337,-0.3822062,-2.208632,1.334457
55.80014,7.11114,337,166,501,496,-0.3473638,0.09227619,-0.05725424,-1.285073,-3.097915,-0.6436125,-0.07909031,-0.04320392,0.2044169,-0.3797103,-2.209299,1.335973
56.00014,7.122252,337,166,501,496,-0.3451639,0.08268585,-0.0593622,-1.284993,-3.098975,-0.6396226,-0.08018962,-0.05066404,0.1980323,-0.3775553,-2.210034,1.337772
56.20014,7.133363,337,166,501,496,-0.3452027,0.09122627,-0.06044256,-1.285842,-3.100362,-0.6355661,-0.07380149,-0.0389314,0.2022557,-0.3752373,-2.20893,1.337412
56.40014,7.144474,337,166,501,496,-0.350671,0.1146408,-0.05733812,-1.286983,-3.102009,-0.6311223,-0.0738295,-0.03467998,0.199071,-0.3729043,-2.2085,1.337834
56.60014,7.155585,337,166,501,496,-0.3774104,0.1326206,-0.05317564,-1.288428,-3.103641,-0.6259078,-0.06851281,-0.03893548,0.1937085,-0.3709038,-2.208971,1.338761
56.80014,7.166697,335,163,498,500,-0.4244419,0.1579209,-0.04695511,-1.290061,-3.105459,-0.6194316,-0.0727554,-0.05598943,0.1905473,-0.3685905,-2.210498,1.341145
57.00014,7.177808,335,163,498,500,-0.3893125,0.1645335,-0.05009201,-1.291592,-3.107156,-0.615742,-0.07697847,-0.06133223,0.194832,-0.3661522,-2.211535,1.343077
57.20015,7.188919,335,163,498,500,-0.3297123,0.1755616,-0.05005414,-1.29307,-3.109284,-0.6131827,-0.07694943,-0.06559439,0.201233,-0.3635098,-2.212207,1.344759
57.40015,7.20003,335,163,498,500,-0.3137696,0.1820633,-0.05008778,-1.294455,-3.111517,-0.6093957,-0.07908923,-0.06879507,0.2001791,-0.3611779,-2.213219,1.346803
57.60015,7.211142,335,163,498,500,-0.3157948,0.1681793,-0.05537972,-1.295101,-3.113074,-0.6055006,-0.0738166,-0.03575698,0.2044103,-0.3589249,-2.210289,1.344783
57.80015,7.222253,324,173,483,502,-0.3177294,0.1415467,-0.05424196,-1.295433,-3.11432,-0.6020305,-0.05352304,-0.03890225,0.2128253,-0.356152,-2.209884,1.344519
58.00015,7.233364,324,173,483,502,-0.3336458,0.1360976,-0.06170965,-1.296081,-3.115868,-0.597787,-0.0536133,-0.0410379,0.195787,-0.3542755,-2.210424,1.345619
58.20015,7.244475,324,173,483,502,-0.3836637,0.126228,-0.05218066,-1.296653,-3.116783,-0.5921118,-0.06221099,-0.03573251,0.1862461,-0.3524555,-2.209903,1.346183
58.40015,7.255587,324,173,483,502,-0.3836108,0.1208905,-0.05218066,-1.297112,-3.118046,-0.5878693,-0.05794507,-0.02613375,0.1904859,-0.3502052,-2.208472,1.345344
58.60015,7.266698,323,173,504,493,-0.3270726,0.1137408,-0.05739867,-1.297349,-3.119351,-0.5858368,-0.04411679,-0.01331645,0.1936039,-0.3480091,-2.206439,1.34364
58.80015,7.277809,323,173,504,493,-0.2994564,0.123445,-0.05761195,-1.296482,-3.122597,-0.5818176,-0.04407662,-0.007994637,0.2010563,-0.3456858,-2.204919,1.34258
59.00015,7.28892,323,173,504,493,-0.2952291,0.1298875,-0.05231889,-1.297502,-3.124137,-0.5783539,-0.05045962,-0.01760101,0.1979047,-0.3434359,-2.204923,1.343288
59.20015,7.300032,323,173,504,493,-0.2973098,0.1255074,-0.05347337,-1.296537,-3.125538,-0.5749424,-0.0600419,-0.03254284,0.1883663,-0.3416122,-2.20614,1.345061
59.40015,7.311143,323,173,504,493,-0.2962379,0.1179203,-0.04940345,-1.294492,-3.127373,-0.5707218,-0.05151831,-0.02400483,0.1915064,-0.3395163,-2.204959,1.344234
59.60015,7.322254,312,174,490,495,-0.2983601,0.1158242,-0.05154719,-1.295514,-3.129315,-0.5666386,-0.03975919,-0.02397354,0.198899,-0.3370726,-2.203853,1.343342
59.80016,7.333365,312,174,490,495,-0.3068555,0.1124938,-0.05046035,-1.295063,-3.129728,-0.5630647,-0.03654259,-0.03355329,0.1967486,-0.3349245,-2.20429,1.343956
60.00016,7.344477,312,174,490,495,-0.3292373,0.1209245,-0.04837821,-1.296642,-3.131035,-0.5590566,-0.04397422,-0.03782848,0.1989238,-0.3325915,-2.204165,1.344525
60.20016,7.355588,312,174,490,495,-0.32816,0.1209035,-0.05476374,-1.29724,-3.132437,-0.5549958,-0.04924937,-0.04423551,0.2042752,-0.3301755,-2.204574,1.34553
60.40016,7.366699,336,164,493,495,-0.3217168,0.1209286,-0.05259249,-1.298078,-3.133081,-0.5522459,-0.05240781,-0.03678481,0.2149427,-0.3275933,-2.203506,1.345251
60.60016,7.37781,336,164,493,495,-0.3024804,0.1114527,-0.05358801,-1.298568,-3.134177,-0.5491374,-0.0502931,-0.01654407,0.2191831,-0.3252764,-2.200824,1.343104
60.80016,7.388922,336,164,493,495,-0.3023759,0.0986578,-0.05457335,-1.299096,-3.134647,-0.5460023,-0.04923384,-0.003750741,0.2245,-0.3228438,-2.19779,1.340817
61.00016,7.400033,336,164,493,495,-0.3118511,0.08368954,-0.05768785,-1.299711,-3.135191,-0.5423256,-0.04598677,-0.006927013,0.2319447,-0.320072,-2.195996,1.339528
61.20016,7.411144,336,164,493,495,-0.3214024,0.0836162,-0.06410222,-1.300079,-3.136581,-0.5384752,-0.0459778,-0.01971558,0.226614,-0.3177199,-2.196268,1.340215
61.40016,7.422256,330,143,482,496,-0.3640259,0.09083641,-0.0631053,-1.301281,-3.137497,-0.5335404,-0.04496633,-0.02504075,0.2148871,-0.3156538,-2.196058,1.340483
61.60016,7.433367,330,143,482,496,-0.3885294,0.09174341,-0.06634995,-1.301824,-3.138768,-0.5281677,-0.04707149,-0.03143436,0.2148983,-0.3132309,-2.195711,1.340616
61.80016,7.444478,330,143,482,496,-0.3618233,0.08337265,-0.06733225,-1.301885,-3.139741,-0.5249064,-0.04378305,-0.04420663,0.2255384,-0.3102284,-2.196183,1.341455
62.00016,7.455589,330,143,482,496,-0.3223121,0.06974017,-0.07360029,-1.301762,-3.140845,-0.5220366,-0.04694505,-0.04847077,0.2287605,-0.3074497,-2.195969,1.341795
62.20016,7.466701,300,168,533,506,-0.3222112,0.05806854,-0.07247026,-1.302341,3.141465,-0.5186208,-0.04275936,-0.04952265,0.2170201,-0.3052616,-2.19609,1.342425
62.40017,7.477812,300,168,533,506,-0.3295611,0.04097145,-0.07455351,-1.301946,3.140658,-0.5145206,-0.03536989,-0.03246573,0.2127136,-0.3030762,-2.194388,1.341051
62.60017,7.488923,300,168,533,506,-0.3315531,0.02284724,-0.07659276,-1.301619,3.14029,-0.5109988,-0.03759127,-0.01862112,0.2020665,-0.3012712,-2.192222,1.339425
62.80017,7.500034,300,168,533,506,-0.3304747,0.01966929,-0.0733834,-1.301376,3.139572,-0.507165,-0.0269288,-0.007931843,0.2084032,-0.2988093,-2.189236,1.336645
63.00017,7.511146,300,168,533,506,-0.33474,0.03032775,-0.07556134,-1.301884,3.138183,-0.5037556,-0.02479421,-0.02497233,0.2020014,-0.2966298,-2.190103,1.337695
63.20017,7.522257,328,175,497,494,-0.3326854,0.04951962,-0.07669443,-1.302376,3.136796,-0.5002242,-0.03008766,-0.04523341,0.1977729,-0.2943411,-2.192505,1.340379
63.40017,7.533368,328,175,497,494,-0.3359489,0.06121254,-0.07887398,-1.302814,3.135478,-0.4960441,-0.03538964,-0.03352091,0.2063261,-0.2918681,-2.19025,1.338713
63.60017,7.544479,328,175,497,494,-0.3391922,0.07295799,-0.07465655,-1.30376,3.134157,-0.4922326,-0.02786805,-0.02285269,0.2211853,-0.2892321,-2.188006,1.336621
63.80017,7.555591,328,175,497,494,-0.334999,0.08153357,-0.06722103,-1.304552,3.133114,-0.4883178,-0.0246174,-0.03243054,0.2264945,-0.2865146,-2.187881,1.336671
64.00017,7.566702,328,175,497,494,-0.3327841,0.0741242,-0.0650645,-1.304937,3.131996,-0.4849835,-0.02459731,-0.03882574,0.2275502,-0.2840602,-2.188265,1.337342
64.20016,7.577813,281,180,507,499,-0.3369896,0.06556717,-0.06823848,-1.305041,3.130978,-0.4808465,-0.02992041,-0.03776734,0.227585,-0.2814801,-2.187264,1.336824
64.40016,7.588924,281,180,507,499,-0.3390714,0.06234555,-0.07142556,-1.305133,3.129896,-0.4770771,-0.038438,-0.02181409,0.2350873,-0.2787887,-2.184438,1.334782
64.60016,7.600036,281,180,507,499,-0.3400924,0.05488247,-0.07140207,-1.30514,3.12897,-0.4730174,-0.04592343,-0.01010901,0.2351332,-0.2762731,-2.181201,1.332424
64.80016,7.611147,281,180,507,499,-0.3378748,0.04639296,-0.07243977,-1.305209,3.127836,-0.4695441,-0.03845829,-0.01541534,0.2340254,-0.2737085,-2.179953,1.331439
65.00015,7.622258,313,193,509,493,-0.334589,0.03791789,-0.07453412,-1.305357,3.126715,-0.4660724,-0.03527334,-0.02179159,0.2308109,-0.2711923,-2.178928,1.330879
65.20015,7.633369,313,193,509,493,-0.3334626,0.02622014,-0.07129236,-1.305125,3.126083,-0.4622779,-0.03423794,-0.03777057,0.2190901,-0.2689185,-2.179983,1.332272
65.40015,7.644481,313,193,509,493,-0.3270383,0.03164674,-0.06706209,-1.305583,3.124774,-0.4594395,-0.03103447,-0.0548204,0.2137368,-0.2665851,-2.182401,1.334905
65.60014,7.655592,313,193,509,493,-0.3292338,0.04334465,-0.06923813,-1.305932,3.123658,-0.4554032,-0.03315397,-0.05801624,0.213752,-0.2640578,-2.182631,1.335523
65.80014,7.666703,313,193,509,493,-0.330281,0.05400081,-0.07033923,-1.306435,3.122481,-0.4524956,-0.03313517,-0.06014639,0.2158748,-0.2616098,-2.182966,1.336198
66.00014,7.677814,290,201,495,497,-0.3335144,0.06037361,-0.07036804,-1.30685,3.121361,-0.4484177,-0.04051518,-0.06122226,0.2287066,-0.2585972,-2.18278,1.33667
66.20013,7.688926,290,201,495,497,-0.3313561,0.05612257,-0.06931207,-1.306654,3.120171,-0.44453,-0.03943358,-0.0505742,0.2350947,-0.2557487,-2.181658,1.335936
66.40013,7.700037,290,201,495,497,-0.3344834,0.04332741,-0.06820735,-1.306568,3.119471,-0.4405257,-0.0319676,-0.04203507,0.240376,-0.2529785,-2.179979,1.33445
66.60013,7.711148,290,201,495,497,-0.3323074,0.03483715,-0.06814823,-1.306737,3.118829,-0.4366849,-0.02991117,-0.02819018,0.2318386,-0.2507409,-2.177702,1.3324
66.80013,7.72226,381,168,495,498,-0.334424,0.03162951,-0.06817222,-1.306563,3.117655,-0.4325224,-0.03626964,-0.0324585,0.2361412,-0.2479584,-2.176723,1.332059
67.00012,7.733371,381,168,495,498,-0.3354663,0.02842236,-0.07029311,-1.306528,3.116755,-0.428517,-0.03624294,-0.03884511,0.2382778,-0.2451189,-2.176227,1.332022
67.20012,7.744482,381,168,495,498,-0.3408416,0.03051033,-0.07353214,-1.306417,3.115437,-0.423629,-0.03198276,-0.02817518,0.2425134,-0.2424371,-2.173242,1.329386
67.40012,7.755593,381,168,495,498,-0.3430098,0.03477774,-0.06822521,-1.306683,3.114635,-0.4195528,-0.02348833,-0.02389278,0.2392687,-0.2398715,-2.170934,1.327173
67.60011,7.766705,381,168,495,498,-0.3472515,0.03259279,-0.06926259,-1.306483,3.114224,-0.4155607,-0.02666739,-0.04840255,0.2307678,-0.2373558,-2.173442,1.329913
67.80011,7.777816,379,172,496,495,-0.3483434,0.02935962,-0.07031093,-1.306148,3.113545,-0.4108208,-0.03195781,-0.06119713,0.2318673,-0.2345638,-2.174984,1.331924
68.00011,7.788927,379,172,496,495,-0.3493898,0.02615749,-0.07030184,-1.306014,3.112711,-0.406694,-0.02877381,-0.06225975,0.2297193,-0.2319406,-2.175547,1.332718
68.2001,7.800038,379,172,496,495,-0.3483267,0.0229209,-0.0734691,-1.305572,3.112156,-0.4023328,-0.02767372,-0.05266526,0.239301,-0.2290042,-2.173685,1.331164
68.4001,7.81115,379,172,496,495,-0.348312,0.02078667,-0.07452688,-1.305377,3.111285,-0.3982123,-0.004135177,-0.03981526,0.2636648,-0.2254941,-2.169347,1.326429
68.6001,7.822261,435,182,494,499,-0.3483205,0.02185564,-0.0734653,-1.305314,3.11042,-0.3941185,-0.01158212,-0.0536831,0.2594391,-0.2227558,-2.170965,1.328343
68.80009,7.833372,435,182,494,499,-0.3504954,0.02824578,-0.07029618,-1.305505,3.109569,-0.3899507,-0.01054101,-0.05260911,0.2551761,-0.2199441,-2.170009,1.327487
69.00009,7.844483,435,182,494,499,-0.3527649,0.04417625,-0.07137997,-1.305965,3.109063,-0.385247,-0.02014925,-0.06968932,0.2445785,-0.2172841,-2.173319,1.331175
69.20009,7.855595,435,182,494,499,-0.3539026,0.05588898,-0.06821599,-1.306504,3.108255,-0.3811431,-0.02008498,-0.08247319,0.2509728,-0.2140851,-2.175833,1.333881
69.40009,7.866706,435,182,494,499,-0.358308,0.08141505,-0.07257542,-1.307632,3.106751,-0.3766605,-0.02754429,-0.08355309,0.2499455,-0.211243,-2.176823,1.335289
69.60008,7.877817,417,179,495,496,-0.3584078,0.08994618,-0.06725398,-1.30848,3.105969,-0.3719605,-0.03288485,-0.07291773,0.2531702,-0.2083039,-2.176304,1.335362
69.80008,7.888928,417,179,495,496,-0.3585222,0.1070129,-0.06092197,-1.309829,3.104846,-0.3676606,-0.03184463,-0.06758703,0.249975,-0.2055284,-2.175596,1.334995
70.00008,7.90004,417,179,495,496,-0.3649285,0.1080548,-0.05667689,-1.310792,3.103882,-0.363211,-0.01475182,-0.07926331,0.2530754,-0.2024056,-2.178032,1.337011
70.20007,7.911151,417,179,495,496,-0.3627895,0.1069986,-0.05773433,-1.311656,3.10281,-0.3589909,-0.0158819,-0.07287267,0.2434897,-0.1999363,-2.178159,1.337273
70.40007,7.922262,417,179,495,496,-0.3649102,0.1058967,-0.05878547,-1.312375,3.102066,-0.3547139,-0.02658129,-0.07716303,0.2339582,-0.197491,-2.180345,1.34007
70.60007,7.933373,370,160,491,500,-0.3701622,0.0951933,-0.06408481,-1.312803,3.100972,-0.3501998,-0.02980976,-0.07184115,0.2297155,-0.1949908,-2.180577,1.340657
70.80006,7.944485,370,160,491,500,-0.3637572,0.08773005,-0.06722552,-1.31297,3.100215,-0.3456597,-0.03298996,-0.06333524,0.2350498,-0.1922877,-2.180272,1.340718
71.00006,7.955596,370,160,491,500,-0.3616116,0.08455455,-0.06507967,-1.313555,3.099287,-0.341462,-0.01487418,-0.05263561,0.2402731,-0.1894498,-2.178139,1.338316
71.20006,7.966707,370,160,491,500,-0.3541243,0.07712062,-0.06820952,-1.313919,3.098559,-0.3372856,-0.01596058,-0.06329678,0.2306927,-0.1869742,-2.180871,1.341092
71.40005,7.977818,368,176,492,496,-0.3530072,0.06860317,-0.06710118,-1.314203,3.097849,-0.3332472,-0.02238899,-0.06330893,0.2232721,-0.1846476,-2.18186,1.342428
71.60005,7.98893,368,176,492,496,-0.3465784,0.06011811,-0.06704802,-1.314439,3.097089,-0.3291731,-0.02763098,-0.06226537,0.2371478,-0.1815972,-2.182025,1.342949
71.80005,8.000041,368,176,492,496,-0.3433235,0.05053847,-0.07125344,-1.31462,3.096269,-0.3251256,-0.03074412,-0.066527,0.2478294,-0.1783471,-2.182368,1.34358
72.00005,8.011152,368,176,492,496,-0.3390324,0.04524153,-0.0701615,-1.314736,3.095401,-0.3212049,-0.02431101,-0.0579883,0.2584444,-0.1751465,-2.180552,1.341893
72.20004,8.022264,368,176,492,496,-0.3358023,0.03886873,-0.07013145,-1.314764,3.094569,-0.3172901,-0.02016017,-0.03454012,0.248831,-0.1727795,-2.175214,1.336709
72.40004,8.033375,407,188,496,495,-0.3315259,0.03570605,-0.06798164,-1.314848,3.093795,-0.313502,-0.01487674,-0.0334546,0.2413487,-0.170249,-2.173139,1.334699
72.60004,8.044486,407,188,496,495,-0.3284461,0.04850319,-0.0648015,-1.315567,3.093266,-0.3093507,-0.01483712,-0.0494441,0.2423916,-0.167646,-2.176357,1.338091
72.80003,8.055597,407,188,496,495,-0.3178691,0.06240137,-0.06909122,-1.316315,3.092041,-0.305831,-0.02771904,-0.0548189,0.223299,-0.1653962,-2.178806,1.341143
73.00003,8.066709,407,188,496,495,-0.312625,0.0762832,-0.07017794,-1.317406,3.091042,-0.3022592,-0.02350202,-0.03882948,0.2222077,-0.1630148,-2.175491,1.33803
73.20003,8.07782,390,212,500,495,-0.3032629,0.1093926,-0.06175713,-1.319369,3.089926,-0.2987236,-0.02146193,-0.02604473,0.2126048,-0.1609695,-2.172284,1.335068
73.40002,8.088931,390,212,500,495,-0.3001164,0.1168764,-0.0596467,-1.320638,3.088866,-0.2952375,-0.01935747,-0.02284411,0.2093964,-0.1587681,-2.169987,1.332936
73.60002,8.100042,390,212,500,495,-0.293788,0.1211952,-0.0532361,-1.321957,3.088301,-0.2916854,-0.02044035,-0.02923577,0.2030136,-0.1565784,-2.169751,1.332903
73.80002,8.111154,390,212,500,495,-0.2819661,0.1031679,-0.04995483,-1.322473,3.087655,-0.288766,-0.02043756,-0.03562773,0.2008835,-0.1543382,-2.170093,1.333472
74.00002,8.122265,390,212,500,495,-0.2765478,0.08933233,-0.05520523,-1.322979,3.086939,-0.2856182,-0.01723255,-0.04734425,0.1965997,-0.1521874,-2.172822,1.336182
74.20001,8.133376,383,184,482,496,-0.267914,0.07232497,-0.05939077,-1.323096,3.08609,-0.2826775,-0.02891962,-0.04738203,0.2020094,-0.1495024,-2.172965,1.33696
74.40001,8.144487,383,184,482,496,-0.2646483,0.05740417,-0.06357685,-1.323043,3.085433,-0.2792527,-0.02785884,-0.03885585,0.2051913,-0.1472547,-2.17053,1.334865
74.60001,8.155599,383,184,482,496,-0.2666555,0.03609691,-0.06031052,-1.322661,3.084928,-0.2761133,-0.0204854,-0.02392654,0.1976917,-0.1453585,-2.166059,1.330458
74.8,8.16671,383,184,482,496,-0.3114133,0.03369295,-0.05717205,-1.32279,3.084556,-0.271023,-0.02048536,-0.02073367,0.1987468,-0.1433292,-2.163918,1.328504
75,8.177821,364,194,489,494,-0.3284102,0.02399583,-0.05929504,-1.322736,3.083894,-0.2665036,-0.02689737,-0.01647667,0.1977123,-0.1413084,-2.160021,1.325171
75.2,8.188932,364,194,489,494,-0.2697193,0.009420749,-0.06446148,-1.322221,3.083146,-0.2648658,-0.03326799,-0.0175568,0.2009452,-0.1390223,-2.157585,1.323276
75.39999,8.200044,364,194,489,494,-0.2399202,0.01170777,-0.06867298,-1.322069,3.082302,-0.2625078,-0.03110056,-0.0207594,0.205204,-0.1364417,-2.156267,1.322167
75.59999,8.211155,364,194,489,494,-0.2484559,0.01484041,-0.07189567,-1.322065,3.081384,-0.2593306,-0.01407453,-0.002608851,0.2093657,-0.1341296,-2.148556,1.314187
75.79999,8.222266,364,194,489,494,-0.2516849,0.01800507,-0.07296813,-1.322099,3.080645,-0.255909,-0.00878799,-0.004730701,0.201865,-0.1323181,-2.146161,1.311813
75.99998,8.233377,357,187,467,495,-0.2570653,0.02649837,-0.07194244,-1.322414,3.079715,-0.2527004,-0.01945879,-0.01007978,0.1966026,-0.1302472,-2.14395,1.310146
76.19998,8.244489,357,187,467,495,-0.2666902,0.03177296,-0.07195501,-1.322888,3.079061,-0.249258,-0.03015395,-0.02609001,0.1817498,-0.1284522,-2.146595,1.313305
76.39998,8.2556,357,187,467,495,-0.2752149,0.03277862,-0.07410496,-1.323052,3.078083,-0.2457293,-0.02798093,-0.03886651,0.1838701,-0.1262269,-2.1481,1.315036
76.59998,8.266711,357,187,467,495,-0.2646438,0.04665786,-0.08264893,-1.323557,3.076801,-0.2426289,-0.02367951,-0.03245159,0.1934285,-0.1239622,-2.143323,1.310436
76.79997,8.277822,394,213,476,497,-0.2668164,0.05829424,-0.09021585,-1.323962,3.075751,-0.2392808,-0.01617872,-0.02605237,0.2019038,-0.1215419,-2.140007,1.307044
76.99997,8.288934,394,213,476,497,-0.2721723,0.05832583,-0.08269723,-1.324653,3.074677,-0.2359145,-0.007667549,-0.0292284,0.1986586,-0.1194135,-2.138566,1.305473
77.19997,8.300045,394,213,476,497,-0.2785355,0.05402747,-0.08481809,-1.325013,3.073616,-0.2323544,-0.003361419,-0.04306551,0.1996985,-0.11708,-2.140314,1.307088
77.39996,8.311156,394,213,476,497,-0.2859527,0.04653598,-0.08160985,-1.325141,3.072726,-0.2287602,-0.009749241,-0.04734178,0.1986706,-0.1148249,-2.140752,1.307808
77.59996,8.322268,394,213,476,497,-0.2880388,0.04009274,-0.09117779,-1.325104,3.071447,-0.225051,-0.008603491,-0.05480049,0.2082477,-0.1121819,-2.141925,1.308982
77.79996,8.333379,351,190,490,496,-0.2880599,0.04115285,-0.09011628,-1.325306,3.070389,-0.2214419,0.009564623,-0.06220842,0.2145298,-0.1095742,-2.14277,1.309176
77.99995,8.34449,351,190,490,496,-0.2943925,0.03468478,-0.1007585,-1.325213,3.068946,-0.2176474,0.00854934,-0.0781902,0.2166671,-0.1068428,-2.148658,1.314933
78.19995,8.355601,351,190,490,496,-0.3007968,0.03360147,-0.09543329,-1.325391,3.068013,-0.213805,0.004297055,-0.05795702,0.2262775,-0.1042058,-2.142555,1.30895
