ref,t,emg1,emg2,emg1raw,emg2raw,aDotS,bDotS,gDotS,aS,bS,gS,aDotSH,bDotSH,gDotSH,aSH,bSH,gSH
0,0,112,269,496,499,0.2423205,-0.9612395,-0.4527692,-1.379291,-3.09612,-1.651644,-0.01649348,0.1268264,0.05943629,-1.037616,-2.695747,1.628699
0,0.01111111,112,269,496,499,0.282124,-0.9061483,-0.4382676,-1.384812,-3.087265,-1.655492,-0.04814619,0.1518218,0.06679926,-1.037673,-2.6925,1.627562
0,0.02222222,112,269,496,499,0.3191459,-0.8337916,-0.4445002,-1.390488,-3.079153,-1.660318,-0.08869557,0.1674278,0.0911684,-1.037089,-2.688616,1.62558
0,0.03333334,119,186,496,499,0.3434001,-0.7608082,-0.4158489,-1.395738,-3.072107,-1.66372,-0.1164051,0.171415,0.1152453,-1.036331,-2.684901,1.623328
0,0.04444445,119,186,496,499,0.3656334,-0.7297954,-0.3829252,-1.401496,-3.064744,-1.666546,-0.0929675,0.1870887,0.1190649,-1.037134,-2.681664,1.621519
0,0.05555556,119,186,496,499,0.3747938,-0.7255077,-0.3579067,-1.406984,-3.05664,-1.669178,-0.01847091,0.2299431,0.08873722,-1.040548,-2.679369,1.621171
0,0.06666667,119,186,496,499,0.3551451,-0.7074586,-0.3417455,-1.41133,-3.049071,-1.671911,0.03464518,0.2503107,0.04162364,-1.043753,-2.677685,1.621807
0,0.07777778,119,186,496,499,0.3613077,-0.6557705,-0.3164373,-1.416239,-3.043111,-1.67428,0.04900239,0.238233,0.02465011,-1.045434,-2.676187,1.621854
0,0.08888889,117,184,495,493,0.3755967,-0.6077884,-0.3020076,-1.421603,-3.037504,-1.676794,0.03940605,0.210246,0.02713106,-1.046428,-2.674675,1.621388
0,0.1,117,184,495,493,0.3791062,-0.5582328,-0.2844945,-1.426415,-3.032437,-1.6791,0.009587221,0.1742129,0.04059367,-1.046214,-2.672761,1.620157
0,0.1111111,117,184,495,493,0.3991098,-0.4722046,-0.2367685,-1.431717,-3.029825,-1.680204,-0.01558087,0.1563384,0.04127135,-1.046159,-2.670899,1.619605
0,0.1222222,117,184,495,493,0.4090958,-0.3807675,-0.1796139,-1.436783,-3.028265,-1.680591,-0.05820815,0.1136947,0.02525988,-1.044575,-2.669956,1.619711
0,0.1333333,126,158,496,498,0.4087805,-0.2953656,-0.152855,-1.441383,-3.02707,-1.681647,-0.02432895,0.1102946,0.01254386,-1.045728,-2.669239,1.619787
0,0.1444445,126,158,496,498,0.4105946,-0.2406282,-0.1353101,-1.446059,-3.026166,-1.68256,0.003806874,0.1121449,0.0196424,-1.046973,-2.668241,1.619253
0,0.1555556,126,158,496,498,0.4073969,-0.1848921,-0.1135736,-1.450531,-3.026008,-1.683195,0.03776924,0.1124902,0.00750633,-1.048705,-2.667827,1.619343
0,0.1666667,126,158,496,498,0.3898185,-0.1458334,-0.09644456,-1.454426,-3.025375,-1.683864,0.06230479,0.111712,-0.001115195,-1.050485,-2.667538,1.619559
0,0.1777778,126,158,496,498,0.3816499,-0.1197224,-0.08469382,-1.458458,-3.024726,-1.684495,0.06373774,0.1135635,-0.0006812289,-1.051557,-2.666723,1.619364
0,0.1888889,127,246,496,488,0.3666592,-0.08368989,-0.06976286,-1.46225,-3.025043,-1.68497,0.05418084,0.1129216,0.004170902,-1.052444,-2.665679,1.619084
0,0.2,127,246,496,488,0.3577889,-0.05212174,-0.05491458,-1.465855,-3.025548,-1.685255,0.04510987,0.1175858,0.01242405,-1.053293,-2.664344,1.618587
0,0.2111111,127,246,496,488,0.3370464,0.02078947,-0.02769303,-1.468819,-3.028164,-1.685071,0.04238939,0.1182631,0.02436832,-1.054236,-2.662986,1.617777
0,0.2222222,127,246,496,488,0.324747,0.08289137,-0.009823903,-1.471803,-3.030817,-1.685024,0.04776216,0.1240826,0.03146638,-1.055533,-2.66159,1.617039
0,0.2333333,142,280,496,505,0.315863,0.1243214,0.003128644,-1.474846,-3.03358,-1.684916,0.05944317,0.1075593,0.035355,-1.056744,-2.661251,1.616689
0,0.2444444,142,280,496,505,0.2969726,0.1739845,0.02089844,-1.477413,-3.036966,-1.684609,0.06173574,0.07761425,0.02880559,-1.057434,-2.661426,1.616473
0,0.2555556,142,280,496,505,0.276866,0.2256744,0.03346579,-1.479629,-3.041018,-1.68427,0.05982418,0.06036756,0.01577831,-1.058021,-2.661692,1.616665
0,0.2666667,142,280,496,505,0.2540678,0.2578807,0.04929803,-1.481569,-3.044965,-1.683726,0.05480825,0.03185432,-0.004919855,-1.058234,-2.662653,1.617432
0,0.2777778,142,280,496,505,0.2404344,0.269519,0.06069305,-1.483527,-3.048413,-1.683113,0.0554752,0.02878155,-0.001610402,-1.058957,-2.662607,1.617205
0,0.2888889,159,224,494,498,0.2192746,0.287097,0.06794992,-1.485031,-3.052338,-1.682526,0.05872775,0.0358969,0.02224112,-1.059872,-2.662002,1.616179
0,0.3,159,224,494,498,0.1974025,0.2945735,0.07105953,-1.486281,-3.0558,-1.682216,0.05597508,0.04263059,0.04520822,-1.060677,-2.660985,1.614773
0,0.3111111,159,224,494,498,0.175165,0.2854315,0.07508426,-1.487382,-3.058914,-1.681566,0.03907423,0.04396497,0.06973587,-1.060847,-2.659709,1.613016
0,0.3222222,159,224,494,498,0.163374,0.2748028,0.0734098,-1.489088,-3.062054,-1.681598,0.008890782,0.0341759,0.07623542,-1.060191,-2.658834,1.611811
0,0.3333333,159,224,494,498,0.1362171,0.259876,0.07221106,-1.489606,-3.06469,-1.681088,0.0002149045,0.01752746,0.05567242,-1.059893,-2.658932,1.611786
0,0.3444445,186,225,493,500,0.08797412,0.2131232,0.0573976,-1.489327,-3.065906,-1.681393,0.01808169,0.01246037,0.01726865,-1.060478,-2.659679,1.612723
0,0.3555556,186,225,493,500,0.07671204,0.2008363,0.05689853,-1.489712,-3.067935,-1.680978,0.03353142,0.01154783,0.001835244,-1.061254,-2.660176,1.613132
0,0.3666667,186,225,493,500,0.03521433,0.1463678,0.04384115,-1.488996,-3.06816,-1.681153,0.04553551,0.006121896,-0.005002828,-1.061973,-2.660807,1.613449
0,0.3777778,186,225,493,500,0.01499126,0.1196998,0.0373586,-1.488673,-3.068829,-1.680961,0.0367144,0.004352001,0.01222136,-1.062065,-2.660501,1.6127
0,0.3888889,213,235,492,511,-0.01032233,0.08722142,0.02648623,-1.487857,-3.068876,-1.680989,0.02099512,0.003759257,0.03906319,-1.061907,-2.659785,1.611358
0,0.4,213,235,492,511,-0.01950687,0.07792165,0.02244312,-1.487315,-3.069664,-1.680822,0.007427365,0.009756014,0.0502478,-1.061624,-2.658769,1.610335
0,0.4111111,213,235,492,511,-0.03389911,0.06532664,0.01772494,-1.486526,-3.070001,-1.680808,-0.0169675,0.01501131,0.0472909,-1.060984,-2.657821,1.609811
0,0.4222222,213,235,492,511,-0.0412521,0.06426238,0.01644403,-1.485703,-3.070436,-1.680598,-0.03507701,0.0180472,0.04043838,-1.060268,-2.656886,1.609578
0,0.4333333,213,235,492,511,-0.05152341,0.05456739,0.01447226,-1.48481,-3.070708,-1.680522,-0.03561742,0.01890135,0.03618677,-1.060018,-2.656325,1.60924
0,0.4444444,230,287,491,496,-0.05762976,0.04709354,0.0129447,-1.484117,-3.070957,-1.680548,-0.01242064,0.01355083,0.03341818,-1.060497,-2.656451,1.608923
0,0.4555556,230,287,491,496,-0.05717743,0.03609724,0.003102046,-1.483519,-3.071059,-1.680757,-0.006522428,0.01206885,0.03475497,-1.06061,-2.656198,1.608408
0,0.4666667,230,287,491,496,-0.05665005,0.02132741,-0.004289743,-1.483009,-3.070677,-1.681099,-0.01281254,0.01427205,0.03869442,-1.060439,-2.655577,1.607802
0,0.4777778,230,287,491,496,-0.05095357,0.01003197,-0.006599865,-1.482617,-3.070339,-1.681087,-0.02963537,0.01738514,0.03995639,-1.059869,-2.654576,1.607206
0,0.4888889,235,242,492,497,-0.04828442,-0.003368121,-0.02026027,-1.48222,-3.069794,-1.681657,-0.04160905,0.01646876,0.02965489,-1.05926,-2.654037,1.607126
0,0.5,235,242,492,497,-0.04374561,-0.01113391,-0.02405321,-1.48192,-3.069349,-1.682017,-0.03541912,0.01860055,0.02769175,-1.059312,-2.653584,1.606907
0,0.5111111,235,242,492,497,-0.039349,-0.01516459,-0.02489164,-1.481667,-3.068986,-1.682262,-0.03269622,0.02238318,0.03106638,-1.059226,-2.652888,1.606379
0,0.5222223,235,242,492,497,-0.03610656,-0.01758387,-0.02322124,-1.481291,-3.06845,-1.682441,-0.03350881,0.01945145,0.01674152,-1.058911,-2.65275,1.606591
0,0.5333334,235,242,492,497,-0.03515397,-0.01506839,-0.01943417,-1.480976,-3.068295,-1.682553,-0.02832574,0.02515762,0.003399476,-1.058996,-2.652473,1.606973
0,0.5444446,240,245,492,499,-0.02672567,-0.01081001,-0.02286675,-1.480746,-3.06812,-1.682919,-0.01843968,0.02732321,0.0004166006,-1.0592,-2.652244,1.607097
0,0.5555557,240,245,492,499,-0.01643199,-0.001178363,-0.01535101,-1.480781,-3.068384,-1.683013,-0.01618374,0.02572773,0.007527672,-1.059118,-2.651724,1.606622
0,0.5666668,240,245,492,499,-0.01242603,0.007721782,-0.01563124,-1.480785,-3.06864,-1.68323,-0.006544643,0.02425233,0.01021752,-1.059397,-2.651514,1.606398
0,0.577778,240,245,492,499,-0.007398507,0.01445078,-0.005470585,-1.480799,-3.069008,-1.682972,2.981722E-05,0.003114169,0.01216584,-1.059285,-2.651983,1.606179
0,0.5888891,239,205,491,495,-0.005596042,0.0251526,-0.004286835,-1.480734,-3.069566,-1.683053,-0.001179314,-0.01558584,-0.004321895,-1.058939,-2.652819,1.606747
0,0.6000003,239,205,491,495,-0.0008449277,0.04257652,0.001590737,-1.480771,-3.070505,-1.68301,-0.0006282665,-0.01044299,-0.01901396,-1.058961,-2.653132,1.607442
0,0.6111114,239,205,491,495,0.005034212,0.05751348,0.009110304,-1.480879,-3.071613,-1.68281,0.003673067,0.0009818748,-0.01508544,-1.059242,-2.652969,1.607502
0,0.6222225,239,205,491,495,0.008958139,0.06695743,0.01654304,-1.480936,-3.072591,-1.682462,0.003416564,0.02002478,-0.002875213,-1.059697,-2.652065,1.607044
0,0.6333337,239,205,491,495,0.01008542,0.06446948,0.0181828,-1.481027,-3.073284,-1.682286,0.002851006,0.0251289,0.001975934,-1.05991,-2.651592,1.606837
0,0.6444448,235,185,494,499,0.007256332,0.05247076,0.01781934,-1.481016,-3.07351,-1.682049,-0.0005115513,0.02442548,-0.007048058,-1.059949,-2.651501,1.607183
0,0.655556,235,185,494,499,0.007414212,0.04660752,0.01983909,-1.481067,-3.073922,-1.681813,0.009378706,0.007940417,-0.02316194,-1.060077,-2.652337,1.607934
0,0.6666671,235,185,494,499,0.009018078,0.02848644,0.01821728,-1.481127,-3.073789,-1.68153,0.01268978,-0.007818475,-0.026288,-1.060056,-2.653047,1.608367
0,0.6777782,235,185,494,499,0.01032469,0.01952251,0.0195967,-1.481264,-3.073751,-1.681377,0.01273052,-0.02225348,-0.02792073,-1.059866,-2.653815,1.608856
0,0.6888894,235,185,494,499,0.0123968,0.01889567,0.02816378,-1.481432,-3.074036,-1.680856,0.00953331,-0.03539861,-0.02567908,-1.059518,-2.654615,1.609153
0,0.7000005,226,181,494,505,0.01111864,0.02638192,0.0286169,-1.481478,-3.074559,-1.680701,0.008001393,-0.03902727,-0.03046356,-1.059313,-2.655252,1.60968
0,0.7111117,226,181,494,505,0.01413455,0.0331731,0.02784954,-1.481695,-3.075164,-1.680474,0.003322028,-0.03131305,-0.02933721,-1.059172,-2.65549,1.610013
0,0.7222228,226,181,494,505,0.009645924,0.04160948,0.02849089,-1.481603,-3.075817,-1.680178,-0.005820528,-0.01015854,-0.02702126,-1.059166,-2.65498,1.610257
0,0.7333339,226,181,494,505,0.006554293,0.03818214,0.02884305,-1.48157,-3.076206,-1.679878,-0.008264003,0.008252934,-0.01816174,-1.05932,-2.654377,1.610097
0,0.7444451,223,161,493,500,0.003495775,0.03370889,0.02898384,-1.481577,-3.076381,-1.679474,-0.008727261,0.01324359,-0.003789444,-1.059357,-2.653884,1.609706
0,0.7555562,223,161,493,500,-0.0005762801,0.0269121,0.02972972,-1.481444,-3.076537,-1.679129,-0.008333536,0.01058955,0.0009341132,-1.059284,-2.653836,1.609619
0,0.7666674,223,161,493,500,-0.00323168,0.008058302,0.02581996,-1.481405,-3.076077,-1.678917,-0.0008641575,-0.003751459,-0.002699504,-1.059253,-2.654395,1.6098
0,0.7777785,223,161,493,500,-0.004032757,-0.001137021,0.02283182,-1.481271,-3.075852,-1.678695,0.001565739,-0.01390791,-0.006678749,-1.059113,-2.654962,1.610006
0,0.7888896,223,161,493,500,-0.003735859,-0.008803245,0.01254804,-1.481252,-3.075489,-1.678818,0.002886476,-0.03455785,-0.02221313,-1.058711,-2.656244,1.610867
0,0.8000008,213,173,494,505,-0.007759205,-0.01682318,0.008700464,-1.481053,-3.075124,-1.678735,0.003471948,-0.03141336,-0.02217323,-1.058671,-2.656532,1.611138
0,0.8111119,213,173,494,505,-0.01179935,-0.02548881,0.007977946,-1.480867,-3.074625,-1.678642,-0.004714521,-0.02608009,-0.00914013,-1.058359,-2.656384,1.610842
0,0.8222231,213,173,494,505,-0.01066318,-0.02859057,0.007340569,-1.480708,-3.074208,-1.678535,-0.01922192,-0.00630287,0.008483415,-1.057999,-2.655436,1.610191
0,0.8333342,213,173,494,505,-0.0116954,-0.02922747,0.005025579,-1.480578,-3.073861,-1.678508,-0.02455258,-0.003631271,0.01718121,-1.057693,-2.655069,1.609763
0,0.8444453,197,185,495,500,-0.01274827,-0.02795964,-0.001263635,-1.480255,-3.073478,-1.678727,-0.02561258,-0.003885036,0.0233943,-1.057382,-2.65473,1.609293
0,0.8555565,197,185,495,500,-0.01286986,-0.02188325,-0.004360034,-1.480133,-3.073279,-1.678846,-0.02676043,-0.01019711,0.02331723,-1.056852,-2.654683,1.609037
0,0.8666676,197,185,495,500,-0.0172202,-0.01672853,-0.008759362,-1.479816,-3.07317,-1.679049,-0.02564544,-0.005968326,0.01526951,-1.056648,-2.654541,1.609084
0,0.8777788,197,185,495,500,-0.01731217,-0.01381679,-0.007072642,-1.479612,-3.072989,-1.6791,-0.02571157,-0.003813002,0.01626679,-1.056377,-2.654299,1.608802
0,0.8888899,197,185,495,500,-0.01849166,-0.007537604,-0.01121514,-1.479382,-3.073008,-1.679325,-0.02060146,-0.001917971,0.02051134,-1.056324,-2.654042,1.608402
0,0.900001,182,191,495,494,-0.0197651,-0.0009130431,-0.006573131,-1.479117,-3.073158,-1.679298,-0.01483541,0.004983859,0.01958873,-1.056398,-2.653737,1.608134
0,0.9111122,182,191,495,494,-0.02302627,0.0006720449,-0.00407293,-1.478737,-3.073177,-1.679165,-0.01668836,0.003907971,0.01722058,-1.0562,-2.653532,1.60799
0,0.9222233,182,191,495,494,-0.02618437,-2.47499E-07,-0.006407888,-1.478373,-3.073088,-1.679308,-0.01741096,0.003012205,0.01340494,-1.056,-2.65332,1.607972
0,0.9333345,182,191,495,494,-0.02513294,-0.0004095274,-0.004311111,-1.47809,-3.072979,-1.679289,-0.01706799,0.004454102,0.009137413,-1.055891,-2.653163,1.607988
0,0.9444456,175,171,494,498,-0.01978611,-0.001766694,-0.002388686,-1.478104,-3.072929,-1.679198,-0.01212342,-0.001545907,0.01228229,-1.055907,-2.653203,1.607757
0,0.9555568,175,171,494,498,-0.01574957,0.008364455,-0.003501376,-1.477957,-3.073182,-1.679292,-0.01017634,-0.01087745,0.008743561,-1.055761,-2.653537,1.607807
0,0.9666679,175,171,494,498,-0.01189996,0.02536092,-0.0009944369,-1.477886,-3.073947,-1.679347,-0.01184853,-0.01632242,0.006763404,-1.055446,-2.65372,1.607787
0,0.977779,175,171,494,498,-0.01310923,0.029449,0.005306989,-1.477637,-3.074281,-1.679119,-0.01033878,-0.01682199,-0.002321813,-1.055262,-2.653917,1.608055
0,0.9888902,175,171,494,498,-0.01011756,0.03807518,0.006049525,-1.47753,-3.074866,-1.679289,-0.01240899,-0.01348249,-0.007468099,-1.055048,-2.654024,1.60833
0,1.000001,169,163,495,498,-0.005911669,0.03937978,0.01069769,-1.477557,-3.075336,-1.678879,-0.01089158,-0.01190983,-0.01079857,-1.054924,-2.654222,1.608547
0,1.011112,169,163,495,498,-0.0101888,0.03989162,0.01296578,-1.477277,-3.07581,-1.67871,-0.00327776,0.0001003521,-0.01356453,-1.055247,-2.654149,1.608792
0,1.022224,169,163,495,498,-0.00581829,0.03412097,0.01502769,-1.477318,-3.076059,-1.678585,-0.003436117,0.01669398,-0.01089132,-1.055578,-2.653613,1.608821
0,1.033335,169,163,495,498,-0.005686424,0.02891158,0.01393129,-1.477275,-3.076271,-1.678453,-0.005248079,0.02169333,-0.009345038,-1.055585,-2.653212,1.608844
0,1.044446,169,163,495,498,-0.006762972,0.02801744,0.018088,-1.477106,-3.076624,-1.678222,-0.00589266,0.02071287,-0.008400602,-1.055608,-2.653026,1.608919
0,1.055557,161,135,496,501,-0.002326502,0.02081844,0.01659049,-1.477312,-3.076725,-1.678047,-0.001324884,0.01525335,-0.01333235,-1.05569,-2.653265,1.609149
0,1.066668,161,135,496,501,0.002158679,0.00984141,0.01757044,-1.477406,-3.076706,-1.677788,-0.009843552,0.01073652,-0.01899457,-1.055395,-2.65329,1.60957
0,1.077779,161,135,496,501,0.001247616,-0.0002526189,0.02415694,-1.477405,-3.076627,-1.677347,-0.01188925,0.00581948,-0.02905416,-1.055188,-2.653501,1.610201
0,1.08889,161,135,496,501,0.003641581,-0.01145218,0.02074248,-1.477547,-3.07625,-1.677159,-0.01919238,0.01360816,-0.02833442,-1.055013,-2.653132,1.610523
0,1.100002,156,125,495,499,0.007184156,-0.02702593,0.02291963,-1.478116,-3.076061,-1.677347,-0.02491407,0.01677914,-0.02771652,-1.054777,-2.652791,1.610833
0,1.111113,156,125,495,499,0.002029901,-0.03612227,0.02427376,-1.478091,-3.075562,-1.677002,-0.02837047,0.02239344,-0.02422943,-1.054609,-2.652323,1.610984
0,1.122224,156,125,495,499,0.004299877,-0.04379424,0.02488922,-1.478184,-3.075043,-1.676579,-0.02410104,0.02559533,-0.02521048,-1.054681,-2.652163,1.611342
0,1.133335,156,125,495,499,0.00242064,-0.05529982,0.02251208,-1.478272,-3.07421,-1.676294,-0.02578822,0.030255,-0.02988343,-1.054523,-2.651945,1.611838
0,1.144446,156,125,495,499,0.0003505368,-0.05910142,0.02497279,-1.478368,-3.073713,-1.676141,-0.02502489,0.0228992,-0.030972,-1.054357,-2.651947,1.61225
0,1.155557,151,128,496,497,0.0004599541,-0.06598864,0.02684362,-1.478488,-3.072928,-1.675722,-0.02449854,0.0199405,-0.03484395,-1.054134,-2.651993,1.612773
0,1.166668,151,128,496,497,0.001486178,-0.06554869,0.03020884,-1.478637,-3.072413,-1.675472,-0.02665665,0.009176085,-0.04022522,-1.053757,-2.652311,1.613483
0,1.17778,151,128,496,497,0.003590738,-0.06570567,0.03130895,-1.478766,-3.071746,-1.675015,-0.02568708,0.0115496,-0.04545012,-1.053536,-2.652405,1.614175
0,1.188891,151,128,496,497,0.004750317,-0.06481092,0.03260564,-1.479781,-3.071279,-1.675051,-0.02307739,0.017485,-0.03873477,-1.053558,-2.652117,1.614447
0,1.200002,146,130,496,498,0.007860543,-0.0632776,0.03623119,-1.479944,-3.070681,-1.674524,-0.02264424,0.01880236,-0.03587192,-1.053452,-2.651854,1.614849
0,1.211113,146,130,496,498,0.009851173,-0.05652791,0.0354684,-1.480135,-3.070334,-1.674107,-0.02264945,0.01878222,-0.03587918,-1.053345,-2.651754,1.615297
0,1.222224,146,130,496,498,0.009764543,-0.0546408,0.0369764,-1.480157,-3.069791,-1.673491,-0.02265465,0.01876208,-0.03588644,-1.053238,-2.651655,1.615744
0,1.233335,146,130,496,498,0.009657953,-0.05045316,0.03785966,-1.480303,-3.069288,-1.672921,-0.02265987,0.01874186,-0.03589371,-1.053131,-2.651555,1.616193
0,1.244446,146,130,496,498,0.0138588,-0.04511565,0.03355727,-1.480666,-3.069057,-1.672493,-0.02266506,0.01872174,-0.03590094,-1.053024,-2.651455,1.616639
0,1.255558,135,139,495,499,0.01272109,-0.04325141,0.03502927,-1.480673,-3.068624,-1.672041,-0.01370344,0.03049077,-0.03686605,-1.053704,-2.651131,1.617253
0,1.266669,135,139,495,499,0.0137752,-0.04134024,0.0310784,-1.480802,-3.068275,-1.671825,-0.02400456,0.03291037,-0.03049282,-1.053377,-2.650572,1.617467
0,1.27778,135,139,495,499,0.01573141,-0.03125243,0.02986909,-1.481098,-3.068327,-1.671367,-0.02780835,0.03893122,-0.03039635,-1.053407,-2.650218,1.618197
0,1.288891,135,139,495,499,0.01244603,-0.02712293,0.03068619,-1.481174,-3.068204,-1.670983,-0.02539128,0.04501414,-0.03565146,-1.053724,-2.649795,1.619051
0,1.300002,135,139,495,499,0.01132787,-0.02357946,0.02921781,-1.481306,-3.068175,-1.670711,-0.01899129,0.03884045,-0.03296102,-1.05381,-2.649672,1.619369
0,1.311113,127,131,496,502,0.01124637,-0.01919246,0.02901543,-1.481444,-3.067951,-1.670286,-0.01964853,0.03389731,-0.03254627,-1.054041,-2.649533,1.619664
0,1.322224,127,131,496,502,0.01015302,-0.01649538,0.02628922,-1.481539,-3.067914,-1.670065,-0.01353531,0.02604847,-0.0413041,-1.054109,-2.649831,1.620451
0,1.333336,127,131,496,502,0.008051667,-0.01903107,0.02796606,-1.481632,-3.0676,-1.66958,-0.01015382,0.02260275,-0.04615867,-1.054191,-2.649827,1.621095
0,1.344447,127,131,496,502,0.009187385,-0.02151952,0.02423137,-1.481776,-3.067405,-1.669348,-0.01001839,0.02435487,-0.046636,-1.054271,-2.649792,1.621703
0,1.355558,117,151,497,497,0.01020332,-0.01981112,0.0267523,-1.481946,-3.067274,-1.668947,-0.01365392,0.03000964,-0.05275703,-1.054254,-2.649707,1.622432
0,1.366669,117,151,497,497,0.003786413,-0.01721118,0.0239855,-1.481885,-3.067212,-1.668657,-0.01675264,0.03695177,-0.04648641,-1.054333,-2.649219,1.622804
0,1.37778,117,151,497,497,0.002681294,-0.01659025,0.02627681,-1.4818,-3.067042,-1.66828,-0.02173017,0.0488949,-0.03872086,-1.05443,-2.648535,1.622887
0,1.388891,117,151,497,497,0.002777977,-0.02160848,0.02422577,-1.481919,-3.066646,-1.667973,-0.0232185,0.05126797,-0.03489178,-1.054499,-2.647964,1.623173
0,1.400002,117,151,497,497,0.001628328,-0.01763955,0.0260816,-1.481876,-3.066618,-1.667632,-0.02123771,0.04804763,-0.03925844,-1.054618,-2.647786,1.62378
0,1.411114,109,133,496,499,0.0005915482,-0.02159243,0.02965753,-1.48186,-3.066316,-1.66715,-0.01612324,0.03782468,-0.04751261,-1.054632,-2.648225,1.624619
0,1.422225,109,133,496,499,-0.0005540233,-0.0188739,0.03235397,-1.48167,-3.06621,-1.666728,-0.01069822,0.02718171,-0.05242137,-1.054684,-2.648615,1.625445
0,1.433336,109,133,496,499,-0.001716755,-0.01280192,0.03462202,-1.48177,-3.06619,-1.666168,-0.005234586,0.01652988,-0.05492962,-1.054703,-2.649125,1.62625
0,1.444447,109,133,496,499,0.004648797,-0.01204439,0.03696662,-1.481993,-3.066191,-1.665716,-0.003168896,0.009319603,-0.05260739,-1.054686,-2.649479,1.626856
0,1.455558,106,140,497,499,0.004487401,-0.001377525,0.0379279,-1.481882,-3.066492,-1.665343,-0.0008313507,0.01358135,-0.05023975,-1.05472,-2.649302,1.627493
0,1.466669,106,140,497,499,0.007532295,0.008955536,0.04099448,-1.482027,-3.067067,-1.664876,-0.0009505302,0.01177647,-0.04977515,-1.054759,-2.649505,1.628104
0,1.47778,106,140,497,499,0.0106487,0.01385215,0.04410212,-1.482099,-3.067435,-1.664297,-0.009032683,0.006588171,-0.0497262,-1.05442,-2.649998,1.628914
0,1.488891,106,140,497,499,0.007582949,0.005851399,0.04039054,-1.482101,-3.067349,-1.663939,-0.01287656,0.01653604,-0.04919503,-1.054443,-2.649727,1.629484
0,1.500003,106,140,497,499,0.004463239,0.0007884626,0.03832946,-1.482052,-3.067256,-1.663512,-0.003620099,0.0376513,-0.05116904,-1.055326,-2.649533,1.630004
0,1.511114,103,133,498,496,0.003543183,-0.01005356,0.03844491,-1.482346,-3.06703,-1.662929,0.003276235,0.04478496,-0.04171306,-1.055811,-2.649143,1.630262
0,1.522225,103,133,498,496,0.003626753,-0.01592991,0.03516632,-1.482368,-3.066751,-1.66264,0.00947822,0.04699031,-0.03893158,-1.056339,-2.648934,1.630646
0,1.533336,103,133,498,496,0.004715286,-0.01761181,0.03268639,-1.482339,-3.066519,-1.662354,0.01889163,0.03033843,-0.03424827,-1.056716,-2.649377,1.630964
0,1.544447,103,133,498,496,0.008953737,-0.01381624,0.03017337,-1.482574,-3.066537,-1.662015,0.0193895,0.009738394,-0.03710007,-1.056762,-2.650119,1.631548
0,1.555558,101,142,497,494,0.01106193,-0.01168365,0.03058789,-1.482804,-3.066522,-1.661619,0.01230326,-0.0009993017,-0.04322997,-1.056555,-2.650539,1.632167
0,1.566669,101,142,497,494,0.01743573,-0.009306193,0.02997475,-1.483177,-3.066534,-1.661322,0.006934486,-0.008413289,-0.04365806,-1.056378,-2.65102,1.632761
0,1.577781,101,142,497,494,0.01844348,-0.004041668,0.03096048,-1.48343,-3.066705,-1.660931,0.006048396,-0.009002635,-0.04364894,-1.05626,-2.651383,1.633384
0,1.588892,101,142,497,494,0.02162872,-0.003129443,0.0322238,-1.483815,-3.066808,-1.660515,0.0152513,-0.001461914,-0.02751731,-1.056899,-2.651658,1.633228
0,1.600003,101,142,497,494,0.0227111,-0.002327839,0.02804026,-1.484095,-3.066863,-1.660324,0.01246142,0.002959059,-0.02131672,-1.057043,-2.65158,1.633296
0,1.611114,101,138,496,503,0.02477841,0.002950373,0.02901089,-1.484388,-3.067116,-1.660078,0.01183269,0.01386024,-0.01657748,-1.057298,-2.651225,1.633337
0,1.622225,101,138,496,503,0.02690191,0.007678567,0.0212158,-1.48476,-3.067407,-1.660085,0.009528712,0.01746686,-0.0156256,-1.057498,-2.651122,1.633523
0,1.633336,101,138,496,503,0.02265729,0.00515096,0.02289853,-1.48484,-3.067392,-1.659787,0.003773274,0.01661745,-0.01081335,-1.0572,-2.650658,1.633274
0,1.644447,101,138,496,503,0.02161343,0.006112863,0.01765031,-1.485103,-3.06756,-1.659776,0.005849469,0.01341476,-0.007959692,-1.057346,-2.650681,1.63329
0,1.655559,101,138,496,503,0.01742499,0.0001541222,0.01437612,-1.48503,-3.06731,-1.659754,0.01481637,0.007273056,-0.01180047,-1.057636,-2.651059,1.633465
0,1.66667,104,135,497,497,0.01853552,-0.002396133,0.01065951,-1.485211,-3.067232,-1.65977,0.02582157,-0.00209911,-0.01991858,-1.058026,-2.651814,1.63397
0,1.677781,104,135,497,497,0.01855271,-0.00325035,0.009421988,-1.485422,-3.067175,-1.65967,0.02686649,0.0002602804,-0.01563929,-1.058308,-2.651829,1.63397
0,1.688892,104,135,497,497,0.01635939,0.003782019,0.006361621,-1.485563,-3.067418,-1.659766,0.025502,0.0005229097,-0.005628342,-1.058414,-2.651716,1.63371
0,1.700003,104,135,497,497,0.01632092,0.007122821,0.005883709,-1.48572,-3.067657,-1.659748,0.02256122,0.003161516,-0.003717135,-1.058607,-2.651736,1.633724
0,1.711114,109,137,497,497,0.01831637,0.01982665,0.00170598,-1.485928,-3.068207,-1.65991,0.02218736,0.005745474,-0.001344433,-1.058834,-2.651767,1.633716
0,1.722225,109,137,497,497,0.01607612,0.02837651,0.002170735,-1.486,-3.068784,-1.65991,0.01899279,0.01669894,0.0005272366,-1.059175,-2.651361,1.633601
0,1.733337,109,137,497,497,0.0180922,0.03716858,0.001608608,-1.486193,-3.069362,-1.659949,0.01078343,0.02162791,6.312784E-05,-1.059217,-2.651073,1.633652
0,1.744448,109,137,497,497,0.01698487,0.04087553,-0.000968684,-1.486308,-3.069899,-1.660083,0.008237446,0.02565151,0.002436361,-1.059427,-2.650692,1.633525
0,1.755559,109,137,497,497,0.01711257,0.031827,-0.00478105,-1.486503,-3.069925,-1.660236,0.01389126,0.02472164,0.002890914,-1.059702,-2.650836,1.633444
0,1.76667,100,161,496,487,0.01291547,0.02815586,-0.008705872,-1.48652,-3.070135,-1.660462,0.02312278,0.01025969,0.003876148,-1.060005,-2.651275,1.633371
0,1.777781,100,161,496,487,0.01184733,0.02814185,-0.008710423,-1.486643,-3.070437,-1.660552,0.02606026,-0.0003016088,0.00344445,-1.060238,-2.651678,1.633382
0,1.788892,100,161,496,487,0.01081024,0.02823574,-0.01518826,-1.486815,-3.070746,-1.660909,0.02256944,-0.004798686,-0.002230473,-1.060286,-2.652014,1.633603
0,1.800003,100,161,496,487,0.008642162,0.03010631,-0.01376549,-1.486833,-3.071052,-1.660983,0.0197576,-0.0003761034,-0.0008145226,-1.060408,-2.651961,1.633596
0,1.811115,96,157,497,497,0.01178855,0.03406024,-0.01735883,-1.486999,-3.071401,-1.661248,0.01977074,0.007539215,9.375624E-05,-1.060705,-2.65172,1.633542
0,1.822226,96,157,497,497,0.009650942,0.03403482,-0.0173636,-1.487001,-3.07173,-1.661469,0.01468856,0.01561101,0.007212906,-1.060896,-2.651224,1.633196
0,1.833337,96,157,497,497,0.01175406,0.03511833,-0.01715711,-1.487195,-3.07211,-1.661672,0.006749037,0.01621489,0.009622227,-1.060847,-2.650859,1.633022
0,1.844448,96,157,497,497,0.01500417,0.03117512,-0.01894528,-1.487302,-3.07233,-1.661921,0.005238913,0.01864502,0.01342747,-1.061016,-2.650451,1.632708
0,1.855559,96,157,497,497,0.01286812,0.03134105,-0.02000003,-1.487385,-3.072612,-1.662217,0.007827517,0.01859523,0.01627194,-1.061369,-2.650316,1.632463
0,1.86667,96,171,497,496,0.01400938,0.02593424,-0.01990275,-1.487579,-3.072721,-1.662451,0.006270772,0.01702979,0.01247476,-1.061469,-2.650181,1.63242
0,1.877781,96,171,497,496,0.01197681,0.0194287,-0.02001253,-1.487529,-3.072758,-1.662645,0.00460523,0.01766062,0.01200501,-1.061505,-2.649886,1.632224
0,1.888893,96,171,497,496,0.009008536,0.004990733,-0.01833678,-1.487574,-3.072387,-1.66278,0.002344184,0.02130863,0.0177153,-1.061616,-2.649395,1.631784
0,1.900004,96,171,497,496,0.0102947,-0.007557487,-0.02062527,-1.487671,-3.072003,-1.662915,-0.004235188,0.03180593,0.0238861,-1.061774,-2.648458,1.631248
0,1.911115,96,171,497,496,0.009419398,-0.01862292,-0.01940892,-1.487825,-3.071562,-1.663046,-0.007466815,0.04102863,0.03100873,-1.061929,-2.647597,1.630687
0,1.922226,90,149,498,498,0.003214395,-0.02978065,-0.01823395,-1.487758,-3.070947,-1.663187,-0.0132112,0.0441432,0.02912664,-1.061925,-2.646782,1.630323
0,1.933337,90,149,498,498,0.002260039,-0.03503241,-0.01920453,-1.487861,-3.070436,-1.66337,-0.01630969,0.04499128,0.02198218,-1.062019,-2.646281,1.630324
0,1.944448,90,149,498,498,0.001351778,-0.0454394,-0.0157037,-1.487851,-3.069726,-1.663379,-0.01286585,0.04546214,0.01528562,-1.062223,-2.645799,1.630326
0,1.955559,90,149,498,498,-0.002848008,-0.04865335,-0.01631461,-1.487768,-3.069105,-1.66349,-0.008686224,0.04076331,0.00861245,-1.062378,-2.645518,1.630358
0,1.966671,86,162,498,496,-0.004889255,-0.05450561,-0.01415324,-1.487725,-3.068311,-1.663538,-0.009378195,0.03187701,0.008664593,-1.062326,-2.645295,1.630227
0,1.977782,86,162,498,496,-0.005937112,-0.05575864,-0.01331687,-1.48766,-3.067703,-1.663642,-0.01447197,0.02189766,0.003502449,-1.062017,-2.645155,1.630284
0,1.988893,86,162,498,496,-0.01129279,-0.05785915,-0.008313081,-1.487353,-3.066996,-1.663506,-0.01362233,0.01454495,0.002582026,-1.061887,-2.645136,1.630292
0,2.000004,86,162,498,496,-0.009263763,-0.0527782,-0.006285101,-1.48735,-3.066532,-1.66348,-0.01961034,0.01809654,0.006890709,-1.061721,-2.644522,1.630041
0,2.011115,86,162,498,496,-0.006233507,-0.04616555,-0.0007225473,-1.487291,-3.066172,-1.663356,-0.01549756,0.01956456,0.006389332,-1.06179,-2.644231,1.629958
0,2.022226,86,143,497,498,-0.006396642,-0.037977,0.001871174,-1.487221,-3.065972,-1.663245,-0.01971917,0.02422116,0.003533529,-1.061685,-2.643701,1.629978
0,2.033337,86,143,497,498,-0.007510065,-0.0344581,0.0003388673,-1.487134,-3.065748,-1.663328,-0.0180348,0.0275388,0.002079661,-1.061821,-2.643211,1.629937
0,2.044448,86,143,497,498,-0.009907881,-0.02164486,0.007029079,-1.486956,-3.065872,-1.663066,-0.01640804,0.0229291,-0.0002910355,-1.06177,-2.643075,1.630008
0,2.055559,86,143,497,498,-0.01111802,-0.01290022,0.006469846,-1.486795,-3.065817,-1.663018,-0.01359892,0.02245178,-0.001251683,-1.06173,-2.642715,1.629994
0,2.06667,83,137,499,496,-0.006937828,-0.009024918,0.009366788,-1.486844,-3.065851,-1.662838,-0.009879507,0.02647884,-0.006536347,-1.061921,-2.642473,1.6302
0,2.077781,83,137,499,496,-0.003714355,-0.009445867,0.006054003,-1.486902,-3.065654,-1.662804,-0.007290655,0.03036825,-0.005619592,-1.062007,-2.642069,1.630279
0,2.088892,83,137,499,496,-0.002599526,-0.0127632,0.006531522,-1.486924,-3.065432,-1.662691,-0.009570638,0.03399959,-0.004676788,-1.062106,-2.641577,1.630277
0,2.100003,83,137,499,496,-0.002338707,-0.02580772,0.0008861101,-1.487124,-3.064722,-1.662766,-0.009799108,0.0344217,-0.000866164,-1.062218,-2.641153,1.630116
0,2.111114,83,137,499,496,-0.00327771,-0.0331584,-0.0004693145,-1.487097,-3.064173,-1.662757,-0.009842232,0.03044897,-0.003704148,-1.062163,-2.640916,1.630201
0,2.122225,79,165,499,492,-0.005193498,-0.04595701,-0.001742737,-1.487103,-3.063344,-1.662707,-0.01269526,0.0308904,-0.009894691,-1.062135,-2.640632,1.630486
0,2.133336,79,165,499,492,-0.006137215,-0.05168471,-0.006053186,-1.487071,-3.06254,-1.662799,-0.01255526,0.03266659,-0.01038672,-1.062268,-2.640177,1.630564
0,2.144447,79,165,499,492,-0.001757151,-0.05665913,-0.008031981,-1.487311,-3.061847,-1.662901,-0.008309413,0.04605196,-0.002380495,-1.062713,-2.639266,1.630272
0,2.155558,79,165,499,492,0.0003494765,-0.05472334,-0.006577415,-1.487499,-3.061285,-1.662904,-0.009272736,0.05163103,-0.0009830515,-1.062978,-2.63858,1.630162
0,2.166669,75,143,499,493,-0.000588458,-0.05901468,-0.01279714,-1.48753,-3.060454,-1.663149,-0.0125313,0.05690055,0.003293405,-1.063148,-2.637638,1.629881
0,2.17778,75,143,499,493,0.0004274976,-0.05624092,-0.01010451,-1.487707,-3.059943,-1.663112,-0.01138955,0.05310841,0.00377864,-1.063303,-2.637296,1.629838
0,2.188891,75,143,499,493,0.002428309,-0.04744282,-0.01063438,-1.487917,-3.059613,-1.663134,-0.01470048,0.04033454,0.002917435,-1.063088,-2.637094,1.629801
0,2.200002,75,143,499,493,0.004605843,-0.04988435,-0.008899398,-1.488135,-3.059015,-1.663142,-0.01481222,0.04250642,0.001474768,-1.063197,-2.636582,1.629775
0,2.211113,75,143,499,493,0.004620006,-0.04930892,-0.01205174,-1.488155,-3.058415,-1.663315,-0.01480683,0.04250835,0.001472854,-1.063282,-2.636066,1.629725
0,2.222224,76,142,498,494,0.007721977,-0.04439692,-0.008966723,-1.488385,-3.0581,-1.663314,0.00310968,0.03797299,-0.005280838,-1.06414,-2.636472,1.630132
0,2.233335,76,142,498,494,0.006590888,-0.03983968,-0.01030385,-1.488461,-3.057773,-1.663442,0.003117818,0.03797114,-0.005289361,-1.064376,-2.636136,1.63017
0,2.244446,76,142,498,494,0.01405635,-0.03970255,-0.01025081,-1.488767,-3.057293,-1.663548,0.003125953,0.03796929,-0.005297875,-1.064613,-2.6358,1.630209
0,2.255557,76,142,498,494,0.009809013,-0.0410164,-0.009438052,-1.488689,-3.056765,-1.663692,-0.006289339,0.04109981,0.003305893,-1.06459,-2.634552,1.62959
0,2.266668,77,137,497,497,0.01088019,-0.0411864,-0.008383167,-1.488859,-3.056296,-1.663777,-0.007297644,0.03880681,0.008585511,-1.064703,-2.633254,1.628996
0,2.277779,77,137,497,497,0.007542073,-0.03372177,-0.008116755,-1.488838,-3.056088,-1.663892,-0.0008316208,0.03048287,0.008127617,-1.06495,-2.633496,1.629043
0,2.28889,77,137,497,497,0.005345206,-0.03081169,-0.006506109,-1.48885,-3.055807,-1.663883,0.01208821,0.02785225,0.002372594,-1.065499,-2.633603,1.629204
0,2.300001,77,137,497,497,0.006091244,-0.01527173,-0.002569227,-1.488962,-3.055985,-1.663819,0.02574081,0.009931107,-0.005165811,-1.065809,-2.634557,1.629446
0,2.311112,77,137,497,497,0.006962555,-0.00601581,0.0002134636,-1.489059,-3.056134,-1.663732,0.02606913,-0.006729666,-0.009813007,-1.065544,-2.635091,1.629582
0,2.322223,74,153,498,498,0.005476,0.01510698,0.002989652,-1.489036,-3.056784,-1.663722,0.01750605,-0.01714117,-0.01066987,-1.065332,-2.635567,1.629784
0,2.333334,74,153,498,498,0.007510325,0.01933801,0.003762135,-1.489029,-3.057005,-1.66385,0.01404948,-0.01761008,-0.008748971,-1.065306,-2.635849,1.630035
0,2.344445,74,153,498,498,0.009533674,0.02481089,0.003682837,-1.489161,-3.057416,-1.663833,0.0145794,-0.01834064,0.002682094,-1.065317,-2.635977,1.629658
0,2.355556,74,153,498,498,0.009499393,0.02471126,0.01015258,-1.489282,-3.057729,-1.663604,0.01051971,-0.01578276,0.01076507,-1.06509,-2.635792,1.629415
0,2.366668,74,153,498,498,0.009444805,0.02881258,0.005487562,-1.489355,-3.058163,-1.663715,0.01413463,-0.01351285,0.0131208,-1.065245,-2.635903,1.629187
0,2.377779,75,145,499,497,0.01148828,0.0330489,0.006260641,-1.489532,-3.058671,-1.66363,0.008462999,-0.01650975,0.01219633,-1.064903,-2.636175,1.629022
0,2.38889,75,145,499,497,0.008430001,0.02727313,0.001953955,-1.489507,-3.058774,-1.66373,0.004883038,-0.01482491,0.01028941,-1.064816,-2.636204,1.62893
0,2.400001,75,145,499,497,0.003146836,0.02507254,0.001540297,-1.489321,-3.058999,-1.66379,0.005934838,-0.01247413,0.01217215,-1.064641,-2.636117,1.628833
0,2.411112,75,145,499,497,2.252357E-05,0.02206334,-0.0001001863,-1.489273,-3.059221,-1.663848,0.01167797,-0.01561986,0.01407501,-1.064761,-2.636405,1.628626
0,2.422223,75,137,498,494,-0.003124486,0.02009851,-0.001548477,-1.489158,-3.059382,-1.663923,0.01906666,-0.01943409,0.01169225,-1.064897,-2.636869,1.628718
0,2.433334,75,137,498,494,-0.001053856,0.02347877,-0.002007403,-1.489252,-3.059815,-1.663977,0.0142964,-0.02185909,0.01076035,-1.064619,-2.637009,1.628619
0,2.444445,75,137,498,494,-0.007479249,0.02564369,-0.002702859,-1.488953,-3.060095,-1.66402,0.008754442,-0.02309893,0.004592596,-1.064461,-2.637317,1.628766
0,2.455556,75,137,498,494,-0.006393297,0.0248083,-0.003931962,-1.488842,-3.060277,-1.664132,0.002909028,-0.01775878,0.0060047,-1.064108,-2.636993,1.628599
0,2.466667,75,137,498,494,-0.007443651,0.02336009,-0.002033422,-1.48866,-3.060519,-1.664191,0.003706392,-0.01500921,0.006939053,-1.064112,-2.63706,1.628486
0,2.477778,75,130,499,497,-0.006400247,0.02423922,-0.0007830041,-1.488586,-3.060865,-1.664157,0.00674593,-0.005794398,0.008784424,-1.064235,-2.636919,1.628463
0,2.488889,75,130,499,497,-0.006369294,0.02396281,-0.005159589,-1.488499,-3.061091,-1.664369,0.01073455,-0.006101079,0.01353392,-1.064398,-2.636927,1.628136
0,2.5,75,130,499,497,-0.006372199,0.02415802,-0.006202765,-1.488292,-3.061294,-1.66457,0.008250429,-0.0121508,0.01642518,-1.064142,-2.637114,1.627841
0,2.511111,75,130,499,497,-0.005248719,0.02065,-0.004679086,-1.48825,-3.061417,-1.664586,0.005245883,-0.01740756,0.01502677,-1.063949,-2.637341,1.627716
0,2.522222,72,135,499,500,-0.006288687,0.01938871,-0.003830521,-1.488235,-3.061606,-1.664596,0.00840974,-0.02049446,0.01169243,-1.063947,-2.637825,1.627766
0,2.533333,72,135,499,500,-0.0042403,0.0238156,-0.004087627,-1.48826,-3.062082,-1.664648,0.01015676,-0.02334373,0.006457413,-1.063904,-2.638184,1.627835
0,2.544444,72,135,499,500,-0.00324179,0.02678507,-0.002451295,-1.488211,-3.062467,-1.664664,0.01628357,-0.01501177,0.013065,-1.064187,-2.638098,1.627428
0,2.555555,72,135,499,500,-0.00321678,0.02612018,-0.004733406,-1.488139,-3.062624,-1.664788,0.0101759,0.0008283523,0.01540625,-1.064377,-2.637531,1.627062
0,2.566666,72,135,499,500,-0.005328221,0.02503652,-0.004935644,-1.487963,-3.062897,-1.664922,0.001935259,0.008036711,0.01827222,-1.064328,-2.637032,1.626719
0,2.577777,76,136,499,498,-0.0009886553,0.02092824,-0.005682252,-1.488017,-3.062985,-1.665016,0.0001737522,0.01086071,0.01875051,-1.064158,-2.636652,1.626432
0,2.588888,76,136,499,498,0.00134177,0.01212831,-0.01055449,-1.488111,-3.062833,-1.665253,0.002916019,0.006392373,0.01255946,-1.064219,-2.636765,1.626473
0,2.599999,76,136,499,498,-0.0005155494,-0.001921567,-0.0109947,-1.488005,-3.062336,-1.665277,0.0127061,0.0007057041,0.00872506,-1.064442,-2.636971,1.626486
0,2.61111,76,136,499,498,0.002796812,-0.007100135,-0.01193924,-1.488231,-3.06209,-1.665341,0.01213485,-0.002460738,0.003977459,-1.064437,-2.637091,1.626494
0,2.622221,78,135,499,496,0.006154843,-0.01436335,-0.01328019,-1.488423,-3.061758,-1.665544,0.00646232,0.004668688,0.007311323,-1.064477,-2.63682,1.6263
0,2.633332,78,135,499,496,0.005104361,-0.01582368,-0.01138705,-1.488417,-3.061492,-1.665595,-0.0009262897,0.01858663,0.009197452,-1.06464,-2.636161,1.626132
0,2.644443,78,135,499,496,0.005264982,-0.02334758,-0.01169795,-1.488546,-3.060998,-1.665694,-0.006872072,0.02610616,0.006815458,-1.064665,-2.635552,1.626058
0,2.655554,78,135,499,496,0.008407818,-0.01993806,-0.01214542,-1.48877,-3.06096,-1.665911,-0.002515115,0.0332986,0.01105572,-1.065011,-2.635019,1.62575
0,2.666665,78,135,499,496,0.008377447,-0.01947368,-0.008806687,-1.488884,-3.060753,-1.665906,0.005475149,0.03656547,0.006705568,-1.065514,-2.634718,1.625761
0,2.677776,78,164,498,497,0.0104789,-0.01877375,-0.006498006,-1.489048,-3.060508,-1.665868,0.007080998,0.031945,0.004325122,-1.065807,-2.634733,1.625826
0,2.688887,78,164,498,497,0.009365201,-0.01689534,-0.005068824,-1.489132,-3.060376,-1.665871,0.006519666,0.02878667,0.001955328,-1.065963,-2.63457,1.625856
0,2.699998,78,164,498,497,0.01247085,-0.01263914,-0.004268512,-1.489388,-3.060324,-1.66587,0.00754477,0.02100919,-0.002783854,-1.066005,-2.634673,1.626124
0,2.711109,78,164,498,497,0.01566027,-0.01256976,-0.004248505,-1.489519,-3.060148,-1.665948,0.009850247,0.02130558,-0.005657781,-1.066257,-2.634617,1.626274
0,2.72222,78,164,498,497,0.01246213,-0.01283108,-0.003220473,-1.489582,-3.060029,-1.66592,0.008338733,0.0237145,-0.00900339,-1.066534,-2.634355,1.626374
0,2.733331,80,153,498,499,0.01568773,-0.01360999,-0.004437699,-1.489838,-3.059884,-1.665987,0.007311187,0.03148234,-0.00666402,-1.066877,-2.633765,1.626262
0,2.744442,80,153,498,499,0.01268894,-0.02225205,-0.004950735,-1.489953,-3.059404,-1.665969,0.005840382,0.03394565,-0.0004803324,-1.067096,-2.633307,1.62604
0,2.755553,80,153,498,499,0.01492083,-0.02638596,-0.005698746,-1.490171,-3.059119,-1.665969,0.00329731,0.03405004,0.001431078,-1.067348,-2.632953,1.625896
0,2.766664,80,153,498,499,0.01302599,-0.03566504,-0.008493925,-1.490308,-3.058483,-1.66607,-0.0029929,0.03407505,-0.0004565199,-1.06737,-2.632533,1.625922
0,2.777775,81,145,499,496,0.01300717,-0.03442447,-0.009341827,-1.490441,-3.058136,-1.6661,0.0002259407,0.03492657,-0.003337942,-1.067662,-2.632259,1.625979
0,2.788886,81,145,499,496,0.008830203,-0.03967682,-0.004897116,-1.490461,-3.057543,-1.665973,0.007673686,0.03502685,-0.005280345,-1.068093,-2.632091,1.626096
0,2.799997,81,145,499,496,0.007848599,-0.04122145,-0.0084124,-1.490749,-3.057016,-1.666,0.009949947,0.03140008,-0.001452999,-1.06841,-2.631879,1.625946
0,2.811108,81,145,499,496,0.009917038,-0.03784088,-0.008857435,-1.490988,-3.056651,-1.666018,0.01346345,0.02572856,2.402812E-06,-1.068699,-2.631856,1.62589
0,2.822219,81,145,499,496,0.00539884,-0.02727287,-0.008015621,-1.490901,-3.056594,-1.666042,0.01624922,0.01514033,0.001974946,-1.068854,-2.632019,1.625796
0,2.83333,81,136,498,497,0.007441043,-0.02265178,-0.009322065,-1.491117,-3.056394,-1.666109,0.009239618,0.01026935,0.002982249,-1.06859,-2.631952,1.625723
0,2.844441,81,136,498,497,0.008250527,-0.01215192,-0.007391738,-1.491273,-3.056559,-1.666111,0.005522379,0.01022092,0.003945257,-1.068597,-2.631784,1.625647
0,2.855552,81,136,498,497,0.009134384,-0.004596652,-0.007095915,-1.491349,-3.056701,-1.666295,0.0113731,0.01493941,0.004378049,-1.06879,-2.631628,1.625525
0,2.866663,81,136,498,497,0.00894901,0.002736944,-0.005753152,-1.491417,-3.056931,-1.666331,0.01122396,0.0193553,0.0134021,-1.069042,-2.631222,1.625107
0,2.877774,77,133,498,498,0.008927627,0.004364903,-0.008700617,-1.491474,-3.057021,-1.666463,0.01470867,0.01364783,0.01009763,-1.069166,-2.631369,1.625082
0,2.888885,77,133,498,498,0.01095348,0.008993752,-0.01001382,-1.491612,-3.057261,-1.666602,0.01224363,0.005396194,0.004919192,-1.069144,-2.631591,1.625167
0,2.899997,77,133,498,498,0.007645776,0.01271816,-0.007174663,-1.491629,-3.057418,-1.666641,0.0150697,-0.001265241,0.002574346,-1.069108,-2.631931,1.625297
0,2.911108,77,133,498,498,0.004454859,0.01321812,-0.0103366,-1.491538,-3.057523,-1.666872,0.01675134,-0.008055046,0.00404676,-1.069181,-2.632239,1.625218
0,2.922219,77,133,498,498,0.004372517,0.01655395,-0.01080991,-1.491568,-3.057696,-1.667128,0.01055627,-0.003990252,0.0145155,-1.069105,-2.632138,1.624758
0,2.93333,78,136,498,495,0.001203483,0.01562422,-0.01206935,-1.491433,-3.057785,-1.667339,0.01082285,-0.004368241,0.02022892,-1.06906,-2.631799,1.62425
0,2.944441,78,136,498,495,-0.00406769,0.01320282,-0.01143898,-1.491253,-3.057805,-1.667408,0.004844911,-0.0007943707,0.01498329,-1.06901,-2.631663,1.624222
0,2.955552,78,136,498,495,-0.001849166,0.0104994,-0.01409743,-1.491353,-3.057775,-1.667648,0.001833006,0.004035809,0.008292966,-1.068986,-2.6316,1.624337
0,2.966663,78,136,498,495,-0.006255998,0.01505261,-0.01001622,-1.491114,-3.058067,-1.667707,0.002908229,0.006378628,0.01018174,-1.069085,-2.631423,1.624134
0,2.977774,78,136,498,495,-0.004064739,0.01359149,-0.01353134,-1.491166,-3.058069,-1.66802,0.005338252,0.004537737,0.01828433,-1.06913,-2.631365,1.623692
0,2.988885,79,129,497,494,-0.005222319,0.01612739,-0.009813569,-1.491021,-3.058274,-1.668069,0.01073878,-0.008363411,0.01738768,-1.069177,-2.631804,1.623535
0,2.999996,79,129,497,494,-0.004181553,0.01700554,-0.008566644,-1.491135,-3.05847,-1.668168,0.01433114,-0.02853574,0.01272257,-1.068995,-2.632725,1.623558
0,3.011107,79,129,497,494,-0.003343182,0.02541012,-0.007003166,-1.491087,-3.058956,-1.668264,0.0090541,-0.03627247,0.006104521,-1.068664,-2.633319,1.623718
0,3.022218,79,129,497,494,-0.006569168,0.02598543,-0.004734179,-1.490908,-3.05918,-1.668332,0.002455771,-0.03978068,0.002797847,-1.068324,-2.633649,1.623823
0,3.033329,76,133,498,497,-0.006713251,0.03082999,-0.00166834,-1.490808,-3.059572,-1.668405,0.005325288,-0.03016224,0.008455377,-1.068583,-2.63354,1.623542
0,3.04444,76,133,498,497,-0.007776878,0.03060924,-0.0006237193,-1.49066,-3.059904,-1.668422,0.01083993,-0.01669891,0.01503675,-1.068872,-2.633318,1.623123
0,3.055551,76,133,498,497,-0.01113919,0.03642435,0.002623557,-1.490334,-3.060459,-1.668468,0.01355226,-0.008890624,0.01641797,-1.069124,-2.633213,1.622847
0,3.066662,76,133,498,497,-0.007975024,0.03755173,0.002845458,-1.490222,-3.060878,-1.668522,0.0234659,-0.01288602,0.01450555,-1.06949,-2.633612,1.622721
0,3.077773,76,133,498,497,-0.008099116,0.0425982,0.004875959,-1.490141,-3.06159,-1.668317,0.02387463,-0.02382942,0.007424739,-1.069628,-2.634438,1.622895
0,3.088884,74,145,498,498,-0.009233405,0.04669059,0.0002370749,-1.489898,-3.062161,-1.668539,0.01348712,-0.04363104,-0.002926644,-1.069038,-2.635427,1.623296
0,3.099995,74,145,498,498,-0.005961998,0.04304537,0.002809595,-1.489951,-3.062576,-1.668517,0.0009546205,-0.04967235,-0.008108862,-1.068453,-2.636029,1.623553
0,3.111106,74,145,498,498,-0.00787754,0.034032,0.004374904,-1.489688,-3.062701,-1.668466,0.001043931,-0.04570033,-0.005277736,-1.068266,-2.636387,1.623562
0,3.122217,74,145,498,498,-0.004560566,0.02712271,0.01283736,-1.489713,-3.06296,-1.668047,-0.0003091255,-0.02300794,0.009375759,-1.068396,-2.635854,1.62301
0,3.133328,74,139,498,496,-0.007531673,0.01568862,0.02152906,-1.489554,-3.063035,-1.667502,0.0005808845,-0.01016722,0.01217438,-1.068619,-2.635775,1.622765
0,3.144439,74,139,498,496,-0.007193938,0.002466446,0.01689899,-1.489453,-3.062733,-1.667413,-0.0005957966,-0.004188423,0.01024563,-1.068646,-2.635601,1.622669
0,3.15555,74,139,498,496,-0.008218636,0.002372223,0.01146247,-1.48933,-3.062801,-1.667402,-0.007294428,-0.005510475,0.007900345,-1.068439,-2.63561,1.622543
0,3.166661,74,139,498,496,-0.008130364,1.154584E-05,0.006688135,-1.489247,-3.062731,-1.667452,-0.01186383,-0.01449643,-0.005383772,-1.068033,-2.636023,1.623001
0,3.177772,74,139,498,496,-0.01131391,-0.002075564,0.01170978,-1.489072,-3.062752,-1.667131,-0.008322353,-0.0162586,-0.01301133,-1.068128,-2.636352,1.623413
0,3.188883,74,136,498,495,-0.01335013,-0.006309458,0.01091216,-1.48881,-3.062553,-1.667035,-0.005274313,-0.01721614,-0.02015948,-1.068064,-2.636779,1.62392
0,3.199994,74,136,498,495,-0.01129193,-0.005523111,0.01865432,-1.48874,-3.062572,-1.66658,-0.005542636,-0.01067208,-0.01971446,-1.068063,-2.636744,1.624151
0,3.211105,74,136,498,495,-0.01123146,-0.01106413,0.02520414,-1.488512,-3.062359,-1.666176,-0.006032477,-0.003657868,-0.008308839,-1.068007,-2.636329,1.623752
0,3.222216,74,136,498,495,-0.01022362,-0.00970537,0.02979578,-1.488491,-3.062423,-1.665708,-0.008344438,-0.003960561,-0.007822534,-1.067846,-2.636313,1.623823
0,3.233327,77,127,499,498,-0.00908244,-0.01462735,0.03322388,-1.48846,-3.062211,-1.665206,-0.007358762,-0.005611487,-0.01352909,-1.067994,-2.636478,1.624082
0,3.244438,77,127,499,498,-0.00909695,-0.01500582,0.03531261,-1.488258,-3.062098,-1.664917,-0.004543863,-0.01231556,-0.02303007,-1.067881,-2.637038,1.624673
0,3.255549,77,127,499,498,-0.01339751,-0.01296557,0.0356899,-1.488173,-3.062133,-1.664335,-0.006600315,-0.01303698,-0.02397039,-1.067859,-2.637242,1.624983
0,3.26666,77,127,499,498,-0.01453911,-0.008206154,0.03331413,-1.487991,-3.062189,-1.66405,-0.006283816,-0.02575113,-0.02818523,-1.067498,-2.638032,1.625542
0,3.277771,77,127,499,498,-0.01567376,-0.005065613,0.03388882,-1.48769,-3.062304,-1.663653,-0.0165162,-0.02535381,-0.02530124,-1.066958,-2.638151,1.625794
0,3.288882,73,125,497,503,-0.01359827,-0.001678398,0.03343477,-1.487601,-3.062437,-1.663316,-0.01578985,-0.02043008,-0.02342245,-1.066789,-2.638287,1.626032
0,3.299993,73,125,497,503,-0.01162869,0.006375866,0.03708947,-1.487387,-3.062807,-1.662739,-0.01409299,-0.01094998,-0.01633376,-1.066763,-2.638095,1.626007
0,3.311104,73,125,497,503,-0.009635836,0.01481061,0.03863649,-1.487307,-3.063292,-1.662305,-0.008548167,0.006519916,-0.006922657,-1.067107,-2.637625,1.625862
0,3.322215,73,125,497,503,-0.004345685,0.01863381,0.03609436,-1.487427,-3.063721,-1.661989,-0.009088969,0.01346456,-0.007438428,-1.067165,-2.637309,1.625947
0,3.333326,73,125,497,503,-0.006419592,0.01689799,0.03360323,-1.487338,-3.063859,-1.66164,-0.0124248,0.01474234,-0.01315976,-1.067153,-2.637073,1.626285
0,3.344437,71,135,499,497,-0.0083132,0.00382179,0.02796094,-1.487225,-3.063611,-1.661442,-0.01024568,0.007093047,-0.01931693,-1.06704,-2.637307,1.626708
0,3.355548,71,135,499,497,-0.008158082,-0.005222301,0.02414206,-1.487115,-3.063382,-1.66127,-0.01054747,0.003500581,-0.02310874,-1.067098,-2.63769,1.627118
0,3.366659,71,135,499,497,-0.01316843,-0.02301759,0.01437775,-1.486896,-3.062618,-1.661302,-0.008283019,-0.0001392742,-0.02166228,-1.067016,-2.637891,1.627369
0,3.37777,71,135,499,497,-0.01196486,-0.03261928,0.01371767,-1.486867,-3.062044,-1.661091,-0.009576298,0.00804658,-0.01790562,-1.067026,-2.637574,1.627485
0,3.388881,73,176,499,499,-0.00966882,-0.04125509,0.007820703,-1.486942,-3.061366,-1.661096,-0.01409024,0.01536619,-0.01365384,-1.06697,-2.637026,1.627495
0,3.399992,73,176,499,499,-0.005331955,-0.04337947,0.002044032,-1.487082,-3.060894,-1.661088,-0.01492945,0.01879754,-0.008432407,-1.066943,-2.636639,1.627448
0,3.411103,73,176,499,499,-0.005314716,-0.04461252,0.002909159,-1.487143,-3.060496,-1.660969,-0.01433174,0.01579391,-0.009854084,-1.066934,-2.636643,1.627726
0,3.422215,73,176,499,499,-0.005397919,-0.0375618,-0.0001430926,-1.487105,-3.060255,-1.661041,-0.01925112,0.01164016,-0.005517428,-1.06665,-2.636425,1.627643
0,3.433326,73,176,499,499,-0.001227301,-0.02977463,-0.0008770245,-1.487332,-3.060208,-1.661099,-0.01956206,0.01816353,-0.007473652,-1.066623,-2.636125,1.627867
0,3.444437,78,148,499,497,-0.001320636,-0.02310527,-0.001830957,-1.487298,-3.060106,-1.661133,-0.01647847,0.02739325,-0.003259297,-1.066806,-2.635595,1.627751
0,3.455548,78,148,499,497,-0.0003197357,-0.01889479,-0.001066212,-1.487329,-3.060004,-1.661174,-0.0100226,0.02917777,0.000510369,-1.067084,-2.635283,1.627696
0,3.466659,78,148,499,497,-0.001406987,-0.01624207,-0.003837082,-1.487313,-3.059861,-1.661268,-0.01050267,0.03002616,0.00575152,-1.067141,-2.634796,1.627439
0,3.47777,78,148,499,497,0.001826341,-0.01866684,-0.002104314,-1.487533,-3.059638,-1.661284,-0.0106008,0.02212654,0.007241985,-1.067089,-2.634559,1.62726
0,3.488881,83,143,499,497,0.0007358162,-0.01801654,0.0001769539,-1.487509,-3.05948,-1.661215,-0.006395561,0.01126512,0.003971043,-1.067066,-2.634695,1.627293
0,3.499992,83,143,499,497,-0.0002754987,-0.01955639,-0.003347914,-1.487606,-3.059247,-1.661251,-0.001549769,0.001329732,-0.005028615,-1.067045,-2.635142,1.627656
0,3.511103,83,143,499,497,-0.0003191689,-0.01602655,-0.004870119,-1.487635,-3.059212,-1.661291,0.0001635016,-0.005445813,-0.003555993,-1.067064,-2.635249,1.627617
0,3.522214,83,143,499,497,0.002826795,-0.01283365,-0.004278028,-1.487775,-3.059155,-1.661313,0.002784981,-0.01164831,0.0002900369,-1.067028,-2.635509,1.627513
0,3.533325,83,143,499,497,0.005881883,-0.004586511,-0.001685438,-1.487915,-3.059375,-1.66125,0.006517704,-0.01155579,0.004093418,-1.067228,-2.635616,1.627326
0,3.544436,91,149,500,493,0.008946345,0.00442061,-0.003289473,-1.488077,-3.059624,-1.66136,-0.0007117604,-0.00594019,0.005978614,-1.067099,-2.635413,1.627195
0,3.555547,91,149,500,493,0.009935541,0.009689573,-0.002334357,-1.488467,-3.060007,-1.661354,-0.0009600166,0.004555922,0.004478026,-1.067265,-2.635016,1.627172
0,3.566658,91,149,500,493,0.01200331,0.01249064,0.0003413561,-1.48864,-3.060255,-1.661319,0.001575092,0.01062959,0.008718275,-1.067463,-2.63469,1.626925
0,3.577769,91,149,500,493,0.009839638,0.01474553,-0.0003407785,-1.488662,-3.060515,-1.661373,0.00374306,0.009162414,0.008724529,-1.067645,-2.634725,1.626779
0,3.58888,97,133,500,497,0.009853766,0.01350865,0.0005165648,-1.488755,-3.060633,-1.661362,0.005178768,0.002746562,0.004476419,-1.067661,-2.634955,1.626881
0,3.599991,97,133,500,497,0.005583286,0.01524677,-0.003512856,-1.488676,-3.060776,-1.661635,0.008145316,-0.00605315,0.008341377,-1.067692,-2.63535,1.626673
0,3.611102,97,133,500,497,0.006719719,0.01088031,-0.003216653,-1.488804,-3.060764,-1.661623,-5.475979E-05,-0.004980534,0.005017945,-1.067519,-2.635276,1.626738
0,3.622213,97,133,500,497,0.008834456,0.01235438,-0.005115327,-1.488965,-3.061038,-1.661855,0.00256777,-0.001111701,0.005938073,-1.067638,-2.635209,1.626631
0,3.633324,97,133,500,497,0.007842544,0.007960273,-0.004837076,-1.489045,-3.061054,-1.661977,0.003619839,0.001208242,0.003058104,-1.067778,-2.635187,1.626697
0,3.644435,99,143,499,493,0.008945477,0.005883999,-0.00521042,-1.489171,-3.061063,-1.662037,0.004399864,0.01010276,0.005376784,-1.068012,-2.634866,1.626551
0,3.655546,99,143,499,493,0.006889763,0.00127978,-0.00388168,-1.489237,-3.061076,-1.661981,0.002600548,0.008999417,0.007770479,-1.068104,-2.634737,1.626376
0,3.666657,99,143,499,493,0.006982139,-0.004339964,-0.002732461,-1.489334,-3.060883,-1.66195,0.001688471,0.008423343,0.005394317,-1.068153,-2.634656,1.626373
0,3.677768,99,143,499,493,0.004897808,-0.006656494,-0.002074216,-1.489479,-3.060872,-1.661942,-0.004626252,0.0083769,-0.006031724,-1.068023,-2.634779,1.626909
0,3.688879,99,143,499,493,0.003906261,-0.009060434,-0.006843338,-1.489493,-3.060654,-1.662141,-0.006345489,0.005067105,-0.006956302,-1.067894,-2.634808,1.62702
0,3.69999,102,147,499,495,0.003968711,-0.01239224,-0.00636339,-1.489571,-3.060625,-1.66214,4.542992E-05,0.002874992,-0.003622002,-1.068042,-2.634948,1.62694
0,3.711101,102,147,499,495,0.002841607,-0.009457976,-0.00475664,-1.48963,-3.060446,-1.662233,0.001110013,0.005224738,-0.001738546,-1.068118,-2.634873,1.626954
0,3.722212,102,147,499,495,0.001709152,-0.00671231,-0.002098005,-1.489614,-3.060466,-1.662173,-0.001254304,0.01101241,-0.007018651,-1.06817,-2.634717,1.62716
0,3.733323,102,147,499,495,0.000475697,0.001271829,0.001504959,-1.489591,-3.060634,-1.662109,-0.002985725,0.007708221,-0.007941402,-1.067963,-2.634592,1.627261
0,3.744434,106,146,500,497,0.002508895,0.004368926,0.008563539,-1.489664,-3.060818,-1.661832,-0.001985138,0.00607952,-0.00888527,-1.06797,-2.634647,1.627407
0,3.755545,106,146,500,497,-0.0006884877,0.004120449,0.009589504,-1.489536,-3.060821,-1.661743,-0.002894643,0.005499147,-0.01126183,-1.067973,-2.634674,1.627587
0,3.766656,106,146,500,497,-0.003855238,0.001214271,0.01338576,-1.489404,-3.060798,-1.661483,0.006448674,0.004516402,-0.01651569,-1.068269,-2.634973,1.627962
0,3.777767,106,146,500,497,-0.002703272,-0.004757883,0.01664482,-1.489464,-3.060663,-1.661179,0.011121,-0.001027486,-0.01886368,-1.068466,-2.635473,1.628377
0,3.788878,106,146,500,497,-0.001550414,-0.01035319,0.01780849,-1.489501,-3.060462,-1.660939,0.007193029,-0.006858467,-0.02261585,-1.068342,-2.635836,1.628798
0,3.799989,108,149,500,496,-0.0003928086,-0.01557318,0.01687724,-1.48955,-3.060182,-1.660757,-0.002149035,-0.005907005,-0.01975755,-1.068097,-2.635847,1.629024
0,3.8111,108,149,500,496,0.0008021966,-0.02289047,0.01557326,-1.489647,-3.059757,-1.660609,-0.007670847,-0.007045592,-0.01402226,-1.06783,-2.63583,1.629014
0,3.822211,108,149,500,496,0.004239613,-0.03466507,0.009150665,-1.489834,-3.059078,-1.660625,-0.01666735,0.001379299,-0.01407507,-1.067665,-2.635485,1.629079
0,3.833322,108,149,500,496,0.0001042252,-0.04207632,0.007814325,-1.489768,-3.058438,-1.660531,-0.0149656,0.01472752,-0.01849502,-1.067838,-2.63528,1.629498
0,3.844433,103,156,500,502,-0.002902202,-0.05223968,0.003820391,-1.489707,-3.05758,-1.660528,-0.00526703,0.02125229,-0.02430208,-1.06821,-2.635207,1.629944
0,3.855544,103,156,500,502,-0.006004148,-0.05715962,0.0007624468,-1.489623,-3.056804,-1.660519,0.003485007,0.0233245,-0.02339193,-1.06853,-2.635173,1.630211
0,3.866655,103,156,500,502,-0.008206572,-0.05603242,0.006379314,-1.489529,-3.056238,-1.660239,-0.001997653,0.01598426,-0.02379039,-1.068367,-2.635253,1.630524
0,3.877766,103,156,500,502,-0.007249968,-0.05114366,0.009432122,-1.489521,-3.055896,-1.659998,-0.01729057,0.01432733,-0.02280381,-1.067872,-2.63505,1.630808
0,3.888877,103,156,500,502,-0.006287406,-0.04786088,0.01544854,-1.489522,-3.055526,-1.659629,-0.02478195,0.01022635,-0.0213206,-1.067467,-2.634906,1.631031
0,3.899988,93,160,499,499,-0.004200773,-0.04751622,0.01986422,-1.489583,-3.055068,-1.659234,-0.02099797,0.004154952,-0.02126516,-1.06734,-2.635075,1.631298
0,3.911099,93,160,499,499,-0.002078617,-0.04747597,0.01989356,-1.48967,-3.054578,-1.658952,-0.01655782,-0.0009287503,-0.01979021,-1.067238,-2.635271,1.631514
0,3.92221,93,160,499,499,-1.346599E-05,-0.04108197,0.01454607,-1.489739,-3.054318,-1.658912,-0.01268621,0.0009582713,-0.01647384,-1.067267,-2.635247,1.631538
0,3.933321,93,160,499,499,-5.142018E-05,-0.03719118,0.01090996,-1.489778,-3.053981,-1.658896,-0.01916349,0.009283789,-0.01607027,-1.066944,-2.63469,1.631698
0,3.944432,87,151,499,492,0.004232652,-0.03798616,0.00971045,-1.48998,-3.053582,-1.658782,-0.02700785,0.02178297,-0.01713895,-1.066782,-2.634024,1.63191
0,3.955544,87,151,499,492,-0.001150382,-0.03652411,0.01320379,-1.489833,-3.053259,-1.658512,-0.02720837,0.04021453,-0.01542024,-1.067016,-2.633125,1.631877
0,3.966655,87,151,499,492,-0.00221413,-0.03795563,0.01511948,-1.489815,-3.052843,-1.658265,-0.02252136,0.04491847,-0.006419973,-1.067209,-2.632389,1.631634
0,3.977766,87,151,499,492,-0.002258413,-0.03603802,0.01654816,-1.489811,-3.052516,-1.658002,-0.01553218,0.0396585,-0.01400632,-1.067304,-2.632339,1.631938
0,3.988877,87,151,499,492,-0.004385076,-0.03551309,0.01338961,-1.489738,-3.052134,-1.657924,-0.01703652,0.03189152,-0.02155889,-1.067203,-2.632325,1.632446
0,3.999988,84,144,498,493,-0.004611326,-0.02559153,0.01838889,-1.489182,-3.051897,-1.657461,-0.02066182,0.02962633,-0.02153636,-1.067049,-2.631952,1.632717
0,4.011099,84,144,498,493,0.0004794188,-0.01051177,0.02539338,-1.489307,-3.052284,-1.657007,-0.02992288,0.02833739,-0.01960033,-1.066674,-2.631497,1.632884
0.3333333,4.02221,84,144,498,493,0.004174102,0.02151056,0.06558206,-1.489373,-3.053628,-1.655389,-0.07220219,0.02797584,0.01776863,-1.065131,-2.629645,1.631456
0.6666667,4.033321,84,144,498,493,0.003972605,0.03651529,0.08543367,-1.489176,-3.0545,-1.654056,-0.07966441,0.02381691,0.02171034,-1.064263,-2.628838,1.631035
1,4.044433,84,144,498,493,0.001690432,0.05790402,0.09337346,-1.489015,-3.055955,-1.652878,-0.105797,0.01894625,0.00906134,-1.062605,-2.627964,1.631325
1.333333,4.055544,84,147,499,496,-0.003593519,0.06176871,0.09612418,-1.488782,-3.05682,-1.651952,-0.1168403,0.02570975,-0.02428107,-1.061526,-2.627399,1.632686
1.666667,4.066655,84,147,499,496,-0.02030509,0.02721518,0.089072,-1.488146,-3.056282,-1.651163,-0.110745,0.05134791,-0.04739527,-1.061238,-2.626305,1.633919
2,4.077766,84,147,499,496,-0.03182739,-0.007783939,0.09169488,-1.487529,-3.055254,-1.649933,-0.104,0.05048341,-0.0483597,-1.060747,-2.625689,1.634459
2.333333,4.088878,84,147,499,496,-0.05414693,-0.07459889,0.1040488,-1.486535,-3.052693,-1.648207,-0.06022705,0.06940602,-0.0334834,-1.061859,-2.624759,1.634313
2.666667,4.099989,85,137,500,500,-0.0811072,-0.1415843,0.1121445,-1.48539,-3.049453,-1.646262,0.02609898,0.1335523,0.001727816,-1.065763,-2.622751,1.632861
3,4.1111,85,137,500,500,-0.09659769,-0.1818739,0.1161382,-1.484149,-3.046399,-1.644607,0.06806099,0.1818639,0.01038862,-1.069154,-2.620373,1.632167
3.333333,4.122211,85,137,500,500,-0.1200902,-0.230102,0.1307317,-1.482525,-3.042846,-1.64231,0.05971186,0.1943055,-0.05271702,-1.07074,-2.619402,1.634653
3.666666,4.133323,85,137,500,500,-0.1308157,-0.2534157,0.1453069,-1.48109,-3.039498,-1.639997,0.01752169,0.1703615,-0.08596119,-1.070311,-2.618752,1.636606
4,4.144434,85,137,500,500,-0.138685,-0.2773782,0.1718429,-1.479686,-3.036011,-1.637122,-0.08002996,0.1040689,-0.09531382,-1.067026,-2.618288,1.638194
4.333333,4.155545,88,135,500,496,-0.1374902,-0.2702038,0.1928489,-1.478531,-3.033655,-1.634256,-0.1198957,0.07477522,-0.09525925,-1.065188,-2.617486,1.639153
4.666667,4.166656,88,135,500,496,-0.1404234,-0.2561783,0.2127277,-1.477154,-3.031451,-1.631212,-0.1470635,0.03709972,-0.108933,-1.062854,-2.617663,1.641003
5,4.177768,88,135,500,496,-0.1410225,-0.2431687,0.2247815,-1.475854,-3.029407,-1.628505,-0.1549891,0.03481266,-0.121777,-1.06159,-2.617183,1.642849
5.333333,4.188879,88,135,500,496,-0.1447617,-0.2264334,0.2428495,-1.474378,-3.02769,-1.625183,-0.1473297,0.04779935,-0.1291741,-1.060824,-2.616475,1.644645
5.666667,4.19999,88,155,500,497,-0.1470542,-0.2031347,0.2608124,-1.472852,-3.026242,-1.621746,-0.1191846,0.07225627,-0.1435934,-1.061108,-2.615667,1.646794
6,4.211102,88,155,500,497,-0.1453302,-0.1906409,0.2792509,-1.471476,-3.024844,-1.618041,-0.1067829,0.0978605,-0.1379644,-1.061247,-2.614193,1.648073
6.333334,4.222213,88,155,500,497,-0.1475582,-0.1494178,0.3181426,-1.469779,-3.024607,-1.613559,-0.1331585,0.1188187,-0.1058442,-1.060296,-2.611624,1.64831
6.666667,4.233324,88,155,500,497,-0.1548696,-0.1323012,0.3326642,-1.467996,-3.023858,-1.609455,-0.1588077,0.1329893,-0.0657271,-1.058975,-2.608648,1.647722
7.000001,4.244435,88,155,500,497,-0.1670983,-0.1275269,0.3549443,-1.465972,-3.022951,-1.604852,-0.1716922,0.1570974,-0.02854352,-1.05815,-2.604937,1.646624
7.333334,4.255547,96,153,500,490,-0.1775457,-0.1442784,0.369778,-1.463981,-3.021123,-1.600421,-0.1795832,0.1776823,-0.05134493,-1.057572,-2.602393,1.647977
7.666668,4.266658,96,153,500,490,-0.1869714,-0.1868531,0.3778407,-1.462069,-3.018251,-1.595904,-0.1752988,0.1832103,-0.08601243,-1.057122,-2.600391,1.649923
8.000001,4.277769,96,153,500,490,-0.2012397,-0.2149226,0.3858553,-1.459776,-3.015343,-1.591347,-0.1592719,0.1926516,-0.1094071,-1.057192,-2.598417,1.651726
8.333334,4.28888,96,153,500,490,-0.2207521,-0.259544,0.4035622,-1.457333,-3.01148,-1.586272,-0.1191428,0.2243379,-0.1249785,-1.05875,-2.596124,1.653479
8.666667,4.299992,118,146,500,497,-0.2349156,-0.2856072,0.4186392,-1.454911,-3.007876,-1.581158,-0.08626607,0.2515144,-0.143971,-1.060562,-2.593794,1.655391
9,4.311103,118,146,500,497,-0.2520429,-0.32417,0.4353958,-1.452294,-3.003338,-1.575796,-0.09353984,0.2515794,-0.1637244,-1.060953,-2.591763,1.657804
9.333333,4.322214,118,146,500,497,-0.2660286,-0.3559578,0.4597551,-1.449606,-2.998855,-1.570079,-0.1301195,0.2344842,-0.1996953,-1.059743,-2.590194,1.66126
9.666666,4.333325,118,146,500,497,-0.273921,-0.360214,0.4662113,-1.446964,-2.99488,-1.564704,-0.1549631,0.227139,-0.2172768,-1.058846,-2.588253,1.66438
9.999999,4.344437,118,146,500,497,-0.2865632,-0.3722221,0.4932874,-1.444067,-2.990622,-1.558524,-0.168002,0.2026057,-0.2255901,-1.057756,-2.586993,1.667251
10.33333,4.355548,122,124,504,498,-0.2940656,-0.3768644,0.508414,-1.441241,-2.986442,-1.55261,-0.1847216,0.1681542,-0.2388063,-1.056314,-2.586323,1.67046
10.66667,4.366659,122,124,504,498,-0.2862847,-0.3651375,0.5270184,-1.438927,-2.982875,-1.546367,-0.2218839,0.1346321,-0.2562656,-1.05383,-2.585629,1.67417
11,4.37777,122,124,504,498,-0.2882269,-0.354084,0.5452392,-1.43644,-2.979391,-1.540123,-0.2505655,0.1118947,-0.257636,-1.051319,-2.584594,1.67734
11.33333,4.388882,122,124,504,498,-0.2764557,-0.3378628,0.574139,-1.434296,-2.976317,-1.533013,-0.2633764,0.1022164,-0.2502348,-1.04908,-2.583339,1.680203
11.66666,4.399993,122,124,504,498,-0.2736383,-0.3179133,0.6041458,-1.431996,-2.973445,-1.525771,-0.2704292,0.1053279,-0.2327051,-1.047346,-2.581446,1.6824
12,4.411104,160,116,498,496,-0.2711446,-0.3003739,0.630548,-1.429618,-2.970631,-1.518252,-0.2842852,0.1111259,-0.239152,-1.045085,-2.579764,1.68547
12.33333,4.422215,160,116,498,496,-0.266383,-0.2896616,0.6444123,-1.427354,-2.967752,-1.51094,-0.3066795,0.1009271,-0.2488584,-1.042309,-2.578377,1.688789
12.66666,4.433327,160,116,498,496,-0.267987,-0.2839566,0.655473,-1.425025,-2.964724,-1.503637,-0.3292293,0.0790329,-0.2777926,-1.039168,-2.577906,1.693084
13,4.444438,160,116,498,496,-0.2707528,-0.2777694,0.6676003,-1.422587,-2.961755,-1.496033,-0.3411572,0.0684123,-0.2902906,-1.036149,-2.577001,1.697102
13.33333,4.455549,120,133,498,494,-0.2740232,-0.2744559,0.6751316,-1.420212,-2.958636,-1.488679,-0.3637787,0.06526071,-0.2885568,-1.032822,-2.575485,1.70051
13.66666,4.46666,120,133,498,494,-0.2780012,-0.2693745,0.6752083,-1.41771,-2.955613,-1.481418,-0.4027196,0.06820652,-0.2594222,-1.028745,-2.572868,1.70286
14,4.477772,120,133,498,494,-0.285385,-0.2603353,0.6775349,-1.415181,-2.952677,-1.474199,-0.4133542,0.07489288,-0.2303312,-1.025371,-2.570195,1.704714
14.33333,4.488883,120,133,498,494,-0.2711323,-0.2486311,0.6827836,-1.413187,-2.950118,-1.466687,-0.414262,0.09282345,-0.2155017,-1.022379,-2.567341,1.706822
14.66666,4.499994,120,133,498,494,-0.2699305,-0.2326106,0.6856421,-1.410887,-2.947764,-1.459208,-0.4081298,0.1182311,-0.2168133,-1.019755,-2.564403,1.709446
14.99999,4.511106,178,126,500,497,-0.2592898,-0.2122997,0.6791486,-1.408721,-2.945621,-1.4521,-0.4095891,0.1226499,-0.238641,-1.016848,-2.562324,1.71308
15.33333,4.522217,178,126,500,497,-0.252167,-0.2021181,0.6709475,-1.406795,-2.943415,-1.44506,-0.424408,0.1010899,-0.2522725,-1.013165,-2.560615,1.716638
15.66666,4.533328,178,126,500,497,-0.2465603,-0.1940174,0.6625262,-1.404856,-2.941097,-1.438128,-0.4352867,0.08537495,-0.2554629,-1.009418,-2.558731,1.71986
15.99999,4.544439,178,126,500,497,-0.2474973,-0.1966748,0.6566499,-1.402743,-2.938449,-1.431329,-0.4465622,0.06363663,-0.2521397,-1.005276,-2.557101,1.723012
16.33333,4.555551,203,107,497,497,-0.2597461,-0.206224,0.6512466,-1.400214,-2.935425,-1.42461,-0.4401021,0.05567634,-0.2581556,-1.001902,-2.555735,1.726439
16.66666,4.566662,203,107,497,497,-0.2653948,-0.2077274,0.6538652,-1.39788,-2.932548,-1.417645,-0.4311289,0.06599054,-0.2705601,-0.9989395,-2.553969,1.730171
16.99999,4.577773,203,107,497,497,-0.2793761,-0.2134372,0.652781,-1.394982,-2.929495,-1.410853,-0.4366662,0.07671005,-0.2779666,-0.9956552,-2.551836,1.733796
17.33333,4.588884,203,107,497,497,-0.285881,-0.2101085,0.6522025,-1.392414,-2.92661,-1.404014,-0.4483158,0.08844271,-0.2698958,-0.9922304,-2.549083,1.736871
17.66666,4.599996,203,107,497,497,-0.2854222,-0.203519,0.6486623,-1.389979,-2.923928,-1.397325,-0.4655902,0.07706755,-0.2343407,-0.9879252,-2.546427,1.738629
18,4.611107,174,108,500,499,-0.2840015,-0.188199,0.6451849,-1.387529,-2.921484,-1.390552,-0.4674888,0.06287438,-0.2037975,-0.9839091,-2.544207,1.740469
18.33333,4.622218,174,108,500,499,-0.2865522,-0.1710777,0.6436642,-1.384945,-2.919338,-1.383312,-0.462995,0.06168067,-0.1948094,-0.9803112,-2.541746,1.742625
18.66666,4.633329,174,108,500,499,-0.2939967,-0.1523809,0.6448791,-1.382093,-2.917243,-1.376357,-0.473204,0.06702247,-0.2115583,-0.9765103,-2.539255,1.74585
19,4.644441,174,108,500,499,-0.2948221,-0.1463011,0.6484275,-1.3795,-2.914948,-1.36939,-0.480818,0.07192355,-0.2365607,-0.9728421,-2.536954,1.749618
19.33333,4.655552,174,108,500,499,-0.2924938,-0.1414948,0.6488784,-1.377032,-2.912567,-1.362516,-0.4712941,0.07959831,-0.2467184,-0.9695254,-2.534611,1.752974
19.66667,4.666663,147,99,501,497,-0.2881511,-0.1295033,0.6471404,-1.374601,-2.910586,-1.355665,-0.4532347,0.06568033,-0.2616795,-0.9664451,-2.533425,1.756896
20,4.677774,147,99,501,497,-0.2774234,-0.09462714,0.6472549,-1.372157,-2.909693,-1.34862,-0.4674355,0.04136965,-0.2595429,-0.9622081,-2.531929,1.760371
20.33333,4.688886,147,99,501,497,-0.2700854,-0.06628115,0.6471294,-1.369827,-2.908724,-1.341508,-0.4530966,0.0324319,-0.2355026,-0.9586389,-2.530086,1.762806
20.66667,4.699997,147,99,501,497,-0.2518713,-0.0331694,0.6471144,-1.367925,-2.908333,-1.334313,-0.4417051,0.02800423,-0.2196638,-0.9552407,-2.528287,1.765216
21,4.711108,146,95,496,499,-0.2390471,2.558529E-05,0.6486779,-1.365775,-2.90828,-1.326955,-0.4352578,0.0158636,-0.2165017,-0.9516705,-2.526948,1.768045
21.33334,4.722219,146,95,496,499,-0.2206592,0.03070399,0.6470918,-1.363995,-2.908554,-1.319618,-0.4518825,-0.01757577,-0.2423241,-0.9470584,-2.526604,1.772462
21.66667,4.733331,146,95,496,499,-0.2125237,0.05233683,0.6515796,-1.361959,-2.908689,-1.311935,-0.4569049,-0.04028618,-0.2509403,-0.9425864,-2.526175,1.776351
22,4.744442,146,95,496,499,-0.200626,0.07571602,0.6548747,-1.360264,-2.909235,-1.304425,-0.4551808,-0.04785678,-0.2500345,-0.9385592,-2.525367,1.779825
22.33334,4.755553,146,95,496,499,-0.19458,0.1009906,0.6575546,-1.358444,-2.909855,-1.29666,-0.4533327,-0.04342338,-0.2464451,-0.9347802,-2.524082,1.783049
22.66667,4.766665,155,92,497,499,-0.192636,0.1151082,0.6594362,-1.35654,-2.910396,-1.289022,-0.4524314,-0.03288981,-0.2525012,-0.9311727,-2.522816,1.786689
23.00001,4.777776,155,92,497,499,-0.190604,0.1243899,0.6604548,-1.35467,-2.911023,-1.281408,-0.4577641,-0.03120789,-0.2527682,-0.9269606,-2.521543,1.790303
23.33334,4.788887,155,92,497,499,-0.1886621,0.1289373,0.6617514,-1.352862,-2.911425,-1.273768,-0.457938,-0.02026716,-0.2414634,-0.9232998,-2.519689,1.793213
23.66667,4.799998,155,92,497,499,-0.1834005,0.1303976,0.6612964,-1.351202,-2.911859,-1.266109,-0.4558058,-0.01902354,-0.2137941,-0.9194564,-2.517893,1.795348
24.00001,4.81111,184,93,498,497,-0.183562,0.1395002,0.6599152,-1.349194,-2.912523,-1.258419,-0.4510789,-0.01603228,-0.1939266,-0.9157929,-2.515918,1.797403
24.33334,4.822221,184,93,498,497,-0.1723977,0.1366481,0.6515916,-1.347824,-2.912807,-1.25114,-0.4398678,-0.02305338,-0.1983281,-0.9122232,-2.51481,1.80038
24.66668,4.833332,184,93,498,497,-0.1733689,0.1556849,0.6447909,-1.346002,-2.913814,-1.243554,-0.4377894,-0.03968441,-0.2102747,-0.9081571,-2.513994,1.80391
25.00001,4.844443,184,93,498,497,-0.170128,0.1586039,0.6397237,-1.344391,-2.914351,-1.236187,-0.4411166,-0.07612008,-0.2284975,-0.9036356,-2.514394,1.808249
25.33334,4.855555,184,93,498,497,-0.1586788,0.1729865,0.6348246,-1.343064,-2.915576,-1.228665,-0.4517609,-0.09886119,-0.2218706,-0.8988946,-2.513792,1.811465
25.66668,4.866666,210,93,493,498,-0.1504234,0.1849488,0.6267005,-1.341744,-2.916627,-1.221413,-0.4604934,-0.1054752,-0.2010022,-0.894192,-2.512674,1.814016
26.00001,4.877777,210,93,493,498,-0.1247206,0.2024061,0.6282765,-1.341023,-2.918278,-1.213753,-0.4529884,-0.1034027,-0.186095,-0.8902319,-2.511466,1.816495
26.33335,4.888888,210,93,493,498,-0.137157,0.2541035,0.626375,-1.338899,-2.920897,-1.205643,-0.4478205,-0.1023773,-0.1752922,-0.8860944,-2.51041,1.818961
26.66668,4.9,210,93,493,498,-0.07019258,0.2782449,0.6251132,-1.33971,-2.923764,-1.197696,-0.4518209,-0.09224027,-0.1609327,-0.881943,-2.508663,1.820999
27.00001,4.911111,210,90,489,500,-0.04831016,0.3007504,0.6161492,-1.339419,-2.926427,-1.190027,-0.4707662,-0.07827803,-0.1625599,-0.8775771,-2.506601,1.823548
27.33335,4.922222,210,90,489,500,-0.03193122,0.329524,0.6066518,-1.339022,-2.929681,-1.182127,-0.4853953,-0.05893281,-0.1508994,-0.8732921,-2.503901,1.825439
27.66668,4.933333,210,90,489,500,-0.02796274,0.3433435,0.5986009,-1.338491,-2.932626,-1.174467,-0.4783874,-0.05954391,-0.1439847,-0.8694321,-2.502255,1.827552
28.00002,4.944445,210,90,489,500,-0.01923692,0.3482828,0.5888829,-1.338209,-2.935419,-1.166915,-0.4647525,-0.05985284,-0.1390817,-0.8656397,-2.500661,1.829581
28.33335,4.955556,210,90,489,500,-0.02852947,0.3314046,0.581097,-1.33754,-2.93703,-1.159685,-0.4609428,-0.06664822,-0.142463,-0.8614772,-2.499262,1.831942
28.66668,4.966667,226,90,492,497,-0.04421812,0.3042615,0.5740607,-1.336727,-2.938194,-1.152685,-0.450588,-0.07754919,-0.1542861,-0.8575528,-2.498534,1.834958
29.00002,4.977778,226,90,492,497,-0.06958133,0.2873165,0.5703406,-1.335455,-2.93954,-1.145514,-0.4495107,-0.09620009,-0.1663198,-0.8533274,-2.498056,1.838301
29.33335,4.98889,226,90,492,497,-0.09402013,0.2717645,0.5709357,-1.334109,-2.940559,-1.1383,-0.4426241,-0.1332107,-0.1708806,-0.8485928,-2.498487,1.841657
29.66669,5.000001,226,90,492,497,-0.1139429,0.2657411,0.5689904,-1.332422,-2.941558,-1.131237,-0.4452333,-0.1673662,-0.1792863,-0.8435137,-2.499206,1.845522
30.00002,5.011112,226,90,492,497,-0.1368467,0.2507127,0.5720717,-1.330517,-2.942193,-1.124061,-0.4400374,-0.1685832,-0.1877165,-0.8392223,-2.499164,1.84908
30.33335,5.022223,213,85,498,498,-0.1591137,0.2139597,0.5745763,-1.328619,-2.941659,-1.117415,-0.4323491,-0.172081,-0.2031982,-0.8350251,-2.499729,1.8533
30.66669,5.033335,213,85,498,498,-0.1819714,0.192183,0.5730106,-1.326519,-2.941448,-1.110645,-0.4334373,-0.164897,-0.2095005,-0.8309009,-2.499542,1.857149
31.00002,5.044446,213,85,498,498,-0.1986955,0.1749787,0.5655212,-1.324326,-2.94087,-1.104381,-0.4215305,-0.1605752,-0.2039018,-0.8270782,-2.499565,1.860546
31.33335,5.055557,213,85,498,498,-0.2188584,0.1684046,0.5543881,-1.321818,-2.940612,-1.098101,-0.4098231,-0.1699057,-0.1936783,-0.8229338,-2.499939,1.863812
31.66669,5.066669,255,95,497,497,-0.2223104,0.1692066,0.5448304,-1.319646,-2.940473,-1.091865,-0.413644,-0.1734008,-0.1767597,-0.8184656,-2.499732,1.86667
32.00002,5.07778,255,95,497,497,-0.221403,0.1788857,0.5411004,-1.317448,-2.94076,-1.085349,-0.4301589,-0.1741535,-0.1667991,-0.8137752,-2.499103,1.869502
32.33335,5.088891,255,95,497,497,-0.2226791,0.1818961,0.5310791,-1.315189,-2.940855,-1.079193,-0.4359926,-0.1988412,-0.1761646,-0.8088105,-2.499834,1.873674
32.66669,5.100002,255,95,497,497,-0.2260762,0.1768226,0.5294583,-1.313069,-2.940588,-1.072981,-0.4446323,-0.2239731,-0.1812152,-0.803521,-2.500708,1.877815
33.00002,5.111114,255,95,497,497,-0.2287674,0.1683921,0.5298667,-1.311004,-2.940114,-1.066858,-0.4614216,-0.2352126,-0.1694144,-0.7979374,-2.500739,1.881143
33.33335,5.122225,211,98,501,497,-0.2252501,0.1726848,0.5407699,-1.309052,-2.939852,-1.060188,-0.4518446,-0.2177707,-0.1304389,-0.7933333,-2.499619,1.882651
33.66668,5.133336,211,98,501,497,-0.218729,0.1837408,0.5468137,-1.307084,-2.940116,-1.053362,-0.4533803,-0.2121764,-0.1073998,-0.7884826,-2.498709,1.884479
34.00002,5.144447,211,98,501,497,-0.2093563,0.210867,0.5740851,-1.305395,-2.94068,-1.045348,-0.4748364,-0.214212,-0.07795286,-0.7827776,-2.496928,1.885632
34.33335,5.155559,211,98,501,497,-0.1934167,0.2340637,0.5761819,-1.303919,-2.94168,-1.037919,-0.4902813,-0.2178784,-0.05346921,-0.7769783,-2.49532,1.886733
34.66668,5.16667,184,99,511,499,-0.1715337,0.2438431,0.5656728,-1.302834,-2.942542,-1.031053,-0.4848309,-0.223936,-0.01293036,-0.7713122,-2.49336,1.886521
35.00001,5.177781,184,99,511,499,-0.152282,0.2583835,0.5512823,-1.301822,-2.943678,-1.024215,-0.4594283,-0.2159863,-0.0006288886,-0.7667965,-2.492131,1.887171
35.33334,5.188892,184,99,511,499,-0.1204821,0.2781821,0.5349858,-1.301453,-2.945528,-1.01754,-0.401721,-0.2253657,-0.0464582,-0.7634904,-2.494011,1.890825
35.66668,5.200004,184,99,511,499,-0.1070314,0.2989015,0.5345331,-1.300602,-2.947283,-1.010236,-0.3814731,-0.2327618,-0.1092369,-0.7597035,-2.496315,1.896112
36.00001,5.211115,184,99,511,499,-0.09484264,0.3163333,0.5336293,-1.299844,-2.949058,-1.002852,-0.3785543,-0.2133846,-0.122943,-0.7559851,-2.496212,1.899125
36.33334,5.222226,252,110,503,497,-0.08497578,0.3366647,0.5458943,-1.299069,-2.951001,-0.9949048,-0.3633576,-0.1885678,-0.1015236,-0.7526988,-2.495379,1.900585
36.66667,5.233337,252,110,503,497,-0.08469534,0.3501557,0.563884,-1.298073,-2.952881,-0.9865126,-0.3629505,-0.1986598,-0.1003193,-0.7484868,-2.495786,1.903269
37,5.244449,252,110,503,497,-0.0939039,0.3319131,0.5647481,-1.297084,-2.953558,-0.9792444,-0.3817328,-0.2024023,-0.1209631,-0.7441202,-2.496124,1.907093
37.33334,5.25556,252,110,503,497,-0.09259427,0.3292157,0.5456989,-1.296277,-2.95485,-0.9724187,-0.3848695,-0.1949614,-0.1198425,-0.7400237,-2.495878,1.910005
37.66667,5.266671,267,106,504,498,-0.09436473,0.319701,0.5152867,-1.295166,-2.956132,-0.9662359,-0.3877431,-0.1907132,-0.1106249,-0.7359433,-2.495387,1.9124
38,5.277782,267,106,504,498,-0.08979917,0.3266128,0.492007,-1.294369,-2.957945,-0.959637,-0.3864048,-0.1950814,-0.1068849,-0.7318873,-2.495152,1.914992
38.33333,5.288894,267,106,504,498,-0.09822857,0.3188005,0.4841553,-1.293137,-2.959036,-0.9531443,-0.3932639,-0.2114489,-0.1086126,-0.7272528,-2.495691,1.918334
38.66666,5.300005,267,106,504,498,-0.09689978,0.3485917,0.4861069,-1.292003,-2.961289,-0.9457918,-0.4006687,-0.2259545,-0.1212562,-0.7226306,-2.496465,1.922218
39,5.311116,267,106,504,498,-0.1183242,0.3369387,0.5171404,-1.290447,-2.961586,-0.9381086,-0.3979085,-0.2417717,-0.1322035,-0.718385,-2.497571,1.926213
39.33333,5.322227,234,112,501,498,-0.1407384,0.3165362,0.5323235,-1.288728,-2.961526,-0.9309367,-0.4058014,-0.258746,-0.1461035,-0.7135013,-2.499067,1.930934
39.66666,5.333339,234,112,501,498,-0.1471371,0.2967224,0.5124224,-1.287269,-2.96188,-0.925033,-0.3981494,-0.2589212,-0.1384436,-0.7089782,-2.499709,1.934257
39.99999,5.34445,234,112,501,498,-0.1300234,0.2806569,0.4715303,-1.286468,-2.962663,-0.9200465,-0.383807,-0.2495632,-0.1062491,-0.7048061,-2.49957,1.936094
40.33332,5.355561,234,112,501,498,-0.1199287,0.286557,0.4614748,-1.285664,-2.963802,-0.9138104,-0.3756442,-0.2373153,-0.09313373,-0.7008896,-2.49963,1.938415
40.66666,5.366673,234,112,501,498,-0.1108113,0.3048624,0.4577479,-1.284731,-2.965362,-0.9071499,-0.3702262,-0.2266906,-0.1044222,-0.6972491,-2.50012,1.941798
40.99999,5.377784,252,104,490,497,-0.1053051,0.320058,0.4513255,-1.283639,-2.966918,-0.9005447,-0.3662429,-0.2301087,-0.1212486,-0.6932938,-2.5013,1.94608
41.33332,5.388895,252,104,490,497,-0.09227914,0.3218415,0.4417454,-1.282862,-2.968324,-0.8943795,-0.3561837,-0.2612637,-0.1570791,-0.6890407,-2.504752,1.952142
41.66665,5.400006,252,104,490,497,-0.0862948,0.3167044,0.4332629,-1.282189,-2.969414,-0.8884779,-0.3605376,-0.282094,-0.156798,-0.6843275,-2.506907,1.95686
41.99998,5.411118,252,104,490,497,-0.07413703,0.3175265,0.4297555,-1.281729,-2.970835,-0.8822712,-0.3527693,-0.2858122,-0.1408199,-0.6801644,-2.508704,1.960501
42.33332,5.422229,405,109,458,499,-0.04890266,0.3280317,0.4196974,-1.281837,-2.972758,-0.8761528,-0.3404008,-0.2671,-0.1130599,-0.6763651,-2.509132,1.96288
42.66665,5.43334,405,109,458,499,-0.01510322,0.3494597,0.4099961,-1.282351,-2.975373,-0.8697681,-0.3406691,-0.2642816,-0.1057283,-0.6722814,-2.510046,1.966141
42.99998,5.444451,405,109,458,499,0.00777632,0.358059,0.4012466,-1.282897,-2.977693,-0.8635933,-0.3300552,-0.2470494,-0.1106053,-0.6689829,-2.51091,1.969467
43.33331,5.455563,405,109,458,499,0.01999682,0.3630052,0.3989223,-1.283531,-2.979194,-0.8575709,-0.3185103,-0.2533451,-0.1293273,-0.6654915,-2.513538,1.974473
43.66665,5.466674,405,109,458,499,0.0195767,0.3622696,0.3933911,-1.283585,-2.980738,-0.8513162,-0.3075824,-0.2681477,-0.1427783,-0.6616943,-2.516377,1.979499
43.99998,5.477785,454,116,537,498,0.01372817,0.3579606,0.3891361,-1.283446,-2.982469,-0.8454141,-0.3084874,-0.2730063,-0.1341559,-0.6577315,-2.518234,1.983461
44.33331,5.488896,454,116,537,498,0.0005163252,0.3560762,0.3937462,-1.283054,-2.984033,-0.8392617,-0.3066584,-0.2780334,-0.1291844,-0.6537911,-2.520214,1.987553
44.66664,5.500008,454,116,537,498,-0.009364218,0.3660905,0.4165396,-1.282785,-2.985525,-0.8321366,-0.3054426,-0.2781515,-0.1238974,-0.6499429,-2.522006,1.991456
44.99997,5.511119,454,116,537,498,-0.03423816,0.3726443,0.4361734,-1.281834,-2.986752,-0.8248827,-0.3169246,-0.2916256,-0.129136,-0.6454959,-2.524426,1.996486
45.33331,5.52223,507,135,502,497,-0.03840023,0.3593136,0.4034688,-1.281209,-2.98817,-0.8197007,-0.320132,-0.3029261,-0.1252004,-0.6410943,-2.526754,2.001024
45.66664,5.533341,507,135,502,497,-0.02554038,0.3458115,0.3676139,-1.281316,-2.99008,-0.8148692,-0.3110123,-0.3057164,-0.1171836,-0.6370729,-2.529018,2.004962
45.99997,5.544453,507,135,502,497,-0.03124654,0.3440419,0.355173,-1.280761,-2.991668,-0.8094577,-0.2969422,-0.3071606,-0.1289143,-0.6334467,-2.53213,2.010058
46.3333,5.555564,507,135,502,497,-0.03587267,0.3445627,0.3595908,-1.280292,-2.993205,-0.8035087,-0.2915555,-0.307465,-0.1371498,-0.6297971,-2.53511,2.0151
46.66663,5.566675,507,135,502,497,-0.04182881,0.3477382,0.3649442,-1.279677,-2.994548,-0.7974942,-0.2724535,-0.2894886,-0.1421928,-0.6267931,-2.537813,2.01981
46.99997,5.577786,507,131,499,495,-0.03741956,0.3518092,0.3623331,-1.279365,-2.996309,-0.7916986,-0.2600498,-0.2983218,-0.1445048,-0.6233246,-2.541336,2.025016
47.3333,5.588898,507,131,499,495,-0.01976356,0.3669471,0.3560677,-1.279403,-2.99863,-0.785494,-0.266526,-0.3122666,-0.1480747,-0.619316,-2.544836,2.030631
47.66663,5.600009,507,131,499,495,-0.0005827546,0.3756401,0.3520492,-1.279769,-3.000779,-0.7794386,-0.25168,-0.3094608,-0.1385162,-0.6158837,-2.548062,2.035242
47.99996,5.61112,507,131,499,495,0.02978852,0.3811429,0.3518988,-1.28072,-3.003079,-0.7733127,-0.2425601,-0.3129535,-0.1338349,-0.6123204,-2.551525,2.040157
48.33329,5.622231,460,133,484,499,0.06075531,0.3957844,0.3476211,-1.281935,-3.005801,-0.7669712,-0.2410164,-0.3130704,-0.1317159,-0.6088119,-2.554731,2.045054
48.66663,5.633343,460,133,484,499,0.08498475,0.4064973,0.3422251,-1.28314,-3.008656,-0.7605903,-0.235275,-0.3164518,-0.1399119,-0.6054015,-2.558702,2.050867
48.99996,5.644454,460,133,484,499,0.1017129,0.4212755,0.3396325,-1.284445,-3.011628,-0.7540943,-0.2277219,-0.3036703,-0.1365918,-0.6024459,-2.561798,2.055616
49.33329,5.655565,460,133,484,499,0.1079029,0.428313,0.3380453,-1.285432,-3.014441,-0.7476478,-0.2265971,-0.3043163,-0.1299359,-0.5989923,-2.56495,2.060252
49.66662,5.666677,460,133,484,499,0.09795007,0.4331181,0.352469,-1.286132,-3.016658,-0.7408552,-0.2298053,-0.3030863,-0.1158261,-0.5954402,-2.567571,2.064443
49.99995,5.677788,442,133,492,496,0.09572864,0.4488494,0.3808259,-1.287117,-3.018939,-0.7331949,-0.2392857,-0.3164139,-0.09668767,-0.5913107,-2.57054,2.068618
50.33329,5.688899,442,133,492,496,0.08423883,0.4642233,0.3972726,-1.287683,-3.021201,-0.7253876,-0.2253173,-0.3168604,-0.09932597,-0.5880595,-2.574217,2.073516
50.66662,5.70001,442,133,492,496,0.09838116,0.4554837,0.3456472,-1.288625,-3.024318,-0.7199297,-0.2046901,-0.3374526,-0.1104599,-0.5846613,-2.579816,2.0798
50.99995,5.711122,442,133,492,496,0.1165195,0.4437189,0.3138674,-1.290031,-3.027234,-0.7146625,-0.1986485,-0.3617557,-0.1345608,-0.5812365,-2.586001,2.087296
51.33328,5.722233,442,133,492,496,0.1106615,0.4521225,0.3085196,-1.290795,-3.030138,-0.7082741,-0.2000052,-0.3720942,-0.1338704,-0.5774441,-2.59101,2.093623
51.66661,5.733344,387,137,508,497,0.09404379,0.4575648,0.3079741,-1.291152,-3.032755,-0.7018228,-0.201071,-0.372132,-0.1407202,-0.5740247,-2.596076,2.100246
51.99995,5.744455,387,137,508,497,0.07360098,0.4485547,0.3105687,-1.291307,-3.034826,-0.6957327,-0.2113405,-0.3613949,-0.1246871,-0.5703325,-2.59961,2.105372
52.33328,5.755567,387,137,508,497,0.05618235,0.4417799,0.3094779,-1.291442,-3.036939,-0.6896091,-0.206722,-0.3562024,-0.1065076,-0.5667585,-2.60339,2.110036
52.66661,5.766678,387,137,508,497,0.02077499,0.4303544,0.3102077,-1.290805,-3.038538,-0.6837102,-0.2074065,-0.3574401,-0.08840303,-0.5628617,-2.606914,2.114606
52.99994,5.777789,434,137,501,493,0.01414195,0.4307113,0.3080333,-1.290658,-3.040507,-0.6776142,-0.215653,-0.3549892,-0.07245518,-0.5589155,-2.610318,2.1192
53.33327,5.7889,434,137,501,493,0.009461045,0.4410892,0.300137,-1.290426,-3.043057,-0.6713222,-0.2137819,-0.3580846,-0.06937718,-0.5552643,-2.614047,2.124307
53.66661,5.800012,434,137,501,493,0.01584479,0.4447329,0.2927597,-1.290536,-3.045451,-0.6652299,-0.2204918,-0.3611662,-0.07410255,-0.5513931,-2.618094,2.129909
53.99994,5.811123,434,137,501,493,0.01550117,0.4473323,0.2907029,-1.290602,-3.047692,-0.6591308,-0.2184598,-0.3676297,-0.07150878,-0.5476993,-2.622189,2.135255
54.33327,5.822234,434,137,501,493,0.006444842,0.444442,0.293245,-1.290369,-3.049599,-0.6530284,-0.2094311,-0.3809097,-0.08009556,-0.5437978,-2.627703,2.141879
54.6666,5.833345,401,152,496,497,0.000837326,0.4485348,0.2909057,-1.290131,-3.051672,-0.646771,-0.1981132,-0.3839706,-0.08059552,-0.5401312,-2.63288,2.147996
54.99994,5.844457,401,152,496,497,-0.005556107,0.4566934,0.2920314,-1.289772,-3.05385,-0.640331,-0.1828738,-0.3900948,-0.08421908,-0.536571,-2.638612,2.154449
55.33327,5.855568,401,152,496,497,-0.009967446,0.4638203,0.2886823,-1.289454,-3.056069,-0.6339202,-0.1718004,-0.4056313,-0.0936908,-0.5328149,-2.645031,2.16172
55.6666,5.866679,401,152,496,497,-0.007318556,0.4701791,0.2905874,-1.289418,-3.058288,-0.627543,-0.1633194,-0.4170911,-0.1123212,-0.5294178,-2.651997,2.169937
55.99993,5.87779,455,152,485,498,-0.005014122,0.4948968,0.3116815,-1.289343,-3.060599,-0.6199631,-0.1721021,-0.4489942,-0.1242113,-0.5250396,-2.660012,2.179277
56.33326,5.888902,455,152,485,498,-0.001312733,0.5071956,0.3223233,-1.289399,-3.062784,-0.6127273,-0.1675734,-0.451311,-0.1212797,-0.5212957,-2.666742,2.186967
56.6666,5.900013,455,152,485,498,0.009847462,0.5008475,0.3077315,-1.289576,-3.065134,-0.6062899,-0.1735608,-0.4267102,-0.09164873,-0.5174756,-2.671033,2.192224
56.99993,5.911124,455,152,485,498,0.03387332,0.4801821,0.2759025,-1.290309,-3.067679,-0.6008853,-0.1721828,-0.4175822,-0.07657486,-0.5137238,-2.676148,2.198184
57.33326,5.922235,455,152,485,498,0.03350461,0.4682284,0.2593289,-1.290439,-3.069946,-0.5952452,-0.1770854,-0.4259834,-0.07311285,-0.5095761,-2.682226,2.205344
57.66659,5.933347,455,149,492,498,0.01498359,0.4661163,0.2549264,-1.289997,-3.072043,-0.5891578,-0.1854248,-0.4593992,-0.08608074,-0.5051324,-2.6905,2.21486
57.99992,5.944458,455,149,492,498,-0.0130541,0.4594019,0.2536149,-1.289016,-3.073762,-0.583235,-0.1930867,-0.4920191,-0.09893081,-0.5003313,-2.699433,2.225236
58.33326,5.955569,455,149,492,498,-0.04545537,0.4542638,0.2491455,-1.287663,-3.075444,-0.5772849,-0.194467,-0.5155243,-0.1197682,-0.4960926,-2.709199,2.236593
58.66659,5.966681,455,149,492,498,-0.07620582,0.4441096,0.2464905,-1.286183,-3.076719,-0.5717977,-0.2069873,-0.5478406,-0.1203161,-0.4907258,-2.718613,2.247556
58.99992,5.977792,455,149,492,498,-0.1134268,0.4391119,0.2485904,-1.284022,-3.077825,-0.5660826,-0.2043519,-0.5476466,-0.1130682,-0.486126,-2.727264,2.257535
59.33325,5.988903,459,156,495,498,-0.1278679,0.4409075,0.2499691,-1.282379,-3.079218,-0.5601682,-0.204517,-0.5452332,-0.09735709,-0.4813999,-2.735326,2.266869
59.66658,6.000014,459,156,495,498,-0.1359828,0.4460078,0.2390865,-1.280507,-3.080943,-0.5543812,-0.2099371,-0.5675309,-0.08479483,-0.4759655,-2.7447,2.277536
59.99992,6.011126,459,156,495,498,-0.1564424,0.4527826,0.2380285,-1.278379,-3.08244,-0.5482863,-0.2128346,-0.5651642,-0.08218057,-0.4712229,-2.753213,2.28766
60.33325,6.022237,459,156,495,498,-0.1636649,0.4507343,0.2349856,-1.276332,-3.08383,-0.5424699,-0.2147833,-0.5271335,-0.04573193,-0.466588,-2.758291,2.293922
60.66658,6.033348,394,160,503,494,-0.1909457,0.4305967,0.2404415,-1.273846,-3.084295,-0.5372096,-0.2089681,-0.5047845,-0.01063818,-0.4619524,-2.763834,2.30003
60.99991,6.044459,394,160,503,494,-0.2016407,0.4261421,0.242173,-1.271482,-3.08536,-0.531478,-0.1963379,-0.4776832,-0.000647977,-0.4578853,-2.769861,2.306986
61.33324,6.055571,394,160,503,494,-0.2108892,0.4291535,0.2444322,-1.269011,-3.086262,-0.5256414,-0.1970088,-0.480286,0.004817069,-0.4532375,-2.776747,2.314947
61.66658,6.066682,394,160,503,494,-0.2086095,0.444541,0.2466926,-1.266895,-3.087696,-0.5193324,-0.187936,-0.4736105,0.01088679,-0.4488028,-2.783397,2.322433
61.99991,6.077793,394,160,503,494,-0.1876585,0.4498931,0.2343547,-1.265242,-3.089397,-0.5134186,-0.1879913,-0.4624863,0.002010897,-0.4448709,-2.79003,2.330344
62.33324,6.088904,513,159,446,499,-0.1798486,0.4493422,0.2317918,-1.263442,-3.090861,-0.5076326,-0.1833852,-0.4593649,0.001428708,-0.4407686,-2.797091,2.338432
62.66657,6.100016,513,159,446,499,-0.1763986,0.455487,0.2340055,-1.261589,-3.09227,-0.5014493,-0.1825693,-0.4562823,-0.01224709,-0.4370279,-2.804658,2.34738
62.9999,6.111127,513,159,446,499,-0.1593476,0.4546157,0.2359676,-1.260043,-3.093699,-0.4955727,-0.1826705,-0.445954,0.004156977,-0.4329,-2.810559,2.354363
63.33324,6.122238,513,159,446,499,-0.1457837,0.453674,0.2360821,-1.259083,-3.095083,-0.4895508,-0.1753001,-0.4373421,0.01543082,-0.4288946,-2.816825,2.36146
63.66657,6.133349,445,157,478,497,-0.118163,0.4674383,0.2445288,-1.258554,-3.096834,-0.4829904,-0.1727048,-0.4392899,0.0270444,-0.4246528,-2.823609,2.3689
63.9999,6.144461,445,157,478,497,-0.08307588,0.4808927,0.2330132,-1.258303,-3.099299,-0.4765897,-0.1618988,-0.4182435,0.03165397,-0.421237,-2.828862,2.374892
64.33324,6.155572,445,157,478,497,-0.04834545,0.4741005,0.2357375,-1.258722,-3.101105,-0.4705342,-0.1601991,-0.4166076,0.02302921,-0.4176353,-2.835875,2.382958
64.66657,6.166683,445,157,478,497,-0.04113996,0.4821586,0.2316473,-1.258286,-3.103264,-0.4641357,-0.1659546,-0.419785,0.008779004,-0.4140076,-2.843279,2.391794
64.99991,6.177794,445,157,478,497,-0.02596265,0.4903366,0.2314444,-1.2583,-3.105433,-0.4575859,-0.1613725,-0.4200301,0.003593996,-0.4105311,-2.850929,2.400548
65.33324,6.188906,410,160,506,497,-0.003278911,0.492875,0.2288179,-1.258748,-3.107653,-0.4511746,-0.1566271,-0.4230452,0.01401971,-0.4066263,-2.858127,2.408589
65.66658,6.200017,410,160,506,497,0.03291112,0.4984638,0.2230309,-1.259926,-3.110258,-0.4447415,-0.1355724,-0.4176373,0.03139555,-0.4029245,-2.865173,2.415779
65.99992,6.211128,410,160,506,497,0.06158698,0.505838,0.2250492,-1.261086,-3.112699,-0.4380729,-0.1199503,-0.4066266,0.03846613,-0.3994848,-2.871805,2.422715
66.33325,6.222239,410,160,506,497,0.1006343,0.5324638,0.2353986,-1.26299,-3.115643,-0.4306049,-0.1162941,-0.4007967,0.03717919,-0.3961857,-2.878915,2.430379
66.66659,6.233351,343,180,512,493,0.1298391,0.5975749,0.298225,-1.265364,-3.11806,-0.4204641,-0.1177941,-0.4037724,0.02334744,-0.3929334,-2.887335,2.439769
66.99992,6.244462,343,180,512,493,0.09966969,0.6454803,0.3517185,-1.26612,-3.1196,-0.4099537,-0.1216209,-0.4211138,-0.004625872,-0.3899528,-2.897937,2.451694
67.33326,6.255573,343,180,512,493,0.138833,0.6105344,0.3020028,-1.268323,-3.122623,-0.4035515,-0.1293896,-0.4163644,-0.02377088,-0.3873025,-2.906674,2.461982
67.6666,6.266685,343,180,512,493,0.2018481,0.529719,0.226998,-1.271723,-3.12582,-0.3997911,-0.1340016,-0.4049385,-0.01884182,-0.3844646,-2.913553,2.470098
67.99993,6.277796,343,180,512,493,0.2213221,0.5054789,0.2044532,-1.274457,-3.128554,-0.3943242,-0.1213999,-0.4112485,-0.003998473,-0.3811282,-2.922414,2.479455
68.33327,6.288907,361,175,490,497,0.2060142,0.5089751,0.2005805,-1.276066,-3.131042,-0.3877813,-0.1152377,-0.4064773,0.005065233,-0.3779915,-2.930722,2.488376
68.6666,6.300018,361,175,490,497,0.1668476,0.5055979,0.2006476,-1.276822,-3.13299,-0.3815047,-0.1173926,-0.4121571,-0.001201302,-0.3749917,-2.940173,2.498885
68.99994,6.31113,361,175,490,497,0.1443879,0.506567,0.2010706,-1.277818,-3.134941,-0.3750029,-0.1199208,-0.4018891,0.002607688,-0.3721001,-2.947999,2.508129
69.33327,6.322241,361,175,490,497,0.09801099,0.5090896,0.2087304,-1.27763,-3.136357,-0.3684867,-0.1243029,-0.3959316,0.01915169,-0.3687738,-2.955536,2.516593
69.66661,6.333352,361,175,490,497,0.0630424,0.5060273,0.2167385,-1.277431,-3.137613,-0.3619705,-0.130438,-0.3912532,0.03480896,-0.3653921,-2.962714,2.524721
69.99995,6.344463,392,166,491,500,0.05341625,0.5248969,0.2223008,-1.277778,-3.139431,-0.3547799,-0.1462404,-0.3940337,0.04802862,-0.3615731,-2.970122,2.533511
70.33328,6.355575,392,166,491,500,0.05272284,0.512823,0.2189466,-1.278522,-3.141035,-0.3486051,-0.1400522,-0.4160297,0.03513679,-0.3581957,-2.981164,2.54571
70.66662,6.366686,392,166,491,500,0.05684802,0.4728648,0.1897191,-1.279179,3.140507,-0.344147,-0.1352158,-0.422091,0.02077599,-0.3553126,-2.991814,2.557564
70.99995,6.377797,392,166,491,500,0.06334603,0.4712335,0.1860073,-1.280037,3.138851,-0.3382859,-0.1375405,-0.4332015,0.005294502,-0.3525264,-3.002903,2.570268
71.33329,6.388908,375,168,477,494,0.06049931,0.4764019,0.1879104,-1.280573,3.137223,-0.3321015,-0.1408369,-0.4340202,0.009476796,-0.349362,-3.01305,2.581807
71.66663,6.40002,375,168,477,494,0.05669767,0.4803682,0.1876868,-1.281093,3.135623,-0.3260114,-0.1341291,-0.4316302,0.02586922,-0.3461374,-3.022766,2.592148
71.99996,6.411131,375,168,477,494,0.05781192,0.4783623,0.1855545,-1.281855,3.134079,-0.3201988,-0.1226276,-0.4123075,0.04401931,-0.3429843,-3.03093,2.6009
72.3333,6.422242,375,168,477,494,0.05441782,0.4660203,0.1886022,-1.282377,3.133081,-0.3146578,-0.1171887,-0.4105065,0.01782474,-0.3409911,-3.041589,2.612945
72.66663,6.433353,375,168,477,494,0.05709162,0.4689689,0.1871586,-1.283092,3.131579,-0.3086859,-0.114315,-0.4276685,0.0005268157,-0.3386183,-3.053723,2.626413
72.99997,6.444465,447,181,472,504,0.07182944,0.4700727,0.182506,-1.284251,3.129947,-0.3028483,-0.09575424,-0.4332111,-0.003565043,-0.3361831,-3.06728,2.640695
73.33331,6.455576,447,181,472,504,0.07444358,0.4730297,0.1848342,-1.285046,3.128595,-0.29669,-0.09187245,-0.4230818,-0.00812678,-0.3340621,-3.078578,2.652955
73.66664,6.466687,447,181,472,504,0.07495368,0.4760735,0.1847343,-1.285921,3.127046,-0.2906883,-0.09306914,-0.4183047,-0.005463585,-0.3317148,-3.089804,2.665226
73.99998,6.477798,447,181,472,504,0.08320963,0.4743814,0.1913031,-1.28719,3.126019,-0.2847643,-0.09564713,-0.4229639,0.02622341,-0.3288024,-3.100637,2.676618
74.33331,6.48891,450,200,502,503,0.08726096,0.471703,0.1949482,-1.288423,3.124843,-0.2789778,-0.09560898,-0.4340287,0.055668,-0.3250867,-3.112401,2.688982
74.66665,6.500021,450,200,502,503,0.09789124,0.4674519,0.1961921,-1.289834,3.123698,-0.2731333,-0.09430397,-0.4227008,0.04287866,-0.322985,-3.124004,2.701465
74.99998,6.511132,450,200,502,503,0.1046025,0.47261,0.1957681,-1.291088,3.122218,-0.2669973,-0.08591485,-0.4337878,0.0114665,-0.321794,-3.139164,2.717589
75.33332,6.522243,450,200,502,503,0.1074116,0.4781384,0.1856334,-1.292324,3.120764,-0.2606633,-0.07874373,-0.436828,-0.01350804,-0.320357,3.129705,2.732992
75.66666,6.533355,450,200,502,503,0.1025065,0.494691,0.1869991,-1.292969,3.119437,-0.2539004,-0.08023673,-0.4528108,-0.01060142,-0.3183186,3.114838,2.74863
75.99999,6.544466,438,191,498,494,0.08952999,0.551543,0.2171872,-1.293957,3.11816,-0.2454428,-0.07973772,-0.4672265,0.03034686,-0.3147713,3.100507,2.76354
76.33333,6.555577,438,191,498,494,0.06409389,0.5903285,0.2384545,-1.294254,3.117395,-0.2369452,-0.07790878,-0.4722858,0.04024366,-0.3120404,3.085877,2.778979
76.66666,6.566689,438,191,498,494,0.01397061,0.572599,0.2193418,-1.292907,3.116398,-0.2305104,-0.09252554,-0.4711039,0.03052069,-0.3098263,3.07167,2.794784
77,6.5778,438,191,498,494,0.008207023,0.49981,0.1792272,-1.292914,3.115464,-0.2264752,-0.106215,-0.4762437,0.03644976,-0.3072617,3.056292,2.811906
77.33334,6.588911,447,208,490,497,-0.00247851,0.4724528,0.1732667,-1.292673,3.114782,-0.2210733,-0.1007911,-0.4680907,0.05352026,-0.3045074,3.042672,2.82643
77.66667,6.600022,447,208,490,497,-0.03370455,0.4811174,0.1711994,-1.291735,3.114107,-0.2149975,-0.08604226,-0.4580088,0.08438863,-0.3015865,3.028715,2.840446
78.00001,6.611134,447,208,490,497,-0.05536413,0.4875675,0.1703148,-1.290443,3.11353,-0.208542,-0.07662407,-0.459077,0.08560528,-0.2993436,3.013715,2.856014
78.33334,6.622245,447,208,490,497,-0.06103188,0.4883482,0.1622396,-1.289614,3.112326,-0.2024077,-0.07922718,-0.4762503,0.05725865,-0.2972583,2.993772,2.877523
78.66668,6.633356,447,208,490,497,-0.06813884,0.4874627,0.1593944,-1.288852,3.111712,-0.1966707,-0.08560523,-0.4778889,0.06398953,-0.2947171,2.977579,2.894968
79.00002,6.644467,514,197,452,494,-0.08035594,0.4906605,0.1617086,-1.287601,3.111199,-0.1905417,-0.07716912,-0.4770539,0.07614134,-0.2922329,2.961469,2.911773
79.33335,6.655579,514,197,452,494,-0.08325517,0.4929296,0.1580531,-1.28682,3.110486,-0.1845651,-0.07131031,-0.4797175,0.07932867,-0.2901045,2.944389,2.929733
79.66669,6.66669,514,197,452,494,-0.07099044,0.4929911,0.1544598,-1.286382,3.109424,-0.1785042,-0.07154053,-0.4949087,0.09282726,-0.2874818,2.925954,2.949124
80.00002,6.677801,514,197,452,494,-0.06252015,0.4924121,0.1563153,-1.286173,3.108775,-0.1726011,-0.07322365,-0.5038818,0.09339516,-0.2852229,2.907444,2.968764
80.33336,6.688912,514,197,452,494,-0.03531754,0.493006,0.1544693,-1.286553,3.107738,-0.1664401,-0.08338431,-0.5178088,0.08664247,-0.283812,2.887747,2.989779
80.66669,6.700024,535,181,489,498,-0.01474273,0.5082877,0.1424058,-1.287038,3.106176,-0.1599979,-0.09913898,-0.5318494,0.0828899,-0.2817955,2.867918,3.011547
81.00003,6.711135,535,181,489,498,-0.01040465,0.5157521,0.1334398,-1.28694,3.10467,-0.1535877,-0.09905595,-0.5287799,0.09329547,-0.2794753,2.849389,3.031376
81.33337,6.722246,535,181,489,498,-0.02676231,0.5135436,0.1284978,-1.286475,3.103851,-0.147692,-0.07803515,-0.5232291,0.09781444,-0.2777043,2.830136,3.051345
81.6667,6.733357,535,181,489,498,-0.03488654,0.5135689,0.1254435,-1.285885,3.102719,-0.1416402,-0.06372729,-0.506231,0.09781395,-0.2761996,2.812388,3.069888
82.00004,6.744469,481,202,470,494,-0.02878904,0.5153807,0.1211811,-1.285803,3.101174,-0.1353877,-0.04790655,-0.5017408,0.100354,-0.2747061,2.793727,3.089016
82.33337,6.75558,481,202,470,494,-0.02303672,0.5216105,0.1118708,-1.285788,3.099882,-0.1291537,-0.05156127,-0.5052786,0.1071499,-0.2729713,2.773857,3.109985
82.66671,6.766691,481,202,470,494,-0.02650219,0.5263403,0.1065912,-1.285485,3.098501,-0.1230631,-0.04301295,-0.5071512,0.09417167,-0.2720057,2.754002,3.130821
83.00005,6.777802,481,202,470,494,-0.04934573,0.5270159,0.1010769,-1.284424,3.097055,-0.116452,-0.04102743,-0.496431,0.06609496,-0.2719141,2.735588,-3.132732
83.33338,6.788914,481,202,470,494,-0.06619996,0.5245057,0.1046187,-1.283446,3.095993,-0.1105121,-0.02899238,-0.4877139,0.05956195,-0.2711529,2.717452,-3.113781
83.66672,6.800025,512,197,470,496,-0.06892246,0.5212827,0.1075938,-1.28282,3.095246,-0.1044534,-0.01793349,-0.4769858,0.06695177,-0.2704488,2.699051,-3.094902
84.00005,6.811136,512,197,470,496,-0.05330932,0.5197075,0.1108379,-1.28275,3.094007,-0.09845174,-0.0158788,-0.4793844,0.08072379,-0.2697356,2.680214,-3.075485
84.33339,6.822248,512,197,470,496,-0.03944242,0.5188026,0.1062634,-1.282762,3.093001,-0.09278986,-0.01891175,-0.4728166,0.08553264,-0.268975,2.661715,-3.056089
84.66673,6.833359,512,197,470,496,-0.02816105,0.5166838,0.1040749,-1.282912,3.091965,-0.08675407,-0.01427203,-0.4764889,0.07365175,-0.2688509,2.641809,-3.035168
85.00006,6.84447,535,223,480,500,-0.02231008,0.5081993,0.1023858,-1.283001,3.09097,-0.08147942,-0.01271802,-0.4733683,0.05993235,-0.2691071,2.623318,-3.015718
85.3334,6.855581,535,223,480,500,-0.009256899,0.5024168,0.1075273,-1.28333,3.089959,-0.07548676,-0.007431805,-0.4666261,0.03399691,-0.2698357,2.606114,-2.997472
85.66673,6.866693,535,223,480,500,0.006776452,0.4995163,0.1088184,-1.28402,3.088561,-0.06996071,0.0057998,-0.4660302,0.02625087,-0.2704078,2.587766,-2.97844
86.00007,6.877804,535,223,480,500,0.02954558,0.4998494,0.1091456,-1.28512,3.087534,-0.06408738,0.009159416,-0.4582331,0.02057809,-0.271178,2.570327,-2.960249
86.3334,6.888915,535,223,480,500,0.04123971,0.4954928,0.1103697,-1.286017,3.086542,-0.05844041,0.008092433,-0.4488399,-0.004558444,-0.2725996,2.554614,-2.943333
86.66674,6.900026,554,195,525,498,0.04363921,0.4918524,0.1138205,-1.286685,3.085522,-0.05346403,0.007662237,-0.4446727,-0.04036096,-0.2747844,2.53924,-2.926733
87.00008,6.911138,554,195,525,498,0.03694192,0.49672,0.1132096,-1.287279,3.084857,-0.04744901,0.04139096,-0.5011131,-0.0295096,-0.2766572,2.514452,-2.901816
87.33341,6.922249,554,195,525,498,0.03006288,0.4972081,0.1088149,-1.287663,3.084091,-0.04166995,0.02681422,-0.5037837,0.02424139,-0.2762998,2.493529,-2.879984
87.66675,6.93336,554,195,525,498,0.02407059,0.4750103,0.1019438,-1.287896,3.083174,-0.03689756,0.01227361,-0.4716014,0.0300854,-0.2765703,2.479876,-2.864844
88.00008,6.944471,507,228,493,503,0.02768716,0.4649075,0.09141275,-1.28826,3.08183,-0.03253318,0.006931603,-0.4749888,0.03593183,-0.2775658,2.461544,-2.845353
88.33342,6.955583,507,228,493,503,0.01984334,0.4658389,0.07795478,-1.288412,3.080963,-0.02688994,0.001153469,-0.4611974,0.04484458,-0.2781608,2.445152,-2.827827
88.66676,6.966694,507,228,493,503,0.005085737,0.4723311,0.06580673,-1.288292,3.080154,-0.02136814,0.002765119,-0.4561922,0.03896822,-0.2794923,2.428239,-2.809977
89.00009,6.977805,507,228,493,503,-0.02159128,0.4743819,0.05724177,-1.287549,3.079375,-0.01588203,0.0008617938,-0.460528,0.04665522,-0.2804959,2.410689,-2.791284
89.33343,6.988916,507,228,493,503,-0.03698024,0.4730963,0.04795394,-1.287026,3.078635,-0.01047954,0.006905198,-0.4618151,0.05564572,-0.2814658,2.392601,-2.772096
89.66676,7.000028,544,272,490,493,-0.0584394,0.4684241,0.04067331,-1.285903,3.077794,-0.005181446,0.02062351,-0.4446152,0.05684592,-0.2826131,2.377107,-2.756209
90.0001,7.011139,544,272,490,493,-0.06573251,0.4691878,0.03406605,-1.285172,3.077102,0.0001528654,0.0338029,-0.4496603,0.03880677,-0.2847537,2.36063,-2.739023
90.0001,7.02225,544,272,490,493,-0.06881443,0.4721694,0.02455514,-1.284571,3.07605,0.005509547,0.03125954,-0.4647682,0.04439369,-0.2864389,2.342717,-2.720083
90.0001,7.033361,544,272,490,493,-0.07421988,0.4747784,0.01540449,-1.283446,3.074927,0.01114799,0.03066909,-0.4609037,0.0768318,-0.2867894,2.32475,-2.701376
90.0001,7.044473,544,272,490,493,-0.09382552,0.4771674,0.002014395,-1.282026,3.073743,0.0165622,0.04438052,-0.4447968,0.08832926,-0.2877061,2.308548,-2.685064
90.0001,7.055584,598,250,485,495,-0.1075974,0.4774852,0.002167407,-1.280482,3.072959,0.0222342,0.04606542,-0.4325989,0.07998285,-0.2891746,2.293902,-2.66966
90.0001,7.066695,598,250,485,495,-0.1081502,0.4742109,-0.0004497394,-1.279541,3.072175,0.02746092,0.07831779,-0.4020976,0.06963201,-0.290855,2.280765,-2.657177
90.0001,7.077806,598,250,485,495,-0.08965582,0.4746514,-0.006611526,-1.27902,3.070752,0.03297473,0.1016394,-0.3865399,0.05931819,-0.2927549,2.267564,-2.644676
90.0001,7.088918,598,250,485,495,-0.06816205,0.4727126,-0.01122501,-1.278913,3.069472,0.03848694,0.08587721,-0.3904708,0.03619421,-0.2951368,2.25559,-2.631873
90.0001,7.100029,691,239,507,495,-0.03338513,0.4705696,-0.01483354,-1.279573,3.067966,0.0436833,0.0721938,-0.3929586,0.03911607,-0.2969499,2.242154,-2.617672
90.0001,7.11114,691,239,507,495,-0.03391558,0.4682059,-0.01708084,-1.279115,3.066639,0.0492557,0.06718203,-0.3878347,0.04822832,-0.2984732,2.229779,-2.604842
90.0001,7.122252,691,239,507,495,-0.03680101,0.4603758,-0.01550648,-1.278883,3.065688,0.05415165,0.07739273,-0.3886233,0.06229945,-0.3001004,2.215158,-2.590203
90.0001,7.133363,691,239,507,495,-0.04070151,0.4515516,-0.0144646,-1.278308,3.06478,0.05926386,0.07993764,-0.374076,0.05907775,-0.3018587,2.2035,-2.578562
90.0001,7.144474,691,239,507,495,-0.03486907,0.4458398,-0.01847077,-1.278294,3.063642,0.06400854,0.07674256,-0.377404,0.05367655,-0.3039333,2.19097,-2.565548
90.0001,7.155585,556,233,484,495,-0.02538532,0.444315,-0.02024584,-1.278244,3.062296,0.06929119,0.07613418,-0.3841333,0.05081471,-0.3062241,2.17859,-2.552576
90.0001,7.166697,556,233,484,495,-0.01989338,0.4407605,-0.02944315,-1.277792,3.060716,0.07440233,0.07712883,-0.3764029,0.05937539,-0.3078955,2.166284,-2.54001
90.0001,7.177808,556,233,484,495,-0.01839778,0.426807,-0.0273243,-1.277677,3.059583,0.07900906,0.06610161,-0.3420748,0.07134295,-0.3084787,2.156653,-2.530202
90.0001,7.188919,556,233,484,495,-0.03057227,0.4110981,-0.02221187,-1.277149,3.058951,0.08336333,0.05883265,-0.3179202,0.06477427,-0.3097842,2.147768,-2.520982
90.0001,7.20003,625,269,494,493,-0.04646361,0.3824437,-0.01886965,-1.276399,3.058423,0.0870811,0.05733284,-0.2776592,0.06443802,-0.3106231,2.140707,-2.513942
90.0001,7.211142,625,269,494,493,-0.04881346,0.3632855,-0.01277788,-1.275704,3.057926,0.09097518,0.05673674,-0.2514475,0.05821008,-0.31156,2.133518,-2.506833
90.0001,7.222253,625,269,494,493,-0.05104834,0.3316743,-0.01493399,-1.275127,3.057307,0.09396698,0.0560835,-0.2180171,0.07086145,-0.3117731,2.127163,-2.500726
90.0001,7.233364,625,269,494,493,-0.04777548,0.3104248,-0.01142691,-1.274248,3.056565,0.09767942,0.05573028,-0.1943486,0.07637891,-0.3121257,2.120289,-2.494018
90.0001,7.244475,625,269,494,493,-0.03363132,0.2745256,-0.005256644,-1.274501,3.05637,0.09973112,0.05139707,-0.1878361,0.06412885,-0.3130556,2.114806,-2.48842
90.0001,7.255587,618,343,468,492,-0.02185279,0.2268988,-0.001077281,-1.274655,3.056187,0.1010851,0.03473999,-0.2259835,0.01986001,-0.3158434,2.108669,-2.480833
90.0001,7.266698,618,343,468,492,-0.03038676,0.2060555,-0.004854338,-1.273961,3.055731,0.1032007,0.02041605,-0.2270224,0.02025902,-0.3171095,2.102812,-2.473995
90.0001,7.277809,618,343,468,492,-0.04613084,0.1739879,-0.004426594,-1.273082,3.055743,0.1043741,0.03776526,-0.2073954,0.06747611,-0.3167047,2.093518,-2.465283
90.0001,7.28892,618,343,468,492,-0.05161965,0.1581937,-0.004490299,-1.272519,3.055847,0.1056684,0.05457567,-0.1796605,0.06301138,-0.3174579,2.088108,-2.4605
90.0001,7.300032,618,343,468,492,-0.05445868,0.1351463,-0.005003764,-1.271849,3.055837,0.106568,0.03882794,-0.1725077,0.05339322,-0.3182621,2.083583,-2.455479
90.0001,7.311143,685,323,446,487,-0.05323549,0.1182289,-0.007191398,-1.271484,3.055846,0.107433,0.01687072,-0.1505519,0.04394593,-0.3185631,2.08114,-2.452166
90.0001,7.322254,685,323,446,487,-0.04962906,0.09988537,-0.01219807,-1.271127,3.055667,0.1081105,0.01409585,-0.1266478,0.03216232,-0.3190286,2.079441,-2.4503
90.0001,7.333365,685,323,446,487,-0.04626565,0.07821795,-0.01092071,-1.270699,3.05566,0.1084125,0.01092428,-0.08212461,0.01198379,-0.3191719,2.081028,-2.45205
90.0001,7.344477,685,323,446,487,-0.04205904,0.05219658,-0.003146132,-1.270432,3.056008,0.1081616,0.008904919,-0.04808791,0.004047402,-0.3190307,2.082376,-2.453536
90.0001,7.355588,662,323,463,493,-0.01420491,0.0003196839,0.0157408,-1.271201,3.056895,0.1064732,-0.005102854,-0.02824787,-0.006016744,-0.3190195,2.083525,-2.454287
90.0001,7.366699,662,323,463,493,0.02669726,-0.02163126,0.0323559,-1.272813,3.057546,0.1055688,0.009017844,-0.0353865,0.03447374,-0.3184342,2.078653,-2.449898
90.0001,7.37781,662,323,463,493,0.06154235,-0.03452144,0.04361234,-1.274554,3.058006,0.1047352,0.0152357,-0.01964613,0.0490403,-0.3177268,2.07672,-2.448502
90.0001,7.388922,662,323,463,493,0.08739954,-0.03878238,0.06236091,-1.27648,3.058898,0.1040321,0.0058236,0.00860844,0.02500878,-0.3174003,2.079881,-2.451711
90.0001,7.400033,662,323,463,493,0.09547769,-0.04504416,0.07689799,-1.278032,3.059869,0.1032161,-0.01114727,0.02108406,-0.004095806,-0.3174845,2.083495,-2.454846
90.0001,7.411144,586,374,491,515,0.1058864,-0.05778364,0.08615562,-1.279735,3.060928,0.102022,-0.01771673,0.04069275,-0.01804682,-0.3171186,2.086854,-2.458078
90.0001,7.422256,586,374,491,515,0.1136234,-0.06396119,0.08171615,-1.28141,3.061646,0.100905,-0.01874112,0.04817199,-0.02268209,-0.3169108,2.089531,-2.460704
90.0001,7.433367,586,374,491,515,0.1195275,-0.07230659,0.07603778,-1.282699,3.062282,0.09949996,-0.018603,0.05537953,-0.02190838,-0.3165295,2.092079,-2.463343
90.0001,7.444478,586,374,491,515,0.1169117,-0.07448311,0.07421741,-1.284125,3.063066,0.09831059,-0.02171781,0.07972482,-0.02411141,-0.315665,2.096579,-2.468073
90.0001,7.455589,595,342,496,495,0.1206845,-0.08342667,0.07685807,-1.28575,3.063984,0.0968613,-0.02482854,0.06646263,-0.02376708,-0.3155798,2.098484,-2.469658
90.0001,7.466701,595,342,496,495,0.120811,-0.0851413,0.07385351,-1.287413,3.064617,0.0956437,-0.02629156,0.07193625,-0.01979153,-0.3149033,2.101301,-2.472416
90.0001,7.477812,595,342,496,495,0.1213588,-0.08768533,0.06970092,-1.288887,3.065129,0.0945012,-0.03629606,0.07692884,-0.03339616,-0.3146653,2.105706,-2.476382
90.0001,7.488923,595,342,496,495,0.1093545,-0.08750059,0.06837048,-1.289921,3.065992,0.09321969,-0.05563597,0.07527851,-0.02806349,-0.3138477,2.109052,-2.478748
90.0001,7.500034,595,342,496,495,0.09370638,-0.09155013,0.06483255,-1.290656,3.066666,0.09199144,-0.04555625,0.07765245,-0.01046682,-0.31298,2.110684,-2.480464
90.0001,7.511146,555,270,484,506,0.08366576,-0.09295721,0.06750656,-1.29162,3.067641,0.09083137,-0.0300658,0.0847396,0.02333404,-0.3114546,2.110556,-2.480969
90.0001,7.522257,555,270,484,506,0.08498198,-0.09230998,0.07022266,-1.292819,3.068437,0.08969686,-0.03005353,0.08438816,-0.0001583323,-0.3112575,2.114136,-2.484483
90.0001,7.533368,555,270,484,506,0.0904577,-0.08597992,0.06760654,-1.294059,3.068904,0.08883081,-0.03707885,0.0915025,-0.02116633,-0.3110103,2.119142,-2.489063
90.0001,7.544479,555,270,484,506,0.0942908,-0.07069099,0.06286202,-1.295415,3.0693,0.08836795,-0.0434062,0.08228222,-0.04478001,-0.3113289,2.123726,-2.493039
90.0001,7.555591,525,313,506,506,0.09350286,-0.0717629,0.06212195,-1.296697,3.069869,0.08738258,-0.04456349,0.08377058,-0.03209049,-0.3105981,2.126216,-2.495261
90.0001,7.566702,525,313,506,506,0.0895699,-0.07848463,0.06711961,-1.297771,3.07077,0.08617403,-0.04710258,0.08262778,-0.01404541,-0.3096404,2.128109,-2.496896
90.0001,7.577813,525,313,506,506,0.08490321,-0.07178597,0.05168605,-1.298618,3.070895,0.08538681,-0.04817082,0.07465221,0.01506756,-0.308328,2.127293,-2.495925
90.0001,7.588924,525,313,506,506,0.06174969,-0.06618878,0.03407229,-1.298859,3.071159,0.08461768,-0.04831883,0.05881421,0.02525551,-0.3077208,2.127277,-2.495486
90.0001,7.600036,525,313,506,506,0.04315335,-0.05917677,0.02882256,-1.298989,3.071515,0.08397959,-0.0360022,0.05196321,0.03164826,-0.307047,2.127011,-2.49534
90.0001,7.611147,499,310,512,490,0.01184597,-0.06093723,0.01834023,-1.298286,3.071925,0.08320408,-0.03141777,0.06867871,0.02173796,-0.3062625,2.130414,-2.498842
90.0001,7.622258,499,310,512,490,-0.002571143,-0.0598735,0.02374147,-1.298023,3.072579,0.08250579,-0.03782679,0.08563207,-0.05095401,-0.307235,2.139763,-2.507704
90.0001,7.633369,499,310,512,490,-0.002761863,-0.06492009,0.02139435,-1.298134,3.072986,0.08157422,-0.0429498,0.08665443,-0.07064112,-0.3074353,2.145247,-2.51268
90.0001,7.644481,499,310,512,490,0.0212529,-0.06563144,0.02397335,-1.299171,3.07325,0.0806256,-0.03702739,0.05869355,-0.07251488,-0.3080974,2.147337,-2.514353
90.0001,7.655592,499,310,512,490,0.03781445,-0.06122373,0.02495876,-1.300096,3.073504,0.07995502,-0.03279815,0.04475896,-0.01185041,-0.3068867,2.144519,-2.511656
90.0001,7.666703,692,357,495,501,0.04805308,-0.05062163,0.0307763,-1.301057,3.074019,0.07945648,-0.02555786,0.04783217,0.002448962,-0.306246,2.145639,-2.512959
90.0001,7.677814,692,357,495,501,0.04824913,-0.03864774,0.04256001,-1.301746,3.074662,0.07926206,-0.02813249,0.04637493,-0.001965037,-0.3059333,2.14721,-2.514315
90.0001,7.688926,692,357,495,501,0.05523442,-0.03370468,0.04828389,-1.302723,3.075217,0.07897391,-0.03048031,0.04951362,-0.02686078,-0.3063035,2.151258,-2.518019
90.0001,7.700037,692,357,495,501,0.06790434,-0.03478965,0.04774635,-1.303977,3.075605,0.07843488,-0.03852143,0.05395988,-0.06295118,-0.3069938,2.157121,-2.523221
90.0001,7.711148,669,305,499,502,0.08529593,-0.0429725,0.04036875,-1.305532,3.075541,0.07772222,-0.04293533,0.04518595,-0.05874927,-0.3071147,2.159224,-2.524739
90.0001,7.72226,669,305,499,502,0.09123477,-0.04079479,0.04271911,-1.306822,3.075899,0.07723593,-0.0392608,0.04233164,-0.03913784,-0.3067376,2.160352,-2.525672
90.0001,7.733371,669,305,499,502,0.09575453,-0.03779082,0.04588422,-1.308089,3.076312,0.07678852,-0.02371376,0.03583879,-0.01421366,-0.3063024,2.159663,-2.525415
90.0001,7.744482,669,305,499,502,0.1084031,-0.03645042,0.06167185,-1.309905,3.07711,0.07624897,-0.01853131,0.0379205,-0.0181683,-0.3062209,2.161428,-2.527211
90.0001,7.755593,669,305,499,502,0.1358474,-0.02783064,0.07347456,-1.312386,3.077762,0.07604603,-0.01767189,0.02867051,-0.03920568,-0.3069474,2.164087,-2.529507
90.0001,7.766705,566,283,505,499,0.1609642,-0.008897064,0.07501648,-1.314924,3.077991,0.07634591,-0.02218585,0.02386476,-0.06189062,-0.3077607,2.167327,-2.532253
90.0001,7.777816,566,283,505,499,0.1646037,0.003500868,0.07378037,-1.316999,3.078218,0.07668466,-0.02371198,0.02926171,-0.07505608,-0.3082699,2.171017,-2.535641
90.0001,7.788927,566,283,505,499,0.1556263,0.01273774,0.06667937,-1.318525,3.078351,0.07696216,-0.02040957,0.02565241,-0.06399966,-0.3084963,2.17263,-2.537045
90.0001,7.800038,566,283,505,499,0.1291543,0.006246667,0.05543768,-1.319294,3.07857,0.07671182,-0.01307842,0.02540075,-0.03130174,-0.3079616,2.17221,-2.536839
90.0001,7.81115,537,273,498,500,0.09044722,6.864592E-05,0.04382739,-1.319353,3.07886,0.07650249,-0.01355809,0.02000739,-0.004431305,-0.3074295,2.171498,-2.536164
90.0001,7.822261,537,273,498,500,0.05381005,-0.002182055,0.0291452,-1.319009,3.078929,0.07641727,-0.01292925,0.01254889,0.002276236,-0.307251,2.171036,-2.535603
90.0001,7.833372,537,273,498,500,0.03085717,0.002620921,0.01687492,-1.318704,3.078791,0.07651369,-0.008898135,-0.002640367,-0.006539116,-0.3078263,2.170914,-2.535362
90.0001,7.844483,537,273,498,500,-0.005350427,0.008762205,0.003929128,-1.317737,3.078849,0.07669052,-0.0004672321,-0.0001595896,-0.009142874,-0.3079722,2.171156,-2.535798
90.0001,7.855595,537,273,498,500,-0.03531675,0.0129004,-0.007449755,-1.316429,3.078707,0.07698986,0.002420373,0.01080834,-0.02209267,-0.3082694,2.173559,-2.538245
90.0001,7.866706,488,270,530,504,-0.0467794,0.008150269,-0.009900534,-1.315766,3.078897,0.07682261,0.01667418,0.01034955,-0.003800399,-0.3080745,2.172418,-2.53787
90.0001,7.877817,488,270,530,504,-0.03577849,0.01049939,-0.01264533,-1.315693,3.078771,0.0769595,0.01887403,0.005514001,-0.003465867,-0.308213,2.172092,-2.537808
90.0001,7.888928,488,270,530,504,-0.01586931,0.01068823,-0.01172244,-1.31599,3.078473,0.07706336,0.01017223,0.003128747,0.002306949,-0.3080984,2.172131,-2.537591
90.0001,7.90004,488,270,530,504,-0.002073813,0.0112604,-0.009319849,-1.316362,3.07842,0.07714751,0.006494135,0.00450972,0.01265289,-0.30774,2.171546,-2.537079
90.0001,7.911151,557,261,480,497,0.01868903,0.008591047,-0.004135695,-1.317105,3.078236,0.07706336,0.008011648,0.009586509,0.02543966,-0.3072617,2.171056,-2.536934
90.0001,7.922262,557,261,480,497,0.02945545,0.004160987,0.0008161189,-1.317766,3.078336,0.07689451,0.01336193,0.009185546,0.0184042,-0.3072377,2.170906,-2.537099
90.0001,7.933373,557,261,480,497,0.03504991,0.001189462,0.007752564,-1.318321,3.07843,0.07672034,0.01107109,0.002000465,0.01416041,-0.3074071,2.170623,-2.536823
90.0001,7.944485,557,261,480,497,0.03751982,-0.0001230692,0.003731194,-1.318763,3.078269,0.07666388,0.004661746,-0.006860125,0.01284759,-0.3074705,2.169808,-2.535789
90.0001,7.955596,557,261,480,497,0.0400063,0.002862404,0.006256073,-1.319297,3.078405,0.07670117,0.009253616,-0.01258101,0.01874268,-0.3073986,2.168081,-2.534239
90.0001,7.966707,493,264,514,502,0.02594951,0.001042838,0.004727295,-1.319182,3.07855,0.07654138,0.01751659,-0.01485644,0.01626854,-0.3075578,2.166857,-2.533386
90.0001,7.977818,493,264,514,502,0.01463353,0.003466314,0.004914257,-1.319114,3.078637,0.07668998,0.01485642,-0.008255111,0.01050295,-0.3075088,2.166992,-2.533572
90.0001,7.98893,493,264,514,502,0.001462258,-0.001020409,-0.00596364,-1.318745,3.078487,0.07657973,0.01200198,1.731422E-05,-0.003883347,-0.3077197,2.168479,-2.535023
90.0001,8.000041,493,264,514,502,-0.002212502,-0.001365198,-0.01179728,-1.318571,3.078237,0.07658559,0.01198808,0.001619504,-0.01462271,-0.3081011,2.169465,-2.536087
90.0001,8.011152,493,264,514,502,-0.006791105,-0.003338428,-0.01481894,-1.318428,3.078159,0.07647853,0.01054952,0.0005897805,0.01416063,-0.3072936,2.167335,-2.534177
90.0001,8.022264,494,254,511,502,-0.00166075,-0.00431672,-0.01332481,-1.318507,3.078003,0.07638159,0.01506918,0.004544977,0.02508353,-0.3068329,2.16624,-2.53349
