ref,t,emg1,emg2,emg1raw,emg2raw,aDotS,bDotS,gDotS,aS,bS,gS,aDotSH,bDotSH,gDotSH,aSH,bSH,gSH
0,0,44,104,497,498,0.1436953,0.2401793,0.3059438,-1.414844,-2.637527,-1.514389,0.281968,0.2322164,-0.2019264,-0.5726627,-2.80347,1.334356
0,0.01111111,44,104,497,498,0.1499901,0.2413113,0.293097,-1.417649,-2.640095,-1.515865,0.2734365,0.2279557,-0.2040002,-0.5753238,-2.800213,1.328809
0,0.02222222,44,104,497,498,0.1519934,0.2424752,0.2771024,-1.420367,-2.642602,-1.517207,0.2702448,0.235407,-0.2072137,-0.5783363,-2.796224,1.322543
0,0.03333334,44,104,497,498,0.1519336,0.2403902,0.270696,-1.423323,-2.645105,-1.518526,0.2628009,0.2354399,-0.2093141,-0.5813537,-2.792143,1.316124
0,0.04444445,44,104,497,498,0.1496729,0.2330187,0.2578754,-1.425937,-2.647221,-1.519831,0.259552,0.2247784,-0.21674,-0.5844978,-2.789118,1.310894
0,0.05555556,44,104,497,498,0.1549132,0.2330756,0.2471833,-1.428584,-2.649732,-1.52136,0.2541901,0.2151729,-0.2241489,-0.587618,-2.786594,1.306096
0,0.06666667,44,104,497,498,0.1525923,0.220424,0.2300538,-1.430661,-2.651789,-1.522622,0.2509538,0.2002767,-0.2241022,-0.590614,-2.784266,1.30154
0,0.07777778,44,104,497,498,0.146118,0.2109048,0.2236448,-1.433107,-2.653822,-1.523841,0.2434816,0.1875128,-0.2219072,-0.5934487,-2.782324,1.297386
0,0.08888889,44,104,497,498,0.1534011,0.2056736,0.205442,-1.435049,-2.655808,-1.525407,0.2370955,0.1737118,-0.211189,-0.5958897,-2.780509,1.293411
0,0.1,44,104,497,498,0.1447227,0.1801983,0.1968083,-1.437108,-2.657082,-1.52667,0.2306984,0.1567074,-0.2025902,-0.5982131,-2.779234,1.289946
0,0.1111111,44,104,497,498,0.1499294,0.1695946,0.1871083,-1.439114,-2.658611,-1.528253,0.2243376,0.1460798,-0.1950608,-0.6003281,-2.777921,1.286201
0,0.1222222,44,104,497,498,0.1529302,0.1505252,0.1709674,-1.440618,-2.659796,-1.529953,0.2168732,0.1333275,-0.1896703,-0.602488,-2.777095,1.283337
0,0.1333333,44,104,497,498,0.1549544,0.1260601,0.1675797,-1.442509,-2.660764,-1.531655,0.2062172,0.1333666,-0.1843165,-0.6047367,-2.775321,1.280053
0,0.1444445,44,104,497,498,0.1590587,0.108027,0.1556987,-1.443995,-2.661631,-1.53348,0.1881451,0.1493911,-0.1800637,-0.6071438,-2.772747,1.276374
0,0.1555556,44,104,497,498,0.1643132,0.09524835,0.1523678,-1.445625,-2.662283,-1.53537,0.1647683,0.1750022,-0.1736982,-0.6095299,-2.769536,1.272563
0,0.1666667,44,104,497,498,0.1652775,0.08250393,0.1448018,-1.446959,-2.662706,-1.537233,0.1403444,0.2006211,-0.1683918,-0.6119433,-2.765829,1.268303
0,0.1777778,44,104,497,498,0.1663138,0.06757418,0.1468125,-1.448605,-2.663069,-1.53915,0.1222906,0.2219842,-0.1609621,-0.614363,-2.76163,1.263979
0,0.1888889,44,104,497,498,0.156634,0.05272122,0.1435757,-1.44996,-2.66329,-1.540408,0.1074147,0.2295185,-0.1481566,-0.6163689,-2.757765,1.260021
0,0.2,44,104,497,498,0.1534021,0.03994271,0.1445732,-1.451555,-2.663389,-1.542026,0.1010615,0.2423353,-0.141793,-0.6186438,-2.753469,1.255568
0,0.2111111,44,104,497,498,0.1448178,0.02294124,0.1445211,-1.45318,-2.663278,-1.543385,0.09468023,0.2296165,-0.125753,-0.6202513,-2.750424,1.252255
0,0.2222222,44,104,497,498,0.1383177,0.01878652,0.1328219,-1.454273,-2.663375,-1.544784,0.08828235,0.217928,-0.1203686,-0.6220271,-2.747634,1.249191
0,0.2333333,44,104,497,498,0.1266105,0.01987776,0.1318534,-1.455608,-2.6633,-1.546105,0.08612648,0.1849478,-0.1053393,-0.6231626,-2.746453,1.247455
0,0.2444444,44,104,497,498,0.1181016,0.02310413,0.1319435,-1.457062,-2.663623,-1.547172,0.09567311,0.1497986,-0.09672976,-0.6243259,-2.74582,1.245653
0,0.2555556,44,104,497,498,0.1020951,0.02639273,0.1278443,-1.458483,-2.664035,-1.547818,0.0977547,0.1295356,-0.1019901,-0.6258311,-2.745063,1.243904
0,0.2666667,44,104,497,498,0.09033862,0.02967072,0.1226372,-1.459731,-2.664474,-1.548397,0.08922009,0.1210254,-0.09768412,-0.6271398,-2.744082,1.242536
0,0.2777778,44,104,497,498,0.07539386,0.03189243,0.117446,-1.460868,-2.664855,-1.54888,0.07856847,0.1104176,-0.09016103,-0.6281806,-2.743003,1.24108
0,0.2888889,44,104,497,498,0.05935974,0.02986482,0.1122312,-1.461917,-2.665239,-1.549021,0.07641386,0.09019261,-0.08369542,-0.6290892,-2.742856,1.240244
0,0.3,44,104,497,498,0.04443331,0.03313272,0.1091839,-1.463124,-2.665627,-1.54916,0.07427086,0.0636096,-0.07081147,-0.6294882,-2.743085,1.239672
0,0.3111111,44,104,497,498,0.03484846,0.03317363,0.1092607,-1.464328,-2.666066,-1.549333,0.07103314,0.04548834,-0.06967402,-0.6301695,-2.743809,1.239739
0,0.3222222,44,104,497,498,0.02526416,0.03106738,0.1103874,-1.465556,-2.666307,-1.549395,0.06782888,0.04229429,-0.07071936,-0.6310546,-2.743617,1.238908
0,0.3333333,44,104,497,498,0.00923159,0.01729038,0.1093444,-1.466597,-2.666242,-1.549142,0.05825637,0.04977757,-0.06645681,-0.6318472,-2.742752,1.237947
0,0.3444445,44,104,497,498,-0.003628969,0.001373596,0.1061417,-1.467721,-2.665788,-1.548959,0.05401325,0.04981435,-0.0579275,-0.6324741,-2.742133,1.23701
0,0.3555556,44,104,497,498,-0.01858816,-0.01456549,0.1072143,-1.468905,-2.665151,-1.54851,0.04867964,0.03918609,-0.05361381,-0.6329988,-2.742142,1.236626
0,0.3666667,44,104,497,498,-0.02299596,-0.03152024,0.09753392,-1.469667,-2.664478,-1.548118,0.04546138,0.02749312,-0.04931932,-0.6336768,-2.74237,1.23657
0,0.3777778,44,104,497,498,-0.02511731,-0.03472443,0.09966084,-1.470848,-2.66401,-1.547896,0.04119223,0.01792445,-0.04607744,-0.6340614,-2.742697,1.2365
0,0.3888889,44,104,497,498,-0.0251989,-0.04746829,0.09637984,-1.471898,-2.663366,-1.547547,0.03587123,0.01051456,-0.03645806,-0.634317,-2.742851,1.236469
0,0.4,44,104,497,498,-0.02633707,-0.05381479,0.08995771,-1.472791,-2.66252,-1.547347,0.02417234,0.008435033,-0.02789653,-0.6344188,-2.742835,1.236503
0,0.4111111,44,104,497,498,-0.0265137,-0.07610606,0.07915352,-1.473456,-2.661096,-1.547033,0.01247273,0.006353028,-0.01933909,-0.6344944,-2.74289,1.236714
0,0.4222222,44,104,497,498,-0.02878175,-0.09307579,0.06946663,-1.474008,-2.659621,-1.546836,0.006114638,0.004283507,-0.005465486,-0.634177,-2.742727,1.236677
0,0.4333333,44,104,497,498,-0.0299954,-0.1111165,0.05975514,-1.474308,-2.657804,-1.546576,-0.003407961,0.005449976,0.01799276,-0.6333929,-2.742078,1.236446
0,0.4444444,44,104,497,498,-0.02923623,-0.1493242,0.03922448,-1.474028,-2.655174,-1.546468,-0.008676164,0.007662799,0.03823984,-0.6325237,-2.741292,1.236045
0,0.4555556,44,104,497,498,-0.02828814,-0.1673918,0.03269562,-1.474167,-2.652803,-1.546402,-0.01610368,0.009840917,0.04783978,-0.6318946,-2.740608,1.235849
0,0.4666667,44,104,497,498,-0.02103769,-0.1875515,0.01650962,-1.473862,-2.650134,-1.546576,-0.0203843,0.003456455,0.05428313,-0.6308443,-2.740838,1.236773
0,0.4777778,44,104,497,498,-0.02113596,-0.200289,0.0100273,-1.47372,-2.647525,-1.546576,-0.02572993,-0.0093139,0.05540927,-0.6300895,-2.741246,1.237566
0,0.4888889,44,104,497,498,-0.01275462,-0.2076781,-0.00393225,-1.473419,-2.645039,-1.54692,-0.02679706,-0.01037734,0.05541603,-0.6294669,-2.741118,1.237786
0,0.5,44,104,497,498,-0.004348382,-0.2086768,-0.01785658,-1.472847,-2.642662,-1.547326,-0.02998424,-0.01036021,0.05862059,-0.6287297,-2.740898,1.23804
0,0.5111111,44,104,497,498,-0.002253033,-0.2086465,-0.02212104,-1.472631,-2.640455,-1.547569,-0.03315456,-0.003943633,0.06393251,-0.6279957,-2.740137,1.237865
0,0.5222223,44,104,497,498,0.003005322,-0.208605,-0.03068622,-1.472026,-2.638143,-1.54797,-0.04589624,0.01526532,0.06709354,-0.6274471,-2.738523,1.237433
0,0.5333334,44,104,497,498,0.006161798,-0.2043011,-0.03707622,-1.471364,-2.636108,-1.548283,-0.05866843,0.0184911,0.06924727,-0.6267531,-2.73756,1.237667
0,0.5444446,44,104,497,498,0.008313537,-0.2000578,-0.03705957,-1.470977,-2.633856,-1.54872,-0.06399566,0.01637362,0.07033477,-0.6260399,-2.73689,1.237988
0,0.5555557,44,104,497,498,0.01150885,-0.1904513,-0.04127785,-1.470373,-2.63201,-1.549109,-0.0640099,0.01316619,0.06715052,-0.625446,-2.736497,1.23837
0,0.5666668,44,104,497,498,0.01583974,-0.1787877,-0.03804236,-1.469906,-2.630118,-1.549624,-0.06612914,0.01637347,0.06927527,-0.6247611,-2.735618,1.238423
0,0.577778,44,104,497,498,0.01482948,-0.1670708,-0.03689615,-1.469454,-2.628515,-1.549999,-0.06504228,0.02384022,0.07244118,-0.6240734,-2.734315,1.238006
0,0.5888891,44,104,497,498,0.01913061,-0.1532325,-0.03894307,-1.469099,-2.62712,-1.55057,-0.06504412,0.02277493,0.07244505,-0.6233799,-2.733474,1.23804
0,0.6000003,44,104,497,498,0.020199,-0.1478946,-0.04104597,-1.468539,-2.625607,-1.550999,-0.06399199,0.01850421,0.07032704,-0.6227243,-2.732931,1.238282
0,0.6111114,44,104,497,498,0.02342479,-0.1319183,-0.04416666,-1.467752,-2.62438,-1.551472,-0.06293772,0.01211064,0.07034734,-0.6219743,-2.732595,1.238665
0,0.6222225,44,104,497,498,0.02456483,-0.109543,-0.04508505,-1.467182,-2.623773,-1.551893,-0.05976789,0.0003791898,0.06825059,-0.6212052,-2.73275,1.239357
0,0.6333337,44,104,497,498,0.02252994,-0.08932477,-0.04172698,-1.466811,-2.62321,-1.55209,-0.05874293,-0.002864845,0.05547586,-0.6209165,-2.732809,1.240033
0,0.6444448,44,104,497,498,0.01836437,-0.07122188,-0.03837191,-1.466411,-2.622825,-1.552297,-0.05769294,-0.005012713,0.05121954,-0.6204398,-2.732725,1.24059
0,0.655556,44,104,497,498,0.01523906,-0.06379179,-0.03296642,-1.466182,-2.622319,-1.552438,-0.0598154,0.001378864,0.05013686,-0.6200121,-2.732085,1.2408
0,0.6666671,44,104,497,498,0.01002214,-0.05105244,-0.02538649,-1.465952,-2.621904,-1.552493,-0.05235466,0.003496483,0.05010885,-0.6195317,-2.731584,1.24075
0,0.6777782,44,104,497,498,0.006901069,-0.045761,-0.01893176,-1.46589,-2.621493,-1.552572,-0.04811091,0.003465928,0.04370555,-0.6192403,-2.731309,1.240948
0,0.6888894,44,104,497,498,0.002668235,-0.04150314,-0.01673761,-1.465711,-2.621084,-1.552458,-0.04703247,0.007732958,0.04581778,-0.6187546,-2.730671,1.240933
0,0.7000005,44,104,497,498,-0.004722537,-0.04046561,-0.009207039,-1.465859,-2.620631,-1.552306,-0.04809593,0.008800089,0.04581681,-0.6183285,-2.730196,1.241116
0,0.7111117,44,104,497,498,-0.007911708,-0.04368096,-0.005998881,-1.465978,-2.619917,-1.552095,-0.04814269,0.006638408,0.04689197,-0.6176744,-2.730678,1.242785
0,0.7222228,44,104,497,498,-0.01000169,-0.05011883,0.001428728,-1.466135,-2.619182,-1.552067,-0.04815339,0.005561493,0.04369999,-0.617325,-2.730378,1.243068
0,0.7333339,44,104,497,498,-0.01109348,-0.06184504,0.00349029,-1.466272,-2.618227,-1.551986,-0.050291,0.006618865,0.04050614,-0.6170182,-2.729995,1.243374
0,0.7444451,44,104,497,498,-0.01321385,-0.06612229,0.006672228,-1.466378,-2.617355,-1.55185,-0.05028326,0.007691883,0.04263284,-0.6165532,-2.729515,1.243554
0,0.7555562,44,104,497,498,-0.009018713,-0.08425178,0.006504992,-1.466347,-2.615834,-1.552004,-0.05136302,0.01298921,0.03409412,-0.6164951,-2.728966,1.243709
0,0.7666674,44,104,497,498,-0.007973227,-0.09385006,0.008571295,-1.46664,-2.614691,-1.552024,-0.0534929,0.0151196,0.03302697,-0.6162624,-2.728414,1.243903
0,0.7777785,44,104,497,498,-0.004850644,-0.1066259,0.005253771,-1.466513,-2.613103,-1.552203,-0.05349483,0.02255726,0.02767342,-0.6162518,-2.727597,1.243838
0,0.7888896,44,104,497,498,-0.004864933,-0.1140795,0.005210446,-1.466687,-2.61171,-1.552465,-0.05456461,0.02680478,0.02339971,-0.6162464,-2.726844,1.243857
0,0.8000008,44,104,497,498,0.0003562067,-0.1321691,-0.0002891147,-1.466486,-2.609762,-1.552851,-0.05880558,0.03853033,0.02336887,-0.6162406,-2.725505,1.243526
0,0.8111119,44,104,497,498,0.001336636,-0.1395941,-0.005681516,-1.466164,-2.607979,-1.552871,-0.06092535,0.04067627,0.02655889,-0.6160126,-2.72461,1.243524
0,0.8222231,44,104,497,498,0.003404278,-0.1555708,-0.006877929,-1.466029,-2.605879,-1.553219,-0.06623234,0.04070868,0.03296934,-0.6156637,-2.723477,1.243466
0,0.8333342,44,104,497,498,0.004435174,-0.1598031,-0.01012374,-1.465649,-2.604148,-1.553578,-0.06833489,0.04500063,0.04041673,-0.615219,-2.722156,1.2432
0,0.8444453,44,104,497,498,0.007593211,-0.1683272,-0.01127419,-1.465491,-2.602085,-1.553983,-0.07153188,0.04606758,0.03935643,-0.6149819,-2.721044,1.243153
0,0.8555565,44,104,497,498,0.009728469,-0.1683572,-0.009164248,-1.465365,-2.600097,-1.55416,-0.07259431,0.05457623,0.03506721,-0.6150043,-2.719591,1.242784
0,0.8666676,44,104,497,498,0.008641731,-0.1747528,-0.00918732,-1.465429,-2.597863,-1.554489,-0.07580283,0.06094253,0.02653052,-0.6152089,-2.718174,1.242556
0,0.8777788,44,104,497,498,0.01189972,-0.1748183,-0.001761311,-1.465521,-2.595904,-1.554913,-0.07687149,0.06412864,0.02332598,-0.6153351,-2.716775,1.242293
0,0.8888899,44,104,497,498,0.01193144,-0.1759009,0.001429857,-1.465623,-2.594002,-1.555375,-0.07794789,0.0662417,0.01799475,-0.6155098,-2.715484,1.242116
0,0.900001,44,104,497,498,0.01199375,-0.1716793,0.006783021,-1.465745,-2.592144,-1.555745,-0.07367827,0.06943406,0.01903659,-0.6155705,-2.713927,1.241578
0,0.9111122,44,104,497,498,0.01199925,-0.1631396,0.003645048,-1.465634,-2.590456,-1.556068,-0.07264213,0.0545161,0.02443499,-0.6148749,-2.713659,1.242415
0,0.9222233,44,104,497,498,0.009936547,-0.1546417,0.007984074,-1.465798,-2.588915,-1.556323,-0.06944361,0.04919951,0.02870656,-0.6146001,-2.712754,1.242368
0,0.9333345,44,104,497,498,0.01314917,-0.1418566,0.005922721,-1.465859,-2.587624,-1.556529,-0.07161108,0.04175534,0.02979372,-0.6145186,-2.712021,1.243024
0,0.9444456,44,104,497,498,0.01324036,-0.1248339,0.00924035,-1.466048,-2.586718,-1.556832,-0.06740043,0.03214882,0.02664631,-0.6139907,-2.711427,1.243544
0,0.9555568,44,104,497,498,0.01012226,-0.1024672,0.01049631,-1.466259,-2.586082,-1.556766,-0.06423502,0.02466334,0.02027261,-0.6139673,-2.711241,1.244026
0,0.9666679,44,104,497,498,0.01127273,-0.08010329,0.01063238,-1.466156,-2.585701,-1.557041,-0.06535222,0.02783406,0.01068268,-0.6141404,-2.710346,1.244525
0,0.977779,44,104,497,498,0.004943301,-0.0587624,0.008702301,-1.466163,-2.585576,-1.556988,-0.06855745,0.03101619,0.005353584,-0.6143657,-2.709689,1.24483
0,0.9888902,44,104,497,498,0.005044196,-0.03746556,0.01098758,-1.466401,-2.585778,-1.557136,-0.0695769,0.03317861,0.002116689,-0.6152701,-2.70837,1.243806
0,1.000001,44,104,497,498,0.0008460702,-0.01826934,0.01009287,-1.466489,-2.585998,-1.557053,-0.06637215,0.03318446,0.005303691,-0.6152648,-2.707649,1.243894
0,1.011112,44,104,497,498,-0.002314327,-0.00547004,0.009136276,-1.466437,-2.586165,-1.556915,-0.06737737,0.03319905,0.01170365,-0.6150134,-2.70713,1.243625
0,1.022224,44,104,497,498,-0.004439278,-0.002261036,0.008109028,-1.466473,-2.586168,-1.556862,-0.06948496,0.03110614,0.02130471,-0.6146554,-2.706383,1.243847
0,1.033335,44,104,497,498,-0.007627876,-0.0001299434,0.01029025,-1.466792,-2.586248,-1.55643,-0.07158192,0.02900559,0.02770834,-0.6143497,-2.705595,1.24376
0,1.044446,44,104,497,498,-0.007640452,-0.001187608,0.009217448,-1.466871,-2.586202,-1.556345,-0.06946713,0.02048988,0.02879012,-0.6141952,-2.705363,1.244331
0,1.055557,44,104,497,498,-0.01408612,-0.01180751,0.008128449,-1.466913,-2.585809,-1.555963,-0.0663184,0.003416955,0.02245032,-0.6139748,-2.705937,1.245468
0,1.066668,44,104,497,498,-0.009876331,-0.02247399,0.00802147,-1.467033,-2.585323,-1.55583,-0.06103687,-0.007264867,0.009680355,-0.6143327,-2.706001,1.245939
0,1.077779,44,104,497,498,-0.009919288,-0.02777751,0.004787138,-1.466998,-2.584899,-1.555798,-0.05573637,-0.005181208,-0.0009948597,-0.6145947,-2.706177,1.246567
0,1.08889,44,104,497,498,-0.0110142,-0.03735944,0.004732439,-1.467117,-2.584257,-1.55578,-0.05467898,0.0001501739,-0.003152049,-0.6148307,-2.705616,1.24688
0,1.100002,44,104,497,498,-0.008940037,-0.05120668,0.003555498,-1.467164,-2.583341,-1.555877,-0.05574358,0.002278827,-0.004221911,-0.6149239,-2.70553,1.247461
0,1.111113,44,104,497,498,-0.01004055,-0.06185032,0.002432625,-1.467286,-2.582328,-1.556013,-0.05678467,0.002300501,-0.002070231,-0.6146805,-2.705023,1.247436
0,1.122224,44,104,497,498,-0.01009075,-0.071421,0.0002372076,-1.467258,-2.581306,-1.556033,-0.06312032,0.01193374,0.005364046,-0.6146943,-2.70407,1.24724
0,1.133335,44,104,497,498,-0.006908431,-0.07887991,-0.0009123697,-1.467161,-2.580269,-1.556474,-0.06734965,0.01835918,0.01281033,-0.6144967,-2.703285,1.247473
0,1.144446,44,104,497,498,-0.004765696,-0.0831703,0.002237411,-1.467281,-2.579266,-1.55659,-0.069419,0.02265736,0.01919728,-0.614257,-2.702226,1.246877
0,1.155557,44,104,497,498,-0.007985502,-0.08741248,0.00116823,-1.467252,-2.578155,-1.55652,-0.06517116,0.02156229,0.01599783,-0.6140802,-2.701589,1.246978
0,1.166668,44,104,497,498,-0.01008733,-0.08315682,0.002293167,-1.467456,-2.577281,-1.55652,-0.06200386,0.02048812,0.0074615,-0.6145431,-2.701215,1.247357
0,1.17778,44,104,497,498,-0.01112852,-0.0788996,0.003397584,-1.467515,-2.576514,-1.556475,-0.06096792,0.02576412,-0.00640891,-0.6150885,-2.700776,1.247642
0,1.188891,44,104,497,498,-0.01213968,-0.0746728,0.008772364,-1.467871,-2.575764,-1.55632,-0.05993067,0.02575485,-0.01386466,-0.6154853,-2.699977,1.247743
0,1.200002,44,104,497,498,-0.01208727,-0.06296254,0.009920747,-1.467975,-2.575348,-1.556252,-0.05995643,0.01934436,-0.01917319,-0.6158805,-2.700109,1.248507
0,1.211113,44,104,497,498,-0.009987512,-0.05868647,0.005679938,-1.468001,-2.574681,-1.556098,-0.05678164,0.01399744,-0.02342454,-0.6162416,-2.700311,1.249219
0,1.222224,44,104,497,498,-0.01312926,-0.04376273,0.005812701,-1.468095,-2.574549,-1.555869,-0.05144579,0.00867923,-0.02020915,-0.616174,-2.700102,1.249334
0,1.233335,44,104,497,498,-0.01413504,-0.02777924,0.004870955,-1.468155,-2.574556,-1.555828,-0.05354156,0.01510464,-0.01170345,-0.6161894,-2.699504,1.24951
0,1.244446,44,104,497,498,-0.01302864,-0.01073483,0.003913913,-1.468131,-2.574754,-1.555537,-0.0534815,0.01725231,-0.007457352,-0.6163934,-2.699141,1.24915
0,1.255558,44,104,497,498,-0.01831356,-0.00219957,0.005080624,-1.468183,-2.574952,-1.555212,-0.05239322,0.02365718,-0.003221705,-0.6164701,-2.698397,1.249105
0,1.266669,44,104,497,498,-0.01827901,0.005245498,0.006196744,-1.468252,-2.575115,-1.554981,-0.05134024,0.02472742,-0.007494699,-0.6169341,-2.697563,1.248999
0,1.27778,44,104,497,498,-0.02357105,0.009507089,0.008400736,-1.46838,-2.575278,-1.554577,-0.04602712,0.0204495,-0.00962517,-0.6171184,-2.697453,1.249268
0,1.288891,44,104,497,498,-0.02464093,0.00950144,0.008396959,-1.468291,-2.575223,-1.554205,-0.036442,0.01084924,-0.01172941,-0.6170384,-2.697378,1.249063
0,1.300002,44,104,497,498,-0.02781159,0.008424369,0.01161028,-1.468475,-2.57528,-1.553867,-0.03327797,0.002301868,-0.02023564,-0.6174933,-2.69768,1.249526
0,1.311113,44,104,497,498,-0.02569819,0.006299085,0.01051306,-1.468553,-2.575344,-1.553616,-0.03010326,-0.003044993,-0.02448713,-0.6177831,-2.698146,1.250156
0,1.322224,44,104,497,498,-0.02464667,0.004169826,0.009428288,-1.468684,-2.575278,-1.553418,-0.02796565,-0.004119979,-0.0244752,-0.6178123,-2.698391,1.250485
0,1.333336,44,104,497,498,-0.02252458,0.00310439,0.008348122,-1.468877,-2.575289,-1.553279,-0.03009922,-0.004120005,-0.02553453,-0.6180877,-2.698667,1.251099
0,1.344447,44,104,497,498,-0.02252478,0.002037367,0.008342621,-1.469003,-2.575255,-1.553063,-0.03010054,-0.007279236,-0.0191279,-0.6180786,-2.698558,1.251545
0,1.355558,44,104,497,498,-0.0193284,-0.0001147294,0.009367647,-1.469126,-2.575156,-1.552922,-0.02689718,-0.0115273,-0.01379542,-0.6180121,-2.698929,1.252067
0,1.366669,44,104,497,498,-0.02145826,-0.002246839,0.00938336,-1.469411,-2.574939,-1.552749,-0.02686609,-0.01044786,-0.007403409,-0.6178475,-2.699188,1.252405
0,1.37778,44,104,497,498,-0.02362425,-0.003270009,0.00513381,-1.469357,-2.574933,-1.552482,-0.02792438,-0.002996443,-0.009557215,-0.6180456,-2.69903,1.252603
0,1.388891,44,104,497,498,-0.01828284,-0.002230142,0.006160016,-1.469419,-2.574955,-1.552448,-0.03005669,-0.003017994,-0.01593793,-0.6182763,-2.699305,1.252998
0,1.400002,44,104,497,498,-0.01722226,0.0009781718,0.004043418,-1.46941,-2.575064,-1.552293,-0.03324939,0.006567545,-0.02341631,-0.618803,-2.698565,1.252728
0,1.411114,44,104,497,498,-0.01617005,0.003147302,0.00085482,-1.469347,-2.575436,-1.552159,-0.03113,0.008675771,-0.02875615,-0.6192861,-2.69858,1.253032
0,1.422225,44,104,497,498,-0.01508905,0.008482101,0.0008900114,-1.469455,-2.575817,-1.551925,-0.02898944,0.005500242,-0.02555226,-0.6194582,-2.698427,1.253067
0,1.433336,44,104,497,498,-0.01935007,0.008497159,0.0009251377,-1.469476,-2.57592,-1.551578,-0.03113081,0.004427556,-0.02873847,-0.6198401,-2.698652,1.253652
0,1.444447,44,104,497,498,-0.01828107,0.01489439,-0.000105653,-1.469412,-2.576275,-1.551227,-0.03005527,0.001230089,-0.02553235,-0.6199386,-2.699086,1.254208
0,1.455558,44,104,497,498,-0.01828108,0.01489439,-0.000105679,-1.46941,-2.576441,-1.551005,-0.03110646,0.007627415,-0.02448647,-0.6202604,-2.698807,1.254364
0,1.466669,44,104,497,498,-0.02044298,0.01491765,-0.003297858,-1.469097,-2.576514,-1.550635,-0.03216674,0.01612174,-0.02878232,-0.6208366,-2.69877,1.254699
0,1.47778,44,104,497,498,-0.02158154,0.00429918,-0.007625603,-1.468892,-2.576264,-1.550386,-0.03535821,0.02038472,-0.02985368,-0.6212819,-2.698375,1.25486
0,1.488891,44,104,497,498,-0.02267317,-0.007439419,-0.00450136,-1.468973,-2.575879,-1.550003,-0.03534673,0.0225217,-0.02773549,-0.6216825,-2.698101,1.254992
0,1.500003,44,104,497,498,-0.02164921,-0.01809227,-0.003513133,-1.469068,-2.575578,-1.549664,-0.02896496,0.01505724,-0.02666187,-0.6219333,-2.698287,1.255302
0,1.511114,44,104,497,498,-0.02163567,-0.02557528,0.0007005148,-1.46926,-2.575181,-1.549549,-0.02790297,0.009736406,-0.02451557,-0.6221299,-2.69846,1.255728
0,1.522225,44,104,497,498,-0.02161692,-0.03305281,0.004905441,-1.46937,-2.574791,-1.549501,-0.02686935,0.002281532,-0.02448808,-0.6223147,-2.698717,1.256495
0,1.533336,44,104,497,498,-0.02052703,-0.03842084,0.01018506,-1.469594,-2.574205,-1.549372,-0.02898769,0.007615451,-0.02343561,-0.6226189,-2.698457,1.256652
0,1.544447,44,104,497,498,-0.01835999,-0.03737729,0.01336433,-1.469703,-2.573961,-1.549332,-0.0289826,0.01293922,-0.02344972,-0.6228729,-2.698159,1.256793
0,1.555558,44,104,497,498,-0.01832116,-0.03634238,0.01763282,-1.47,-2.573576,-1.54916,-0.03005913,0.01505285,-0.02878071,-0.6233773,-2.698037,1.257049
0,1.566669,44,104,497,498,-0.0182889,-0.03317414,0.01870929,-1.470054,-2.573009,-1.549174,-0.03325465,0.02356213,-0.03626692,-0.6242471,-2.697458,1.256953
0,1.577781,44,104,497,498,-0.02036547,-0.03107281,0.02406156,-1.470353,-2.572736,-1.548946,-0.03752229,0.03525412,-0.04588377,-0.6251925,-2.696707,1.256898
0,1.588892,44,104,497,498,-0.01925374,-0.02578285,0.02729233,-1.470823,-2.572417,-1.548814,-0.04180374,0.04587654,-0.05762666,-0.626285,-2.695858,1.256848
0,1.600003,44,104,497,498,-0.02245195,-0.02683457,0.02731155,-1.471109,-2.572107,-1.548533,-0.04287272,0.05331426,-0.0587137,-0.627037,-2.69533,1.257129
0,1.611114,44,104,497,498,-0.02350117,-0.02257951,0.02947856,-1.471449,-2.572026,-1.548016,-0.04286348,0.05864069,-0.05873259,-0.6278993,-2.694384,1.25684
0,1.622225,44,104,497,498,-0.02242327,-0.02259651,0.03161126,-1.472002,-2.571766,-1.547752,-0.0439278,0.06289005,-0.0651295,-0.6289332,-2.693379,1.25637
0,1.633336,44,104,497,498,-0.02561575,-0.02899955,0.03478795,-1.47247,-2.571261,-1.54742,-0.03860206,0.06075393,-0.0640716,-0.6297444,-2.692744,1.256144
0,1.644447,44,104,497,498,-0.02668245,-0.03219709,0.03478558,-1.473,-2.570729,-1.547297,-0.03756575,0.05435575,-0.06723808,-0.6305774,-2.692209,1.25625
0,1.655559,44,104,497,498,-0.02774879,-0.03539434,0.03583762,-1.473417,-2.570282,-1.547033,-0.03439703,0.04900122,-0.07361995,-0.6316203,-2.69207,1.256435
0,1.66667,44,104,497,498,-0.02774527,-0.03967003,0.03793892,-1.473904,-2.569709,-1.546806,-0.02905297,0.04259314,-0.07149249,-0.6325034,-2.692381,1.25654
0,1.677781,44,104,497,498,-0.02775152,-0.04180015,0.0379186,-1.474228,-2.569182,-1.546569,-0.02586523,0.03619956,-0.07041363,-0.6333034,-2.692405,1.256756
0,1.688892,44,104,497,498,-0.0256096,-0.04395293,0.04002625,-1.474845,-2.568629,-1.546409,-0.02480863,0.02982022,-0.06933086,-0.6341311,-2.692269,1.256907
0,1.700003,44,104,497,498,-0.02988631,-0.04392121,0.03792429,-1.475099,-2.56817,-1.546037,-0.01947126,0.02238395,-0.06079712,-0.6345349,-2.692419,1.257082
0,1.711114,44,104,497,498,-0.02773114,-0.04393874,0.04005127,-1.475786,-2.567748,-1.545931,-0.01520429,0.01814068,-0.05226149,-0.6347762,-2.692464,1.257353
0,1.722225,44,104,497,498,-0.02770315,-0.03862426,0.0411347,-1.475984,-2.567404,-1.545663,-0.01838657,0.01922868,-0.05011308,-0.6352076,-2.692038,1.257193
0,1.733337,44,104,497,498,-0.02875804,-0.03328662,0.04011599,-1.476395,-2.56717,-1.545341,-0.01411614,0.02454769,-0.05014366,-0.6358824,-2.69164,1.256912
0,1.744448,44,104,497,498,-0.02766557,-0.02155804,0.03699218,-1.476689,-2.567097,-1.545235,-0.01305969,0.02241227,-0.05653478,-0.6368284,-2.691369,1.256629
0,1.755559,44,104,497,498,-0.02869144,-0.01303978,0.03812667,-1.477147,-2.567165,-1.544888,-0.008808203,0.02026679,-0.05866982,-0.6375485,-2.691437,1.256697
0,1.76667,44,104,497,498,-0.02975211,0.001911909,0.03399581,-1.477649,-2.5676,-1.544296,-0.007743549,0.02025261,-0.05973958,-0.6382505,-2.691628,1.256866
0,1.777781,44,104,497,498,-0.02756326,0.0125443,0.0361773,-1.478012,-2.568024,-1.544065,-0.004545778,0.01280852,-0.05439608,-0.6386857,-2.691938,1.257077
0,1.788892,44,104,497,498,-0.0244047,0.02538723,0.02665397,-1.47808,-2.568649,-1.543748,-0.007727113,0.01072056,-0.04691409,-0.6389147,-2.691659,1.257072
0,1.800003,44,104,497,498,-0.02332388,0.02858393,0.02666202,-1.478311,-2.569103,-1.543534,-0.01191764,0.01291956,-0.0309226,-0.638853,-2.691152,1.256545
0,1.811115,44,104,497,498,-0.01909125,0.03498064,0.02240616,-1.4784,-2.569513,-1.543166,-0.01403592,0.009749508,-0.02451388,-0.6389829,-2.69119,1.256784
0,1.822226,44,104,497,498,-0.01698281,0.03606755,0.01814478,-1.478654,-2.569905,-1.543129,-0.01296168,0.009758662,-0.021321,-0.6391608,-2.691096,1.256823
0,1.833337,44,104,497,498,-0.01168775,0.03714431,0.01384743,-1.478703,-2.570353,-1.543096,-0.0108046,0.01083591,-0.0192054,-0.6394985,-2.69084,1.256388
0,1.844448,44,104,497,498,-0.01172172,0.03609611,0.01169754,-1.478637,-2.570737,-1.542728,-0.009763882,0.005492316,-0.02238771,-0.6397978,-2.691272,1.256897
0,1.855559,44,104,497,498,-0.00960377,0.03503086,0.01060729,-1.47872,-2.571091,-1.542648,-0.008732723,-0.01049627,-0.02446632,-0.6399779,-2.69236,1.257829
0,1.86667,44,104,497,498,-0.005370519,0.03183898,0.008416965,-1.478734,-2.571437,-1.54269,-0.006598074,-0.03282221,-0.01374813,-0.6396865,-2.693539,1.258582
0,1.877781,44,104,497,498,-0.006444967,0.03612798,0.005257712,-1.478666,-2.571982,-1.54256,-0.003400896,-0.04558211,-0.005190866,-0.6392524,-2.694836,1.259567
0,1.888893,44,104,497,498,-0.003299414,0.03510972,-0.001176091,-1.47838,-2.572546,-1.542632,-0.002308847,-0.05830516,0.01189386,-0.6383964,-2.69598,1.260442
0,1.900004,44,104,497,498,-0.002241076,0.03297628,-0.001205349,-1.4783,-2.572867,-1.542609,-0.003359647,-0.06360051,0.0204374,-0.6376742,-2.697117,1.261427
0,1.911115,44,104,497,498,-0.001226637,0.03515679,-0.007587923,-1.478099,-2.573447,-1.542462,-0.01078789,-0.05293484,0.02042359,-0.6373791,-2.697443,1.261853
0,1.922226,44,104,497,498,-0.002311946,0.03410581,-0.009722847,-1.47787,-2.57374,-1.542395,-0.01716488,-0.04121256,0.01827079,-0.6371986,-2.697581,1.262343
0,1.933337,44,104,497,498,-0.0001825227,0.03623634,-0.01079061,-1.477723,-2.574185,-1.54241,-0.02351903,-0.0177882,0.01073215,-0.63776,-2.697033,1.262057
0,1.944448,44,104,497,498,-0.001247078,0.0341104,-0.01184251,-1.477836,-2.574407,-1.542591,-0.02669375,-0.007132614,0.008573306,-0.6377781,-2.696696,1.262002
0,1.955559,44,104,497,498,-0.002321066,0.03412179,-0.0128989,-1.477672,-2.574789,-1.542501,-0.02775314,-0.007123489,0.01070687,-0.6376087,-2.696725,1.262369
0,1.966671,44,104,497,498,-0.002334799,0.03413554,-0.0150331,-1.477416,-2.575157,-1.542488,-0.02775262,-0.007096678,0.01603922,-0.6372162,-2.696455,1.262651
0,1.977782,44,104,497,498,-0.004432484,0.03304829,-0.01076761,-1.477327,-2.57549,-1.542376,-0.02667352,-0.006018884,0.02029379,-0.6368726,-2.696312,1.262803
0,1.988893,44,104,497,498,-0.002350122,0.02988698,-0.01719138,-1.477085,-2.575697,-1.542614,-0.02883664,-0.01134211,0.01819277,-0.6365956,-2.696445,1.263526
0,2.000004,44,104,497,498,-0.004493481,0.02669736,-0.01719776,-1.476881,-2.575897,-1.54248,-0.02565812,-0.01774678,0.01607488,-0.6363762,-2.696991,1.26415
0,2.011115,44,104,497,498,-0.007723216,0.01924398,-0.01722115,-1.476716,-2.575808,-1.542234,-0.02567319,-0.01671615,0.008614033,-0.6364151,-2.697565,1.264822
0,2.022226,44,104,497,498,-0.004538019,0.01389079,-0.01514887,-1.476689,-2.57583,-1.542149,-0.03419123,-0.00925478,0.00541661,-0.6364598,-2.697447,1.265328
0,2.033337,44,104,497,498,-0.004572058,0.008561319,-0.01624845,-1.476535,-2.575661,-1.542017,-0.03418854,-0.006062526,0.004340445,-0.6364524,-2.697405,1.265674
0,2.044448,44,104,497,498,-0.006692016,0.001075741,-0.0109674,-1.476423,-2.575532,-1.541815,-0.03735225,0.005665869,0.006425826,-0.6365823,-2.696899,1.265674
0,2.055559,44,104,497,498,-0.006688804,-0.005338579,-0.007817017,-1.476419,-2.575297,-1.541768,-0.04053054,0.008881882,0.01068504,-0.6364055,-2.696494,1.265882
0,2.06667,44,104,497,498,-0.007783981,-0.014925,-0.005746786,-1.476361,-2.575078,-1.541506,-0.04051254,0.008876819,0.01280821,-0.6362936,-2.696593,1.266212
0,2.077781,44,104,497,498,-0.00887243,-0.02665382,-0.003694525,-1.476336,-2.5745,-1.541458,-0.04370841,0.00888253,0.01281713,-0.6362015,-2.696339,1.266595
0,2.088892,44,104,497,498,-0.007787345,-0.03307396,0.0005121659,-1.47643,-2.574073,-1.541563,-0.04373071,0.01207409,0.009619864,-0.6361669,-2.695719,1.266869
0,2.100003,44,104,497,498,-0.009944779,-0.04052323,0.0004767668,-1.476419,-2.573424,-1.541449,-0.04585114,0.01313143,0.003221593,-0.6365322,-2.695374,1.266769
0,2.111114,44,104,497,498,-0.01102361,-0.04908342,0.002573324,-1.476728,-2.572269,-1.541364,-0.04584328,0.01420395,0.005348539,-0.6364694,-2.695016,1.266981
0,2.122225,44,104,497,498,-0.01531748,-0.05865216,0.002534762,-1.476603,-2.57141,-1.541204,-0.04687748,0.01955268,0.008513423,-0.6366755,-2.694296,1.266764
0,2.133336,44,104,497,498,-0.0121552,-0.07038898,0.003490517,-1.476643,-2.570296,-1.541249,-0.04899479,0.02701351,0.008494087,-0.636748,-2.693457,1.266694
0,2.144447,44,104,497,498,-0.01322576,-0.07998992,0.005564413,-1.476772,-2.569187,-1.541343,-0.05003432,0.03980633,0.005249105,-0.6372188,-2.691859,1.265804
0,2.155558,44,104,497,498,-0.01322365,-0.08426615,0.007664553,-1.476878,-2.568134,-1.541291,-0.05214886,0.05045945,0.004153762,-0.63745,-2.690535,1.265383
0,2.166669,44,104,497,498,-0.01322331,-0.08747201,0.008698392,-1.476831,-2.567053,-1.541284,-0.05002428,0.05045317,0.004163822,-0.6373174,-2.689569,1.265205
0,2.17778,44,104,497,498,-0.01323696,-0.09173166,0.008661132,-1.476796,-2.565932,-1.541264,-0.04579435,0.04086523,0.00100432,-0.6372966,-2.688756,1.265031
0,2.188891,44,104,497,498,-0.01217206,-0.09387176,0.008651676,-1.477055,-2.564739,-1.541364,-0.04366566,0.03553045,0.003148688,-0.6371911,-2.68859,1.265302
0,2.200002,44,104,497,498,-0.0132021,-0.09175954,0.01186476,-1.477159,-2.563774,-1.541298,-0.04047499,0.02595147,0.007433326,-0.6369882,-2.68849,1.265581
0,2.211113,44,104,497,498,-0.01527533,-0.08216977,0.01302565,-1.477455,-2.563154,-1.541326,-0.03512503,0.02596482,0.0127501,-0.6367522,-2.687672,1.265041
0,2.222224,44,104,497,498,-0.01950287,-0.07790314,0.01522709,-1.477713,-2.562445,-1.541083,-0.03191832,0.02703508,0.01593346,-0.6366052,-2.687034,1.264802
0,2.233335,44,104,497,498,-0.01844192,-0.06935449,0.01101771,-1.4777,-2.561902,-1.540967,-0.0308416,0.03342491,0.01590898,-0.6366196,-2.686042,1.264325
0,2.244446,44,104,497,498,-0.023747,-0.06080451,0.008980431,-1.477588,-2.561334,-1.540736,-0.03512467,0.03662587,0.01164606,-0.6368726,-2.685024,1.264247
0,2.255557,44,104,497,498,-0.02482808,-0.05544405,0.004766072,-1.477519,-2.560846,-1.540471,-0.03408682,0.03127605,0.005269252,-0.6370356,-2.684712,1.264342
0,2.266668,44,104,497,498,-0.0237509,-0.05011548,0.003717966,-1.477368,-2.560411,-1.540317,-0.03194571,0.0312713,0.004189117,-0.637255,-2.684161,1.263985
0,2.277779,44,104,497,498,-0.02158914,-0.04587985,0.004798191,-1.477476,-2.55986,-1.540274,-0.03090093,0.02912183,0.002067279,-0.6372529,-2.683941,1.264301
0,2.28889,44,104,497,498,-0.02046744,-0.04486424,0.01119076,-1.477786,-2.559371,-1.540115,-0.03091026,0.02060667,0.004226577,-0.6371501,-2.683882,1.264593
0,2.300001,44,104,497,498,-0.009802772,-0.04916937,0.01319466,-1.477813,-2.558831,-1.540463,-0.02557976,0.01742599,0.006349637,-0.6371953,-2.683177,1.264105
0,2.311112,44,104,497,498,-0.001267078,-0.05028007,0.01524721,-1.478026,-2.558219,-1.540722,-0.02663439,0.02169265,0.00740359,-0.637197,-2.682567,1.263955
0,2.322223,44,104,497,498,0.009424431,-0.05140638,0.017287,-1.478302,-2.557522,-1.541504,-0.02663912,0.02595283,0.007396024,-0.6371538,-2.68185,1.263857
0,2.333334,44,104,497,498,0.01477373,-0.04503371,0.01728841,-1.478488,-2.557173,-1.541834,-0.02665317,0.02806197,0.0009971517,-0.6373994,-2.681329,1.263735
0,2.344445,44,104,497,498,0.01902361,-0.04397316,0.01513385,-1.478647,-2.556627,-1.54221,-0.02240298,0.0280394,-0.001138363,-0.6374164,-2.681017,1.263712
0,2.355556,44,104,497,498,0.0212171,-0.03869238,0.02048025,-1.479025,-2.556328,-1.542537,-0.02348126,0.02908869,-0.006465414,-0.6377323,-2.680567,1.263657
0,2.366668,44,104,497,498,0.02229691,-0.03228553,0.02052597,-1.479402,-2.556402,-1.542687,-0.02454361,0.03334298,-0.009688335,-0.6382899,-2.679961,1.263416
0,2.377779,44,104,497,498,0.02447311,-0.02484256,0.02376623,-1.479867,-2.556524,-1.54289,-0.02454451,0.03865159,-0.01183792,-0.6385887,-2.679405,1.263315
0,2.38889,44,104,497,498,0.0266147,-0.01203664,0.01957843,-1.479981,-2.556731,-1.543234,-0.01920064,0.04504089,-0.00974374,-0.6388428,-2.678361,1.262547
0,2.400001,44,104,497,498,0.03195764,-0.002459599,0.01852536,-1.479984,-2.5569,-1.54356,-0.02024651,0.04826281,-0.003356031,-0.6388753,-2.677235,1.261981
0,2.411112,44,104,497,498,0.02877726,0.001812769,0.01858198,-1.480199,-2.557027,-1.543783,-0.01916227,0.04722052,0.004101574,-0.6388082,-2.676314,1.261405
0,2.422223,44,104,497,498,0.02556711,0.01037634,0.01547603,-1.48032,-2.557439,-1.543658,-0.0117354,0.03443038,0.006262228,-0.6385866,-2.676086,1.261363
0,2.433334,44,104,497,498,0.02450634,0.01892505,0.01234957,-1.480366,-2.557874,-1.543857,-0.004314096,0.01949213,0.003095748,-0.6385711,-2.6764,1.261462
0,2.444445,44,104,497,498,0.01812766,0.0296238,0.009291946,-1.480587,-2.558464,-1.543864,0.00097145,0.005614215,-0.003260758,-0.6386532,-2.676924,1.261682
0,2.455556,44,104,497,498,0.01710088,0.0402802,0.00937636,-1.480708,-2.559202,-1.543959,0.01052374,-0.0008233935,-0.01178838,-0.6389408,-2.677461,1.261749
0,2.466667,44,104,497,498,0.01393354,0.05521069,0.009499835,-1.480694,-2.560239,-1.54358,0.01796067,-0.008295942,-0.01605175,-0.6392449,-2.677761,1.261544
0,2.477778,44,104,497,498,0.01391606,0.05522585,0.007369481,-1.480734,-2.560854,-1.543681,0.01903529,-0.01466475,-0.008576364,-0.6390372,-2.678242,1.261701
0,2.488889,44,104,497,498,0.01499342,0.06375411,0.006357787,-1.48083,-2.5618,-1.543638,0.01905422,-0.01570518,-0.001115797,-0.6387922,-2.678467,1.261675
0,2.5,44,104,497,498,0.01497047,0.0648257,0.005285233,-1.480665,-2.562534,-1.543481,0.01373897,-0.01248298,0.009543562,-0.6383405,-2.678818,1.262289
0,2.511111,44,104,497,498,0.01711245,0.06801395,0.005290096,-1.480764,-2.563372,-1.543652,0.01482088,-0.008213134,0.01272226,-0.6381312,-2.67869,1.261995
0,2.522222,44,104,497,498,0.02242682,0.06371709,0.008412728,-1.480971,-2.564038,-1.54363,0.01269985,0.0003014775,0.01270151,-0.6379954,-2.678546,1.261873
0,2.533333,44,104,497,498,0.01923321,0.05945222,0.01053937,-1.481155,-2.564589,-1.543714,0.01269285,0.001356025,0.009502063,-0.6379842,-2.678477,1.261686
0,2.544444,44,104,497,498,0.02245766,0.05837737,0.01157659,-1.481389,-2.565337,-1.544325,0.01263545,-0.001884516,-0.002203747,-0.6382276,-2.678975,1.262229
0,2.555555,44,104,497,498,0.02348583,0.05306159,0.009394488,-1.48137,-2.565779,-1.544579,0.01156104,0.001295341,-0.007537993,-0.6384737,-2.678913,1.262078
0,2.566666,44,104,497,498,0.0235239,0.05622246,0.0136812,-1.481718,-2.566414,-1.544672,0.008404065,0.008768024,-0.005429805,-0.6386591,-2.678423,1.261386
0,2.577777,44,104,497,498,0.02136352,0.05410933,0.01368072,-1.481844,-2.56709,-1.544483,0.005217952,0.01091151,-0.003297501,-0.6386867,-2.678136,1.261186
0,2.588888,44,104,497,498,0.02026151,0.04880195,0.01152132,-1.481935,-2.567498,-1.544641,0.005215189,-0.0007815207,0.002065815,-0.6384806,-2.678452,1.261333
0,2.599999,44,104,497,498,0.01708809,0.04986167,0.01368763,-1.482198,-2.568061,-1.544712,0.003087545,-0.003977102,0.001010903,-0.638568,-2.678708,1.261374
0,2.61111,44,104,497,498,0.01385428,0.04456079,0.01154663,-1.482287,-2.5684,-1.544726,0.0009669242,-0.005024321,0.005281537,-0.6383848,-2.678737,1.261438
0,2.622221,44,104,497,498,0.01162548,0.03396454,0.006161994,-1.482226,-2.56868,-1.54456,0.0009273244,-0.00930828,0.001031215,-0.6384385,-2.679343,1.262202
0,2.633332,44,104,497,498,0.009469748,0.03185677,0.004033968,-1.482227,-2.568985,-1.544585,0.003057725,-0.00612338,-0.001115965,-0.6385168,-2.679325,1.262101
0,2.644443,44,104,497,498,0.005189325,0.02869346,0.002984875,-1.482302,-2.569376,-1.544524,0.004090944,-0.01467688,-0.007487711,-0.6386697,-2.68031,1.262798
0,2.655554,44,104,497,498,0.001949119,0.02126316,0.000827878,-1.482256,-2.569413,-1.544463,0.008336695,-0.02320694,-0.007471275,-0.6386101,-2.681157,1.263285
0,2.666665,44,104,497,498,-0.001270308,0.01489265,-0.0002500096,-1.482317,-2.56944,-1.544493,0.006190221,-0.02851802,-0.004241968,-0.6382985,-2.681718,1.263952
0,2.677776,44,104,497,498,-0.00345504,0.007473651,-0.003474924,-1.482277,-2.569459,-1.544387,0.005132923,-0.02849298,2.858695E-05,-0.6380385,-2.681867,1.26409
0,2.688887,44,104,497,498,-0.006683708,0.003239139,-0.005609255,-1.482138,-2.569391,-1.544222,0.006222117,-0.0231737,3.705965E-06,-0.6380374,-2.682198,1.264028
0,2.699998,44,104,497,498,-0.008853193,-0.0009927074,-0.008812916,-1.482031,-2.569265,-1.544127,0.005159867,-0.02741822,0.004287065,-0.637703,-2.682741,1.264452
0,2.711109,44,104,497,498,-0.009957993,-0.009503456,-0.009929807,-1.481877,-2.568924,-1.544014,0.00516463,-0.02316057,0.003207697,-0.6376454,-2.682972,1.26458
0,2.72222,44,104,497,498,-0.01103242,-0.0116379,-0.008868213,-1.481828,-2.568766,-1.543751,0.006235804,-0.02422671,0.00213981,-0.63763,-2.683356,1.264631
0,2.733331,44,104,497,498,-0.01002175,-0.01693805,-0.01317596,-1.481551,-2.568446,-1.543682,0.002013019,-0.01779556,0.01171815,-0.6372401,-2.683205,1.264599
0,2.744442,44,104,497,498,-0.008984551,-0.02439926,-0.01431415,-1.481203,-2.567882,-1.543771,0.00523701,-0.009261113,0.0180593,-0.6370808,-2.682994,1.264359
0,2.755553,44,104,497,498,-0.01214263,-0.02333658,-0.01426071,-1.481317,-2.567474,-1.544068,0.005240116,-0.01244648,0.02126569,-0.6367144,-2.683185,1.264453
0,2.766664,44,104,497,498,-0.01110258,-0.02545575,-0.01641504,-1.481074,-2.567124,-1.544,0.00737004,-0.01351894,0.02125756,-0.6365019,-2.68357,1.264604
0,2.777775,44,104,497,498,-0.008995528,-0.02333228,-0.01748924,-1.480751,-2.566843,-1.543658,0.01264702,-0.02525201,0.01702337,-0.63625,-2.684211,1.265097
0,2.788886,44,104,497,498,-0.008964714,-0.01481017,-0.0174288,-1.480591,-2.566924,-1.543523,0.01262345,-0.03165774,0.01278323,-0.636071,-2.685036,1.265621
0,2.799997,44,104,497,498,-0.01105019,-0.007364445,-0.01524182,-1.48029,-2.566981,-1.543351,0.01365646,-0.03382482,0.005334412,-0.6359613,-2.685911,1.266245
0,2.811108,44,104,497,498,-0.007841108,0.001161447,-0.0173382,-1.48005,-2.567245,-1.543335,0.01579376,-0.02850579,0.004245697,-0.6359133,-2.686187,1.266232
0,2.822219,44,104,497,498,-0.006712842,0.01392847,-0.01618128,-1.480061,-2.567647,-1.54336,0.01260279,-0.02422639,0.004240831,-0.6358446,-2.686099,1.266157
0,2.83333,44,104,497,498,-0.003466661,0.02348722,-0.01401397,-1.479939,-2.568122,-1.543339,0.01367598,-0.02315608,0.006364944,-0.6356449,-2.686431,1.266257
0,2.844441,44,104,497,498,0.0008506451,0.02983824,-0.01186439,-1.479995,-2.568452,-1.543654,0.01259667,-0.02208944,0.005300293,-0.6355416,-2.686684,1.26655
0,2.855552,44,104,497,498,0.001953161,0.03728553,-0.01075671,-1.47991,-2.569086,-1.543655,0.009403675,-0.01889117,0.004233459,-0.6354761,-2.686847,1.266685
0,2.866663,44,104,497,498,0.004126805,0.04258573,-0.008614668,-1.479766,-2.569669,-1.543791,0.009424504,-0.02313822,0.005325395,-0.6351394,-2.687073,1.266364
0,2.877774,44,104,497,498,0.005203243,0.05004766,-0.009632604,-1.479712,-2.570434,-1.543674,0.01262725,-0.02101006,0.006374788,-0.634986,-2.687297,1.266314
0,2.888885,44,104,497,498,0.004136972,0.05218957,-0.01067389,-1.479584,-2.571079,-1.543625,0.01368791,-0.02100286,0.008512187,-0.6346377,-2.687452,1.266413
0,2.899997,44,104,497,498,0.004181894,0.05216133,-0.006406158,-1.479753,-2.57168,-1.54376,0.01264483,-0.01886524,0.007444303,-0.6345972,-2.687448,1.265985
0,2.911108,44,104,497,498,0.002048828,0.04896572,-0.005347689,-1.479689,-2.57219,-1.543696,0.01265572,-0.01778948,0.01063668,-0.6343479,-2.687634,1.266001
0,2.922219,44,104,497,498,0.005230159,0.05217554,-0.009602288,-1.479627,-2.572795,-1.543906,0.01157906,-0.02203726,0.01278808,-0.6340103,-2.687988,1.266323
0,2.93333,44,104,497,498,0.003100096,0.04684389,-0.007495266,-1.479561,-2.57323,-1.543883,0.01370553,-0.01779397,0.008507028,-0.6340252,-2.688154,1.266234
0,2.944441,44,104,497,498,0.00416714,0.04897036,-0.007490721,-1.479473,-2.573824,-1.543809,0.01049012,-0.01990286,0.00746082,-0.6339383,-2.688113,1.266361
0,2.955552,44,104,497,498,0.0030915,0.04364045,-0.006454227,-1.479429,-2.574172,-1.543773,0.01368208,-0.02203933,0.007458891,-0.6337844,-2.688565,1.26649
0,2.966663,44,104,497,498,0.005191413,0.03616594,-0.006539505,-1.479147,-2.574254,-1.543814,0.01154648,-0.02311675,0.007464408,-0.6336038,-2.689417,1.267151
0,2.977774,44,104,497,498,0.003072512,0.0297517,-0.004427215,-1.479276,-2.574234,-1.544031,0.01047349,-0.02630608,0.005359994,-0.633353,-2.689625,1.26718
0,2.988885,44,104,497,498,-0.0001660015,0.0276629,-0.008676932,-1.479059,-2.574481,-1.543917,0.01154473,-0.02630107,0.007487602,-0.6331357,-2.689984,1.267303
0,2.999996,44,104,497,498,-0.0001643767,0.02338575,-0.006577828,-1.479032,-2.574639,-1.5439,0.007264957,-0.02523233,0.007491508,-0.6329961,-2.690532,1.26808
0,3.011107,44,104,497,498,-0.00444187,0.02127797,-0.007623072,-1.478915,-2.574815,-1.543703,0.007265881,-0.02310523,0.006419252,-0.6329146,-2.690829,1.268241
0,3.022218,44,104,497,498,-0.006639006,0.01706909,-0.01403045,-1.478541,-2.574907,-1.543595,0.005181317,-0.01884606,0.00639641,-0.6329998,-2.691229,1.267976
0,3.033329,44,104,497,498,-0.007688608,0.01599423,-0.01190155,-1.478437,-2.575094,-1.543497,0.005174336,-0.01779124,0.003197063,-0.6330078,-2.691534,1.268166
0,3.04444,44,104,497,498,-0.00770188,0.0159861,-0.01298254,-1.478044,-2.575071,-1.543344,0.005191827,-0.02098527,0.004268348,-0.6328768,-2.69209,1.268249
0,3.055551,44,104,497,498,-0.01197343,0.012806,-0.0129729,-1.477858,-2.575133,-1.543097,0.004146439,-0.02312112,0.003181832,-0.6332123,-2.692903,1.268501
0,3.066662,44,104,497,498,-0.01413107,0.009630999,-0.01404601,-1.477662,-2.575243,-1.542778,0.005200953,-0.02738773,0.002127552,-0.6331101,-2.69354,1.26893
0,3.077773,44,104,497,498,-0.01730677,0.008552126,-0.01190173,-1.477511,-2.575167,-1.542619,0.004128092,-0.02311506,0.00317914,-0.6330723,-2.693613,1.269262
0,3.088884,44,104,497,498,-0.01730957,0.005348795,-0.01085914,-1.477411,-2.575137,-1.542444,0.004126135,-0.02418036,0.003182646,-0.632946,-2.694085,1.26958
0,3.099995,44,104,497,498,-0.01622857,0.005330505,-0.008723544,-1.477561,-2.575217,-1.54227,-0.001188919,-0.02416926,0.005331687,-0.6326829,-2.694595,1.270041
0,3.111106,44,104,497,498,-0.01519345,0.004284198,-0.01193559,-1.477343,-2.575224,-1.542143,-0.002259147,-0.0252361,0.004272876,-0.6325759,-2.695046,1.27046
0,3.122217,44,104,497,498,-0.01516681,0.001075971,-0.00875785,-1.4774,-2.57529,-1.542128,-0.002229174,-0.02310403,0.00747857,-0.6320938,-2.695394,1.270506
0,3.133328,44,104,497,498,-0.0162221,0.003210353,-0.008742677,-1.477183,-2.57539,-1.541933,-0.003296422,-0.02416738,0.007485048,-0.6319314,-2.695828,1.270926
0,3.144439,44,104,497,498,-0.01729852,0.004287969,-0.00979769,-1.476956,-2.575486,-1.541635,-0.007553156,-0.01670798,0.006415822,-0.6317759,-2.695772,1.271177
0,3.15555,44,104,497,498,-0.01624744,0.003224133,-0.01088108,-1.476786,-2.575464,-1.541458,-0.009674014,-0.01137762,0.006404241,-0.6317167,-2.695714,1.271301
0,3.166661,44,104,497,498,-0.01623661,0.008555734,-0.01083033,-1.476865,-2.57577,-1.541118,-0.006506635,-0.02207718,-0.003161596,-0.6318861,-2.696996,1.272057
0,3.177772,44,104,497,498,-0.0151672,0.005356635,-0.009781515,-1.476991,-2.575857,-1.541072,-0.004393831,-0.02528279,0.001111514,-0.631468,-2.697951,1.273195
0,3.188883,44,104,497,498,-0.01623453,0.009636641,-0.01187299,-1.476812,-2.576094,-1.540841,-0.004404565,-0.02954747,6.034691E-05,-0.631355,-2.698686,1.27385
0,3.199994,44,104,497,498,-0.01623655,0.009652645,-0.01186546,-1.476783,-2.576425,-1.540597,-0.003353366,-0.03168143,0.002193546,-0.6311463,-2.699502,1.274797
0,3.211105,44,104,497,498,-0.01517901,0.007518368,-0.01188934,-1.476641,-2.576448,-1.540445,-0.007590883,-0.02845659,0.008586522,-0.6308203,-2.699749,1.275205
0,3.222216,44,104,497,498,-0.01730173,0.008596484,-0.01186343,-1.476518,-2.576641,-1.54023,-0.008644769,-0.02633056,0.008563245,-0.6309002,-2.700305,1.275661
0,3.233327,44,104,497,498,-0.01732094,0.005408546,-0.0129574,-1.476266,-2.576631,-1.540058,-0.008643733,-0.02739234,0.009632061,-0.6306653,-2.70077,1.276133
0,3.244438,44,104,497,498,-0.01520348,0.004333165,-0.01404491,-1.476118,-2.576502,-1.539959,-0.005461976,-0.03485592,0.005376224,-0.6307468,-2.701563,1.276573
0,3.255549,44,104,497,498,-0.0141242,0.005388062,-0.01298601,-1.475921,-2.576597,-1.539842,-0.008666766,-0.03486061,0.002189264,-0.6307026,-2.702222,1.277297
0,3.26666,44,104,497,498,-0.01518104,0.008595514,-0.01401364,-1.475845,-2.576737,-1.53971,-0.01827285,-0.0242086,-0.001003645,-0.6306131,-2.702297,1.278247
0,3.277771,44,104,497,498,-0.01518053,0.005395969,-0.01296934,-1.475756,-2.576778,-1.539588,-0.01717917,-0.01142324,0.005355198,-0.6301923,-2.702166,1.278462
0,3.288882,44,104,497,498,-0.01729353,0.005388374,-0.01082131,-1.475693,-2.57684,-1.539356,-0.02247003,-0.008182466,0.01601237,-0.6297412,-2.701927,1.278657
0,3.299993,44,104,497,498,-0.01728345,0.005380958,-0.01082909,-1.47546,-2.576801,-1.539319,-0.02458208,-0.006037407,0.02026454,-0.6295292,-2.701966,1.278978
0,3.311104,44,104,497,498,-0.01515785,0.006446185,-0.01190435,-1.475293,-2.576926,-1.539218,-0.02564348,-0.003904872,0.02026049,-0.6293162,-2.701817,1.279182
0,3.322215,44,104,497,498,-0.01513247,0.00855525,-0.01083557,-1.475051,-2.576891,-1.539179,-0.02777166,-0.00816635,0.0170807,-0.6292543,-2.702011,1.279408
0,3.333326,44,104,497,498,-0.01726246,0.00536195,-0.009780404,-1.474891,-2.576906,-1.538989,-0.0235468,-0.01990985,0.01178093,-0.6291271,-2.702889,1.280256
0,3.344437,44,104,497,498,-0.01511026,0.009610711,-0.008701896,-1.474845,-2.57719,-1.538813,-0.0214567,-0.02953199,0.005411694,-0.6290706,-2.704139,1.281537
0,3.355548,44,104,497,498,-0.01618258,0.009624943,-0.009758489,-1.474711,-2.577338,-1.538623,-0.01934284,-0.03380761,0.002223971,-0.6289907,-2.704956,1.282355
0,3.366659,44,104,497,498,-0.01512601,0.007494982,-0.009776223,-1.474702,-2.577414,-1.538455,-0.02358788,-0.02952828,0.0054212,-0.6287356,-2.705133,1.282898
0,3.37777,44,104,497,498,-0.01832417,0.004304046,-0.008706737,-1.474647,-2.577384,-1.538164,-0.02570858,-0.02206821,0.006469955,-0.6285795,-2.705204,1.283409
0,3.388881,44,104,497,498,-0.02153461,0.004334587,-0.01080755,-1.474511,-2.577496,-1.537879,-0.02783733,-0.01781019,0.004331188,-0.6285588,-2.705351,1.283902
0,3.399992,44,104,497,498,-0.02156015,7.4258E-05,-0.01083099,-1.474495,-2.577401,-1.537523,-0.02784077,-0.02206718,0.005397519,-0.6285422,-2.705976,1.284685
0,3.411103,44,104,497,498,-0.0194384,7.422861E-05,-0.0119138,-1.474345,-2.577407,-1.537369,-0.03102875,-0.02098902,0.007533488,-0.6283351,-2.706223,1.285287
0,3.422215,44,104,497,498,-0.01836358,-0.001019645,-0.009791901,-1.474394,-2.577234,-1.537164,-0.03104201,-0.01992992,0.008600383,-0.6280661,-2.706703,1.286288
0,3.433326,44,104,497,498,-0.01944533,-0.003138776,-0.01086347,-1.474215,-2.577137,-1.536916,-0.0299837,-0.01887712,0.005398033,-0.6280453,-2.707014,1.28683
0,3.444437,44,104,497,498,-0.0216185,-0.007363437,-0.01407833,-1.473881,-2.577051,-1.536614,-0.02783955,-0.01675189,0.002195383,-0.6280202,-2.706974,1.286763
0,3.455548,44,104,497,498,-0.02057148,-0.00841564,-0.01623115,-1.473569,-2.576946,-1.53647,-0.03315043,-0.008219793,0.002182147,-0.6280421,-2.706729,1.287079
0,3.466659,44,104,497,498,-0.02061429,-0.0158714,-0.0152244,-1.473334,-2.576686,-1.535926,-0.02993836,-0.002904151,0.002137166,-0.6282615,-2.706816,1.28729
0,3.47777,44,104,497,498,-0.02172637,-0.02758501,-0.01528513,-1.473341,-2.576099,-1.535648,-0.02992897,-0.005013086,0.008554602,-0.6277118,-2.706738,1.287615
0,3.488881,44,104,497,498,-0.02178153,-0.04036055,-0.0164411,-1.47307,-2.575325,-1.535475,-0.02993274,-0.01033252,0.01070274,-0.6274652,-2.707054,1.288218
0,3.499992,44,104,497,498,-0.02182024,-0.04460418,-0.01859536,-1.472879,-2.574796,-1.535199,-0.03100305,-0.01671267,0.01285698,-0.6272037,-2.707438,1.288887
0,3.511103,44,104,497,498,-0.02716481,-0.0520496,-0.0175391,-1.472686,-2.574027,-1.534824,-0.02779824,-0.01670806,0.01604392,-0.6268921,-2.707598,1.289255
0,3.522214,44,104,497,498,-0.02611116,-0.04989776,-0.01966783,-1.472346,-2.573709,-1.534599,-0.02994884,-0.01991876,0.01073684,-0.6267819,-2.708072,1.29002
0,3.533325,44,104,497,498,-0.02396791,-0.04884737,-0.01861236,-1.472159,-2.5732,-1.534433,-0.02782228,-0.01886437,0.008596818,-0.6267015,-2.708339,1.290475
0,3.544436,44,104,497,498,-0.02717358,-0.04884632,-0.01858064,-1.472013,-2.572504,-1.53397,-0.02994033,-0.01461584,0.003258835,-0.6268394,-2.708448,1.290663
0,3.555547,44,104,497,498,-0.0229264,-0.04778101,-0.02073965,-1.471683,-2.572019,-1.533897,-0.03206518,-0.008227136,0.001113304,-0.6269134,-2.708318,1.290992
0,3.566658,44,104,497,498,-0.02187933,-0.05418972,-0.01972871,-1.471451,-2.571177,-1.533715,-0.03734631,0.007761821,0.003206312,-0.6269161,-2.707645,1.290866
0,3.577769,44,104,497,498,-0.0218768,-0.05312527,-0.01972266,-1.471198,-2.570616,-1.533502,-0.03943339,0.01099621,0.01065781,-0.6267222,-2.706976,1.290548
0,3.58888,44,104,497,498,-0.02084458,-0.05951502,-0.02085193,-1.470749,-2.56975,-1.533379,-0.04154708,0.01208279,0.01598672,-0.6264666,-2.706561,1.290743
0,3.599991,44,104,497,498,-0.01873262,-0.06484381,-0.02090608,-1.470508,-2.568973,-1.533312,-0.04154454,0.01207959,0.01599788,-0.6261603,-2.706297,1.290939
0,3.611102,44,104,497,498,-0.02094168,-0.07438569,-0.02628255,-1.470028,-2.567896,-1.533129,-0.04048198,0.005696312,0.01921162,-0.625845,-2.706345,1.291412
0,3.622213,44,104,497,498,-0.03060469,-0.08711987,-0.02843356,-1.469477,-2.566617,-1.532504,-0.04261021,0.003580447,0.02348592,-0.625487,-2.706276,1.291985
0,3.633324,44,104,497,498,-0.03386832,-0.09880266,-0.03168695,-1.46897,-2.565236,-1.5322,-0.04258668,0.01317499,0.0255852,-0.6252537,-2.705425,1.291768
0,3.644435,44,104,497,498,-0.0381219,-0.106278,-0.02745153,-1.468607,-2.563825,-1.531826,-0.04367393,0.01530447,0.02344614,-0.6252101,-2.704837,1.292103
0,3.655546,44,104,497,498,-0.03595476,-0.1084543,-0.02215967,-1.468442,-2.56258,-1.531613,-0.04581037,0.01211251,0.02346251,-0.6249731,-2.70463,1.292497
0,3.666657,44,104,497,498,-0.03483419,-0.1159855,-0.01157201,-1.468478,-2.561204,-1.531312,-0.04154759,0.007875066,0.02879275,-0.6245214,-2.704154,1.292559
0,3.677768,44,104,497,498,-0.03697473,-0.1191554,-0.01157322,-1.468338,-2.56007,-1.530982,-0.03942273,0.01105314,0.02451434,-0.624442,-2.703704,1.292572
0,3.688879,44,104,497,498,-0.03377992,-0.1266464,-0.008457173,-1.468258,-2.558457,-1.530863,-0.03731636,0.02058836,0.009563161,-0.6248261,-2.703012,1.292367
0,3.69999,44,104,497,498,-0.03059163,-0.1352002,-0.005339307,-1.468328,-2.556736,-1.53073,-0.04159579,0.02589759,0.003167473,-0.6250173,-2.702499,1.29271
0,3.711101,44,104,497,498,-0.02742566,-0.1458719,-0.004375805,-1.46823,-2.554816,-1.530684,-0.04374717,0.0226883,-0.002142578,-0.6252543,-2.702323,1.293103
0,3.722212,44,104,497,498,-0.02429097,-0.1565145,-0.006600464,-1.46813,-2.552908,-1.53063,-0.04480564,0.01312979,0.001070072,-0.6253917,-2.702196,1.293286
0,3.733323,44,104,497,498,-0.02115643,-0.1639524,-0.01094222,-1.467793,-2.550911,-1.530679,-0.04479137,0.001453102,0.01389163,-0.6248457,-2.702466,1.293995
0,3.744434,44,104,497,498,-0.02011373,-0.165013,-0.01201809,-1.467658,-2.549092,-1.530536,-0.04370273,0.001482297,0.02240542,-0.624507,-2.702144,1.294201
0,3.755545,44,104,497,498,-0.02226601,-0.1660561,-0.01414324,-1.467301,-2.547218,-1.530414,-0.04688963,0.001498565,0.02561021,-0.6241443,-2.701915,1.294629
0,3.766656,44,104,497,498,-0.01909567,-0.1543055,-0.02154374,-1.466766,-2.545728,-1.530361,-0.04581859,0.006825194,0.02773613,-0.6236489,-2.701358,1.294799
0,3.777767,44,104,497,498,-0.01909126,-0.1446887,-0.02572925,-1.46646,-2.544338,-1.530371,-0.05222932,0.01639032,0.0149425,-0.6239488,-2.700571,1.294908
0,3.788878,44,104,497,498,-0.02337392,-0.1361059,-0.03202504,-1.465873,-2.543082,-1.530124,-0.05332479,0.02911332,-0.004271398,-0.6246498,-2.699753,1.29485
0,3.799989,44,104,497,498,-0.03199511,-0.140258,-0.04262219,-1.465294,-2.541449,-1.529794,-0.0533437,0.03653104,-0.01174887,-0.6249294,-2.699293,1.295272
0,3.8111,44,104,497,498,-0.03414487,-0.1455768,-0.04264213,-1.464757,-2.539706,-1.529541,-0.05335275,0.03970953,-0.01708576,-0.6253827,-2.69859,1.2953
0,3.822211,44,104,497,498,-0.03740112,-0.1551332,-0.04587702,-1.46413,-2.537677,-1.529268,-0.05552004,0.03435579,-0.02131121,-0.625486,-2.698686,1.296267
0,3.833322,44,104,497,498,-0.03740595,-0.1636783,-0.04274561,-1.4636,-2.535661,-1.529065,-0.05123284,0.02906336,-0.008522208,-0.6252943,-2.698282,1.296385
0,3.844433,44,104,497,498,-0.03527161,-0.16687,-0.04278398,-1.463087,-2.533925,-1.529127,-0.05119886,0.01631247,-0.001034023,-0.6252463,-2.698341,1.296439
0,3.855544,44,104,497,498,-0.03631763,-0.1690179,-0.03959572,-1.462626,-2.532028,-1.528908,-0.04800921,-0.004961006,0.0107448,-0.6246178,-2.699262,1.297632
0,3.866655,44,104,497,498,-0.03416032,-0.1573204,-0.0405881,-1.462163,-2.530326,-1.528654,-0.04377203,-0.01243328,0.007559419,-0.6246316,-2.69977,1.298435
0,3.877766,44,104,497,498,-0.03733841,-0.1487859,-0.04157238,-1.461532,-2.528822,-1.528239,-0.03956044,-0.0103766,-0.00523353,-0.6247802,-2.700504,1.299648
0,3.888877,44,104,497,498,-0.03832046,-0.1306877,-0.03930504,-1.461118,-2.527873,-1.527903,-0.04063883,-0.006137881,-0.01270153,-0.6251329,-2.700558,1.300158
0,3.899988,44,104,497,498,-0.0372387,-0.1200445,-0.04136357,-1.460604,-2.526479,-1.527613,-0.03744539,-0.004034113,-0.02337272,-0.6257156,-2.70048,1.300072
0,3.911099,44,104,497,498,-0.04043051,-0.1093504,-0.04552205,-1.459957,-2.525603,-1.527176,-0.04172175,0.002334252,-0.03296923,-0.6263568,-2.700441,1.300619
0,3.92221,44,104,497,498,-0.04364279,-0.1050429,-0.04866033,-1.459322,-2.524724,-1.52662,-0.0470335,0.01191799,-0.03831678,-0.6270764,-2.699989,1.300745
0,3.933321,44,104,497,498,-0.04690714,-0.1071074,-0.05610674,-1.458474,-2.52352,-1.526156,-0.04808109,0.03105774,-0.04156065,-0.627534,-2.69948,1.300988
0,3.944432,44,104,497,498,-0.04690739,-0.1113703,-0.0550473,-1.458171,-2.522254,-1.525871,-0.04913259,0.03532778,-0.03944092,-0.6280367,-2.698815,1.301022
0,3.955544,44,104,497,498,-0.05012348,-0.1166861,-0.05506023,-1.45747,-2.520827,-1.52538,-0.04698196,0.03747519,-0.03412389,-0.6283351,-2.698083,1.300889
0,3.966655,44,104,497,498,-0.05226152,-0.120958,-0.05506097,-1.45694,-2.519127,-1.525036,-0.04590734,0.02791668,-0.02450818,-0.6283558,-2.697984,1.30131
0,3.977766,44,104,497,498,-0.05013813,-0.1230949,-0.05509469,-1.456252,-2.51772,-1.52471,-0.04483209,0.01198276,-0.01169708,-0.628432,-2.698384,1.302062
0,3.988877,44,104,497,498,-0.05225527,-0.1252618,-0.0508162,-1.455911,-2.516075,-1.52406,-0.04698407,-0.00292046,-0.009512129,-0.6283915,-2.699081,1.303203
0,3.999988,44,104,497,498,-0.05219007,-0.1231758,-0.04548158,-1.4554,-2.514678,-1.523843,-0.04701642,-0.008249737,-0.009476766,-0.6281869,-2.699406,1.304324
0,4.011099,44,104,497,498,-0.04894368,-0.1189565,-0.04121678,-1.454992,-2.513473,-1.523522,-0.04807468,-0.009302724,-0.006274475,-0.6281486,-2.699632,1.305087
0.3333333,4.02221,44,104,497,498,-0.04894689,-0.1232307,-0.04020112,-1.454228,-2.511936,-1.523217,-0.05334675,0.001435935,0.01288138,-0.6276757,-2.698484,1.305178
0.6666667,4.033321,44,104,497,498,-0.04779623,-0.122236,-0.03062126,-1.45401,-2.51063,-1.522914,-0.05752364,0.007900998,0.03204577,-0.6270066,-2.697672,1.304969
1,4.044433,44,104,497,498,-0.04560281,-0.1137531,-0.02843938,-1.453808,-2.509371,-1.522805,-0.06390744,0.00898499,0.03419082,-0.626613,-2.697235,1.305491
1.333333,4.055544,44,104,497,498,-0.04665224,-0.1137657,-0.02630014,-1.453441,-2.508188,-1.522364,-0.0670994,-0.0005875975,0.03741391,-0.6262535,-2.697609,1.306425
1.666667,4.066655,44,104,497,498,-0.03374467,-0.1117919,-0.01360248,-1.453658,-2.506663,-1.52268,-0.06712034,-0.0006116927,0.0299569,-0.6261012,-2.697567,1.307139
2,4.077766,44,104,497,498,-0.03156475,-0.1000907,-0.01247212,-1.453516,-2.505858,-1.522468,-0.06818786,0.01001378,0.02139891,-0.6262306,-2.696987,1.307419
2.333333,4.088878,44,104,497,498,-0.03146391,-0.09164926,-0.004950497,-1.453655,-2.504681,-1.522358,-0.07351577,0.02384137,0.01178136,-0.6265241,-2.696009,1.307579
2.666667,4.099989,44,104,497,498,-0.03253681,-0.09483932,-0.004961872,-1.453557,-2.50352,-1.522138,-0.07774976,0.02705284,0.01391483,-0.6263536,-2.695294,1.307746
3,4.1111,44,104,497,498,-0.03904676,-0.1128806,-0.011429,-1.453149,-2.501772,-1.521724,-0.07879101,0.02389343,0.02458104,-0.625861,-2.694779,1.308243
3.333333,4.122211,44,104,497,498,-0.04344291,-0.1437409,-0.01481255,-1.45272,-2.499256,-1.521463,-0.07450578,0.02284916,0.03949471,-0.6249092,-2.694469,1.308911
3.666666,4.133323,44,104,497,498,-0.04458981,-0.1671801,-0.01497165,-1.452416,-2.49673,-1.521299,-0.07235207,0.009074293,0.05764478,-0.6238748,-2.693914,1.309253
4,4.144434,44,104,497,498,-0.04253979,-0.1991759,-0.0109541,-1.452207,-2.493736,-1.521206,-0.06487045,-0.0100457,0.07899185,-0.6223653,-2.694225,1.310024
4.333333,4.155545,44,104,497,498,-0.03398957,-0.2184637,0.0005553071,-1.452352,-2.490819,-1.521407,-0.0648692,-0.01748545,0.08434246,-0.621209,-2.694416,1.3109
4.666667,4.166656,44,104,497,498,-0.0264966,-0.2324136,0.01103091,-1.452422,-2.487869,-1.521645,-0.06169558,-0.03664064,0.09078161,-0.6199157,-2.69536,1.312344
5,4.177768,44,104,497,498,-0.02431262,-0.2377987,0.01949304,-1.452632,-2.485249,-1.521742,-0.05748487,-0.03351234,0.07477696,-0.6194928,-2.695823,1.31342
5.333333,4.188879,44,104,497,498,-0.02111366,-0.2346066,0.01842503,-1.452683,-2.482738,-1.521889,-0.05969712,-0.0261623,0.04066939,-0.6198747,-2.696187,1.314408
5.666667,4.19999,44,104,497,498,-0.01675965,-0.2218444,0.0227577,-1.453179,-2.480959,-1.522197,-0.05757983,-0.01876356,0.02145097,-0.6202998,-2.696182,1.314602
6,4.211102,44,104,497,498,-0.01775151,-0.2016006,0.02291048,-1.453361,-2.479256,-1.522165,-0.06194371,-0.008244496,-0.02224852,-0.6217309,-2.696508,1.315696
6.333334,4.222213,44,104,497,498,-0.03172135,-0.1875985,0.006066875,-1.452696,-2.477302,-1.521247,-0.0684593,-0.01686874,-0.06375107,-0.6234194,-2.697441,1.317275
6.666667,4.233324,44,104,497,498,-0.05541966,-0.1969054,-0.02150358,-1.451561,-2.474885,-1.520268,-0.06106269,-0.02545673,-0.07972349,-0.6245757,-2.698885,1.318921
7.000001,4.244435,44,104,497,498,-0.1201748,-0.2429886,-0.1011995,-1.448083,-2.47094,-1.517535,-0.0427507,0.002362151,-0.02765878,-0.6234151,-2.697409,1.317589
7.333334,4.255547,44,104,497,498,-0.1471914,-0.266092,-0.1363003,-1.445455,-2.467357,-1.515515,-0.0006507486,0.1028308,0.1018685,-0.6197714,-2.689157,1.309676
7.666668,4.266658,44,104,497,498,-0.1783715,-0.2817785,-0.16704,-1.44281,-2.463373,-1.513638,0.01685286,0.1936869,0.2059254,-0.6159971,-2.678919,1.300644
8.000001,4.277769,44,104,497,498,-0.2018989,-0.267714,-0.1880629,-1.440046,-2.460773,-1.511625,-0.01612058,0.1587335,0.2498225,-0.6125228,-2.676167,1.299601
8.333334,4.28888,44,104,497,498,-0.2307359,-0.2226678,-0.2162688,-1.436837,-2.459593,-1.508468,-0.02271034,0.07028472,0.2373442,-0.6098586,-2.677807,1.301384
8.666667,4.299992,44,104,497,498,-0.2477237,-0.1723934,-0.234962,-1.433782,-2.458979,-1.505997,0.01415998,-0.06844661,0.1855028,-0.6079858,-2.685604,1.30673
9,4.311103,44,104,497,498,-0.2733116,-0.08360449,-0.2756575,-1.429728,-2.46079,-1.501975,0.04995095,-0.1306674,0.0726826,-0.6093419,-2.692066,1.310448
9.333333,4.322214,44,104,497,498,-0.318885,0.06380662,-0.3115121,-1.425776,-2.46535,-1.49688,0.05811186,-0.1587607,-0.04656669,-0.612322,-2.697015,1.313398
9.666666,4.333325,44,104,497,498,-0.4094509,0.1571077,-0.3527214,-1.421098,-2.469781,-1.489391,0.06538226,-0.1207017,-0.1351379,-0.6159039,-2.699001,1.314287
9.999999,4.344437,44,104,497,498,-0.4723519,0.2022515,-0.3774494,-1.416644,-2.473468,-1.481953,0.05058958,-0.03764336,-0.1545485,-0.6184254,-2.696821,1.311983
10.33333,4.355548,44,104,497,498,-0.5514557,0.2444417,-0.4286822,-1.411207,-2.477705,-1.473374,-0.009725109,0.1096314,-0.1079819,-0.6194539,-2.688077,1.306493
10.66667,4.366659,44,104,497,498,-0.6179489,0.2696381,-0.492942,-1.404394,-2.482192,-1.463927,-0.05624359,0.1685955,-0.01962272,-0.6183136,-2.681163,1.302758
11,4.37777,44,104,497,498,-0.6524174,0.3064189,-0.5541862,-1.397332,-2.487302,-1.455161,-0.05827098,0.1155847,0.05939041,-0.6156376,-2.680871,1.303354
11.33333,4.388882,44,104,497,498,-0.6835345,0.3569444,-0.6025766,-1.390064,-2.493587,-1.445653,-0.0497781,0.03899691,0.0990332,-0.6130996,-2.682611,1.30511
11.66666,4.399993,44,104,497,498,-0.708202,0.3850003,-0.6351924,-1.38315,-2.499919,-1.436179,-0.01790673,-0.09192479,0.1515675,-0.6091326,-2.689104,1.309607
12,4.411104,44,104,497,498,-0.75007,0.3907693,-0.6763554,-1.3752,-2.505734,-1.425566,0.02554637,-0.1709298,0.12294,-0.607417,-2.695747,1.31355
12.33333,4.422215,44,104,497,498,-0.7909958,0.3368173,-0.7073131,-1.366986,-2.50939,-1.415013,0.01564152,-0.2116477,0.04213013,-0.6085419,-2.701504,1.318655
12.66666,4.433327,44,104,497,498,-0.813696,0.2816165,-0.7235007,-1.358894,-2.512377,-1.404721,-0.001535326,-0.2383457,0.01243653,-0.6083757,-2.707501,1.32407
13,4.444438,44,104,497,498,-0.8494087,0.1604766,-0.7411328,-1.350131,-2.512884,-1.394364,-0.0165686,-0.3011697,0.01270203,-0.606708,-2.715659,1.331536
13.33333,4.455549,44,104,497,498,-0.8635287,0.1083836,-0.7466901,-1.341969,-2.514786,-1.383678,-0.03257743,-0.3649353,0.04490586,-0.6040593,-2.724368,1.339457
13.66666,4.46666,44,104,497,498,-0.8733866,0.05522229,-0.7565776,-1.333345,-2.515519,-1.373564,-0.06553745,-0.39988,0.09092015,-0.600693,-2.732731,1.347979
14,4.477772,44,104,497,498,-0.8833885,-0.04801276,-0.760431,-1.324435,-2.514385,-1.363608,-0.1058484,-0.3858061,0.1367991,-0.5973151,-2.738197,1.354397
14.33333,4.488883,44,104,497,498,-0.8815764,-0.1289576,-0.7642218,-1.315287,-2.512724,-1.354214,-0.1474431,-0.3323954,0.1673693,-0.5944218,-2.742768,1.360373
14.66666,4.499994,44,104,497,498,-0.8732662,-0.1875277,-0.763638,-1.306458,-2.511625,-1.345051,-0.1747513,-0.2747325,0.187768,-0.5914369,-2.743429,1.364004
14.99999,4.511106,44,104,497,498,-0.8575828,-0.2813661,-0.759115,-1.297107,-2.507811,-1.336906,-0.2245943,-0.1723276,0.2014232,-0.5890678,-2.740936,1.365782
15.33333,4.522217,44,104,497,498,-0.8492553,-0.3656733,-0.7438152,-1.287989,-2.503683,-1.328519,-0.2713814,-0.1072712,0.1981292,-0.5874012,-2.739767,1.369243
15.66666,4.533328,44,104,497,498,-0.8366547,-0.4424865,-0.7327639,-1.27867,-2.499104,-1.320747,-0.2936852,-0.08909798,0.2055783,-0.584999,-2.740296,1.373178
15.99999,4.544439,44,104,497,498,-0.8271017,-0.4755641,-0.7256464,-1.269506,-2.495044,-1.313266,-0.3043241,-0.09118828,0.2120068,-0.5823178,-2.741297,1.377671
16.33333,4.555551,44,104,497,498,-0.810032,-0.4991701,-0.712103,-1.26061,-2.49089,-1.305922,-0.3181032,-0.08895659,0.235475,-0.5789345,-2.74191,1.382043
16.66666,4.566662,44,104,497,498,-0.7949631,-0.4982167,-0.6962392,-1.252377,-2.48764,-1.29883,-0.3202248,-0.08894238,0.2386768,-0.5760263,-2.742724,1.386353
16.99999,4.577773,44,104,497,498,-0.7776959,-0.4717819,-0.6780928,-1.244097,-2.485161,-1.291046,-0.3223631,-0.0942409,0.2408227,-0.5733626,-2.74364,1.390712
17.33333,4.588884,44,104,497,498,-0.7582108,-0.4325827,-0.657728,-1.23653,-2.483307,-1.283769,-0.3266718,-0.1102329,0.2344943,-0.5706494,-2.745818,1.396269
17.66666,4.599996,44,104,497,498,-0.7430427,-0.4019597,-0.6437396,-1.22899,-2.48082,-1.276851,-0.3299594,-0.1230612,0.220692,-0.5682983,-2.748479,1.40264
18,4.611107,44,104,497,498,-0.7224233,-0.3553429,-0.6180067,-1.222275,-2.48004,-1.269626,-0.3225631,-0.1380267,0.2090006,-0.5659755,-2.751458,1.408557
18.33333,4.622218,44,104,497,498,-0.7017469,-0.2970061,-0.5921916,-1.21613,-2.480087,-1.262494,-0.314134,-0.1583437,0.188807,-0.5639579,-2.75492,1.414724
18.66666,4.633329,44,104,497,498,-0.686555,-0.2588319,-0.5749971,-1.209944,-2.480182,-1.25527,-0.3173596,-0.1551395,0.1813512,-0.5619062,-2.756728,1.420059
19,4.644441,44,104,497,498,-0.6561822,-0.175016,-0.5415824,-1.205225,-2.482041,-1.247942,-0.3216018,-0.1529838,0.1866826,-0.5594715,-2.759179,1.425825
19.33333,4.655552,44,104,497,498,-0.6441855,-0.1368528,-0.5243335,-1.200021,-2.48296,-1.240774,-0.3247228,-0.1518204,0.2122732,-0.5560009,-2.761141,1.431182
19.66667,4.666663,44,104,497,498,-0.6170028,-0.06262231,-0.4899373,-1.196029,-2.485829,-1.233554,-0.3256814,-0.134688,0.2388536,-0.5525281,-2.762273,1.435768
20,4.677774,44,104,497,498,-0.6018503,-0.03830192,-0.4728334,-1.191499,-2.487433,-1.226729,-0.3298847,-0.115469,0.2441252,-0.5497489,-2.762666,1.439734
20.33333,4.688886,44,104,497,498,-0.5802704,-0.01617407,-0.4494164,-1.187485,-2.489444,-1.220089,-0.3331072,-0.1091159,0.2302648,-0.5473728,-2.764126,1.444776
20.66667,4.699997,44,104,497,498,-0.5609428,-0.006801102,-0.4345857,-1.18325,-2.490807,-1.213766,-0.3352953,-0.1048993,0.2100215,-0.5454196,-2.765551,1.449895
21,4.711108,44,104,497,498,-0.538402,-0.003820585,-0.4155749,-1.17942,-2.492412,-1.207786,-0.3332767,-0.102907,0.1684624,-0.544536,-2.767495,1.455202
21.33334,4.722219,44,104,497,498,-0.5137035,-0.003004674,-0.3933979,-1.175852,-2.493771,-1.202279,-0.3333563,-0.1019265,0.1428964,-0.5433328,-2.769485,1.460719
21.66667,4.733331,44,104,497,498,-0.5018505,4.375353E-05,-0.3785594,-1.172357,-2.495345,-1.196432,-0.3301744,-0.1030116,0.1386299,-0.5417978,-2.771435,1.465952
22,4.744442,44,104,497,498,-0.4814197,0.005142596,-0.3573792,-1.169301,-2.496832,-1.191011,-0.322702,-0.1008664,0.1450031,-0.5396992,-2.772852,1.470654
22.33334,4.755553,44,104,497,498,-0.4728283,-0.0002893806,-0.3468355,-1.165961,-2.498096,-1.185526,-0.3269304,-0.09763134,0.1545921,-0.537623,-2.774388,1.475742
22.66667,4.766665,44,104,497,498,-0.4503707,-0.01430678,-0.3311292,-1.162931,-2.499069,-1.180867,-0.3267762,-0.0708825,0.1917912,-0.5344474,-2.774034,1.479059
23.00001,4.777776,44,104,497,498,-0.4386514,-0.03144554,-0.3238809,-1.159541,-2.49963,-1.176102,-0.3256693,-0.05595237,0.1992025,-0.5320064,-2.774242,1.482955
23.33334,4.788887,44,104,497,498,-0.4237786,-0.08489031,-0.3062733,-1.155925,-2.498454,-1.172295,-0.3278013,-0.04106879,0.1885071,-0.5302098,-2.773995,1.486452
23.66667,4.799998,44,104,497,498,-0.4131418,-0.1094768,-0.2990837,-1.152322,-2.498038,-1.16824,-0.3246617,-0.04431149,0.1757249,-0.5285783,-2.775144,1.491148
24.00001,4.81111,44,104,497,498,-0.3993425,-0.1404714,-0.2919614,-1.148571,-2.496902,-1.164664,-0.3140014,-0.03263092,0.1703308,-0.5268446,-2.774958,1.494189
24.33334,4.822221,44,104,497,498,-0.3961952,-0.1575467,-0.2910267,-1.144935,-2.496028,-1.160689,-0.2990775,-0.0209471,0.1670598,-0.5249969,-2.774519,1.496822
24.66668,4.833332,44,104,497,498,-0.3834504,-0.1682444,-0.2912087,-1.141108,-2.495278,-1.157081,-0.3011948,-0.002852798,0.1638243,-0.5230837,-2.77372,1.499759
25.00001,4.844443,44,104,497,498,-0.3738964,-0.1832056,-0.2881919,-1.137398,-2.494354,-1.153484,-0.2990424,-0.0007054806,0.1702032,-0.52104,-2.773327,1.50268
25.33334,4.855555,44,104,497,498,-0.3632059,-0.1832629,-0.2840233,-1.133805,-2.493816,-1.149954,-0.2862583,-0.006037146,0.1765736,-0.5189116,-2.773699,1.505944
25.66668,4.866666,44,104,497,498,-0.3450406,-0.1726895,-0.2819682,-1.13029,-2.493522,-1.146706,-0.2990601,-0.01878944,0.1787812,-0.516837,-2.774481,1.510261
26.00001,4.877777,44,104,497,498,-0.3407552,-0.1609714,-0.2840512,-1.126724,-2.49347,-1.14302,-0.2969671,-0.0368917,0.1841573,-0.5146468,-2.776191,1.515296
26.33335,4.888888,44,104,497,498,-0.3311651,-0.1503224,-0.2883164,-1.123119,-2.493603,-1.13954,-0.2820201,-0.02731061,0.1904704,-0.5124332,-2.776007,1.517912
26.66668,4.9,44,104,497,498,-0.326912,-0.146059,-0.2915066,-1.119529,-2.493513,-1.136041,-0.2820231,-0.01880726,0.1851179,-0.5105109,-2.775777,1.520934
27.00001,4.911111,44,104,497,498,-0.3268991,-0.1375219,-0.2935766,-1.115966,-2.493779,-1.132299,-0.2862982,-0.01138359,0.1808493,-0.5084726,-2.776189,1.524828
27.33335,4.922222,44,104,497,498,-0.3257199,-0.13524,-0.2957351,-1.112842,-2.495335,-1.129722,-0.2820729,-0.02418885,0.1766179,-0.5066088,-2.777214,1.528758
27.66668,4.933333,44,104,497,498,-0.332021,-0.1276574,-0.2966749,-1.11013,-2.496392,-1.126337,-0.2757134,-0.03273982,0.1766194,-0.5046546,-2.778651,1.533136
28.00002,4.944445,44,104,497,498,-0.338401,-0.1148204,-0.3007908,-1.10659,-2.497112,-1.122104,-0.2799766,-0.03379706,0.1766345,-0.5026802,-2.779299,1.536917
28.33335,4.955556,44,104,497,498,-0.3405147,-0.1041026,-0.3081323,-1.103294,-2.497612,-1.118491,-0.2789227,-0.03912103,0.1819904,-0.5002945,-2.780591,1.541416
28.66668,4.966667,44,104,497,498,-0.3448164,-0.09122679,-0.3186571,-1.099568,-2.498805,-1.114004,-0.2703564,-0.03589633,0.1958054,-0.4977661,-2.781134,1.544671
29.00002,4.977778,44,104,497,498,-0.3459427,-0.08693431,-0.3260785,-1.095489,-2.499541,-1.109645,-0.2713799,-0.02736598,0.2042977,-0.4953304,-2.781698,1.548177
29.33335,4.98889,44,104,497,498,-0.3481073,-0.08903398,-0.3292721,-1.091665,-2.500361,-1.105334,-0.2724717,-0.03058395,0.1968539,-0.4933229,-2.782504,1.55195
29.66669,5.000001,44,104,497,498,-0.3522725,-0.08781171,-0.334538,-1.088745,-2.502273,-1.102362,-0.2746862,-0.04024169,0.1809094,-0.4917218,-2.784616,1.557234
30.00002,5.011112,44,104,497,498,-0.3544844,-0.09093767,-0.3430655,-1.084644,-2.503248,-1.09792,-0.2736315,-0.03813025,0.1755732,-0.4899321,-2.785368,1.560899
30.33335,5.022223,44,104,497,498,-0.3673513,-0.08867399,-0.354626,-1.0809,-2.504105,-1.093064,-0.2747565,-0.05309036,0.1703229,-0.4877803,-2.788223,1.566797
30.66669,5.033335,44,104,497,498,-0.371608,-0.07797487,-0.3587746,-1.07699,-2.505698,-1.088049,-0.2619691,-0.05843127,0.1756204,-0.485752,-2.790133,1.571004
31.00002,5.044446,44,104,497,498,-0.3727594,-0.0683191,-0.3725542,-1.072441,-2.507237,-1.083054,-0.265137,-0.05095136,0.1809316,-0.4835922,-2.790902,1.574706
31.33335,5.055557,44,104,497,498,-0.3770508,-0.06510584,-0.3756818,-1.068347,-2.50863,-1.077995,-0.2746984,-0.03602484,0.1819508,-0.4818479,-2.791183,1.578265
31.66669,5.066669,44,104,497,498,-0.3813864,-0.06395559,-0.3852262,-1.064021,-2.510423,-1.072779,-0.2768184,-0.0317564,0.1830082,-0.4798095,-2.791711,1.581881
32.00002,5.07778,44,104,497,498,-0.3888585,-0.06177132,-0.3894236,-1.059644,-2.512201,-1.06753,-0.2683188,-0.04351366,0.1840823,-0.4778078,-2.794187,1.586908
32.33335,5.088891,44,104,497,498,-0.3995875,-0.05632159,-0.4010151,-1.055224,-2.514366,-1.06173,-0.270454,-0.04776764,0.185167,-0.4757221,-2.795674,1.591302
32.66669,5.100002,44,104,497,498,-0.4038761,-0.05417234,-0.4030858,-1.050986,-2.516254,-1.056062,-0.2736747,-0.05633157,0.1841567,-0.4734333,-2.798734,1.597271
33.00002,5.111114,44,104,497,498,-0.4113708,-0.04769992,-0.4104348,-1.046665,-2.518624,-1.050101,-0.2704946,-0.06698668,0.1852472,-0.4713801,-2.801168,1.602345
33.33335,5.122225,44,104,497,498,-0.4124201,-0.03917472,-0.4125118,-1.042321,-2.520966,-1.044319,-0.2640958,-0.07232851,0.1873704,-0.469348,-2.80358,1.60706
33.66668,5.133336,44,104,497,498,-0.4177614,-0.0348753,-0.4156355,-1.038083,-2.523412,-1.038282,-0.2566738,-0.07449174,0.1894682,-0.4673512,-2.806394,1.612743
34.00002,5.144447,44,104,497,498,-0.4284497,-0.03052901,-0.4219114,-1.033758,-2.526083,-1.031899,-0.2524437,-0.08091441,0.18202,-0.4655637,-2.808937,1.617711
34.33335,5.155559,44,104,497,498,-0.4327644,-0.02833895,-0.4293183,-1.029334,-2.528691,-1.025639,-0.2375774,-0.09161296,0.1852087,-0.4634454,-2.812973,1.624164
34.66668,5.16667,44,104,497,498,-0.4327365,-0.0134021,-0.4324064,-1.025318,-2.531915,-1.019187,-0.2290852,-0.0959155,0.176677,-0.4617916,-2.815809,1.629009
35.00001,5.177781,44,104,497,498,-0.4370241,0.00478211,-0.442899,-1.021091,-2.535493,-1.012296,-0.2216796,-0.09066868,0.1596078,-0.4604094,-2.818254,1.633718
35.33334,5.188892,44,104,497,498,-0.4456502,0.01238506,-0.4587536,-1.016623,-2.539275,-1.005129,-0.2291088,-0.06191692,0.1520799,-0.4589601,-2.818249,1.63646
35.66668,5.200004,44,104,497,498,-0.4563558,0.01458473,-0.4639609,-1.012403,-2.542661,-0.9978423,-0.2354908,-0.04806703,0.1541967,-0.4569606,-2.819378,1.640574
36.00001,5.211115,44,104,497,498,-0.4714051,0.006208166,-0.4766824,-1.007556,-2.546141,-0.990322,-0.2344386,-0.04914796,0.1499359,-0.4554309,-2.820953,1.644541
36.33334,5.222226,44,104,497,498,-0.4843912,-0.008542774,-0.4937156,-1.002457,-2.549379,-0.982839,-0.2398152,-0.06194252,0.1510672,-0.4536311,-2.82438,1.650888
36.66667,5.233337,44,104,497,498,-0.5047868,-0.02650306,-0.5043395,-0.9970294,-2.552613,-0.9748416,-0.2356197,-0.08117571,0.1436425,-0.4524743,-2.828511,1.657358
37,5.244449,44,104,497,498,-0.5166274,-0.0466617,-0.5107838,-0.9916424,-2.555442,-0.9673133,-0.2239513,-0.09082244,0.1308579,-0.4514772,-2.831587,1.662295
37.33334,5.25556,44,104,497,498,-0.5262696,-0.06689097,-0.5087267,-0.9862985,-2.558059,-0.9598107,-0.2090487,-0.08981258,0.1297706,-0.4498324,-2.83484,1.667349
37.66667,5.266671,44,104,497,498,-0.5284085,-0.07649395,-0.5055827,-0.9811506,-2.560814,-0.9523656,-0.2015632,-0.0844748,0.1371911,-0.4481866,-2.837065,1.671381
38,5.277782,44,104,497,498,-0.5251997,-0.08826415,-0.4993142,-0.9759932,-2.563488,-0.9451228,-0.2037194,-0.07918915,0.1339664,-0.4470286,-2.840063,1.676777
38.33333,5.288894,44,104,497,498,-0.5230086,-0.09580563,-0.4887334,-0.9710349,-2.565941,-0.9379365,-0.2207938,-0.08557719,0.1265743,-0.4459506,-2.842988,1.68238
38.66666,5.300005,44,104,497,498,-0.519787,-0.09476638,-0.4876826,-0.9661416,-2.568746,-0.9308318,-0.2304044,-0.09833848,0.1330079,-0.4447484,-2.84707,1.689185
39,5.311116,44,104,497,498,-0.5197526,-0.1022773,-0.4802798,-0.9612216,-2.571188,-0.9236439,-0.2325526,-0.1111237,0.135178,-0.4434493,-2.851295,1.69566
39.33333,5.322227,44,104,497,498,-0.5176157,-0.1022986,-0.4781522,-0.9564738,-2.57394,-0.9162819,-0.2389407,-0.1196164,0.1416128,-0.441943,-2.855408,1.70218
39.66666,5.333339,44,104,497,498,-0.5069259,-0.1066434,-0.4718793,-0.9516534,-2.576439,-0.9095318,-0.237874,-0.1153637,0.1447853,-0.4404874,-2.858967,1.708217
39.99999,5.34445,44,104,497,498,-0.4962052,-0.1067282,-0.4655862,-0.9468688,-2.579138,-0.9029304,-0.23781,-0.1025278,0.1617905,-0.4383723,-2.861563,1.713201
40.33332,5.355561,44,104,497,498,-0.4865806,-0.1089205,-0.461422,-0.9421737,-2.5818,-0.8962496,-0.2398857,-0.08335406,0.1681295,-0.4364186,-2.863891,1.717903
40.66666,5.366673,44,104,497,498,-0.4811965,-0.1025786,-0.4571587,-0.9376884,-2.584716,-0.8893254,-0.2367003,-0.0716733,0.1574323,-0.4349986,-2.865566,1.72199
40.99999,5.377784,44,104,497,498,-0.473688,-0.09302932,-0.4550124,-0.9334353,-2.587859,-0.8823867,-0.23677,-0.07388353,0.1435986,-0.433862,-2.8693,1.728485
41.33332,5.388895,44,104,497,498,-0.4693375,-0.08029985,-0.449629,-0.9293399,-2.591174,-0.8753043,-0.2314686,-0.07392058,0.1339972,-0.4327877,-2.87167,1.733063
41.66665,5.400006,44,104,497,498,-0.46501,-0.07608806,-0.4442918,-0.9253483,-2.594192,-0.8685346,-0.226206,-0.07721043,0.1190685,-0.4321096,-2.875563,1.739261
41.99998,5.411118,44,104,497,498,-0.45639,-0.06337272,-0.4400278,-0.9212444,-2.597775,-0.8616695,-0.2241172,-0.09108819,0.1105828,-0.4313655,-2.879297,1.745091
42.33332,5.422229,44,104,497,498,-0.4509797,-0.05279645,-0.4325137,-0.9177509,-2.601096,-0.854708,-0.2295009,-0.1007074,0.1020828,-0.4309506,-2.883311,1.751737
42.66665,5.43334,44,104,497,498,-0.440283,-0.04859739,-0.4283049,-0.9140043,-2.604619,-0.8478637,-0.2316352,-0.1092047,0.1127684,-0.4296616,-2.887733,1.758677
42.99998,5.444451,44,104,497,498,-0.4305437,-0.03807893,-0.414459,-0.9107217,-2.607914,-0.8413261,-0.2284126,-0.1155591,0.1266283,-0.4281963,-2.891978,1.76498
43.33331,5.455563,44,104,497,498,-0.433687,-0.01033946,-0.4195428,-0.907731,-2.612522,-0.8335353,-0.2209255,-0.1165952,0.1404569,-0.4266459,-2.896087,1.771023
43.66665,5.466674,44,104,497,498,-0.4335768,0.01094662,-0.4162063,-0.9047269,-2.617071,-0.8259927,-0.2209287,-0.1208532,0.1415351,-0.4253814,-2.900338,1.777339
43.99998,5.477785,44,104,497,498,-0.4270661,0.0257491,-0.4054657,-0.9022891,-2.620975,-0.8188486,-0.2166966,-0.1272121,0.1436739,-0.42411,-2.903909,1.783257
44.33331,5.488896,44,104,497,498,-0.4248563,0.03315219,-0.3990382,-0.8995668,-2.625244,-0.8115286,-0.2113866,-0.1272127,0.1425823,-0.4230565,-2.907753,1.78914
44.66664,5.500008,44,104,497,498,-0.419391,0.04903919,-0.389368,-0.8973899,-2.629583,-0.8043785,-0.2039477,-0.1283084,0.1361745,-0.42207,-2.911959,1.79504
44.99997,5.511119,44,104,497,498,-0.4096823,0.06172493,-0.3797503,-0.8954411,-2.633945,-0.7973616,-0.1943559,-0.1208732,0.1297517,-0.420846,-2.915138,1.799771
45.33331,5.52223,44,104,497,498,-0.4010266,0.07440099,-0.3690763,-0.8935624,-2.638426,-0.7903569,-0.1890697,-0.1294358,0.119111,-0.4201893,-2.919654,1.805846
45.66664,5.533341,44,104,497,498,-0.3924547,0.08392744,-0.3658695,-0.891597,-2.642993,-0.7831707,-0.1912167,-0.1305173,0.1127141,-0.4196545,-2.923738,1.811783
45.99997,5.544453,44,104,497,498,-0.3849186,0.08383194,-0.3563443,-0.8896683,-2.647182,-0.7764739,-0.1837469,-0.1368943,0.1212364,-0.4185445,-2.928654,1.818122
46.3333,5.555564,44,104,497,498,-0.3795495,0.08057933,-0.3532458,-0.8871895,-2.651514,-0.7698922,-0.1858974,-0.133722,0.1073663,-0.4182686,-2.931974,1.823043
46.66663,5.566675,44,104,497,498,-0.3742448,0.07203093,-0.352286,-0.8849066,-2.655648,-0.7632428,-0.1880351,-0.1347906,0.1052445,-0.4175831,-2.936354,1.829203
46.99997,5.577786,44,104,497,498,-0.3699589,0.06664658,-0.3459541,-0.8830062,-2.659538,-0.7566424,-0.1880299,-0.1251945,0.1052076,-0.4168129,-2.93944,1.834258
47.3333,5.588898,44,104,497,498,-0.372082,0.06130451,-0.3427791,-0.8808565,-2.663513,-0.7499211,-0.1943923,-0.1177056,0.1083907,-0.4159155,-2.942434,1.839164
47.66663,5.600009,44,104,497,498,-0.3656513,0.05801961,-0.3364775,-0.8785907,-2.667395,-0.7434779,-0.201804,-0.1027568,0.1179397,-0.4147224,-2.945216,1.844219
47.99996,5.61112,44,104,497,498,-0.3656474,0.04946627,-0.3322756,-0.8764234,-2.671093,-0.7370442,-0.1932228,-0.1090813,0.1413789,-0.4129125,-2.949752,1.850182
48.33329,5.622231,44,104,497,498,-0.3656625,0.0452002,-0.3312337,-0.8743424,-2.674963,-0.7304507,-0.1846763,-0.1090705,0.1477473,-0.4115292,-2.953752,1.855563
48.66663,5.633343,44,104,497,498,-0.3657077,0.03347687,-0.3313185,-0.8718987,-2.678585,-0.7240139,-0.1782997,-0.110175,0.13708,-0.4106488,-2.957384,1.86052
48.99996,5.644454,44,104,497,498,-0.362585,0.01857845,-0.3346372,-0.8693804,-2.682085,-0.7178684,-0.1815477,-0.1081043,0.1157761,-0.4102562,-2.960707,1.865664
49.33329,5.655565,44,104,497,498,-0.3626908,0.004779918,-0.3422116,-0.8664259,-2.685966,-0.7113239,-0.1858563,-0.111329,0.1008902,-0.409812,-2.964128,1.871038
49.66662,5.666677,44,104,497,498,-0.3670134,-0.002631335,-0.3464909,-0.8636743,-2.689734,-0.7046794,-0.1869226,-0.1038779,0.09554692,-0.4091137,-2.966796,1.875589
49.99995,5.677788,44,104,497,498,-0.372414,-0.01003833,-0.3518262,-0.8608333,-2.693482,-0.6978973,-0.1932857,-0.08999999,0.09764171,-0.4082322,-2.968613,1.879526
50.33329,5.688899,44,104,497,498,-0.3767637,-0.02275905,-0.359367,-0.8574058,-2.697462,-0.6911409,-0.19116,-0.09319912,0.09764589,-0.4075356,-2.972099,1.884803
50.66662,5.70001,44,104,497,498,-0.3790196,-0.02907964,-0.3678879,-0.8545322,-2.70123,-0.6841064,-0.1868956,-0.09956188,0.09872238,-0.4067542,-2.975025,1.889315
50.99995,5.711122,44,104,497,498,-0.3844027,-0.03647163,-0.3743049,-0.8513167,-2.705308,-0.6772184,-0.1858163,-0.1101764,0.111533,-0.4057379,-2.979985,1.895956
51.33328,5.722233,44,104,497,498,-0.3844578,-0.03962887,-0.3796541,-0.8481806,-2.709413,-0.6702319,-0.1868515,-0.1037549,0.1168429,-0.404637,-2.983008,1.900748
51.66661,5.733344,44,104,497,498,-0.38775,-0.04488069,-0.3870979,-0.8451765,-2.713455,-0.663084,-0.186836,-0.1016134,0.1200242,-0.4037523,-2.986519,1.905973
51.99995,5.744455,44,104,497,498,-0.3866771,-0.04275381,-0.3870914,-0.8421916,-2.717671,-0.6560042,-0.1836443,-0.1080035,0.1221661,-0.4028676,-2.991046,1.912098
52.33328,5.755567,44,104,497,498,-0.3835826,-0.04375216,-0.3956123,-0.8393778,-2.721946,-0.6486965,-0.1836593,-0.1175389,0.1275348,-0.4016707,-2.995053,1.918038
52.66661,5.766678,44,104,497,498,-0.3857458,-0.04799039,-0.3977558,-0.8361686,-2.726264,-0.6414628,-0.1825907,-0.1260433,0.1339499,-0.4006641,-3.000445,1.925013
52.99994,5.777789,44,104,497,498,-0.3847598,-0.05221049,-0.4062897,-0.8328509,-2.730309,-0.6346409,-0.1878742,-0.1196075,0.1435311,-0.3992814,-3.004559,1.930907
53.33327,5.7889,44,104,497,498,-0.3837312,-0.053247,-0.4127246,-0.8292487,-2.73513,-0.6273071,-0.1761394,-0.1323608,0.1584559,-0.3978912,-3.010728,1.938251
53.66661,5.800012,44,104,497,498,-0.3858504,-0.04789408,-0.4147597,-0.8265983,-2.739438,-0.6202497,-0.1739873,-0.1323506,0.1627066,-0.3967119,-3.015947,1.944775
53.99994,5.811123,44,104,497,498,-0.3858584,-0.03718369,-0.4211042,-0.8236039,-2.745155,-0.6120807,-0.1729169,-0.1397772,0.1712484,-0.3953873,-3.02198,1.95232
54.33327,5.822234,44,104,497,498,-0.3858576,-0.02543625,-0.4241632,-0.8213114,-2.749961,-0.6045019,-0.1675859,-0.1419056,0.1701791,-0.3942357,-3.027314,1.958805
54.6666,5.833345,44,104,497,498,-0.3848293,-0.01367547,-0.4304753,-0.8187122,-2.755656,-0.5960357,-0.1622313,-0.1376388,0.1723012,-0.3927332,-3.032571,1.965165
54.99994,5.844457,44,104,497,498,-0.3837757,-0.009394931,-0.433649,-0.8159814,-2.761234,-0.587993,-0.1558165,-0.1333679,0.1786634,-0.3912866,-3.03805,1.971794
55.33327,5.855568,44,104,497,498,-0.3816452,-0.009398324,-0.4336759,-0.8132213,-2.766795,-0.5799619,-0.1526259,-0.1333623,0.1807769,-0.3900498,-3.043528,1.978606
55.6666,5.866679,44,104,497,498,-0.3763462,-0.008352246,-0.434773,-0.8105112,-2.772298,-0.5719133,-0.147312,-0.1291323,0.1732931,-0.3890037,-3.048479,1.984661
55.99993,5.87779,44,104,497,498,-0.3774397,-0.005123522,-0.4432862,-0.8072947,-2.778222,-0.5639057,-0.1462712,-0.1366245,0.1637056,-0.388552,-3.054076,1.991251
56.33326,5.888902,44,104,497,498,-0.3720784,0.002307292,-0.4422115,-0.8048941,-2.784118,-0.5558422,-0.1484074,-0.1462026,0.167989,-0.387646,-3.060817,1.999215
56.6666,5.900013,44,104,497,498,-0.3635752,0.005408183,-0.4456852,-0.799906,-2.79259,-0.5454229,-0.1484033,-0.1493962,0.1690562,-0.3867134,-3.067011,2.006515
56.99993,5.911124,44,104,497,498,-0.3571558,0.01392134,-0.4467498,-0.7975736,-2.798993,-0.5373023,-0.1494789,-0.161103,0.1722884,-0.3858393,-3.074283,2.014934
57.33326,5.922235,44,104,497,498,-0.3497123,0.0192949,-0.4467761,-0.7959096,-2.806109,-0.5283962,-0.1526602,-0.162149,0.1733588,-0.3848907,-3.080404,2.022189
57.66659,5.933347,44,104,497,498,-0.3464564,0.02243453,-0.4414578,-0.7937136,-2.812095,-0.5204924,-0.1537077,-0.160005,0.1797368,-0.3838228,-3.087095,2.030128
57.99992,5.944458,44,104,497,498,-0.343246,0.02347536,-0.4406725,-0.7896816,-2.82206,-0.5090404,-0.1601195,-0.1589557,0.1712275,-0.3831335,-3.093236,2.037769
58.33326,5.955569,44,104,497,498,-0.3390021,0.0297581,-0.4417044,-0.7870653,-2.827498,-0.5013198,-0.1600968,-0.1546869,0.1722842,-0.3820581,-3.099223,2.044917
58.66659,5.966681,44,104,497,498,-0.3389488,0.03719496,-0.4373873,-0.7854733,-2.833844,-0.4929564,-0.1568878,-0.1514862,0.1754621,-0.3809471,-3.105513,2.052414
58.99992,5.977792,44,104,497,498,-0.3378645,0.04251755,-0.4373581,-0.7837326,-2.840345,-0.4846346,-0.1504816,-0.1504111,0.1797121,-0.3797263,-3.111984,2.05989
59.33325,5.988903,44,104,497,498,-0.3314501,0.04773618,-0.434139,-0.7820112,-2.845409,-0.4771644,-0.1483684,-0.1589386,0.1786679,-0.3789135,-3.119188,2.068207
59.66658,6.000014,44,104,497,498,-0.3303663,0.05305882,-0.43411,-0.7804399,-2.851968,-0.4688431,-0.1494427,-0.1621532,0.1701527,-0.3783995,-3.12541,2.075439
59.99992,6.011126,44,104,497,498,-0.3281961,0.05623221,-0.4298254,-0.7792255,-2.858222,-0.4607263,-0.1505411,-0.16433,0.1520502,-0.3782807,-3.131081,2.082198
60.33325,6.022237,44,104,497,498,-0.3292117,0.06046655,-0.4255255,-0.7778939,-2.864593,-0.4525201,-0.1451856,-0.1526071,0.1562618,-0.3773742,-3.136714,2.088896
60.66658,6.033348,44,104,497,498,-0.3280342,0.0679745,-0.422245,-0.7775424,-2.870985,-0.4454084,-0.1472874,-0.149387,0.1615885,-0.3763888,3.140227,2.096262
60.99991,6.044459,44,104,497,498,-0.3322828,0.06904686,-0.4211372,-0.7762656,-2.877469,-0.4369709,-0.1515666,-0.1557819,0.1584233,-0.3758764,3.133485,2.104304
61.33324,6.055571,44,104,497,498,-0.3375764,0.06405698,-0.4190349,-0.777813,-2.886869,-0.4267577,-0.1515719,-0.1621782,0.1520545,-0.3754993,3.127303,2.11146
61.66658,6.066682,44,104,497,498,-0.3407398,0.05869502,-0.4126567,-0.7764771,-2.892875,-0.4186265,-0.1462353,-0.1664279,0.1584456,-0.3748703,3.120026,2.119716
61.99991,6.077793,44,104,497,498,-0.3586448,0.04076786,-0.4072359,-0.7750843,-2.904023,-0.4055909,-0.1324075,-0.1888149,0.1563448,-0.3743083,3.10452,2.136433
62.33324,6.088904,44,104,497,498,-0.3586448,0.04076786,-0.4072359,-0.7750843,-2.904023,-0.4055909,-0.1324075,-0.1888149,0.1563448,-0.3743083,3.10452,2.136433
62.66657,6.100016,44,104,497,498,-0.3640526,0.03017394,-0.4125982,-0.7732989,-2.910286,-0.3969218,-0.1419899,-0.1696795,0.1403389,-0.3740388,3.099728,2.142544
62.9999,6.111127,44,104,497,498,-0.3652019,0.006734677,-0.4127606,-0.7709601,-2.915941,-0.3888146,-0.1504649,-0.1430166,0.1381516,-0.373071,3.096352,2.147426
63.33324,6.122238,44,104,497,498,-0.3695056,-0.02196006,-0.4139899,-0.7687784,-2.921247,-0.3816438,-0.1578947,-0.1217058,0.1359747,-0.3722524,3.092543,2.152953
63.66657,6.133349,44,104,497,498,-0.372754,-0.03787465,-0.4150728,-0.7670351,-2.925966,-0.3744511,-0.1685153,-0.1035644,0.1380869,-0.3711227,3.088726,2.158758
63.9999,6.144461,44,104,497,498,-0.3760308,-0.05061426,-0.4194036,-0.7644535,-2.93186,-0.3659727,-0.1685553,-0.1344552,0.1392351,-0.3713948,3.081182,2.167594
64.33324,6.155572,44,104,497,498,-0.3760324,-0.05924147,-0.4130452,-0.7617418,-2.936503,-0.3581387,-0.1663891,-0.1397447,0.1530814,-0.3707461,3.074293,2.175654
64.66657,6.166683,44,104,497,498,-0.3845484,-0.05925667,-0.4140266,-0.7591304,-2.941779,-0.3499596,-0.1674601,-0.134433,0.1477414,-0.3702945,3.068789,2.182666
64.99991,6.177794,44,104,497,498,-0.3920253,-0.05707962,-0.4149885,-0.757224,-2.947524,-0.341079,-0.168569,-0.1472664,0.1307258,-0.3707706,3.063359,2.189336
65.33324,6.188906,44,104,497,498,-0.4015355,-0.04965765,-0.4095215,-0.7552112,-2.953048,-0.3323955,-0.1632129,-0.1514932,0.1445737,-0.3702071,3.056098,2.197765
65.66658,6.200017,44,104,497,498,-0.4079506,-0.0442883,-0.4115434,-0.7535111,-2.959136,-0.3229898,-0.1578539,-0.156791,0.1552321,-0.3695759,3.048514,2.206246
65.99992,6.211128,44,104,497,498,-0.4121323,-0.03045276,-0.4092964,-0.7519047,-2.965631,-0.3136778,-0.1610071,-0.1354759,0.1583667,-0.3687013,3.043407,2.212856
66.33325,6.222239,44,104,497,498,-0.4152062,-0.007058736,-0.4016348,-0.7511893,-2.971839,-0.3041964,-0.1642141,-0.125924,0.1402454,-0.3683306,3.039593,2.218045
66.66659,6.233351,44,104,497,498,-0.414065,0.01101045,-0.401507,-0.7500681,-2.978032,-0.2951901,-0.1717145,-0.1312397,0.1317779,-0.3680819,3.034283,2.225379
66.99992,6.244462,44,104,497,498,-0.4139923,0.03338259,-0.400263,-0.7499573,-2.984565,-0.2856661,-0.1642369,-0.1344174,0.1413557,-0.3676111,3.027708,2.233114
67.33326,6.255573,44,104,497,498,-0.4160211,0.05458585,-0.3926385,-0.7494417,-2.990739,-0.2759269,-0.1621156,-0.1322632,0.1392245,-0.3669415,3.022869,2.239443
67.6666,6.266685,44,104,497,498,-0.4234509,0.05988955,-0.391467,-0.7481991,-3.003241,-0.2571058,-0.1620355,-0.1236577,0.1615751,-0.3651865,3.01058,2.25444
67.99993,6.277796,44,104,497,498,-0.4234509,0.05988955,-0.391467,-0.7481991,-3.003241,-0.2571058,-0.1620355,-0.1236577,0.1615751,-0.3651865,3.01058,2.25444
68.33327,6.288907,44,104,497,498,-0.4223994,0.04707501,-0.3873036,-0.7473629,-3.009223,-0.2480399,-0.175846,-0.1129748,0.1658549,-0.3641559,3.004588,2.26221
68.6666,6.300018,44,104,497,498,-0.42462,0.03971129,-0.3872738,-0.7466342,-3.015506,-0.2387109,-0.1768928,-0.1086938,0.1701078,-0.3633415,2.99882,2.26964
68.99994,6.31113,44,104,497,498,-0.422544,0.04278605,-0.3884104,-0.74579,-3.022479,-0.2274105,-0.1727138,-0.1215603,0.1467023,-0.3636935,2.993233,2.276606
69.33327,6.322241,44,104,497,498,-0.4257872,0.04177129,-0.3937182,-0.7452201,-3.02913,-0.2177006,-0.1642062,-0.1194765,0.1349505,-0.3637036,2.988727,2.282233
69.66661,6.333352,44,104,497,498,-0.4332924,0.0343491,-0.3958378,-0.7444952,-3.035419,-0.2079737,-0.1695659,-0.1184335,0.1221858,-0.3635343,2.984175,2.288519
69.99995,6.344463,44,104,497,498,-0.4368586,-0.01670231,-0.4121493,-0.7408467,-3.048607,-0.1878418,-0.189762,-0.08962187,0.1210887,-0.362297,2.976493,2.300307
70.33328,6.355575,44,104,497,498,-0.4412574,-0.0432799,-0.4176355,-0.7388099,-3.055249,-0.1779146,-0.1832773,-0.05124463,0.1326683,-0.3606634,2.9741,2.304413
70.66662,6.366686,44,104,497,498,-0.4412574,-0.0432799,-0.4176355,-0.7388099,-3.055249,-0.1779146,-0.1832773,-0.05124463,0.1326683,-0.3606634,2.9741,2.304413
70.99995,6.377797,44,104,497,498,-0.451076,-0.0623149,-0.4347481,-0.7353718,-3.069613,-0.1566754,-0.1672549,-0.04590179,0.1453849,-0.3588242,2.965932,2.315471
71.33329,6.388908,44,104,497,498,-0.451076,-0.0623149,-0.4347481,-0.7353718,-3.069613,-0.1566754,-0.1672549,-0.04590179,0.1453849,-0.3588242,2.965932,2.315471
71.66663,6.40002,44,104,497,498,-0.4532624,-0.06228506,-0.4379213,-0.7340268,-3.076739,-0.1459647,-0.1694236,-0.07357588,0.1497383,-0.3585414,2.959536,2.323491
71.99996,6.411131,44,104,497,498,-0.4608365,-0.06963667,-0.4496402,-0.7322223,-3.084494,-0.1349216,-0.1832995,-0.08847097,0.1508824,-0.3583837,2.953484,2.331662
72.3333,6.422242,44,104,497,498,-0.4769959,-0.0951107,-0.4560784,-0.7283304,-3.099201,-0.1125665,-0.199254,-0.1128874,0.1712303,-0.3573536,2.939206,2.349585
72.66663,6.433353,44,104,497,498,-0.4792187,-0.108908,-0.4614812,-0.7262195,-3.106703,-0.1016188,-0.1863966,-0.1149484,0.1999655,-0.3562356,2.930624,2.359388
72.99997,6.444465,44,104,497,498,-0.4792187,-0.108908,-0.4614812,-0.7262195,-3.106703,-0.1016188,-0.1863966,-0.1149484,0.1999655,-0.3562356,2.930624,2.359388
73.33331,6.455576,44,104,497,498,-0.4835216,-0.1078167,-0.4635545,-0.7246009,-3.114175,-0.09023748,-0.1789363,-0.125566,0.208502,-0.3554313,2.922809,2.368525
73.66664,6.466687,44,104,497,498,-0.4856756,-0.08218065,-0.4750527,-0.7222914,-3.130029,-0.06736306,-0.1639541,-0.1170104,0.2212185,-0.3535788,2.908106,2.385394
73.99998,6.477798,44,104,497,498,-0.4856756,-0.08218065,-0.4750527,-0.7222914,-3.130029,-0.06736306,-0.1639541,-0.1170104,0.2212185,-0.3535788,2.908106,2.385394
74.33331,6.48891,44,104,497,498,-0.4953135,-0.08315288,-0.4813701,-0.7199526,3.137071,-0.04420421,-0.1713272,-0.08928654,0.2296644,-0.3511761,2.89415,2.402115
74.66665,6.500021,44,104,497,498,-0.4953135,-0.08315288,-0.4813701,-0.7199526,3.137071,-0.04420421,-0.1713272,-0.08928654,0.2296644,-0.3511761,2.89415,2.402115
74.99998,6.511132,44,104,497,498,-0.4953453,-0.08421066,-0.4856435,-0.7185512,3.128764,-0.03247885,-0.168081,-0.08393833,0.2413731,-0.3497684,2.885421,2.41202
75.33332,6.522243,44,104,497,498,-0.4952409,-0.06823002,-0.4812451,-0.7174966,3.113142,-0.009973538,-0.1552859,-0.07542403,0.2402662,-0.3471873,2.870816,2.429003
75.66666,6.533355,44,104,497,498,-0.4887419,-0.04265194,-0.4810733,-0.7181075,3.105745,0.0005060006,-0.1691384,-0.06582806,0.2285754,-0.3458136,2.865405,2.436263
75.99999,6.544466,44,104,497,498,-0.4887419,-0.04265194,-0.4810733,-0.7181075,3.105745,0.0005060006,-0.1691384,-0.06582806,0.2285754,-0.3458136,2.865405,2.436263
76.33333,6.555577,44,104,497,498,-0.4929183,-0.02991423,-0.4756135,-0.7177725,3.089897,0.02364674,-0.159526,-0.0742953,0.2456163,-0.3433443,2.849017,2.455184
76.66666,6.566689,44,104,497,498,-0.4929183,-0.02991423,-0.4756135,-0.7177725,3.089897,0.02364674,-0.159526,-0.0742953,0.2456163,-0.3433443,2.849017,2.455184
77,6.5778,44,104,497,498,-0.4982466,-0.04800439,-0.4735492,-0.7169991,3.082499,0.03432921,-0.1584875,-0.08066359,0.2414033,-0.341969,2.841269,2.464295
77.33334,6.588911,44,104,497,498,-0.5004961,-0.088474,-0.4706029,-0.7149735,3.067065,0.05705556,-0.1648116,-0.07740344,0.2573668,-0.3395999,2.824872,2.483264
77.66667,6.600022,44,104,497,498,-0.4973212,-0.1055724,-0.4664966,-0.7135786,3.059126,0.06851142,-0.1605552,-0.0827482,0.2531077,-0.338646,2.816707,2.492291
78.00001,6.611134,44,104,497,498,-0.4898081,-0.1163038,-0.4559543,-0.7126725,3.052262,0.07879015,-0.1562464,-0.06994152,0.262643,-0.3371509,2.80849,2.501713
78.33334,6.622245,44,104,497,498,-0.4865758,-0.1206304,-0.4506961,-0.7114869,3.044523,0.08990512,-0.1519766,-0.07318237,0.2615624,-0.3365714,2.799408,2.511587
78.66668,6.633356,44,104,497,498,-0.480161,-0.1420069,-0.4423732,-0.7098634,3.037439,0.1000768,-0.1349453,-0.06897303,0.2540452,-0.3355652,2.791795,2.5198
79.00002,6.644467,44,104,497,498,-0.4672459,-0.1602909,-0.4266461,-0.7079284,3.030555,0.1094868,-0.1499156,-0.07331064,0.2295934,-0.3355663,2.785379,2.52773
79.33335,6.655579,44,104,497,498,-0.452279,-0.1828305,-0.4109551,-0.7057734,3.023754,0.1192835,-0.1509444,-0.06267823,0.2306398,-0.3345767,2.777085,2.537126
79.66669,6.66669,44,104,497,498,-0.4350721,-0.1968262,-0.3941447,-0.70402,3.017709,0.127395,-0.132741,-0.0573021,0.260385,-0.3330832,2.767147,2.547388
80.00002,6.677801,44,104,497,498,-0.4200432,-0.2033693,-0.3794434,-0.7022527,3.010622,0.1369887,-0.1380861,-0.06159206,0.2529368,-0.3326448,2.759621,2.556098
80.33336,6.688912,44,104,497,498,-0.4091904,-0.2013576,-0.3677952,-0.7005765,3.004806,0.1445297,-0.1241359,-0.02641095,0.2687697,-0.3301809,2.751938,2.56431
80.66669,6.700024,44,104,497,498,-0.3866225,-0.1951685,-0.3477298,-0.6993291,2.998614,0.1528958,-0.1508074,-0.008366644,0.2346814,-0.3290756,2.74864,2.569613
81.00003,6.711135,44,104,497,498,-0.3866225,-0.1951685,-0.3477298,-0.6993291,2.998614,0.1528958,-0.1508074,-0.008366644,0.2346814,-0.3290756,2.74864,2.569613
81.33337,6.722246,44,104,497,498,-0.3663072,-0.1878519,-0.3371583,-0.6980571,2.993149,0.1609497,-0.1231525,0.005365208,0.2111258,-0.3278154,2.745063,2.573611
81.6667,6.733357,44,104,497,498,-0.3404896,-0.1720858,-0.3138611,-0.6962829,2.981465,0.1768829,-0.07850064,-0.001231797,0.1716051,-0.3264492,2.737224,2.581094
82.00004,6.744469,44,104,497,498,-0.3265828,-0.172173,-0.3011755,-0.6956075,2.976553,0.1843904,-0.08489849,-0.01614311,0.1738043,-0.3260055,2.730228,2.588817
82.33337,6.75558,44,104,497,498,-0.314734,-0.1691193,-0.2874162,-0.6943591,2.971352,0.1914951,-0.09440804,-0.01821077,0.1983389,-0.3248385,2.720953,2.598645
82.66671,6.766691,44,104,497,498,-0.3050242,-0.1617942,-0.2735744,-0.69337,2.967031,0.198144,-0.1168521,-0.04166472,0.1792746,-0.3251581,2.71638,2.60465
83.00005,6.777802,44,104,497,498,-0.279089,-0.1184121,-0.2489782,-0.6933843,2.963312,0.2033036,-0.07638058,-0.0428047,0.1759683,-0.3246127,2.710617,2.609773
83.33338,6.788914,44,104,497,498,-0.2596812,-0.08130522,-0.2350069,-0.6937385,2.959786,0.2085958,-0.07435627,-0.06100965,0.1472346,-0.3253861,2.707086,2.61378
83.66672,6.800025,44,104,497,498,-0.2488198,-0.05910511,-0.2200274,-0.6938296,2.956281,0.2137538,-0.06584308,-0.04404155,0.1301339,-0.3249254,2.703424,2.617669
84.00005,6.811136,44,104,497,498,-0.228429,-0.03902304,-0.2083144,-0.6943197,2.95337,0.2182423,-0.04872976,-0.02697786,0.147067,-0.3238942,2.698452,2.622593
84.33339,6.822248,44,104,497,498,-0.217666,-0.03490223,-0.1966556,-0.6942579,2.950313,0.222775,-0.07110663,-0.05992631,0.1557602,-0.3240225,2.690693,2.631011
84.66673,6.833359,44,104,497,498,-0.1951016,-0.02126819,-0.1754142,-0.6949871,2.948556,0.2260981,-0.07214716,-0.0726605,0.1717807,-0.3238883,2.68253,2.639585
85.00006,6.84447,44,104,497,498,-0.1800804,-0.007551059,-0.1647743,-0.695599,2.946326,0.2298138,-0.07005066,-0.09076981,0.1707637,-0.3242441,2.675325,2.647162
85.3334,6.855581,44,104,497,498,-0.1649764,0.009305917,-0.1509369,-0.6960054,2.944099,0.2327683,-0.05841539,-0.07385746,0.1312888,-0.3241685,2.67285,2.649885
85.66673,6.866693,44,104,497,498,-0.150034,0.007067533,-0.143603,-0.6963288,2.942211,0.2358687,-0.05743593,-0.03566396,0.07683317,-0.3238201,2.675667,2.647725
86.00007,6.877804,44,104,497,498,-0.150034,0.007067533,-0.143603,-0.6963288,2.942211,0.2358687,-0.05743593,-0.03566396,0.07683317,-0.3238201,2.675667,2.647725
86.3334,6.888915,44,104,497,498,-0.1202121,-0.01977929,-0.1323264,-0.6957966,2.937644,0.2415966,-0.05534396,-0.0112442,0.0480016,-0.3231394,2.674394,2.650099
86.66674,6.900026,44,104,497,498,-0.112748,-0.02944428,-0.1271382,-0.6954377,2.935333,0.2445101,-0.04249518,-0.01971478,0.07461256,-0.3229477,2.669531,2.65481
87.00008,6.911138,44,104,497,498,-0.1031343,-0.04448076,-0.115607,-0.6947969,2.933572,0.2470015,-0.02645602,-0.04094792,0.1076547,-0.3227229,2.662202,2.661537
87.33341,6.922249,44,104,497,498,-0.09667437,-0.04567816,-0.107161,-0.6939623,2.931391,0.2496365,-0.03393967,-0.05691716,0.1055891,-0.3231549,2.658135,2.665967
87.66675,6.93336,44,104,497,498,-0.07960938,-0.04254428,-0.1040673,-0.6941455,2.930037,0.251355,-0.02329341,-0.04417945,0.09593326,-0.3229519,2.655614,2.668314
88.00008,6.944471,44,104,497,498,-0.07960938,-0.04254428,-0.1040673,-0.6941455,2.930037,0.251355,-0.02329341,-0.04417945,0.09593326,-0.3229519,2.655614,2.668314
88.33342,6.955583,44,104,497,498,-0.07005466,-0.05864382,-0.1000062,-0.6924064,2.925887,0.2561072,-0.02759522,-0.02188847,0.06925432,-0.3224539,2.653125,2.671398
88.66676,6.966694,44,104,497,498,-0.06155341,-0.07255241,-0.0948464,-0.6916602,2.924185,0.258112,-0.02006278,-0.02288618,0.09159309,-0.3218068,2.648598,2.675484
89.00009,6.977805,44,104,497,498,-0.05941056,-0.07795176,-0.09278698,-0.6902834,2.921766,0.2604542,-0.02860225,-0.03990447,0.09593991,-0.3221115,2.643509,2.680972
89.33343,6.988916,44,104,497,498,-0.05187752,-0.07482238,-0.08536216,-0.6899414,2.920528,0.2617797,-0.01899634,-0.02500719,0.09159306,-0.3215266,2.642042,2.682229
89.66676,7.000028,44,104,497,498,-0.04654365,-0.07060029,-0.08752409,-0.6891334,2.918064,0.2639704,-0.009457579,-0.02189742,0.07132921,-0.3215895,2.640348,2.683629
90.0001,7.011139,44,104,497,498,-0.04440322,-0.06527349,-0.0885679,-0.688816,2.916284,0.2657952,-0.007366894,-0.01449799,0.05319088,-0.321516,2.640019,2.683957
90.0001,7.02225,44,104,497,498,-0.03802577,-0.06317071,-0.09180719,-0.6884852,2.91433,0.267514,-0.0105376,-0.005981805,0.05423464,-0.3213817,2.638258,2.685405
90.0001,7.033361,44,104,497,498,-0.03802577,-0.06317071,-0.09180719,-0.6884852,2.91433,0.267514,-0.0105376,-0.005981805,0.05423464,-0.3213817,2.638258,2.685405
90.0001,7.044473,44,104,497,498,-0.04004377,-0.04505973,-0.08633091,-0.6883851,2.911114,0.2708707,0.0002112649,0.003660364,0.07653996,-0.3201034,2.632706,2.690543
90.0001,7.055584,44,104,497,498,-0.03998764,-0.03551796,-0.08306938,-0.688164,2.909542,0.272615,0.007658709,-0.009124201,0.07976989,-0.3198819,2.628626,2.694107
90.0001,7.066695,44,104,497,498,-0.03566392,-0.02489704,-0.07876004,-0.6885667,2.908602,0.273724,0.006568095,-0.02616784,0.07874253,-0.3202994,2.625957,2.696545
90.0001,7.077806,44,104,497,498,-0.03566392,-0.02489704,-0.07876004,-0.6885667,2.908602,0.273724,0.006568095,-0.02616784,0.07874253,-0.3202994,2.625957,2.696545
90.0001,7.088918,44,104,497,498,-0.02379425,0.005905721,-0.07007457,-0.6898077,2.907684,0.2750404,0.009728588,-0.03472136,0.06918697,-0.3204401,2.620263,2.701545
90.0001,7.100029,44,104,497,498,-0.0184284,0.01653522,-0.07219359,-0.6902791,2.905974,0.2761682,0.005476277,-0.02941194,0.06599759,-0.3204161,2.617554,2.704057
90.0001,7.11114,44,104,497,498,-0.01842196,0.01331737,-0.07009025,-0.6904682,2.904782,0.2773051,0.0075753,-0.0273058,0.05638197,-0.3204891,2.616985,2.704537
90.0001,7.122252,44,104,497,498,-0.0163121,0.01227722,-0.07331213,-0.6909199,2.903487,0.2782923,0.001166277,-0.01346473,0.04251637,-0.3198904,2.617297,2.704443
90.0001,7.133363,44,104,497,498,-0.01418631,0.005862836,-0.0712456,-0.6909918,2.902338,0.2792788,0.006457553,-0.01989076,0.03399781,-0.3201737,2.616423,2.705059
90.0001,7.144474,44,104,497,498,-0.02060005,0.002637999,-0.07230102,-0.6904602,2.900339,0.2813028,0.01603344,-0.03268214,0.03719054,-0.3207383,2.614496,2.706419
90.0001,7.155585,44,104,497,498,-0.02169439,-0.004861061,-0.0744992,-0.6896884,2.898084,0.2831548,0.01920645,-0.03909189,0.03293926,-0.3212055,2.612939,2.707584
90.0001,7.166697,44,104,497,498,-0.02283048,-0.01443096,-0.07563093,-0.6897028,2.89653,0.2850219,0.02344683,-0.04016737,0.03080056,-0.3214355,2.611626,2.70864
90.0001,7.177808,44,104,497,498,-0.02394001,-0.02723088,-0.07573809,-0.6891915,2.894362,0.2869964,0.01174143,-0.02100506,0.02332145,-0.3212646,2.611595,2.708848
90.0001,7.188919,44,104,497,498,-0.02394001,-0.02723088,-0.07573809,-0.6891915,2.894362,0.2869964,0.01174143,-0.02100506,0.02332145,-0.3212646,2.611595,2.708848
90.0001,7.20003,44,104,497,498,-0.02080899,-0.03791435,-0.07691338,-0.6883659,2.890966,0.290325,0.009647682,-0.008196368,0.0286114,-0.3208033,2.609962,2.710243
90.0001,7.211142,44,104,497,498,-0.01655805,-0.03578273,-0.07906333,-0.6882972,2.88938,0.2916305,0.009677902,-0.01029213,0.04033592,-0.3206712,2.607416,2.71255
90.0001,7.222253,44,104,497,498,-0.01760831,-0.02942574,-0.07686937,-0.6880586,2.888149,0.2931741,0.01502541,-0.006012728,0.0477713,-0.3202238,2.605292,2.714366
90.0001,7.233364,44,104,497,498,-0.01547197,-0.02516412,-0.07792139,-0.6881528,2.886711,0.2943954,0.02143302,-0.003880089,0.05200762,-0.3199106,2.603379,2.715766
90.0001,7.244475,44,104,497,498,-0.0143371,-0.0219785,-0.07258719,-0.6886104,2.885673,0.2951129,0.01926602,-0.006040435,0.04351283,-0.3199799,2.601769,2.717311
90.0001,7.255587,44,104,497,498,-0.01116508,-0.02090197,-0.0704269,-0.6889464,2.88571,0.295776,0.01927231,-0.02412551,0.05423126,-0.3203458,2.597811,2.720777
90.0001,7.266698,44,104,497,498,-0.01439569,-0.02194437,-0.07040957,-0.6891185,2.884474,0.2974197,0.02252586,-0.01235966,0.06695522,-0.3196225,2.595812,2.722349
90.0001,7.277809,44,104,497,498,-0.01111163,-0.01672667,-0.06402008,-0.6885656,2.883056,0.2983204,0.009722333,-0.01234859,0.06166944,-0.3192385,2.593863,2.724375
90.0001,7.28892,44,104,497,498,-0.01109139,-0.01673628,-0.06081535,-0.6887185,2.882352,0.2990663,0.01182354,-0.007052487,0.05312303,-0.3191634,2.592962,2.725295
90.0001,7.300032,44,104,497,498,-0.007919366,-0.01672925,-0.05868467,-0.6890615,2.882102,0.2998493,0.01608435,0.002528137,0.0488071,-0.3186014,2.592776,2.725201
90.0001,7.311143,44,104,497,498,-0.002522598,-0.01894561,-0.04915593,-0.6888825,2.881508,0.3001936,0.01605213,0.003558098,0.03708571,-0.3185013,2.592605,2.725189
90.0001,7.322254,44,104,497,498,-0.002522598,-0.01894561,-0.04915593,-0.6888825,2.881508,0.3001936,0.01605213,0.003558098,0.03708571,-0.3185013,2.592605,2.725189
90.0001,7.333365,44,104,497,498,0.01572454,-0.02343308,-0.03335521,-0.6876698,2.880224,0.3002176,0.01500432,0.01527285,0.03278612,-0.3176139,2.591804,2.725464
90.0001,7.344477,44,104,497,498,0.01574212,-0.02986572,-0.02594285,-0.687429,2.879934,0.3005841,0.01288516,0.01424935,0.03918331,-0.3170632,2.590652,2.726616
90.0001,7.355588,44,104,497,498,0.02532968,-0.03309825,-0.02067024,-0.6872697,2.880776,0.2998448,0.0193091,0.01853542,0.04875206,-0.316269,2.588294,2.728491
90.0001,7.366699,44,104,497,498,0.02753861,-0.03209166,-0.01108441,-0.6871632,2.881101,0.299285,0.03211112,0.02172823,0.04976536,-0.3155596,2.587469,2.72848
90.0001,7.37781,44,104,497,498,0.02865204,-0.02789145,-0.006790828,-0.6865422,2.881068,0.2989843,0.0342022,0.01528671,0.03592823,-0.3156171,2.587406,2.727949
90.0001,7.388922,44,104,497,498,0.02870401,-0.02259535,-0.002492242,-0.6863872,2.881133,0.2986221,0.03415065,0.01416917,0.0188869,-0.3155846,2.58833,2.726685
90.0001,7.400033,44,104,497,498,0.02979439,-0.01941344,-0.002477091,-0.6861661,2.881007,0.2981742,0.03197561,0.002430268,0.01147543,-0.3158419,2.587941,2.726839
90.0001,7.411144,44,104,497,498,0.03090167,-0.01197522,-0.0003023893,-0.6862231,2.88109,0.2977438,0.02768581,0.006672131,0.0008133636,-0.3157678,2.589348,2.725362
90.0001,7.422256,44,104,497,498,0.03194712,-0.009831067,0.001853679,-0.6864468,2.881713,0.2974953,0.02556212,0.01519227,-0.0045189,-0.3152075,2.589988,2.724405
90.0001,7.433367,44,104,497,498,0.03304894,-0.001319924,0.002970404,-0.6866199,2.881904,0.2969542,0.02450042,0.01732466,-0.004522362,-0.3149976,2.590422,2.723724
90.0001,7.444478,44,104,497,498,0.03844982,0.0125071,0.006227411,-0.6872713,2.882626,0.2957853,0.02879939,0.0226601,0.002923638,-0.3145332,2.58923,2.724322
90.0001,7.455589,44,104,497,498,0.03849222,0.01885733,0.01161241,-0.6873448,2.88345,0.2950284,0.02879039,0.01733364,0.002940078,-0.3144836,2.589185,2.724046
90.0001,7.466701,44,104,497,498,0.04063985,0.02524902,0.01272024,-0.6878908,2.884281,0.2940252,0.03516731,0.00561136,0.005086901,-0.3146882,2.588573,2.724071
90.0001,7.477812,44,104,497,498,0.04498,0.03371224,0.01804864,-0.6883461,2.884489,0.2931512,0.03083989,-0.004000604,-0.006596226,-0.3150679,2.589777,2.722921
90.0001,7.488923,44,104,497,498,0.04603157,0.03478914,0.01591706,-0.6887009,2.884855,0.2923384,0.02553822,0.008795254,-0.005554947,-0.3147068,2.590431,2.722154
90.0001,7.500034,44,104,497,498,0.04393125,0.03692449,0.01914765,-0.6893364,2.885717,0.291279,0.01813334,0.02269957,0.005089257,-0.3138093,2.589884,2.722677
90.0001,7.511146,44,104,497,498,0.04289173,0.03690533,0.02235197,-0.6896325,2.886403,0.2903048,0.02345654,0.01524334,0.008292594,-0.3137806,2.589347,2.7228
90.0001,7.522257,44,104,497,498,0.03971222,0.03900724,0.0213198,-0.6894115,2.886508,0.2896134,0.02983382,0.01204485,0.006154723,-0.3135441,2.589616,2.722084
90.0001,7.533368,44,104,497,498,0.03754624,0.03368244,0.02024113,-0.6893214,2.886955,0.2890116,0.02766712,0.01094692,-0.005553908,-0.3135872,2.590864,2.720663
90.0001,7.544479,44,104,497,498,0.03540728,0.03264866,0.02026002,-0.689902,2.88781,0.288089,0.02762774,0.004521355,-0.01616729,-0.3137678,2.59128,2.719962
90.0001,7.555591,44,104,497,498,0.03431175,0.01874278,0.02123606,-0.6888969,2.887799,0.2876483,0.02873202,0.009857608,-0.008723702,-0.3135995,2.590868,2.719887
90.0001,7.566702,44,104,497,498,0.03428106,0.01236427,0.02119523,-0.6889965,2.888352,0.2869886,0.0287724,0.01096095,0.001919501,-0.3132788,2.590513,2.719788
90.0001,7.577813,44,104,497,498,0.0396172,0.005891317,0.02429848,-0.6882205,2.888433,0.2862696,0.02561063,0.02375785,0.008275568,-0.3128117,2.590611,2.71957
90.0001,7.588924,44,104,497,498,0.03960231,0.001648875,0.0232074,-0.6882641,2.888927,0.2853665,0.02342926,0.006693754,0.0008776435,-0.3132751,2.590629,2.719373
90.0001,7.600036,44,104,497,498,0.04170343,0.001675276,0.02644631,-0.6886886,2.891126,0.2839313,0.02238269,0.01946616,-0.002369704,-0.3129289,2.592338,2.717435
90.0001,7.611147,44,104,497,498,0.03848378,-0.0004303278,0.02432667,-0.6885736,2.891429,0.2833689,0.01918024,0.0247816,-0.007703279,-0.3126626,2.593487,2.716208
90.0001,7.622258,44,104,497,498,0.03737959,-0.004680889,0.02541863,-0.6883499,2.892957,0.2822983,0.01704548,0.02157369,-0.009828066,-0.3127973,2.594396,2.715092
90.0001,7.633369,44,104,497,498,0.03528217,-0.006871586,0.02752971,-0.6875094,2.892672,0.2818841,0.01597558,0.01519034,-0.007674601,-0.3128154,2.594439,2.714901
90.0001,7.644481,44,104,497,498,0.0342224,-0.007936482,0.03073171,-0.6875531,2.893485,0.2811361,0.01599984,0.01309039,0.001927046,-0.3125715,2.593428,2.715687
90.0001,7.655592,44,104,497,498,0.03639382,0.0005272394,0.0307574,-0.6870226,2.893429,0.2805246,0.01703938,0.005612291,-0.00231288,-0.3128341,2.593549,2.71537
90.0001,7.666703,44,104,497,498,0.0353311,0.009086845,0.02762733,-0.6874444,2.89393,0.2797683,0.0191392,-0.000800468,-0.005505242,-0.3132442,2.594098,2.714748
90.0001,7.677814,44,104,497,498,0.03423247,0.01128814,0.02554318,-0.6881539,2.89517,0.2787714,0.01486052,0.001317294,-0.01189093,-0.3132975,2.595129,2.713764
90.0001,7.688926,44,104,497,498,0.03531816,0.01767639,0.02557906,-0.6884208,2.895764,0.2778766,0.01381226,0.004525715,-0.008702979,-0.313176,2.595461,2.7133
90.0001,7.700037,44,104,497,498,0.03423279,0.01765372,0.02237877,-0.6879227,2.895525,0.2776409,0.01274532,0.002396269,-0.007619372,-0.3132245,2.595089,2.713545
90.0001,7.711148,44,104,497,498,0.02996664,0.01873978,0.02135511,-0.6881065,2.895965,0.2770822,0.01270557,-0.002951056,-0.01611369,-0.313421,2.595647,2.712982
90.0001,7.72226,44,104,497,498,0.02995002,0.02197524,0.01602543,-0.6885246,2.895675,0.276744,0.01164341,-0.0008225683,-0.01931939,-0.3134658,2.59695,2.711496
90.0001,7.733371,44,104,497,498,0.02677762,0.02409798,0.01712676,-0.6886519,2.895998,0.2761557,0.01166894,0.0130429,-0.01615925,-0.3128735,2.597791,2.71067
90.0001,7.744482,44,104,497,498,0.02785141,0.02408721,0.01818344,-0.6888394,2.896453,0.2754699,0.01168726,0.005630277,-0.002295564,-0.3128836,2.596977,2.711479
90.0001,7.755593,44,104,497,498,0.02466522,0.02624074,0.01823059,-0.6892644,2.897124,0.2747088,0.01382342,-0.003944697,0.005184782,-0.3131483,2.59577,2.712421
90.0001,7.766705,44,104,497,498,0.02781153,0.02413724,0.01286397,-0.6894903,2.897201,0.2742585,0.01488948,-0.002881826,0.00411656,-0.3130834,2.59572,2.712259
90.0001,7.777816,44,104,497,498,0.02349624,0.02099386,0.007551151,-0.6896644,2.897231,0.2741069,0.006355175,0.0035042,-0.002271376,-0.3129725,2.596595,2.711647
90.0001,7.788927,44,104,497,498,0.02026303,0.01462708,0.00540207,-0.6896783,2.89725,0.2739493,0.006367698,0.005639971,-0.004414889,-0.3127739,2.597616,2.710384
90.0001,7.800038,44,104,497,498,0.01484529,0.01046978,0.001147418,-0.6905097,2.897306,0.2744723,0.005307565,-0.003930199,0.00202019,-0.3129614,2.596048,2.711793
90.0001,7.81115,44,104,497,498,0.01271161,0.004070015,0.003250808,-0.6903681,2.897372,0.2743498,0.007439423,-0.002856279,0.003060968,-0.3129102,2.596499,2.711259
90.0001,7.822261,44,104,497,498,0.01160829,0.003003247,5.905563E-05,-0.6900394,2.897165,0.2745171,0.003192441,0.0003596651,0.004150214,-0.312523,2.595722,2.712024
90.0001,7.833372,44,104,497,498,0.009464137,0.004089876,-0.002047019,-0.690139,2.897052,0.2745522,9.415671E-06,-0.001746834,0.0116172,-0.312547,2.594801,2.713021
90.0001,7.844483,44,104,497,498,0.01259779,0.003092324,-0.007407503,-0.6907952,2.89694,0.2746577,0.004292115,0.0004041186,0.01797763,-0.3123739,2.594498,2.713173
90.0001,7.855595,44,104,497,498,0.007249543,-0.001144833,-0.008459539,-0.6907122,2.896726,0.2748907,0.005353503,0.0004038271,0.01796872,-0.312294,2.594187,2.713423
90.0001,7.866706,44,104,497,498,0.005097092,-0.003251404,-0.00951458,-0.6907973,2.896728,0.2749929,0.005359185,0.003602257,0.01689276,-0.3121385,2.594226,2.713313
90.0001,7.877817,44,104,497,498,0.0008175378,-0.003234341,-0.01052287,-0.6906993,2.896984,0.2750353,0.007473048,0.00784297,0.01366384,-0.3120469,2.594507,2.713098
90.0001,7.888928,44,104,497,498,0.000798936,-0.006422753,-0.01161021,-0.6906072,2.896683,0.2752638,0.001087578,0.007860521,0.0158132,-0.3118626,2.593887,2.71383
90.0001,7.90004,44,104,497,498,0.000798936,-0.006422753,-0.01161021,-0.6906072,2.896683,0.2752638,0.001087578,0.007860521,0.0158132,-0.3118626,2.593887,2.71383
90.0001,7.911151,44,104,497,498,-0.003482041,-0.007470098,-0.0147707,-0.6902743,2.896128,0.2757213,0.006388724,-0.007048728,0.01904594,-0.3119915,2.591696,2.715807
90.0001,7.922262,44,104,497,498,-0.003403909,-0.003274504,-0.009431673,-0.6900138,2.895709,0.2757565,0.003190491,-0.01342352,0.0244047,-0.3121795,2.589811,2.717746
90.0001,7.933373,44,104,497,498,-0.002337049,-7.46334E-05,-0.01048337,-0.6901406,2.895533,0.2758923,2.317317E-05,0.001499353,0.02543264,-0.3116484,2.589449,2.718187
90.0001,7.944485,44,104,497,498,-0.002337049,-7.46334E-05,-0.01048337,-0.6901406,2.895533,0.2758923,2.317317E-05,0.001499353,0.02543264,-0.3116484,2.589449,2.718187
90.0001,7.955596,44,104,497,498,-0.006617311,-0.00540854,-0.01156491,-0.6896458,2.894578,0.2767783,0.002085793,-0.001742202,0.008387867,-0.3117166,2.590304,2.717458
90.0001,7.966707,44,104,497,498,-0.005565396,-0.00969084,-0.01268096,-0.6891387,2.893786,0.2772937,-0.001130283,-0.0006875235,-0.001199907,-0.3116319,2.591646,2.716188
90.0001,7.977818,44,104,497,498,-0.00876409,-0.007572886,-0.01266013,-0.6889353,2.893021,0.2782023,0.002036698,-0.01135293,-0.003307992,-0.3120516,2.591516,2.716234
90.0001,7.98893,44,104,497,498,-0.00876409,-0.007572886,-0.01266013,-0.6889353,2.893021,0.2782023,0.002036698,-0.01135293,-0.003307992,-0.3120516,2.591516,2.716234
90.0001,8.000041,44,104,497,498,-0.006559228,0.007306971,-0.009371638,-0.68929,2.893124,0.278192,0.0009676265,-0.008134876,0.002011198,-0.3120628,2.590817,2.717295
90.0001,8.011152,44,104,497,498,-0.006500248,0.01793758,-0.00610266,-0.689755,2.893365,0.2780761,-8.729001E-05,-0.003868569,0.003066296,-0.3119765,2.590734,2.717396
90.0001,8.022264,44,104,497,498,-0.004337698,0.02218816,-0.003965085,-0.6902328,2.893477,0.2779531,0.00416507,-0.009190319,0.005198079,-0.3121278,2.590343,2.717718
