ref,t,emg1,emg2,emg1raw,emg2raw,aDotS,bDotS,gDotS,aS,bS,gS,aDotSH,bDotSH,gDotSH,aSH,bSH,gSH
0,0,44,104,497,498,0.1634162,0.01764881,0.2945568,-1.418122,-2.630832,-1.482265,0.3118964,0.3092641,-0.2792315,-0.5994376,-2.771516,1.335773
0,0.01111111,44,104,497,498,0.1570791,0.03042474,0.2978911,-1.42152,-2.631126,-1.483684,0.3097681,0.2848489,-0.2567656,-0.602227,-2.76816,1.329629
0,0.02222222,44,104,497,498,0.1560936,0.05175715,0.301221,-1.424956,-2.632076,-1.485121,0.303391,0.2614907,-0.2417177,-0.6048577,-2.76492,1.323356
0,0.03333334,44,104,497,498,0.1571852,0.06667729,0.3002434,-1.428359,-2.632862,-1.486766,0.3033736,0.2466068,-0.2331426,-0.60772,-2.761983,1.317599
0,0.04444445,44,104,497,498,0.1561446,0.0943509,0.2961788,-1.431561,-2.634139,-1.48825,0.299133,0.2370607,-0.2277603,-0.6107363,-2.758676,1.311257
0,0.05555556,44,104,497,498,0.1508159,0.117829,0.2900036,-1.434898,-2.635677,-1.489492,0.2831423,0.2403116,-0.2287804,-0.6139151,-2.75502,1.305764
0,0.06666667,44,104,497,498,0.150853,0.1391454,0.2880163,-1.438242,-2.637517,-1.490928,0.2650066,0.2392817,-0.2351047,-0.6172973,-2.751891,1.300737
0,0.07777778,44,104,497,498,0.1497706,0.1562111,0.28176,-1.441555,-2.638948,-1.492336,0.2532921,0.2318771,-0.2286329,-0.620043,-2.74911,1.295908
0,0.08888889,44,104,497,498,0.1497912,0.1711361,0.2797304,-1.444792,-2.641011,-1.493746,0.2437323,0.2149456,-0.2051031,-0.6222401,-2.746642,1.291427
0,0.1,44,104,497,498,0.1475912,0.1807868,0.2723636,-1.447888,-2.64309,-1.494682,0.2405453,0.1969339,-0.1826641,-0.6242407,-2.7443,1.286968
0,0.1111111,44,104,497,498,0.1475275,0.1925619,0.2628499,-1.450672,-2.645181,-1.495929,0.2406034,0.1916824,-0.1613396,-0.6260053,-2.741651,1.282156
0,0.1222222,44,104,497,498,0.1464376,0.2011106,0.2597129,-1.453579,-2.647532,-1.497008,0.2492762,0.1907436,-0.1176892,-0.6267659,-2.738317,1.27645
0,0.1333333,44,104,497,498,0.1400024,0.2193088,0.2492321,-1.456215,-2.650248,-1.498094,0.2589816,0.186583,-0.08042274,-0.6273454,-2.735065,1.270695
0,0.1444445,44,104,497,498,0.1324441,0.2278812,0.239789,-1.459069,-2.652352,-1.498642,0.2654151,0.1738616,-0.05696388,-0.6280064,-2.732456,1.265457
0,0.1555556,44,104,497,498,0.1291785,0.2471388,0.2271609,-1.461469,-2.655266,-1.499566,0.2632546,0.1451532,-0.04300322,-0.6285268,-2.731155,1.261422
0,0.1666667,44,104,497,498,0.1174311,0.271742,0.2167739,-1.463859,-2.658786,-1.500207,0.2536067,0.1228244,-0.03969482,-0.6291217,-2.730059,1.257947
0,0.1777778,44,104,497,498,0.1173221,0.2867075,0.2040856,-1.465874,-2.661697,-1.500737,0.239659,0.108967,-0.05344697,-0.6302615,-2.729114,1.254954
0,0.1888889,44,104,497,498,0.110832,0.3060135,0.1872259,-1.467773,-2.665527,-1.501404,0.2321287,0.1036081,-0.06938115,-0.6317034,-2.728126,1.251789
0,0.2,44,104,497,498,0.1086149,0.307139,0.1776539,-1.469602,-2.668655,-1.502164,0.2255625,0.08114316,-0.09804735,-0.6335628,-2.728889,1.250086
0,0.2111111,44,104,497,498,0.1053028,0.3125745,0.1628031,-1.471211,-2.672211,-1.502881,0.2200978,0.0672169,-0.1246114,-0.6356699,-2.729382,1.248198
0,0.2222222,44,104,497,498,0.1019583,0.3019713,0.1521067,-1.472713,-2.674754,-1.503323,0.2104386,0.06292838,-0.1384162,-0.6376087,-2.729466,1.24629
0,0.2333333,44,104,497,498,0.09434752,0.2818266,0.1392533,-1.47408,-2.677125,-1.504042,0.2030212,0.0683016,-0.1320173,-0.6391022,-2.728731,1.243634
0,0.2444444,44,104,497,498,0.09524821,0.2616371,0.1284592,-1.475343,-2.679147,-1.504694,0.1881511,0.0705281,-0.1181314,-0.6402756,-2.727888,1.241417
0,0.2555556,44,104,497,498,0.08856208,0.2234128,0.1090694,-1.47594,-2.680326,-1.505016,0.1690465,0.06958027,-0.09781481,-0.6409446,-2.727341,1.239589
0,0.2666667,44,104,497,498,0.08737115,0.2000307,0.101463,-1.476962,-2.681857,-1.505807,0.1616074,0.0611278,-0.08497451,-0.6416423,-2.726976,1.237716
0,0.2777778,44,104,497,498,0.08177792,0.1607416,0.08420376,-1.477533,-2.682584,-1.506298,0.1435515,0.06227967,-0.07212837,-0.6422804,-2.72639,1.236082
0,0.2888889,44,104,497,498,0.07943244,0.1203536,0.07116611,-1.477992,-2.682784,-1.507084,0.1296587,0.04635294,-0.06989155,-0.6429686,-2.726669,1.235255
0,0.3,44,104,497,498,0.07171576,0.07892379,0.05602747,-1.4781,-2.682638,-1.507378,0.1157049,0.0197304,-0.07613626,-0.6437478,-2.72822,1.235494
0,0.3111111,44,104,497,498,0.06410585,0.04810727,0.04736194,-1.478362,-2.682304,-1.507916,0.1028132,-0.009006038,-0.08024877,-0.6444168,-2.730123,1.236222
0,0.3222222,44,104,497,498,0.05749105,0.0141297,0.03226691,-1.478188,-2.681523,-1.50836,0.09947672,-0.03037333,-0.09507129,-0.6453569,-2.732551,1.237381
0,0.3333333,44,104,497,498,0.04877244,-0.0219843,0.02038037,-1.478092,-2.680425,-1.508755,0.08984574,-0.03358765,-0.1046257,-0.6466757,-2.734339,1.238034
0,0.3444445,44,104,497,498,0.04762379,-0.04006227,0.01600654,-1.478099,-2.679494,-1.509349,0.07499529,-0.01860964,-0.100366,-0.6476706,-2.734668,1.237821
0,0.3555556,44,104,497,498,0.03798216,-0.05498134,0.01599253,-1.478283,-2.678155,-1.509449,0.06437537,-0.01216916,-0.09289172,-0.6483769,-2.735337,1.238089
0,0.3666667,44,104,497,498,0.03257932,-0.08479553,0.01583724,-1.478373,-2.676414,-1.509823,0.04954524,-0.002479114,-0.07795994,-0.6488957,-2.73524,1.237827
0,0.3777778,44,104,497,498,0.02824451,-0.09968439,0.01364792,-1.478459,-2.674978,-1.509932,0.03788106,0.001865879,-0.06301641,-0.6491881,-2.735407,1.237997
0,0.3888889,44,104,497,498,0.01861769,-0.1188424,0.01466718,-1.478527,-2.673131,-1.510043,0.03152206,0.006167099,-0.05768289,-0.6497207,-2.7354,1.237796
0,0.4,44,104,497,498,0.01004734,-0.1326591,0.01357847,-1.478499,-2.671357,-1.510044,0.03046718,0.007245131,-0.05023493,-0.6501858,-2.735904,1.238156
0,0.4111111,44,104,497,498,0.0004069544,-0.1496722,0.01248086,-1.478479,-2.669184,-1.509963,0.0272871,0.005148187,-0.04382414,-0.6504803,-2.736048,1.238052
0,0.4222222,44,104,497,498,-0.01239254,-0.1667278,0.01780346,-1.478704,-2.666775,-1.509456,0.02194152,-0.006533232,-0.03843619,-0.6506486,-2.736743,1.238492
0,0.4333333,44,104,497,498,-0.01452718,-0.1720561,0.01885171,-1.478817,-2.664701,-1.509431,0.02193622,-0.01397089,-0.03308261,-0.6507434,-2.737413,1.238773
0,0.4444444,44,104,497,498,-0.02095995,-0.1816346,0.01884207,-1.478861,-2.662338,-1.509036,0.02512654,-0.03309841,-0.01704482,-0.6502433,-2.738706,1.239408
0,0.4555556,44,104,497,498,-0.02629296,-0.1848382,0.0209977,-1.479048,-2.660087,-1.508597,0.0272386,-0.04692698,-0.009544939,-0.6498667,-2.740028,1.240099
0,0.4666667,44,104,497,498,-0.02838584,-0.1848617,0.02527817,-1.479327,-2.658001,-1.508423,0.02297528,-0.05222403,-0.005249322,-0.649587,-2.741102,1.240806
0,0.4777778,44,104,497,498,-0.03264821,-0.1838035,0.02637829,-1.479373,-2.655823,-1.507977,0.02083812,-0.05540906,-0.004164848,-0.6494123,-2.742123,1.241441
0,0.4888889,44,104,497,498,-0.03050046,-0.1806203,0.02744655,-1.479591,-2.653892,-1.507847,0.015517,-0.04795404,-0.009499567,-0.6495391,-2.742799,1.241938
0,0.5,44,104,497,498,-0.02839061,-0.1774127,0.02425049,-1.479591,-2.651897,-1.507787,0.01023115,-0.031969,-0.01273477,-0.6497858,-2.742817,1.241988
0,0.5111111,44,104,497,498,-0.02413354,-0.1752855,0.02316248,-1.479704,-2.649995,-1.507814,0.0006917249,-0.01596233,-0.0138243,-0.6500733,-2.742509,1.241993
0,0.5222223,44,104,497,498,-0.01455594,-0.1656868,0.01888135,-1.479687,-2.648507,-1.50808,-0.007749648,0.004321345,-0.009606715,-0.65028,-2.741591,1.241559
0,0.5333334,44,104,497,498,-0.01151326,-0.1335467,-0.006483079,-1.479154,-2.648125,-1.507823,-0.01092344,0.006477811,-0.005342026,-0.6502763,-2.741354,1.241576
0,0.5444446,44,104,497,498,0.0003004149,-0.1464603,0.008242049,-1.479531,-2.646073,-1.508317,-0.008766375,0.006497939,0.002107415,-0.6500356,-2.741293,1.241511
0,0.5555557,44,104,497,498,0.01096822,-0.1283619,0.005084012,-1.479563,-2.644964,-1.508749,-0.01092165,0.001159916,0.006379543,-0.6499556,-2.742263,1.242841
0,0.5666668,44,104,497,498,0.01523042,-0.1209011,0.002967826,-1.479469,-2.643823,-1.509127,-0.01100988,-0.02122663,0.002200441,-0.6497868,-2.743572,1.244009
0,0.577778,44,104,497,498,0.02164151,-0.09851795,-0.000127364,-1.479446,-2.64338,-1.509405,-0.0131988,-0.04145227,0.004412853,-0.6493852,-2.745062,1.245401
0,0.5888891,44,104,497,498,0.02704175,-0.06976889,2.124999E-05,-1.479453,-2.643405,-1.509838,-0.01214359,-0.04571299,0.005489948,-0.6491151,-2.746002,1.246251
0,0.6000003,44,104,497,498,0.03451067,-0.04204845,-0.006250872,-1.479176,-2.643583,-1.510335,-0.01849845,-0.04140757,0.01188888,-0.6487135,-2.746341,1.246887
0,0.6111114,44,104,497,498,0.03560226,-0.02499185,-0.008278801,-1.478995,-2.643773,-1.510757,-0.02375261,-0.02857558,0.02038334,-0.6482773,-2.746061,1.247063
0,0.6222225,44,104,497,498,0.03781512,0.004819915,-0.007021908,-1.479157,-2.644576,-1.511102,-0.02902206,-0.01575916,0.02461664,-0.6480041,-2.745458,1.247033
0,0.6333337,44,104,497,498,0.03892344,0.0282662,-0.007934235,-1.479173,-2.64559,-1.511352,-0.03755096,-0.007244032,0.01502834,-0.6481154,-2.745283,1.247526
0,0.6444448,44,104,497,498,0.03472773,0.04849634,-0.005626837,-1.479286,-2.646532,-1.511469,-0.04075204,-0.002991896,0.009697728,-0.6481628,-2.745214,1.248002
0,0.655556,44,104,497,498,0.03265018,0.05807163,-0.002353021,-1.479325,-2.647454,-1.511704,-0.04395174,0.008693859,-0.002051927,-0.6486219,-2.744769,1.248217
0,0.6666671,44,104,497,498,0.03055224,0.0655137,-0.0001519211,-1.479457,-2.648248,-1.511862,-0.04821429,0.01295339,-0.006313435,-0.648892,-2.744517,1.248657
0,0.6777782,44,104,497,498,0.02947619,0.06551821,-0.001209091,-1.479393,-2.648871,-1.512085,-0.051374,0.01937112,-0.002064315,-0.6489245,-2.743802,1.248739
0,0.6888894,44,104,497,498,0.02946776,0.06232249,-0.001231036,-1.479414,-2.649486,-1.512347,-0.05135036,0.0172717,0.00646577,-0.6486773,-2.743421,1.249015
0,0.7000005,44,104,497,498,0.03052989,0.05699944,-0.0002123257,-1.479446,-2.650164,-1.512678,-0.05027774,0.006658196,0.01821914,-0.6480563,-2.743511,1.249574
0,0.7111117,44,104,497,498,0.03159571,0.04632222,0.002902799,-1.479566,-2.650355,-1.513039,-0.05134857,0.000285551,0.02250751,-0.647651,-2.743562,1.250201
0,0.7222228,44,104,497,498,0.02731296,0.03140821,0.004967635,-1.47965,-2.65035,-1.513191,-0.05455277,0.002411,0.01825,-0.6476515,-2.743387,1.250743
0,0.7333339,44,104,497,498,0.03261981,0.01112622,0.01012129,-1.479866,-2.649933,-1.513725,-0.05347848,0.009848937,0.01395771,-0.6477314,-2.742849,1.250875
0,0.7444451,44,104,497,498,0.03048131,0.001529421,0.01220475,-1.480197,-2.649769,-1.513804,-0.05454551,0.01515937,0.008615578,-0.6478965,-2.742369,1.251134
0,0.7555562,44,104,497,498,0.02727316,-0.02620469,0.01950057,-1.480534,-2.64883,-1.514028,-0.05769309,0.03114521,0.007503136,-0.6480936,-2.741127,1.250871
0,0.7666674,44,104,497,498,0.02619077,-0.04006492,0.02154686,-1.480773,-2.648,-1.514358,-0.05982471,0.03433635,0.004303179,-0.6482411,-2.740422,1.251032
0,0.7777785,44,104,497,498,0.0261038,-0.05812185,0.01503981,-1.480777,-2.647067,-1.514931,-0.06512404,0.04499885,0.002152607,-0.6485506,-2.739166,1.250922
0,0.7888896,44,104,497,498,0.02604597,-0.06981838,0.01176477,-1.480763,-2.645964,-1.515323,-0.06612641,0.05143688,0.0138511,-0.6483551,-2.737724,1.250533
0,0.8000008,44,104,497,498,0.02392594,-0.07089303,0.01176446,-1.480681,-2.644989,-1.515823,-0.07245488,0.05683093,0.02663783,-0.6479732,-2.736165,1.25025
0,0.8111119,44,104,497,498,0.02071001,-0.08367385,0.01276715,-1.480719,-2.643671,-1.516076,-0.07558748,0.06221455,0.03941312,-0.6474906,-2.734447,1.249796
0,0.8222231,44,104,497,498,0.02070743,-0.08902065,0.01591897,-1.480809,-2.64255,-1.516235,-0.0777097,0.06010654,0.0436897,-0.6471109,-2.733192,1.249713
0,0.8333342,44,104,497,498,0.01856948,-0.09541574,0.01696699,-1.481048,-2.641281,-1.516473,-0.07773195,0.0579604,0.03943637,-0.6469803,-2.732085,1.249681
0,0.8444453,44,104,497,498,0.01854922,-0.09752914,0.01482066,-1.481094,-2.64018,-1.516924,-0.07670803,0.05895623,0.03304,-0.6469138,-2.731968,1.250758
0,0.8555565,44,104,497,498,0.01640754,-0.09750824,0.01271468,-1.481196,-2.639106,-1.517171,-0.07356486,0.05358557,0.0266574,-0.6468722,-2.731398,1.251205
0,0.8666676,44,104,497,498,0.01532437,-0.09428763,0.009552177,-1.481167,-2.63815,-1.517366,-0.06612109,0.04717711,0.02878452,-0.6466512,-2.730619,1.251145
0,0.8777788,44,104,497,498,0.01316985,-0.08894761,0.006399609,-1.481019,-2.637133,-1.517587,-0.06935889,0.03760295,0.02988049,-0.6465638,-2.730311,1.251989
0,0.8888899,44,104,497,498,0.01212822,-0.08148583,0.006466355,-1.481099,-2.636443,-1.517677,-0.07145898,0.03870252,0.03734125,-0.6461362,-2.729273,1.251997
0,0.900001,44,104,497,498,0.01104984,-0.07294357,0.003330211,-1.480965,-2.635785,-1.517838,-0.07145178,0.03871073,0.04053831,-0.6457511,-2.728338,1.252123
0,0.9111122,44,104,497,498,0.007866384,-0.06867587,0.003385431,-1.480941,-2.635116,-1.517864,-0.07354217,0.04512893,0.04584895,-0.6453478,-2.726942,1.251885
0,0.9222233,44,104,497,498,0.007887133,-0.05908093,0.001335692,-1.481051,-2.634628,-1.517959,-0.07140877,0.05361481,0.03941767,-0.6453564,-2.725691,1.251661
0,0.9333345,44,104,497,498,0.00579841,-0.05375329,0.003531087,-1.481275,-2.634287,-1.518112,-0.07245731,0.06106749,0.03726353,-0.6453021,-2.724107,1.251246
0,0.9444456,44,104,497,498,0.005787063,-0.04947869,0.001422821,-1.481121,-2.633852,-1.51833,-0.07246918,0.06743561,0.03082593,-0.6457207,-2.722798,1.251162
0,0.9555568,44,104,497,498,0.006826226,-0.04841195,-0.001779143,-1.480914,-2.633078,-1.518538,-0.07034285,0.06848604,0.02868373,-0.6457228,-2.721436,1.250795
0,0.9666679,44,104,497,498,0.007880341,-0.05267572,-0.001817421,-1.480866,-2.632371,-1.518708,-0.06611915,0.06844492,0.0222661,-0.6459993,-2.720432,1.250824
0,0.977779,44,104,497,498,0.006770806,-0.0537133,-0.005011886,-1.480668,-2.631808,-1.518598,-0.06295241,0.06841366,0.01692446,-0.6462017,-2.719265,1.250688
0,0.9888902,44,104,497,498,0.00781658,-0.0579694,-0.006117333,-1.480506,-2.631076,-1.518792,-0.06299233,0.06094088,0.01269099,-0.6463268,-2.718497,1.250762
0,1.000001,44,104,497,498,0.009910727,-0.05901152,-0.009337663,-1.480286,-2.630497,-1.518892,-0.0576745,0.05667901,0.01588012,-0.6463013,-2.717408,1.250482
0,1.011112,44,104,497,498,0.01096076,-0.05900586,-0.01146622,-1.480221,-2.629776,-1.519151,-0.06192094,0.05883145,0.01801819,-0.6462842,-2.716175,1.250297
0,1.022224,44,104,497,498,0.009883903,-0.05258986,-0.01461044,-1.47994,-2.629367,-1.519288,-0.05977689,0.05352952,0.02655248,-0.6459428,-2.71517,1.25011
0,1.033335,44,104,497,498,0.008776687,-0.04722188,-0.01988842,-1.479611,-2.629032,-1.519209,-0.06081524,0.05250081,0.03721386,-0.6454315,-2.714059,1.250069
0,1.044446,44,104,497,498,0.004528273,-0.03868182,-0.02085964,-1.479351,-2.628847,-1.519168,-0.06185817,0.04403333,0.05109806,-0.6446192,-2.713173,1.250083
0,1.055557,44,104,497,498,0.003470561,-0.02907482,-0.02184578,-1.479173,-2.628898,-1.519082,-0.0618999,0.03234524,0.0575385,-0.643898,-2.71243,1.250566
0,1.066668,44,104,497,498,-0.0007603494,-0.01734608,-0.02173012,-1.478962,-2.629058,-1.518938,-0.05983805,0.01952725,0.05012126,-0.6435018,-2.712384,1.251146
0,1.077779,44,104,497,498,-0.00606336,0.000794498,-0.02368493,-1.478795,-2.629578,-1.518628,-0.05777279,0.008856811,0.04589293,-0.643098,-2.712255,1.251847
0,1.08889,44,104,497,498,-0.01133503,0.01891015,-0.02245045,-1.478638,-2.63027,-1.518292,-0.05783837,-0.001827538,0.03741018,-0.6428434,-2.712668,1.252817
0,1.100002,44,104,497,498,-0.01235605,0.0413142,-0.0244228,-1.478357,-2.631522,-1.518089,-0.05150739,-0.01146446,0.02996541,-0.6425664,-2.713148,1.253657
0,1.111113,44,104,497,498,-0.01871425,0.04985739,-0.0243116,-1.478149,-2.632335,-1.517794,-0.05262164,-0.02531362,0.02895531,-0.6420988,-2.713935,1.254916
0,1.122224,44,104,497,498,-0.0218837,0.05945469,-0.0242167,-1.477897,-2.633298,-1.517419,-0.05157292,-0.03276622,0.03110968,-0.6415555,-2.714603,1.256002
0,1.133335,44,104,497,498,-0.02716632,0.07224289,-0.02409089,-1.477648,-2.634329,-1.517032,-0.05370579,-0.03700857,0.03432902,-0.6409499,-2.715201,1.257127
0,1.144446,44,104,497,498,-0.03034795,0.07010712,-0.02194511,-1.477485,-2.635062,-1.51658,-0.05477376,-0.04019308,0.03647527,-0.6403315,-2.715741,1.258199
0,1.155557,44,104,497,498,-0.03241935,0.06900153,-0.01553923,-1.477675,-2.635782,-1.51618,-0.05900729,-0.03482047,0.04287372,-0.6395496,-2.715462,1.258923
0,1.166668,44,104,497,498,-0.03033466,0.0604988,-0.01880478,-1.477335,-2.636227,-1.515952,-0.06112441,-0.02949103,0.04179637,-0.6390846,-2.715541,1.259717
0,1.17778,44,104,497,498,-0.03038869,0.03489656,-0.01793045,-1.477102,-2.635652,-1.515567,-0.0621894,-0.02203864,0.03751493,-0.6387581,-2.715258,1.260322
0,1.188891,44,104,497,498,-0.0272561,0.01252516,-0.01916995,-1.476799,-2.635237,-1.515415,-0.06114811,-0.0199432,0.02898087,-0.6386181,-2.715504,1.261181
0,1.200002,44,104,497,498,-0.02514316,-0.01203014,-0.01401319,-1.476782,-2.634226,-1.515468,-0.05907056,-0.02105577,0.01831379,-0.6387128,-2.716114,1.262418
0,1.211113,44,104,497,498,-0.01877555,-0.02163684,-0.01413285,-1.476617,-2.633753,-1.515401,-0.05802618,-0.01683371,0.008706527,-0.6388487,-2.716292,1.263176
0,1.222224,44,104,497,498,-0.01775634,-0.04401221,-0.01215938,-1.476486,-2.632786,-1.515386,-0.05800798,-0.005139761,0.003342967,-0.6389051,-2.715975,1.263565
0,1.233335,44,104,497,498,-0.01353007,-0.06427107,-0.009145977,-1.476306,-2.63178,-1.515343,-0.05688295,0.004482999,0.01182533,-0.638642,-2.715198,1.263556
0,1.244446,44,104,497,498,-0.01144146,-0.09092556,-0.007198899,-1.476281,-2.630071,-1.515237,-0.06000418,0.02155779,0.01709965,-0.6385355,-2.713934,1.2633
0,1.255558,44,104,497,498,-0.01147093,-0.1037057,-0.00726988,-1.476252,-2.628705,-1.51516,-0.05995407,0.03436098,0.02344053,-0.6383752,-2.712796,1.263278
0,1.266669,44,104,497,498,-0.006189555,-0.1228998,-0.006388076,-1.476057,-2.626782,-1.515515,-0.05777434,0.0471454,0.0255156,-0.6383262,-2.711271,1.262656
0,1.27778,44,104,497,498,-0.004058118,-0.1314449,-0.003279194,-1.475969,-2.625197,-1.515764,-0.05666004,0.04929591,0.02759881,-0.6387507,-2.710133,1.261842
0,1.288891,44,104,497,498,-0.00191512,-0.1389144,-0.001191144,-1.475985,-2.623575,-1.515676,-0.05352009,0.04391979,0.01695414,-0.6389589,-2.709594,1.261919
0,1.300002,44,104,497,498,-0.005105563,-0.1410632,0.002000784,-1.475981,-2.621873,-1.515782,-0.04717395,0.03746943,0.006306583,-0.6391746,-2.709265,1.261812
0,1.311113,44,104,497,498,-0.005050831,-0.137912,0.008400057,-1.476108,-2.620417,-1.515947,-0.04614607,0.03424282,-0.001142519,-0.639458,-2.708914,1.262012
0,1.322224,44,104,497,498,0.0003638621,-0.1262279,0.01269585,-1.476202,-2.619414,-1.516265,-0.04614408,0.03421267,-0.01179226,-0.6399725,-2.708267,1.261412
0,1.333336,44,104,497,498,-0.000638864,-0.1198739,0.01699011,-1.476185,-2.618043,-1.516541,-0.04291994,0.035275,-0.01180689,-0.6402308,-2.707489,1.260791
0,1.344447,44,104,497,498,-0.000584166,-0.111362,0.01920261,-1.476532,-2.617029,-1.516407,-0.04077541,0.03952913,-0.01183014,-0.6405312,-2.706668,1.260517
0,1.355558,44,104,497,498,0.001565785,-0.09858639,0.01819067,-1.476607,-2.616174,-1.516785,-0.0343088,0.04699918,-0.00867415,-0.6407198,-2.704936,1.258748
0,1.366669,44,104,497,498,0.002692817,-0.08049476,0.02042464,-1.476814,-2.615684,-1.516999,-0.03536047,0.05232523,-0.009754986,-0.6410692,-2.703865,1.258307
0,1.37778,44,104,497,498,0.005914793,-0.07304966,0.02151083,-1.47704,-2.615105,-1.517218,-0.03428605,0.05339772,-0.01295132,-0.6414756,-2.702475,1.257284
0,1.388891,44,104,497,498,0.003840719,-0.06027313,0.02375617,-1.477416,-2.614702,-1.517062,-0.02896075,0.05656441,-0.0161781,-0.6419384,-2.701482,1.25667
0,1.400002,44,104,497,498,0.007063442,-0.04641518,0.02274154,-1.477443,-2.614681,-1.517361,-0.02469984,0.05865613,-0.02260803,-0.6427513,-2.700769,1.256039
0,1.411114,44,104,497,498,0.004939975,-0.04001225,0.02172795,-1.477501,-2.614391,-1.517528,-0.01726531,0.05438443,-0.02366667,-0.6429936,-2.699542,1.255149
0,1.422225,44,104,497,498,0.00711113,-0.02616685,0.02287951,-1.477983,-2.614549,-1.517398,-0.01515613,0.04904712,-0.02472032,-0.6434069,-2.69906,1.254876
0,1.433336,44,104,497,498,0.006086676,-0.01016378,0.02193806,-1.47833,-2.615014,-1.517569,-0.009841993,0.03732096,-0.02363529,-0.6437467,-2.698917,1.254398
0,1.444447,44,104,497,498,0.009291094,0.0004911202,0.01985157,-1.478423,-2.615263,-1.517889,-0.007702953,0.03519878,-0.01937414,-0.6439619,-2.698425,1.254029
0,1.455558,44,104,497,498,0.005045699,0.007983471,0.01887077,-1.478694,-2.61569,-1.517737,-0.007695951,0.03306767,-0.02149865,-0.6444275,-2.697918,1.253391
0,1.466669,44,104,497,498,0.006080241,0.01334665,0.01356371,-1.478719,-2.615996,-1.517733,0.001901137,0.02773643,-0.0140571,-0.6444402,-2.697657,1.252894
0,1.47778,44,104,497,498,0.009274587,0.01868542,0.0103793,-1.478721,-2.616341,-1.518201,0.002969019,0.02028684,-0.01403863,-0.6447289,-2.697456,1.252289
0,1.488891,44,104,497,498,0.01032806,0.01976287,0.008239382,-1.478656,-2.616611,-1.518378,0.007209389,0.01281957,-0.01296175,-0.644812,-2.697605,1.252211
0,1.500003,44,104,497,498,0.009255881,0.0261825,0.005093548,-1.478658,-2.617127,-1.518426,0.008276733,0.009621629,-0.01401648,-0.6450219,-2.697503,1.251774
0,1.511114,44,104,497,498,0.008173893,0.03047876,0.0008747268,-1.47865,-2.617629,-1.51857,0.01252703,-0.001028648,-0.01293629,-0.6452216,-2.697758,1.251441
0,1.522225,44,104,497,498,0.006024474,0.03370143,-0.00228028,-1.478565,-2.618098,-1.51857,0.01357046,-0.005301047,-0.01505521,-0.6453766,-2.698132,1.251577
0,1.533336,44,104,497,498,0.008158601,0.03478592,-0.003352252,-1.478626,-2.618743,-1.518788,0.01250686,-0.008467866,-0.01290843,-0.6454661,-2.698005,1.251296
0,1.544447,44,104,497,498,0.00597457,0.03910266,-0.01076206,-1.478354,-2.619318,-1.518729,0.01251497,-0.009521583,-0.009708707,-0.6454331,-2.698235,1.251314
0,1.555558,44,104,497,498,0.007042142,0.03910276,-0.01078509,-1.478048,-2.619804,-1.518851,0.009343252,-0.007359859,-0.003297656,-0.6451183,-2.698117,1.25127
0,1.566669,44,104,497,498,0.007030751,0.04124867,-0.01290669,-1.477835,-2.620342,-1.518868,0.008285016,-0.005225749,-0.003301559,-0.6451417,-2.698172,1.251234
0,1.577781,44,104,497,498,0.008077292,0.03804922,-0.01399973,-1.47769,-2.620585,-1.518957,0.008290182,-0.005210374,-0.003304446,-0.6452749,-2.697963,1.25088
0,1.588892,44,104,497,498,0.01020442,0.03271193,-0.01299198,-1.477533,-2.620828,-1.519119,0.006171613,-0.006253139,0.0009682962,-0.6451327,-2.698025,1.250916
0,1.600003,44,104,497,498,0.008082557,0.03165388,-0.01191113,-1.477516,-2.621299,-1.51913,0.01151266,-0.008391241,0.002022476,-0.6450804,-2.698084,1.250439
0,1.611114,44,104,497,498,0.00913173,0.02526008,-0.01196246,-1.477372,-2.621427,-1.519259,0.007255413,-0.008373193,0.003103249,-0.6449846,-2.698194,1.250567
0,1.622225,44,104,497,498,0.009104496,0.01993954,-0.01305708,-1.477321,-2.621522,-1.519298,0.00836366,-0.00304175,0.004146259,-0.6449659,-2.697854,1.249852
0,1.633336,44,104,497,498,0.01125931,0.01991082,-0.01095661,-1.477088,-2.621649,-1.519552,0.008358818,-0.003043354,0.003075539,-0.6450293,-2.697917,1.249823
0,1.644447,44,104,497,498,0.008091178,0.01989728,-0.007733159,-1.477093,-2.621857,-1.519542,0.007295996,0.001209694,-0.0001320022,-0.6451396,-2.697746,1.249632
0,1.655559,44,104,497,498,0.01131141,0.01774439,-0.005650683,-1.476998,-2.62201,-1.519909,0.007272878,0.00120793,-0.002260537,-0.6452083,-2.697618,1.249667
0,1.66667,44,104,497,498,0.008139082,0.008129681,-0.0003655048,-1.47705,-2.621858,-1.519942,0.008332511,0.006507607,-0.008675504,-0.6455087,-2.697425,1.249393
0,1.677781,44,104,497,498,0.00708386,0.00598905,0.0006981271,-1.477121,-2.621799,-1.520098,0.005174611,0.01398703,-0.007612191,-0.6455215,-2.696644,1.248646
0,1.688892,44,104,497,498,0.008160637,-0.0004262235,0.003841867,-1.477222,-2.621641,-1.520247,0.003053173,0.0214355,-0.01189296,-0.6458752,-2.696084,1.248217
0,1.700003,44,104,497,498,0.008141262,-0.004695664,0.004880003,-1.477312,-2.621455,-1.520114,0.002027427,0.02462761,-0.01083117,-0.6459439,-2.695803,1.247624
0,1.711114,44,104,497,498,0.008136524,-0.0110921,0.005899789,-1.477364,-2.6212,-1.520271,0.007361995,0.02355641,-0.007650778,-0.6460009,-2.695395,1.247072
0,1.722225,44,104,497,498,0.009234667,-0.01433744,0.01226335,-1.477697,-2.620892,-1.52024,0.008423168,0.01823656,-0.008702532,-0.6462278,-2.69506,1.246426
0,1.733337,44,104,497,498,0.009203372,-0.02286159,0.01222779,-1.478103,-2.620377,-1.520251,0.01049812,0.008624047,-0.01505684,-0.6464014,-2.695268,1.24642
0,1.744448,44,104,497,498,0.008141767,-0.02499671,0.01328778,-1.478246,-2.620039,-1.520348,0.01154118,0.005412888,-0.01824476,-0.6466709,-2.695467,1.246407
0,1.755559,44,104,497,498,0.009219878,-0.02287735,0.0143646,-1.478501,-2.619805,-1.520459,0.01258913,0.005372221,-0.024623,-0.6467934,-2.695751,1.246408
0,1.76667,44,104,497,498,0.00708374,-0.02179878,0.01332245,-1.47857,-2.619621,-1.520516,0.01258561,0.004306935,-0.02461905,-0.6470523,-2.695894,1.24637
0,1.777781,44,104,497,498,0.01027265,-0.02180406,0.01329903,-1.478764,-2.619387,-1.520623,0.01470693,0.008568086,-0.02676699,-0.6474161,-2.695349,1.245953
0,1.788892,44,104,497,498,0.01134837,-0.01648573,0.01333566,-1.479061,-2.619269,-1.520756,0.01259822,0.01284415,-0.02464445,-0.6477085,-2.695043,1.245607
0,1.800003,44,104,497,498,0.009207647,-0.01542467,0.01335072,-1.479024,-2.618982,-1.520576,0.01476783,0.01817609,-0.02147456,-0.6479279,-2.694565,1.244857
0,1.811115,44,104,497,498,0.0123831,-0.009012179,0.009105244,-1.479028,-2.619064,-1.520782,0.01160198,0.02140212,-0.0161483,-0.6480557,-2.694076,1.244424
0,1.822226,44,104,497,498,0.01238309,-0.00794396,0.008043922,-1.479064,-2.61893,-1.521037,0.009496754,0.02461791,-0.01295684,-0.6482469,-2.693573,1.243923
0,1.833337,44,104,497,498,0.01771418,-0.007963655,0.007995185,-1.479083,-2.618745,-1.521465,0.005260145,0.02146582,-0.005468831,-0.6481702,-2.693196,1.243561
0,1.844448,44,104,497,498,0.01451292,-0.01008621,0.008008432,-1.479151,-2.618577,-1.521551,0.0009954832,0.0204147,-0.005449408,-0.6482848,-2.692903,1.243426
0,1.855559,44,104,497,498,0.01663267,-0.005817676,0.004824814,-1.479159,-2.618496,-1.521888,0.006339387,0.024647,-0.007623019,-0.6486582,-2.692521,1.242732
0,1.86667,44,104,497,498,0.01765403,-0.0121902,0.001576995,-1.479091,-2.618131,-1.522137,0.005260985,0.02888439,-0.01509177,-0.6491556,-2.692062,1.24235
0,1.877781,44,104,497,498,0.01870239,-0.01325631,0.0004979838,-1.479088,-2.617888,-1.522312,0.007389398,0.02886678,-0.01723171,-0.6494965,-2.691781,1.241883
0,1.888893,44,104,497,498,0.0187244,-0.01540852,0.003679243,-1.479196,-2.617631,-1.522552,0.009527104,0.01931106,-0.006551483,-0.6492925,-2.69173,1.241672
0,1.900004,44,104,497,498,0.0186676,-0.01963357,-0.001675482,-1.478992,-2.617292,-1.522782,0.004248094,0.01299611,0.008398311,-0.6489506,-2.691413,1.241275
0,1.911115,44,104,497,498,0.01865291,-0.02176936,-0.001689241,-1.479026,-2.616809,-1.522846,0.005347518,0.008775786,0.02118505,-0.6485698,-2.691257,1.241022
0,1.922226,44,104,497,498,0.02184836,-0.0207106,-0.0006321464,-1.479263,-2.616906,-1.523032,0.005366251,0.01091802,0.02437309,-0.648264,-2.690813,1.240595
0,1.933337,44,104,497,498,0.02073434,-0.02601335,-0.002793619,-1.479037,-2.616574,-1.522945,0.003211232,0.01198262,0.01799102,-0.6483077,-2.690114,1.2401
0,1.944448,44,104,497,498,0.02388511,-0.02918845,-0.007103745,-1.478829,-2.616178,-1.523325,0.005287709,0.01085988,0.004138471,-0.6486145,-2.690134,1.24
0,1.955559,44,104,497,498,0.02282987,-0.02918882,-0.006036662,-1.478632,-2.61597,-1.523599,0.005251497,0.01295794,-0.005448521,-0.6488265,-2.689894,1.239843
0,1.966671,44,104,497,498,0.02069117,-0.03237927,-0.006039712,-1.478562,-2.615525,-1.523816,0.00100839,0.01723715,-0.004383283,-0.648941,-2.689437,1.239578
0,1.977782,44,104,497,498,0.02176449,-0.03024181,-0.006033386,-1.478519,-2.615449,-1.524141,-0.003213007,0.0215542,0.002013137,-0.6488653,-2.688278,1.238771
0,1.988893,44,104,497,498,0.01750709,-0.03236885,-0.004945853,-1.478462,-2.615031,-1.524267,-0.00427416,0.01839758,0.01375548,-0.6483274,-2.687945,1.238983
0,2.000004,44,104,497,498,0.01535178,-0.02913344,-0.009166702,-1.478248,-2.614903,-1.524462,-0.005296292,0.01738214,0.02654663,-0.6477996,-2.687327,1.238562
0,2.011115,44,104,497,498,0.01642518,-0.0259403,-0.009154537,-1.478139,-2.614705,-1.524691,-0.003173321,0.01738436,0.02760721,-0.6475663,-2.686687,1.238206
0,2.022226,44,104,497,498,0.01431141,-0.02595785,-0.006997977,-1.478252,-2.614251,-1.524811,-0.006394994,0.01312234,0.02443844,-0.6474123,-2.686546,1.238244
0,2.033337,44,104,497,498,0.01110005,-0.02165519,-0.0101423,-1.477947,-2.614381,-1.524865,-0.004267111,0.01095855,0.01909908,-0.6475103,-2.686691,1.237982
0,2.044448,44,104,497,498,0.01112296,-0.01633604,-0.009041172,-1.477871,-2.614326,-1.524977,-5.375035E-05,0.002402789,0.01378809,-0.6474336,-2.687002,1.238122
0,2.055559,44,104,497,498,0.009006185,-0.009949493,-0.00791453,-1.477809,-2.614332,-1.524831,0.001016552,0.002402242,0.01164924,-0.6474768,-2.686673,1.237641
0,2.06667,44,104,497,498,0.00691144,-0.006769881,-0.004678954,-1.477841,-2.614334,-1.524849,-0.001107289,0.005601354,0.01058013,-0.6474544,-2.686402,1.237496
0,2.077781,44,104,497,498,0.003747386,-0.00143,-0.003548367,-1.47786,-2.614681,-1.524923,-6.228779E-05,0.007718583,0.006308365,-0.647553,-2.686062,1.237373
0,2.088892,44,104,497,498,0.004798801,0.003915248,-0.006717441,-1.477699,-2.614884,-1.524979,-0.005368904,0.006694148,0.01272331,-0.6472685,-2.685815,1.237374
0,2.100003,44,104,497,498,0.003757874,0.006039876,-0.005632551,-1.477595,-2.614977,-1.52515,-0.004289689,0.005645603,0.01805509,-0.6468611,-2.685547,1.237196
0,2.111114,44,104,497,498,0.002704531,0.007100627,-0.004550969,-1.477558,-2.615111,-1.525131,-0.005388923,-0.001814302,0.01808454,-0.6466256,-2.68601,1.237803
0,2.122225,44,104,497,498,0.002701174,0.01031274,-0.006660406,-1.477439,-2.615342,-1.525249,-0.009660302,-0.006057361,0.01918095,-0.6463327,-2.68618,1.238167
0,2.133336,44,104,497,498,-0.0004747037,0.01030117,-0.004497868,-1.477499,-2.615374,-1.52518,-0.007545822,-0.007141336,0.01705649,-0.6460515,-2.686237,1.238313
0,2.144447,44,104,497,498,-0.000431082,0.01134043,-0.0002248771,-1.477701,-2.615558,-1.525253,-0.006492945,-0.005033833,0.01171836,-0.6460797,-2.686227,1.238349
0,2.155558,44,104,497,498,-0.001526833,0.008171833,-0.003432313,-1.477588,-2.615615,-1.525258,-0.009709656,-0.005033021,0.006396131,-0.646256,-2.686173,1.238512
0,2.166669,44,104,497,498,-0.004741772,0.0007229585,-0.003454857,-1.477547,-2.615434,-1.525145,-0.009728044,-0.008236642,0.004277259,-0.6461942,-2.68644,1.238834
0,2.17778,44,104,497,498,-0.002619776,-0.00353552,-0.004572394,-1.477392,-2.615309,-1.525363,-0.011841,-0.005030195,0.002143295,-0.6462634,-2.686095,1.238506
0,2.188891,44,104,497,498,-0.004735484,-0.01208107,-0.0003503746,-1.477481,-2.614963,-1.525277,-0.01290086,-0.0007601976,0.001067143,-0.646346,-2.685737,1.238437
0,2.200002,44,104,497,498,-0.004754747,-0.01313731,-0.001421361,-1.477456,-2.61485,-1.525108,-0.01182216,-0.001830164,0.006394592,-0.646003,-2.686176,1.238907
0,2.211113,44,104,497,498,-0.007949601,-0.01633224,-0.0003501282,-1.477467,-2.614569,-1.524961,-0.01180802,0.001369707,0.004246226,-0.646183,-2.685832,1.238585
0,2.222224,44,104,497,498,-0.007930033,-0.0206168,0.003890363,-1.477719,-2.614295,-1.524802,-0.01181972,0.001358058,0.001050376,-0.6462464,-2.685843,1.238724
0,2.233335,44,104,497,498,-0.007915279,-0.01849058,0.004963801,-1.477696,-2.614208,-1.52472,-0.01505163,0.00240376,-0.007462814,-0.6465143,-2.685928,1.239171
0,2.244446,44,104,497,498,-0.01003113,-0.01636187,0.006061751,-1.477791,-2.614081,-1.52455,-0.01612862,0.002395615,-0.01065478,-0.6467167,-2.686013,1.239445
0,2.255557,44,104,497,498,-0.01105764,-0.01317595,0.009278673,-1.477833,-2.614132,-1.524449,-0.01721981,0.006626764,-0.01918519,-0.64713,-2.685951,1.239734
0,2.266668,44,104,497,498,-0.01206324,-0.007882812,0.01464996,-1.478163,-2.614188,-1.524287,-0.01828094,0.01725183,-0.02774285,-0.6478033,-2.685494,1.239592
0,2.277779,44,104,497,498,-0.01634265,-0.008924762,0.01254972,-1.478233,-2.61402,-1.524049,-0.01933151,0.0236212,-0.0320331,-0.6484568,-2.685408,1.239639
0,2.28889,44,104,497,498,-0.01524342,-0.01002147,0.0167943,-1.478542,-2.613869,-1.523916,-0.01827646,0.02574568,-0.03523646,-0.6489633,-2.684886,1.239483
0,2.300001,44,104,497,498,-0.01843621,-0.01215778,0.01788034,-1.47886,-2.613554,-1.523655,-0.0161267,0.02786085,-0.03525434,-0.6494449,-2.68475,1.239323
0,2.311112,44,104,497,498,-0.02056849,-0.01642067,0.01893534,-1.479084,-2.613253,-1.523381,-0.01825216,0.03211214,-0.03739531,-0.6500361,-2.684514,1.239435
0,2.322223,44,104,497,498,-0.02385481,-0.02595054,0.01250801,-1.479028,-2.612787,-1.522887,-0.01612231,0.03422783,-0.03954144,-0.6506614,-2.684077,1.239195
0,2.333334,44,104,497,498,-0.02602211,-0.03341458,0.01246261,-1.47894,-2.612063,-1.522353,-0.003343083,0.02780544,-0.038497,-0.6510944,-2.683841,1.238538
0,2.344445,44,104,497,498,-0.02714256,-0.044043,0.009204023,-1.478911,-2.611301,-1.522113,0.006196033,0.009675324,-0.0352697,-0.651259,-2.684562,1.238802
0,2.355556,44,104,497,498,-0.0260887,-0.0493884,0.009156409,-1.478955,-2.610415,-1.521976,0.01148587,-0.002058461,-0.03310535,-0.6512718,-2.685249,1.239183
0,2.366668,44,104,497,498,-0.02715289,-0.05258875,0.01020954,-1.479063,-2.609729,-1.521714,0.02101433,-0.02338453,-0.02986688,-0.6512217,-2.686673,1.23983
0,2.377779,44,104,497,498,-0.02395258,-0.05154792,0.01125665,-1.479206,-2.609064,-1.521479,0.02843563,-0.03619235,-0.02665944,-0.6512681,-2.688175,1.240613
0,2.38889,44,104,497,498,-0.01967553,-0.04943406,0.01229338,-1.479261,-2.60858,-1.521474,0.03269581,-0.03725845,-0.02667139,-0.6515141,-2.688663,1.240495
0,2.400001,44,104,497,498,-0.01752709,-0.03878737,0.01235245,-1.479471,-2.608409,-1.521159,0.03482285,-0.03833085,-0.02667528,-0.6516494,-2.689522,1.240738
0,2.411112,44,104,497,498,-0.0132392,-0.02920817,0.01237632,-1.479558,-2.608366,-1.521163,0.03697882,-0.03514026,-0.02563704,-0.6518971,-2.690231,1.240666
0,2.422223,44,104,497,498,-0.006815224,-0.00470423,0.009300097,-1.479761,-2.608873,-1.521136,0.03912818,-0.0330052,-0.02245674,-0.6519477,-2.690819,1.240629
0,2.433334,44,104,497,498,-0.004679034,0.007041749,0.007227788,-1.479792,-2.609465,-1.520981,0.04126731,-0.03298328,-0.01500855,-0.651814,-2.691324,1.240806
0,2.444445,44,104,497,498,-0.002497305,0.03047948,0.006301702,-1.479897,-2.610423,-1.52093,0.04232939,-0.03511354,-0.01393942,-0.6517873,-2.692059,1.24089
0,2.455556,44,104,497,498,0.0007376634,0.04646053,0.005316761,-1.480006,-2.611355,-1.521026,0.04654646,-0.04470991,-0.01285567,-0.6516659,-2.693264,1.241445
0,2.466667,44,104,497,498,0.00713719,0.07098866,-0.0009653452,-1.479877,-2.61286,-1.521157,0.05077212,-0.055377,-0.01283273,-0.6514939,-2.694732,1.241924
0,2.477778,44,104,497,498,0.01034686,0.09553288,-0.007221137,-1.479695,-2.61466,-1.521251,0.05074945,-0.06282301,-0.008545209,-0.6511807,-2.69617,1.242697
0,2.488889,44,104,497,498,0.01146178,0.1200445,-0.009195426,-1.47965,-2.616598,-1.521283,0.05394955,-0.06389133,-0.006422443,-0.650949,-2.697337,1.242928
0,2.5,44,104,497,498,0.01148171,0.1456469,-0.01435001,-1.479463,-2.618927,-1.521195,0.05503505,-0.06811791,0.004245213,-0.6506129,-2.698493,1.243173
0,2.511111,44,104,497,498,0.01043867,0.1552451,-0.0153453,-1.479292,-2.620826,-1.521209,0.05713225,-0.07877263,0.002141553,-0.6501362,-2.70005,1.243679
0,2.522222,44,104,497,498,0.01145358,0.1680902,-0.02485701,-1.4789,-2.623034,-1.521154,0.06137,-0.07880996,-0.004265675,-0.6500403,-2.701554,1.244094
0,2.533333,44,104,497,498,0.01148039,0.1734092,-0.02481936,-1.478767,-2.624979,-1.521305,0.06027788,-0.07884137,-0.01171223,-0.6499748,-2.703228,1.244806
0,2.544444,44,104,497,498,0.0114466,0.1734205,-0.02801651,-1.47846,-2.626769,-1.521166,0.06876613,-0.08208883,-0.01812336,-0.6500249,-2.704999,1.245229
0,2.555555,44,104,497,498,0.01145101,0.178754,-0.02904638,-1.478218,-2.62892,-1.521097,0.07089922,-0.09271748,-0.01170334,-0.6495812,-2.706824,1.245636
0,2.566666,44,104,497,498,0.009259912,0.1766718,-0.03543386,-1.477747,-2.630845,-1.52094,0.07094204,-0.09267513,1.476984E-05,-0.6489495,-2.708256,1.245981
0,2.577777,44,104,497,498,0.008188746,0.1734995,-0.03649475,-1.477658,-2.632873,-1.520985,0.06671651,-0.09475439,0.01069044,-0.6482065,-2.709783,1.246546
0,2.588888,44,104,497,498,0.007081913,0.1681973,-0.03971756,-1.477215,-2.634602,-1.520873,0.0635642,-0.09682428,0.02455847,-0.6471966,-2.711193,1.247047
0,2.599999,44,104,497,498,0.006008008,0.1553894,-0.03661292,-1.476795,-2.635962,-1.52074,0.06144043,-0.09575972,0.02135684,-0.6469228,-2.712732,1.247417
0,2.61111,44,104,497,498,0.006020693,0.1510962,-0.03238542,-1.476563,-2.637516,-1.520484,0.06139282,-0.09475839,0.004293647,-0.6471854,-2.714721,1.248135
0,2.622221,44,104,497,498,0.003872045,0.1404418,-0.03137288,-1.476288,-2.638811,-1.52036,0.05712776,-0.08306828,-0.007451344,-0.6473809,-2.715881,1.248529
0,2.633332,44,104,497,498,0.007059376,0.1265692,-0.02829825,-1.476098,-2.639969,-1.520406,0.05181129,-0.07027465,-0.01175441,-0.647651,-2.716587,1.248904
0,2.644443,44,104,497,498,0.0006613089,0.1063093,-0.02305292,-1.476017,-2.640631,-1.52018,0.0391042,-0.05316824,-0.006442647,-0.6475551,-2.7167,1.248941
0,2.655554,44,104,497,498,0.0006659031,0.09563112,-0.01993556,-1.475801,-2.641404,-1.520182,0.02745876,-0.04137531,0.00526706,-0.6471982,-2.716993,1.249295
0,2.666665,44,104,497,498,0.0006564066,0.07428982,-0.01475269,-1.475797,-2.641623,-1.52018,0.02007744,-0.0338437,0.01911618,-0.6465756,-2.717006,1.249289
0,2.677776,44,104,497,498,0.0006046486,0.05190885,-0.01383899,-1.475613,-2.641616,-1.520148,0.01372419,-0.02635403,0.01911714,-0.6463439,-2.716842,1.248939
0,2.688887,44,104,497,498,-0.000445239,0.04015767,-0.008582541,-1.475681,-2.641724,-1.520098,0.008391734,-0.01997123,0.01165664,-0.6464067,-2.716952,1.249076
0,2.699998,44,104,497,498,-0.002543388,0.01878885,0.0008713978,-1.475795,-2.641336,-1.520133,0.0009329151,-0.009338833,-0.003273741,-0.6470118,-2.716788,1.248834
0,2.711109,44,104,497,498,-0.0046679,0.0006352314,0.007146369,-1.475798,-2.640837,-1.520056,-0.002276963,-0.005103759,-0.01499543,-0.647472,-2.716842,1.248736
0,2.72222,44,104,497,498,-0.006792138,-0.01110603,0.01134712,-1.475995,-2.640424,-1.519956,-0.004427429,-0.00405415,-0.02138315,-0.6478353,-2.717074,1.24903
0,2.733331,44,104,497,498,-0.01212546,-0.0238986,0.01238046,-1.476213,-2.639657,-1.519991,-0.01183428,0.001322333,-0.01498297,-0.6478549,-2.716783,1.248979
0,2.744442,44,104,497,498,-0.01636638,-0.03030805,0.01663532,-1.476478,-2.639149,-1.519739,-0.01185273,-0.001881116,-0.01710211,-0.6480744,-2.717071,1.249344
0,2.755553,44,104,497,498,-0.0185314,-0.03561586,0.01555516,-1.476633,-2.638722,-1.519362,-0.01722419,-0.01038068,-0.01917536,-0.6481777,-2.717406,1.250078
0,2.766664,44,104,497,498,-0.02276225,-0.0345613,0.01879459,-1.476921,-2.638355,-1.519032,-0.01827457,-0.008238942,-0.01704853,-0.6482837,-2.717531,1.250405
0,2.777775,44,104,497,498,-0.024882,-0.03883271,0.02093469,-1.477443,-2.637771,-1.518801,-0.02254522,-0.0124839,-0.01702205,-0.6484424,-2.717934,1.251012
0,2.788886,44,104,497,498,-0.02702039,-0.0356243,0.01991507,-1.477689,-2.637462,-1.518377,-0.02358648,-0.006085895,-0.01702837,-0.6484893,-2.717748,1.251113
0,2.799997,44,104,497,498,-0.02809452,-0.0356144,0.01885955,-1.477871,-2.637046,-1.518066,-0.02461914,0.00138226,-0.01492061,-0.6486598,-2.717504,1.251229
0,2.811108,44,104,497,498,-0.0280921,-0.03455567,0.0199334,-1.478133,-2.636671,-1.517678,-0.02996572,0.003507417,-0.01917399,-0.6490054,-2.717737,1.252057
0,2.822219,44,104,497,498,-0.03128194,-0.03241697,0.01997595,-1.478349,-2.636352,-1.517262,-0.03099766,0.00885256,-0.01492799,-0.6491221,-2.717394,1.252141
0,2.83333,44,104,497,498,-0.02912825,-0.03349083,0.02102758,-1.478736,-2.635979,-1.517287,-0.032099,0.004591409,-0.01597184,-0.6492606,-2.717624,1.252969
0,2.844441,44,104,497,498,-0.03024559,-0.03237983,0.01465284,-1.478731,-2.635628,-1.516931,-0.03422638,0.006725315,-0.01703692,-0.6495056,-2.71753,1.253329
0,2.855552,44,104,497,498,-0.02918216,-0.03664284,0.01461307,-1.478853,-2.635103,-1.516634,-0.03313657,0.009906419,-0.01705268,-0.6497144,-2.717565,1.253473
0,2.866663,44,104,497,498,-0.02814305,-0.03769578,0.01245766,-1.478787,-2.634636,-1.516624,-0.03738352,0.0141818,-0.01705231,-0.6499684,-2.717246,1.253747
0,2.877774,44,104,497,498,-0.02602385,-0.03983032,0.01135965,-1.47885,-2.63406,-1.516496,-0.04052538,0.02274908,-0.008547507,-0.6499908,-2.716333,1.253652
0,2.888885,44,104,497,498,-0.02499293,-0.04300754,0.008135916,-1.478844,-2.633502,-1.516237,-0.0436831,0.02812279,-3.389269E-05,-0.6499828,-2.71543,1.253644
0,2.899997,44,104,497,498,-0.0186195,-0.04834118,0.008042986,-1.478884,-2.632921,-1.516221,-0.04472068,0.02709131,0.008496059,-0.649749,-2.71483,1.253682
0,2.911108,44,104,497,498,-0.01862931,-0.0536636,0.008005414,-1.478899,-2.632252,-1.516061,-0.04688323,0.02283434,0.007466895,-0.6495658,-2.71445,1.254165
0,2.922219,44,104,497,498,-0.01761489,-0.05896395,0.003699045,-1.478788,-2.631475,-1.515971,-0.04690842,0.01643886,0.006424366,-0.6495072,-2.714397,1.254639
0,2.93333,44,104,497,498,-0.01655182,-0.06003035,0.00368791,-1.478857,-2.630815,-1.515861,-0.04482107,0.0132123,3.715232E-05,-0.6496755,-2.714371,1.255195
0,2.944441,44,104,497,498,-0.01229716,-0.06217161,0.00363545,-1.47885,-2.630067,-1.515923,-0.04589771,0.01214302,-0.00208573,-0.6497762,-2.714235,1.255627
0,2.955552,44,104,497,498,-0.01333346,-0.06003083,0.004729455,-1.47899,-2.629665,-1.515972,-0.04376955,0.01745946,-0.00531138,-0.650076,-2.713561,1.255639
0,2.966663,44,104,497,498,-0.00907409,-0.06110696,0.004687491,-1.479007,-2.628939,-1.516027,-0.04802046,0.01853933,3.180187E-05,-0.6498513,-2.713567,1.256485
0,2.977774,44,104,497,498,-0.01011658,-0.06325354,0.006819829,-1.479181,-2.628111,-1.516144,-0.0511655,0.03027956,0.003197508,-0.6499402,-2.712522,1.256287
0,2.988885,44,104,497,498,-0.009073049,-0.0611042,0.00362967,-1.47909,-2.627502,-1.516111,-0.05220185,0.03453518,0.002117973,-0.6501357,-2.711921,1.25612
0,2.999996,44,104,497,498,-0.008001152,-0.05898528,0.003631035,-1.479048,-2.626777,-1.516167,-0.05217308,0.04199596,0.003156617,-0.6502704,-2.710834,1.255808
0,3.011107,44,104,497,498,-0.003741173,-0.05898831,0.003602097,-1.479156,-2.626215,-1.516211,-0.0500062,0.0441414,0.007405784,-0.6502209,-2.709747,1.25524
0,3.022218,44,104,497,498,-0.003750914,-0.05898117,0.002535889,-1.479101,-2.625561,-1.516237,-0.04894447,0.04307255,0.007405694,-0.6502576,-2.709011,1.255185
0,3.033329,44,104,497,498,-0.004822581,-0.05792298,0.003607726,-1.47903,-2.624925,-1.515966,-0.04792174,0.0345148,0.002109311,-0.6502891,-2.709063,1.25565
0,3.04444,44,104,497,498,-0.003739391,-0.05473702,0.004685986,-1.479098,-2.624404,-1.515982,-0.04365315,0.03556962,0.003155198,-0.6503535,-2.708372,1.255476
0,3.055551,44,104,497,498,-0.004768066,-0.05155285,0.006860085,-1.479407,-2.623882,-1.516076,-0.04370512,0.02812042,0.00105611,-0.6503935,-2.707796,1.255794
0,3.066662,44,104,497,498,-0.00688965,-0.05155463,0.007943266,-1.479519,-2.623302,-1.515996,-0.03835389,0.02704486,0.003171223,-0.6503823,-2.707303,1.255381
0,3.077773,44,104,497,498,-0.007916166,-0.05157675,0.01114975,-1.479716,-2.622652,-1.516106,-0.03624463,0.02064603,0.00318625,-0.6503679,-2.707162,1.255635
0,3.088884,44,104,497,498,-0.006847427,-0.04839183,0.01115475,-1.479701,-2.622036,-1.51608,-0.03729734,0.02277861,0.001051321,-0.6505442,-2.706569,1.255411
0,3.099995,44,104,497,498,-0.007900387,-0.04733093,0.0122369,-1.479843,-2.62153,-1.516,-0.03729699,0.02171712,0.002120405,-0.6505538,-2.706192,1.255528
0,3.111106,44,104,497,498,-0.004702208,-0.04305013,0.01009785,-1.479747,-2.621344,-1.516215,-0.03299759,0.02810866,0.003148579,-0.6506774,-2.705157,1.254769
0,3.122217,44,104,497,498,-0.00789867,-0.03983894,0.009081895,-1.479807,-2.620981,-1.516061,-0.03405077,0.02706209,0.007417411,-0.6505809,-2.704604,1.25474
0,3.133328,44,104,497,498,-0.004719785,-0.04303794,0.006911553,-1.479924,-2.620249,-1.516288,-0.03513737,0.02280876,0.009577742,-0.6503354,-2.704319,1.255147
0,3.144439,44,104,497,498,-0.005768868,-0.04091545,0.006934092,-1.479975,-2.619673,-1.516384,-0.03302922,0.0195944,0.006385493,-0.6503908,-2.704108,1.25529
0,3.15555,44,104,497,498,-0.004706542,-0.03984333,0.005860118,-1.479887,-2.61929,-1.516444,-0.02664906,0.01849556,0.004213911,-0.6507493,-2.704076,1.255399
0,3.166661,44,104,497,498,-0.002612609,-0.04089519,0.003706427,-1.479878,-2.618871,-1.516293,-0.0266671,0.01848402,-4.717737E-05,-0.6509144,-2.703718,1.25544
0,3.177772,44,104,497,498,-0.002630549,-0.04088086,0.001576634,-1.479814,-2.61842,-1.516283,-0.02665407,0.0216745,0.003143484,-0.6507237,-2.703484,1.255709
0,3.188883,44,104,497,498,0.0005741525,-0.04088704,0.001534525,-1.479596,-2.617999,-1.516547,-0.02346682,0.0174148,0.005275466,-0.6506763,-2.70321,1.255712
0,3.199994,44,104,497,498,-0.001577379,-0.04193255,-0.0005845378,-1.479511,-2.617501,-1.516502,-0.02241931,0.01208481,0.005290559,-0.6506065,-2.703202,1.255924
0,3.211105,44,104,497,498,0.000546698,-0.03979861,-0.001665614,-1.479279,-2.617159,-1.516575,-0.01922775,0.01206574,0.00209635,-0.6505261,-2.702809,1.255633
0,3.222216,44,104,497,498,0.001623023,-0.03554024,-0.001646211,-1.479228,-2.616879,-1.51665,-0.01497588,0.01628993,-0.004326126,-0.6508095,-2.702437,1.255409
0,3.233327,44,104,497,498,0.001617177,-0.03340607,-0.001628792,-1.479236,-2.616598,-1.516516,-0.01181185,0.01199217,-0.009649683,-0.6510246,-2.702715,1.255656
0,3.244438,44,104,497,498,0.003713399,-0.02911469,-0.006943849,-1.479028,-2.616415,-1.516593,-0.01179263,0.01307255,-0.005392338,-0.6510316,-2.702437,1.255574
0,3.255549,44,104,497,498,0.003745833,-0.02379159,-0.004769937,-1.479149,-2.61644,-1.516677,-0.0149496,0.01419123,0.003132177,-0.6509735,-2.70174,1.255229
0,3.26666,44,104,497,498,0.002703681,-0.01846972,-0.003659646,-1.479128,-2.616391,-1.516668,-0.01491005,0.01421145,0.0148533,-0.6504797,-2.701731,1.255419
0,3.277771,44,104,497,498,0.001622948,-0.01634048,-0.00470341,-1.479011,-2.616089,-1.516486,-0.01383511,0.008907819,0.02232528,-0.6500307,-2.701577,1.255423
0,3.288882,44,104,497,498,0.00271666,-0.008893426,-0.003597558,-1.479001,-2.61621,-1.516561,-0.01385397,0.005695427,0.02021057,-0.6498214,-2.701699,1.255684
0,3.299993,44,104,497,498,0.002711225,-0.004619769,-0.004621908,-1.479102,-2.616343,-1.516481,-0.008610975,-0.002897537,0.005307322,-0.6500558,-2.702309,1.256114
0,3.311104,44,104,497,498,0.001670702,-0.0003567969,-0.002447363,-1.479234,-2.616619,-1.51636,-0.005475418,-0.006140775,-0.004281689,-0.6503045,-2.702778,1.256683
0,3.322215,44,104,497,498,-0.0004367728,0.004967843,-0.001328048,-1.479243,-2.616817,-1.516293,-0.005505705,-0.009355528,-0.009596726,-0.6504867,-2.703249,1.257119
0,3.333326,44,104,497,498,-0.001486785,0.01242893,-0.001259254,-1.479383,-2.617133,-1.516134,-0.01187275,-0.01039519,-0.006382491,-0.6504973,-2.703617,1.257493
0,3.344437,44,104,497,498,-0.006814186,0.01351487,-0.001209078,-1.479347,-2.617407,-1.515815,-0.01077291,-0.00824181,0.001063016,-0.6502992,-2.70356,1.257533
0,3.355548,44,104,497,498,-0.006792452,0.01565973,-0.00120772,-1.479129,-2.617839,-1.515965,-0.01079742,-0.01782779,0.005364301,-0.6498454,-2.704458,1.25849
0,3.366659,44,104,497,498,-0.0100079,0.01781683,-0.004362527,-1.47904,-2.618069,-1.515767,-0.01185142,-0.01248585,0.007487804,-0.6496371,-2.704231,1.258687
0,3.37777,44,104,497,498,-0.0110513,0.01887047,-0.002222356,-1.478973,-2.618309,-1.515608,-0.01293558,-0.0146242,0.004303456,-0.6495951,-2.704566,1.259129
0,3.388881,44,104,497,498,-0.01319347,0.02100566,-0.004316819,-1.478934,-2.618381,-1.515428,-0.009773022,-0.01678307,-0.001026201,-0.6496542,-2.705,1.259599
0,3.399992,44,104,497,498,-0.01423399,0.01992161,-0.001119083,-1.479019,-2.618579,-1.515232,-0.006609889,-0.02425835,-0.003141844,-0.6496004,-2.705773,1.260212
0,3.411103,44,104,497,498,-0.01315845,0.02099077,-0.001115906,-1.479098,-2.618953,-1.515185,-0.006612765,-0.02747522,-0.008457727,-0.6497011,-2.706535,1.26049
0,3.422215,44,104,497,498,-0.01953438,0.01992742,0.001062618,-1.479188,-2.619128,-1.514773,-0.005544294,-0.025352,-0.0095345,-0.6497517,-2.706973,1.260874
0,3.433326,44,104,497,498,-0.01848349,0.01780151,-2.279412E-05,-1.479202,-2.619247,-1.514621,-0.007675661,-0.02430023,-0.01059879,-0.6497751,-2.707811,1.261696
0,3.444437,44,104,497,498,-0.01847564,0.014588,0.002096614,-1.479427,-2.619277,-1.514388,-0.007668555,-0.02216965,-0.01060637,-0.6498182,-2.708181,1.262071
0,3.455548,44,104,497,498,-0.01633491,0.01456202,0.004196797,-1.479382,-2.619333,-1.514147,-0.007652804,-0.01686002,-0.01277151,-0.6501607,-2.708703,1.262464
0,3.466659,44,104,497,498,-0.01741176,0.01030363,0.004178974,-1.47945,-2.61933,-1.513916,-0.01084254,-0.01151707,-0.0106539,-0.6502736,-2.708846,1.263071
0,3.47777,44,104,497,498,-0.01634651,0.009251668,0.003098108,-1.479461,-2.619527,-1.51391,-0.015062,-0.007215328,-0.003196378,-0.6501341,-2.708743,1.263252
0,3.488881,44,104,497,498,-0.01638969,0.002906826,-0.00119954,-1.479432,-2.619673,-1.513845,-0.01399001,-0.009364747,-0.003198232,-0.6501421,-2.709441,1.263718
0,3.499992,44,104,497,498,-0.01743937,0.001829912,0.0009329878,-1.47951,-2.619644,-1.513627,-0.01080837,-0.01363659,-0.003194851,-0.6500819,-2.709857,1.264071
0,3.511103,44,104,497,498,-0.0152982,-0.001380792,0.001946349,-1.47938,-2.61951,-1.513671,-0.008710814,-0.02323152,-0.006362065,-0.6501192,-2.71043,1.264393
0,3.522214,44,104,497,498,-0.01740206,0.001806156,0.004116595,-1.479486,-2.6196,-1.513423,-0.002367534,-0.03073247,-0.01275083,-0.6502651,-2.711416,1.265033
0,3.533325,44,104,497,498,-0.01738371,0.005012355,0.00412949,-1.479431,-2.619882,-1.513343,-0.001310978,-0.0318309,-0.01701146,-0.6503572,-2.712438,1.265694
0,3.544436,44,104,497,498,-0.01629325,0.003921773,0.007310793,-1.479614,-2.619874,-1.513198,-0.0002724156,-0.03398383,-0.02233424,-0.6506007,-2.713319,1.266383
0,3.555547,44,104,497,498,-0.01201039,0.01243346,0.007320228,-1.479548,-2.620238,-1.513113,0.001835793,-0.03720382,-0.02339507,-0.6506422,-2.714522,1.267401
0,3.566658,44,104,497,498,-0.0152341,0.01567055,0.003092702,-1.479285,-2.620569,-1.512846,-0.00454526,-0.03398658,-0.02338293,-0.6508153,-2.715096,1.268074
0,3.577769,44,104,497,498,-0.01411563,0.02203079,0.007387099,-1.479526,-2.620984,-1.512681,-0.003443006,-0.0233408,-0.02236895,-0.6511424,-2.715378,1.268333
0,3.58888,44,104,497,498,-0.01301166,0.02733749,0.01061046,-1.479752,-2.621448,-1.51249,-0.003421022,-0.0148101,-0.02134097,-0.6514747,-2.715313,1.268492
0,3.599991,44,104,497,498,-0.01087277,0.03052786,0.01061361,-1.479882,-2.621845,-1.512387,-0.007659003,-0.01371162,-0.01600272,-0.6514544,-2.715545,1.268879
0,3.611102,44,104,497,498,-0.008747304,0.02839091,0.01058738,-1.480095,-2.622069,-1.512313,-0.00446596,-0.01265254,-0.01495799,-0.6516334,-2.715865,1.269256
0,3.622213,44,104,497,498,-0.01087232,0.03052687,0.01061996,-1.480238,-2.622458,-1.512089,-0.006607547,-0.01477977,-0.01600785,-0.6517591,-2.716302,1.269738
0,3.633324,44,104,497,498,-0.007658089,0.03051645,0.01165909,-1.480433,-2.622864,-1.51219,-0.005555889,-0.01160302,-0.02134224,-0.6520047,-2.716426,1.269954
0,3.644435,44,104,497,498,-0.009794224,0.02839136,0.01166306,-1.480576,-2.623119,-1.512002,-0.004486686,-0.01160279,-0.02028086,-0.6521565,-2.716742,1.270235
0,3.655546,44,104,497,498,-0.005527139,0.02835359,0.01376982,-1.480976,-2.623236,-1.511888,-0.004507814,-0.01478958,-0.01812957,-0.6520867,-2.717097,1.270848
0,3.666657,44,104,497,498,-0.006626422,0.02303558,0.01162303,-1.481203,-2.623221,-1.511756,-0.004503815,-0.01690869,-0.01492597,-0.652116,-2.717462,1.27118
0,3.677768,44,104,497,498,-0.00872567,0.02624163,0.01272333,-1.481329,-2.623774,-1.511747,-0.007700711,-0.02008757,-0.011679,-0.6516638,-2.717919,1.271745
0,3.688879,44,104,497,498,-0.008748349,0.0209141,0.01162541,-1.481477,-2.623724,-1.51167,-0.005562687,-0.01797725,-0.01276184,-0.6517762,-2.718455,1.272145
0,3.69999,44,104,497,498,-0.007682229,0.01770841,0.01266005,-1.481663,-2.623846,-1.511601,-0.006629076,-0.01478928,-0.01596527,-0.6519967,-2.718727,1.272481
0,3.711101,44,104,497,498,-0.01090838,0.01665015,0.01054996,-1.481744,-2.623786,-1.511261,-0.008789165,-0.01692775,-0.01913911,-0.652124,-2.719295,1.273255
0,3.722212,44,104,497,498,-0.009821139,0.01449542,0.01372221,-1.481985,-2.62387,-1.51117,-0.007721443,-0.01268165,-0.02235421,-0.6524372,-2.719493,1.273468
0,3.733323,44,104,497,498,-0.01196993,0.01132201,0.01158276,-1.481981,-2.623958,-1.511115,-0.008772584,-0.01268158,-0.02236105,-0.6527344,-2.719974,1.273744
0,3.744434,44,104,497,498,-0.01197184,0.007053779,0.01261943,-1.482147,-2.623908,-1.510989,-0.009830035,-0.0126704,-0.02022657,-0.6528468,-2.720275,1.274126
0,3.755545,44,104,497,498,-0.0119867,0.003862085,0.01153898,-1.482319,-2.623819,-1.510896,-0.01194757,-0.01267285,-0.0202161,-0.6529427,-2.720832,1.274554
0,3.766656,44,104,497,498,-0.01517872,-0.002536756,0.01365277,-1.482535,-2.623624,-1.510644,-0.01193039,-0.002019275,-0.02343782,-0.6532527,-2.720261,1.274339
0,3.777767,44,104,497,498,-0.01734282,-0.006782289,0.01151576,-1.482586,-2.623386,-1.510397,-0.01511296,-0.003078829,-0.02236208,-0.6534535,-2.720737,1.274758
0,3.788878,44,104,497,498,-0.01841412,-0.009975608,0.01150009,-1.482662,-2.623198,-1.510241,-0.01401811,-0.003074317,-0.0181106,-0.6535727,-2.721017,1.274882
0,3.799989,44,104,497,498,-0.01842435,-0.01743966,0.01251535,-1.482799,-2.622787,-1.51008,-0.01506062,-0.0009250902,-0.01385313,-0.653617,-2.72098,1.275052
0,3.8111,44,104,497,498,-0.01733501,-0.01851396,0.0146288,-1.482991,-2.62267,-1.510041,-0.01509117,-0.009438822,-0.01487269,-0.6535445,-2.72121,1.27536
0,3.822211,44,104,497,498,-0.01415955,-0.02277602,0.01350737,-1.483093,-2.622282,-1.510009,-0.01722603,-0.008373945,-0.01699921,-0.6537554,-2.721406,1.275781
0,3.833322,44,104,497,498,-0.01736291,-0.02379758,0.01033662,-1.483185,-2.6222,-1.510059,-0.01721076,-0.00941642,-0.01698175,-0.6537815,-2.72107,1.275413
0,3.844433,44,104,497,498,-0.01414228,-0.02489341,0.01349599,-1.48338,-2.621847,-1.510026,-0.01934025,-0.01152158,-0.01376649,-0.6537656,-2.721167,1.275823
0,3.855544,44,104,497,498,-0.01416078,-0.02381727,0.01137684,-1.483501,-2.621559,-1.509863,-0.02359553,-0.007258413,-0.01696579,-0.6540814,-2.721276,1.276236
0,3.866655,44,104,497,498,-0.01523286,-0.02487629,0.0103086,-1.483478,-2.621209,-1.509761,-0.02569092,0.0002178419,-0.01271334,-0.6540121,-2.720961,1.276399
0,3.877766,44,104,497,498,-0.01524267,-0.0248869,0.01031092,-1.483606,-2.620764,-1.5095,-0.03097643,0.006646093,-0.007389922,-0.654018,-2.720518,1.276523
0,3.888877,44,104,497,498,-0.01631051,-0.02701169,0.01030252,-1.483632,-2.62047,-1.509344,-0.02884233,0.008761104,-0.01168289,-0.6545624,-2.720418,1.276508
0,3.899988,44,104,497,498,-0.01846298,-0.02485424,0.00713947,-1.483604,-2.62025,-1.509096,-0.02352806,0.009793628,-0.01596733,-0.6548942,-2.720336,1.27655
0,3.911099,44,104,497,498,-0.0206281,-0.0248161,0.002880823,-1.483291,-2.620049,-1.508879,-0.02250195,0.008678423,-0.02768945,-0.6555573,-2.720677,1.276935
0,3.92221,44,104,497,498,-0.01959677,-0.02372487,-0.001382174,-1.483148,-2.619831,-1.5087,-0.01719439,0.006518826,-0.03089735,-0.6559739,-2.720858,1.277127
0,3.933321,44,104,497,498,-0.02066793,-0.02157415,-0.00349514,-1.482972,-2.6197,-1.508559,-0.01718446,0.00968888,-0.03410527,-0.6563722,-2.721115,1.277345
0,3.944432,44,104,497,498,-0.02067709,-0.02156701,-0.004560336,-1.482873,-2.619479,-1.508338,-0.02781483,0.01081659,-0.02768341,-0.6566876,-2.720851,1.277833
0,3.955544,44,104,497,498,-0.02286651,-0.02685206,-0.009906134,-1.482557,-2.619039,-1.508072,-0.02992763,0.004448086,-0.02233095,-0.6567877,-2.721203,1.278206
0,3.966655,44,104,497,498,-0.02292291,-0.03534553,-0.01316126,-1.482255,-2.618517,-1.507772,-0.02777024,0.001291141,-0.01061271,-0.656654,-2.721107,1.278426
0,3.977766,44,104,497,498,-0.02723023,-0.04383518,-0.01637085,-1.482045,-2.617824,-1.507454,-0.02989816,-0.00613259,-0.003121671,-0.6563941,-2.72148,1.279113
0,3.988877,44,104,497,498,-0.02620292,-0.04703096,-0.01852673,-1.481815,-2.617099,-1.507097,-0.02884321,-0.01463696,0.001165098,-0.6562476,-2.721908,1.279686
0,3.999988,44,104,497,498,-0.03051828,-0.05017987,-0.02383781,-1.481385,-2.616481,-1.506709,-0.03310399,-0.01568441,0.002248654,-0.6561406,-2.722216,1.280334
0,4.011099,44,104,497,498,-0.03477177,-0.05124921,-0.02166768,-1.481321,-2.615897,-1.506142,-0.03732622,-0.01458147,0.007586538,-0.655944,-2.722178,1.280664
0.3333333,4.02221,44,104,497,498,-0.03693544,-0.0533527,-0.02485942,-1.480917,-2.615272,-1.505739,-0.03835656,-0.01348272,0.01610897,-0.6555131,-2.722163,1.281095
0.6666667,4.033321,44,104,497,498,-0.03591767,-0.05866517,-0.02704108,-1.480441,-2.61454,-1.505236,-0.03624154,-0.01986869,0.01824291,-0.6553464,-2.722656,1.281842
1,4.044433,44,104,497,498,-0.03271363,-0.05547745,-0.02704727,-1.48011,-2.614045,-1.505005,-0.03730363,-0.01775545,0.01291161,-0.6553128,-2.72295,1.282286
1.333333,4.055544,44,104,497,498,-0.03382985,-0.0597214,-0.03026399,-1.479627,-2.613204,-1.504493,-0.04262165,-0.008172512,0.006505695,-0.6554599,-2.722737,1.28274
1.666667,4.066655,44,104,497,498,-0.03387534,-0.06289652,-0.0334942,-1.478945,-2.612455,-1.504039,-0.04476661,0.007768106,-0.007394893,-0.6560894,-2.722098,1.283029
2,4.077766,44,104,497,498,-0.0339143,-0.07781015,-0.03359442,-1.478486,-2.611214,-1.503766,-0.04901113,0.01629341,-0.01060514,-0.6564154,-2.721536,1.283253
2.333333,4.088878,44,104,497,498,-0.03713413,-0.08947554,-0.03683746,-1.477983,-2.610289,-1.503833,-0.05117226,0.01098162,-0.01377656,-0.6566988,-2.721313,1.283715
2.666667,4.099989,44,104,497,498,-0.03615275,-0.1075592,-0.04122899,-1.477283,-2.60867,-1.503587,-0.05119112,0.008839834,-0.01696492,-0.6569188,-2.721367,1.284317
3,4.1111,44,104,497,498,-0.03940221,-0.1171158,-0.04446411,-1.476592,-2.607222,-1.503194,-0.05757255,0.01311862,-0.01802174,-0.6572287,-2.72105,1.284874
3.333333,4.122211,44,104,497,498,-0.04692071,-0.1266555,-0.04872514,-1.475822,-2.6056,-1.502625,-0.05547895,0.01309226,-0.02866842,-0.6577273,-2.720567,1.284985
3.666666,4.133323,44,104,497,498,-0.04906891,-0.1351398,-0.04983774,-1.475027,-2.604316,-1.502354,-0.05758537,0.02267952,-0.03082482,-0.6582748,-2.719937,1.285182
4,4.144434,44,104,497,498,-0.05657951,-0.1500217,-0.05093269,-1.474381,-2.602376,-1.501643,-0.06398802,0.04604876,-0.04898704,-0.6593529,-2.719183,1.285778
4.333333,4.155545,44,104,497,498,-0.05558434,-0.1649082,-0.05529774,-1.473572,-2.60024,-1.501351,-0.06930268,0.04607773,-0.04577164,-0.6599036,-2.718555,1.286189
4.666667,4.166656,44,104,497,498,-0.0610152,-0.1872298,-0.06074468,-1.47238,-2.597661,-1.500777,-0.06499213,0.03970847,-0.03404741,-0.6599824,-2.718297,1.286126
5,4.177768,44,104,497,498,-0.06425988,-0.2095995,-0.05980201,-1.471545,-2.594764,-1.500259,-0.06497658,0.01742285,-0.00946767,-0.6593214,-2.718698,1.287152
5.333333,4.188879,44,104,497,498,-0.06861728,-0.2329832,-0.06631123,-1.470489,-2.591683,-1.499984,-0.06503367,-0.01022594,0.001258012,-0.6592128,-2.719738,1.288777
5.666667,4.19999,44,104,497,498,-0.07291602,-0.2404148,-0.06845516,-1.469476,-2.588866,-1.499349,-0.0693493,-0.02300617,-0.001877623,-0.6591382,-2.720753,1.290471
6,4.211102,44,104,497,498,-0.08272529,-0.2572547,-0.09298179,-1.467667,-2.585904,-1.498922,-0.07702878,-0.03698643,-0.04866306,-0.6606269,-2.72256,1.293007
6.333334,4.222213,44,104,497,498,-0.1119585,-0.2792285,-0.1408203,-1.464567,-2.582422,-1.497267,-0.09422022,-0.03175846,-0.09336101,-0.6627926,-2.72397,1.295625
6.666667,4.233324,44,104,497,498,-0.1465796,-0.2893759,-0.2002432,-1.460721,-2.579456,-1.495238,-0.08116324,0.03855681,-0.08085569,-0.6637157,-2.720354,1.29346
7.000001,4.244435,44,104,497,498,-0.1723225,-0.2795655,-0.2233932,-1.457379,-2.576839,-1.492914,-0.03609202,0.0737613,-0.02361735,-0.6630637,-2.717017,1.290052
7.333334,4.255547,44,104,497,498,-0.2310128,-0.2494724,-0.2418535,-1.454293,-2.575007,-1.488815,-0.02099869,0.06537512,0.02747056,-0.6618861,-2.715614,1.28849
7.666668,4.266658,44,104,497,498,-0.2853849,-0.2151461,-0.256062,-1.451044,-2.573817,-1.484281,-0.03467485,0.02523639,0.1107528,-0.658457,-2.71537,1.289123
8.000001,4.277769,44,104,497,498,-0.3418642,-0.1659035,-0.271228,-1.447559,-2.573413,-1.479001,-0.06111473,-0.02227803,0.2068935,-0.6533267,-2.715613,1.290709
8.333334,4.28888,44,104,497,498,-0.3941122,-0.1176756,-0.2906753,-1.444123,-2.573872,-1.473396,-0.06735265,-0.03591521,0.2602295,-0.6492446,-2.714608,1.290742
8.666667,4.299992,44,104,497,498,-0.4282145,-0.08768854,-0.3008333,-1.440505,-2.574078,-1.467719,-0.05886209,-0.03491191,0.250607,-0.6467146,-2.714023,1.290698
9,4.311103,44,104,497,498,-0.4911855,-0.05117777,-0.3245405,-1.436387,-2.574488,-1.460576,-0.03475034,-0.08632311,0.1910276,-0.6460509,-2.717363,1.293012
9.333333,4.322214,44,104,497,498,-0.5605973,-0.02098085,-0.352504,-1.431804,-2.575651,-1.452301,0.004071243,-0.1985178,0.1316174,-0.6447896,-2.725927,1.298731
9.666666,4.333325,44,104,497,498,-0.6205117,-0.002391828,-0.3923555,-1.426539,-2.577281,-1.444388,0.04207917,-0.2180988,0.05377793,-0.6451891,-2.731362,1.301502
9.999999,4.344437,44,104,497,498,-0.6805474,0.02154359,-0.4428168,-1.420442,-2.578944,-1.435014,0.0102231,-0.09786659,-0.02534266,-0.6478725,-2.7283,1.299944
10.33333,4.355548,44,104,497,498,-0.7202519,0.03571955,-0.4786085,-1.414343,-2.580428,-1.425737,-0.03743173,-0.01250091,-0.02652363,-0.6485756,-2.725278,1.299261
10.66667,4.366659,44,104,497,498,-0.7728062,0.06494845,-0.5280281,-1.40751,-2.582958,-1.415349,-0.08082879,0.00279171,0.03962206,-0.646435,-2.723874,1.300362
11,4.37777,44,104,497,498,-0.7964412,0.08650027,-0.5564416,-1.400968,-2.58553,-1.405429,-0.07244249,-0.09718445,0.09427037,-0.6429622,-2.728737,1.304839
11.33333,4.388882,44,104,497,498,-0.8329371,0.1208912,-0.5952832,-1.394084,-2.588612,-1.394553,-0.07473499,-0.1833329,0.1286624,-0.6399113,-2.73447,1.310137
11.66666,4.399993,44,104,497,498,-0.8458388,0.1284885,-0.6111013,-1.387287,-2.591562,-1.384295,-0.08333909,-0.2088674,0.1298483,-0.6377115,-2.738744,1.314726
12,4.411104,44,104,497,498,-0.8588771,0.114781,-0.6334116,-1.38032,-2.593567,-1.373995,-0.09409447,-0.2237912,0.1139564,-0.636471,-2.742517,1.319006
12.33333,4.422215,44,104,497,498,-0.8825299,0.07338028,-0.6462693,-1.372895,-2.594831,-1.363283,-0.1101726,-0.2206453,0.08417581,-0.6357551,-2.74638,1.32376
12.66666,4.433327,44,104,497,498,-0.8987619,0.01063265,-0.6561138,-1.365504,-2.594937,-1.352858,-0.1378547,-0.1929354,0.06073382,-0.6354803,-2.748577,1.327605
13,4.444438,44,104,497,498,-0.902215,-0.06603964,-0.6629664,-1.357763,-2.593851,-1.34299,-0.1676081,-0.1747164,0.06397778,-0.6342595,-2.750692,1.331864
13.33333,4.455549,44,104,497,498,-0.9055725,-0.1172087,-0.6632542,-1.35009,-2.592844,-1.332816,-0.1867664,-0.1725089,0.06936546,-0.632889,-2.753577,1.336892
13.66666,4.46666,44,104,497,498,-0.9036806,-0.1885509,-0.6701319,-1.341768,-2.590699,-1.323266,-0.2122831,-0.1787651,0.08653721,-0.630824,-2.756818,1.342377
14,4.477772,44,104,497,498,-0.8985442,-0.2556618,-0.672767,-1.33326,-2.588197,-1.313875,-0.2366977,-0.1807245,0.1122013,-0.6284698,-2.759519,1.347889
14.33333,4.488883,44,104,497,498,-0.8838222,-0.3121084,-0.6764653,-1.324785,-2.585706,-1.304879,-0.2536178,-0.1699214,0.135672,-0.6260431,-2.761021,1.352235
14.66666,4.499994,44,104,497,498,-0.8764672,-0.3632812,-0.6736767,-1.316263,-2.582467,-1.296139,-0.2704903,-0.1558973,0.1697755,-0.6230902,-2.762341,1.356737
14.99999,4.511106,44,104,497,498,-0.8626885,-0.3952951,-0.6708126,-1.30779,-2.579556,-1.287439,-0.2746351,-0.1398446,0.1867802,-0.6204159,-2.763346,1.360694
15.33333,4.522217,44,104,497,498,-0.8445771,-0.4348335,-0.6595169,-1.299404,-2.575734,-1.279536,-0.2947444,-0.1088574,0.194204,-0.6180318,-2.7631,1.364287
15.66666,4.533328,44,104,497,498,-0.8254563,-0.4647341,-0.6566852,-1.290781,-2.572161,-1.271731,-0.3234945,-0.0885565,0.1857276,-0.6161191,-2.76356,1.36929
15.99999,4.544439,44,104,497,498,-0.8083234,-0.4701814,-0.6451522,-1.282669,-2.568947,-1.264143,-0.339448,-0.08316889,0.1878984,-0.6138837,-2.764252,1.374025
16.33333,4.555551,44,104,497,498,-0.7837002,-0.4649983,-0.6346909,-1.274601,-2.566097,-1.256927,-0.3415962,-0.09487355,0.1911418,-0.6114267,-2.76596,1.3791
16.66666,4.566662,44,104,497,498,-0.7590566,-0.4416873,-0.6251608,-1.266991,-2.564047,-1.249847,-0.3341117,-0.1076242,0.2050045,-0.6086266,-2.767454,1.38347
16.99999,4.577773,44,104,497,498,-0.74604,-0.4216071,-0.6091995,-1.259423,-2.561929,-1.242692,-0.3297943,-0.1107725,0.2231095,-0.6054366,-2.768784,1.388101
17.33333,4.588884,44,104,497,498,-0.7223108,-0.3771003,-0.5867107,-1.252878,-2.560792,-1.235491,-0.3223842,-0.1204144,0.2156602,-0.6029945,-2.770818,1.393015
17.66666,4.599996,44,104,497,498,-0.704012,-0.3570113,-0.570755,-1.246153,-2.559451,-1.22858,-0.3288056,-0.1257302,0.2125062,-0.6004768,-2.77281,1.398481
18,4.611107,44,104,497,498,-0.6781452,-0.3243244,-0.5494001,-1.24008,-2.557764,-1.222502,-0.3341793,-0.1289469,0.2029529,-0.598163,-2.774993,1.404185
18.33333,4.622218,44,104,497,498,-0.6543603,-0.284091,-0.5205755,-1.234663,-2.557556,-1.215961,-0.3384544,-0.1225737,0.193359,-0.5961241,-2.776495,1.409308
18.66666,4.633329,44,104,497,498,-0.6327262,-0.2406691,-0.4938144,-1.229663,-2.557498,-1.209434,-0.3469069,-0.09699365,0.190098,-0.594221,-2.77665,1.413519
19,4.644441,44,104,497,498,-0.6208111,-0.2130986,-0.4788208,-1.224489,-2.557762,-1.202786,-0.3414871,-0.07566255,0.1985209,-0.5918801,-2.776352,1.417044
19.33333,4.655552,44,104,497,498,-0.5992468,-0.1834872,-0.4553622,-1.219855,-2.5581,-1.196419,-0.3414491,-0.06925255,0.2059558,-0.5893267,-2.776964,1.421484
19.66667,4.666663,44,104,497,498,-0.5850916,-0.1463962,-0.4296678,-1.215791,-2.559111,-1.189837,-0.3340039,-0.07461593,0.2080814,-0.5867034,-2.778611,1.426419
20,4.677774,44,104,497,498,-0.5667293,-0.1210078,-0.4083551,-1.211812,-2.560055,-1.183793,-0.3265741,-0.07572833,0.2016659,-0.5845516,-2.779666,1.430687
20.33333,4.688886,44,104,497,498,-0.5538167,-0.1104627,-0.3966811,-1.20763,-2.560753,-1.177748,-0.328731,-0.06088918,0.1792456,-0.5831465,-2.779961,1.434576
20.66667,4.699997,44,104,497,498,-0.5323107,-0.09146377,-0.3786347,-1.203882,-2.561748,-1.171908,-0.3319826,-0.05880615,0.1622055,-0.5817201,-2.78072,1.438998
21,4.711108,44,104,497,498,-0.523682,-0.08192702,-0.3701395,-1.199964,-2.562897,-1.165959,-0.3245309,-0.05356398,0.1483037,-0.5804732,-2.781513,1.442632
21.33334,4.722219,44,104,497,498,-0.507551,-0.0692737,-0.3563468,-1.196493,-2.564004,-1.160347,-0.3032228,-0.04938522,0.1450149,-0.5788999,-2.781984,1.44582
21.66667,4.733331,44,104,497,498,-0.4946347,-0.05019301,-0.3435217,-1.193454,-2.565595,-1.154373,-0.300005,-0.0440464,0.152445,-0.5768929,-2.7823,1.44968
22,4.744442,44,104,497,498,-0.4795946,-0.0289751,-0.3349951,-1.190269,-2.567389,-1.148701,-0.3042216,-0.03442782,0.1556186,-0.5751576,-2.782063,1.453006
22.33334,4.755553,44,104,497,498,-0.4741571,-0.01840859,-0.3253916,-1.187114,-2.568861,-1.142998,-0.3063211,-0.03332987,0.1630797,-0.5731251,-2.782252,1.456601
22.66667,4.766665,44,104,497,498,-0.4612531,-0.01318855,-0.3126847,-1.184241,-2.570343,-1.137594,-0.3042061,-0.04291895,0.1716423,-0.570675,-2.783745,1.461409
23.00001,4.777776,44,104,497,498,-0.448336,-0.01973312,-0.2958039,-1.181328,-2.571198,-1.132572,-0.2978208,-0.04719421,0.173764,-0.5686296,-2.784513,1.465209
23.33334,4.788887,44,104,497,498,-0.4419126,-0.03257379,-0.2895533,-1.178233,-2.571934,-1.127609,-0.2850646,-0.04938766,0.1641427,-0.5669913,-2.784911,1.468174
23.66667,4.799998,44,104,497,498,-0.4302284,-0.05392135,-0.2876664,-1.174886,-2.572306,-1.122943,-0.288277,-0.04726806,0.1577556,-0.5653518,-2.785528,1.47201
24.00001,4.81111,44,104,497,498,-0.4248749,-0.06569044,-0.2824704,-1.171731,-2.572733,-1.118338,-0.2893582,-0.04940873,0.1556386,-0.5635909,-2.786461,1.476056
24.33334,4.822221,44,104,497,498,-0.411033,-0.08172506,-0.279507,-1.168363,-2.572916,-1.114064,-0.2914716,-0.04514688,0.1535053,-0.5618876,-2.786875,1.479528
24.66668,4.833332,44,104,497,498,-0.404628,-0.09455384,-0.2753838,-1.165157,-2.572985,-1.109767,-0.2925132,-0.04512155,0.1599008,-0.559928,-2.787517,1.483359
25.00001,4.844443,44,104,497,498,-0.393968,-0.1105912,-0.2702599,-1.161835,-2.572859,-1.105703,-0.3020754,-0.03870547,0.1620525,-0.5579637,-2.788007,1.487441
25.33334,4.855555,44,104,497,498,-0.3928917,-0.1180488,-0.2671162,-1.158756,-2.573052,-1.10136,-0.2903448,-0.0557276,0.1706641,-0.5558278,-2.789175,1.491511
25.66668,4.866666,44,104,497,498,-0.3822242,-0.1276624,-0.2640774,-1.155543,-2.573031,-1.097531,-0.2850649,-0.06000566,0.1748537,-0.5535817,-2.790346,1.495566
26.00001,4.877777,44,104,497,498,-0.3779392,-0.1330274,-0.2598891,-1.152314,-2.572851,-1.09351,-0.2807863,-0.0536319,0.1737508,-0.551636,-2.790938,1.499078
26.33335,4.888888,44,104,497,498,-0.3779196,-0.1319584,-0.2577412,-1.149325,-2.573043,-1.089252,-0.2786788,-0.04196087,0.1598733,-0.5499955,-2.790833,1.50227
26.66668,4.9,44,104,497,498,-0.3726119,-0.1319571,-0.2599184,-1.14605,-2.573102,-1.085235,-0.2808082,-0.02282074,0.1438462,-0.5486761,-2.790015,1.504824
27.00001,4.911111,44,104,497,498,-0.3704654,-0.131953,-0.2588646,-1.142995,-2.573274,-1.081239,-0.2797452,-0.01222849,0.1374331,-0.5469691,-2.790386,1.508447
27.33335,4.922222,44,104,497,498,-0.3673136,-0.13086,-0.2642117,-1.139599,-2.573489,-1.077136,-0.2818254,0.003743023,0.1352594,-0.5454367,-2.789576,1.510881
27.66668,4.933333,44,104,497,498,-0.3662584,-0.1329639,-0.2652977,-1.136395,-2.573744,-1.073089,-0.280764,0.003735781,0.1341901,-0.5439698,-2.789281,1.513754
28.00002,4.944445,44,104,497,498,-0.3641335,-0.1350988,-0.265333,-1.133025,-2.573777,-1.069031,-0.27657,-0.01224002,0.1395213,-0.5426265,-2.790381,1.518088
28.33335,4.955556,44,104,497,498,-0.3672629,-0.1297825,-0.2599438,-1.13008,-2.574126,-1.064855,-0.2701934,-0.03563944,0.1566226,-0.540447,-2.792006,1.522338
28.66668,4.966667,44,104,497,498,-0.3608311,-0.1223286,-0.2588795,-1.127158,-2.574694,-1.060967,-0.2670121,-0.04627457,0.1630431,-0.5384091,-2.793124,1.526235
29.00002,4.977778,44,104,497,498,-0.3554965,-0.1116747,-0.2609856,-1.124123,-2.575385,-1.056879,-0.2690975,-0.05153561,0.1801137,-0.5359164,-2.794347,1.530338
29.33335,4.98889,44,104,497,498,-0.3554938,-0.1084544,-0.2620303,-1.121066,-2.576042,-1.052686,-0.2702207,-0.059012,0.1780156,-0.5339047,-2.796144,1.535322
29.66669,5.000001,44,104,497,498,-0.3566316,-0.09665539,-0.2736605,-1.117779,-2.577171,-1.048213,-0.2670456,-0.05583212,0.1811826,-0.5318103,-2.79756,1.540034
30.00002,5.011112,44,104,497,498,-0.3640307,-0.0923956,-0.2682419,-1.114898,-2.57799,-1.043632,-0.258532,-0.05374452,0.176883,-0.5299296,-2.79853,1.543529
30.33335,5.022223,44,104,497,498,-0.3693287,-0.08493258,-0.2670804,-1.111973,-2.57892,-1.03898,-0.2436722,-0.04430029,0.1597574,-0.5284319,-2.799856,1.547342
30.66669,5.033335,44,104,497,498,-0.3778055,-0.06999785,-0.265849,-1.109204,-2.580266,-1.033987,-0.2447234,-0.02941543,0.1501227,-0.5270433,-2.799687,1.549935
31.00002,5.044446,44,104,497,498,-0.3799116,-0.06040512,-0.2657664,-1.10646,-2.581575,-1.029124,-0.2468551,-0.02517194,0.1458489,-0.5255258,-2.800324,1.55327
31.33335,5.055557,44,104,497,498,-0.3799203,-0.03691337,-0.2730733,-1.103731,-2.583765,-1.023933,-0.2447192,-0.02942193,0.1511822,-0.5236984,-2.801145,1.556635
31.66669,5.066669,44,104,497,498,-0.383119,-0.02194398,-0.2771848,-1.101345,-2.585814,-1.018642,-0.2404822,-0.03478199,0.1564939,-0.5219476,-2.803166,1.561253
32.00002,5.07778,44,104,497,498,-0.3895685,-0.01547929,-0.285608,-1.098452,-2.587812,-1.013224,-0.2383164,-0.0358181,0.1671426,-0.5198213,-2.804024,1.56455
32.33335,5.088891,44,104,497,498,-0.3938203,-0.01438953,-0.2855562,-1.095852,-2.58962,-1.008019,-0.2372376,-0.04218733,0.1767519,-0.5175704,-2.805418,1.568388
32.66669,5.100002,44,104,497,498,-0.4035111,-0.02922919,-0.2930287,-1.092553,-2.591016,-1.002621,-0.2372797,-0.05390906,0.1757265,-0.5156423,-2.807252,1.572627
33.00002,5.111114,44,104,497,498,-0.4078465,-0.03661371,-0.2994137,-1.089587,-2.592675,-0.9972798,-0.2299419,-0.07633048,0.1736193,-0.514078,-2.810816,1.578593
33.33335,5.122225,44,104,497,498,-0.4079143,-0.03762907,-0.3068774,-1.086335,-2.594465,-0.9919327,-0.226809,-0.08382457,0.1693776,-0.5121839,-2.813402,1.5836
33.66668,5.133336,44,104,497,498,-0.4101413,-0.04500136,-0.3165109,-1.082782,-2.59636,-0.9865111,-0.2278896,-0.08383557,0.1651203,-0.5104971,-2.815383,1.587888
34.00002,5.144447,44,104,497,498,-0.4123321,-0.05028651,-0.3218541,-1.079295,-2.598031,-0.9810926,-0.2257813,-0.0764358,0.1608151,-0.5089301,-2.817726,1.592816
34.33335,5.155559,44,104,497,498,-0.4166389,-0.06197767,-0.3250838,-1.075732,-2.599289,-0.9759601,-0.2204281,-0.07642782,0.168253,-0.5068784,-2.819628,1.59677
34.66668,5.16667,44,104,497,498,-0.4209305,-0.07475603,-0.3240617,-1.072162,-2.600504,-0.9705491,-0.2289847,-0.0870564,0.1768484,-0.5045699,-2.823251,1.603175
35.00001,5.177781,44,104,497,498,-0.4263495,-0.08534527,-0.3315428,-1.068269,-2.601856,-0.9650198,-0.2278741,-0.09551376,0.1971138,-0.5018967,-2.826144,1.608223
35.33334,5.188892,44,104,497,498,-0.4327301,-0.08425671,-0.3304201,-1.06479,-2.603575,-0.9591929,-0.2246374,-0.1007955,0.2162725,-0.4993075,-2.829236,1.613412
35.66668,5.200004,44,104,497,498,-0.4380839,-0.07888219,-0.3356734,-1.061126,-2.605469,-0.9533291,-0.2192954,-0.1018599,0.2215835,-0.496776,-2.831889,1.618024
36.00001,5.211115,44,104,497,498,-0.4412962,-0.07137346,-0.3409262,-1.057593,-2.607599,-0.9474435,-0.2150037,-0.09228265,0.2258146,-0.4940494,-2.833985,1.622411
36.33334,5.222226,44,104,497,498,-0.4477067,-0.06386719,-0.3461621,-1.053957,-2.609863,-0.941241,-0.2107131,-0.0795294,0.2278711,-0.4917026,-2.836088,1.626753
36.66667,5.233337,44,104,497,498,-0.4519813,-0.06703997,-0.3472141,-1.050315,-2.611777,-0.9352351,-0.2053984,-0.07849532,0.2235875,-0.4893724,-2.838151,1.630697
37,5.244449,44,104,497,498,-0.460568,-0.06375968,-0.3567083,-1.046579,-2.614097,-0.928893,-0.205376,-0.07955623,0.2321067,-0.4867406,-2.841168,1.635771
37.33334,5.25556,44,104,497,498,-0.470244,-0.07647558,-0.3631017,-1.04252,-2.61594,-0.9224876,-0.2075499,-0.08490095,0.2246753,-0.4845089,-2.843757,1.640409
37.66667,5.266671,44,104,497,498,-0.4777301,-0.08496347,-0.3662952,-1.038492,-2.617685,-0.9163538,-0.212903,-0.07852548,0.2193383,-0.4823363,-2.846134,1.64536
38,5.277782,44,104,497,498,-0.4831697,-0.08699887,-0.3779717,-1.03441,-2.619937,-0.9096735,-0.2140793,-0.09349675,0.2012824,-0.480675,-2.849486,1.650727
38.33333,5.288894,44,104,497,498,-0.4842631,-0.091221,-0.380116,-1.030539,-2.622122,-0.9032041,-0.2088385,-0.1020872,0.1874284,-0.479238,-2.852902,1.656008
38.66666,5.300005,44,104,497,498,-0.4875034,-0.09864662,-0.3844188,-1.026128,-2.624171,-0.8967433,-0.2120807,-0.1084938,0.1800041,-0.4775596,-2.85624,1.661428
39,5.311116,44,104,497,498,-0.4896267,-0.1029177,-0.3822983,-1.022059,-2.62613,-0.8901861,-0.2089408,-0.1128053,0.1746757,-0.475884,-2.860155,1.667498
39.33333,5.322227,44,104,497,498,-0.4853739,-0.1061256,-0.3834355,-1.017821,-2.628143,-0.8839303,-0.2164066,-0.114908,0.1800346,-0.4738893,-2.863894,1.673729
39.66666,5.333339,44,104,497,498,-0.4842575,-0.1125699,-0.3760264,-1.013855,-2.629803,-0.8777438,-0.2302207,-0.1169562,0.1918084,-0.4716139,-2.867409,1.679805
39.99999,5.34445,44,104,497,498,-0.4767298,-0.1137114,-0.3686498,-1.009931,-2.631582,-0.8717389,-0.2291554,-0.1169449,0.1992624,-0.4693773,-2.871195,1.686047
40.33332,5.355561,44,104,497,498,-0.4713186,-0.1095211,-0.3601457,-1.006358,-2.633458,-0.8656722,-0.2323333,-0.1147937,0.2024623,-0.4672223,-2.874479,1.691631
40.66666,5.366673,44,104,497,498,-0.4669855,-0.1074402,-0.351637,-1.002924,-2.635423,-0.8594931,-0.2323784,-0.1105917,0.1864711,-0.4657192,-2.877581,1.697041
40.99999,5.377784,44,104,497,498,-0.4700804,-0.09363368,-0.3440597,-0.999772,-2.637636,-0.8530217,-0.2281704,-0.1180904,0.1779588,-0.4642087,-2.881373,1.702858
41.33332,5.388895,44,104,497,498,-0.4678431,-0.08198285,-0.33547,-0.9967679,-2.639713,-0.8467984,-0.2239075,-0.1149311,0.1800672,-0.4622507,-2.885562,1.709198
41.66665,5.400006,44,104,497,498,-0.4635153,-0.07777558,-0.3290872,-0.993651,-2.641824,-0.8405921,-0.2164245,-0.09687266,0.1714586,-0.4606928,-2.887434,1.713068
41.99998,5.411118,44,104,497,498,-0.4591465,-0.0682542,-0.3215992,-0.9908584,-2.643904,-0.8346826,-0.2164712,-0.09265617,0.15865,-0.4595577,-2.890022,1.71801
42.33332,5.422229,44,104,497,498,-0.4515763,-0.05341626,-0.3130449,-0.9883114,-2.646393,-0.8285131,-0.2217994,-0.0883927,0.1543932,-0.4580738,-2.89257,1.722894
42.66665,5.43334,44,104,497,498,-0.4418976,-0.03536329,-0.3076507,-0.9862378,-2.648909,-0.8224939,-0.2207559,-0.09053515,0.1543974,-0.4565228,-2.895926,1.728551
42.99998,5.444451,44,104,497,498,-0.4397182,-0.0193968,-0.3075733,-0.9837461,-2.651906,-0.8160655,-0.2293097,-0.104353,0.1576568,-0.4551065,-2.900232,1.735182
43.33331,5.455563,44,104,497,498,-0.430003,-0.01632449,-0.2937639,-0.9817461,-2.653949,-0.8104265,-0.2367851,-0.1117847,0.1662422,-0.4531523,-2.905157,1.742796
43.66665,5.466674,44,104,497,498,-0.4267818,-0.01849515,-0.289533,-0.9793716,-2.656171,-0.8044462,-0.2389562,-0.1192291,0.1673403,-0.4515347,-2.909192,1.74943
43.99998,5.477785,44,104,497,498,-0.4214163,-0.02494316,-0.283231,-0.9769269,-2.658248,-0.7987641,-0.2400734,-0.1277728,0.1599153,-0.4502601,-2.91354,1.756033
44.33331,5.488896,44,104,497,498,-0.4108279,-0.0355937,-0.2759336,-0.9747462,-2.661062,-0.7917711,-0.2358146,-0.1299111,0.1620263,-0.4488305,-2.91763,1.762233
44.66664,5.500008,44,104,497,498,-0.4032761,-0.04209069,-0.2632591,-0.9724597,-2.662681,-0.786579,-0.2177522,-0.1310741,0.149184,-0.4478159,-2.921579,1.767713
44.99997,5.511119,44,104,497,498,-0.3861878,-0.05918342,-0.2486492,-0.970147,-2.665201,-0.7808633,-0.212462,-0.1311195,0.1416923,-0.4470094,-2.925505,1.773606
45.33331,5.52223,44,104,497,498,-0.3797296,-0.06565678,-0.2391613,-0.9678087,-2.666531,-0.7760537,-0.2061562,-0.1301413,0.1192747,-0.4468049,-2.928827,1.778895
45.66664,5.533341,44,104,497,498,-0.3679637,-0.06893641,-0.2328767,-0.9656057,-2.667699,-0.7716137,-0.2008785,-0.130177,0.1075417,-0.4462537,-2.932154,1.784118
45.99997,5.544453,44,104,497,498,-0.3582656,-0.06791924,-0.2212654,-0.9636244,-2.669787,-0.7667843,-0.1955475,-0.1238071,0.104308,-0.445394,-2.935252,1.788983
46.3333,5.555564,44,104,497,498,-0.3539457,-0.06690872,-0.2149041,-0.9615636,-2.671137,-0.7621861,-0.1912819,-0.1185034,0.1032145,-0.4444736,-2.938754,1.794334
46.66663,5.566675,44,104,497,498,-0.3453296,-0.05953581,-0.2063874,-0.9599497,-2.672386,-0.7578616,-0.1880072,-0.1003601,0.1095435,-0.4431138,-2.940361,1.7978
46.99997,5.577786,44,104,497,498,-0.3346222,-0.05320168,-0.2021769,-0.9581692,-2.673928,-0.753534,-0.1805323,-0.08868273,0.1041526,-0.4423068,-2.942409,1.801483
47.3333,5.588898,44,104,497,498,-0.3314108,-0.04784585,-0.2021716,-0.956511,-2.676018,-0.7487658,-0.18268,-0.08338809,0.09984671,-0.4419846,-2.945515,1.806604
47.66663,5.600009,44,104,497,498,-0.3250387,-0.04355332,-0.2054242,-0.9545254,-2.678422,-0.7438635,-0.1900994,-0.06527269,0.09448594,-0.4411686,-2.946548,1.809849
47.99996,5.61112,44,104,497,498,-0.3250498,-0.04141296,-0.2075204,-0.9527746,-2.679929,-0.7394714,-0.1922285,-0.05995163,0.09126645,-0.4405742,-2.948204,1.81357
48.33329,5.622231,44,104,497,498,-0.3186821,-0.03607775,-0.2128808,-0.9507203,-2.68203,-0.734952,-0.194366,-0.05993846,0.08915007,-0.4396746,-2.949897,1.817333
48.66663,5.633343,44,104,497,498,-0.3176002,-0.02433928,-0.2159943,-0.9492422,-2.684185,-0.7303171,-0.1911823,-0.06739961,0.09342925,-0.4387222,-2.953147,1.822334
48.99996,5.644454,44,104,497,498,-0.3154934,-0.01685712,-0.2202146,-0.9476209,-2.686462,-0.7254669,-0.1869585,-0.07486792,0.08918491,-0.4380277,-2.955472,1.826425
49.33329,5.655565,44,104,497,498,-0.3123104,-0.01472087,-0.2223587,-0.9458781,-2.688706,-0.7207915,-0.1890904,-0.07061417,0.08491692,-0.4373997,-2.957552,1.830458
49.66662,5.666677,44,104,497,498,-0.311311,-0.02320418,-0.2288171,-0.9436746,-2.690769,-0.7163126,-0.186977,-0.06638618,0.0774385,-0.4368852,-2.959414,1.834254
49.99995,5.677788,44,104,497,498,-0.3103474,-0.03273676,-0.237413,-0.9413252,-2.692928,-0.7116227,-0.1848464,-0.05470964,0.06673983,-0.4365118,-2.960343,1.837095
50.33329,5.688899,44,104,497,498,-0.3072491,-0.0476227,-0.2439128,-0.9388868,-2.694597,-0.7073521,-0.1816815,-0.06430717,0.06674833,-0.4361736,-2.962988,1.841455
50.66662,5.70001,44,104,497,498,-0.3063078,-0.05607872,-0.2556879,-0.9362034,-2.696665,-0.7028029,-0.1774522,-0.07602273,0.06995911,-0.4357352,-2.965911,1.84604
50.99995,5.711122,44,104,497,498,-0.3042113,-0.05925638,-0.2589006,-0.9339898,-2.698654,-0.6983277,-0.168951,-0.08987668,0.07636796,-0.4351339,-2.96974,1.851183
51.33328,5.722233,44,104,497,498,-0.3064508,-0.06236783,-0.2706272,-0.931186,-2.701267,-0.6933742,-0.1657509,-0.09306064,0.08382497,-0.4343589,-2.972941,1.856042
51.66661,5.733344,44,104,497,498,-0.3097034,-0.0623234,-0.2758932,-0.9288957,-2.703435,-0.6884703,-0.1636076,-0.08774427,0.08273503,-0.4337299,-2.975445,1.860077
51.99995,5.744455,44,104,497,498,-0.3108655,-0.0654562,-0.2854685,-0.9262565,-2.705783,-0.6836047,-0.1582651,-0.08028476,0.08163158,-0.4330188,-2.976862,1.863043
52.33328,5.755567,44,104,497,498,-0.3120027,-0.06753347,-0.29293,-0.9234468,-2.708517,-0.6784824,-0.1571798,-0.07495813,0.0826757,-0.4323077,-2.979043,1.866733
52.66661,5.766678,44,104,497,498,-0.3131571,-0.06639964,-0.3035639,-0.9205573,-2.711496,-0.673187,-0.1582137,-0.07171521,0.0912036,-0.431121,-2.981184,1.870604
52.99994,5.777789,44,104,497,498,-0.3111097,-0.05353827,-0.3141202,-0.9183527,-2.714864,-0.6675463,-0.1571457,-0.0738377,0.09653282,-0.4302422,-2.984304,1.875272
53.33327,5.7889,44,104,497,498,-0.3122864,-0.04279731,-0.33001,-0.9155862,-2.71838,-0.6619159,-0.1549515,-0.06845877,0.1124944,-0.4287391,-2.986755,1.87926
53.66661,5.800012,44,104,497,498,-0.3144747,-0.03634234,-0.3384699,-0.9129508,-2.7222,-0.6560175,-0.1527715,-0.06522352,0.1263073,-0.4274794,-2.989412,1.883392
53.99994,5.811123,44,104,497,498,-0.3198945,-0.02237052,-0.354326,-0.9102765,-2.726755,-0.6496035,-0.1527675,-0.06309295,0.128431,-0.4263332,-2.992227,1.887797
54.33327,5.822234,44,104,497,498,-0.3209926,-0.01702867,-0.3606656,-0.9075211,-2.730525,-0.643784,-0.1570557,-0.07266076,0.1295461,-0.4252301,-2.995736,1.892874
54.6666,5.833345,44,104,497,498,-0.3264496,-0.01374252,-0.3733667,-0.9048015,-2.734783,-0.6370707,-0.1591853,-0.0907432,0.1338737,-0.4242309,-3.000116,1.898125
54.99994,5.844457,44,104,497,498,-0.327594,-0.01262657,-0.3840131,-0.9016963,-2.739256,-0.6307968,-0.1571152,-0.1056835,0.1285965,-0.4234463,-3.004832,1.90407
55.33327,5.855568,44,104,497,498,-0.33513,-0.01041127,-0.3935195,-0.8989085,-2.74403,-0.6238753,-0.1496648,-0.1110292,0.1296731,-0.4222809,-3.009243,1.909505
55.6666,5.866679,44,104,497,498,-0.3374167,-0.01244541,-0.4094963,-0.8957105,-2.748946,-0.6169207,-0.1433244,-0.1323372,0.1329218,-0.4214271,-3.015065,1.916163
55.99993,5.87779,44,104,497,498,-0.3386275,-0.01019722,-0.4265162,-0.8927118,-2.754314,-0.6098026,-0.1411899,-0.1291148,0.1350507,-0.4201477,-3.018718,1.92124
56.33326,5.888902,44,104,497,498,-0.3472518,-0.01331981,-0.4371142,-0.8894223,-2.759347,-0.6025865,-0.1369449,-0.1259477,0.1254466,-0.4193568,-3.022237,1.925789
56.6666,5.900013,44,104,497,498,-0.3484142,-0.01751357,-0.4467203,-0.8862212,-2.764683,-0.5953038,-0.1412144,-0.1216946,0.1190552,-0.4187267,-3.026037,1.930954
56.99993,5.911124,44,104,497,498,-0.3591391,-0.02172811,-0.4551733,-0.8827202,-2.769642,-0.5879807,-0.1432754,-0.1205645,0.1350525,-0.4171085,-3.030869,1.936887
57.33326,5.922235,44,104,497,498,-0.364529,-0.01846651,-0.4636238,-0.8796485,-2.775239,-0.5803603,-0.1485212,-0.110906,0.1510109,-0.4155501,-3.034807,1.942325
57.66659,5.933347,44,104,497,498,-0.3634937,-0.01418002,-0.467852,-0.8768245,-2.780831,-0.5727671,-0.1463335,-0.1119161,0.169115,-0.4138334,-3.039774,1.948444
57.99992,5.944458,44,104,497,498,-0.3645654,-0.007766612,-0.4710027,-0.8739291,-2.786794,-0.5649289,-0.1378151,-0.1332071,0.1840707,-0.412415,-3.046903,1.956106
58.33326,5.955569,44,104,497,498,-0.3645584,-0.002468802,-0.4710924,-0.8700819,-2.793971,-0.5557618,-0.1356839,-0.1353372,0.1862012,-0.4110376,-3.052484,1.962661
58.66659,5.966681,44,104,497,498,-0.367773,-0.002445929,-0.4731946,-0.8672589,-2.799891,-0.5477558,-0.139974,-0.138545,0.180902,-0.4099532,-3.058182,1.969619
58.99992,5.977792,44,104,497,498,-0.3741717,-0.002509966,-0.474317,-0.8627672,-2.806663,-0.5388672,-0.1325134,-0.1385646,0.1819421,-0.4086626,-3.063757,1.976004
59.33325,5.988903,44,104,497,498,-0.3762826,-0.00892394,-0.4700795,-0.8599363,-2.812254,-0.5310007,-0.1304389,-0.1396966,0.1638356,-0.4079632,-3.068719,1.981848
59.66658,6.000014,44,104,497,498,-0.3794366,-0.01112802,-0.4659359,-0.8558899,-2.819324,-0.521881,-0.1283256,-0.1333392,0.1542153,-0.4071824,-3.072936,1.987143
59.99992,6.011126,44,104,497,498,-0.3676497,-0.00481075,-0.4608094,-0.8525109,-2.827008,-0.5127608,-0.1272621,-0.1312291,0.151007,-0.4063174,-3.078055,1.993215
60.33325,6.022237,44,104,497,498,-0.3655279,-0.00907699,-0.4597795,-0.8499303,-2.832692,-0.5050573,-0.1271856,-0.120538,0.1637477,-0.404841,-3.082721,1.998885
60.66658,6.033348,44,104,497,498,-0.3654752,-0.01133884,-0.4523346,-0.846783,-2.837638,-0.4976148,-0.1334756,-0.1151046,0.1893137,-0.4028303,-3.088181,2.005585
60.99991,6.044459,44,104,497,498,-0.3621867,-0.01250928,-0.4417103,-0.8443451,-2.842634,-0.4903412,-0.1367008,-0.1310554,0.1957604,-0.4016319,-3.095133,2.013607
61.33324,6.055571,44,104,497,498,-0.3578652,-0.01896993,-0.4332624,-0.8419259,-2.847816,-0.4830607,-0.1324879,-0.1576605,0.2043585,-0.4004633,-3.10332,2.022455
61.66658,6.066682,44,104,497,498,-0.3524867,-0.02224921,-0.4247639,-0.8398481,-2.852223,-0.4762036,-0.1272012,-0.1715163,0.2043814,-0.3994406,-3.110446,2.03023
61.99991,6.077793,44,104,497,498,-0.3503097,-0.02122489,-0.4183667,-0.837783,-2.857332,-0.468858,-0.1112758,-0.1726806,0.1894169,-0.3988062,-3.116883,2.036947
62.33324,6.088904,44,104,497,498,-0.3492377,-0.02018471,-0.4172776,-0.8356611,-2.862251,-0.4616185,-0.1006562,-0.167427,0.1765638,-0.3982811,-3.122216,2.042751
62.66657,6.100016,44,104,497,498,-0.3491662,-0.02557274,-0.4098101,-0.833546,-2.866408,-0.4552216,-0.1102409,-0.1472108,0.1594835,-0.3976664,-3.126036,2.047806
62.9999,6.111127,44,104,497,498,-0.3501799,-0.02451986,-0.4065935,-0.8314725,-2.871592,-0.4480465,-0.1272019,-0.1226563,0.1583868,-0.3964712,-3.129344,2.052643
63.33324,6.122238,44,104,497,498,-0.3511602,-0.02457735,-0.3959166,-0.8296524,-2.876279,-0.4409172,-0.1239411,-0.1024236,0.1593687,-0.3952099,-3.132724,2.057036
63.66657,6.133349,44,104,497,498,-0.350059,-0.02139923,-0.3926966,-0.8277904,-2.881333,-0.4336883,-0.1175267,-0.09073587,0.1539789,-0.3941313,-3.13591,2.061001
63.9999,6.144461,44,104,497,498,-0.3478617,-0.01506264,-0.3862556,-0.8261701,-2.885966,-0.4267162,-0.1132862,-0.09395926,0.1497223,-0.3932227,-3.140572,2.066387
64.33324,6.155572,44,104,497,498,-0.3435029,-0.001251552,-0.3808658,-0.8249125,-2.891124,-0.4197014,-0.1144418,-0.1131573,0.1401992,-0.392942,3.137115,2.072742
64.66657,6.166683,44,104,497,498,-0.3413014,0.008309271,-0.3765565,-0.8236518,-2.896371,-0.4124736,-0.1176729,-0.1216745,0.1391789,-0.392289,3.131459,2.079456
64.99991,6.177794,44,104,497,498,-0.3433137,0.02103526,-0.3668672,-0.822676,-2.901467,-0.4051488,-0.1144755,-0.1269933,0.1445122,-0.3915529,3.125639,2.086009
65.33324,6.188906,44,104,497,498,-0.3517481,0.03380249,-0.3581481,-0.8221562,-2.906147,-0.3976957,-0.104841,-0.1174284,0.1497777,-0.3905078,3.120559,2.091629
65.66658,6.200017,44,104,497,498,-0.3527655,0.03697785,-0.3538521,-0.821191,-2.911156,-0.390355,-0.1005354,-0.1089018,0.1550615,-0.3893744,3.115926,2.09692
65.99992,6.211128,44,104,497,498,-0.3558564,0.04544799,-0.3452237,-0.8205615,-2.915689,-0.3833498,-0.09845307,-0.1142657,0.1422848,-0.3890399,3.11144,2.101939
66.33325,6.222239,44,104,497,498,-0.3525716,0.0592564,-0.3387602,-0.8202962,-2.920717,-0.3760756,-0.1027235,-0.1153254,0.1401735,-0.3884167,3.10639,2.107861
66.66659,6.233351,44,104,497,498,-0.3525209,0.06562348,-0.3344502,-0.8198674,-2.925698,-0.3687301,-0.09952181,-0.1100172,0.1380167,-0.3876322,3.101876,2.113114
66.99992,6.244462,44,104,497,498,-0.3503413,0.07091989,-0.330164,-0.8195282,-2.930591,-0.3615513,-0.09637149,-0.1153894,0.1284381,-0.3873882,3.09692,2.118622
67.33326,6.255573,44,104,497,498,-0.3502942,0.06983288,-0.3259059,-0.8190312,-2.935365,-0.3545663,-0.0973522,-0.1025563,0.1401215,-0.3861711,3.092762,2.123533
67.6666,6.266685,44,104,497,498,-0.3555495,0.06445909,-0.3163154,-0.818448,-2.939975,-0.347281,-0.107999,-0.1014617,0.1380267,-0.3854372,3.08824,2.129086
67.99993,6.277796,44,104,497,498,-0.3587076,0.05596,-0.3141911,-0.8180277,-2.944314,-0.3408212,-0.1175375,-0.09607385,0.1476292,-0.3843298,3.083506,2.135033
68.33327,6.288907,44,104,497,498,-0.360851,0.04638279,-0.3131514,-0.8173678,-2.948681,-0.3338496,-0.1152925,-0.08534587,0.1699478,-0.3826712,3.078931,2.140402
68.6666,6.300018,44,104,497,498,-0.3608186,0.04102125,-0.3078603,-0.8165976,-2.953081,-0.3268109,-0.1185408,-0.09175938,0.1603923,-0.3820422,3.074005,2.14637
68.99994,6.31113,44,104,497,498,-0.3565974,0.03465168,-0.3121986,-0.8157406,-2.957797,-0.3199298,-0.1324805,-0.09180874,0.1316876,-0.3819511,3.070705,2.151173
69.33327,6.322241,44,104,497,498,-0.3599203,0.01767793,-0.3207876,-0.8144362,-2.962434,-0.3126333,-0.146368,-0.09182458,0.1168419,-0.3815415,3.066327,2.157042
69.66661,6.333352,44,104,497,498,-0.3674824,-0.01210474,-0.3241049,-0.8125512,-2.966695,-0.3054438,-0.1506339,-0.09074919,0.1147207,-0.3809955,3.062513,2.162367
69.99995,6.344463,44,104,497,498,-0.3792229,-0.03340897,-0.320947,-0.8106369,-2.970827,-0.2981776,-0.1473614,-0.08005346,0.1285243,-0.379803,3.058666,2.167538
70.33328,6.355575,44,104,497,498,-0.3910222,-0.04612583,-0.3262542,-0.808737,-2.975476,-0.2903304,-0.1356524,-0.08540916,0.1306326,-0.3791542,3.053976,2.173091
70.66662,6.366686,44,104,497,498,-0.397507,-0.05777193,-0.3326599,-0.8069218,-2.980232,-0.2824815,-0.1356616,-0.08752453,0.1317029,-0.3785161,3.049856,2.178539
70.99995,6.377797,44,104,497,498,-0.3956135,-0.0768242,-0.3519726,-0.8045026,-2.985579,-0.2742491,-0.1527405,-0.09599164,0.1307241,-0.378048,3.044966,2.185311
71.33329,6.388908,44,104,497,498,-0.4000255,-0.08737261,-0.3658544,-0.8021159,-2.991064,-0.2659044,-0.1623378,-0.09491326,0.1275561,-0.3776016,3.040433,2.191595
71.66663,6.40002,44,104,497,498,-0.4035662,-0.1255441,-0.3916397,-0.7984722,-2.996934,-0.2570994,-0.1826126,-0.08957347,0.1126933,-0.3774376,3.037287,2.197148
71.99996,6.411131,44,104,497,498,-0.4134549,-0.1541048,-0.4173029,-0.7948471,-3.003128,-0.2479568,-0.1857894,-0.07996997,0.1052411,-0.3765103,3.035057,2.201213
72.3333,6.422242,44,104,497,498,-0.4306451,-0.1454027,-0.4362746,-0.7922989,-3.010018,-0.237914,-0.1848087,-0.09068403,0.08929856,-0.3768522,3.031017,2.206946
72.66663,6.433353,44,104,497,498,-0.4563245,-0.1249851,-0.4529598,-0.7902488,-3.017217,-0.226904,-0.1826931,-0.07900658,0.07540768,-0.3766834,3.029297,2.210567
72.99997,6.444465,44,104,497,498,-0.4744413,-0.1067777,-0.4590752,-0.7884102,-3.02437,-0.2161065,-0.1975118,-0.05231428,0.07536945,-0.3758509,3.028707,2.213552
73.33331,6.455576,44,104,497,498,-0.4808235,-0.09717219,-0.4600198,-0.7864459,-3.031051,-0.2059204,-0.2070368,-0.04373182,0.08496115,-0.3750322,3.026113,2.218438
73.66664,6.466687,44,104,497,498,-0.4850315,-0.08118882,-0.4588113,-0.7849854,-3.037986,-0.195508,-0.202666,-0.03516217,0.1019538,-0.3739861,3.023432,2.222681
73.99998,6.477798,44,104,497,498,-0.4871246,-0.06627518,-0.4576249,-0.7836229,-3.044958,-0.1849901,-0.1972725,-0.04785837,0.1328718,-0.3726412,3.017753,2.23002
74.33331,6.48891,44,104,497,498,-0.4870984,-0.05668774,-0.4575616,-0.7823526,-3.051928,-0.174657,-0.1950439,-0.06264934,0.1691223,-0.3711589,3.011309,2.23788
74.66665,6.500021,44,104,497,498,-0.4860293,-0.03747429,-0.4627701,-0.7815803,-3.059375,-0.1640401,-0.1950478,-0.08602163,0.187331,-0.3698902,3.003303,2.247449
74.99998,6.511132,44,104,497,498,-0.4818165,-0.0363749,-0.4691888,-0.7803723,-3.066726,-0.1536255,-0.2003709,-0.1072625,0.2012535,-0.369137,2.995743,2.256564
75.33332,6.522243,44,104,497,498,-0.484018,-0.03632092,-0.4776998,-0.7790577,-3.074459,-0.1426986,-0.1970997,-0.1209883,0.2385636,-0.3674166,2.98613,2.267753
75.66666,6.533355,44,104,497,498,-0.4819112,-0.04590847,-0.4777779,-0.7776233,-3.081708,-0.1322521,-0.1917572,-0.1326992,0.2449701,-0.3664355,2.977573,2.277321
75.99999,6.544466,44,104,497,498,-0.4808458,-0.04697716,-0.477801,-0.7763434,-3.089246,-0.121585,-0.1906416,-0.1347884,0.2598942,-0.3649463,2.968026,2.288292
76.33333,6.555577,44,104,497,498,-0.4851376,-0.05013056,-0.4809719,-0.7752143,-3.096636,-0.1109207,-0.1831556,-0.1337339,0.2630563,-0.3637596,2.959742,2.297725
76.66666,6.566689,44,104,497,498,-0.4861526,-0.04909908,-0.4756295,-0.7741565,-3.103884,-0.100293,-0.1821153,-0.1369861,0.2534705,-0.3630868,2.951213,2.307416
77,6.5778,44,104,497,498,-0.4850768,-0.05231965,-0.4713976,-0.773055,-3.111182,-0.08955625,-0.170383,-0.1178898,0.2405819,-0.3619806,2.945225,2.31465
77.33334,6.588911,44,104,497,498,-0.4808095,-0.07154561,-0.4651714,-0.7713915,-3.11824,-0.07924289,-0.1682106,-0.0976851,0.2341087,-0.3606447,2.939139,2.322092
77.66667,6.600022,44,104,497,498,-0.4808551,-0.08861417,-0.4642233,-0.7694623,-3.125396,-0.06866907,-0.1692837,-0.09662725,0.230913,-0.3595869,2.93228,2.330409
78.00001,6.611134,44,104,497,498,-0.4766652,-0.1206078,-0.4612778,-0.7669232,-3.132548,-0.05820498,-0.1607783,-0.1083869,0.2309065,-0.3589835,2.923999,2.339401
78.33334,6.622245,44,104,497,498,-0.4681868,-0.1472863,-0.4583339,-0.764218,-3.139634,-0.04812545,-0.1457861,-0.1019903,0.2457618,-0.3573073,2.915368,2.348646
78.66668,6.633356,44,104,497,498,-0.4586002,-0.1547915,-0.4541967,-0.7622324,3.136616,-0.03807575,-0.1660323,-0.09985045,0.2383507,-0.3566969,2.908027,2.357719
79.00002,6.644467,44,104,497,498,-0.4543257,-0.1569452,-0.4521206,-0.7603043,3.129435,-0.02794455,-0.155263,-0.07748824,0.2478223,-0.3548636,2.90134,2.3652
79.33335,6.655579,44,104,497,498,-0.4500861,-0.1558565,-0.4542511,-0.7586973,3.122529,-0.01812068,-0.16054,-0.06360453,0.250995,-0.3531708,2.895204,2.373008
79.66669,6.66669,44,104,497,498,-0.4489974,-0.1644333,-0.4489815,-0.756439,3.115676,-0.008134359,-0.1550796,-0.05607386,0.2807747,-0.3508656,2.885944,2.383135
80.00002,6.677801,44,104,497,498,-0.4521636,-0.1729632,-0.4426215,-0.754472,3.108694,0.002038383,-0.1315983,-0.04653622,0.2870426,-0.3488997,2.878637,2.390918
80.33336,6.688912,44,104,497,498,-0.452147,-0.1772455,-0.439454,-0.7524074,3.101678,0.01216479,-0.1369792,-0.05828996,0.2732397,-0.3480581,2.871484,2.398957
80.66669,6.700024,44,104,497,498,-0.4435232,-0.1517122,-0.4329431,-0.7517949,3.095179,0.02176921,-0.1199053,-0.05830811,0.2827644,-0.3462205,2.862965,2.407867
81.00003,6.711135,44,104,497,498,-0.4369989,-0.1272268,-0.4307002,-0.7514071,3.088533,0.03085166,-0.1147447,-0.08717768,0.2551411,-0.3462392,2.85513,2.416192
81.33337,6.722246,44,104,497,498,-0.4358491,-0.08888092,-0.4314989,-0.7515499,3.081818,0.04066434,-0.1180518,-0.08515052,0.2210587,-0.345991,2.849793,2.422581
81.6667,6.733357,44,104,497,498,-0.4346601,-0.0537426,-0.4291485,-0.7521555,3.074921,0.05046371,-0.1168729,-0.08716255,0.2530155,-0.3440096,2.840013,2.432876
82.00004,6.744469,44,104,497,498,-0.4420002,-0.03140072,-0.422542,-0.7524676,3.068133,0.06054803,-0.1297109,-0.08505005,0.2360083,-0.3432463,2.833209,2.441094
82.33337,6.75558,44,104,497,498,-0.4451191,-0.02290154,-0.4171315,-0.7527995,3.06168,0.07019773,-0.1189676,-0.07438634,0.2476458,-0.3417763,2.825766,2.448917
82.66671,6.766691,44,104,497,498,-0.451433,-0.01228035,-0.4106009,-0.7532037,3.055463,0.0799939,-0.1264686,-0.08076718,0.2413039,-0.3409661,2.818054,2.457911
83.00005,6.777802,44,104,497,498,-0.4545314,-0.003804982,-0.4030721,-0.7536772,3.049013,0.08982469,-0.1136567,-0.08396739,0.2519284,-0.3395456,2.808823,2.467449
83.33338,6.788914,44,104,497,498,-0.44916,0.00575402,-0.4009254,-0.7544139,3.042691,0.09926507,-0.09881844,-0.07667516,0.2209473,-0.3394311,2.803776,2.472868
83.66672,6.800025,44,104,497,498,-0.4502222,0.008942727,-0.4019645,-0.7548932,3.036098,0.10909,-0.1095819,-0.06825499,0.1804849,-0.3392042,2.80016,2.477697
84.00005,6.811136,44,104,497,498,-0.4448879,0.001450386,-0.3988655,-0.7552011,3.029796,0.1184526,-0.1202175,-0.05652724,0.1751462,-0.3384553,2.795367,2.483834
84.33339,6.822248,44,104,497,498,-0.4471428,-0.02515155,-0.4011163,-0.7550893,3.023674,0.1282882,-0.1104239,-0.03513125,0.2133994,-0.3362496,2.786951,2.492639
84.66673,6.833359,44,104,497,498,-0.44821,-0.04329364,-0.3959003,-0.754742,3.017332,0.1379145,-0.1190022,-0.04259366,0.2038658,-0.3355796,2.780824,2.499959
85.00006,6.84447,44,104,497,498,-0.4557238,-0.06778212,-0.3949307,-0.7539968,3.010737,0.1479966,-0.1070401,-0.01055211,0.243146,-0.3327311,2.772429,2.508593
85.3334,6.855581,44,104,497,498,-0.4557535,-0.08806629,-0.3940091,-0.7529161,3.004011,0.1578184,-0.1252411,-0.01057608,0.2165807,-0.3317724,2.768217,2.514467
85.66673,6.866693,44,104,497,498,-0.4601093,-0.1125351,-0.3973284,-0.7517459,2.997082,0.1681238,-0.1197089,-0.001902387,0.2655329,-0.3288764,2.75914,2.524165
86.00007,6.877804,44,104,497,498,-0.4569276,-0.1349495,-0.3910977,-0.7506737,2.990835,0.1778113,-0.1220191,-0.04349406,0.2497085,-0.3287678,2.749546,2.534653
86.3334,6.888915,44,104,497,498,-0.4559321,-0.1573159,-0.3923199,-0.7491898,2.983875,0.1879441,-0.1135586,-0.04895912,0.2209007,-0.3287587,2.745193,2.539016
86.66674,6.900026,44,104,497,498,-0.4591925,-0.1690224,-0.3966242,-0.7477635,2.976809,0.1983182,-0.1231192,-0.04148881,0.2209065,-0.3277302,2.738277,2.547117
87.00008,6.911138,44,104,497,498,-0.4592771,-0.1935097,-0.3989158,-0.7458981,2.969507,0.208794,-0.1306151,-0.03405996,0.2006585,-0.3267571,2.734168,2.552509
87.33341,6.922249,44,104,497,498,-0.4615082,-0.2169119,-0.4033119,-0.7439157,2.961962,0.2195169,-0.2190416,-0.04231316,0.2052583,-0.3262932,2.726999,2.563974
87.66675,6.93336,44,104,497,498,-0.4562351,-0.2297239,-0.4066356,-0.741824,2.954366,0.2299917,-0.1734206,-0.007553354,0.1229508,-0.325735,2.730551,2.561351
88.00008,6.944471,44,104,497,498,-0.4605479,-0.2478311,-0.4109879,-0.7394512,2.946379,0.2408355,-0.1447394,-0.01197599,0.1026215,-0.3256966,2.728433,2.564069
88.33342,6.955583,44,104,497,498,-0.4637681,-0.260613,-0.4099781,-0.7374192,2.938692,0.2517593,-0.1339491,-0.009760797,0.1345143,-0.324479,2.723037,2.569992
88.66676,6.966694,44,104,497,498,-0.4669929,-0.2744386,-0.4142861,-0.7352743,2.931074,0.2622337,-0.1260235,-0.01469438,0.2602191,-0.3209482,2.705884,2.587076
89.00009,6.977805,44,104,497,498,-0.4615728,-0.2840866,-0.4112261,-0.7328354,2.923044,0.2722331,-0.1473448,-0.04546979,0.2806368,-0.320309,2.693501,2.601047
89.33343,6.988916,44,104,497,498,-0.4508425,-0.2831043,-0.402791,-0.7309994,2.915657,0.2824644,-0.1249202,-0.0327308,0.2858264,-0.3185977,2.685444,2.609449
89.66676,7.000028,44,104,497,498,-0.4420885,-0.2703992,-0.3932282,-0.7294973,2.90845,0.2912145,-0.1196193,-0.01365784,0.2612496,-0.3171761,2.679573,2.616146
90.0001,7.011139,44,104,497,498,-0.4247702,-0.2439651,-0.3697676,-0.72857,2.902573,0.2998597,-0.1026236,-0.003110543,0.2387877,-0.3157225,2.67491,2.621292
90.0001,7.02225,44,104,497,498,-0.4128425,-0.2259759,-0.3549033,-0.7278787,2.895511,0.3091725,-0.07170621,0.01063642,0.2343817,-0.3138338,2.668238,2.627516
90.0001,7.033361,44,104,497,498,-0.3933812,-0.2048946,-0.3282994,-0.7271628,2.890493,0.3167825,-0.06750265,-0.02659756,0.2440567,-0.3132367,2.659312,2.636514
90.0001,7.044473,44,104,497,498,-0.3792555,-0.1922081,-0.3123881,-0.7267905,2.885269,0.3232995,-0.05469428,-0.04895155,0.2654092,-0.3125252,2.646409,2.648923
90.0001,7.055584,44,104,497,498,-0.3641233,-0.1753356,-0.292165,-0.7262531,2.880737,0.3303012,-0.009895921,-0.05645406,0.2865728,-0.3111701,2.634787,2.6588
90.0001,7.066695,44,104,497,498,-0.3446925,-0.1637604,-0.268887,-0.7263788,2.875628,0.3371376,-0.04118728,-0.09600487,0.2111765,-0.3127909,2.63089,2.663939
90.0001,7.077806,44,104,497,498,-0.3285674,-0.1499867,-0.2528951,-0.7267148,2.872836,0.3426732,-0.05413562,-0.1067198,0.1771905,-0.3134732,2.625093,2.670765
90.0001,7.088918,44,104,497,498,-0.308145,-0.143775,-0.2338536,-0.7260911,2.869103,0.3483425,-0.03176238,-0.06426647,0.1407391,-0.3123707,2.624537,2.670864
90.0001,7.100029,44,104,497,498,-0.2942001,-0.1396277,-0.2200724,-0.7255037,2.865716,0.3541493,-0.0488702,-0.04622069,0.1066651,-0.3122812,2.623073,2.673241
90.0001,7.11114,44,104,497,498,-0.2737105,-0.1398726,-0.1914873,-0.7245401,2.862915,0.3587885,-0.03705345,-0.02488748,0.1236076,-0.3111632,2.61775,2.678876
90.0001,7.122252,44,104,497,498,-0.2576328,-0.1378761,-0.1809638,-0.7235042,2.85936,0.36397,-0.0455239,-0.02800231,0.1396532,-0.3103637,2.610228,2.686676
90.0001,7.133363,44,104,497,498,-0.2297263,-0.139177,-0.1567116,-0.7224096,2.856941,0.3676049,-0.04452952,-0.04292202,0.1332813,-0.3105682,2.606624,2.690652
90.0001,7.144474,44,104,497,498,-0.2039626,-0.1351577,-0.1324106,-0.7210391,2.85369,0.3721155,-0.02001872,-0.04836374,0.1332192,-0.3102609,2.598375,2.697839
90.0001,7.155585,44,104,497,498,-0.18571,-0.1353149,-0.1187382,-0.7199914,2.852016,0.3746098,-0.03082237,-0.05902345,0.1119923,-0.3110945,2.596875,2.700303
90.0001,7.166697,44,104,497,498,-0.1556642,-0.1345016,-0.09341145,-0.7186987,2.85076,0.3766887,-0.02446103,-0.05800205,0.1044999,-0.3112218,2.59369,2.703597
90.0001,7.177808,44,104,497,498,-0.1396073,-0.1378192,-0.08507332,-0.7172425,2.848126,0.3797524,-0.02339143,-0.05906368,0.1066301,-0.3113129,2.589066,2.708205
90.0001,7.188919,44,104,497,498,-0.1170862,-0.1369262,-0.06821701,-0.7159674,2.846834,0.3814171,-0.04254615,-0.05047803,0.1055927,-0.3110924,2.58602,2.71219
90.0001,7.20003,44,104,497,498,-0.09673735,-0.1274694,-0.058743,-0.7148654,2.845409,0.3831202,-0.03826538,-0.04092643,0.1013015,-0.3108942,2.581743,2.716519
90.0001,7.211142,44,104,497,498,-0.08055473,-0.1169935,-0.03857148,-0.7138896,2.845043,0.3838425,-0.02762222,-0.03671925,0.09485787,-0.3108111,2.578675,2.71947
90.0001,7.222253,44,104,497,498,-0.06329444,-0.09479234,-0.02046015,-0.7132968,2.845053,0.384121,-0.02116003,-0.01328666,0.09154306,-0.3098433,2.577955,2.720134
90.0001,7.233364,44,104,497,498,-0.04067588,-0.06408582,-0.001274427,-0.7132004,2.845792,0.3834201,-0.01799505,-0.004827335,0.075524,-0.3094955,2.576912,2.721246
90.0001,7.244475,44,104,497,498,-0.02341802,-0.0322134,0.01699034,-0.7140851,2.849372,0.3810163,-0.01484499,-0.008060398,0.06595291,-0.3093256,2.57452,2.723654
90.0001,7.255587,44,104,497,498,-0.004068447,-0.008913601,0.02976135,-0.7142742,2.850527,0.3797311,-0.00634956,-0.02192393,0.06594628,-0.3095786,2.572725,2.724981
90.0001,7.266698,44,104,497,498,0.006716779,0.009103749,0.03937579,-0.7145234,2.851794,0.378419,-0.006320819,-0.02403071,0.074482,-0.3094583,2.568717,2.72885
90.0001,7.277809,44,104,497,498,0.01640665,0.01860761,0.04786627,-0.7146981,2.852738,0.3773334,-0.008447934,-0.0208608,0.06916291,-0.3094093,2.565872,2.731519
90.0001,7.28892,44,104,497,498,0.03034587,0.03131086,0.05422171,-0.715046,2.854206,0.3755142,0.005384492,-0.02728528,0.06805471,-0.3094652,2.564058,2.732729
90.0001,7.300032,44,104,497,498,0.03792977,0.04506559,0.06381972,-0.7153949,2.855532,0.3738327,0.005391872,-0.0134753,0.05737591,-0.3090716,2.562298,2.734298
90.0001,7.311143,44,104,497,498,0.04763155,0.0630996,0.07131342,-0.7160926,2.857515,0.3715618,0.01079642,0.02483119,0.04763324,-0.3077384,2.563756,2.732804
90.0001,7.322254,44,104,497,498,0.05518097,0.07369858,0.07772236,-0.7167403,2.859825,0.3689053,0.004269382,0.005600392,0.02642297,-0.3083189,2.563586,2.733121
90.0001,7.333365,44,104,497,498,0.06492741,0.08422592,0.0926228,-0.7173699,2.862489,0.3659338,0.02029975,0.003489882,0.04552914,-0.3080612,2.561381,2.734774
90.0001,7.344477,44,104,497,498,0.07355021,0.08732446,0.1031909,-0.7178018,2.864279,0.3634453,0.01500554,0.00351876,0.05196224,-0.3076398,2.557983,2.737831
90.0001,7.355588,44,104,497,498,0.08750981,0.1010797,0.1116842,-0.7186572,2.867174,0.3599262,0.02124903,-0.02425338,0.03709451,-0.3087823,2.557665,2.73791
90.0001,7.366699,44,104,497,498,0.09498344,0.1074754,0.1105905,-0.7197358,2.869506,0.3568082,0.03394932,-0.02437514,0.01362803,-0.3092239,2.558137,2.736698
90.0001,7.37781,44,104,497,498,0.1057394,0.1148404,0.1201343,-0.7205768,2.872537,0.3530824,0.03720116,0.01709515,-0.004634688,-0.3082875,2.561636,2.732972
90.0001,7.388922,44,104,497,498,0.1089451,0.111622,0.1222156,-0.7211755,2.875133,0.34986,0.02979648,0.03523782,-0.007861933,-0.3072713,2.563299,2.731204
90.0001,7.400033,44,104,497,498,0.1121839,0.09344481,0.1316365,-0.721266,2.877466,0.3466855,0.03195729,0.03950885,-0.002545992,-0.3066342,2.563191,2.730965
90.0001,7.411144,44,104,497,498,0.1132306,0.07957929,0.1336653,-0.7212746,2.879907,0.3435851,0.03724552,0.02566582,-0.0003954573,-0.3065735,2.563405,2.730256
90.0001,7.422256,44,104,497,498,0.1153581,0.06787923,0.1346261,-0.7216666,2.882299,0.3401608,0.04571091,0.01814349,-0.01104938,-0.3066896,2.564355,2.72856
90.0001,7.433367,44,104,497,498,0.1131636,0.05085471,0.1324007,-0.7213017,2.884379,0.3373842,0.04033072,0.01811988,-0.02381005,-0.306696,2.566288,2.726536
90.0001,7.444478,44,104,497,498,0.1056646,0.02956384,0.1323315,-0.7205433,2.886525,0.3345838,0.03821658,0.02874514,-0.03236074,-0.3064435,2.568694,2.723675
90.0001,7.455589,44,104,497,498,0.1013213,0.008280955,0.1290312,-0.719617,2.888227,0.33224,0.02962032,0.02658636,-0.04936625,-0.306622,2.572019,2.720489
90.0001,7.466701,44,104,497,498,0.1012901,-0.003437032,0.1289532,-0.7188213,2.890119,0.3296908,0.02959141,0.02123979,-0.05360926,-0.3069485,2.573972,2.718227
90.0001,7.477812,44,104,497,498,0.101313,-0.007695446,0.1289499,-0.7181826,2.892629,0.3261403,0.03173464,0.01912005,-0.04828352,-0.3069698,2.575328,2.716527
90.0001,7.488923,44,104,497,498,0.1023164,-0.006583108,0.1214911,-0.717764,2.89425,0.3237874,0.02959359,0.0191174,-0.0504075,-0.307047,2.5775,2.714235
90.0001,7.500034,44,104,497,498,0.1012374,-0.003361162,0.1172274,-0.7175339,2.89526,0.3216814,0.02533622,0.02656438,-0.05680993,-0.3069639,2.580592,2.711102
90.0001,7.511146,44,104,497,498,0.1022936,0.01052016,0.1119842,-0.7176303,2.897097,0.3191149,0.02640007,0.0340299,-0.05788318,-0.3063477,2.582791,2.709016
90.0001,7.522257,44,104,497,498,0.1012343,0.01588899,0.1098953,-0.7179366,2.899116,0.3163899,0.02319912,0.03935027,-0.06321595,-0.3061639,2.586217,2.705622
90.0001,7.533368,44,104,497,498,0.09697478,0.02337136,0.1078518,-0.7180133,2.900966,0.3140306,0.01678633,0.04044132,-0.06424604,-0.305806,2.588521,2.703707
90.0001,7.544479,44,104,497,498,0.09489177,0.04149766,0.1058546,-0.7185459,2.902923,0.3113281,0.02319157,0.03724467,-0.061051,-0.3055381,2.590456,2.701256
90.0001,7.555591,44,104,497,498,0.09702313,0.05216624,0.1027116,-0.7190481,2.90487,0.3087328,0.02848532,0.0234052,-0.05675521,-0.3056718,2.591709,2.699693
90.0001,7.566702,44,104,497,498,0.09710239,0.07135906,0.1028362,-0.7202599,2.907194,0.3055453,0.03488503,0.01807825,-0.05142826,-0.3057202,2.592883,2.697942
90.0001,7.577813,44,104,497,498,0.09708832,0.07990986,0.09863245,-0.7210498,2.909112,0.3030206,0.03804808,0.01803974,-0.05997705,-0.3059205,2.596675,2.693892
90.0001,7.588924,44,104,497,498,0.09811132,0.08208257,0.09223513,-0.7217315,2.910571,0.3006917,0.04442076,0.01694795,-0.06425104,-0.3059738,2.599112,2.69092
90.0001,7.600036,44,104,497,498,0.09917969,0.07142722,0.09533545,-0.7221683,2.912254,0.2982173,0.04552735,0.02759835,-0.06215455,-0.3057522,2.601542,2.688113
90.0001,7.611147,44,104,497,498,0.1034191,0.0564879,0.09732888,-0.7220485,2.913977,0.2956508,0.04449042,0.0361294,-0.06004794,-0.3054614,2.604112,2.685288
90.0001,7.622258,44,104,497,498,0.1107839,0.03527127,0.09828701,-0.7226828,2.918274,0.2916199,0.05199493,0.03721742,-0.04729323,-0.3051168,2.605334,2.683424
90.0001,7.633369,44,104,497,498,0.1203483,0.0128469,0.1023148,-0.7218967,2.919889,0.2888459,0.0509454,0.03830999,-0.04196728,-0.304754,2.607292,2.681152
90.0001,7.644481,44,104,497,498,0.1278199,-0.002135385,0.1064065,-0.7211403,2.921554,0.2857969,0.06053741,0.03722141,-0.03986815,-0.3045932,2.608928,2.678645
90.0001,7.655592,44,104,497,498,0.1320682,-0.01708203,0.1094649,-0.7202146,2.923196,0.2829859,0.06901806,0.04353384,-0.05483165,-0.3044467,2.612769,2.674126
90.0001,7.666703,44,104,497,498,0.1405881,-0.03740261,0.1145473,-0.7188154,2.92404,0.2805001,0.07006402,0.05094759,-0.06657913,-0.304255,2.617138,2.669147
90.0001,7.677814,44,104,497,498,0.1543625,-0.05550982,0.1186182,-0.7180372,2.926999,0.2770846,0.07111575,0.0530489,-0.07298601,-0.304239,2.621027,2.664599
90.0001,7.688926,44,104,497,498,0.16289,-0.06727888,0.1227263,-0.7166029,2.928702,0.2737591,0.08182062,0.05412561,-0.05917743,-0.30379,2.62261,2.661904
90.0001,7.700037,44,104,497,498,0.1853321,-0.07914222,0.1341667,-0.7149634,2.930815,0.2695401,0.07332072,0.05736889,-0.05703594,-0.303301,2.626274,2.657778
90.0001,7.711148,44,104,497,498,0.1949808,-0.07708008,0.1404887,-0.7137336,2.933033,0.2654431,0.07862962,0.05203056,-0.05490476,-0.3032089,2.628324,2.654919
90.0001,7.72226,44,104,497,498,0.2132216,-0.06977902,0.153139,-0.7124664,2.935176,0.2610244,0.1008783,0.02742322,-0.06876408,-0.3039967,2.632104,2.64951
90.0001,7.733371,44,104,497,498,0.2303966,-0.05925038,0.1647792,-0.7115461,2.938209,0.2556912,0.1071748,0.0135126,-0.08047277,-0.3048275,2.635795,2.644795
90.0001,7.744482,44,104,497,498,0.2422045,-0.05721855,0.1731849,-0.7104169,2.940487,0.2508802,0.1082378,0.0103206,-0.0783352,-0.3052249,2.638196,2.641288
90.0001,7.755593,44,104,497,498,0.2636095,-0.06376232,0.1857186,-0.7088727,2.943156,0.2453232,0.1104292,0.02737519,-0.07519587,-0.3047599,2.641265,2.637157
90.0001,7.766705,44,104,497,498,0.2753788,-0.05849566,0.1899129,-0.7078314,2.946295,0.2395822,0.1104628,0.03059283,-0.06881508,-0.3046811,2.643664,2.633637
90.0001,7.777816,44,104,497,498,0.290399,-0.04688749,0.1972991,-0.7068317,2.949245,0.2336114,0.10711,0.02303821,-0.1007423,-0.3056638,2.649578,2.627131
90.0001,7.788927,44,104,497,498,0.3000581,-0.02028108,0.1973939,-0.7067827,2.952692,0.2273993,0.1144968,0.02082561,-0.1178056,-0.3063418,2.654788,2.620708
90.0001,7.800038,44,104,497,498,0.3033178,-0.004340149,0.1996009,-0.7064157,2.956125,0.2213651,0.1186767,0.01224653,-0.1327083,-0.3072287,2.660231,2.614069
90.0001,7.81115,44,104,497,498,0.305448,0.0266756,0.1955408,-0.7081335,2.960164,0.2154487,0.1208147,0.00268966,-0.1209638,-0.3079445,2.662589,2.610488
90.0001,7.822261,44,104,497,498,0.3033059,0.03629723,0.1913625,-0.7082863,2.963396,0.2097101,0.1155326,0.00380829,-0.1124198,-0.3082407,2.665714,2.606237
90.0001,7.833372,44,104,497,498,0.2926882,0.05866734,0.1873124,-0.7086629,2.966036,0.204649,0.1155231,0.003820181,-0.1124255,-0.3087845,2.669856,2.601126
90.0001,7.844483,44,104,497,498,0.2767487,0.0971099,0.1802531,-0.7103087,2.969417,0.1994138,0.1144634,0.008077428,-0.1145667,-0.3092777,2.674023,2.595905
90.0001,7.855595,44,104,497,498,0.2671921,0.1376632,0.1731518,-0.7124542,2.972742,0.1943804,0.1154965,0.002735093,-0.1166794,-0.3100921,2.677366,2.591516
90.0001,7.866706,44,104,497,498,0.2491514,0.1942317,0.1608794,-0.7155972,2.975393,0.1897806,0.1143801,-0.004743963,-0.1241069,-0.3111382,2.681337,2.586485
90.0001,7.877817,44,104,497,498,0.2280888,0.2444022,0.1486609,-0.7183339,2.979283,0.181496,0.102564,-0.02391383,-0.1357101,-0.3126253,2.685151,2.581969
90.0001,7.888928,44,104,497,498,0.2143087,0.2870854,0.143742,-0.7223313,2.982647,0.1769436,0.09617877,-0.0345104,-0.1249968,-0.3137348,2.687007,2.579274
90.0001,7.90004,44,104,497,498,0.2036497,0.3020631,0.1386093,-0.7257918,2.985719,0.1726858,0.09840079,-0.04716486,-0.08873858,-0.3142993,2.685768,2.579287
90.0001,7.911151,44,104,497,498,0.1950564,0.2968695,0.1194805,-0.7283564,2.987843,0.1675357,0.08893809,-0.03959009,-0.06103235,-0.314588,2.685224,2.579083
90.0001,7.922262,44,104,497,498,0.2014307,0.2701505,0.1203501,-0.7292215,2.990934,0.1619926,0.07307205,-0.01396199,-0.0557273,-0.3144985,2.687073,2.57673
90.0001,7.933373,44,104,497,498,0.2022634,0.1976701,0.1188142,-0.7286345,2.993117,0.1585039,0.06459464,0.0009778813,-0.05574643,-0.3145374,2.689498,2.573949
90.0001,7.944485,44,104,497,498,0.200942,0.1231471,0.1119316,-0.7279426,2.994573,0.1551978,0.06568445,0.003123775,-0.05043767,-0.3147478,2.69101,2.571752
90.0001,7.955596,44,104,497,498,0.2007213,0.07204489,0.1041174,-0.7272113,2.995556,0.1525123,0.07637747,-0.001136675,-0.03980267,-0.3149614,2.690874,2.570528
90.0001,7.966707,44,104,497,498,0.1917554,-0.02366342,0.0822437,-0.7244288,2.995457,0.1506848,0.08391599,0.01060174,-0.02708269,-0.3145465,2.691311,2.569051
90.0001,7.977818,44,104,497,498,0.1872582,-0.05767675,0.06924757,-0.7228991,2.995384,0.1492286,0.09037616,0.02338323,-0.02288824,-0.3140959,2.692777,2.56633
90.0001,7.98893,44,104,497,498,0.17743,-0.09162512,0.05205873,-0.7209683,2.995131,0.147709,0.08930796,0.03081731,-0.0303638,-0.3139377,2.695022,2.563219
90.0001,8.000041,44,104,497,498,0.1676232,-0.1032326,0.03935748,-0.719371,2.996465,0.1461319,0.08609335,0.03293604,-0.03782563,-0.3139537,2.697981,2.559494
90.0001,8.011152,44,104,497,498,0.1600286,-0.1052352,0.02449852,-0.7182263,2.996044,0.1449138,0.09133007,0.005217008,-0.03881529,-0.3147819,2.697941,2.55836
90.0001,8.022264,44,104,497,498,0.1428577,-0.08486692,0.008771688,-0.7176681,2.994762,0.1453058,0.09660283,-0.01504543,-0.03875858,-0.3155942,2.697562,2.557347
